second,BVP
0,-109.34
1,1.644350282485875
2,1.644350282485875
3,1.644350282485875
4,1.644350282485875
5,1.644350282485875
6,1.644350282485875
7,1.644350282485875
8,1.644350282485875
9,1.644350282485875
10,1.644350282485875
11,1.644350282485875
12,-102.8
13,1.644350282485875
14,1.644350282485875
15,1.644350282485875
16,1.644350282485875
17,1.644350282485875
18,1.644350282485875
19,1.644350282485875
20,1.644350282485875
21,1.644350282485875
22,1.644350282485875
23,1.644350282485875
24,-96.55
25,1.644350282485875
26,1.644350282485875
27,1.644350282485875
28,1.644350282485875
29,1.644350282485875
30,1.644350282485875
31,1.644350282485875
32,1.644350282485875
33,1.644350282485875
34,1.644350282485875
35,1.644350282485875
36,-90.06
37,1.644350282485875
38,1.644350282485875
39,1.644350282485875
40,1.644350282485875
41,1.644350282485875
42,1.644350282485875
43,1.644350282485875
44,1.644350282485875
45,1.644350282485875
46,1.644350282485875
47,1.644350282485875
48,-83.19
49,1.644350282485875
50,1.644350282485875
51,1.644350282485875
52,1.644350282485875
53,1.644350282485875
54,1.644350282485875
55,1.644350282485875
56,1.644350282485875
57,1.644350282485875
58,1.644350282485875
59,1.644350282485875
60,-76.59
61,1.644350282485875
62,1.644350282485875
63,1.644350282485875
64,1.644350282485875
65,1.644350282485875
66,1.644350282485875
67,1.644350282485875
68,1.644350282485875
69,1.644350282485875
70,1.644350282485875
71,1.644350282485875
72,-71.29
73,1.644350282485875
74,1.644350282485875
75,1.644350282485875
76,1.644350282485875
77,1.644350282485875
78,1.644350282485875
79,1.644350282485875
80,1.644350282485875
81,1.644350282485875
82,1.644350282485875
83,1.644350282485875
84,-68.04
85,1.644350282485875
86,1.644350282485875
87,1.644350282485875
88,1.644350282485875
89,1.644350282485875
90,1.644350282485875
91,1.644350282485875
92,1.644350282485875
93,1.644350282485875
94,1.644350282485875
95,1.644350282485875
96,-66.62
97,1.644350282485875
98,1.644350282485875
99,1.644350282485875
100,1.644350282485875
101,1.644350282485875
102,1.644350282485875
103,1.644350282485875
104,1.644350282485875
105,1.644350282485875
106,1.644350282485875
107,1.644350282485875
108,-65.74
109,1.644350282485875
110,1.644350282485875
111,1.644350282485875
112,1.644350282485875
113,1.644350282485875
114,1.644350282485875
115,1.644350282485875
116,1.644350282485875
117,1.644350282485875
118,1.644350282485875
119,1.644350282485875
120,-63.41
121,1.644350282485875
122,1.644350282485875
123,1.644350282485875
124,1.644350282485875
125,1.644350282485875
126,1.644350282485875
127,1.644350282485875
128,1.644350282485875
129,1.644350282485875
130,1.644350282485875
131,1.644350282485875
132,-57.67
133,1.644350282485875
134,1.644350282485875
135,1.644350282485875
136,1.644350282485875
137,1.644350282485875
138,1.644350282485875
139,1.644350282485875
140,1.644350282485875
141,1.644350282485875
142,1.644350282485875
143,1.644350282485875
144,-47.58
145,1.644350282485875
146,1.644350282485875
147,1.644350282485875
148,1.644350282485875
149,1.644350282485875
150,1.644350282485875
151,1.644350282485875
152,1.644350282485875
153,1.644350282485875
154,1.644350282485875
155,-33.58
156,1.644350282485875
157,1.644350282485875
158,1.644350282485875
159,1.644350282485875
160,1.644350282485875
161,1.644350282485875
162,1.644350282485875
163,1.644350282485875
164,1.644350282485875
165,1.644350282485875
166,-17.37
167,1.644350282485875
168,1.644350282485875
169,1.644350282485875
170,1.644350282485875
171,1.644350282485875
172,1.644350282485875
173,1.644350282485875
174,1.644350282485875
175,1.644350282485875
176,1.644350282485875
177,1.644350282485875
178,-1.16
179,1.644350282485875
180,1.644350282485875
181,1.644350282485875
182,1.644350282485875
183,1.644350282485875
184,1.644350282485875
185,1.644350282485875
186,1.644350282485875
187,1.644350282485875
188,1.644350282485875
189,1.644350282485875
190,13.32
191,1.644350282485875
192,1.644350282485875
193,1.644350282485875
194,1.644350282485875
195,1.644350282485875
196,1.644350282485875
197,1.644350282485875
198,1.644350282485875
199,1.644350282485875
200,1.644350282485875
201,1.644350282485875
202,25.33
203,1.644350282485875
204,1.644350282485875
205,1.644350282485875
206,1.644350282485875
207,1.644350282485875
208,1.644350282485875
209,1.644350282485875
210,1.644350282485875
211,1.644350282485875
212,1.644350282485875
213,1.644350282485875
214,35.14
215,1.644350282485875
216,1.644350282485875
217,1.644350282485875
218,1.644350282485875
219,1.644350282485875
220,1.644350282485875
221,1.644350282485875
222,1.644350282485875
223,1.644350282485875
224,1.644350282485875
225,1.644350282485875
226,43.44
227,1.644350282485875
228,1.644350282485875
229,1.644350282485875
230,1.644350282485875
231,1.644350282485875
232,1.644350282485875
233,1.644350282485875
234,1.644350282485875
235,1.644350282485875
236,1.644350282485875
237,1.644350282485875
238,50.55
239,1.644350282485875
240,1.644350282485875
241,1.644350282485875
242,1.644350282485875
243,1.644350282485875
244,1.644350282485875
245,1.644350282485875
246,1.644350282485875
247,1.644350282485875
248,1.644350282485875
249,1.644350282485875
250,56.1
251,1.644350282485875
252,1.644350282485875
253,1.644350282485875
254,1.644350282485875
255,1.644350282485875
256,1.644350282485875
257,1.644350282485875
258,1.644350282485875
259,1.644350282485875
260,1.644350282485875
261,1.644350282485875
262,59.18
263,1.644350282485875
264,1.644350282485875
265,1.644350282485875
266,1.644350282485875
267,1.644350282485875
268,1.644350282485875
269,1.644350282485875
270,1.644350282485875
271,1.644350282485875
272,1.644350282485875
273,1.644350282485875
274,59.0
275,1.644350282485875
276,1.644350282485875
277,1.644350282485875
278,1.644350282485875
279,1.644350282485875
280,1.644350282485875
281,1.644350282485875
282,1.644350282485875
283,1.644350282485875
284,1.644350282485875
285,1.644350282485875
286,55.53
287,1.644350282485875
288,1.644350282485875
289,1.644350282485875
290,1.644350282485875
291,1.644350282485875
292,1.644350282485875
293,1.644350282485875
294,1.644350282485875
295,1.644350282485875
296,1.644350282485875
297,1.644350282485875
298,49.71
299,1.644350282485875
300,1.644350282485875
301,1.644350282485875
302,1.644350282485875
303,1.644350282485875
304,1.644350282485875
305,1.644350282485875
306,1.644350282485875
307,1.644350282485875
308,1.644350282485875
309,1.644350282485875
310,43.07
311,1.644350282485875
312,1.644350282485875
313,1.644350282485875
314,1.644350282485875
315,1.644350282485875
316,1.644350282485875
317,1.644350282485875
318,1.644350282485875
319,1.644350282485875
320,1.644350282485875
321,1.644350282485875
322,37.14
323,1.644350282485875
324,1.644350282485875
325,1.644350282485875
326,1.644350282485875
327,1.644350282485875
328,1.644350282485875
329,1.644350282485875
330,1.644350282485875
331,1.644350282485875
332,1.644350282485875
333,1.644350282485875
334,32.9
335,1.644350282485875
336,1.644350282485875
337,1.644350282485875
338,1.644350282485875
339,1.644350282485875
340,1.644350282485875
341,1.644350282485875
342,1.644350282485875
343,1.644350282485875
344,1.644350282485875
345,30.52
346,1.644350282485875
347,1.644350282485875
348,1.644350282485875
349,1.644350282485875
350,1.644350282485875
351,1.644350282485875
352,1.644350282485875
353,1.644350282485875
354,1.644350282485875
355,1.644350282485875
356,29.56
357,1.644350282485875
358,1.644350282485875
359,1.644350282485875
360,1.644350282485875
361,1.644350282485875
362,1.644350282485875
363,1.644350282485875
364,1.644350282485875
365,1.644350282485875
366,1.644350282485875
367,1.644350282485875
368,29.31
369,1.644350282485875
370,1.644350282485875
371,1.644350282485875
372,1.644350282485875
373,1.644350282485875
374,1.644350282485875
375,1.644350282485875
376,1.644350282485875
377,1.644350282485875
378,1.644350282485875
379,1.644350282485875
380,29.18
381,1.644350282485875
382,1.644350282485875
383,1.644350282485875
384,1.644350282485875
385,1.644350282485875
386,1.644350282485875
387,1.644350282485875
388,1.644350282485875
389,1.644350282485875
390,1.644350282485875
391,1.644350282485875
392,28.91
393,1.644350282485875
394,1.644350282485875
395,1.644350282485875
396,1.644350282485875
397,1.644350282485875
398,1.644350282485875
399,1.644350282485875
400,1.644350282485875
401,1.644350282485875
402,1.644350282485875
403,1.644350282485875
404,28.64
405,1.644350282485875
406,1.644350282485875
407,1.644350282485875
408,1.644350282485875
409,1.644350282485875
410,1.644350282485875
411,1.644350282485875
412,1.644350282485875
413,1.644350282485875
414,1.644350282485875
415,1.644350282485875
416,28.85
417,1.644350282485875
418,1.644350282485875
419,1.644350282485875
420,1.644350282485875
421,1.644350282485875
422,1.644350282485875
423,1.644350282485875
424,1.644350282485875
425,1.644350282485875
426,1.644350282485875
427,1.644350282485875
428,30.17
429,1.644350282485875
430,1.644350282485875
431,1.644350282485875
432,1.644350282485875
433,1.644350282485875
434,1.644350282485875
435,1.644350282485875
436,1.644350282485875
437,1.644350282485875
438,1.644350282485875
439,1.644350282485875
440,33.18
441,1.644350282485875
442,1.644350282485875
443,1.644350282485875
444,1.644350282485875
445,1.644350282485875
446,1.644350282485875
447,1.644350282485875
448,1.644350282485875
449,1.644350282485875
450,1.644350282485875
451,1.644350282485875
452,38.08
453,1.644350282485875
454,1.644350282485875
455,1.644350282485875
456,1.644350282485875
457,1.644350282485875
458,1.644350282485875
459,1.644350282485875
460,1.644350282485875
461,1.644350282485875
462,1.644350282485875
463,1.644350282485875
464,44.48
465,1.644350282485875
466,1.644350282485875
467,1.644350282485875
468,1.644350282485875
469,1.644350282485875
470,1.644350282485875
471,1.644350282485875
472,1.644350282485875
473,1.644350282485875
474,1.644350282485875
475,1.644350282485875
476,51.32
477,1.644350282485875
478,1.644350282485875
479,1.644350282485875
480,1.644350282485875
481,1.644350282485875
482,1.644350282485875
483,1.644350282485875
484,1.644350282485875
485,1.644350282485875
486,1.644350282485875
487,1.644350282485875
488,57.12
489,1.644350282485875
490,1.644350282485875
491,1.644350282485875
492,1.644350282485875
493,1.644350282485875
494,1.644350282485875
495,1.644350282485875
496,1.644350282485875
497,1.644350282485875
498,1.644350282485875
499,1.644350282485875
500,60.45
501,1.644350282485875
502,1.644350282485875
503,1.644350282485875
504,1.644350282485875
505,1.644350282485875
506,1.644350282485875
507,1.644350282485875
508,1.644350282485875
509,1.644350282485875
510,1.644350282485875
511,1.644350282485875
512,60.49
513,1.644350282485875
514,1.644350282485875
515,1.644350282485875
516,1.644350282485875
517,1.644350282485875
518,1.644350282485875
519,1.644350282485875
520,1.644350282485875
521,1.644350282485875
522,1.644350282485875
523,1.644350282485875
524,57.44
525,1.644350282485875
526,1.644350282485875
527,1.644350282485875
528,1.644350282485875
529,1.644350282485875
530,1.644350282485875
531,1.644350282485875
532,1.644350282485875
533,1.644350282485875
534,1.644350282485875
535,52.54
536,1.644350282485875
537,1.644350282485875
538,1.644350282485875
539,1.644350282485875
540,1.644350282485875
541,1.644350282485875
542,1.644350282485875
543,1.644350282485875
544,1.644350282485875
545,1.644350282485875
546,47.6
547,1.644350282485875
548,1.644350282485875
549,1.644350282485875
550,1.644350282485875
551,1.644350282485875
552,1.644350282485875
553,1.644350282485875
554,1.644350282485875
555,1.644350282485875
556,1.644350282485875
557,1.644350282485875
558,44.31
559,1.644350282485875
560,1.644350282485875
561,1.644350282485875
562,1.644350282485875
563,1.644350282485875
564,1.644350282485875
565,1.644350282485875
566,1.644350282485875
567,1.644350282485875
568,1.644350282485875
569,1.644350282485875
570,43.55
571,1.644350282485875
572,1.644350282485875
573,1.644350282485875
574,1.644350282485875
575,1.644350282485875
576,1.644350282485875
577,1.644350282485875
578,1.644350282485875
579,1.644350282485875
580,1.644350282485875
581,1.644350282485875
582,45.0
583,1.644350282485875
584,1.644350282485875
585,1.644350282485875
586,1.644350282485875
587,1.644350282485875
588,1.644350282485875
589,1.644350282485875
590,1.644350282485875
591,1.644350282485875
592,1.644350282485875
593,1.644350282485875
594,47.46
595,1.644350282485875
596,1.644350282485875
597,1.644350282485875
598,1.644350282485875
599,1.644350282485875
600,1.644350282485875
601,1.644350282485875
602,1.644350282485875
603,1.644350282485875
604,1.644350282485875
605,1.644350282485875
606,49.47
607,1.644350282485875
608,1.644350282485875
609,1.644350282485875
610,1.644350282485875
611,1.644350282485875
612,1.644350282485875
613,1.644350282485875
614,1.644350282485875
615,1.644350282485875
616,1.644350282485875
617,1.644350282485875
618,50.2
619,1.644350282485875
620,1.644350282485875
621,1.644350282485875
622,1.644350282485875
623,1.644350282485875
624,1.644350282485875
625,1.644350282485875
626,1.644350282485875
627,1.644350282485875
628,1.644350282485875
629,1.644350282485875
630,49.79
631,1.644350282485875
632,1.644350282485875
633,1.644350282485875
634,1.644350282485875
635,1.644350282485875
636,1.644350282485875
637,1.644350282485875
638,1.644350282485875
639,1.644350282485875
640,1.644350282485875
641,1.644350282485875
642,49.35
643,1.644350282485875
644,1.644350282485875
645,1.644350282485875
646,1.644350282485875
647,1.644350282485875
648,1.644350282485875
649,1.644350282485875
650,1.644350282485875
651,1.644350282485875
652,1.644350282485875
653,1.644350282485875
654,50.33
655,1.644350282485875
656,1.644350282485875
657,1.644350282485875
658,1.644350282485875
659,1.644350282485875
660,1.644350282485875
661,1.644350282485875
662,1.644350282485875
663,1.644350282485875
664,1.644350282485875
665,1.644350282485875
666,53.89
667,1.644350282485875
668,1.644350282485875
669,1.644350282485875
670,1.644350282485875
671,1.644350282485875
672,1.644350282485875
673,1.644350282485875
674,1.644350282485875
675,1.644350282485875
676,1.644350282485875
677,1.644350282485875
678,60.36
679,1.644350282485875
680,1.644350282485875
681,1.644350282485875
682,1.644350282485875
683,1.644350282485875
684,1.644350282485875
685,1.644350282485875
686,1.644350282485875
687,1.644350282485875
688,1.644350282485875
689,1.644350282485875
690,69.21
691,1.644350282485875
692,1.644350282485875
693,1.644350282485875
694,1.644350282485875
695,1.644350282485875
696,1.644350282485875
697,1.644350282485875
698,1.644350282485875
699,1.644350282485875
700,1.644350282485875
701,1.644350282485875
702,79.11
703,1.644350282485875
704,1.644350282485875
705,1.644350282485875
706,1.644350282485875
707,1.644350282485875
708,1.644350282485875
709,1.644350282485875
710,1.644350282485875
711,1.644350282485875
712,1.644350282485875
713,1.644350282485875
714,88.21
715,1.644350282485875
716,1.644350282485875
717,1.644350282485875
718,1.644350282485875
719,1.644350282485875
720,1.644350282485875
721,1.644350282485875
722,1.644350282485875
723,1.644350282485875
724,1.644350282485875
725,94.31
726,1.644350282485875
727,1.644350282485875
728,1.644350282485875
729,1.644350282485875
730,1.644350282485875
731,1.644350282485875
732,1.644350282485875
733,1.644350282485875
734,1.644350282485875
735,1.644350282485875
736,95.35
737,1.644350282485875
738,1.644350282485875
739,1.644350282485875
740,1.644350282485875
741,1.644350282485875
742,1.644350282485875
743,1.644350282485875
744,1.644350282485875
745,1.644350282485875
746,1.644350282485875
747,1.644350282485875
748,89.98
749,1.644350282485875
750,1.644350282485875
751,1.644350282485875
752,1.644350282485875
753,1.644350282485875
754,1.644350282485875
755,1.644350282485875
756,1.644350282485875
757,1.644350282485875
758,1.644350282485875
759,1.644350282485875
760,78.23
761,1.644350282485875
762,1.644350282485875
763,1.644350282485875
764,1.644350282485875
765,1.644350282485875
766,1.644350282485875
767,1.644350282485875
768,1.644350282485875
769,1.644350282485875
770,1.644350282485875
771,1.644350282485875
772,61.54
773,1.644350282485875
774,1.644350282485875
775,1.644350282485875
776,1.644350282485875
777,1.644350282485875
778,1.644350282485875
779,1.644350282485875
780,1.644350282485875
781,1.644350282485875
782,1.644350282485875
783,1.644350282485875
784,42.18
785,1.644350282485875
786,1.644350282485875
787,1.644350282485875
788,1.644350282485875
789,1.644350282485875
790,1.644350282485875
791,1.644350282485875
792,1.644350282485875
793,1.644350282485875
794,1.644350282485875
795,1.644350282485875
796,22.09
797,1.644350282485875
798,1.644350282485875
799,1.644350282485875
800,1.644350282485875
801,1.644350282485875
802,1.644350282485875
803,1.644350282485875
804,1.644350282485875
805,1.644350282485875
806,1.644350282485875
807,1.644350282485875
808,2.12
809,1.644350282485875
810,1.644350282485875
811,1.644350282485875
812,1.644350282485875
813,1.644350282485875
814,1.644350282485875
815,1.644350282485875
816,1.644350282485875
817,1.644350282485875
818,1.644350282485875
819,1.644350282485875
820,-17.96
821,1.644350282485875
822,1.644350282485875
823,1.644350282485875
824,1.644350282485875
825,1.644350282485875
826,1.644350282485875
827,1.644350282485875
828,1.644350282485875
829,1.644350282485875
830,1.644350282485875
831,1.644350282485875
832,-38.43
833,1.644350282485875
834,1.644350282485875
835,1.644350282485875
836,1.644350282485875
837,1.644350282485875
838,1.644350282485875
839,1.644350282485875
840,1.644350282485875
841,1.644350282485875
842,1.644350282485875
843,1.644350282485875
844,-58.35
845,1.644350282485875
846,1.644350282485875
847,1.644350282485875
848,1.644350282485875
849,1.644350282485875
850,1.644350282485875
851,1.644350282485875
852,1.644350282485875
853,1.644350282485875
854,1.644350282485875
855,1.644350282485875
856,-75.01
857,1.644350282485875
858,1.644350282485875
859,1.644350282485875
860,1.644350282485875
861,1.644350282485875
862,1.644350282485875
863,1.644350282485875
864,1.644350282485875
865,1.644350282485875
866,1.644350282485875
867,1.644350282485875
868,-84.72
869,1.644350282485875
870,1.644350282485875
871,1.644350282485875
872,1.644350282485875
873,1.644350282485875
874,1.644350282485875
875,1.644350282485875
876,1.644350282485875
877,1.644350282485875
878,1.644350282485875
879,1.644350282485875
880,-84.53
881,1.644350282485875
882,1.644350282485875
883,1.644350282485875
884,1.644350282485875
885,1.644350282485875
886,1.644350282485875
887,1.644350282485875
888,1.644350282485875
889,1.644350282485875
890,1.644350282485875
891,1.644350282485875
892,-74.21
893,1.644350282485875
894,1.644350282485875
895,1.644350282485875
896,1.644350282485875
897,1.644350282485875
898,1.644350282485875
899,1.644350282485875
900,1.644350282485875
901,1.644350282485875
902,1.644350282485875
903,1.644350282485875
904,-56.98
905,1.644350282485875
906,1.644350282485875
907,1.644350282485875
908,1.644350282485875
909,1.644350282485875
910,1.644350282485875
911,1.644350282485875
912,1.644350282485875
913,1.644350282485875
914,1.644350282485875
915,-38.86
916,1.644350282485875
917,1.644350282485875
918,1.644350282485875
919,1.644350282485875
920,1.644350282485875
921,1.644350282485875
922,1.644350282485875
923,1.644350282485875
924,1.644350282485875
925,1.644350282485875
926,-26.83
927,1.644350282485875
928,1.644350282485875
929,1.644350282485875
930,1.644350282485875
931,1.644350282485875
932,1.644350282485875
933,1.644350282485875
934,1.644350282485875
935,1.644350282485875
936,1.644350282485875
937,1.644350282485875
938,-26.97
939,1.644350282485875
940,1.644350282485875
941,1.644350282485875
942,1.644350282485875
943,1.644350282485875
944,1.644350282485875
945,1.644350282485875
946,1.644350282485875
947,1.644350282485875
948,1.644350282485875
949,1.644350282485875
950,-43.12
951,1.644350282485875
952,1.644350282485875
953,1.644350282485875
954,1.644350282485875
955,1.644350282485875
956,1.644350282485875
957,1.644350282485875
958,1.644350282485875
959,1.644350282485875
960,1.644350282485875
961,1.644350282485875
962,-76.15
963,1.644350282485875
964,1.644350282485875
965,1.644350282485875
966,1.644350282485875
967,1.644350282485875
968,1.644350282485875
969,1.644350282485875
970,1.644350282485875
971,1.644350282485875
972,1.644350282485875
973,1.644350282485875
974,-123.53
975,1.644350282485875
976,1.644350282485875
977,1.644350282485875
978,1.644350282485875
979,1.644350282485875
980,1.644350282485875
981,1.644350282485875
982,1.644350282485875
983,1.644350282485875
984,1.644350282485875
985,1.644350282485875
986,-179.29
987,1.644350282485875
988,1.644350282485875
989,1.644350282485875
990,1.644350282485875
991,1.644350282485875
992,1.644350282485875
993,1.644350282485875
994,1.644350282485875
995,1.644350282485875
996,1.644350282485875
997,1.644350282485875
998,-234.77
999,1.644350282485875
1000,1.644350282485875
1001,1.644350282485875
1002,1.644350282485875
1003,1.644350282485875
1004,1.644350282485875
1005,1.644350282485875
1006,1.644350282485875
1007,1.644350282485875
1008,1.644350282485875
1009,1.644350282485875
1010,-280.03
1011,1.644350282485875
1012,1.644350282485875
1013,1.644350282485875
1014,1.644350282485875
1015,1.644350282485875
1016,1.644350282485875
1017,1.644350282485875
1018,1.644350282485875
1019,1.644350282485875
1020,1.644350282485875
1021,1.644350282485875
1022,-306.4
1023,1.644350282485875
1024,1.644350282485875
1025,1.644350282485875
1026,1.644350282485875
1027,1.644350282485875
1028,1.644350282485875
1029,1.644350282485875
1030,1.644350282485875
1031,1.644350282485875
1032,1.644350282485875
1033,1.644350282485875
1034,-309.08
1035,1.644350282485875
1036,1.644350282485875
1037,1.644350282485875
1038,1.644350282485875
1039,1.644350282485875
1040,1.644350282485875
1041,1.644350282485875
1042,1.644350282485875
1043,1.644350282485875
1044,1.644350282485875
1045,1.644350282485875
1046,-288.79
1047,1.644350282485875
1048,1.644350282485875
1049,1.644350282485875
1050,1.644350282485875
1051,1.644350282485875
1052,1.644350282485875
1053,1.644350282485875
1054,1.644350282485875
1055,1.644350282485875
1056,1.644350282485875
1057,1.644350282485875
1058,-251.44
1059,1.644350282485875
1060,1.644350282485875
1061,1.644350282485875
1062,1.644350282485875
1063,1.644350282485875
1064,1.644350282485875
1065,1.644350282485875
1066,1.644350282485875
1067,1.644350282485875
1068,1.644350282485875
1069,1.644350282485875
1070,-205.9
1071,1.644350282485875
1072,1.644350282485875
1073,1.644350282485875
1074,1.644350282485875
1075,1.644350282485875
1076,1.644350282485875
1077,1.644350282485875
1078,1.644350282485875
1079,1.644350282485875
1080,1.644350282485875
1081,1.644350282485875
1082,-160.72
1083,1.644350282485875
1084,1.644350282485875
1085,1.644350282485875
1086,1.644350282485875
1087,1.644350282485875
1088,1.644350282485875
1089,1.644350282485875
1090,1.644350282485875
1091,1.644350282485875
1092,1.644350282485875
1093,1.644350282485875
1094,-121.5
1095,1.644350282485875
1096,1.644350282485875
1097,1.644350282485875
1098,1.644350282485875
1099,1.644350282485875
1100,1.644350282485875
1101,1.644350282485875
1102,1.644350282485875
1103,1.644350282485875
1104,1.644350282485875
1105,-89.82
1106,1.644350282485875
1107,1.644350282485875
1108,1.644350282485875
1109,1.644350282485875
1110,1.644350282485875
1111,1.644350282485875
1112,1.644350282485875
1113,1.644350282485875
1114,1.644350282485875
1115,1.644350282485875
1116,-64.19
1117,1.644350282485875
1118,1.644350282485875
1119,1.644350282485875
1120,1.644350282485875
1121,1.644350282485875
1122,1.644350282485875
1123,1.644350282485875
1124,1.644350282485875
1125,1.644350282485875
1126,1.644350282485875
1127,1.644350282485875
1128,-42.57
1129,1.644350282485875
1130,1.644350282485875
1131,1.644350282485875
1132,1.644350282485875
1133,1.644350282485875
1134,1.644350282485875
1135,1.644350282485875
1136,1.644350282485875
1137,1.644350282485875
1138,1.644350282485875
1139,1.644350282485875
1140,-24.63
1141,1.644350282485875
1142,1.644350282485875
1143,1.644350282485875
1144,1.644350282485875
1145,1.644350282485875
1146,1.644350282485875
1147,1.644350282485875
1148,1.644350282485875
1149,1.644350282485875
1150,1.644350282485875
1151,1.644350282485875
1152,-12.93
1153,1.644350282485875
1154,1.644350282485875
1155,1.644350282485875
1156,1.644350282485875
1157,1.644350282485875
1158,1.644350282485875
1159,1.644350282485875
1160,1.644350282485875
1161,1.644350282485875
1162,1.644350282485875
1163,1.644350282485875
1164,-12.0
1165,1.644350282485875
1166,1.644350282485875
1167,1.644350282485875
1168,1.644350282485875
1169,1.644350282485875
1170,1.644350282485875
1171,1.644350282485875
1172,1.644350282485875
1173,1.644350282485875
1174,1.644350282485875
1175,1.644350282485875
1176,-25.75
1177,1.644350282485875
1178,1.644350282485875
1179,1.644350282485875
1180,1.644350282485875
1181,1.644350282485875
1182,1.644350282485875
1183,1.644350282485875
1184,1.644350282485875
1185,1.644350282485875
1186,1.644350282485875
1187,1.644350282485875
1188,-54.27
1189,1.644350282485875
1190,1.644350282485875
1191,1.644350282485875
1192,1.644350282485875
1193,1.644350282485875
1194,1.644350282485875
1195,1.644350282485875
1196,1.644350282485875
1197,1.644350282485875
1198,1.644350282485875
1199,1.644350282485875
1200,-91.87
1201,1.644350282485875
1202,1.644350282485875
1203,1.644350282485875
1204,1.644350282485875
1205,1.644350282485875
1206,1.644350282485875
1207,1.644350282485875
1208,1.644350282485875
1209,1.644350282485875
1210,1.644350282485875
1211,1.644350282485875
1212,-127.96
1213,1.644350282485875
1214,1.644350282485875
1215,1.644350282485875
1216,1.644350282485875
1217,1.644350282485875
1218,1.644350282485875
1219,1.644350282485875
1220,1.644350282485875
1221,1.644350282485875
1222,1.644350282485875
1223,1.644350282485875
1224,-150.81
1225,1.644350282485875
1226,1.644350282485875
1227,1.644350282485875
1228,1.644350282485875
1229,1.644350282485875
1230,1.644350282485875
1231,1.644350282485875
1232,1.644350282485875
1233,1.644350282485875
1234,1.644350282485875
1235,1.644350282485875
1236,-152.79
1237,1.644350282485875
1238,1.644350282485875
1239,1.644350282485875
1240,1.644350282485875
1241,1.644350282485875
1242,1.644350282485875
1243,1.644350282485875
1244,1.644350282485875
1245,1.644350282485875
1246,1.644350282485875
1247,1.644350282485875
1248,-133.97
1249,1.644350282485875
1250,1.644350282485875
1251,1.644350282485875
1252,1.644350282485875
1253,1.644350282485875
1254,1.644350282485875
1255,1.644350282485875
1256,1.644350282485875
1257,1.644350282485875
1258,1.644350282485875
1259,1.644350282485875
1260,-101.95
1261,1.644350282485875
1262,1.644350282485875
1263,1.644350282485875
1264,1.644350282485875
1265,1.644350282485875
1266,1.644350282485875
1267,1.644350282485875
1268,1.644350282485875
1269,1.644350282485875
1270,1.644350282485875
1271,1.644350282485875
1272,-67.65
1273,1.644350282485875
1274,1.644350282485875
1275,1.644350282485875
1276,1.644350282485875
1277,1.644350282485875
1278,1.644350282485875
1279,1.644350282485875
1280,1.644350282485875
1281,1.644350282485875
1282,1.644350282485875
1283,1.644350282485875
1284,-39.6
1285,1.644350282485875
1286,1.644350282485875
1287,1.644350282485875
1288,1.644350282485875
1289,1.644350282485875
1290,1.644350282485875
1291,1.644350282485875
1292,1.644350282485875
1293,1.644350282485875
1294,1.644350282485875
1295,-20.0
1296,1.644350282485875
1297,1.644350282485875
1298,1.644350282485875
1299,1.644350282485875
1300,1.644350282485875
1301,1.644350282485875
1302,1.644350282485875
1303,1.644350282485875
1304,1.644350282485875
1305,1.644350282485875
1306,-4.89
1307,1.644350282485875
1308,1.644350282485875
1309,1.644350282485875
1310,1.644350282485875
1311,1.644350282485875
1312,1.644350282485875
1313,1.644350282485875
1314,1.644350282485875
1315,1.644350282485875
1316,1.644350282485875
1317,1.644350282485875
1318,11.93
1319,1.644350282485875
1320,1.644350282485875
1321,1.644350282485875
1322,1.644350282485875
1323,1.644350282485875
1324,1.644350282485875
1325,1.644350282485875
1326,1.644350282485875
1327,1.644350282485875
1328,1.644350282485875
1329,1.644350282485875
1330,33.85
1331,1.644350282485875
1332,1.644350282485875
1333,1.644350282485875
1334,1.644350282485875
1335,1.644350282485875
1336,1.644350282485875
1337,1.644350282485875
1338,1.644350282485875
1339,1.644350282485875
1340,1.644350282485875
1341,1.644350282485875
1342,58.74
1343,1.644350282485875
1344,1.644350282485875
1345,1.644350282485875
1346,1.644350282485875
1347,1.644350282485875
1348,1.644350282485875
1349,1.644350282485875
1350,1.644350282485875
1351,1.644350282485875
1352,1.644350282485875
1353,1.644350282485875
1354,80.22
1355,1.644350282485875
1356,1.644350282485875
1357,1.644350282485875
1358,1.644350282485875
1359,1.644350282485875
1360,1.644350282485875
1361,1.644350282485875
1362,1.644350282485875
1363,1.644350282485875
1364,1.644350282485875
1365,1.644350282485875
1366,91.86
1367,1.644350282485875
1368,1.644350282485875
1369,1.644350282485875
1370,1.644350282485875
1371,1.644350282485875
1372,1.644350282485875
1373,1.644350282485875
1374,1.644350282485875
1375,1.644350282485875
1376,1.644350282485875
1377,1.644350282485875
1378,91.22
1379,1.644350282485875
1380,1.644350282485875
1381,1.644350282485875
1382,1.644350282485875
1383,1.644350282485875
1384,1.644350282485875
1385,1.644350282485875
1386,1.644350282485875
1387,1.644350282485875
1388,1.644350282485875
1389,1.644350282485875
1390,81.21
1391,1.644350282485875
1392,1.644350282485875
1393,1.644350282485875
1394,1.644350282485875
1395,1.644350282485875
1396,1.644350282485875
1397,1.644350282485875
1398,1.644350282485875
1399,1.644350282485875
1400,1.644350282485875
1401,1.644350282485875
1402,68.21
1403,1.644350282485875
1404,1.644350282485875
1405,1.644350282485875
1406,1.644350282485875
1407,1.644350282485875
1408,1.644350282485875
1409,1.644350282485875
1410,1.644350282485875
1411,1.644350282485875
1412,1.644350282485875
1413,1.644350282485875
1414,58.14
1415,1.644350282485875
1416,1.644350282485875
1417,1.644350282485875
1418,1.644350282485875
1419,1.644350282485875
1420,1.644350282485875
1421,1.644350282485875
1422,1.644350282485875
1423,1.644350282485875
1424,1.644350282485875
1425,1.644350282485875
1426,53.57
1427,1.644350282485875
1428,1.644350282485875
1429,1.644350282485875
1430,1.644350282485875
1431,1.644350282485875
1432,1.644350282485875
1433,1.644350282485875
1434,1.644350282485875
1435,1.644350282485875
1436,1.644350282485875
1437,1.644350282485875
1438,53.2
1439,1.644350282485875
1440,1.644350282485875
1441,1.644350282485875
1442,1.644350282485875
1443,1.644350282485875
1444,1.644350282485875
1445,1.644350282485875
1446,1.644350282485875
1447,1.644350282485875
1448,1.644350282485875
1449,1.644350282485875
1450,53.64
1451,1.644350282485875
1452,1.644350282485875
1453,1.644350282485875
1454,1.644350282485875
1455,1.644350282485875
1456,1.644350282485875
1457,1.644350282485875
1458,1.644350282485875
1459,1.644350282485875
1460,1.644350282485875
1461,1.644350282485875
1462,52.17
1463,1.644350282485875
1464,1.644350282485875
1465,1.644350282485875
1466,1.644350282485875
1467,1.644350282485875
1468,1.644350282485875
1469,1.644350282485875
1470,1.644350282485875
1471,1.644350282485875
1472,1.644350282485875
1473,1.644350282485875
1474,48.39
1475,1.644350282485875
1476,1.644350282485875
1477,1.644350282485875
1478,1.644350282485875
1479,1.644350282485875
1480,1.644350282485875
1481,1.644350282485875
1482,1.644350282485875
1483,1.644350282485875
1484,1.644350282485875
1485,44.28
1486,1.644350282485875
1487,1.644350282485875
1488,1.644350282485875
1489,1.644350282485875
1490,1.644350282485875
1491,1.644350282485875
1492,1.644350282485875
1493,1.644350282485875
1494,1.644350282485875
1495,1.644350282485875
1496,43.06
1497,1.644350282485875
1498,1.644350282485875
1499,1.644350282485875
1500,1.644350282485875
1501,1.644350282485875
1502,1.644350282485875
1503,1.644350282485875
1504,1.644350282485875
1505,1.644350282485875
1506,1.644350282485875
1507,1.644350282485875
1508,47.75
1509,1.644350282485875
1510,1.644350282485875
1511,1.644350282485875
1512,1.644350282485875
1513,1.644350282485875
1514,1.644350282485875
1515,1.644350282485875
1516,1.644350282485875
1517,1.644350282485875
1518,1.644350282485875
1519,1.644350282485875
1520,59.62
1521,1.644350282485875
1522,1.644350282485875
1523,1.644350282485875
1524,1.644350282485875
1525,1.644350282485875
1526,1.644350282485875
1527,1.644350282485875
1528,1.644350282485875
1529,1.644350282485875
1530,1.644350282485875
1531,1.644350282485875
1532,77.8
1533,1.644350282485875
1534,1.644350282485875
1535,1.644350282485875
1536,1.644350282485875
1537,1.644350282485875
1538,1.644350282485875
1539,1.644350282485875
1540,1.644350282485875
1541,1.644350282485875
1542,1.644350282485875
1543,1.644350282485875
1544,99.52
1545,1.644350282485875
1546,1.644350282485875
1547,1.644350282485875
1548,1.644350282485875
1549,1.644350282485875
1550,1.644350282485875
1551,1.644350282485875
1552,1.644350282485875
1553,1.644350282485875
1554,1.644350282485875
1555,1.644350282485875
1556,121.11
1557,1.644350282485875
1558,1.644350282485875
1559,1.644350282485875
1560,1.644350282485875
1561,1.644350282485875
1562,1.644350282485875
1563,1.644350282485875
1564,1.644350282485875
1565,1.644350282485875
1566,1.644350282485875
1567,1.644350282485875
1568,139.11
1569,1.644350282485875
1570,1.644350282485875
1571,1.644350282485875
1572,1.644350282485875
1573,1.644350282485875
1574,1.644350282485875
1575,1.644350282485875
1576,1.644350282485875
1577,1.644350282485875
1578,1.644350282485875
1579,1.644350282485875
1580,151.44
1581,1.644350282485875
1582,1.644350282485875
1583,1.644350282485875
1584,1.644350282485875
1585,1.644350282485875
1586,1.644350282485875
1587,1.644350282485875
1588,1.644350282485875
1589,1.644350282485875
1590,1.644350282485875
1591,1.644350282485875
1592,157.86
1593,1.644350282485875
1594,1.644350282485875
1595,1.644350282485875
1596,1.644350282485875
1597,1.644350282485875
1598,1.644350282485875
1599,1.644350282485875
1600,1.644350282485875
1601,1.644350282485875
1602,1.644350282485875
1603,1.644350282485875
1604,159.5
1605,1.644350282485875
1606,1.644350282485875
1607,1.644350282485875
1608,1.644350282485875
1609,1.644350282485875
1610,1.644350282485875
1611,1.644350282485875
1612,1.644350282485875
1613,1.644350282485875
1614,1.644350282485875
1615,1.644350282485875
1616,158.65
1617,1.644350282485875
1618,1.644350282485875
1619,1.644350282485875
1620,1.644350282485875
1621,1.644350282485875
1622,1.644350282485875
1623,1.644350282485875
1624,1.644350282485875
1625,1.644350282485875
1626,1.644350282485875
1627,1.644350282485875
1628,157.27
1629,1.644350282485875
1630,1.644350282485875
1631,1.644350282485875
1632,1.644350282485875
1633,1.644350282485875
1634,1.644350282485875
1635,1.644350282485875
1636,1.644350282485875
1637,1.644350282485875
1638,1.644350282485875
1639,1.644350282485875
1640,156.45
1641,1.644350282485875
1642,1.644350282485875
1643,1.644350282485875
1644,1.644350282485875
1645,1.644350282485875
1646,1.644350282485875
1647,1.644350282485875
1648,1.644350282485875
1649,1.644350282485875
1650,1.644350282485875
1651,1.644350282485875
1652,156.45
1653,1.644350282485875
1654,1.644350282485875
1655,1.644350282485875
1656,1.644350282485875
1657,1.644350282485875
1658,1.644350282485875
1659,1.644350282485875
1660,1.644350282485875
1661,1.644350282485875
1662,1.644350282485875
1663,1.644350282485875
1664,157.2
1665,1.644350282485875
1666,1.644350282485875
1667,1.644350282485875
1668,1.644350282485875
1669,1.644350282485875
1670,1.644350282485875
1671,1.644350282485875
1672,1.644350282485875
1673,1.644350282485875
1674,1.644350282485875
1675,158.76
1676,1.644350282485875
1677,1.644350282485875
1678,1.644350282485875
1679,1.644350282485875
1680,1.644350282485875
1681,1.644350282485875
1682,1.644350282485875
1683,1.644350282485875
1684,1.644350282485875
1685,1.644350282485875
1686,161.5
1687,1.644350282485875
1688,1.644350282485875
1689,1.644350282485875
1690,1.644350282485875
1691,1.644350282485875
1692,1.644350282485875
1693,1.644350282485875
1694,1.644350282485875
1695,1.644350282485875
1696,1.644350282485875
1697,1.644350282485875
1698,165.47
1699,1.644350282485875
1700,1.644350282485875
1701,1.644350282485875
1702,1.644350282485875
1703,1.644350282485875
1704,1.644350282485875
1705,1.644350282485875
1706,1.644350282485875
1707,1.644350282485875
1708,1.644350282485875
1709,1.644350282485875
1710,169.3
1711,1.644350282485875
1712,1.644350282485875
1713,1.644350282485875
1714,1.644350282485875
1715,1.644350282485875
1716,1.644350282485875
1717,1.644350282485875
1718,1.644350282485875
1719,1.644350282485875
1720,1.644350282485875
1721,1.644350282485875
1722,170.7
1723,1.644350282485875
1724,1.644350282485875
1725,1.644350282485875
1726,1.644350282485875
1727,1.644350282485875
1728,1.644350282485875
1729,1.644350282485875
1730,1.644350282485875
1731,1.644350282485875
1732,1.644350282485875
1733,1.644350282485875
1734,166.42
1735,1.644350282485875
1736,1.644350282485875
1737,1.644350282485875
1738,1.644350282485875
1739,1.644350282485875
1740,1.644350282485875
1741,1.644350282485875
1742,1.644350282485875
1743,1.644350282485875
1744,1.644350282485875
1745,1.644350282485875
1746,154.14
1747,1.644350282485875
1748,1.644350282485875
1749,1.644350282485875
1750,1.644350282485875
1751,1.644350282485875
1752,1.644350282485875
1753,1.644350282485875
1754,1.644350282485875
1755,1.644350282485875
1756,1.644350282485875
1757,1.644350282485875
1758,134.1
1759,1.644350282485875
1760,1.644350282485875
1761,1.644350282485875
1762,1.644350282485875
1763,1.644350282485875
1764,1.644350282485875
1765,1.644350282485875
1766,1.644350282485875
1767,1.644350282485875
1768,1.644350282485875
1769,1.644350282485875
1770,109.85
1771,1.644350282485875
1772,1.644350282485875
1773,1.644350282485875
1774,1.644350282485875
1775,1.644350282485875
1776,1.644350282485875
1777,1.644350282485875
1778,1.644350282485875
1779,1.644350282485875
1780,1.644350282485875
1781,1.644350282485875
1782,86.95
1783,1.644350282485875
1784,1.644350282485875
1785,1.644350282485875
1786,1.644350282485875
1787,1.644350282485875
1788,1.644350282485875
1789,1.644350282485875
1790,1.644350282485875
1791,1.644350282485875
1792,1.644350282485875
1793,1.644350282485875
1794,70.99
1795,1.644350282485875
1796,1.644350282485875
1797,1.644350282485875
1798,1.644350282485875
1799,1.644350282485875
1800,1.644350282485875
1801,1.644350282485875
1802,1.644350282485875
1803,1.644350282485875
1804,1.644350282485875
1805,1.644350282485875
1806,64.96
1807,1.644350282485875
1808,1.644350282485875
1809,1.644350282485875
1810,1.644350282485875
1811,1.644350282485875
1812,1.644350282485875
1813,1.644350282485875
1814,1.644350282485875
1815,1.644350282485875
1816,1.644350282485875
1817,1.644350282485875
1818,63.91
1819,1.644350282485875
1820,1.644350282485875
1821,1.644350282485875
1822,1.644350282485875
1823,1.644350282485875
1824,1.644350282485875
1825,1.644350282485875
1826,1.644350282485875
1827,1.644350282485875
1828,1.644350282485875
1829,1.644350282485875
1830,61.43
1831,1.644350282485875
1832,1.644350282485875
1833,1.644350282485875
1834,1.644350282485875
1835,1.644350282485875
1836,1.644350282485875
1837,1.644350282485875
1838,1.644350282485875
1839,1.644350282485875
1840,1.644350282485875
1841,1.644350282485875
1842,51.08
1843,1.644350282485875
1844,1.644350282485875
1845,1.644350282485875
1846,1.644350282485875
1847,1.644350282485875
1848,1.644350282485875
1849,1.644350282485875
1850,1.644350282485875
1851,1.644350282485875
1852,1.644350282485875
1853,1.644350282485875
1854,30.21
1855,1.644350282485875
1856,1.644350282485875
1857,1.644350282485875
1858,1.644350282485875
1859,1.644350282485875
1860,1.644350282485875
1861,1.644350282485875
1862,1.644350282485875
1863,1.644350282485875
1864,1.644350282485875
1865,1.4
1866,1.644350282485875
1867,1.644350282485875
1868,1.644350282485875
1869,1.644350282485875
1870,1.644350282485875
1871,1.644350282485875
1872,1.644350282485875
1873,1.644350282485875
1874,1.644350282485875
1875,1.644350282485875
1876,-29.08
1877,1.644350282485875
1878,1.644350282485875
1879,1.644350282485875
1880,1.644350282485875
1881,1.644350282485875
1882,1.644350282485875
1883,1.644350282485875
1884,1.644350282485875
1885,1.644350282485875
1886,1.644350282485875
1887,1.644350282485875
1888,-54.62
1889,1.644350282485875
1890,1.644350282485875
1891,1.644350282485875
1892,1.644350282485875
1893,1.644350282485875
1894,1.644350282485875
1895,1.644350282485875
1896,1.644350282485875
1897,1.644350282485875
1898,1.644350282485875
1899,1.644350282485875
1900,-70.29
1901,1.644350282485875
1902,1.644350282485875
1903,1.644350282485875
1904,1.644350282485875
1905,1.644350282485875
1906,1.644350282485875
1907,1.644350282485875
1908,1.644350282485875
1909,1.644350282485875
1910,1.644350282485875
1911,1.644350282485875
1912,-73.88
1913,1.644350282485875
1914,1.644350282485875
1915,1.644350282485875
1916,1.644350282485875
1917,1.644350282485875
1918,1.644350282485875
1919,1.644350282485875
1920,1.644350282485875
1921,1.644350282485875
1922,1.644350282485875
1923,1.644350282485875
1924,-66.92
1925,1.644350282485875
1926,1.644350282485875
1927,1.644350282485875
1928,1.644350282485875
1929,1.644350282485875
1930,1.644350282485875
1931,1.644350282485875
1932,1.644350282485875
1933,1.644350282485875
1934,1.644350282485875
1935,1.644350282485875
1936,-52.57
1937,1.644350282485875
1938,1.644350282485875
1939,1.644350282485875
1940,1.644350282485875
1941,1.644350282485875
1942,1.644350282485875
1943,1.644350282485875
1944,1.644350282485875
1945,1.644350282485875
1946,1.644350282485875
1947,1.644350282485875
1948,-35.69
1949,1.644350282485875
1950,1.644350282485875
1951,1.644350282485875
1952,1.644350282485875
1953,1.644350282485875
1954,1.644350282485875
1955,1.644350282485875
1956,1.644350282485875
1957,1.644350282485875
1958,1.644350282485875
1959,1.644350282485875
1960,-21.61
1961,1.644350282485875
1962,1.644350282485875
1963,1.644350282485875
1964,1.644350282485875
1965,1.644350282485875
1966,1.644350282485875
1967,1.644350282485875
1968,1.644350282485875
1969,1.644350282485875
1970,1.644350282485875
1971,1.644350282485875
1972,-16.28
1973,1.644350282485875
1974,1.644350282485875
1975,1.644350282485875
1976,1.644350282485875
1977,1.644350282485875
1978,1.644350282485875
1979,1.644350282485875
1980,1.644350282485875
1981,1.644350282485875
1982,1.644350282485875
1983,1.644350282485875
1984,-21.51
1985,1.644350282485875
1986,1.644350282485875
1987,1.644350282485875
1988,1.644350282485875
1989,1.644350282485875
1990,1.644350282485875
1991,1.644350282485875
1992,1.644350282485875
1993,1.644350282485875
1994,1.644350282485875
1995,1.644350282485875
1996,-36.9
1997,1.644350282485875
1998,1.644350282485875
1999,1.644350282485875
2000,1.644350282485875
2001,1.644350282485875
2002,1.644350282485875
2003,1.644350282485875
2004,1.644350282485875
2005,1.644350282485875
2006,1.644350282485875
2007,1.644350282485875
2008,-59.47
2009,1.644350282485875
2010,1.644350282485875
2011,1.644350282485875
2012,1.644350282485875
2013,1.644350282485875
2014,1.644350282485875
2015,1.644350282485875
2016,1.644350282485875
2017,1.644350282485875
2018,1.644350282485875
2019,1.644350282485875
2020,-84.11
2021,1.644350282485875
2022,1.644350282485875
2023,1.644350282485875
2024,1.644350282485875
2025,1.644350282485875
2026,1.644350282485875
2027,1.644350282485875
2028,1.644350282485875
2029,1.644350282485875
2030,1.644350282485875
2031,1.644350282485875
2032,-106.24
2033,1.644350282485875
2034,1.644350282485875
2035,1.644350282485875
2036,1.644350282485875
2037,1.644350282485875
2038,1.644350282485875
2039,1.644350282485875
2040,1.644350282485875
2041,1.644350282485875
2042,1.644350282485875
2043,1.644350282485875
2044,-122.04
2045,1.644350282485875
2046,1.644350282485875
2047,1.644350282485875
2048,1.644350282485875
2049,1.644350282485875
2050,1.644350282485875
2051,1.644350282485875
2052,1.644350282485875
2053,1.644350282485875
2054,1.644350282485875
2055,-130.41
2056,1.644350282485875
2057,1.644350282485875
2058,1.644350282485875
2059,1.644350282485875
2060,1.644350282485875
2061,1.644350282485875
2062,1.644350282485875
2063,1.644350282485875
2064,1.644350282485875
2065,1.644350282485875
2066,-133.03
2067,1.644350282485875
2068,1.644350282485875
2069,1.644350282485875
2070,1.644350282485875
2071,1.644350282485875
2072,1.644350282485875
2073,1.644350282485875
2074,1.644350282485875
2075,1.644350282485875
2076,1.644350282485875
2077,1.644350282485875
2078,-133.77
2079,1.644350282485875
2080,1.644350282485875
2081,1.644350282485875
2082,1.644350282485875
2083,1.644350282485875
2084,1.644350282485875
2085,1.644350282485875
2086,1.644350282485875
2087,1.644350282485875
2088,1.644350282485875
2089,1.644350282485875
2090,-137.2
2091,1.644350282485875
2092,1.644350282485875
2093,1.644350282485875
2094,1.644350282485875
2095,1.644350282485875
2096,1.644350282485875
2097,1.644350282485875
2098,1.644350282485875
2099,1.644350282485875
