second,BVP
8400,9.061355932203393
8401,9.061355932203393
8402,9.061355932203393
8403,9.061355932203393
8404,9.061355932203393
8405,9.061355932203393
8406,9.061355932203393
8407,9.061355932203393
8408,9.061355932203393
8409,-210.1
8410,9.061355932203393
8411,9.061355932203393
8412,9.061355932203393
8413,9.061355932203393
8414,9.061355932203393
8415,9.061355932203393
8416,9.061355932203393
8417,9.061355932203393
8418,9.061355932203393
8419,9.061355932203393
8420,9.061355932203393
8421,-204.57
8422,9.061355932203393
8423,9.061355932203393
8424,9.061355932203393
8425,9.061355932203393
8426,9.061355932203393
8427,9.061355932203393
8428,9.061355932203393
8429,9.061355932203393
8430,9.061355932203393
8431,9.061355932203393
8432,9.061355932203393
8433,-204.74
8434,9.061355932203393
8435,9.061355932203393
8436,9.061355932203393
8437,9.061355932203393
8438,9.061355932203393
8439,9.061355932203393
8440,9.061355932203393
8441,9.061355932203393
8442,9.061355932203393
8443,9.061355932203393
8444,9.061355932203393
8445,-207.22
8446,9.061355932203393
8447,9.061355932203393
8448,9.061355932203393
8449,9.061355932203393
8450,9.061355932203393
8451,9.061355932203393
8452,9.061355932203393
8453,9.061355932203393
8454,9.061355932203393
8455,9.061355932203393
8456,9.061355932203393
8457,-207.36
8458,9.061355932203393
8459,9.061355932203393
8460,9.061355932203393
8461,9.061355932203393
8462,9.061355932203393
8463,9.061355932203393
8464,9.061355932203393
8465,9.061355932203393
8466,9.061355932203393
8467,9.061355932203393
8468,9.061355932203393
8469,-200.79
8470,9.061355932203393
8471,9.061355932203393
8472,9.061355932203393
8473,9.061355932203393
8474,9.061355932203393
8475,9.061355932203393
8476,9.061355932203393
8477,9.061355932203393
8478,9.061355932203393
8479,9.061355932203393
8480,9.061355932203393
8481,-184.78
8482,9.061355932203393
8483,9.061355932203393
8484,9.061355932203393
8485,9.061355932203393
8486,9.061355932203393
8487,9.061355932203393
8488,9.061355932203393
8489,9.061355932203393
8490,9.061355932203393
8491,9.061355932203393
8492,9.061355932203393
8493,-158.8
8494,9.061355932203393
8495,9.061355932203393
8496,9.061355932203393
8497,9.061355932203393
8498,9.061355932203393
8499,9.061355932203393
8500,9.061355932203393
8501,9.061355932203393
8502,9.061355932203393
8503,9.061355932203393
8504,9.061355932203393
8505,-124.31
8506,9.061355932203393
8507,9.061355932203393
8508,9.061355932203393
8509,9.061355932203393
8510,9.061355932203393
8511,9.061355932203393
8512,9.061355932203393
8513,9.061355932203393
8514,9.061355932203393
8515,9.061355932203393
8516,-84.0
8517,9.061355932203393
8518,9.061355932203393
8519,9.061355932203393
8520,9.061355932203393
8521,9.061355932203393
8522,9.061355932203393
8523,9.061355932203393
8524,9.061355932203393
8525,9.061355932203393
8526,9.061355932203393
8527,-40.96
8528,9.061355932203393
8529,9.061355932203393
8530,9.061355932203393
8531,9.061355932203393
8532,9.061355932203393
8533,9.061355932203393
8534,9.061355932203393
8535,9.061355932203393
8536,9.061355932203393
8537,9.061355932203393
8538,9.061355932203393
8539,1.88
8540,9.061355932203393
8541,9.061355932203393
8542,9.061355932203393
8543,9.061355932203393
8544,9.061355932203393
8545,9.061355932203393
8546,9.061355932203393
8547,9.061355932203393
8548,9.061355932203393
8549,9.061355932203393
8550,9.061355932203393
8551,42.04
8552,9.061355932203393
8553,9.061355932203393
8554,9.061355932203393
8555,9.061355932203393
8556,9.061355932203393
8557,9.061355932203393
8558,9.061355932203393
8559,9.061355932203393
8560,9.061355932203393
8561,9.061355932203393
8562,9.061355932203393
8563,77.54
8564,9.061355932203393
8565,9.061355932203393
8566,9.061355932203393
8567,9.061355932203393
8568,9.061355932203393
8569,9.061355932203393
8570,9.061355932203393
8571,9.061355932203393
8572,9.061355932203393
8573,9.061355932203393
8574,9.061355932203393
8575,106.99
8576,9.061355932203393
8577,9.061355932203393
8578,9.061355932203393
8579,9.061355932203393
8580,9.061355932203393
8581,9.061355932203393
8582,9.061355932203393
8583,9.061355932203393
8584,9.061355932203393
8585,9.061355932203393
8586,9.061355932203393
8587,129.79
8588,9.061355932203393
8589,9.061355932203393
8590,9.061355932203393
8591,9.061355932203393
8592,9.061355932203393
8593,9.061355932203393
8594,9.061355932203393
8595,9.061355932203393
8596,9.061355932203393
8597,9.061355932203393
8598,9.061355932203393
8599,146.49
8600,9.061355932203393
8601,9.061355932203393
8602,9.061355932203393
8603,9.061355932203393
8604,9.061355932203393
8605,9.061355932203393
8606,9.061355932203393
8607,9.061355932203393
8608,9.061355932203393
8609,9.061355932203393
8610,9.061355932203393
8611,158.86
8612,9.061355932203393
8613,9.061355932203393
8614,9.061355932203393
8615,9.061355932203393
8616,9.061355932203393
8617,9.061355932203393
8618,9.061355932203393
8619,9.061355932203393
8620,9.061355932203393
8621,9.061355932203393
8622,9.061355932203393
8623,169.67
8624,9.061355932203393
8625,9.061355932203393
8626,9.061355932203393
8627,9.061355932203393
8628,9.061355932203393
8629,9.061355932203393
8630,9.061355932203393
8631,9.061355932203393
8632,9.061355932203393
8633,9.061355932203393
8634,9.061355932203393
8635,181.77
8636,9.061355932203393
8637,9.061355932203393
8638,9.061355932203393
8639,9.061355932203393
8640,9.061355932203393
8641,9.061355932203393
8642,9.061355932203393
8643,9.061355932203393
8644,9.061355932203393
8645,9.061355932203393
8646,9.061355932203393
8647,196.95
8648,9.061355932203393
8649,9.061355932203393
8650,9.061355932203393
8651,9.061355932203393
8652,9.061355932203393
8653,9.061355932203393
8654,9.061355932203393
8655,9.061355932203393
8656,9.061355932203393
8657,9.061355932203393
8658,9.061355932203393
8659,214.92
8660,9.061355932203393
8661,9.061355932203393
8662,9.061355932203393
8663,9.061355932203393
8664,9.061355932203393
8665,9.061355932203393
8666,9.061355932203393
8667,9.061355932203393
8668,9.061355932203393
8669,9.061355932203393
8670,9.061355932203393
8671,233.06
8672,9.061355932203393
8673,9.061355932203393
8674,9.061355932203393
8675,9.061355932203393
8676,9.061355932203393
8677,9.061355932203393
8678,9.061355932203393
8679,9.061355932203393
8680,9.061355932203393
8681,9.061355932203393
8682,9.061355932203393
8683,247.22
8684,9.061355932203393
8685,9.061355932203393
8686,9.061355932203393
8687,9.061355932203393
8688,9.061355932203393
8689,9.061355932203393
8690,9.061355932203393
8691,9.061355932203393
8692,9.061355932203393
8693,9.061355932203393
8694,9.061355932203393
8695,253.25
8696,9.061355932203393
8697,9.061355932203393
8698,9.061355932203393
8699,9.061355932203393
8700,9.061355932203393
8701,9.061355932203393
8702,9.061355932203393
8703,9.061355932203393
8704,9.061355932203393
8705,9.061355932203393
8706,248.72
8707,9.061355932203393
8708,9.061355932203393
8709,9.061355932203393
8710,9.061355932203393
8711,9.061355932203393
8712,9.061355932203393
8713,9.061355932203393
8714,9.061355932203393
8715,9.061355932203393
8716,9.061355932203393
8717,233.81
8718,9.061355932203393
8719,9.061355932203393
8720,9.061355932203393
8721,9.061355932203393
8722,9.061355932203393
8723,9.061355932203393
8724,9.061355932203393
8725,9.061355932203393
8726,9.061355932203393
8727,9.061355932203393
8728,9.061355932203393
8729,210.92
8730,9.061355932203393
8731,9.061355932203393
8732,9.061355932203393
8733,9.061355932203393
8734,9.061355932203393
8735,9.061355932203393
8736,9.061355932203393
8737,9.061355932203393
8738,9.061355932203393
8739,9.061355932203393
8740,9.061355932203393
8741,183.39
8742,9.061355932203393
8743,9.061355932203393
8744,9.061355932203393
8745,9.061355932203393
8746,9.061355932203393
8747,9.061355932203393
8748,9.061355932203393
8749,9.061355932203393
8750,9.061355932203393
8751,9.061355932203393
8752,9.061355932203393
8753,153.94
8754,9.061355932203393
8755,9.061355932203393
8756,9.061355932203393
8757,9.061355932203393
8758,9.061355932203393
8759,9.061355932203393
8760,9.061355932203393
8761,9.061355932203393
8762,9.061355932203393
8763,9.061355932203393
8764,9.061355932203393
8765,123.84
8766,9.061355932203393
8767,9.061355932203393
8768,9.061355932203393
8769,9.061355932203393
8770,9.061355932203393
8771,9.061355932203393
8772,9.061355932203393
8773,9.061355932203393
8774,9.061355932203393
8775,9.061355932203393
8776,9.061355932203393
8777,93.21
8778,9.061355932203393
8779,9.061355932203393
8780,9.061355932203393
8781,9.061355932203393
8782,9.061355932203393
8783,9.061355932203393
8784,9.061355932203393
8785,9.061355932203393
8786,9.061355932203393
8787,9.061355932203393
8788,9.061355932203393
8789,62.13
8790,9.061355932203393
8791,9.061355932203393
8792,9.061355932203393
8793,9.061355932203393
8794,9.061355932203393
8795,9.061355932203393
8796,9.061355932203393
8797,9.061355932203393
8798,9.061355932203393
8799,9.061355932203393
8800,9.061355932203393
8801,31.71
8802,9.061355932203393
8803,9.061355932203393
8804,9.061355932203393
8805,9.061355932203393
8806,9.061355932203393
8807,9.061355932203393
8808,9.061355932203393
8809,9.061355932203393
8810,9.061355932203393
8811,9.061355932203393
8812,9.061355932203393
8813,4.6
8814,9.061355932203393
8815,9.061355932203393
8816,9.061355932203393
8817,9.061355932203393
8818,9.061355932203393
8819,9.061355932203393
8820,9.061355932203393
8821,9.061355932203393
8822,9.061355932203393
8823,9.061355932203393
8824,9.061355932203393
8825,-15.95
8826,9.061355932203393
8827,9.061355932203393
8828,9.061355932203393
8829,9.061355932203393
8830,9.061355932203393
8831,9.061355932203393
8832,9.061355932203393
8833,9.061355932203393
8834,9.061355932203393
8835,9.061355932203393
8836,9.061355932203393
8837,-27.53
8838,9.061355932203393
8839,9.061355932203393
8840,9.061355932203393
8841,9.061355932203393
8842,9.061355932203393
8843,9.061355932203393
8844,9.061355932203393
8845,9.061355932203393
8846,9.061355932203393
8847,9.061355932203393
8848,9.061355932203393
8849,-29.94
8850,9.061355932203393
8851,9.061355932203393
8852,9.061355932203393
8853,9.061355932203393
8854,9.061355932203393
8855,9.061355932203393
8856,9.061355932203393
8857,9.061355932203393
8858,9.061355932203393
8859,9.061355932203393
8860,9.061355932203393
8861,-25.62
8862,9.061355932203393
8863,9.061355932203393
8864,9.061355932203393
8865,9.061355932203393
8866,9.061355932203393
8867,9.061355932203393
8868,9.061355932203393
8869,9.061355932203393
8870,9.061355932203393
8871,9.061355932203393
8872,9.061355932203393
8873,-18.98
8874,9.061355932203393
8875,9.061355932203393
8876,9.061355932203393
8877,9.061355932203393
8878,9.061355932203393
8879,9.061355932203393
8880,9.061355932203393
8881,9.061355932203393
8882,9.061355932203393
8883,9.061355932203393
8884,9.061355932203393
8885,-14.82
8886,9.061355932203393
8887,9.061355932203393
8888,9.061355932203393
8889,9.061355932203393
8890,9.061355932203393
8891,9.061355932203393
8892,9.061355932203393
8893,9.061355932203393
8894,9.061355932203393
8895,9.061355932203393
8896,-16.61
8897,9.061355932203393
8898,9.061355932203393
8899,9.061355932203393
8900,9.061355932203393
8901,9.061355932203393
8902,9.061355932203393
8903,9.061355932203393
8904,9.061355932203393
8905,9.061355932203393
8906,9.061355932203393
8907,-25.45
8908,9.061355932203393
8909,9.061355932203393
8910,9.061355932203393
8911,9.061355932203393
8912,9.061355932203393
8913,9.061355932203393
8914,9.061355932203393
8915,9.061355932203393
8916,9.061355932203393
8917,9.061355932203393
8918,9.061355932203393
8919,-39.99
8920,9.061355932203393
8921,9.061355932203393
8922,9.061355932203393
8923,9.061355932203393
8924,9.061355932203393
8925,9.061355932203393
8926,9.061355932203393
8927,9.061355932203393
8928,9.061355932203393
8929,9.061355932203393
8930,9.061355932203393
8931,-57.36
8932,9.061355932203393
8933,9.061355932203393
8934,9.061355932203393
8935,9.061355932203393
8936,9.061355932203393
8937,9.061355932203393
8938,9.061355932203393
8939,9.061355932203393
8940,9.061355932203393
8941,9.061355932203393
8942,9.061355932203393
8943,-74.47
8944,9.061355932203393
8945,9.061355932203393
8946,9.061355932203393
8947,9.061355932203393
8948,9.061355932203393
8949,9.061355932203393
8950,9.061355932203393
8951,9.061355932203393
8952,9.061355932203393
8953,9.061355932203393
8954,9.061355932203393
8955,-89.1
8956,9.061355932203393
8957,9.061355932203393
8958,9.061355932203393
8959,9.061355932203393
8960,9.061355932203393
8961,9.061355932203393
8962,9.061355932203393
8963,9.061355932203393
8964,9.061355932203393
8965,9.061355932203393
8966,9.061355932203393
8967,-100.38
8968,9.061355932203393
8969,9.061355932203393
8970,9.061355932203393
8971,9.061355932203393
8972,9.061355932203393
8973,9.061355932203393
8974,9.061355932203393
8975,9.061355932203393
8976,9.061355932203393
8977,9.061355932203393
8978,9.061355932203393
8979,-108.54
8980,9.061355932203393
8981,9.061355932203393
8982,9.061355932203393
8983,9.061355932203393
8984,9.061355932203393
8985,9.061355932203393
8986,9.061355932203393
8987,9.061355932203393
8988,9.061355932203393
8989,9.061355932203393
8990,9.061355932203393
8991,-114.15
8992,9.061355932203393
8993,9.061355932203393
8994,9.061355932203393
8995,9.061355932203393
8996,9.061355932203393
8997,9.061355932203393
8998,9.061355932203393
8999,9.061355932203393
9000,9.061355932203393
9001,9.061355932203393
9002,9.061355932203393
9003,-117.45
9004,9.061355932203393
9005,9.061355932203393
9006,9.061355932203393
9007,9.061355932203393
9008,9.061355932203393
9009,9.061355932203393
9010,9.061355932203393
9011,9.061355932203393
9012,9.061355932203393
9013,9.061355932203393
9014,9.061355932203393
9015,-118.05
9016,9.061355932203393
9017,9.061355932203393
9018,9.061355932203393
9019,9.061355932203393
9020,9.061355932203393
9021,9.061355932203393
9022,9.061355932203393
9023,9.061355932203393
9024,9.061355932203393
9025,9.061355932203393
9026,9.061355932203393
9027,-115.18
9028,9.061355932203393
9029,9.061355932203393
9030,9.061355932203393
9031,9.061355932203393
9032,9.061355932203393
9033,9.061355932203393
9034,9.061355932203393
9035,9.061355932203393
9036,9.061355932203393
9037,9.061355932203393
9038,9.061355932203393
9039,-108.36
9040,9.061355932203393
9041,9.061355932203393
9042,9.061355932203393
9043,9.061355932203393
9044,9.061355932203393
9045,9.061355932203393
9046,9.061355932203393
9047,9.061355932203393
9048,9.061355932203393
9049,9.061355932203393
9050,9.061355932203393
9051,-98.04
9052,9.061355932203393
9053,9.061355932203393
9054,9.061355932203393
9055,9.061355932203393
9056,9.061355932203393
9057,9.061355932203393
9058,9.061355932203393
9059,9.061355932203393
9060,9.061355932203393
9061,9.061355932203393
9062,9.061355932203393
9063,-85.73
9064,9.061355932203393
9065,9.061355932203393
9066,9.061355932203393
9067,9.061355932203393
9068,9.061355932203393
9069,9.061355932203393
9070,9.061355932203393
9071,9.061355932203393
9072,9.061355932203393
9073,9.061355932203393
9074,9.061355932203393
9075,-73.55
9076,9.061355932203393
9077,9.061355932203393
9078,9.061355932203393
9079,9.061355932203393
9080,9.061355932203393
9081,9.061355932203393
9082,9.061355932203393
9083,9.061355932203393
9084,9.061355932203393
9085,9.061355932203393
9086,-63.37
9087,9.061355932203393
9088,9.061355932203393
9089,9.061355932203393
9090,9.061355932203393
9091,9.061355932203393
9092,9.061355932203393
9093,9.061355932203393
9094,9.061355932203393
9095,9.061355932203393
9096,9.061355932203393
9097,-56.0
9098,9.061355932203393
9099,9.061355932203393
9100,9.061355932203393
9101,9.061355932203393
9102,9.061355932203393
9103,9.061355932203393
9104,9.061355932203393
9105,9.061355932203393
9106,9.061355932203393
9107,9.061355932203393
9108,9.061355932203393
9109,-50.93
9110,9.061355932203393
9111,9.061355932203393
9112,9.061355932203393
9113,9.061355932203393
9114,9.061355932203393
9115,9.061355932203393
9116,9.061355932203393
9117,9.061355932203393
9118,9.061355932203393
9119,9.061355932203393
9120,9.061355932203393
9121,-46.84
9122,9.061355932203393
9123,9.061355932203393
9124,9.061355932203393
9125,9.061355932203393
9126,9.061355932203393
9127,9.061355932203393
9128,9.061355932203393
9129,9.061355932203393
9130,9.061355932203393
9131,9.061355932203393
9132,9.061355932203393
9133,-42.44
9134,9.061355932203393
9135,9.061355932203393
9136,9.061355932203393
9137,9.061355932203393
9138,9.061355932203393
9139,9.061355932203393
9140,9.061355932203393
9141,9.061355932203393
9142,9.061355932203393
9143,9.061355932203393
9144,9.061355932203393
9145,-37.2
9146,9.061355932203393
9147,9.061355932203393
9148,9.061355932203393
9149,9.061355932203393
9150,9.061355932203393
9151,9.061355932203393
9152,9.061355932203393
9153,9.061355932203393
9154,9.061355932203393
9155,9.061355932203393
9156,9.061355932203393
9157,-31.49
9158,9.061355932203393
9159,9.061355932203393
9160,9.061355932203393
9161,9.061355932203393
9162,9.061355932203393
9163,9.061355932203393
9164,9.061355932203393
9165,9.061355932203393
9166,9.061355932203393
9167,9.061355932203393
9168,9.061355932203393
9169,-26.22
9170,9.061355932203393
9171,9.061355932203393
9172,9.061355932203393
9173,9.061355932203393
9174,9.061355932203393
9175,9.061355932203393
9176,9.061355932203393
9177,9.061355932203393
9178,9.061355932203393
9179,9.061355932203393
9180,9.061355932203393
9181,-22.18
9182,9.061355932203393
9183,9.061355932203393
9184,9.061355932203393
9185,9.061355932203393
9186,9.061355932203393
9187,9.061355932203393
9188,9.061355932203393
9189,9.061355932203393
9190,9.061355932203393
9191,9.061355932203393
9192,9.061355932203393
9193,-19.48
9194,9.061355932203393
9195,9.061355932203393
9196,9.061355932203393
9197,9.061355932203393
9198,9.061355932203393
9199,9.061355932203393
9200,9.061355932203393
9201,9.061355932203393
9202,9.061355932203393
9203,9.061355932203393
9204,9.061355932203393
9205,-17.55
9206,9.061355932203393
9207,9.061355932203393
9208,9.061355932203393
9209,9.061355932203393
9210,9.061355932203393
9211,9.061355932203393
9212,9.061355932203393
9213,9.061355932203393
9214,9.061355932203393
9215,9.061355932203393
9216,9.061355932203393
9217,-15.55
9218,9.061355932203393
9219,9.061355932203393
9220,9.061355932203393
9221,9.061355932203393
9222,9.061355932203393
9223,9.061355932203393
9224,9.061355932203393
9225,9.061355932203393
9226,9.061355932203393
9227,9.061355932203393
9228,9.061355932203393
9229,-12.9
9230,9.061355932203393
9231,9.061355932203393
9232,9.061355932203393
9233,9.061355932203393
9234,9.061355932203393
9235,9.061355932203393
9236,9.061355932203393
9237,9.061355932203393
9238,9.061355932203393
9239,9.061355932203393
9240,9.061355932203393
9241,-9.58
9242,9.061355932203393
9243,9.061355932203393
9244,9.061355932203393
9245,9.061355932203393
9246,9.061355932203393
9247,9.061355932203393
9248,9.061355932203393
9249,9.061355932203393
9250,9.061355932203393
9251,9.061355932203393
9252,9.061355932203393
9253,-6.12
9254,9.061355932203393
9255,9.061355932203393
9256,9.061355932203393
9257,9.061355932203393
9258,9.061355932203393
9259,9.061355932203393
9260,9.061355932203393
9261,9.061355932203393
9262,9.061355932203393
9263,9.061355932203393
9264,9.061355932203393
9265,-3.27
9266,9.061355932203393
9267,9.061355932203393
9268,9.061355932203393
9269,9.061355932203393
9270,9.061355932203393
9271,9.061355932203393
9272,9.061355932203393
9273,9.061355932203393
9274,9.061355932203393
9275,9.061355932203393
9276,-1.56
9277,9.061355932203393
9278,9.061355932203393
9279,9.061355932203393
9280,9.061355932203393
9281,9.061355932203393
9282,9.061355932203393
9283,9.061355932203393
9284,9.061355932203393
9285,9.061355932203393
9286,9.061355932203393
9287,-1.08
9288,9.061355932203393
9289,9.061355932203393
9290,9.061355932203393
9291,9.061355932203393
9292,9.061355932203393
9293,9.061355932203393
9294,9.061355932203393
9295,9.061355932203393
9296,9.061355932203393
9297,9.061355932203393
9298,9.061355932203393
9299,-1.45
9300,9.061355932203393
9301,9.061355932203393
9302,9.061355932203393
9303,9.061355932203393
9304,9.061355932203393
9305,9.061355932203393
9306,9.061355932203393
9307,9.061355932203393
9308,9.061355932203393
9309,9.061355932203393
9310,9.061355932203393
9311,-1.95
9312,9.061355932203393
9313,9.061355932203393
9314,9.061355932203393
9315,9.061355932203393
9316,9.061355932203393
9317,9.061355932203393
9318,9.061355932203393
9319,9.061355932203393
9320,9.061355932203393
9321,9.061355932203393
9322,9.061355932203393
9323,-1.79
9324,9.061355932203393
9325,9.061355932203393
9326,9.061355932203393
9327,9.061355932203393
9328,9.061355932203393
9329,9.061355932203393
9330,9.061355932203393
9331,9.061355932203393
9332,9.061355932203393
9333,9.061355932203393
9334,9.061355932203393
9335,-0.25
9336,9.061355932203393
9337,9.061355932203393
9338,9.061355932203393
9339,9.061355932203393
9340,9.061355932203393
9341,9.061355932203393
9342,9.061355932203393
9343,9.061355932203393
9344,9.061355932203393
9345,9.061355932203393
9346,9.061355932203393
9347,3.11
9348,9.061355932203393
9349,9.061355932203393
9350,9.061355932203393
9351,9.061355932203393
9352,9.061355932203393
9353,9.061355932203393
9354,9.061355932203393
9355,9.061355932203393
9356,9.061355932203393
9357,9.061355932203393
9358,9.061355932203393
9359,8.42
9360,9.061355932203393
9361,9.061355932203393
9362,9.061355932203393
9363,9.061355932203393
9364,9.061355932203393
9365,9.061355932203393
9366,9.061355932203393
9367,9.061355932203393
9368,9.061355932203393
9369,9.061355932203393
9370,9.061355932203393
9371,15.36
9372,9.061355932203393
9373,9.061355932203393
9374,9.061355932203393
9375,9.061355932203393
9376,9.061355932203393
9377,9.061355932203393
9378,9.061355932203393
9379,9.061355932203393
9380,9.061355932203393
9381,9.061355932203393
9382,9.061355932203393
9383,23.26
9384,9.061355932203393
9385,9.061355932203393
9386,9.061355932203393
9387,9.061355932203393
9388,9.061355932203393
9389,9.061355932203393
9390,9.061355932203393
9391,9.061355932203393
9392,9.061355932203393
9393,9.061355932203393
9394,9.061355932203393
9395,31.09
9396,9.061355932203393
9397,9.061355932203393
9398,9.061355932203393
9399,9.061355932203393
9400,9.061355932203393
9401,9.061355932203393
9402,9.061355932203393
9403,9.061355932203393
9404,9.061355932203393
9405,9.061355932203393
9406,9.061355932203393
9407,37.73
9408,9.061355932203393
9409,9.061355932203393
9410,9.061355932203393
9411,9.061355932203393
9412,9.061355932203393
9413,9.061355932203393
9414,9.061355932203393
9415,9.061355932203393
9416,9.061355932203393
9417,9.061355932203393
9418,9.061355932203393
9419,42.22
9420,9.061355932203393
9421,9.061355932203393
9422,9.061355932203393
9423,9.061355932203393
9424,9.061355932203393
9425,9.061355932203393
9426,9.061355932203393
9427,9.061355932203393
9428,9.061355932203393
9429,9.061355932203393
9430,9.061355932203393
9431,43.96
9432,9.061355932203393
9433,9.061355932203393
9434,9.061355932203393
9435,9.061355932203393
9436,9.061355932203393
9437,9.061355932203393
9438,9.061355932203393
9439,9.061355932203393
9440,9.061355932203393
9441,9.061355932203393
9442,9.061355932203393
9443,42.9
9444,9.061355932203393
9445,9.061355932203393
9446,9.061355932203393
9447,9.061355932203393
9448,9.061355932203393
9449,9.061355932203393
9450,9.061355932203393
9451,9.061355932203393
9452,9.061355932203393
9453,9.061355932203393
9454,9.061355932203393
9455,39.53
9456,9.061355932203393
9457,9.061355932203393
9458,9.061355932203393
9459,9.061355932203393
9460,9.061355932203393
9461,9.061355932203393
9462,9.061355932203393
9463,9.061355932203393
9464,9.061355932203393
9465,9.061355932203393
9466,34.81
9467,9.061355932203393
9468,9.061355932203393
9469,9.061355932203393
9470,9.061355932203393
9471,9.061355932203393
9472,9.061355932203393
9473,9.061355932203393
9474,9.061355932203393
9475,9.061355932203393
9476,9.061355932203393
9477,29.93
9478,9.061355932203393
9479,9.061355932203393
9480,9.061355932203393
9481,9.061355932203393
9482,9.061355932203393
9483,9.061355932203393
9484,9.061355932203393
9485,9.061355932203393
9486,9.061355932203393
9487,9.061355932203393
9488,9.061355932203393
9489,25.98
9490,9.061355932203393
9491,9.061355932203393
9492,9.061355932203393
9493,9.061355932203393
9494,9.061355932203393
9495,9.061355932203393
9496,9.061355932203393
9497,9.061355932203393
9498,9.061355932203393
9499,9.061355932203393
9500,9.061355932203393
9501,23.69
9502,9.061355932203393
9503,9.061355932203393
9504,9.061355932203393
9505,9.061355932203393
9506,9.061355932203393
9507,9.061355932203393
9508,9.061355932203393
9509,9.061355932203393
9510,9.061355932203393
9511,9.061355932203393
9512,9.061355932203393
9513,23.15
9514,9.061355932203393
9515,9.061355932203393
9516,9.061355932203393
9517,9.061355932203393
9518,9.061355932203393
9519,9.061355932203393
9520,9.061355932203393
9521,9.061355932203393
9522,9.061355932203393
9523,9.061355932203393
9524,9.061355932203393
9525,23.91
9526,9.061355932203393
9527,9.061355932203393
9528,9.061355932203393
9529,9.061355932203393
9530,9.061355932203393
9531,9.061355932203393
9532,9.061355932203393
9533,9.061355932203393
9534,9.061355932203393
9535,9.061355932203393
9536,9.061355932203393
9537,25.24
9538,9.061355932203393
9539,9.061355932203393
9540,9.061355932203393
9541,9.061355932203393
9542,9.061355932203393
9543,9.061355932203393
9544,9.061355932203393
9545,9.061355932203393
9546,9.061355932203393
9547,9.061355932203393
9548,9.061355932203393
9549,26.54
9550,9.061355932203393
9551,9.061355932203393
9552,9.061355932203393
9553,9.061355932203393
9554,9.061355932203393
9555,9.061355932203393
9556,9.061355932203393
9557,9.061355932203393
9558,9.061355932203393
9559,9.061355932203393
9560,9.061355932203393
9561,27.57
9562,9.061355932203393
9563,9.061355932203393
9564,9.061355932203393
9565,9.061355932203393
9566,9.061355932203393
9567,9.061355932203393
9568,9.061355932203393
9569,9.061355932203393
9570,9.061355932203393
9571,9.061355932203393
9572,9.061355932203393
9573,28.59
9574,9.061355932203393
9575,9.061355932203393
9576,9.061355932203393
9577,9.061355932203393
9578,9.061355932203393
9579,9.061355932203393
9580,9.061355932203393
9581,9.061355932203393
9582,9.061355932203393
9583,9.061355932203393
9584,9.061355932203393
9585,30.13
9586,9.061355932203393
9587,9.061355932203393
9588,9.061355932203393
9589,9.061355932203393
9590,9.061355932203393
9591,9.061355932203393
9592,9.061355932203393
9593,9.061355932203393
9594,9.061355932203393
9595,9.061355932203393
9596,9.061355932203393
9597,32.79
9598,9.061355932203393
9599,9.061355932203393
9600,9.061355932203393
9601,9.061355932203393
9602,9.061355932203393
9603,9.061355932203393
9604,9.061355932203393
9605,9.061355932203393
9606,9.061355932203393
9607,9.061355932203393
9608,9.061355932203393
9609,36.97
9610,9.061355932203393
9611,9.061355932203393
9612,9.061355932203393
9613,9.061355932203393
9614,9.061355932203393
9615,9.061355932203393
9616,9.061355932203393
9617,9.061355932203393
9618,9.061355932203393
9619,9.061355932203393
9620,9.061355932203393
9621,42.85
9622,9.061355932203393
9623,9.061355932203393
9624,9.061355932203393
9625,9.061355932203393
9626,9.061355932203393
9627,9.061355932203393
9628,9.061355932203393
9629,9.061355932203393
9630,9.061355932203393
9631,9.061355932203393
9632,9.061355932203393
9633,50.28
9634,9.061355932203393
9635,9.061355932203393
9636,9.061355932203393
9637,9.061355932203393
9638,9.061355932203393
9639,9.061355932203393
9640,9.061355932203393
9641,9.061355932203393
9642,9.061355932203393
9643,9.061355932203393
9644,9.061355932203393
9645,58.68
9646,9.061355932203393
9647,9.061355932203393
9648,9.061355932203393
9649,9.061355932203393
9650,9.061355932203393
9651,9.061355932203393
9652,9.061355932203393
9653,9.061355932203393
9654,9.061355932203393
9655,9.061355932203393
9656,66.97
9657,9.061355932203393
9658,9.061355932203393
9659,9.061355932203393
9660,9.061355932203393
9661,9.061355932203393
9662,9.061355932203393
9663,9.061355932203393
9664,9.061355932203393
9665,9.061355932203393
9666,9.061355932203393
9667,73.45
9668,9.061355932203393
9669,9.061355932203393
9670,9.061355932203393
9671,9.061355932203393
9672,9.061355932203393
9673,9.061355932203393
9674,9.061355932203393
9675,9.061355932203393
9676,9.061355932203393
9677,9.061355932203393
9678,9.061355932203393
9679,76.26
9680,9.061355932203393
9681,9.061355932203393
9682,9.061355932203393
9683,9.061355932203393
9684,9.061355932203393
9685,9.061355932203393
9686,9.061355932203393
9687,9.061355932203393
9688,9.061355932203393
9689,9.061355932203393
9690,9.061355932203393
9691,73.96
9692,9.061355932203393
9693,9.061355932203393
9694,9.061355932203393
9695,9.061355932203393
9696,9.061355932203393
9697,9.061355932203393
9698,9.061355932203393
9699,9.061355932203393
9700,9.061355932203393
9701,9.061355932203393
9702,9.061355932203393
9703,66.28
9704,9.061355932203393
9705,9.061355932203393
9706,9.061355932203393
9707,9.061355932203393
9708,9.061355932203393
9709,9.061355932203393
9710,9.061355932203393
9711,9.061355932203393
9712,9.061355932203393
9713,9.061355932203393
9714,9.061355932203393
9715,54.47
9716,9.061355932203393
9717,9.061355932203393
9718,9.061355932203393
9719,9.061355932203393
9720,9.061355932203393
9721,9.061355932203393
9722,9.061355932203393
9723,9.061355932203393
9724,9.061355932203393
9725,9.061355932203393
9726,9.061355932203393
9727,41.0
9728,9.061355932203393
9729,9.061355932203393
9730,9.061355932203393
9731,9.061355932203393
9732,9.061355932203393
9733,9.061355932203393
9734,9.061355932203393
9735,9.061355932203393
9736,9.061355932203393
9737,9.061355932203393
9738,9.061355932203393
9739,28.55
9740,9.061355932203393
9741,9.061355932203393
9742,9.061355932203393
9743,9.061355932203393
9744,9.061355932203393
9745,9.061355932203393
9746,9.061355932203393
9747,9.061355932203393
9748,9.061355932203393
9749,9.061355932203393
9750,9.061355932203393
9751,18.99
9752,9.061355932203393
9753,9.061355932203393
9754,9.061355932203393
9755,9.061355932203393
9756,9.061355932203393
9757,9.061355932203393
9758,9.061355932203393
9759,9.061355932203393
9760,9.061355932203393
9761,9.061355932203393
9762,9.061355932203393
9763,12.7
9764,9.061355932203393
9765,9.061355932203393
9766,9.061355932203393
9767,9.061355932203393
9768,9.061355932203393
9769,9.061355932203393
9770,9.061355932203393
9771,9.061355932203393
9772,9.061355932203393
9773,9.061355932203393
9774,9.061355932203393
9775,8.73
9776,9.061355932203393
9777,9.061355932203393
9778,9.061355932203393
9779,9.061355932203393
9780,9.061355932203393
9781,9.061355932203393
9782,9.061355932203393
9783,9.061355932203393
9784,9.061355932203393
9785,9.061355932203393
9786,9.061355932203393
9787,5.71
9788,9.061355932203393
9789,9.061355932203393
9790,9.061355932203393
9791,9.061355932203393
9792,9.061355932203393
9793,9.061355932203393
9794,9.061355932203393
9795,9.061355932203393
9796,9.061355932203393
9797,9.061355932203393
9798,9.061355932203393
9799,2.74
9800,9.061355932203393
9801,9.061355932203393
9802,9.061355932203393
9803,9.061355932203393
9804,9.061355932203393
9805,9.061355932203393
9806,9.061355932203393
9807,9.061355932203393
9808,9.061355932203393
9809,9.061355932203393
9810,9.061355932203393
9811,-0.1
9812,9.061355932203393
9813,9.061355932203393
9814,9.061355932203393
9815,9.061355932203393
9816,9.061355932203393
9817,9.061355932203393
9818,9.061355932203393
9819,9.061355932203393
9820,9.061355932203393
9821,9.061355932203393
9822,9.061355932203393
9823,-2.07
9824,9.061355932203393
9825,9.061355932203393
9826,9.061355932203393
9827,9.061355932203393
9828,9.061355932203393
9829,9.061355932203393
9830,9.061355932203393
9831,9.061355932203393
9832,9.061355932203393
9833,9.061355932203393
9834,9.061355932203393
9835,-2.55
9836,9.061355932203393
9837,9.061355932203393
9838,9.061355932203393
9839,9.061355932203393
9840,9.061355932203393
9841,9.061355932203393
9842,9.061355932203393
9843,9.061355932203393
9844,9.061355932203393
9845,9.061355932203393
9846,-1.72
9847,9.061355932203393
9848,9.061355932203393
9849,9.061355932203393
9850,9.061355932203393
9851,9.061355932203393
9852,9.061355932203393
9853,9.061355932203393
9854,9.061355932203393
9855,9.061355932203393
9856,9.061355932203393
9857,-0.73
9858,9.061355932203393
9859,9.061355932203393
9860,9.061355932203393
9861,9.061355932203393
9862,9.061355932203393
9863,9.061355932203393
9864,9.061355932203393
9865,9.061355932203393
9866,9.061355932203393
9867,9.061355932203393
9868,9.061355932203393
9869,-1.13
9870,9.061355932203393
9871,9.061355932203393
9872,9.061355932203393
9873,9.061355932203393
9874,9.061355932203393
9875,9.061355932203393
9876,9.061355932203393
9877,9.061355932203393
9878,9.061355932203393
9879,9.061355932203393
9880,9.061355932203393
9881,-3.96
9882,9.061355932203393
9883,9.061355932203393
9884,9.061355932203393
9885,9.061355932203393
9886,9.061355932203393
9887,9.061355932203393
9888,9.061355932203393
9889,9.061355932203393
9890,9.061355932203393
9891,9.061355932203393
9892,9.061355932203393
9893,-9.14
9894,9.061355932203393
9895,9.061355932203393
9896,9.061355932203393
9897,9.061355932203393
9898,9.061355932203393
9899,9.061355932203393
9900,9.061355932203393
9901,9.061355932203393
9902,9.061355932203393
9903,9.061355932203393
9904,9.061355932203393
9905,-15.61
9906,9.061355932203393
9907,9.061355932203393
9908,9.061355932203393
9909,9.061355932203393
9910,9.061355932203393
9911,9.061355932203393
9912,9.061355932203393
9913,9.061355932203393
9914,9.061355932203393
9915,9.061355932203393
9916,9.061355932203393
9917,-22.08
9918,9.061355932203393
9919,9.061355932203393
9920,9.061355932203393
9921,9.061355932203393
9922,9.061355932203393
9923,9.061355932203393
9924,9.061355932203393
9925,9.061355932203393
9926,9.061355932203393
9927,9.061355932203393
9928,9.061355932203393
9929,-28.06
9930,9.061355932203393
9931,9.061355932203393
9932,9.061355932203393
9933,9.061355932203393
9934,9.061355932203393
9935,9.061355932203393
9936,9.061355932203393
9937,9.061355932203393
9938,9.061355932203393
9939,9.061355932203393
9940,9.061355932203393
9941,-34.54
9942,9.061355932203393
9943,9.061355932203393
9944,9.061355932203393
9945,9.061355932203393
9946,9.061355932203393
9947,9.061355932203393
9948,9.061355932203393
9949,9.061355932203393
9950,9.061355932203393
9951,9.061355932203393
9952,9.061355932203393
9953,-43.74
9954,9.061355932203393
9955,9.061355932203393
9956,9.061355932203393
9957,9.061355932203393
9958,9.061355932203393
9959,9.061355932203393
9960,9.061355932203393
9961,9.061355932203393
9962,9.061355932203393
9963,9.061355932203393
9964,9.061355932203393
9965,-57.95
9966,9.061355932203393
9967,9.061355932203393
9968,9.061355932203393
9969,9.061355932203393
9970,9.061355932203393
9971,9.061355932203393
9972,9.061355932203393
9973,9.061355932203393
9974,9.061355932203393
9975,9.061355932203393
9976,9.061355932203393
9977,-78.11
9978,9.061355932203393
9979,9.061355932203393
9980,9.061355932203393
9981,9.061355932203393
9982,9.061355932203393
9983,9.061355932203393
9984,9.061355932203393
9985,9.061355932203393
9986,9.061355932203393
9987,9.061355932203393
9988,9.061355932203393
9989,-103.01
9990,9.061355932203393
9991,9.061355932203393
9992,9.061355932203393
9993,9.061355932203393
9994,9.061355932203393
9995,9.061355932203393
9996,9.061355932203393
9997,9.061355932203393
9998,9.061355932203393
9999,9.061355932203393
10000,9.061355932203393
10001,-129.52
10002,9.061355932203393
10003,9.061355932203393
10004,9.061355932203393
10005,9.061355932203393
10006,9.061355932203393
10007,9.061355932203393
10008,9.061355932203393
10009,9.061355932203393
10010,9.061355932203393
10011,9.061355932203393
10012,9.061355932203393
10013,-153.88
10014,9.061355932203393
10015,9.061355932203393
10016,9.061355932203393
10017,9.061355932203393
10018,9.061355932203393
10019,9.061355932203393
10020,9.061355932203393
10021,9.061355932203393
10022,9.061355932203393
10023,9.061355932203393
10024,9.061355932203393
10025,-173.17
10026,9.061355932203393
10027,9.061355932203393
10028,9.061355932203393
10029,9.061355932203393
10030,9.061355932203393
10031,9.061355932203393
10032,9.061355932203393
10033,9.061355932203393
10034,9.061355932203393
10035,9.061355932203393
10036,-186.36
10037,9.061355932203393
10038,9.061355932203393
10039,9.061355932203393
10040,9.061355932203393
10041,9.061355932203393
10042,9.061355932203393
10043,9.061355932203393
10044,9.061355932203393
10045,9.061355932203393
10046,9.061355932203393
10047,-194.27
10048,9.061355932203393
10049,9.061355932203393
10050,9.061355932203393
10051,9.061355932203393
10052,9.061355932203393
10053,9.061355932203393
10054,9.061355932203393
10055,9.061355932203393
10056,9.061355932203393
10057,9.061355932203393
10058,9.061355932203393
10059,-198.85
10060,9.061355932203393
10061,9.061355932203393
10062,9.061355932203393
10063,9.061355932203393
10064,9.061355932203393
10065,9.061355932203393
10066,9.061355932203393
10067,9.061355932203393
10068,9.061355932203393
10069,9.061355932203393
10070,9.061355932203393
10071,-202.18
10072,9.061355932203393
10073,9.061355932203393
10074,9.061355932203393
10075,9.061355932203393
10076,9.061355932203393
10077,9.061355932203393
10078,9.061355932203393
10079,9.061355932203393
10080,9.061355932203393
10081,9.061355932203393
10082,9.061355932203393
10083,-205.7
10084,9.061355932203393
10085,9.061355932203393
10086,9.061355932203393
10087,9.061355932203393
10088,9.061355932203393
10089,9.061355932203393
10090,9.061355932203393
10091,9.061355932203393
10092,9.061355932203393
10093,9.061355932203393
10094,9.061355932203393
10095,-210.12
10096,9.061355932203393
10097,9.061355932203393
10098,9.061355932203393
10099,9.061355932203393
10100,9.061355932203393
10101,9.061355932203393
10102,9.061355932203393
10103,9.061355932203393
10104,9.061355932203393
10105,9.061355932203393
10106,9.061355932203393
10107,-215.5
10108,9.061355932203393
10109,9.061355932203393
10110,9.061355932203393
10111,9.061355932203393
10112,9.061355932203393
10113,9.061355932203393
10114,9.061355932203393
10115,9.061355932203393
10116,9.061355932203393
10117,9.061355932203393
10118,9.061355932203393
10119,-221.49
10120,9.061355932203393
10121,9.061355932203393
10122,9.061355932203393
10123,9.061355932203393
10124,9.061355932203393
10125,9.061355932203393
10126,9.061355932203393
10127,9.061355932203393
10128,9.061355932203393
10129,9.061355932203393
10130,9.061355932203393
10131,-227.2
10132,9.061355932203393
10133,9.061355932203393
10134,9.061355932203393
10135,9.061355932203393
10136,9.061355932203393
10137,9.061355932203393
10138,9.061355932203393
10139,9.061355932203393
10140,9.061355932203393
10141,9.061355932203393
10142,9.061355932203393
10143,-231.11
10144,9.061355932203393
10145,9.061355932203393
10146,9.061355932203393
10147,9.061355932203393
10148,9.061355932203393
10149,9.061355932203393
10150,9.061355932203393
10151,9.061355932203393
10152,9.061355932203393
10153,9.061355932203393
10154,9.061355932203393
10155,-230.96
10156,9.061355932203393
10157,9.061355932203393
10158,9.061355932203393
10159,9.061355932203393
10160,9.061355932203393
10161,9.061355932203393
10162,9.061355932203393
10163,9.061355932203393
10164,9.061355932203393
10165,9.061355932203393
10166,9.061355932203393
10167,-224.15
10168,9.061355932203393
10169,9.061355932203393
10170,9.061355932203393
10171,9.061355932203393
10172,9.061355932203393
10173,9.061355932203393
10174,9.061355932203393
10175,9.061355932203393
10176,9.061355932203393
10177,9.061355932203393
10178,9.061355932203393
10179,-208.54
10180,9.061355932203393
10181,9.061355932203393
10182,9.061355932203393
10183,9.061355932203393
10184,9.061355932203393
10185,9.061355932203393
10186,9.061355932203393
10187,9.061355932203393
10188,9.061355932203393
10189,9.061355932203393
10190,9.061355932203393
10191,-183.34
10192,9.061355932203393
10193,9.061355932203393
10194,9.061355932203393
10195,9.061355932203393
10196,9.061355932203393
10197,9.061355932203393
10198,9.061355932203393
10199,9.061355932203393
10200,9.061355932203393
10201,9.061355932203393
10202,9.061355932203393
10203,-149.72
10204,9.061355932203393
10205,9.061355932203393
10206,9.061355932203393
10207,9.061355932203393
10208,9.061355932203393
10209,9.061355932203393
10210,9.061355932203393
10211,9.061355932203393
10212,9.061355932203393
10213,9.061355932203393
10214,9.061355932203393
10215,-110.58
10216,9.061355932203393
10217,9.061355932203393
10218,9.061355932203393
10219,9.061355932203393
10220,9.061355932203393
10221,9.061355932203393
10222,9.061355932203393
10223,9.061355932203393
10224,9.061355932203393
10225,9.061355932203393
10226,-69.48
10227,9.061355932203393
10228,9.061355932203393
10229,9.061355932203393
10230,9.061355932203393
10231,9.061355932203393
10232,9.061355932203393
10233,9.061355932203393
10234,9.061355932203393
10235,9.061355932203393
10236,9.061355932203393
10237,-29.29
10238,9.061355932203393
10239,9.061355932203393
10240,9.061355932203393
10241,9.061355932203393
10242,9.061355932203393
10243,9.061355932203393
10244,9.061355932203393
10245,9.061355932203393
10246,9.061355932203393
10247,9.061355932203393
10248,9.061355932203393
10249,8.93
10250,9.061355932203393
10251,9.061355932203393
10252,9.061355932203393
10253,9.061355932203393
10254,9.061355932203393
10255,9.061355932203393
10256,9.061355932203393
10257,9.061355932203393
10258,9.061355932203393
10259,9.061355932203393
10260,9.061355932203393
10261,46.1
10262,9.061355932203393
10263,9.061355932203393
10264,9.061355932203393
10265,9.061355932203393
10266,9.061355932203393
10267,9.061355932203393
10268,9.061355932203393
10269,9.061355932203393
10270,9.061355932203393
10271,9.061355932203393
10272,9.061355932203393
10273,84.15
10274,9.061355932203393
10275,9.061355932203393
10276,9.061355932203393
10277,9.061355932203393
10278,9.061355932203393
10279,9.061355932203393
10280,9.061355932203393
10281,9.061355932203393
10282,9.061355932203393
10283,9.061355932203393
10284,9.061355932203393
10285,124.39
10286,9.061355932203393
10287,9.061355932203393
10288,9.061355932203393
10289,9.061355932203393
10290,9.061355932203393
10291,9.061355932203393
10292,9.061355932203393
10293,9.061355932203393
10294,9.061355932203393
10295,9.061355932203393
10296,9.061355932203393
10297,166.23
10298,9.061355932203393
10299,9.061355932203393
10300,9.061355932203393
10301,9.061355932203393
10302,9.061355932203393
10303,9.061355932203393
10304,9.061355932203393
10305,9.061355932203393
10306,9.061355932203393
10307,9.061355932203393
10308,9.061355932203393
10309,206.95
10310,9.061355932203393
10311,9.061355932203393
10312,9.061355932203393
10313,9.061355932203393
10314,9.061355932203393
10315,9.061355932203393
10316,9.061355932203393
10317,9.061355932203393
10318,9.061355932203393
10319,9.061355932203393
10320,9.061355932203393
10321,242.9
10322,9.061355932203393
10323,9.061355932203393
10324,9.061355932203393
10325,9.061355932203393
10326,9.061355932203393
10327,9.061355932203393
10328,9.061355932203393
10329,9.061355932203393
10330,9.061355932203393
10331,9.061355932203393
10332,9.061355932203393
10333,271.14
10334,9.061355932203393
10335,9.061355932203393
10336,9.061355932203393
10337,9.061355932203393
10338,9.061355932203393
10339,9.061355932203393
10340,9.061355932203393
10341,9.061355932203393
10342,9.061355932203393
10343,9.061355932203393
10344,9.061355932203393
10345,290.7
10346,9.061355932203393
10347,9.061355932203393
10348,9.061355932203393
10349,9.061355932203393
10350,9.061355932203393
10351,9.061355932203393
10352,9.061355932203393
10353,9.061355932203393
10354,9.061355932203393
10355,9.061355932203393
10356,9.061355932203393
10357,302.57
10358,9.061355932203393
10359,9.061355932203393
10360,9.061355932203393
10361,9.061355932203393
10362,9.061355932203393
10363,9.061355932203393
10364,9.061355932203393
10365,9.061355932203393
10366,9.061355932203393
10367,9.061355932203393
10368,9.061355932203393
10369,308.59
10370,9.061355932203393
10371,9.061355932203393
10372,9.061355932203393
10373,9.061355932203393
10374,9.061355932203393
10375,9.061355932203393
10376,9.061355932203393
10377,9.061355932203393
10378,9.061355932203393
10379,9.061355932203393
10380,9.061355932203393
10381,310.09
10382,9.061355932203393
10383,9.061355932203393
10384,9.061355932203393
10385,9.061355932203393
10386,9.061355932203393
10387,9.061355932203393
10388,9.061355932203393
10389,9.061355932203393
10390,9.061355932203393
10391,9.061355932203393
10392,9.061355932203393
10393,307.17
10394,9.061355932203393
10395,9.061355932203393
10396,9.061355932203393
10397,9.061355932203393
10398,9.061355932203393
10399,9.061355932203393
10400,9.061355932203393
10401,9.061355932203393
10402,9.061355932203393
10403,9.061355932203393
10404,9.061355932203393
10405,299.19
10406,9.061355932203393
10407,9.061355932203393
10408,9.061355932203393
10409,9.061355932203393
10410,9.061355932203393
10411,9.061355932203393
10412,9.061355932203393
10413,9.061355932203393
10414,9.061355932203393
10415,9.061355932203393
10416,285.74
10417,9.061355932203393
10418,9.061355932203393
10419,9.061355932203393
10420,9.061355932203393
10421,9.061355932203393
10422,9.061355932203393
10423,9.061355932203393
10424,9.061355932203393
10425,9.061355932203393
10426,9.061355932203393
10427,267.52
10428,9.061355932203393
10429,9.061355932203393
10430,9.061355932203393
10431,9.061355932203393
10432,9.061355932203393
10433,9.061355932203393
10434,9.061355932203393
10435,9.061355932203393
10436,9.061355932203393
10437,9.061355932203393
10438,9.061355932203393
10439,246.28
10440,9.061355932203393
10441,9.061355932203393
10442,9.061355932203393
10443,9.061355932203393
10444,9.061355932203393
10445,9.061355932203393
10446,9.061355932203393
10447,9.061355932203393
10448,9.061355932203393
10449,9.061355932203393
10450,9.061355932203393
10451,224.11
10452,9.061355932203393
10453,9.061355932203393
10454,9.061355932203393
10455,9.061355932203393
10456,9.061355932203393
10457,9.061355932203393
10458,9.061355932203393
10459,9.061355932203393
10460,9.061355932203393
10461,9.061355932203393
10462,9.061355932203393
10463,202.66
10464,9.061355932203393
10465,9.061355932203393
10466,9.061355932203393
10467,9.061355932203393
10468,9.061355932203393
10469,9.061355932203393
10470,9.061355932203393
10471,9.061355932203393
10472,9.061355932203393
10473,9.061355932203393
10474,9.061355932203393
10475,182.72
10476,9.061355932203393
10477,9.061355932203393
10478,9.061355932203393
10479,9.061355932203393
10480,9.061355932203393
10481,9.061355932203393
10482,9.061355932203393
10483,9.061355932203393
10484,9.061355932203393
10485,9.061355932203393
10486,9.061355932203393
10487,164.49
10488,9.061355932203393
10489,9.061355932203393
10490,9.061355932203393
10491,9.061355932203393
10492,9.061355932203393
10493,9.061355932203393
10494,9.061355932203393
10495,9.061355932203393
10496,9.061355932203393
10497,9.061355932203393
10498,9.061355932203393
10499,148.03
