second,BVP
2100,5.006949152542371
2101,5.006949152542371
2102,17.54
2103,5.006949152542371
2104,5.006949152542371
2105,5.006949152542371
2106,5.006949152542371
2107,5.006949152542371
2108,5.006949152542371
2109,5.006949152542371
2110,5.006949152542371
2111,5.006949152542371
2112,5.006949152542371
2113,5.006949152542371
2114,19.27
2115,5.006949152542371
2116,5.006949152542371
2117,5.006949152542371
2118,5.006949152542371
2119,5.006949152542371
2120,5.006949152542371
2121,5.006949152542371
2122,5.006949152542371
2123,5.006949152542371
2124,5.006949152542371
2125,5.006949152542371
2126,21.84
2127,5.006949152542371
2128,5.006949152542371
2129,5.006949152542371
2130,5.006949152542371
2131,5.006949152542371
2132,5.006949152542371
2133,5.006949152542371
2134,5.006949152542371
2135,5.006949152542371
2136,5.006949152542371
2137,5.006949152542371
2138,25.45
2139,5.006949152542371
2140,5.006949152542371
2141,5.006949152542371
2142,5.006949152542371
2143,5.006949152542371
2144,5.006949152542371
2145,5.006949152542371
2146,5.006949152542371
2147,5.006949152542371
2148,5.006949152542371
2149,5.006949152542371
2150,29.84
2151,5.006949152542371
2152,5.006949152542371
2153,5.006949152542371
2154,5.006949152542371
2155,5.006949152542371
2156,5.006949152542371
2157,5.006949152542371
2158,5.006949152542371
2159,5.006949152542371
2160,5.006949152542371
2161,5.006949152542371
2162,34.51
2163,5.006949152542371
2164,5.006949152542371
2165,5.006949152542371
2166,5.006949152542371
2167,5.006949152542371
2168,5.006949152542371
2169,5.006949152542371
2170,5.006949152542371
2171,5.006949152542371
2172,5.006949152542371
2173,5.006949152542371
2174,39.0
2175,5.006949152542371
2176,5.006949152542371
2177,5.006949152542371
2178,5.006949152542371
2179,5.006949152542371
2180,5.006949152542371
2181,5.006949152542371
2182,5.006949152542371
2183,5.006949152542371
2184,5.006949152542371
2185,5.006949152542371
2186,43.08
2187,5.006949152542371
2188,5.006949152542371
2189,5.006949152542371
2190,5.006949152542371
2191,5.006949152542371
2192,5.006949152542371
2193,5.006949152542371
2194,5.006949152542371
2195,5.006949152542371
2196,5.006949152542371
2197,5.006949152542371
2198,46.81
2199,5.006949152542371
2200,5.006949152542371
2201,5.006949152542371
2202,5.006949152542371
2203,5.006949152542371
2204,5.006949152542371
2205,5.006949152542371
2206,5.006949152542371
2207,5.006949152542371
2208,5.006949152542371
2209,5.006949152542371
2210,50.34
2211,5.006949152542371
2212,5.006949152542371
2213,5.006949152542371
2214,5.006949152542371
2215,5.006949152542371
2216,5.006949152542371
2217,5.006949152542371
2218,5.006949152542371
2219,5.006949152542371
2220,5.006949152542371
2221,5.006949152542371
2222,53.78
2223,5.006949152542371
2224,5.006949152542371
2225,5.006949152542371
2226,5.006949152542371
2227,5.006949152542371
2228,5.006949152542371
2229,5.006949152542371
2230,5.006949152542371
2231,5.006949152542371
2232,5.006949152542371
2233,5.006949152542371
2234,57.06
2235,5.006949152542371
2236,5.006949152542371
2237,5.006949152542371
2238,5.006949152542371
2239,5.006949152542371
2240,5.006949152542371
2241,5.006949152542371
2242,5.006949152542371
2243,5.006949152542371
2244,5.006949152542371
2245,60.05
2246,5.006949152542371
2247,5.006949152542371
2248,5.006949152542371
2249,5.006949152542371
2250,5.006949152542371
2251,5.006949152542371
2252,5.006949152542371
2253,5.006949152542371
2254,5.006949152542371
2255,5.006949152542371
2256,62.65
2257,5.006949152542371
2258,5.006949152542371
2259,5.006949152542371
2260,5.006949152542371
2261,5.006949152542371
2262,5.006949152542371
2263,5.006949152542371
2264,5.006949152542371
2265,5.006949152542371
2266,5.006949152542371
2267,5.006949152542371
2268,65.02
2269,5.006949152542371
2270,5.006949152542371
2271,5.006949152542371
2272,5.006949152542371
2273,5.006949152542371
2274,5.006949152542371
2275,5.006949152542371
2276,5.006949152542371
2277,5.006949152542371
2278,5.006949152542371
2279,5.006949152542371
2280,67.44
2281,5.006949152542371
2282,5.006949152542371
2283,5.006949152542371
2284,5.006949152542371
2285,5.006949152542371
2286,5.006949152542371
2287,5.006949152542371
2288,5.006949152542371
2289,5.006949152542371
2290,5.006949152542371
2291,5.006949152542371
2292,70.17
2293,5.006949152542371
2294,5.006949152542371
2295,5.006949152542371
2296,5.006949152542371
2297,5.006949152542371
2298,5.006949152542371
2299,5.006949152542371
2300,5.006949152542371
2301,5.006949152542371
2302,5.006949152542371
2303,5.006949152542371
2304,73.1
2305,5.006949152542371
2306,5.006949152542371
2307,5.006949152542371
2308,5.006949152542371
2309,5.006949152542371
2310,5.006949152542371
2311,5.006949152542371
2312,5.006949152542371
2313,5.006949152542371
2314,5.006949152542371
2315,5.006949152542371
2316,75.68
2317,5.006949152542371
2318,5.006949152542371
2319,5.006949152542371
2320,5.006949152542371
2321,5.006949152542371
2322,5.006949152542371
2323,5.006949152542371
2324,5.006949152542371
2325,5.006949152542371
2326,5.006949152542371
2327,5.006949152542371
2328,77.02
2329,5.006949152542371
2330,5.006949152542371
2331,5.006949152542371
2332,5.006949152542371
2333,5.006949152542371
2334,5.006949152542371
2335,5.006949152542371
2336,5.006949152542371
2337,5.006949152542371
2338,5.006949152542371
2339,5.006949152542371
2340,76.34
2341,5.006949152542371
2342,5.006949152542371
2343,5.006949152542371
2344,5.006949152542371
2345,5.006949152542371
2346,5.006949152542371
2347,5.006949152542371
2348,5.006949152542371
2349,5.006949152542371
2350,5.006949152542371
2351,5.006949152542371
2352,73.27
2353,5.006949152542371
2354,5.006949152542371
2355,5.006949152542371
2356,5.006949152542371
2357,5.006949152542371
2358,5.006949152542371
2359,5.006949152542371
2360,5.006949152542371
2361,5.006949152542371
2362,5.006949152542371
2363,5.006949152542371
2364,68.12
2365,5.006949152542371
2366,5.006949152542371
2367,5.006949152542371
2368,5.006949152542371
2369,5.006949152542371
2370,5.006949152542371
2371,5.006949152542371
2372,5.006949152542371
2373,5.006949152542371
2374,5.006949152542371
2375,5.006949152542371
2376,61.65
2377,5.006949152542371
2378,5.006949152542371
2379,5.006949152542371
2380,5.006949152542371
2381,5.006949152542371
2382,5.006949152542371
2383,5.006949152542371
2384,5.006949152542371
2385,5.006949152542371
2386,5.006949152542371
2387,5.006949152542371
2388,54.81
2389,5.006949152542371
2390,5.006949152542371
2391,5.006949152542371
2392,5.006949152542371
2393,5.006949152542371
2394,5.006949152542371
2395,5.006949152542371
2396,5.006949152542371
2397,5.006949152542371
2398,5.006949152542371
2399,5.006949152542371
2400,48.33
2401,5.006949152542371
2402,5.006949152542371
2403,5.006949152542371
2404,5.006949152542371
2405,5.006949152542371
2406,5.006949152542371
2407,5.006949152542371
2408,5.006949152542371
2409,5.006949152542371
2410,5.006949152542371
2411,5.006949152542371
2412,42.53
2413,5.006949152542371
2414,5.006949152542371
2415,5.006949152542371
2416,5.006949152542371
2417,5.006949152542371
2418,5.006949152542371
2419,5.006949152542371
2420,5.006949152542371
2421,5.006949152542371
2422,5.006949152542371
2423,5.006949152542371
2424,37.36
2425,5.006949152542371
2426,5.006949152542371
2427,5.006949152542371
2428,5.006949152542371
2429,5.006949152542371
2430,5.006949152542371
2431,5.006949152542371
2432,5.006949152542371
2433,5.006949152542371
2434,5.006949152542371
2435,32.41
2436,5.006949152542371
2437,5.006949152542371
2438,5.006949152542371
2439,5.006949152542371
2440,5.006949152542371
2441,5.006949152542371
2442,5.006949152542371
2443,5.006949152542371
2444,5.006949152542371
2445,5.006949152542371
2446,27.2
2447,5.006949152542371
2448,5.006949152542371
2449,5.006949152542371
2450,5.006949152542371
2451,5.006949152542371
2452,5.006949152542371
2453,5.006949152542371
2454,5.006949152542371
2455,5.006949152542371
2456,5.006949152542371
2457,5.006949152542371
2458,21.14
2459,5.006949152542371
2460,5.006949152542371
2461,5.006949152542371
2462,5.006949152542371
2463,5.006949152542371
2464,5.006949152542371
2465,5.006949152542371
2466,5.006949152542371
2467,5.006949152542371
2468,5.006949152542371
2469,5.006949152542371
2470,13.55
2471,5.006949152542371
2472,5.006949152542371
2473,5.006949152542371
2474,5.006949152542371
2475,5.006949152542371
2476,5.006949152542371
2477,5.006949152542371
2478,5.006949152542371
2479,5.006949152542371
2480,5.006949152542371
2481,5.006949152542371
2482,3.79
2483,5.006949152542371
2484,5.006949152542371
2485,5.006949152542371
2486,5.006949152542371
2487,5.006949152542371
2488,5.006949152542371
2489,5.006949152542371
2490,5.006949152542371
2491,5.006949152542371
2492,5.006949152542371
2493,5.006949152542371
2494,-8.7
2495,5.006949152542371
2496,5.006949152542371
2497,5.006949152542371
2498,5.006949152542371
2499,5.006949152542371
2500,5.006949152542371
2501,5.006949152542371
2502,5.006949152542371
2503,5.006949152542371
2504,5.006949152542371
2505,5.006949152542371
2506,-24.12
2507,5.006949152542371
2508,5.006949152542371
2509,5.006949152542371
2510,5.006949152542371
2511,5.006949152542371
2512,5.006949152542371
2513,5.006949152542371
2514,5.006949152542371
2515,5.006949152542371
2516,5.006949152542371
2517,5.006949152542371
2518,-41.94
2519,5.006949152542371
2520,5.006949152542371
2521,5.006949152542371
2522,5.006949152542371
2523,5.006949152542371
2524,5.006949152542371
2525,5.006949152542371
2526,5.006949152542371
2527,5.006949152542371
2528,5.006949152542371
2529,5.006949152542371
2530,-60.73
2531,5.006949152542371
2532,5.006949152542371
2533,5.006949152542371
2534,5.006949152542371
2535,5.006949152542371
2536,5.006949152542371
2537,5.006949152542371
2538,5.006949152542371
2539,5.006949152542371
2540,5.006949152542371
2541,5.006949152542371
2542,-78.19
2543,5.006949152542371
2544,5.006949152542371
2545,5.006949152542371
2546,5.006949152542371
2547,5.006949152542371
2548,5.006949152542371
2549,5.006949152542371
2550,5.006949152542371
2551,5.006949152542371
2552,5.006949152542371
2553,5.006949152542371
2554,-91.6
2555,5.006949152542371
2556,5.006949152542371
2557,5.006949152542371
2558,5.006949152542371
2559,5.006949152542371
2560,5.006949152542371
2561,5.006949152542371
2562,5.006949152542371
2563,5.006949152542371
2564,5.006949152542371
2565,5.006949152542371
2566,-98.54
2567,5.006949152542371
2568,5.006949152542371
2569,5.006949152542371
2570,5.006949152542371
2571,5.006949152542371
2572,5.006949152542371
2573,5.006949152542371
2574,5.006949152542371
2575,5.006949152542371
2576,5.006949152542371
2577,5.006949152542371
2578,-97.68
2579,5.006949152542371
2580,5.006949152542371
2581,5.006949152542371
2582,5.006949152542371
2583,5.006949152542371
2584,5.006949152542371
2585,5.006949152542371
2586,5.006949152542371
2587,5.006949152542371
2588,5.006949152542371
2589,5.006949152542371
2590,-89.12
2591,5.006949152542371
2592,5.006949152542371
2593,5.006949152542371
2594,5.006949152542371
2595,5.006949152542371
2596,5.006949152542371
2597,5.006949152542371
2598,5.006949152542371
2599,5.006949152542371
2600,5.006949152542371
2601,5.006949152542371
2602,-74.2
2603,5.006949152542371
2604,5.006949152542371
2605,5.006949152542371
2606,5.006949152542371
2607,5.006949152542371
2608,5.006949152542371
2609,5.006949152542371
2610,5.006949152542371
2611,5.006949152542371
2612,5.006949152542371
2613,5.006949152542371
2614,-54.78
2615,5.006949152542371
2616,5.006949152542371
2617,5.006949152542371
2618,5.006949152542371
2619,5.006949152542371
2620,5.006949152542371
2621,5.006949152542371
2622,5.006949152542371
2623,5.006949152542371
2624,5.006949152542371
2625,-32.32
2626,5.006949152542371
2627,5.006949152542371
2628,5.006949152542371
2629,5.006949152542371
2630,5.006949152542371
2631,5.006949152542371
2632,5.006949152542371
2633,5.006949152542371
2634,5.006949152542371
2635,5.006949152542371
2636,-7.3
2637,5.006949152542371
2638,5.006949152542371
2639,5.006949152542371
2640,5.006949152542371
2641,5.006949152542371
2642,5.006949152542371
2643,5.006949152542371
2644,5.006949152542371
2645,5.006949152542371
2646,5.006949152542371
2647,5.006949152542371
2648,20.69
2649,5.006949152542371
2650,5.006949152542371
2651,5.006949152542371
2652,5.006949152542371
2653,5.006949152542371
2654,5.006949152542371
2655,5.006949152542371
2656,5.006949152542371
2657,5.006949152542371
2658,5.006949152542371
2659,5.006949152542371
2660,52.29
2661,5.006949152542371
2662,5.006949152542371
2663,5.006949152542371
2664,5.006949152542371
2665,5.006949152542371
2666,5.006949152542371
2667,5.006949152542371
2668,5.006949152542371
2669,5.006949152542371
2670,5.006949152542371
2671,5.006949152542371
2672,87.39
2673,5.006949152542371
2674,5.006949152542371
2675,5.006949152542371
2676,5.006949152542371
2677,5.006949152542371
2678,5.006949152542371
2679,5.006949152542371
2680,5.006949152542371
2681,5.006949152542371
2682,5.006949152542371
2683,5.006949152542371
2684,124.53
2685,5.006949152542371
2686,5.006949152542371
2687,5.006949152542371
2688,5.006949152542371
2689,5.006949152542371
2690,5.006949152542371
2691,5.006949152542371
2692,5.006949152542371
2693,5.006949152542371
2694,5.006949152542371
2695,5.006949152542371
2696,161.01
2697,5.006949152542371
2698,5.006949152542371
2699,5.006949152542371
2700,5.006949152542371
2701,5.006949152542371
2702,5.006949152542371
2703,5.006949152542371
2704,5.006949152542371
2705,5.006949152542371
2706,5.006949152542371
2707,5.006949152542371
2708,193.68
2709,5.006949152542371
2710,5.006949152542371
2711,5.006949152542371
2712,5.006949152542371
2713,5.006949152542371
2714,5.006949152542371
2715,5.006949152542371
2716,5.006949152542371
2717,5.006949152542371
2718,5.006949152542371
2719,5.006949152542371
2720,219.97
2721,5.006949152542371
2722,5.006949152542371
2723,5.006949152542371
2724,5.006949152542371
2725,5.006949152542371
2726,5.006949152542371
2727,5.006949152542371
2728,5.006949152542371
2729,5.006949152542371
2730,5.006949152542371
2731,5.006949152542371
2732,238.48
2733,5.006949152542371
2734,5.006949152542371
2735,5.006949152542371
2736,5.006949152542371
2737,5.006949152542371
2738,5.006949152542371
2739,5.006949152542371
2740,5.006949152542371
2741,5.006949152542371
2742,5.006949152542371
2743,5.006949152542371
2744,248.94
2745,5.006949152542371
2746,5.006949152542371
2747,5.006949152542371
2748,5.006949152542371
2749,5.006949152542371
2750,5.006949152542371
2751,5.006949152542371
2752,5.006949152542371
2753,5.006949152542371
2754,5.006949152542371
2755,5.006949152542371
2756,251.5
2757,5.006949152542371
2758,5.006949152542371
2759,5.006949152542371
2760,5.006949152542371
2761,5.006949152542371
2762,5.006949152542371
2763,5.006949152542371
2764,5.006949152542371
2765,5.006949152542371
2766,5.006949152542371
2767,5.006949152542371
2768,246.2
2769,5.006949152542371
2770,5.006949152542371
2771,5.006949152542371
2772,5.006949152542371
2773,5.006949152542371
2774,5.006949152542371
2775,5.006949152542371
2776,5.006949152542371
2777,5.006949152542371
2778,5.006949152542371
2779,5.006949152542371
2780,232.89
2781,5.006949152542371
2782,5.006949152542371
2783,5.006949152542371
2784,5.006949152542371
2785,5.006949152542371
2786,5.006949152542371
2787,5.006949152542371
2788,5.006949152542371
2789,5.006949152542371
2790,5.006949152542371
2791,5.006949152542371
2792,211.81
2793,5.006949152542371
2794,5.006949152542371
2795,5.006949152542371
2796,5.006949152542371
2797,5.006949152542371
2798,5.006949152542371
2799,5.006949152542371
2800,5.006949152542371
2801,5.006949152542371
2802,5.006949152542371
2803,5.006949152542371
2804,184.28
2805,5.006949152542371
2806,5.006949152542371
2807,5.006949152542371
2808,5.006949152542371
2809,5.006949152542371
2810,5.006949152542371
2811,5.006949152542371
2812,5.006949152542371
2813,5.006949152542371
2814,5.006949152542371
2815,153.02
2816,5.006949152542371
2817,5.006949152542371
2818,5.006949152542371
2819,5.006949152542371
2820,5.006949152542371
2821,5.006949152542371
2822,5.006949152542371
2823,5.006949152542371
2824,5.006949152542371
2825,5.006949152542371
2826,121.48
2827,5.006949152542371
2828,5.006949152542371
2829,5.006949152542371
2830,5.006949152542371
2831,5.006949152542371
2832,5.006949152542371
2833,5.006949152542371
2834,5.006949152542371
2835,5.006949152542371
2836,5.006949152542371
2837,5.006949152542371
2838,92.64
2839,5.006949152542371
2840,5.006949152542371
2841,5.006949152542371
2842,5.006949152542371
2843,5.006949152542371
2844,5.006949152542371
2845,5.006949152542371
2846,5.006949152542371
2847,5.006949152542371
2848,5.006949152542371
2849,5.006949152542371
2850,67.94
2851,5.006949152542371
2852,5.006949152542371
2853,5.006949152542371
2854,5.006949152542371
2855,5.006949152542371
2856,5.006949152542371
2857,5.006949152542371
2858,5.006949152542371
2859,5.006949152542371
2860,5.006949152542371
2861,5.006949152542371
2862,46.94
2863,5.006949152542371
2864,5.006949152542371
2865,5.006949152542371
2866,5.006949152542371
2867,5.006949152542371
2868,5.006949152542371
2869,5.006949152542371
2870,5.006949152542371
2871,5.006949152542371
2872,5.006949152542371
2873,5.006949152542371
2874,27.96
2875,5.006949152542371
2876,5.006949152542371
2877,5.006949152542371
2878,5.006949152542371
2879,5.006949152542371
2880,5.006949152542371
2881,5.006949152542371
2882,5.006949152542371
2883,5.006949152542371
2884,5.006949152542371
2885,5.006949152542371
2886,9.4
2887,5.006949152542371
2888,5.006949152542371
2889,5.006949152542371
2890,5.006949152542371
2891,5.006949152542371
2892,5.006949152542371
2893,5.006949152542371
2894,5.006949152542371
2895,5.006949152542371
2896,5.006949152542371
2897,5.006949152542371
2898,-9.42
2899,5.006949152542371
2900,5.006949152542371
2901,5.006949152542371
2902,5.006949152542371
2903,5.006949152542371
2904,5.006949152542371
2905,5.006949152542371
2906,5.006949152542371
2907,5.006949152542371
2908,5.006949152542371
2909,5.006949152542371
2910,-27.98
2911,5.006949152542371
2912,5.006949152542371
2913,5.006949152542371
2914,5.006949152542371
2915,5.006949152542371
2916,5.006949152542371
2917,5.006949152542371
2918,5.006949152542371
2919,5.006949152542371
2920,5.006949152542371
2921,5.006949152542371
2922,-45.23
2923,5.006949152542371
2924,5.006949152542371
2925,5.006949152542371
2926,5.006949152542371
2927,5.006949152542371
2928,5.006949152542371
2929,5.006949152542371
2930,5.006949152542371
2931,5.006949152542371
2932,5.006949152542371
2933,5.006949152542371
2934,-60.28
2935,5.006949152542371
2936,5.006949152542371
2937,5.006949152542371
2938,5.006949152542371
2939,5.006949152542371
2940,5.006949152542371
2941,5.006949152542371
2942,5.006949152542371
2943,5.006949152542371
2944,5.006949152542371
2945,5.006949152542371
2946,-72.8
2947,5.006949152542371
2948,5.006949152542371
2949,5.006949152542371
2950,5.006949152542371
2951,5.006949152542371
2952,5.006949152542371
2953,5.006949152542371
2954,5.006949152542371
2955,5.006949152542371
2956,5.006949152542371
2957,5.006949152542371
2958,-82.88
2959,5.006949152542371
2960,5.006949152542371
2961,5.006949152542371
2962,5.006949152542371
2963,5.006949152542371
2964,5.006949152542371
2965,5.006949152542371
2966,5.006949152542371
2967,5.006949152542371
2968,5.006949152542371
2969,5.006949152542371
2970,-90.64
2971,5.006949152542371
2972,5.006949152542371
2973,5.006949152542371
2974,5.006949152542371
2975,5.006949152542371
2976,5.006949152542371
2977,5.006949152542371
2978,5.006949152542371
2979,5.006949152542371
2980,5.006949152542371
2981,5.006949152542371
2982,-95.98
2983,5.006949152542371
2984,5.006949152542371
2985,5.006949152542371
2986,5.006949152542371
2987,5.006949152542371
2988,5.006949152542371
2989,5.006949152542371
2990,5.006949152542371
2991,5.006949152542371
2992,5.006949152542371
2993,5.006949152542371
2994,-98.78
2995,5.006949152542371
2996,5.006949152542371
2997,5.006949152542371
2998,5.006949152542371
2999,5.006949152542371
3000,5.006949152542371
3001,5.006949152542371
3002,5.006949152542371
3003,5.006949152542371
3004,5.006949152542371
3005,-99.16
3006,5.006949152542371
3007,5.006949152542371
3008,5.006949152542371
3009,5.006949152542371
3010,5.006949152542371
3011,5.006949152542371
3012,5.006949152542371
3013,5.006949152542371
3014,5.006949152542371
3015,5.006949152542371
3016,-97.66
3017,5.006949152542371
3018,5.006949152542371
3019,5.006949152542371
3020,5.006949152542371
3021,5.006949152542371
3022,5.006949152542371
3023,5.006949152542371
3024,5.006949152542371
3025,5.006949152542371
3026,5.006949152542371
3027,5.006949152542371
3028,-95.1
3029,5.006949152542371
3030,5.006949152542371
3031,5.006949152542371
3032,5.006949152542371
3033,5.006949152542371
3034,5.006949152542371
3035,5.006949152542371
3036,5.006949152542371
3037,5.006949152542371
3038,5.006949152542371
3039,5.006949152542371
3040,-92.17
3041,5.006949152542371
3042,5.006949152542371
3043,5.006949152542371
3044,5.006949152542371
3045,5.006949152542371
3046,5.006949152542371
3047,5.006949152542371
3048,5.006949152542371
3049,5.006949152542371
3050,5.006949152542371
3051,5.006949152542371
3052,-89.19
3053,5.006949152542371
3054,5.006949152542371
3055,5.006949152542371
3056,5.006949152542371
3057,5.006949152542371
3058,5.006949152542371
3059,5.006949152542371
3060,5.006949152542371
3061,5.006949152542371
3062,5.006949152542371
3063,5.006949152542371
3064,-86.01
3065,5.006949152542371
3066,5.006949152542371
3067,5.006949152542371
3068,5.006949152542371
3069,5.006949152542371
3070,5.006949152542371
3071,5.006949152542371
3072,5.006949152542371
3073,5.006949152542371
3074,5.006949152542371
3075,5.006949152542371
3076,-82.38
3077,5.006949152542371
3078,5.006949152542371
3079,5.006949152542371
3080,5.006949152542371
3081,5.006949152542371
3082,5.006949152542371
3083,5.006949152542371
3084,5.006949152542371
3085,5.006949152542371
3086,5.006949152542371
3087,5.006949152542371
3088,-78.19
3089,5.006949152542371
3090,5.006949152542371
3091,5.006949152542371
3092,5.006949152542371
3093,5.006949152542371
3094,5.006949152542371
3095,5.006949152542371
3096,5.006949152542371
3097,5.006949152542371
3098,5.006949152542371
3099,5.006949152542371
3100,-73.67
3101,5.006949152542371
3102,5.006949152542371
3103,5.006949152542371
3104,5.006949152542371
3105,5.006949152542371
3106,5.006949152542371
3107,5.006949152542371
3108,5.006949152542371
3109,5.006949152542371
3110,5.006949152542371
3111,5.006949152542371
3112,-69.25
3113,5.006949152542371
3114,5.006949152542371
3115,5.006949152542371
3116,5.006949152542371
3117,5.006949152542371
3118,5.006949152542371
3119,5.006949152542371
3120,5.006949152542371
3121,5.006949152542371
3122,5.006949152542371
3123,5.006949152542371
3124,-65.31
3125,5.006949152542371
3126,5.006949152542371
3127,5.006949152542371
3128,5.006949152542371
3129,5.006949152542371
3130,5.006949152542371
3131,5.006949152542371
3132,5.006949152542371
3133,5.006949152542371
3134,5.006949152542371
3135,5.006949152542371
3136,-62.0
3137,5.006949152542371
3138,5.006949152542371
3139,5.006949152542371
3140,5.006949152542371
3141,5.006949152542371
3142,5.006949152542371
3143,5.006949152542371
3144,5.006949152542371
3145,5.006949152542371
3146,5.006949152542371
3147,5.006949152542371
3148,-59.24
3149,5.006949152542371
3150,5.006949152542371
3151,5.006949152542371
3152,5.006949152542371
3153,5.006949152542371
3154,5.006949152542371
3155,5.006949152542371
3156,5.006949152542371
3157,5.006949152542371
3158,5.006949152542371
3159,5.006949152542371
3160,-56.77
3161,5.006949152542371
3162,5.006949152542371
3163,5.006949152542371
3164,5.006949152542371
3165,5.006949152542371
3166,5.006949152542371
3167,5.006949152542371
3168,5.006949152542371
3169,5.006949152542371
3170,5.006949152542371
3171,5.006949152542371
3172,-54.38
3173,5.006949152542371
3174,5.006949152542371
3175,5.006949152542371
3176,5.006949152542371
3177,5.006949152542371
3178,5.006949152542371
3179,5.006949152542371
3180,5.006949152542371
3181,5.006949152542371
3182,5.006949152542371
3183,5.006949152542371
3184,-51.93
3185,5.006949152542371
3186,5.006949152542371
3187,5.006949152542371
3188,5.006949152542371
3189,5.006949152542371
3190,5.006949152542371
3191,5.006949152542371
3192,5.006949152542371
3193,5.006949152542371
3194,5.006949152542371
3195,-49.37
3196,5.006949152542371
3197,5.006949152542371
3198,5.006949152542371
3199,5.006949152542371
3200,5.006949152542371
3201,5.006949152542371
3202,5.006949152542371
3203,5.006949152542371
3204,5.006949152542371
3205,5.006949152542371
3206,-46.63
3207,5.006949152542371
3208,5.006949152542371
3209,5.006949152542371
3210,5.006949152542371
3211,5.006949152542371
3212,5.006949152542371
3213,5.006949152542371
3214,5.006949152542371
3215,5.006949152542371
3216,5.006949152542371
3217,5.006949152542371
3218,-43.68
3219,5.006949152542371
3220,5.006949152542371
3221,5.006949152542371
3222,5.006949152542371
3223,5.006949152542371
3224,5.006949152542371
3225,5.006949152542371
3226,5.006949152542371
3227,5.006949152542371
3228,5.006949152542371
3229,5.006949152542371
3230,-40.53
3231,5.006949152542371
3232,5.006949152542371
3233,5.006949152542371
3234,5.006949152542371
3235,5.006949152542371
3236,5.006949152542371
3237,5.006949152542371
3238,5.006949152542371
3239,5.006949152542371
3240,5.006949152542371
3241,5.006949152542371
3242,-37.29
3243,5.006949152542371
3244,5.006949152542371
3245,5.006949152542371
3246,5.006949152542371
3247,5.006949152542371
3248,5.006949152542371
3249,5.006949152542371
3250,5.006949152542371
3251,5.006949152542371
3252,5.006949152542371
3253,5.006949152542371
3254,-34.23
3255,5.006949152542371
3256,5.006949152542371
3257,5.006949152542371
3258,5.006949152542371
3259,5.006949152542371
3260,5.006949152542371
3261,5.006949152542371
3262,5.006949152542371
3263,5.006949152542371
3264,5.006949152542371
3265,5.006949152542371
3266,-31.81
3267,5.006949152542371
3268,5.006949152542371
3269,5.006949152542371
3270,5.006949152542371
3271,5.006949152542371
3272,5.006949152542371
3273,5.006949152542371
3274,5.006949152542371
3275,5.006949152542371
3276,5.006949152542371
3277,5.006949152542371
3278,-30.56
3279,5.006949152542371
3280,5.006949152542371
3281,5.006949152542371
3282,5.006949152542371
3283,5.006949152542371
3284,5.006949152542371
3285,5.006949152542371
3286,5.006949152542371
3287,5.006949152542371
3288,5.006949152542371
3289,5.006949152542371
3290,-31.05
3291,5.006949152542371
3292,5.006949152542371
3293,5.006949152542371
3294,5.006949152542371
3295,5.006949152542371
3296,5.006949152542371
3297,5.006949152542371
3298,5.006949152542371
3299,5.006949152542371
3300,5.006949152542371
3301,5.006949152542371
3302,-33.59
3303,5.006949152542371
3304,5.006949152542371
3305,5.006949152542371
3306,5.006949152542371
3307,5.006949152542371
3308,5.006949152542371
3309,5.006949152542371
3310,5.006949152542371
3311,5.006949152542371
3312,5.006949152542371
3313,5.006949152542371
3314,-38.01
3315,5.006949152542371
3316,5.006949152542371
3317,5.006949152542371
3318,5.006949152542371
3319,5.006949152542371
3320,5.006949152542371
3321,5.006949152542371
3322,5.006949152542371
3323,5.006949152542371
3324,5.006949152542371
3325,5.006949152542371
3326,-43.51
3327,5.006949152542371
3328,5.006949152542371
3329,5.006949152542371
3330,5.006949152542371
3331,5.006949152542371
3332,5.006949152542371
3333,5.006949152542371
3334,5.006949152542371
3335,5.006949152542371
3336,5.006949152542371
3337,5.006949152542371
3338,-48.65
3339,5.006949152542371
3340,5.006949152542371
3341,5.006949152542371
3342,5.006949152542371
3343,5.006949152542371
3344,5.006949152542371
3345,5.006949152542371
3346,5.006949152542371
3347,5.006949152542371
3348,5.006949152542371
3349,5.006949152542371
3350,-51.71
3351,5.006949152542371
3352,5.006949152542371
3353,5.006949152542371
3354,5.006949152542371
3355,5.006949152542371
3356,5.006949152542371
3357,5.006949152542371
3358,5.006949152542371
3359,5.006949152542371
3360,5.006949152542371
3361,5.006949152542371
3362,-51.2
3363,5.006949152542371
3364,5.006949152542371
3365,5.006949152542371
3366,5.006949152542371
3367,5.006949152542371
3368,5.006949152542371
3369,5.006949152542371
3370,5.006949152542371
3371,5.006949152542371
3372,5.006949152542371
3373,5.006949152542371
3374,-46.47
3375,5.006949152542371
3376,5.006949152542371
3377,5.006949152542371
3378,5.006949152542371
3379,5.006949152542371
3380,5.006949152542371
3381,5.006949152542371
3382,5.006949152542371
3383,5.006949152542371
3384,5.006949152542371
3385,-37.88
3386,5.006949152542371
3387,5.006949152542371
3388,5.006949152542371
3389,5.006949152542371
3390,5.006949152542371
3391,5.006949152542371
3392,5.006949152542371
3393,5.006949152542371
3394,5.006949152542371
3395,5.006949152542371
3396,-26.63
3397,5.006949152542371
3398,5.006949152542371
3399,5.006949152542371
3400,5.006949152542371
3401,5.006949152542371
3402,5.006949152542371
3403,5.006949152542371
3404,5.006949152542371
3405,5.006949152542371
3406,5.006949152542371
3407,5.006949152542371
3408,-14.19
3409,5.006949152542371
3410,5.006949152542371
3411,5.006949152542371
3412,5.006949152542371
3413,5.006949152542371
3414,5.006949152542371
3415,5.006949152542371
3416,5.006949152542371
3417,5.006949152542371
3418,5.006949152542371
3419,5.006949152542371
3420,-1.7
3421,5.006949152542371
3422,5.006949152542371
3423,5.006949152542371
3424,5.006949152542371
3425,5.006949152542371
3426,5.006949152542371
3427,5.006949152542371
3428,5.006949152542371
3429,5.006949152542371
3430,5.006949152542371
3431,5.006949152542371
3432,10.27
3433,5.006949152542371
3434,5.006949152542371
3435,5.006949152542371
3436,5.006949152542371
3437,5.006949152542371
3438,5.006949152542371
3439,5.006949152542371
3440,5.006949152542371
3441,5.006949152542371
3442,5.006949152542371
3443,5.006949152542371
3444,21.57
3445,5.006949152542371
3446,5.006949152542371
3447,5.006949152542371
3448,5.006949152542371
3449,5.006949152542371
3450,5.006949152542371
3451,5.006949152542371
3452,5.006949152542371
3453,5.006949152542371
3454,5.006949152542371
3455,5.006949152542371
3456,32.07
3457,5.006949152542371
3458,5.006949152542371
3459,5.006949152542371
3460,5.006949152542371
3461,5.006949152542371
3462,5.006949152542371
3463,5.006949152542371
3464,5.006949152542371
3465,5.006949152542371
3466,5.006949152542371
3467,5.006949152542371
3468,41.34
3469,5.006949152542371
3470,5.006949152542371
3471,5.006949152542371
3472,5.006949152542371
3473,5.006949152542371
3474,5.006949152542371
3475,5.006949152542371
3476,5.006949152542371
3477,5.006949152542371
3478,5.006949152542371
3479,5.006949152542371
3480,48.69
3481,5.006949152542371
3482,5.006949152542371
3483,5.006949152542371
3484,5.006949152542371
3485,5.006949152542371
3486,5.006949152542371
3487,5.006949152542371
3488,5.006949152542371
3489,5.006949152542371
3490,5.006949152542371
3491,5.006949152542371
3492,53.54
3493,5.006949152542371
3494,5.006949152542371
3495,5.006949152542371
3496,5.006949152542371
3497,5.006949152542371
3498,5.006949152542371
3499,5.006949152542371
3500,5.006949152542371
3501,5.006949152542371
3502,5.006949152542371
3503,5.006949152542371
3504,55.83
3505,5.006949152542371
3506,5.006949152542371
3507,5.006949152542371
3508,5.006949152542371
3509,5.006949152542371
3510,5.006949152542371
3511,5.006949152542371
3512,5.006949152542371
3513,5.006949152542371
3514,5.006949152542371
3515,5.006949152542371
3516,56.08
3517,5.006949152542371
3518,5.006949152542371
3519,5.006949152542371
3520,5.006949152542371
3521,5.006949152542371
3522,5.006949152542371
3523,5.006949152542371
3524,5.006949152542371
3525,5.006949152542371
3526,5.006949152542371
3527,5.006949152542371
3528,55.09
3529,5.006949152542371
3530,5.006949152542371
3531,5.006949152542371
3532,5.006949152542371
3533,5.006949152542371
3534,5.006949152542371
3535,5.006949152542371
3536,5.006949152542371
3537,5.006949152542371
3538,5.006949152542371
3539,5.006949152542371
3540,53.34
3541,5.006949152542371
3542,5.006949152542371
3543,5.006949152542371
3544,5.006949152542371
3545,5.006949152542371
3546,5.006949152542371
3547,5.006949152542371
3548,5.006949152542371
3549,5.006949152542371
3550,5.006949152542371
3551,5.006949152542371
3552,50.77
3553,5.006949152542371
3554,5.006949152542371
3555,5.006949152542371
3556,5.006949152542371
3557,5.006949152542371
3558,5.006949152542371
3559,5.006949152542371
3560,5.006949152542371
3561,5.006949152542371
3562,5.006949152542371
3563,5.006949152542371
3564,47.01
3565,5.006949152542371
3566,5.006949152542371
3567,5.006949152542371
3568,5.006949152542371
3569,5.006949152542371
3570,5.006949152542371
3571,5.006949152542371
3572,5.006949152542371
3573,5.006949152542371
3574,5.006949152542371
3575,41.91
3576,5.006949152542371
3577,5.006949152542371
3578,5.006949152542371
3579,5.006949152542371
3580,5.006949152542371
3581,5.006949152542371
3582,5.006949152542371
3583,5.006949152542371
3584,5.006949152542371
3585,5.006949152542371
3586,36.06
3587,5.006949152542371
3588,5.006949152542371
3589,5.006949152542371
3590,5.006949152542371
3591,5.006949152542371
3592,5.006949152542371
3593,5.006949152542371
3594,5.006949152542371
3595,5.006949152542371
3596,5.006949152542371
3597,5.006949152542371
3598,30.63
3599,5.006949152542371
3600,5.006949152542371
3601,5.006949152542371
3602,5.006949152542371
3603,5.006949152542371
3604,5.006949152542371
3605,5.006949152542371
3606,5.006949152542371
3607,5.006949152542371
3608,5.006949152542371
3609,5.006949152542371
3610,26.79
3611,5.006949152542371
3612,5.006949152542371
3613,5.006949152542371
3614,5.006949152542371
3615,5.006949152542371
3616,5.006949152542371
3617,5.006949152542371
3618,5.006949152542371
3619,5.006949152542371
3620,5.006949152542371
3621,5.006949152542371
3622,25.06
3623,5.006949152542371
3624,5.006949152542371
3625,5.006949152542371
3626,5.006949152542371
3627,5.006949152542371
3628,5.006949152542371
3629,5.006949152542371
3630,5.006949152542371
3631,5.006949152542371
3632,5.006949152542371
3633,5.006949152542371
3634,25.07
3635,5.006949152542371
3636,5.006949152542371
3637,5.006949152542371
3638,5.006949152542371
3639,5.006949152542371
3640,5.006949152542371
3641,5.006949152542371
3642,5.006949152542371
3643,5.006949152542371
3644,5.006949152542371
3645,5.006949152542371
3646,25.96
3647,5.006949152542371
3648,5.006949152542371
3649,5.006949152542371
3650,5.006949152542371
3651,5.006949152542371
3652,5.006949152542371
3653,5.006949152542371
3654,5.006949152542371
3655,5.006949152542371
3656,5.006949152542371
3657,5.006949152542371
3658,27.12
3659,5.006949152542371
3660,5.006949152542371
3661,5.006949152542371
3662,5.006949152542371
3663,5.006949152542371
3664,5.006949152542371
3665,5.006949152542371
3666,5.006949152542371
3667,5.006949152542371
3668,5.006949152542371
3669,5.006949152542371
3670,28.51
3671,5.006949152542371
3672,5.006949152542371
3673,5.006949152542371
3674,5.006949152542371
3675,5.006949152542371
3676,5.006949152542371
3677,5.006949152542371
3678,5.006949152542371
3679,5.006949152542371
3680,5.006949152542371
3681,5.006949152542371
3682,30.56
3683,5.006949152542371
3684,5.006949152542371
3685,5.006949152542371
3686,5.006949152542371
3687,5.006949152542371
3688,5.006949152542371
3689,5.006949152542371
3690,5.006949152542371
3691,5.006949152542371
3692,5.006949152542371
3693,5.006949152542371
3694,33.39
3695,5.006949152542371
3696,5.006949152542371
3697,5.006949152542371
3698,5.006949152542371
3699,5.006949152542371
3700,5.006949152542371
3701,5.006949152542371
3702,5.006949152542371
3703,5.006949152542371
3704,5.006949152542371
3705,5.006949152542371
3706,36.13
3707,5.006949152542371
3708,5.006949152542371
3709,5.006949152542371
3710,5.006949152542371
3711,5.006949152542371
3712,5.006949152542371
3713,5.006949152542371
3714,5.006949152542371
3715,5.006949152542371
3716,5.006949152542371
3717,5.006949152542371
3718,36.89
3719,5.006949152542371
3720,5.006949152542371
3721,5.006949152542371
3722,5.006949152542371
3723,5.006949152542371
3724,5.006949152542371
3725,5.006949152542371
3726,5.006949152542371
3727,5.006949152542371
3728,5.006949152542371
3729,5.006949152542371
3730,33.4
3731,5.006949152542371
3732,5.006949152542371
3733,5.006949152542371
3734,5.006949152542371
3735,5.006949152542371
3736,5.006949152542371
3737,5.006949152542371
3738,5.006949152542371
3739,5.006949152542371
3740,5.006949152542371
3741,5.006949152542371
3742,24.03
3743,5.006949152542371
3744,5.006949152542371
3745,5.006949152542371
3746,5.006949152542371
3747,5.006949152542371
3748,5.006949152542371
3749,5.006949152542371
3750,5.006949152542371
3751,5.006949152542371
3752,5.006949152542371
3753,5.006949152542371
3754,8.55
3755,5.006949152542371
3756,5.006949152542371
3757,5.006949152542371
3758,5.006949152542371
3759,5.006949152542371
3760,5.006949152542371
3761,5.006949152542371
3762,5.006949152542371
3763,5.006949152542371
3764,5.006949152542371
3765,-11.71
3766,5.006949152542371
3767,5.006949152542371
3768,5.006949152542371
3769,5.006949152542371
3770,5.006949152542371
3771,5.006949152542371
3772,5.006949152542371
3773,5.006949152542371
3774,5.006949152542371
3775,5.006949152542371
3776,-34.36
3777,5.006949152542371
3778,5.006949152542371
3779,5.006949152542371
3780,5.006949152542371
3781,5.006949152542371
3782,5.006949152542371
3783,5.006949152542371
3784,5.006949152542371
3785,5.006949152542371
3786,5.006949152542371
3787,5.006949152542371
3788,-56.66
3789,5.006949152542371
3790,5.006949152542371
3791,5.006949152542371
3792,5.006949152542371
3793,5.006949152542371
3794,5.006949152542371
3795,5.006949152542371
3796,5.006949152542371
3797,5.006949152542371
3798,5.006949152542371
3799,5.006949152542371
3800,-76.23
3801,5.006949152542371
3802,5.006949152542371
3803,5.006949152542371
3804,5.006949152542371
3805,5.006949152542371
3806,5.006949152542371
3807,5.006949152542371
3808,5.006949152542371
3809,5.006949152542371
3810,5.006949152542371
3811,5.006949152542371
3812,-91.62
3813,5.006949152542371
3814,5.006949152542371
3815,5.006949152542371
3816,5.006949152542371
3817,5.006949152542371
3818,5.006949152542371
3819,5.006949152542371
3820,5.006949152542371
3821,5.006949152542371
3822,5.006949152542371
3823,5.006949152542371
3824,-102.53
3825,5.006949152542371
3826,5.006949152542371
3827,5.006949152542371
3828,5.006949152542371
3829,5.006949152542371
3830,5.006949152542371
3831,5.006949152542371
3832,5.006949152542371
3833,5.006949152542371
3834,5.006949152542371
3835,5.006949152542371
3836,-109.62
3837,5.006949152542371
3838,5.006949152542371
3839,5.006949152542371
3840,5.006949152542371
3841,5.006949152542371
3842,5.006949152542371
3843,5.006949152542371
3844,5.006949152542371
3845,5.006949152542371
3846,5.006949152542371
3847,5.006949152542371
3848,-113.98
3849,5.006949152542371
3850,5.006949152542371
3851,5.006949152542371
3852,5.006949152542371
3853,5.006949152542371
3854,5.006949152542371
3855,5.006949152542371
3856,5.006949152542371
3857,5.006949152542371
3858,5.006949152542371
3859,5.006949152542371
3860,-116.48
3861,5.006949152542371
3862,5.006949152542371
3863,5.006949152542371
3864,5.006949152542371
3865,5.006949152542371
3866,5.006949152542371
3867,5.006949152542371
3868,5.006949152542371
3869,5.006949152542371
3870,5.006949152542371
3871,5.006949152542371
3872,-117.23
3873,5.006949152542371
3874,5.006949152542371
3875,5.006949152542371
3876,5.006949152542371
3877,5.006949152542371
3878,5.006949152542371
3879,5.006949152542371
3880,5.006949152542371
3881,5.006949152542371
3882,5.006949152542371
3883,5.006949152542371
3884,-115.68
3885,5.006949152542371
3886,5.006949152542371
3887,5.006949152542371
3888,5.006949152542371
3889,5.006949152542371
3890,5.006949152542371
3891,5.006949152542371
3892,5.006949152542371
3893,5.006949152542371
3894,5.006949152542371
3895,5.006949152542371
3896,-111.09
3897,5.006949152542371
3898,5.006949152542371
3899,5.006949152542371
3900,5.006949152542371
3901,5.006949152542371
3902,5.006949152542371
3903,5.006949152542371
3904,5.006949152542371
3905,5.006949152542371
3906,5.006949152542371
3907,5.006949152542371
3908,-103.21
3909,5.006949152542371
3910,5.006949152542371
3911,5.006949152542371
3912,5.006949152542371
3913,5.006949152542371
3914,5.006949152542371
3915,5.006949152542371
3916,5.006949152542371
3917,5.006949152542371
3918,5.006949152542371
3919,5.006949152542371
3920,-92.55
3921,5.006949152542371
3922,5.006949152542371
3923,5.006949152542371
3924,5.006949152542371
3925,5.006949152542371
3926,5.006949152542371
3927,5.006949152542371
3928,5.006949152542371
3929,5.006949152542371
3930,5.006949152542371
3931,5.006949152542371
3932,-80.3
3933,5.006949152542371
3934,5.006949152542371
3935,5.006949152542371
3936,5.006949152542371
3937,5.006949152542371
3938,5.006949152542371
3939,5.006949152542371
3940,5.006949152542371
3941,5.006949152542371
3942,5.006949152542371
3943,5.006949152542371
3944,-67.73
3945,5.006949152542371
3946,5.006949152542371
3947,5.006949152542371
3948,5.006949152542371
3949,5.006949152542371
3950,5.006949152542371
3951,5.006949152542371
3952,5.006949152542371
3953,5.006949152542371
3954,5.006949152542371
3955,-55.79
3956,5.006949152542371
3957,5.006949152542371
3958,5.006949152542371
3959,5.006949152542371
3960,5.006949152542371
3961,5.006949152542371
3962,5.006949152542371
3963,5.006949152542371
3964,5.006949152542371
3965,5.006949152542371
3966,-44.9
3967,5.006949152542371
3968,5.006949152542371
3969,5.006949152542371
3970,5.006949152542371
3971,5.006949152542371
3972,5.006949152542371
3973,5.006949152542371
3974,5.006949152542371
3975,5.006949152542371
3976,5.006949152542371
3977,5.006949152542371
3978,-35.21
3979,5.006949152542371
3980,5.006949152542371
3981,5.006949152542371
3982,5.006949152542371
3983,5.006949152542371
3984,5.006949152542371
3985,5.006949152542371
3986,5.006949152542371
3987,5.006949152542371
3988,5.006949152542371
3989,5.006949152542371
3990,-26.8
3991,5.006949152542371
3992,5.006949152542371
3993,5.006949152542371
3994,5.006949152542371
3995,5.006949152542371
3996,5.006949152542371
3997,5.006949152542371
3998,5.006949152542371
3999,5.006949152542371
4000,5.006949152542371
4001,5.006949152542371
4002,-19.77
4003,5.006949152542371
4004,5.006949152542371
4005,5.006949152542371
4006,5.006949152542371
4007,5.006949152542371
4008,5.006949152542371
4009,5.006949152542371
4010,5.006949152542371
4011,5.006949152542371
4012,5.006949152542371
4013,5.006949152542371
4014,-14.01
4015,5.006949152542371
4016,5.006949152542371
4017,5.006949152542371
4018,5.006949152542371
4019,5.006949152542371
4020,5.006949152542371
4021,5.006949152542371
4022,5.006949152542371
4023,5.006949152542371
4024,5.006949152542371
4025,5.006949152542371
4026,-9.04
4027,5.006949152542371
4028,5.006949152542371
4029,5.006949152542371
4030,5.006949152542371
4031,5.006949152542371
4032,5.006949152542371
4033,5.006949152542371
4034,5.006949152542371
4035,5.006949152542371
4036,5.006949152542371
4037,5.006949152542371
4038,-4.14
4039,5.006949152542371
4040,5.006949152542371
4041,5.006949152542371
4042,5.006949152542371
4043,5.006949152542371
4044,5.006949152542371
4045,5.006949152542371
4046,5.006949152542371
4047,5.006949152542371
4048,5.006949152542371
4049,5.006949152542371
4050,1.12
4051,5.006949152542371
4052,5.006949152542371
4053,5.006949152542371
4054,5.006949152542371
4055,5.006949152542371
4056,5.006949152542371
4057,5.006949152542371
4058,5.006949152542371
4059,5.006949152542371
4060,5.006949152542371
4061,5.006949152542371
4062,6.55
4063,5.006949152542371
4064,5.006949152542371
4065,5.006949152542371
4066,5.006949152542371
4067,5.006949152542371
4068,5.006949152542371
4069,5.006949152542371
4070,5.006949152542371
4071,5.006949152542371
4072,5.006949152542371
4073,5.006949152542371
4074,11.43
4075,5.006949152542371
4076,5.006949152542371
4077,5.006949152542371
4078,5.006949152542371
4079,5.006949152542371
4080,5.006949152542371
4081,5.006949152542371
4082,5.006949152542371
4083,5.006949152542371
4084,5.006949152542371
4085,5.006949152542371
4086,15.1
4087,5.006949152542371
4088,5.006949152542371
4089,5.006949152542371
4090,5.006949152542371
4091,5.006949152542371
4092,5.006949152542371
4093,5.006949152542371
4094,5.006949152542371
4095,5.006949152542371
4096,5.006949152542371
4097,5.006949152542371
4098,17.4
4099,5.006949152542371
4100,5.006949152542371
4101,5.006949152542371
4102,5.006949152542371
4103,5.006949152542371
4104,5.006949152542371
4105,5.006949152542371
4106,5.006949152542371
4107,5.006949152542371
4108,5.006949152542371
4109,5.006949152542371
4110,18.87
4111,5.006949152542371
4112,5.006949152542371
4113,5.006949152542371
4114,5.006949152542371
4115,5.006949152542371
4116,5.006949152542371
4117,5.006949152542371
4118,5.006949152542371
4119,5.006949152542371
4120,5.006949152542371
4121,5.006949152542371
4122,20.33
4123,5.006949152542371
4124,5.006949152542371
4125,5.006949152542371
4126,5.006949152542371
4127,5.006949152542371
4128,5.006949152542371
4129,5.006949152542371
4130,5.006949152542371
4131,5.006949152542371
4132,5.006949152542371
4133,5.006949152542371
4134,22.32
4135,5.006949152542371
4136,5.006949152542371
4137,5.006949152542371
4138,5.006949152542371
4139,5.006949152542371
4140,5.006949152542371
4141,5.006949152542371
4142,5.006949152542371
4143,5.006949152542371
4144,5.006949152542371
4145,24.83
4146,5.006949152542371
4147,5.006949152542371
4148,5.006949152542371
4149,5.006949152542371
4150,5.006949152542371
4151,5.006949152542371
4152,5.006949152542371
4153,5.006949152542371
4154,5.006949152542371
4155,5.006949152542371
4156,27.37
4157,5.006949152542371
4158,5.006949152542371
4159,5.006949152542371
4160,5.006949152542371
4161,5.006949152542371
4162,5.006949152542371
4163,5.006949152542371
4164,5.006949152542371
4165,5.006949152542371
4166,5.006949152542371
4167,5.006949152542371
4168,29.27
4169,5.006949152542371
4170,5.006949152542371
4171,5.006949152542371
4172,5.006949152542371
4173,5.006949152542371
4174,5.006949152542371
4175,5.006949152542371
4176,5.006949152542371
4177,5.006949152542371
4178,5.006949152542371
4179,5.006949152542371
4180,29.77
4181,5.006949152542371
4182,5.006949152542371
4183,5.006949152542371
4184,5.006949152542371
4185,5.006949152542371
4186,5.006949152542371
4187,5.006949152542371
4188,5.006949152542371
4189,5.006949152542371
4190,5.006949152542371
4191,5.006949152542371
4192,27.97
4193,5.006949152542371
4194,5.006949152542371
4195,5.006949152542371
4196,5.006949152542371
4197,5.006949152542371
4198,5.006949152542371
4199,5.006949152542371
