second,BVP
4200,-19.021864406779663
4201,-19.021864406779663
4202,-19.021864406779663
4203,-19.021864406779663
4204,-19.021864406779663
4205,-205.53
4206,-19.021864406779663
4207,-19.021864406779663
4208,-19.021864406779663
4209,-19.021864406779663
4210,-19.021864406779663
4211,-19.021864406779663
4212,-19.021864406779663
4213,-19.021864406779663
4214,-19.021864406779663
4215,-19.021864406779663
4216,-19.021864406779663
4217,-198.71
4218,-19.021864406779663
4219,-19.021864406779663
4220,-19.021864406779663
4221,-19.021864406779663
4222,-19.021864406779663
4223,-19.021864406779663
4224,-19.021864406779663
4225,-19.021864406779663
4226,-19.021864406779663
4227,-19.021864406779663
4228,-19.021864406779663
4229,-190.38
4230,-19.021864406779663
4231,-19.021864406779663
4232,-19.021864406779663
4233,-19.021864406779663
4234,-19.021864406779663
4235,-19.021864406779663
4236,-19.021864406779663
4237,-19.021864406779663
4238,-19.021864406779663
4239,-19.021864406779663
4240,-19.021864406779663
4241,-180.81
4242,-19.021864406779663
4243,-19.021864406779663
4244,-19.021864406779663
4245,-19.021864406779663
4246,-19.021864406779663
4247,-19.021864406779663
4248,-19.021864406779663
4249,-19.021864406779663
4250,-19.021864406779663
4251,-19.021864406779663
4252,-19.021864406779663
4253,-169.59
4254,-19.021864406779663
4255,-19.021864406779663
4256,-19.021864406779663
4257,-19.021864406779663
4258,-19.021864406779663
4259,-19.021864406779663
4260,-19.021864406779663
4261,-19.021864406779663
4262,-19.021864406779663
4263,-19.021864406779663
4264,-19.021864406779663
4265,-157.0
4266,-19.021864406779663
4267,-19.021864406779663
4268,-19.021864406779663
4269,-19.021864406779663
4270,-19.021864406779663
4271,-19.021864406779663
4272,-19.021864406779663
4273,-19.021864406779663
4274,-19.021864406779663
4275,-19.021864406779663
4276,-19.021864406779663
4277,-144.11
4278,-19.021864406779663
4279,-19.021864406779663
4280,-19.021864406779663
4281,-19.021864406779663
4282,-19.021864406779663
4283,-19.021864406779663
4284,-19.021864406779663
4285,-19.021864406779663
4286,-19.021864406779663
4287,-19.021864406779663
4288,-19.021864406779663
4289,-131.95
4290,-19.021864406779663
4291,-19.021864406779663
4292,-19.021864406779663
4293,-19.021864406779663
4294,-19.021864406779663
4295,-19.021864406779663
4296,-19.021864406779663
4297,-19.021864406779663
4298,-19.021864406779663
4299,-19.021864406779663
4300,-19.021864406779663
4301,-120.81
4302,-19.021864406779663
4303,-19.021864406779663
4304,-19.021864406779663
4305,-19.021864406779663
4306,-19.021864406779663
4307,-19.021864406779663
4308,-19.021864406779663
4309,-19.021864406779663
4310,-19.021864406779663
4311,-19.021864406779663
4312,-19.021864406779663
4313,-110.21
4314,-19.021864406779663
4315,-19.021864406779663
4316,-19.021864406779663
4317,-19.021864406779663
4318,-19.021864406779663
4319,-19.021864406779663
4320,-19.021864406779663
4321,-19.021864406779663
4322,-19.021864406779663
4323,-19.021864406779663
4324,-19.021864406779663
4325,-99.3
4326,-19.021864406779663
4327,-19.021864406779663
4328,-19.021864406779663
4329,-19.021864406779663
4330,-19.021864406779663
4331,-19.021864406779663
4332,-19.021864406779663
4333,-19.021864406779663
4334,-19.021864406779663
4335,-19.021864406779663
4336,-87.7
4337,-19.021864406779663
4338,-19.021864406779663
4339,-19.021864406779663
4340,-19.021864406779663
4341,-19.021864406779663
4342,-19.021864406779663
4343,-19.021864406779663
4344,-19.021864406779663
4345,-19.021864406779663
4346,-19.021864406779663
4347,-75.76
4348,-19.021864406779663
4349,-19.021864406779663
4350,-19.021864406779663
4351,-19.021864406779663
4352,-19.021864406779663
4353,-19.021864406779663
4354,-19.021864406779663
4355,-19.021864406779663
4356,-19.021864406779663
4357,-19.021864406779663
4358,-19.021864406779663
4359,-64.15
4360,-19.021864406779663
4361,-19.021864406779663
4362,-19.021864406779663
4363,-19.021864406779663
4364,-19.021864406779663
4365,-19.021864406779663
4366,-19.021864406779663
4367,-19.021864406779663
4368,-19.021864406779663
4369,-19.021864406779663
4370,-19.021864406779663
4371,-53.27
4372,-19.021864406779663
4373,-19.021864406779663
4374,-19.021864406779663
4375,-19.021864406779663
4376,-19.021864406779663
4377,-19.021864406779663
4378,-19.021864406779663
4379,-19.021864406779663
4380,-19.021864406779663
4381,-19.021864406779663
4382,-19.021864406779663
4383,-42.74
4384,-19.021864406779663
4385,-19.021864406779663
4386,-19.021864406779663
4387,-19.021864406779663
4388,-19.021864406779663
4389,-19.021864406779663
4390,-19.021864406779663
4391,-19.021864406779663
4392,-19.021864406779663
4393,-19.021864406779663
4394,-19.021864406779663
4395,-31.66
4396,-19.021864406779663
4397,-19.021864406779663
4398,-19.021864406779663
4399,-19.021864406779663
4400,-19.021864406779663
4401,-19.021864406779663
4402,-19.021864406779663
4403,-19.021864406779663
4404,-19.021864406779663
4405,-19.021864406779663
4406,-19.021864406779663
4407,-19.19
4408,-19.021864406779663
4409,-19.021864406779663
4410,-19.021864406779663
4411,-19.021864406779663
4412,-19.021864406779663
4413,-19.021864406779663
4414,-19.021864406779663
4415,-19.021864406779663
4416,-19.021864406779663
4417,-19.021864406779663
4418,-19.021864406779663
4419,-5.2
4420,-19.021864406779663
4421,-19.021864406779663
4422,-19.021864406779663
4423,-19.021864406779663
4424,-19.021864406779663
4425,-19.021864406779663
4426,-19.021864406779663
4427,-19.021864406779663
4428,-19.021864406779663
4429,-19.021864406779663
4430,-19.021864406779663
4431,9.59
4432,-19.021864406779663
4433,-19.021864406779663
4434,-19.021864406779663
4435,-19.021864406779663
4436,-19.021864406779663
4437,-19.021864406779663
4438,-19.021864406779663
4439,-19.021864406779663
4440,-19.021864406779663
4441,-19.021864406779663
4442,-19.021864406779663
4443,23.93
4444,-19.021864406779663
4445,-19.021864406779663
4446,-19.021864406779663
4447,-19.021864406779663
4448,-19.021864406779663
4449,-19.021864406779663
4450,-19.021864406779663
4451,-19.021864406779663
4452,-19.021864406779663
4453,-19.021864406779663
4454,-19.021864406779663
4455,36.64
4456,-19.021864406779663
4457,-19.021864406779663
4458,-19.021864406779663
4459,-19.021864406779663
4460,-19.021864406779663
4461,-19.021864406779663
4462,-19.021864406779663
4463,-19.021864406779663
4464,-19.021864406779663
4465,-19.021864406779663
4466,-19.021864406779663
4467,46.96
4468,-19.021864406779663
4469,-19.021864406779663
4470,-19.021864406779663
4471,-19.021864406779663
4472,-19.021864406779663
4473,-19.021864406779663
4474,-19.021864406779663
4475,-19.021864406779663
4476,-19.021864406779663
4477,-19.021864406779663
4478,-19.021864406779663
4479,54.49
4480,-19.021864406779663
4481,-19.021864406779663
4482,-19.021864406779663
4483,-19.021864406779663
4484,-19.021864406779663
4485,-19.021864406779663
4486,-19.021864406779663
4487,-19.021864406779663
4488,-19.021864406779663
4489,-19.021864406779663
4490,-19.021864406779663
4491,58.86
4492,-19.021864406779663
4493,-19.021864406779663
4494,-19.021864406779663
4495,-19.021864406779663
4496,-19.021864406779663
4497,-19.021864406779663
4498,-19.021864406779663
4499,-19.021864406779663
4500,-19.021864406779663
4501,-19.021864406779663
4502,-19.021864406779663
4503,59.48
4504,-19.021864406779663
4505,-19.021864406779663
4506,-19.021864406779663
4507,-19.021864406779663
4508,-19.021864406779663
4509,-19.021864406779663
4510,-19.021864406779663
4511,-19.021864406779663
4512,-19.021864406779663
4513,-19.021864406779663
4514,-19.021864406779663
4515,55.71
4516,-19.021864406779663
4517,-19.021864406779663
4518,-19.021864406779663
4519,-19.021864406779663
4520,-19.021864406779663
4521,-19.021864406779663
4522,-19.021864406779663
4523,-19.021864406779663
4524,-19.021864406779663
4525,-19.021864406779663
4526,47.31
4527,-19.021864406779663
4528,-19.021864406779663
4529,-19.021864406779663
4530,-19.021864406779663
4531,-19.021864406779663
4532,-19.021864406779663
4533,-19.021864406779663
4534,-19.021864406779663
4535,-19.021864406779663
4536,-19.021864406779663
4537,34.98
4538,-19.021864406779663
4539,-19.021864406779663
4540,-19.021864406779663
4541,-19.021864406779663
4542,-19.021864406779663
4543,-19.021864406779663
4544,-19.021864406779663
4545,-19.021864406779663
4546,-19.021864406779663
4547,-19.021864406779663
4548,-19.021864406779663
4549,20.48
4550,-19.021864406779663
4551,-19.021864406779663
4552,-19.021864406779663
4553,-19.021864406779663
4554,-19.021864406779663
4555,-19.021864406779663
4556,-19.021864406779663
4557,-19.021864406779663
4558,-19.021864406779663
4559,-19.021864406779663
4560,-19.021864406779663
4561,6.22
4562,-19.021864406779663
4563,-19.021864406779663
4564,-19.021864406779663
4565,-19.021864406779663
4566,-19.021864406779663
4567,-19.021864406779663
4568,-19.021864406779663
4569,-19.021864406779663
4570,-19.021864406779663
4571,-19.021864406779663
4572,-19.021864406779663
4573,-5.71
4574,-19.021864406779663
4575,-19.021864406779663
4576,-19.021864406779663
4577,-19.021864406779663
4578,-19.021864406779663
4579,-19.021864406779663
4580,-19.021864406779663
4581,-19.021864406779663
4582,-19.021864406779663
4583,-19.021864406779663
4584,-19.021864406779663
4585,-14.38
4586,-19.021864406779663
4587,-19.021864406779663
4588,-19.021864406779663
4589,-19.021864406779663
4590,-19.021864406779663
4591,-19.021864406779663
4592,-19.021864406779663
4593,-19.021864406779663
4594,-19.021864406779663
4595,-19.021864406779663
4596,-19.021864406779663
4597,-20.34
4598,-19.021864406779663
4599,-19.021864406779663
4600,-19.021864406779663
4601,-19.021864406779663
4602,-19.021864406779663
4603,-19.021864406779663
4604,-19.021864406779663
4605,-19.021864406779663
4606,-19.021864406779663
4607,-19.021864406779663
4608,-19.021864406779663
4609,-25.24
4610,-19.021864406779663
4611,-19.021864406779663
4612,-19.021864406779663
4613,-19.021864406779663
4614,-19.021864406779663
4615,-19.021864406779663
4616,-19.021864406779663
4617,-19.021864406779663
4618,-19.021864406779663
4619,-19.021864406779663
4620,-19.021864406779663
4621,-30.76
4622,-19.021864406779663
4623,-19.021864406779663
4624,-19.021864406779663
4625,-19.021864406779663
4626,-19.021864406779663
4627,-19.021864406779663
4628,-19.021864406779663
4629,-19.021864406779663
4630,-19.021864406779663
4631,-19.021864406779663
4632,-19.021864406779663
4633,-37.63
4634,-19.021864406779663
4635,-19.021864406779663
4636,-19.021864406779663
4637,-19.021864406779663
4638,-19.021864406779663
4639,-19.021864406779663
4640,-19.021864406779663
4641,-19.021864406779663
4642,-19.021864406779663
4643,-19.021864406779663
4644,-19.021864406779663
4645,-45.1
4646,-19.021864406779663
4647,-19.021864406779663
4648,-19.021864406779663
4649,-19.021864406779663
4650,-19.021864406779663
4651,-19.021864406779663
4652,-19.021864406779663
4653,-19.021864406779663
4654,-19.021864406779663
4655,-19.021864406779663
4656,-19.021864406779663
4657,-51.23
4658,-19.021864406779663
4659,-19.021864406779663
4660,-19.021864406779663
4661,-19.021864406779663
4662,-19.021864406779663
4663,-19.021864406779663
4664,-19.021864406779663
4665,-19.021864406779663
4666,-19.021864406779663
4667,-19.021864406779663
4668,-19.021864406779663
4669,-53.83
4670,-19.021864406779663
4671,-19.021864406779663
4672,-19.021864406779663
4673,-19.021864406779663
4674,-19.021864406779663
4675,-19.021864406779663
4676,-19.021864406779663
4677,-19.021864406779663
4678,-19.021864406779663
4679,-19.021864406779663
4680,-19.021864406779663
4681,-51.57
4682,-19.021864406779663
4683,-19.021864406779663
4684,-19.021864406779663
4685,-19.021864406779663
4686,-19.021864406779663
4687,-19.021864406779663
4688,-19.021864406779663
4689,-19.021864406779663
4690,-19.021864406779663
4691,-19.021864406779663
4692,-19.021864406779663
4693,-44.7
4694,-19.021864406779663
4695,-19.021864406779663
4696,-19.021864406779663
4697,-19.021864406779663
4698,-19.021864406779663
4699,-19.021864406779663
4700,-19.021864406779663
4701,-19.021864406779663
4702,-19.021864406779663
4703,-19.021864406779663
4704,-19.021864406779663
4705,-34.84
4706,-19.021864406779663
4707,-19.021864406779663
4708,-19.021864406779663
4709,-19.021864406779663
4710,-19.021864406779663
4711,-19.021864406779663
4712,-19.021864406779663
4713,-19.021864406779663
4714,-19.021864406779663
4715,-19.021864406779663
4716,-24.31
4717,-19.021864406779663
4718,-19.021864406779663
4719,-19.021864406779663
4720,-19.021864406779663
4721,-19.021864406779663
4722,-19.021864406779663
4723,-19.021864406779663
4724,-19.021864406779663
4725,-19.021864406779663
4726,-19.021864406779663
4727,-15.14
4728,-19.021864406779663
4729,-19.021864406779663
4730,-19.021864406779663
4731,-19.021864406779663
4732,-19.021864406779663
4733,-19.021864406779663
4734,-19.021864406779663
4735,-19.021864406779663
4736,-19.021864406779663
4737,-19.021864406779663
4738,-19.021864406779663
4739,-8.49
4740,-19.021864406779663
4741,-19.021864406779663
4742,-19.021864406779663
4743,-19.021864406779663
4744,-19.021864406779663
4745,-19.021864406779663
4746,-19.021864406779663
4747,-19.021864406779663
4748,-19.021864406779663
4749,-19.021864406779663
4750,-19.021864406779663
4751,-4.45
4752,-19.021864406779663
4753,-19.021864406779663
4754,-19.021864406779663
4755,-19.021864406779663
4756,-19.021864406779663
4757,-19.021864406779663
4758,-19.021864406779663
4759,-19.021864406779663
4760,-19.021864406779663
4761,-19.021864406779663
4762,-19.021864406779663
4763,-2.41
4764,-19.021864406779663
4765,-19.021864406779663
4766,-19.021864406779663
4767,-19.021864406779663
4768,-19.021864406779663
4769,-19.021864406779663
4770,-19.021864406779663
4771,-19.021864406779663
4772,-19.021864406779663
4773,-19.021864406779663
4774,-19.021864406779663
4775,-1.48
4776,-19.021864406779663
4777,-19.021864406779663
4778,-19.021864406779663
4779,-19.021864406779663
4780,-19.021864406779663
4781,-19.021864406779663
4782,-19.021864406779663
4783,-19.021864406779663
4784,-19.021864406779663
4785,-19.021864406779663
4786,-19.021864406779663
4787,-0.96
4788,-19.021864406779663
4789,-19.021864406779663
4790,-19.021864406779663
4791,-19.021864406779663
4792,-19.021864406779663
4793,-19.021864406779663
4794,-19.021864406779663
4795,-19.021864406779663
4796,-19.021864406779663
4797,-19.021864406779663
4798,-19.021864406779663
4799,-0.43
4800,-19.021864406779663
4801,-19.021864406779663
4802,-19.021864406779663
4803,-19.021864406779663
4804,-19.021864406779663
4805,-19.021864406779663
4806,-19.021864406779663
4807,-19.021864406779663
4808,-19.021864406779663
4809,-19.021864406779663
4810,-19.021864406779663
4811,0.34
4812,-19.021864406779663
4813,-19.021864406779663
4814,-19.021864406779663
4815,-19.021864406779663
4816,-19.021864406779663
4817,-19.021864406779663
4818,-19.021864406779663
4819,-19.021864406779663
4820,-19.021864406779663
4821,-19.021864406779663
4822,-19.021864406779663
4823,1.49
4824,-19.021864406779663
4825,-19.021864406779663
4826,-19.021864406779663
4827,-19.021864406779663
4828,-19.021864406779663
4829,-19.021864406779663
4830,-19.021864406779663
4831,-19.021864406779663
4832,-19.021864406779663
4833,-19.021864406779663
4834,-19.021864406779663
4835,3.23
4836,-19.021864406779663
4837,-19.021864406779663
4838,-19.021864406779663
4839,-19.021864406779663
4840,-19.021864406779663
4841,-19.021864406779663
4842,-19.021864406779663
4843,-19.021864406779663
4844,-19.021864406779663
4845,-19.021864406779663
4846,-19.021864406779663
4847,5.87
4848,-19.021864406779663
4849,-19.021864406779663
4850,-19.021864406779663
4851,-19.021864406779663
4852,-19.021864406779663
4853,-19.021864406779663
4854,-19.021864406779663
4855,-19.021864406779663
4856,-19.021864406779663
4857,-19.021864406779663
4858,-19.021864406779663
4859,9.79
4860,-19.021864406779663
4861,-19.021864406779663
4862,-19.021864406779663
4863,-19.021864406779663
4864,-19.021864406779663
4865,-19.021864406779663
4866,-19.021864406779663
4867,-19.021864406779663
4868,-19.021864406779663
4869,-19.021864406779663
4870,-19.021864406779663
4871,15.26
4872,-19.021864406779663
4873,-19.021864406779663
4874,-19.021864406779663
4875,-19.021864406779663
4876,-19.021864406779663
4877,-19.021864406779663
4878,-19.021864406779663
4879,-19.021864406779663
4880,-19.021864406779663
4881,-19.021864406779663
4882,-19.021864406779663
4883,22.23
4884,-19.021864406779663
4885,-19.021864406779663
4886,-19.021864406779663
4887,-19.021864406779663
4888,-19.021864406779663
4889,-19.021864406779663
4890,-19.021864406779663
4891,-19.021864406779663
4892,-19.021864406779663
4893,-19.021864406779663
4894,-19.021864406779663
4895,30.21
4896,-19.021864406779663
4897,-19.021864406779663
4898,-19.021864406779663
4899,-19.021864406779663
4900,-19.021864406779663
4901,-19.021864406779663
4902,-19.021864406779663
4903,-19.021864406779663
4904,-19.021864406779663
4905,-19.021864406779663
4906,38.31
4907,-19.021864406779663
4908,-19.021864406779663
4909,-19.021864406779663
4910,-19.021864406779663
4911,-19.021864406779663
4912,-19.021864406779663
4913,-19.021864406779663
4914,-19.021864406779663
4915,-19.021864406779663
4916,-19.021864406779663
4917,45.54
4918,-19.021864406779663
4919,-19.021864406779663
4920,-19.021864406779663
4921,-19.021864406779663
4922,-19.021864406779663
4923,-19.021864406779663
4924,-19.021864406779663
4925,-19.021864406779663
4926,-19.021864406779663
4927,-19.021864406779663
4928,-19.021864406779663
4929,51.07
4930,-19.021864406779663
4931,-19.021864406779663
4932,-19.021864406779663
4933,-19.021864406779663
4934,-19.021864406779663
4935,-19.021864406779663
4936,-19.021864406779663
4937,-19.021864406779663
4938,-19.021864406779663
4939,-19.021864406779663
4940,-19.021864406779663
4941,54.44
4942,-19.021864406779663
4943,-19.021864406779663
4944,-19.021864406779663
4945,-19.021864406779663
4946,-19.021864406779663
4947,-19.021864406779663
4948,-19.021864406779663
4949,-19.021864406779663
4950,-19.021864406779663
4951,-19.021864406779663
4952,-19.021864406779663
4953,55.45
4954,-19.021864406779663
4955,-19.021864406779663
4956,-19.021864406779663
4957,-19.021864406779663
4958,-19.021864406779663
4959,-19.021864406779663
4960,-19.021864406779663
4961,-19.021864406779663
4962,-19.021864406779663
4963,-19.021864406779663
4964,-19.021864406779663
4965,54.12
4966,-19.021864406779663
4967,-19.021864406779663
4968,-19.021864406779663
4969,-19.021864406779663
4970,-19.021864406779663
4971,-19.021864406779663
4972,-19.021864406779663
4973,-19.021864406779663
4974,-19.021864406779663
4975,-19.021864406779663
4976,-19.021864406779663
4977,50.5
4978,-19.021864406779663
4979,-19.021864406779663
4980,-19.021864406779663
4981,-19.021864406779663
4982,-19.021864406779663
4983,-19.021864406779663
4984,-19.021864406779663
4985,-19.021864406779663
4986,-19.021864406779663
4987,-19.021864406779663
4988,-19.021864406779663
4989,44.73
4990,-19.021864406779663
4991,-19.021864406779663
4992,-19.021864406779663
4993,-19.021864406779663
4994,-19.021864406779663
4995,-19.021864406779663
4996,-19.021864406779663
4997,-19.021864406779663
4998,-19.021864406779663
4999,-19.021864406779663
5000,-19.021864406779663
5001,37.06
5002,-19.021864406779663
5003,-19.021864406779663
5004,-19.021864406779663
5005,-19.021864406779663
5006,-19.021864406779663
5007,-19.021864406779663
5008,-19.021864406779663
5009,-19.021864406779663
5010,-19.021864406779663
5011,-19.021864406779663
5012,-19.021864406779663
5013,27.77
5014,-19.021864406779663
5015,-19.021864406779663
5016,-19.021864406779663
5017,-19.021864406779663
5018,-19.021864406779663
5019,-19.021864406779663
5020,-19.021864406779663
5021,-19.021864406779663
5022,-19.021864406779663
5023,-19.021864406779663
5024,-19.021864406779663
5025,17.02
5026,-19.021864406779663
5027,-19.021864406779663
5028,-19.021864406779663
5029,-19.021864406779663
5030,-19.021864406779663
5031,-19.021864406779663
5032,-19.021864406779663
5033,-19.021864406779663
5034,-19.021864406779663
5035,-19.021864406779663
5036,-19.021864406779663
5037,4.74
5038,-19.021864406779663
5039,-19.021864406779663
5040,-19.021864406779663
5041,-19.021864406779663
5042,-19.021864406779663
5043,-19.021864406779663
5044,-19.021864406779663
5045,-19.021864406779663
5046,-19.021864406779663
5047,-19.021864406779663
5048,-19.021864406779663
5049,-9.34
5050,-19.021864406779663
5051,-19.021864406779663
5052,-19.021864406779663
5053,-19.021864406779663
5054,-19.021864406779663
5055,-19.021864406779663
5056,-19.021864406779663
5057,-19.021864406779663
5058,-19.021864406779663
5059,-19.021864406779663
5060,-19.021864406779663
5061,-25.52
5062,-19.021864406779663
5063,-19.021864406779663
5064,-19.021864406779663
5065,-19.021864406779663
5066,-19.021864406779663
5067,-19.021864406779663
5068,-19.021864406779663
5069,-19.021864406779663
5070,-19.021864406779663
5071,-19.021864406779663
5072,-19.021864406779663
5073,-43.85
5074,-19.021864406779663
5075,-19.021864406779663
5076,-19.021864406779663
5077,-19.021864406779663
5078,-19.021864406779663
5079,-19.021864406779663
5080,-19.021864406779663
5081,-19.021864406779663
5082,-19.021864406779663
5083,-19.021864406779663
5084,-19.021864406779663
5085,-63.87
5086,-19.021864406779663
5087,-19.021864406779663
5088,-19.021864406779663
5089,-19.021864406779663
5090,-19.021864406779663
5091,-19.021864406779663
5092,-19.021864406779663
5093,-19.021864406779663
5094,-19.021864406779663
5095,-19.021864406779663
5096,-84.63
5097,-19.021864406779663
5098,-19.021864406779663
5099,-19.021864406779663
5100,-19.021864406779663
5101,-19.021864406779663
5102,-19.021864406779663
5103,-19.021864406779663
5104,-19.021864406779663
5105,-19.021864406779663
5106,-19.021864406779663
5107,-104.7
5108,-19.021864406779663
5109,-19.021864406779663
5110,-19.021864406779663
5111,-19.021864406779663
5112,-19.021864406779663
5113,-19.021864406779663
5114,-19.021864406779663
5115,-19.021864406779663
5116,-19.021864406779663
5117,-19.021864406779663
5118,-19.021864406779663
5119,-122.38
5120,-19.021864406779663
5121,-19.021864406779663
5122,-19.021864406779663
5123,-19.021864406779663
5124,-19.021864406779663
5125,-19.021864406779663
5126,-19.021864406779663
5127,-19.021864406779663
5128,-19.021864406779663
5129,-19.021864406779663
5130,-19.021864406779663
5131,-135.94
5132,-19.021864406779663
5133,-19.021864406779663
5134,-19.021864406779663
5135,-19.021864406779663
5136,-19.021864406779663
5137,-19.021864406779663
5138,-19.021864406779663
5139,-19.021864406779663
5140,-19.021864406779663
5141,-19.021864406779663
5142,-19.021864406779663
5143,-143.85
5144,-19.021864406779663
5145,-19.021864406779663
5146,-19.021864406779663
5147,-19.021864406779663
5148,-19.021864406779663
5149,-19.021864406779663
5150,-19.021864406779663
5151,-19.021864406779663
5152,-19.021864406779663
5153,-19.021864406779663
5154,-19.021864406779663
5155,-145.07
5156,-19.021864406779663
5157,-19.021864406779663
5158,-19.021864406779663
5159,-19.021864406779663
5160,-19.021864406779663
5161,-19.021864406779663
5162,-19.021864406779663
5163,-19.021864406779663
5164,-19.021864406779663
5165,-19.021864406779663
5166,-19.021864406779663
5167,-139.26
5168,-19.021864406779663
5169,-19.021864406779663
5170,-19.021864406779663
5171,-19.021864406779663
5172,-19.021864406779663
5173,-19.021864406779663
5174,-19.021864406779663
5175,-19.021864406779663
5176,-19.021864406779663
5177,-19.021864406779663
5178,-19.021864406779663
5179,-126.93
5180,-19.021864406779663
5181,-19.021864406779663
5182,-19.021864406779663
5183,-19.021864406779663
5184,-19.021864406779663
5185,-19.021864406779663
5186,-19.021864406779663
5187,-19.021864406779663
5188,-19.021864406779663
5189,-19.021864406779663
5190,-19.021864406779663
5191,-109.28
5192,-19.021864406779663
5193,-19.021864406779663
5194,-19.021864406779663
5195,-19.021864406779663
5196,-19.021864406779663
5197,-19.021864406779663
5198,-19.021864406779663
5199,-19.021864406779663
5200,-19.021864406779663
5201,-19.021864406779663
5202,-19.021864406779663
5203,-88.05
5204,-19.021864406779663
5205,-19.021864406779663
5206,-19.021864406779663
5207,-19.021864406779663
5208,-19.021864406779663
5209,-19.021864406779663
5210,-19.021864406779663
5211,-19.021864406779663
5212,-19.021864406779663
5213,-19.021864406779663
5214,-19.021864406779663
5215,-65.22
5216,-19.021864406779663
5217,-19.021864406779663
5218,-19.021864406779663
5219,-19.021864406779663
5220,-19.021864406779663
5221,-19.021864406779663
5222,-19.021864406779663
5223,-19.021864406779663
5224,-19.021864406779663
5225,-19.021864406779663
5226,-19.021864406779663
5227,-42.81
5228,-19.021864406779663
5229,-19.021864406779663
5230,-19.021864406779663
5231,-19.021864406779663
5232,-19.021864406779663
5233,-19.021864406779663
5234,-19.021864406779663
5235,-19.021864406779663
5236,-19.021864406779663
5237,-19.021864406779663
5238,-19.021864406779663
5239,-22.65
5240,-19.021864406779663
5241,-19.021864406779663
5242,-19.021864406779663
5243,-19.021864406779663
5244,-19.021864406779663
5245,-19.021864406779663
5246,-19.021864406779663
5247,-19.021864406779663
5248,-19.021864406779663
5249,-19.021864406779663
5250,-19.021864406779663
5251,-6.13
5252,-19.021864406779663
5253,-19.021864406779663
5254,-19.021864406779663
5255,-19.021864406779663
5256,-19.021864406779663
5257,-19.021864406779663
5258,-19.021864406779663
5259,-19.021864406779663
5260,-19.021864406779663
5261,-19.021864406779663
5262,-19.021864406779663
5263,6.11
5264,-19.021864406779663
5265,-19.021864406779663
5266,-19.021864406779663
5267,-19.021864406779663
5268,-19.021864406779663
5269,-19.021864406779663
5270,-19.021864406779663
5271,-19.021864406779663
5272,-19.021864406779663
5273,-19.021864406779663
5274,-19.021864406779663
5275,14.2
5276,-19.021864406779663
5277,-19.021864406779663
5278,-19.021864406779663
5279,-19.021864406779663
5280,-19.021864406779663
5281,-19.021864406779663
5282,-19.021864406779663
5283,-19.021864406779663
5284,-19.021864406779663
5285,-19.021864406779663
5286,18.91
5287,-19.021864406779663
5288,-19.021864406779663
5289,-19.021864406779663
5290,-19.021864406779663
5291,-19.021864406779663
5292,-19.021864406779663
5293,-19.021864406779663
5294,-19.021864406779663
5295,-19.021864406779663
5296,-19.021864406779663
5297,20.86
5298,-19.021864406779663
5299,-19.021864406779663
5300,-19.021864406779663
5301,-19.021864406779663
5302,-19.021864406779663
5303,-19.021864406779663
5304,-19.021864406779663
5305,-19.021864406779663
5306,-19.021864406779663
5307,-19.021864406779663
5308,-19.021864406779663
5309,19.82
5310,-19.021864406779663
5311,-19.021864406779663
5312,-19.021864406779663
5313,-19.021864406779663
5314,-19.021864406779663
5315,-19.021864406779663
5316,-19.021864406779663
5317,-19.021864406779663
5318,-19.021864406779663
5319,-19.021864406779663
5320,-19.021864406779663
5321,14.41
5322,-19.021864406779663
5323,-19.021864406779663
5324,-19.021864406779663
5325,-19.021864406779663
5326,-19.021864406779663
5327,-19.021864406779663
5328,-19.021864406779663
5329,-19.021864406779663
5330,-19.021864406779663
5331,-19.021864406779663
5332,-19.021864406779663
5333,2.77
5334,-19.021864406779663
5335,-19.021864406779663
5336,-19.021864406779663
5337,-19.021864406779663
5338,-19.021864406779663
5339,-19.021864406779663
5340,-19.021864406779663
5341,-19.021864406779663
5342,-19.021864406779663
5343,-19.021864406779663
5344,-19.021864406779663
5345,-16.28
5346,-19.021864406779663
5347,-19.021864406779663
5348,-19.021864406779663
5349,-19.021864406779663
5350,-19.021864406779663
5351,-19.021864406779663
5352,-19.021864406779663
5353,-19.021864406779663
5354,-19.021864406779663
5355,-19.021864406779663
5356,-19.021864406779663
5357,-42.17
5358,-19.021864406779663
5359,-19.021864406779663
5360,-19.021864406779663
5361,-19.021864406779663
5362,-19.021864406779663
5363,-19.021864406779663
5364,-19.021864406779663
5365,-19.021864406779663
5366,-19.021864406779663
5367,-19.021864406779663
5368,-19.021864406779663
5369,-72.18
5370,-19.021864406779663
5371,-19.021864406779663
5372,-19.021864406779663
5373,-19.021864406779663
5374,-19.021864406779663
5375,-19.021864406779663
5376,-19.021864406779663
5377,-19.021864406779663
5378,-19.021864406779663
5379,-19.021864406779663
5380,-19.021864406779663
5381,-102.15
5382,-19.021864406779663
5383,-19.021864406779663
5384,-19.021864406779663
5385,-19.021864406779663
5386,-19.021864406779663
5387,-19.021864406779663
5388,-19.021864406779663
5389,-19.021864406779663
5390,-19.021864406779663
5391,-19.021864406779663
5392,-19.021864406779663
5393,-127.76
5394,-19.021864406779663
5395,-19.021864406779663
5396,-19.021864406779663
5397,-19.021864406779663
5398,-19.021864406779663
5399,-19.021864406779663
5400,-19.021864406779663
5401,-19.021864406779663
5402,-19.021864406779663
5403,-19.021864406779663
5404,-19.021864406779663
5405,-145.63
5406,-19.021864406779663
5407,-19.021864406779663
5408,-19.021864406779663
5409,-19.021864406779663
5410,-19.021864406779663
5411,-19.021864406779663
5412,-19.021864406779663
5413,-19.021864406779663
5414,-19.021864406779663
5415,-19.021864406779663
5416,-19.021864406779663
5417,-153.93
5418,-19.021864406779663
5419,-19.021864406779663
5420,-19.021864406779663
5421,-19.021864406779663
5422,-19.021864406779663
5423,-19.021864406779663
5424,-19.021864406779663
5425,-19.021864406779663
5426,-19.021864406779663
5427,-19.021864406779663
5428,-19.021864406779663
5429,-152.21
5430,-19.021864406779663
5431,-19.021864406779663
5432,-19.021864406779663
5433,-19.021864406779663
5434,-19.021864406779663
5435,-19.021864406779663
5436,-19.021864406779663
5437,-19.021864406779663
5438,-19.021864406779663
5439,-19.021864406779663
5440,-19.021864406779663
5441,-141.13
5442,-19.021864406779663
5443,-19.021864406779663
5444,-19.021864406779663
5445,-19.021864406779663
5446,-19.021864406779663
5447,-19.021864406779663
5448,-19.021864406779663
5449,-19.021864406779663
5450,-19.021864406779663
5451,-19.021864406779663
5452,-19.021864406779663
5453,-122.13
5454,-19.021864406779663
5455,-19.021864406779663
5456,-19.021864406779663
5457,-19.021864406779663
5458,-19.021864406779663
5459,-19.021864406779663
5460,-19.021864406779663
5461,-19.021864406779663
5462,-19.021864406779663
5463,-19.021864406779663
5464,-19.021864406779663
5465,-97.28
5466,-19.021864406779663
5467,-19.021864406779663
5468,-19.021864406779663
5469,-19.021864406779663
5470,-19.021864406779663
5471,-19.021864406779663
5472,-19.021864406779663
5473,-19.021864406779663
5474,-19.021864406779663
5475,-19.021864406779663
5476,-68.89
5477,-19.021864406779663
5478,-19.021864406779663
5479,-19.021864406779663
5480,-19.021864406779663
5481,-19.021864406779663
5482,-19.021864406779663
5483,-19.021864406779663
5484,-19.021864406779663
5485,-19.021864406779663
5486,-19.021864406779663
5487,-38.79
5488,-19.021864406779663
5489,-19.021864406779663
5490,-19.021864406779663
5491,-19.021864406779663
5492,-19.021864406779663
5493,-19.021864406779663
5494,-19.021864406779663
5495,-19.021864406779663
5496,-19.021864406779663
5497,-19.021864406779663
5498,-19.021864406779663
5499,-7.63
5500,-19.021864406779663
5501,-19.021864406779663
5502,-19.021864406779663
5503,-19.021864406779663
5504,-19.021864406779663
5505,-19.021864406779663
5506,-19.021864406779663
5507,-19.021864406779663
5508,-19.021864406779663
5509,-19.021864406779663
5510,-19.021864406779663
5511,25.38
5512,-19.021864406779663
5513,-19.021864406779663
5514,-19.021864406779663
5515,-19.021864406779663
5516,-19.021864406779663
5517,-19.021864406779663
5518,-19.021864406779663
5519,-19.021864406779663
5520,-19.021864406779663
5521,-19.021864406779663
5522,-19.021864406779663
5523,61.88
5524,-19.021864406779663
5525,-19.021864406779663
5526,-19.021864406779663
5527,-19.021864406779663
5528,-19.021864406779663
5529,-19.021864406779663
5530,-19.021864406779663
5531,-19.021864406779663
5532,-19.021864406779663
5533,-19.021864406779663
5534,-19.021864406779663
5535,103.11
5536,-19.021864406779663
5537,-19.021864406779663
5538,-19.021864406779663
5539,-19.021864406779663
5540,-19.021864406779663
5541,-19.021864406779663
5542,-19.021864406779663
5543,-19.021864406779663
5544,-19.021864406779663
5545,-19.021864406779663
5546,-19.021864406779663
5547,148.73
5548,-19.021864406779663
5549,-19.021864406779663
5550,-19.021864406779663
5551,-19.021864406779663
5552,-19.021864406779663
5553,-19.021864406779663
5554,-19.021864406779663
5555,-19.021864406779663
5556,-19.021864406779663
5557,-19.021864406779663
5558,-19.021864406779663
5559,196.42
5560,-19.021864406779663
5561,-19.021864406779663
5562,-19.021864406779663
5563,-19.021864406779663
5564,-19.021864406779663
5565,-19.021864406779663
5566,-19.021864406779663
5567,-19.021864406779663
5568,-19.021864406779663
5569,-19.021864406779663
5570,-19.021864406779663
5571,242.68
5572,-19.021864406779663
5573,-19.021864406779663
5574,-19.021864406779663
5575,-19.021864406779663
5576,-19.021864406779663
5577,-19.021864406779663
5578,-19.021864406779663
5579,-19.021864406779663
5580,-19.021864406779663
5581,-19.021864406779663
5582,-19.021864406779663
5583,284.38
5584,-19.021864406779663
5585,-19.021864406779663
5586,-19.021864406779663
5587,-19.021864406779663
5588,-19.021864406779663
5589,-19.021864406779663
5590,-19.021864406779663
5591,-19.021864406779663
5592,-19.021864406779663
5593,-19.021864406779663
5594,-19.021864406779663
5595,320.03
5596,-19.021864406779663
5597,-19.021864406779663
5598,-19.021864406779663
5599,-19.021864406779663
5600,-19.021864406779663
5601,-19.021864406779663
5602,-19.021864406779663
5603,-19.021864406779663
5604,-19.021864406779663
5605,-19.021864406779663
5606,-19.021864406779663
5607,349.98
5608,-19.021864406779663
5609,-19.021864406779663
5610,-19.021864406779663
5611,-19.021864406779663
5612,-19.021864406779663
5613,-19.021864406779663
5614,-19.021864406779663
5615,-19.021864406779663
5616,-19.021864406779663
5617,-19.021864406779663
5618,-19.021864406779663
5619,375.78
5620,-19.021864406779663
5621,-19.021864406779663
5622,-19.021864406779663
5623,-19.021864406779663
5624,-19.021864406779663
5625,-19.021864406779663
5626,-19.021864406779663
5627,-19.021864406779663
5628,-19.021864406779663
5629,-19.021864406779663
5630,-19.021864406779663
5631,398.83
5632,-19.021864406779663
5633,-19.021864406779663
5634,-19.021864406779663
5635,-19.021864406779663
5636,-19.021864406779663
5637,-19.021864406779663
5638,-19.021864406779663
5639,-19.021864406779663
5640,-19.021864406779663
5641,-19.021864406779663
5642,-19.021864406779663
5643,419.42
5644,-19.021864406779663
5645,-19.021864406779663
5646,-19.021864406779663
5647,-19.021864406779663
5648,-19.021864406779663
5649,-19.021864406779663
5650,-19.021864406779663
5651,-19.021864406779663
5652,-19.021864406779663
5653,-19.021864406779663
5654,-19.021864406779663
5655,436.37
5656,-19.021864406779663
5657,-19.021864406779663
5658,-19.021864406779663
5659,-19.021864406779663
5660,-19.021864406779663
5661,-19.021864406779663
5662,-19.021864406779663
5663,-19.021864406779663
5664,-19.021864406779663
5665,-19.021864406779663
5666,447.46
5667,-19.021864406779663
5668,-19.021864406779663
5669,-19.021864406779663
5670,-19.021864406779663
5671,-19.021864406779663
5672,-19.021864406779663
5673,-19.021864406779663
5674,-19.021864406779663
5675,-19.021864406779663
5676,-19.021864406779663
5677,450.12
5678,-19.021864406779663
5679,-19.021864406779663
5680,-19.021864406779663
5681,-19.021864406779663
5682,-19.021864406779663
5683,-19.021864406779663
5684,-19.021864406779663
5685,-19.021864406779663
5686,-19.021864406779663
5687,-19.021864406779663
5688,-19.021864406779663
5689,442.12
5690,-19.021864406779663
5691,-19.021864406779663
5692,-19.021864406779663
5693,-19.021864406779663
5694,-19.021864406779663
5695,-19.021864406779663
5696,-19.021864406779663
5697,-19.021864406779663
5698,-19.021864406779663
5699,-19.021864406779663
5700,-19.021864406779663
5701,421.99
5702,-19.021864406779663
5703,-19.021864406779663
5704,-19.021864406779663
5705,-19.021864406779663
5706,-19.021864406779663
5707,-19.021864406779663
5708,-19.021864406779663
5709,-19.021864406779663
5710,-19.021864406779663
5711,-19.021864406779663
5712,-19.021864406779663
5713,389.19
5714,-19.021864406779663
5715,-19.021864406779663
5716,-19.021864406779663
5717,-19.021864406779663
5718,-19.021864406779663
5719,-19.021864406779663
5720,-19.021864406779663
5721,-19.021864406779663
5722,-19.021864406779663
5723,-19.021864406779663
5724,-19.021864406779663
5725,344.22
5726,-19.021864406779663
5727,-19.021864406779663
5728,-19.021864406779663
5729,-19.021864406779663
5730,-19.021864406779663
5731,-19.021864406779663
5732,-19.021864406779663
5733,-19.021864406779663
5734,-19.021864406779663
5735,-19.021864406779663
5736,-19.021864406779663
5737,288.69
5738,-19.021864406779663
5739,-19.021864406779663
5740,-19.021864406779663
5741,-19.021864406779663
5742,-19.021864406779663
5743,-19.021864406779663
5744,-19.021864406779663
5745,-19.021864406779663
5746,-19.021864406779663
5747,-19.021864406779663
5748,-19.021864406779663
5749,225.23
5750,-19.021864406779663
5751,-19.021864406779663
5752,-19.021864406779663
5753,-19.021864406779663
5754,-19.021864406779663
5755,-19.021864406779663
5756,-19.021864406779663
5757,-19.021864406779663
5758,-19.021864406779663
5759,-19.021864406779663
5760,-19.021864406779663
5761,157.1
5762,-19.021864406779663
5763,-19.021864406779663
5764,-19.021864406779663
5765,-19.021864406779663
5766,-19.021864406779663
5767,-19.021864406779663
5768,-19.021864406779663
5769,-19.021864406779663
5770,-19.021864406779663
5771,-19.021864406779663
5772,-19.021864406779663
5773,87.9
5774,-19.021864406779663
5775,-19.021864406779663
5776,-19.021864406779663
5777,-19.021864406779663
5778,-19.021864406779663
5779,-19.021864406779663
5780,-19.021864406779663
5781,-19.021864406779663
5782,-19.021864406779663
5783,-19.021864406779663
5784,-19.021864406779663
5785,20.96
5786,-19.021864406779663
5787,-19.021864406779663
5788,-19.021864406779663
5789,-19.021864406779663
5790,-19.021864406779663
5791,-19.021864406779663
5792,-19.021864406779663
5793,-19.021864406779663
5794,-19.021864406779663
5795,-19.021864406779663
5796,-19.021864406779663
5797,-41.11
5798,-19.021864406779663
5799,-19.021864406779663
5800,-19.021864406779663
5801,-19.021864406779663
5802,-19.021864406779663
5803,-19.021864406779663
5804,-19.021864406779663
5805,-19.021864406779663
5806,-19.021864406779663
5807,-19.021864406779663
5808,-19.021864406779663
5809,-96.6
5810,-19.021864406779663
5811,-19.021864406779663
5812,-19.021864406779663
5813,-19.021864406779663
5814,-19.021864406779663
5815,-19.021864406779663
5816,-19.021864406779663
5817,-19.021864406779663
5818,-19.021864406779663
5819,-19.021864406779663
5820,-19.021864406779663
5821,-144.97
5822,-19.021864406779663
5823,-19.021864406779663
5824,-19.021864406779663
5825,-19.021864406779663
5826,-19.021864406779663
5827,-19.021864406779663
5828,-19.021864406779663
5829,-19.021864406779663
5830,-19.021864406779663
5831,-19.021864406779663
5832,-19.021864406779663
5833,-187.05
5834,-19.021864406779663
5835,-19.021864406779663
5836,-19.021864406779663
5837,-19.021864406779663
5838,-19.021864406779663
5839,-19.021864406779663
5840,-19.021864406779663
5841,-19.021864406779663
5842,-19.021864406779663
5843,-19.021864406779663
5844,-19.021864406779663
5845,-224.86
5846,-19.021864406779663
5847,-19.021864406779663
5848,-19.021864406779663
5849,-19.021864406779663
5850,-19.021864406779663
5851,-19.021864406779663
5852,-19.021864406779663
5853,-19.021864406779663
5854,-19.021864406779663
5855,-19.021864406779663
5856,-260.85
5857,-19.021864406779663
5858,-19.021864406779663
5859,-19.021864406779663
5860,-19.021864406779663
5861,-19.021864406779663
5862,-19.021864406779663
5863,-19.021864406779663
5864,-19.021864406779663
5865,-19.021864406779663
5866,-19.021864406779663
5867,-296.48
5868,-19.021864406779663
5869,-19.021864406779663
5870,-19.021864406779663
5871,-19.021864406779663
5872,-19.021864406779663
5873,-19.021864406779663
5874,-19.021864406779663
5875,-19.021864406779663
5876,-19.021864406779663
5877,-19.021864406779663
5878,-19.021864406779663
5879,-331.0
5880,-19.021864406779663
5881,-19.021864406779663
5882,-19.021864406779663
5883,-19.021864406779663
5884,-19.021864406779663
5885,-19.021864406779663
5886,-19.021864406779663
5887,-19.021864406779663
5888,-19.021864406779663
5889,-19.021864406779663
5890,-19.021864406779663
5891,-361.48
5892,-19.021864406779663
5893,-19.021864406779663
5894,-19.021864406779663
5895,-19.021864406779663
5896,-19.021864406779663
5897,-19.021864406779663
5898,-19.021864406779663
5899,-19.021864406779663
5900,-19.021864406779663
5901,-19.021864406779663
5902,-19.021864406779663
5903,-384.14
5904,-19.021864406779663
5905,-19.021864406779663
5906,-19.021864406779663
5907,-19.021864406779663
5908,-19.021864406779663
5909,-19.021864406779663
5910,-19.021864406779663
5911,-19.021864406779663
5912,-19.021864406779663
5913,-19.021864406779663
5914,-19.021864406779663
5915,-396.4
5916,-19.021864406779663
5917,-19.021864406779663
5918,-19.021864406779663
5919,-19.021864406779663
5920,-19.021864406779663
5921,-19.021864406779663
5922,-19.021864406779663
5923,-19.021864406779663
5924,-19.021864406779663
5925,-19.021864406779663
5926,-19.021864406779663
5927,-398.6
5928,-19.021864406779663
5929,-19.021864406779663
5930,-19.021864406779663
5931,-19.021864406779663
5932,-19.021864406779663
5933,-19.021864406779663
5934,-19.021864406779663
5935,-19.021864406779663
5936,-19.021864406779663
5937,-19.021864406779663
5938,-19.021864406779663
5939,-394.09
5940,-19.021864406779663
5941,-19.021864406779663
5942,-19.021864406779663
5943,-19.021864406779663
5944,-19.021864406779663
5945,-19.021864406779663
5946,-19.021864406779663
5947,-19.021864406779663
5948,-19.021864406779663
5949,-19.021864406779663
5950,-19.021864406779663
5951,-387.82
5952,-19.021864406779663
5953,-19.021864406779663
5954,-19.021864406779663
5955,-19.021864406779663
5956,-19.021864406779663
5957,-19.021864406779663
5958,-19.021864406779663
5959,-19.021864406779663
5960,-19.021864406779663
5961,-19.021864406779663
5962,-19.021864406779663
5963,-383.87
5964,-19.021864406779663
5965,-19.021864406779663
5966,-19.021864406779663
5967,-19.021864406779663
5968,-19.021864406779663
5969,-19.021864406779663
5970,-19.021864406779663
5971,-19.021864406779663
5972,-19.021864406779663
5973,-19.021864406779663
5974,-19.021864406779663
5975,-383.53
5976,-19.021864406779663
5977,-19.021864406779663
5978,-19.021864406779663
5979,-19.021864406779663
5980,-19.021864406779663
5981,-19.021864406779663
5982,-19.021864406779663
5983,-19.021864406779663
5984,-19.021864406779663
5985,-19.021864406779663
5986,-19.021864406779663
5987,-384.77
5988,-19.021864406779663
5989,-19.021864406779663
5990,-19.021864406779663
5991,-19.021864406779663
5992,-19.021864406779663
5993,-19.021864406779663
5994,-19.021864406779663
5995,-19.021864406779663
5996,-19.021864406779663
5997,-19.021864406779663
5998,-19.021864406779663
5999,-383.49
6000,-19.021864406779663
6001,-19.021864406779663
6002,-19.021864406779663
6003,-19.021864406779663
6004,-19.021864406779663
6005,-19.021864406779663
6006,-19.021864406779663
6007,-19.021864406779663
6008,-19.021864406779663
6009,-19.021864406779663
6010,-19.021864406779663
6011,-375.47
6012,-19.021864406779663
6013,-19.021864406779663
6014,-19.021864406779663
6015,-19.021864406779663
6016,-19.021864406779663
6017,-19.021864406779663
6018,-19.021864406779663
6019,-19.021864406779663
6020,-19.021864406779663
6021,-19.021864406779663
6022,-19.021864406779663
6023,-358.08
6024,-19.021864406779663
6025,-19.021864406779663
6026,-19.021864406779663
6027,-19.021864406779663
6028,-19.021864406779663
6029,-19.021864406779663
6030,-19.021864406779663
6031,-19.021864406779663
6032,-19.021864406779663
6033,-19.021864406779663
6034,-19.021864406779663
6035,-331.16
6036,-19.021864406779663
6037,-19.021864406779663
6038,-19.021864406779663
6039,-19.021864406779663
6040,-19.021864406779663
6041,-19.021864406779663
6042,-19.021864406779663
6043,-19.021864406779663
6044,-19.021864406779663
6045,-19.021864406779663
6046,-296.6
6047,-19.021864406779663
6048,-19.021864406779663
6049,-19.021864406779663
6050,-19.021864406779663
6051,-19.021864406779663
6052,-19.021864406779663
6053,-19.021864406779663
6054,-19.021864406779663
6055,-19.021864406779663
6056,-19.021864406779663
6057,-257.36
6058,-19.021864406779663
6059,-19.021864406779663
6060,-19.021864406779663
6061,-19.021864406779663
6062,-19.021864406779663
6063,-19.021864406779663
6064,-19.021864406779663
6065,-19.021864406779663
6066,-19.021864406779663
6067,-19.021864406779663
6068,-19.021864406779663
6069,-216.44
6070,-19.021864406779663
6071,-19.021864406779663
6072,-19.021864406779663
6073,-19.021864406779663
6074,-19.021864406779663
6075,-19.021864406779663
6076,-19.021864406779663
6077,-19.021864406779663
6078,-19.021864406779663
6079,-19.021864406779663
6080,-19.021864406779663
6081,-176.12
6082,-19.021864406779663
6083,-19.021864406779663
6084,-19.021864406779663
6085,-19.021864406779663
6086,-19.021864406779663
6087,-19.021864406779663
6088,-19.021864406779663
6089,-19.021864406779663
6090,-19.021864406779663
6091,-19.021864406779663
6092,-19.021864406779663
6093,-137.69
6094,-19.021864406779663
6095,-19.021864406779663
6096,-19.021864406779663
6097,-19.021864406779663
6098,-19.021864406779663
6099,-19.021864406779663
6100,-19.021864406779663
6101,-19.021864406779663
6102,-19.021864406779663
6103,-19.021864406779663
6104,-19.021864406779663
6105,-101.5
6106,-19.021864406779663
6107,-19.021864406779663
6108,-19.021864406779663
6109,-19.021864406779663
6110,-19.021864406779663
6111,-19.021864406779663
6112,-19.021864406779663
6113,-19.021864406779663
6114,-19.021864406779663
6115,-19.021864406779663
6116,-19.021864406779663
6117,-67.32
6118,-19.021864406779663
6119,-19.021864406779663
6120,-19.021864406779663
6121,-19.021864406779663
6122,-19.021864406779663
6123,-19.021864406779663
6124,-19.021864406779663
6125,-19.021864406779663
6126,-19.021864406779663
6127,-19.021864406779663
6128,-19.021864406779663
6129,-34.73
6130,-19.021864406779663
6131,-19.021864406779663
6132,-19.021864406779663
6133,-19.021864406779663
6134,-19.021864406779663
6135,-19.021864406779663
6136,-19.021864406779663
6137,-19.021864406779663
6138,-19.021864406779663
6139,-19.021864406779663
6140,-19.021864406779663
6141,-3.68
6142,-19.021864406779663
6143,-19.021864406779663
6144,-19.021864406779663
6145,-19.021864406779663
6146,-19.021864406779663
6147,-19.021864406779663
6148,-19.021864406779663
6149,-19.021864406779663
6150,-19.021864406779663
6151,-19.021864406779663
6152,-19.021864406779663
6153,25.8
6154,-19.021864406779663
6155,-19.021864406779663
6156,-19.021864406779663
6157,-19.021864406779663
6158,-19.021864406779663
6159,-19.021864406779663
6160,-19.021864406779663
6161,-19.021864406779663
6162,-19.021864406779663
6163,-19.021864406779663
6164,-19.021864406779663
6165,53.76
6166,-19.021864406779663
6167,-19.021864406779663
6168,-19.021864406779663
6169,-19.021864406779663
6170,-19.021864406779663
6171,-19.021864406779663
6172,-19.021864406779663
6173,-19.021864406779663
6174,-19.021864406779663
6175,-19.021864406779663
6176,-19.021864406779663
6177,80.49
6178,-19.021864406779663
6179,-19.021864406779663
6180,-19.021864406779663
6181,-19.021864406779663
6182,-19.021864406779663
6183,-19.021864406779663
6184,-19.021864406779663
6185,-19.021864406779663
6186,-19.021864406779663
6187,-19.021864406779663
6188,-19.021864406779663
6189,106.34
6190,-19.021864406779663
6191,-19.021864406779663
6192,-19.021864406779663
6193,-19.021864406779663
6194,-19.021864406779663
6195,-19.021864406779663
6196,-19.021864406779663
6197,-19.021864406779663
6198,-19.021864406779663
6199,-19.021864406779663
6200,-19.021864406779663
6201,131.14
6202,-19.021864406779663
6203,-19.021864406779663
6204,-19.021864406779663
6205,-19.021864406779663
6206,-19.021864406779663
6207,-19.021864406779663
6208,-19.021864406779663
6209,-19.021864406779663
6210,-19.021864406779663
6211,-19.021864406779663
6212,-19.021864406779663
6213,153.86
6214,-19.021864406779663
6215,-19.021864406779663
6216,-19.021864406779663
6217,-19.021864406779663
6218,-19.021864406779663
6219,-19.021864406779663
6220,-19.021864406779663
6221,-19.021864406779663
6222,-19.021864406779663
6223,-19.021864406779663
6224,-19.021864406779663
6225,172.97
6226,-19.021864406779663
6227,-19.021864406779663
6228,-19.021864406779663
6229,-19.021864406779663
6230,-19.021864406779663
6231,-19.021864406779663
6232,-19.021864406779663
6233,-19.021864406779663
6234,-19.021864406779663
6235,-19.021864406779663
6236,187.44
6237,-19.021864406779663
6238,-19.021864406779663
6239,-19.021864406779663
6240,-19.021864406779663
6241,-19.021864406779663
6242,-19.021864406779663
6243,-19.021864406779663
6244,-19.021864406779663
6245,-19.021864406779663
6246,-19.021864406779663
6247,197.63
6248,-19.021864406779663
6249,-19.021864406779663
6250,-19.021864406779663
6251,-19.021864406779663
6252,-19.021864406779663
6253,-19.021864406779663
6254,-19.021864406779663
6255,-19.021864406779663
6256,-19.021864406779663
6257,-19.021864406779663
6258,-19.021864406779663
6259,205.72
6260,-19.021864406779663
6261,-19.021864406779663
6262,-19.021864406779663
6263,-19.021864406779663
6264,-19.021864406779663
6265,-19.021864406779663
6266,-19.021864406779663
6267,-19.021864406779663
6268,-19.021864406779663
6269,-19.021864406779663
6270,-19.021864406779663
6271,214.84
6272,-19.021864406779663
6273,-19.021864406779663
6274,-19.021864406779663
6275,-19.021864406779663
6276,-19.021864406779663
6277,-19.021864406779663
6278,-19.021864406779663
6279,-19.021864406779663
6280,-19.021864406779663
6281,-19.021864406779663
6282,-19.021864406779663
6283,227.31
6284,-19.021864406779663
6285,-19.021864406779663
6286,-19.021864406779663
6287,-19.021864406779663
6288,-19.021864406779663
6289,-19.021864406779663
6290,-19.021864406779663
6291,-19.021864406779663
6292,-19.021864406779663
6293,-19.021864406779663
6294,-19.021864406779663
6295,242.93
6296,-19.021864406779663
6297,-19.021864406779663
6298,-19.021864406779663
6299,-19.021864406779663
