second,BVP
4200,-0.9134463276836162
4201,-0.9134463276836162
4202,-0.9134463276836162
4203,-0.9134463276836162
4204,13.71
4205,-0.9134463276836162
4206,-0.9134463276836162
4207,-0.9134463276836162
4208,-0.9134463276836162
4209,-0.9134463276836162
4210,-0.9134463276836162
4211,-0.9134463276836162
4212,-0.9134463276836162
4213,-0.9134463276836162
4214,-0.9134463276836162
4215,-0.9134463276836162
4216,11.73
4217,-0.9134463276836162
4218,-0.9134463276836162
4219,-0.9134463276836162
4220,-0.9134463276836162
4221,-0.9134463276836162
4222,-0.9134463276836162
4223,-0.9134463276836162
4224,-0.9134463276836162
4225,-0.9134463276836162
4226,-0.9134463276836162
4227,-0.9134463276836162
4228,11.21
4229,-0.9134463276836162
4230,-0.9134463276836162
4231,-0.9134463276836162
4232,-0.9134463276836162
4233,-0.9134463276836162
4234,-0.9134463276836162
4235,-0.9134463276836162
4236,-0.9134463276836162
4237,-0.9134463276836162
4238,-0.9134463276836162
4239,-0.9134463276836162
4240,11.38
4241,-0.9134463276836162
4242,-0.9134463276836162
4243,-0.9134463276836162
4244,-0.9134463276836162
4245,-0.9134463276836162
4246,-0.9134463276836162
4247,-0.9134463276836162
4248,-0.9134463276836162
4249,-0.9134463276836162
4250,-0.9134463276836162
4251,-0.9134463276836162
4252,11.36
4253,-0.9134463276836162
4254,-0.9134463276836162
4255,-0.9134463276836162
4256,-0.9134463276836162
4257,-0.9134463276836162
4258,-0.9134463276836162
4259,-0.9134463276836162
4260,-0.9134463276836162
4261,-0.9134463276836162
4262,-0.9134463276836162
4263,-0.9134463276836162
4264,10.21
4265,-0.9134463276836162
4266,-0.9134463276836162
4267,-0.9134463276836162
4268,-0.9134463276836162
4269,-0.9134463276836162
4270,-0.9134463276836162
4271,-0.9134463276836162
4272,-0.9134463276836162
4273,-0.9134463276836162
4274,-0.9134463276836162
4275,-0.9134463276836162
4276,7.17
4277,-0.9134463276836162
4278,-0.9134463276836162
4279,-0.9134463276836162
4280,-0.9134463276836162
4281,-0.9134463276836162
4282,-0.9134463276836162
4283,-0.9134463276836162
4284,-0.9134463276836162
4285,-0.9134463276836162
4286,-0.9134463276836162
4287,-0.9134463276836162
4288,1.83
4289,-0.9134463276836162
4290,-0.9134463276836162
4291,-0.9134463276836162
4292,-0.9134463276836162
4293,-0.9134463276836162
4294,-0.9134463276836162
4295,-0.9134463276836162
4296,-0.9134463276836162
4297,-0.9134463276836162
4298,-0.9134463276836162
4299,-0.9134463276836162
4300,-5.54
4301,-0.9134463276836162
4302,-0.9134463276836162
4303,-0.9134463276836162
4304,-0.9134463276836162
4305,-0.9134463276836162
4306,-0.9134463276836162
4307,-0.9134463276836162
4308,-0.9134463276836162
4309,-0.9134463276836162
4310,-0.9134463276836162
4311,-0.9134463276836162
4312,-14.0
4313,-0.9134463276836162
4314,-0.9134463276836162
4315,-0.9134463276836162
4316,-0.9134463276836162
4317,-0.9134463276836162
4318,-0.9134463276836162
4319,-0.9134463276836162
4320,-0.9134463276836162
4321,-0.9134463276836162
4322,-0.9134463276836162
4323,-0.9134463276836162
4324,-22.04
4325,-0.9134463276836162
4326,-0.9134463276836162
4327,-0.9134463276836162
4328,-0.9134463276836162
4329,-0.9134463276836162
4330,-0.9134463276836162
4331,-0.9134463276836162
4332,-0.9134463276836162
4333,-0.9134463276836162
4334,-0.9134463276836162
4335,-28.09
4336,-0.9134463276836162
4337,-0.9134463276836162
4338,-0.9134463276836162
4339,-0.9134463276836162
4340,-0.9134463276836162
4341,-0.9134463276836162
4342,-0.9134463276836162
4343,-0.9134463276836162
4344,-0.9134463276836162
4345,-0.9134463276836162
4346,-31.2
4347,-0.9134463276836162
4348,-0.9134463276836162
4349,-0.9134463276836162
4350,-0.9134463276836162
4351,-0.9134463276836162
4352,-0.9134463276836162
4353,-0.9134463276836162
4354,-0.9134463276836162
4355,-0.9134463276836162
4356,-0.9134463276836162
4357,-0.9134463276836162
4358,-31.48
4359,-0.9134463276836162
4360,-0.9134463276836162
4361,-0.9134463276836162
4362,-0.9134463276836162
4363,-0.9134463276836162
4364,-0.9134463276836162
4365,-0.9134463276836162
4366,-0.9134463276836162
4367,-0.9134463276836162
4368,-0.9134463276836162
4369,-0.9134463276836162
4370,-30.3
4371,-0.9134463276836162
4372,-0.9134463276836162
4373,-0.9134463276836162
4374,-0.9134463276836162
4375,-0.9134463276836162
4376,-0.9134463276836162
4377,-0.9134463276836162
4378,-0.9134463276836162
4379,-0.9134463276836162
4380,-0.9134463276836162
4381,-0.9134463276836162
4382,-29.75
4383,-0.9134463276836162
4384,-0.9134463276836162
4385,-0.9134463276836162
4386,-0.9134463276836162
4387,-0.9134463276836162
4388,-0.9134463276836162
4389,-0.9134463276836162
4390,-0.9134463276836162
4391,-0.9134463276836162
4392,-0.9134463276836162
4393,-0.9134463276836162
4394,-31.79
4395,-0.9134463276836162
4396,-0.9134463276836162
4397,-0.9134463276836162
4398,-0.9134463276836162
4399,-0.9134463276836162
4400,-0.9134463276836162
4401,-0.9134463276836162
4402,-0.9134463276836162
4403,-0.9134463276836162
4404,-0.9134463276836162
4405,-0.9134463276836162
4406,-37.3
4407,-0.9134463276836162
4408,-0.9134463276836162
4409,-0.9134463276836162
4410,-0.9134463276836162
4411,-0.9134463276836162
4412,-0.9134463276836162
4413,-0.9134463276836162
4414,-0.9134463276836162
4415,-0.9134463276836162
4416,-0.9134463276836162
4417,-0.9134463276836162
4418,-45.6
4419,-0.9134463276836162
4420,-0.9134463276836162
4421,-0.9134463276836162
4422,-0.9134463276836162
4423,-0.9134463276836162
4424,-0.9134463276836162
4425,-0.9134463276836162
4426,-0.9134463276836162
4427,-0.9134463276836162
4428,-0.9134463276836162
4429,-0.9134463276836162
4430,-54.63
4431,-0.9134463276836162
4432,-0.9134463276836162
4433,-0.9134463276836162
4434,-0.9134463276836162
4435,-0.9134463276836162
4436,-0.9134463276836162
4437,-0.9134463276836162
4438,-0.9134463276836162
4439,-0.9134463276836162
4440,-0.9134463276836162
4441,-0.9134463276836162
4442,-61.74
4443,-0.9134463276836162
4444,-0.9134463276836162
4445,-0.9134463276836162
4446,-0.9134463276836162
4447,-0.9134463276836162
4448,-0.9134463276836162
4449,-0.9134463276836162
4450,-0.9134463276836162
4451,-0.9134463276836162
4452,-0.9134463276836162
4453,-0.9134463276836162
4454,-64.72
4455,-0.9134463276836162
4456,-0.9134463276836162
4457,-0.9134463276836162
4458,-0.9134463276836162
4459,-0.9134463276836162
4460,-0.9134463276836162
4461,-0.9134463276836162
4462,-0.9134463276836162
4463,-0.9134463276836162
4464,-0.9134463276836162
4465,-0.9134463276836162
4466,-62.48
4467,-0.9134463276836162
4468,-0.9134463276836162
4469,-0.9134463276836162
4470,-0.9134463276836162
4471,-0.9134463276836162
4472,-0.9134463276836162
4473,-0.9134463276836162
4474,-0.9134463276836162
4475,-0.9134463276836162
4476,-0.9134463276836162
4477,-0.9134463276836162
4478,-55.29
4479,-0.9134463276836162
4480,-0.9134463276836162
4481,-0.9134463276836162
4482,-0.9134463276836162
4483,-0.9134463276836162
4484,-0.9134463276836162
4485,-0.9134463276836162
4486,-0.9134463276836162
4487,-0.9134463276836162
4488,-0.9134463276836162
4489,-0.9134463276836162
4490,-44.31
4491,-0.9134463276836162
4492,-0.9134463276836162
4493,-0.9134463276836162
4494,-0.9134463276836162
4495,-0.9134463276836162
4496,-0.9134463276836162
4497,-0.9134463276836162
4498,-0.9134463276836162
4499,-0.9134463276836162
4500,-0.9134463276836162
4501,-0.9134463276836162
4502,-31.06
4503,-0.9134463276836162
4504,-0.9134463276836162
4505,-0.9134463276836162
4506,-0.9134463276836162
4507,-0.9134463276836162
4508,-0.9134463276836162
4509,-0.9134463276836162
4510,-0.9134463276836162
4511,-0.9134463276836162
4512,-0.9134463276836162
4513,-0.9134463276836162
4514,-16.91
4515,-0.9134463276836162
4516,-0.9134463276836162
4517,-0.9134463276836162
4518,-0.9134463276836162
4519,-0.9134463276836162
4520,-0.9134463276836162
4521,-0.9134463276836162
4522,-0.9134463276836162
4523,-0.9134463276836162
4524,-0.9134463276836162
4525,-3.01
4526,-0.9134463276836162
4527,-0.9134463276836162
4528,-0.9134463276836162
4529,-0.9134463276836162
4530,-0.9134463276836162
4531,-0.9134463276836162
4532,-0.9134463276836162
4533,-0.9134463276836162
4534,-0.9134463276836162
4535,-0.9134463276836162
4536,9.62
4537,-0.9134463276836162
4538,-0.9134463276836162
4539,-0.9134463276836162
4540,-0.9134463276836162
4541,-0.9134463276836162
4542,-0.9134463276836162
4543,-0.9134463276836162
4544,-0.9134463276836162
4545,-0.9134463276836162
4546,-0.9134463276836162
4547,-0.9134463276836162
4548,19.94
4549,-0.9134463276836162
4550,-0.9134463276836162
4551,-0.9134463276836162
4552,-0.9134463276836162
4553,-0.9134463276836162
4554,-0.9134463276836162
4555,-0.9134463276836162
4556,-0.9134463276836162
4557,-0.9134463276836162
4558,-0.9134463276836162
4559,-0.9134463276836162
4560,27.02
4561,-0.9134463276836162
4562,-0.9134463276836162
4563,-0.9134463276836162
4564,-0.9134463276836162
4565,-0.9134463276836162
4566,-0.9134463276836162
4567,-0.9134463276836162
4568,-0.9134463276836162
4569,-0.9134463276836162
4570,-0.9134463276836162
4571,-0.9134463276836162
4572,30.29
4573,-0.9134463276836162
4574,-0.9134463276836162
4575,-0.9134463276836162
4576,-0.9134463276836162
4577,-0.9134463276836162
4578,-0.9134463276836162
4579,-0.9134463276836162
4580,-0.9134463276836162
4581,-0.9134463276836162
4582,-0.9134463276836162
4583,-0.9134463276836162
4584,29.82
4585,-0.9134463276836162
4586,-0.9134463276836162
4587,-0.9134463276836162
4588,-0.9134463276836162
4589,-0.9134463276836162
4590,-0.9134463276836162
4591,-0.9134463276836162
4592,-0.9134463276836162
4593,-0.9134463276836162
4594,-0.9134463276836162
4595,-0.9134463276836162
4596,26.36
4597,-0.9134463276836162
4598,-0.9134463276836162
4599,-0.9134463276836162
4600,-0.9134463276836162
4601,-0.9134463276836162
4602,-0.9134463276836162
4603,-0.9134463276836162
4604,-0.9134463276836162
4605,-0.9134463276836162
4606,-0.9134463276836162
4607,-0.9134463276836162
4608,21.09
4609,-0.9134463276836162
4610,-0.9134463276836162
4611,-0.9134463276836162
4612,-0.9134463276836162
4613,-0.9134463276836162
4614,-0.9134463276836162
4615,-0.9134463276836162
4616,-0.9134463276836162
4617,-0.9134463276836162
4618,-0.9134463276836162
4619,-0.9134463276836162
4620,15.28
4621,-0.9134463276836162
4622,-0.9134463276836162
4623,-0.9134463276836162
4624,-0.9134463276836162
4625,-0.9134463276836162
4626,-0.9134463276836162
4627,-0.9134463276836162
4628,-0.9134463276836162
4629,-0.9134463276836162
4630,-0.9134463276836162
4631,-0.9134463276836162
4632,9.91
4633,-0.9134463276836162
4634,-0.9134463276836162
4635,-0.9134463276836162
4636,-0.9134463276836162
4637,-0.9134463276836162
4638,-0.9134463276836162
4639,-0.9134463276836162
4640,-0.9134463276836162
4641,-0.9134463276836162
4642,-0.9134463276836162
4643,-0.9134463276836162
4644,5.61
4645,-0.9134463276836162
4646,-0.9134463276836162
4647,-0.9134463276836162
4648,-0.9134463276836162
4649,-0.9134463276836162
4650,-0.9134463276836162
4651,-0.9134463276836162
4652,-0.9134463276836162
4653,-0.9134463276836162
4654,-0.9134463276836162
4655,-0.9134463276836162
4656,2.64
4657,-0.9134463276836162
4658,-0.9134463276836162
4659,-0.9134463276836162
4660,-0.9134463276836162
4661,-0.9134463276836162
4662,-0.9134463276836162
4663,-0.9134463276836162
4664,-0.9134463276836162
4665,-0.9134463276836162
4666,-0.9134463276836162
4667,-0.9134463276836162
4668,0.96
4669,-0.9134463276836162
4670,-0.9134463276836162
4671,-0.9134463276836162
4672,-0.9134463276836162
4673,-0.9134463276836162
4674,-0.9134463276836162
4675,-0.9134463276836162
4676,-0.9134463276836162
4677,-0.9134463276836162
4678,-0.9134463276836162
4679,-0.9134463276836162
4680,0.26
4681,-0.9134463276836162
4682,-0.9134463276836162
4683,-0.9134463276836162
4684,-0.9134463276836162
4685,-0.9134463276836162
4686,-0.9134463276836162
4687,-0.9134463276836162
4688,-0.9134463276836162
4689,-0.9134463276836162
4690,-0.9134463276836162
4691,-0.9134463276836162
4692,0.09
4693,-0.9134463276836162
4694,-0.9134463276836162
4695,-0.9134463276836162
4696,-0.9134463276836162
4697,-0.9134463276836162
4698,-0.9134463276836162
4699,-0.9134463276836162
4700,-0.9134463276836162
4701,-0.9134463276836162
4702,-0.9134463276836162
4703,-0.9134463276836162
4704,-0.04
4705,-0.9134463276836162
4706,-0.9134463276836162
4707,-0.9134463276836162
4708,-0.9134463276836162
4709,-0.9134463276836162
4710,-0.9134463276836162
4711,-0.9134463276836162
4712,-0.9134463276836162
4713,-0.9134463276836162
4714,-0.9134463276836162
4715,-0.46
4716,-0.9134463276836162
4717,-0.9134463276836162
4718,-0.9134463276836162
4719,-0.9134463276836162
4720,-0.9134463276836162
4721,-0.9134463276836162
4722,-0.9134463276836162
4723,-0.9134463276836162
4724,-0.9134463276836162
4725,-0.9134463276836162
4726,-1.15
4727,-0.9134463276836162
4728,-0.9134463276836162
4729,-0.9134463276836162
4730,-0.9134463276836162
4731,-0.9134463276836162
4732,-0.9134463276836162
4733,-0.9134463276836162
4734,-0.9134463276836162
4735,-0.9134463276836162
4736,-0.9134463276836162
4737,-0.9134463276836162
4738,-1.81
4739,-0.9134463276836162
4740,-0.9134463276836162
4741,-0.9134463276836162
4742,-0.9134463276836162
4743,-0.9134463276836162
4744,-0.9134463276836162
4745,-0.9134463276836162
4746,-0.9134463276836162
4747,-0.9134463276836162
4748,-0.9134463276836162
4749,-0.9134463276836162
4750,-1.99
4751,-0.9134463276836162
4752,-0.9134463276836162
4753,-0.9134463276836162
4754,-0.9134463276836162
4755,-0.9134463276836162
4756,-0.9134463276836162
4757,-0.9134463276836162
4758,-0.9134463276836162
4759,-0.9134463276836162
4760,-0.9134463276836162
4761,-0.9134463276836162
4762,-1.47
4763,-0.9134463276836162
4764,-0.9134463276836162
4765,-0.9134463276836162
4766,-0.9134463276836162
4767,-0.9134463276836162
4768,-0.9134463276836162
4769,-0.9134463276836162
4770,-0.9134463276836162
4771,-0.9134463276836162
4772,-0.9134463276836162
4773,-0.9134463276836162
4774,-0.39
4775,-0.9134463276836162
4776,-0.9134463276836162
4777,-0.9134463276836162
4778,-0.9134463276836162
4779,-0.9134463276836162
4780,-0.9134463276836162
4781,-0.9134463276836162
4782,-0.9134463276836162
4783,-0.9134463276836162
4784,-0.9134463276836162
4785,-0.9134463276836162
4786,0.69
4787,-0.9134463276836162
4788,-0.9134463276836162
4789,-0.9134463276836162
4790,-0.9134463276836162
4791,-0.9134463276836162
4792,-0.9134463276836162
4793,-0.9134463276836162
4794,-0.9134463276836162
4795,-0.9134463276836162
4796,-0.9134463276836162
4797,-0.9134463276836162
4798,1.15
4799,-0.9134463276836162
4800,-0.9134463276836162
4801,-0.9134463276836162
4802,-0.9134463276836162
4803,-0.9134463276836162
4804,-0.9134463276836162
4805,-0.9134463276836162
4806,-0.9134463276836162
4807,-0.9134463276836162
4808,-0.9134463276836162
4809,-0.9134463276836162
4810,0.61
4811,-0.9134463276836162
4812,-0.9134463276836162
4813,-0.9134463276836162
4814,-0.9134463276836162
4815,-0.9134463276836162
4816,-0.9134463276836162
4817,-0.9134463276836162
4818,-0.9134463276836162
4819,-0.9134463276836162
4820,-0.9134463276836162
4821,-0.9134463276836162
4822,-0.8
4823,-0.9134463276836162
4824,-0.9134463276836162
4825,-0.9134463276836162
4826,-0.9134463276836162
4827,-0.9134463276836162
4828,-0.9134463276836162
4829,-0.9134463276836162
4830,-0.9134463276836162
4831,-0.9134463276836162
4832,-0.9134463276836162
4833,-0.9134463276836162
4834,-2.4
4835,-0.9134463276836162
4836,-0.9134463276836162
4837,-0.9134463276836162
4838,-0.9134463276836162
4839,-0.9134463276836162
4840,-0.9134463276836162
4841,-0.9134463276836162
4842,-0.9134463276836162
4843,-0.9134463276836162
4844,-0.9134463276836162
4845,-0.9134463276836162
4846,-3.29
4847,-0.9134463276836162
4848,-0.9134463276836162
4849,-0.9134463276836162
4850,-0.9134463276836162
4851,-0.9134463276836162
4852,-0.9134463276836162
4853,-0.9134463276836162
4854,-0.9134463276836162
4855,-0.9134463276836162
4856,-0.9134463276836162
4857,-0.9134463276836162
4858,-2.76
4859,-0.9134463276836162
4860,-0.9134463276836162
4861,-0.9134463276836162
4862,-0.9134463276836162
4863,-0.9134463276836162
4864,-0.9134463276836162
4865,-0.9134463276836162
4866,-0.9134463276836162
4867,-0.9134463276836162
4868,-0.9134463276836162
4869,-0.9134463276836162
4870,-0.66
4871,-0.9134463276836162
4872,-0.9134463276836162
4873,-0.9134463276836162
4874,-0.9134463276836162
4875,-0.9134463276836162
4876,-0.9134463276836162
4877,-0.9134463276836162
4878,-0.9134463276836162
4879,-0.9134463276836162
4880,-0.9134463276836162
4881,-0.9134463276836162
4882,2.41
4883,-0.9134463276836162
4884,-0.9134463276836162
4885,-0.9134463276836162
4886,-0.9134463276836162
4887,-0.9134463276836162
4888,-0.9134463276836162
4889,-0.9134463276836162
4890,-0.9134463276836162
4891,-0.9134463276836162
4892,-0.9134463276836162
4893,-0.9134463276836162
4894,5.19
4895,-0.9134463276836162
4896,-0.9134463276836162
4897,-0.9134463276836162
4898,-0.9134463276836162
4899,-0.9134463276836162
4900,-0.9134463276836162
4901,-0.9134463276836162
4902,-0.9134463276836162
4903,-0.9134463276836162
4904,-0.9134463276836162
4905,6.18
4906,-0.9134463276836162
4907,-0.9134463276836162
4908,-0.9134463276836162
4909,-0.9134463276836162
4910,-0.9134463276836162
4911,-0.9134463276836162
4912,-0.9134463276836162
4913,-0.9134463276836162
4914,-0.9134463276836162
4915,-0.9134463276836162
4916,4.21
4917,-0.9134463276836162
4918,-0.9134463276836162
4919,-0.9134463276836162
4920,-0.9134463276836162
4921,-0.9134463276836162
4922,-0.9134463276836162
4923,-0.9134463276836162
4924,-0.9134463276836162
4925,-0.9134463276836162
4926,-0.9134463276836162
4927,-0.9134463276836162
4928,-0.99
4929,-0.9134463276836162
4930,-0.9134463276836162
4931,-0.9134463276836162
4932,-0.9134463276836162
4933,-0.9134463276836162
4934,-0.9134463276836162
4935,-0.9134463276836162
4936,-0.9134463276836162
4937,-0.9134463276836162
4938,-0.9134463276836162
4939,-0.9134463276836162
4940,-8.63
4941,-0.9134463276836162
4942,-0.9134463276836162
4943,-0.9134463276836162
4944,-0.9134463276836162
4945,-0.9134463276836162
4946,-0.9134463276836162
4947,-0.9134463276836162
4948,-0.9134463276836162
4949,-0.9134463276836162
4950,-0.9134463276836162
4951,-0.9134463276836162
4952,-16.98
4953,-0.9134463276836162
4954,-0.9134463276836162
4955,-0.9134463276836162
4956,-0.9134463276836162
4957,-0.9134463276836162
4958,-0.9134463276836162
4959,-0.9134463276836162
4960,-0.9134463276836162
4961,-0.9134463276836162
4962,-0.9134463276836162
4963,-0.9134463276836162
4964,-24.02
4965,-0.9134463276836162
4966,-0.9134463276836162
4967,-0.9134463276836162
4968,-0.9134463276836162
4969,-0.9134463276836162
4970,-0.9134463276836162
4971,-0.9134463276836162
4972,-0.9134463276836162
4973,-0.9134463276836162
4974,-0.9134463276836162
4975,-0.9134463276836162
4976,-28.11
4977,-0.9134463276836162
4978,-0.9134463276836162
4979,-0.9134463276836162
4980,-0.9134463276836162
4981,-0.9134463276836162
4982,-0.9134463276836162
4983,-0.9134463276836162
4984,-0.9134463276836162
4985,-0.9134463276836162
4986,-0.9134463276836162
4987,-0.9134463276836162
4988,-28.48
4989,-0.9134463276836162
4990,-0.9134463276836162
4991,-0.9134463276836162
4992,-0.9134463276836162
4993,-0.9134463276836162
4994,-0.9134463276836162
4995,-0.9134463276836162
4996,-0.9134463276836162
4997,-0.9134463276836162
4998,-0.9134463276836162
4999,-0.9134463276836162
5000,-25.33
5001,-0.9134463276836162
5002,-0.9134463276836162
5003,-0.9134463276836162
5004,-0.9134463276836162
5005,-0.9134463276836162
5006,-0.9134463276836162
5007,-0.9134463276836162
5008,-0.9134463276836162
5009,-0.9134463276836162
5010,-0.9134463276836162
5011,-0.9134463276836162
5012,-19.51
5013,-0.9134463276836162
5014,-0.9134463276836162
5015,-0.9134463276836162
5016,-0.9134463276836162
5017,-0.9134463276836162
5018,-0.9134463276836162
5019,-0.9134463276836162
5020,-0.9134463276836162
5021,-0.9134463276836162
5022,-0.9134463276836162
5023,-0.9134463276836162
5024,-12.07
5025,-0.9134463276836162
5026,-0.9134463276836162
5027,-0.9134463276836162
5028,-0.9134463276836162
5029,-0.9134463276836162
5030,-0.9134463276836162
5031,-0.9134463276836162
5032,-0.9134463276836162
5033,-0.9134463276836162
5034,-0.9134463276836162
5035,-0.9134463276836162
5036,-4.02
5037,-0.9134463276836162
5038,-0.9134463276836162
5039,-0.9134463276836162
5040,-0.9134463276836162
5041,-0.9134463276836162
5042,-0.9134463276836162
5043,-0.9134463276836162
5044,-0.9134463276836162
5045,-0.9134463276836162
5046,-0.9134463276836162
5047,-0.9134463276836162
5048,3.79
5049,-0.9134463276836162
5050,-0.9134463276836162
5051,-0.9134463276836162
5052,-0.9134463276836162
5053,-0.9134463276836162
5054,-0.9134463276836162
5055,-0.9134463276836162
5056,-0.9134463276836162
5057,-0.9134463276836162
5058,-0.9134463276836162
5059,-0.9134463276836162
5060,10.6
5061,-0.9134463276836162
5062,-0.9134463276836162
5063,-0.9134463276836162
5064,-0.9134463276836162
5065,-0.9134463276836162
5066,-0.9134463276836162
5067,-0.9134463276836162
5068,-0.9134463276836162
5069,-0.9134463276836162
5070,-0.9134463276836162
5071,-0.9134463276836162
5072,15.64
5073,-0.9134463276836162
5074,-0.9134463276836162
5075,-0.9134463276836162
5076,-0.9134463276836162
5077,-0.9134463276836162
5078,-0.9134463276836162
5079,-0.9134463276836162
5080,-0.9134463276836162
5081,-0.9134463276836162
5082,-0.9134463276836162
5083,-0.9134463276836162
5084,18.4
5085,-0.9134463276836162
5086,-0.9134463276836162
5087,-0.9134463276836162
5088,-0.9134463276836162
5089,-0.9134463276836162
5090,-0.9134463276836162
5091,-0.9134463276836162
5092,-0.9134463276836162
5093,-0.9134463276836162
5094,-0.9134463276836162
5095,18.75
5096,-0.9134463276836162
5097,-0.9134463276836162
5098,-0.9134463276836162
5099,-0.9134463276836162
5100,-0.9134463276836162
5101,-0.9134463276836162
5102,-0.9134463276836162
5103,-0.9134463276836162
5104,-0.9134463276836162
5105,-0.9134463276836162
5106,17.1
5107,-0.9134463276836162
5108,-0.9134463276836162
5109,-0.9134463276836162
5110,-0.9134463276836162
5111,-0.9134463276836162
5112,-0.9134463276836162
5113,-0.9134463276836162
5114,-0.9134463276836162
5115,-0.9134463276836162
5116,-0.9134463276836162
5117,-0.9134463276836162
5118,14.34
5119,-0.9134463276836162
5120,-0.9134463276836162
5121,-0.9134463276836162
5122,-0.9134463276836162
5123,-0.9134463276836162
5124,-0.9134463276836162
5125,-0.9134463276836162
5126,-0.9134463276836162
5127,-0.9134463276836162
5128,-0.9134463276836162
5129,-0.9134463276836162
5130,11.43
5131,-0.9134463276836162
5132,-0.9134463276836162
5133,-0.9134463276836162
5134,-0.9134463276836162
5135,-0.9134463276836162
5136,-0.9134463276836162
5137,-0.9134463276836162
5138,-0.9134463276836162
5139,-0.9134463276836162
5140,-0.9134463276836162
5141,-0.9134463276836162
5142,9.08
5143,-0.9134463276836162
5144,-0.9134463276836162
5145,-0.9134463276836162
5146,-0.9134463276836162
5147,-0.9134463276836162
5148,-0.9134463276836162
5149,-0.9134463276836162
5150,-0.9134463276836162
5151,-0.9134463276836162
5152,-0.9134463276836162
5153,-0.9134463276836162
5154,7.58
5155,-0.9134463276836162
5156,-0.9134463276836162
5157,-0.9134463276836162
5158,-0.9134463276836162
5159,-0.9134463276836162
5160,-0.9134463276836162
5161,-0.9134463276836162
5162,-0.9134463276836162
5163,-0.9134463276836162
5164,-0.9134463276836162
5165,-0.9134463276836162
5166,6.82
5167,-0.9134463276836162
5168,-0.9134463276836162
5169,-0.9134463276836162
5170,-0.9134463276836162
5171,-0.9134463276836162
5172,-0.9134463276836162
5173,-0.9134463276836162
5174,-0.9134463276836162
5175,-0.9134463276836162
5176,-0.9134463276836162
5177,-0.9134463276836162
5178,6.49
5179,-0.9134463276836162
5180,-0.9134463276836162
5181,-0.9134463276836162
5182,-0.9134463276836162
5183,-0.9134463276836162
5184,-0.9134463276836162
5185,-0.9134463276836162
5186,-0.9134463276836162
5187,-0.9134463276836162
5188,-0.9134463276836162
5189,-0.9134463276836162
5190,6.28
5191,-0.9134463276836162
5192,-0.9134463276836162
5193,-0.9134463276836162
5194,-0.9134463276836162
5195,-0.9134463276836162
5196,-0.9134463276836162
5197,-0.9134463276836162
5198,-0.9134463276836162
5199,-0.9134463276836162
5200,-0.9134463276836162
5201,-0.9134463276836162
5202,5.95
5203,-0.9134463276836162
5204,-0.9134463276836162
5205,-0.9134463276836162
5206,-0.9134463276836162
5207,-0.9134463276836162
5208,-0.9134463276836162
5209,-0.9134463276836162
5210,-0.9134463276836162
5211,-0.9134463276836162
5212,-0.9134463276836162
5213,-0.9134463276836162
5214,5.3
5215,-0.9134463276836162
5216,-0.9134463276836162
5217,-0.9134463276836162
5218,-0.9134463276836162
5219,-0.9134463276836162
5220,-0.9134463276836162
5221,-0.9134463276836162
5222,-0.9134463276836162
5223,-0.9134463276836162
5224,-0.9134463276836162
5225,-0.9134463276836162
5226,4.17
5227,-0.9134463276836162
5228,-0.9134463276836162
5229,-0.9134463276836162
5230,-0.9134463276836162
5231,-0.9134463276836162
5232,-0.9134463276836162
5233,-0.9134463276836162
5234,-0.9134463276836162
5235,-0.9134463276836162
5236,-0.9134463276836162
5237,-0.9134463276836162
5238,2.45
5239,-0.9134463276836162
5240,-0.9134463276836162
5241,-0.9134463276836162
5242,-0.9134463276836162
5243,-0.9134463276836162
5244,-0.9134463276836162
5245,-0.9134463276836162
5246,-0.9134463276836162
5247,-0.9134463276836162
5248,-0.9134463276836162
5249,-0.9134463276836162
5250,0.19
5251,-0.9134463276836162
5252,-0.9134463276836162
5253,-0.9134463276836162
5254,-0.9134463276836162
5255,-0.9134463276836162
5256,-0.9134463276836162
5257,-0.9134463276836162
5258,-0.9134463276836162
5259,-0.9134463276836162
5260,-0.9134463276836162
5261,-0.9134463276836162
5262,-2.29
5263,-0.9134463276836162
5264,-0.9134463276836162
5265,-0.9134463276836162
5266,-0.9134463276836162
5267,-0.9134463276836162
5268,-0.9134463276836162
5269,-0.9134463276836162
5270,-0.9134463276836162
5271,-0.9134463276836162
5272,-0.9134463276836162
5273,-0.9134463276836162
5274,-4.47
5275,-0.9134463276836162
5276,-0.9134463276836162
5277,-0.9134463276836162
5278,-0.9134463276836162
5279,-0.9134463276836162
5280,-0.9134463276836162
5281,-0.9134463276836162
5282,-0.9134463276836162
5283,-0.9134463276836162
5284,-0.9134463276836162
5285,-5.76
5286,-0.9134463276836162
5287,-0.9134463276836162
5288,-0.9134463276836162
5289,-0.9134463276836162
5290,-0.9134463276836162
5291,-0.9134463276836162
5292,-0.9134463276836162
5293,-0.9134463276836162
5294,-0.9134463276836162
5295,-0.9134463276836162
5296,-5.83
5297,-0.9134463276836162
5298,-0.9134463276836162
5299,-0.9134463276836162
5300,-0.9134463276836162
5301,-0.9134463276836162
5302,-0.9134463276836162
5303,-0.9134463276836162
5304,-0.9134463276836162
5305,-0.9134463276836162
5306,-0.9134463276836162
5307,-0.9134463276836162
5308,-4.7
5309,-0.9134463276836162
5310,-0.9134463276836162
5311,-0.9134463276836162
5312,-0.9134463276836162
5313,-0.9134463276836162
5314,-0.9134463276836162
5315,-0.9134463276836162
5316,-0.9134463276836162
5317,-0.9134463276836162
5318,-0.9134463276836162
5319,-0.9134463276836162
5320,-2.85
5321,-0.9134463276836162
5322,-0.9134463276836162
5323,-0.9134463276836162
5324,-0.9134463276836162
5325,-0.9134463276836162
5326,-0.9134463276836162
5327,-0.9134463276836162
5328,-0.9134463276836162
5329,-0.9134463276836162
5330,-0.9134463276836162
5331,-0.9134463276836162
5332,-0.94
5333,-0.9134463276836162
5334,-0.9134463276836162
5335,-0.9134463276836162
5336,-0.9134463276836162
5337,-0.9134463276836162
5338,-0.9134463276836162
5339,-0.9134463276836162
5340,-0.9134463276836162
5341,-0.9134463276836162
5342,-0.9134463276836162
5343,-0.9134463276836162
5344,0.36
5345,-0.9134463276836162
5346,-0.9134463276836162
5347,-0.9134463276836162
5348,-0.9134463276836162
5349,-0.9134463276836162
5350,-0.9134463276836162
5351,-0.9134463276836162
5352,-0.9134463276836162
5353,-0.9134463276836162
5354,-0.9134463276836162
5355,-0.9134463276836162
5356,0.73
5357,-0.9134463276836162
5358,-0.9134463276836162
5359,-0.9134463276836162
5360,-0.9134463276836162
5361,-0.9134463276836162
5362,-0.9134463276836162
5363,-0.9134463276836162
5364,-0.9134463276836162
5365,-0.9134463276836162
5366,-0.9134463276836162
5367,-0.9134463276836162
5368,0.18
5369,-0.9134463276836162
5370,-0.9134463276836162
5371,-0.9134463276836162
5372,-0.9134463276836162
5373,-0.9134463276836162
5374,-0.9134463276836162
5375,-0.9134463276836162
5376,-0.9134463276836162
5377,-0.9134463276836162
5378,-0.9134463276836162
5379,-0.9134463276836162
5380,-1.02
5381,-0.9134463276836162
5382,-0.9134463276836162
5383,-0.9134463276836162
5384,-0.9134463276836162
5385,-0.9134463276836162
5386,-0.9134463276836162
5387,-0.9134463276836162
5388,-0.9134463276836162
5389,-0.9134463276836162
5390,-0.9134463276836162
5391,-0.9134463276836162
5392,-2.68
5393,-0.9134463276836162
5394,-0.9134463276836162
5395,-0.9134463276836162
5396,-0.9134463276836162
5397,-0.9134463276836162
5398,-0.9134463276836162
5399,-0.9134463276836162
5400,-0.9134463276836162
5401,-0.9134463276836162
5402,-0.9134463276836162
5403,-0.9134463276836162
5404,-4.94
5405,-0.9134463276836162
5406,-0.9134463276836162
5407,-0.9134463276836162
5408,-0.9134463276836162
5409,-0.9134463276836162
5410,-0.9134463276836162
5411,-0.9134463276836162
5412,-0.9134463276836162
5413,-0.9134463276836162
5414,-0.9134463276836162
5415,-0.9134463276836162
5416,-8.45
5417,-0.9134463276836162
5418,-0.9134463276836162
5419,-0.9134463276836162
5420,-0.9134463276836162
5421,-0.9134463276836162
5422,-0.9134463276836162
5423,-0.9134463276836162
5424,-0.9134463276836162
5425,-0.9134463276836162
5426,-0.9134463276836162
5427,-0.9134463276836162
5428,-14.07
5429,-0.9134463276836162
5430,-0.9134463276836162
5431,-0.9134463276836162
5432,-0.9134463276836162
5433,-0.9134463276836162
5434,-0.9134463276836162
5435,-0.9134463276836162
5436,-0.9134463276836162
5437,-0.9134463276836162
5438,-0.9134463276836162
5439,-0.9134463276836162
5440,-22.44
5441,-0.9134463276836162
5442,-0.9134463276836162
5443,-0.9134463276836162
5444,-0.9134463276836162
5445,-0.9134463276836162
5446,-0.9134463276836162
5447,-0.9134463276836162
5448,-0.9134463276836162
5449,-0.9134463276836162
5450,-0.9134463276836162
5451,-0.9134463276836162
5452,-33.34
5453,-0.9134463276836162
5454,-0.9134463276836162
5455,-0.9134463276836162
5456,-0.9134463276836162
5457,-0.9134463276836162
5458,-0.9134463276836162
5459,-0.9134463276836162
5460,-0.9134463276836162
5461,-0.9134463276836162
5462,-0.9134463276836162
5463,-0.9134463276836162
5464,-45.39
5465,-0.9134463276836162
5466,-0.9134463276836162
5467,-0.9134463276836162
5468,-0.9134463276836162
5469,-0.9134463276836162
5470,-0.9134463276836162
5471,-0.9134463276836162
5472,-0.9134463276836162
5473,-0.9134463276836162
5474,-0.9134463276836162
5475,-56.15
5476,-0.9134463276836162
5477,-0.9134463276836162
5478,-0.9134463276836162
5479,-0.9134463276836162
5480,-0.9134463276836162
5481,-0.9134463276836162
5482,-0.9134463276836162
5483,-0.9134463276836162
5484,-0.9134463276836162
5485,-0.9134463276836162
5486,-62.89
5487,-0.9134463276836162
5488,-0.9134463276836162
5489,-0.9134463276836162
5490,-0.9134463276836162
5491,-0.9134463276836162
5492,-0.9134463276836162
5493,-0.9134463276836162
5494,-0.9134463276836162
5495,-0.9134463276836162
5496,-0.9134463276836162
5497,-0.9134463276836162
5498,-63.38
5499,-0.9134463276836162
5500,-0.9134463276836162
5501,-0.9134463276836162
5502,-0.9134463276836162
5503,-0.9134463276836162
5504,-0.9134463276836162
5505,-0.9134463276836162
5506,-0.9134463276836162
5507,-0.9134463276836162
5508,-0.9134463276836162
5509,-0.9134463276836162
5510,-56.8
5511,-0.9134463276836162
5512,-0.9134463276836162
5513,-0.9134463276836162
5514,-0.9134463276836162
5515,-0.9134463276836162
5516,-0.9134463276836162
5517,-0.9134463276836162
5518,-0.9134463276836162
5519,-0.9134463276836162
5520,-0.9134463276836162
5521,-0.9134463276836162
5522,-43.95
5523,-0.9134463276836162
5524,-0.9134463276836162
5525,-0.9134463276836162
5526,-0.9134463276836162
5527,-0.9134463276836162
5528,-0.9134463276836162
5529,-0.9134463276836162
5530,-0.9134463276836162
5531,-0.9134463276836162
5532,-0.9134463276836162
5533,-0.9134463276836162
5534,-27.02
5535,-0.9134463276836162
5536,-0.9134463276836162
5537,-0.9134463276836162
5538,-0.9134463276836162
5539,-0.9134463276836162
5540,-0.9134463276836162
5541,-0.9134463276836162
5542,-0.9134463276836162
5543,-0.9134463276836162
5544,-0.9134463276836162
5545,-0.9134463276836162
5546,-8.78
5547,-0.9134463276836162
5548,-0.9134463276836162
5549,-0.9134463276836162
5550,-0.9134463276836162
5551,-0.9134463276836162
5552,-0.9134463276836162
5553,-0.9134463276836162
5554,-0.9134463276836162
5555,-0.9134463276836162
5556,-0.9134463276836162
5557,-0.9134463276836162
5558,8.19
5559,-0.9134463276836162
5560,-0.9134463276836162
5561,-0.9134463276836162
5562,-0.9134463276836162
5563,-0.9134463276836162
5564,-0.9134463276836162
5565,-0.9134463276836162
5566,-0.9134463276836162
5567,-0.9134463276836162
5568,-0.9134463276836162
5569,-0.9134463276836162
5570,22.11
5571,-0.9134463276836162
5572,-0.9134463276836162
5573,-0.9134463276836162
5574,-0.9134463276836162
5575,-0.9134463276836162
5576,-0.9134463276836162
5577,-0.9134463276836162
5578,-0.9134463276836162
5579,-0.9134463276836162
5580,-0.9134463276836162
5581,-0.9134463276836162
5582,32.23
5583,-0.9134463276836162
5584,-0.9134463276836162
5585,-0.9134463276836162
5586,-0.9134463276836162
5587,-0.9134463276836162
5588,-0.9134463276836162
5589,-0.9134463276836162
5590,-0.9134463276836162
5591,-0.9134463276836162
5592,-0.9134463276836162
5593,-0.9134463276836162
5594,38.67
5595,-0.9134463276836162
5596,-0.9134463276836162
5597,-0.9134463276836162
5598,-0.9134463276836162
5599,-0.9134463276836162
5600,-0.9134463276836162
5601,-0.9134463276836162
5602,-0.9134463276836162
5603,-0.9134463276836162
5604,-0.9134463276836162
5605,-0.9134463276836162
5606,42.11
5607,-0.9134463276836162
5608,-0.9134463276836162
5609,-0.9134463276836162
5610,-0.9134463276836162
5611,-0.9134463276836162
5612,-0.9134463276836162
5613,-0.9134463276836162
5614,-0.9134463276836162
5615,-0.9134463276836162
5616,-0.9134463276836162
5617,-0.9134463276836162
5618,43.48
5619,-0.9134463276836162
5620,-0.9134463276836162
5621,-0.9134463276836162
5622,-0.9134463276836162
5623,-0.9134463276836162
5624,-0.9134463276836162
5625,-0.9134463276836162
5626,-0.9134463276836162
5627,-0.9134463276836162
5628,-0.9134463276836162
5629,-0.9134463276836162
5630,43.73
5631,-0.9134463276836162
5632,-0.9134463276836162
5633,-0.9134463276836162
5634,-0.9134463276836162
5635,-0.9134463276836162
5636,-0.9134463276836162
5637,-0.9134463276836162
5638,-0.9134463276836162
5639,-0.9134463276836162
5640,-0.9134463276836162
5641,-0.9134463276836162
5642,43.61
5643,-0.9134463276836162
5644,-0.9134463276836162
5645,-0.9134463276836162
5646,-0.9134463276836162
5647,-0.9134463276836162
5648,-0.9134463276836162
5649,-0.9134463276836162
5650,-0.9134463276836162
5651,-0.9134463276836162
5652,-0.9134463276836162
5653,-0.9134463276836162
5654,43.63
5655,-0.9134463276836162
5656,-0.9134463276836162
5657,-0.9134463276836162
5658,-0.9134463276836162
5659,-0.9134463276836162
5660,-0.9134463276836162
5661,-0.9134463276836162
5662,-0.9134463276836162
5663,-0.9134463276836162
5664,-0.9134463276836162
5665,43.87
5666,-0.9134463276836162
5667,-0.9134463276836162
5668,-0.9134463276836162
5669,-0.9134463276836162
5670,-0.9134463276836162
5671,-0.9134463276836162
5672,-0.9134463276836162
5673,-0.9134463276836162
5674,-0.9134463276836162
5675,-0.9134463276836162
5676,44.13
5677,-0.9134463276836162
5678,-0.9134463276836162
5679,-0.9134463276836162
5680,-0.9134463276836162
5681,-0.9134463276836162
5682,-0.9134463276836162
5683,-0.9134463276836162
5684,-0.9134463276836162
5685,-0.9134463276836162
5686,-0.9134463276836162
5687,-0.9134463276836162
5688,43.98
5689,-0.9134463276836162
5690,-0.9134463276836162
5691,-0.9134463276836162
5692,-0.9134463276836162
5693,-0.9134463276836162
5694,-0.9134463276836162
5695,-0.9134463276836162
5696,-0.9134463276836162
5697,-0.9134463276836162
5698,-0.9134463276836162
5699,-0.9134463276836162
5700,42.93
5701,-0.9134463276836162
5702,-0.9134463276836162
5703,-0.9134463276836162
5704,-0.9134463276836162
5705,-0.9134463276836162
5706,-0.9134463276836162
5707,-0.9134463276836162
5708,-0.9134463276836162
5709,-0.9134463276836162
5710,-0.9134463276836162
5711,-0.9134463276836162
5712,40.64
5713,-0.9134463276836162
5714,-0.9134463276836162
5715,-0.9134463276836162
5716,-0.9134463276836162
5717,-0.9134463276836162
5718,-0.9134463276836162
5719,-0.9134463276836162
5720,-0.9134463276836162
5721,-0.9134463276836162
5722,-0.9134463276836162
5723,-0.9134463276836162
5724,36.98
5725,-0.9134463276836162
5726,-0.9134463276836162
5727,-0.9134463276836162
5728,-0.9134463276836162
5729,-0.9134463276836162
5730,-0.9134463276836162
5731,-0.9134463276836162
5732,-0.9134463276836162
5733,-0.9134463276836162
5734,-0.9134463276836162
5735,-0.9134463276836162
5736,32.05
5737,-0.9134463276836162
5738,-0.9134463276836162
5739,-0.9134463276836162
5740,-0.9134463276836162
5741,-0.9134463276836162
5742,-0.9134463276836162
5743,-0.9134463276836162
5744,-0.9134463276836162
5745,-0.9134463276836162
5746,-0.9134463276836162
5747,-0.9134463276836162
5748,26.18
5749,-0.9134463276836162
5750,-0.9134463276836162
5751,-0.9134463276836162
5752,-0.9134463276836162
5753,-0.9134463276836162
5754,-0.9134463276836162
5755,-0.9134463276836162
5756,-0.9134463276836162
5757,-0.9134463276836162
5758,-0.9134463276836162
5759,-0.9134463276836162
5760,19.85
5761,-0.9134463276836162
5762,-0.9134463276836162
5763,-0.9134463276836162
5764,-0.9134463276836162
5765,-0.9134463276836162
5766,-0.9134463276836162
5767,-0.9134463276836162
5768,-0.9134463276836162
5769,-0.9134463276836162
5770,-0.9134463276836162
5771,-0.9134463276836162
5772,13.6
5773,-0.9134463276836162
5774,-0.9134463276836162
5775,-0.9134463276836162
5776,-0.9134463276836162
5777,-0.9134463276836162
5778,-0.9134463276836162
5779,-0.9134463276836162
5780,-0.9134463276836162
5781,-0.9134463276836162
5782,-0.9134463276836162
5783,-0.9134463276836162
5784,7.93
5785,-0.9134463276836162
5786,-0.9134463276836162
5787,-0.9134463276836162
5788,-0.9134463276836162
5789,-0.9134463276836162
5790,-0.9134463276836162
5791,-0.9134463276836162
5792,-0.9134463276836162
5793,-0.9134463276836162
5794,-0.9134463276836162
5795,-0.9134463276836162
5796,3.11
5797,-0.9134463276836162
5798,-0.9134463276836162
5799,-0.9134463276836162
5800,-0.9134463276836162
5801,-0.9134463276836162
5802,-0.9134463276836162
5803,-0.9134463276836162
5804,-0.9134463276836162
5805,-0.9134463276836162
5806,-0.9134463276836162
5807,-0.9134463276836162
5808,-0.82
5809,-0.9134463276836162
5810,-0.9134463276836162
5811,-0.9134463276836162
5812,-0.9134463276836162
5813,-0.9134463276836162
5814,-0.9134463276836162
5815,-0.9134463276836162
5816,-0.9134463276836162
5817,-0.9134463276836162
5818,-0.9134463276836162
5819,-0.9134463276836162
5820,-3.98
5821,-0.9134463276836162
5822,-0.9134463276836162
5823,-0.9134463276836162
5824,-0.9134463276836162
5825,-0.9134463276836162
5826,-0.9134463276836162
5827,-0.9134463276836162
5828,-0.9134463276836162
5829,-0.9134463276836162
5830,-0.9134463276836162
5831,-0.9134463276836162
5832,-6.47
5833,-0.9134463276836162
5834,-0.9134463276836162
5835,-0.9134463276836162
5836,-0.9134463276836162
5837,-0.9134463276836162
5838,-0.9134463276836162
5839,-0.9134463276836162
5840,-0.9134463276836162
5841,-0.9134463276836162
5842,-0.9134463276836162
5843,-0.9134463276836162
5844,-8.22
5845,-0.9134463276836162
5846,-0.9134463276836162
5847,-0.9134463276836162
5848,-0.9134463276836162
5849,-0.9134463276836162
5850,-0.9134463276836162
5851,-0.9134463276836162
5852,-0.9134463276836162
5853,-0.9134463276836162
5854,-0.9134463276836162
5855,-8.93
5856,-0.9134463276836162
5857,-0.9134463276836162
5858,-0.9134463276836162
5859,-0.9134463276836162
5860,-0.9134463276836162
5861,-0.9134463276836162
5862,-0.9134463276836162
5863,-0.9134463276836162
5864,-0.9134463276836162
5865,-0.9134463276836162
5866,-8.25
5867,-0.9134463276836162
5868,-0.9134463276836162
5869,-0.9134463276836162
5870,-0.9134463276836162
5871,-0.9134463276836162
5872,-0.9134463276836162
5873,-0.9134463276836162
5874,-0.9134463276836162
5875,-0.9134463276836162
5876,-0.9134463276836162
5877,-0.9134463276836162
5878,-6.21
5879,-0.9134463276836162
5880,-0.9134463276836162
5881,-0.9134463276836162
5882,-0.9134463276836162
5883,-0.9134463276836162
5884,-0.9134463276836162
5885,-0.9134463276836162
5886,-0.9134463276836162
5887,-0.9134463276836162
5888,-0.9134463276836162
5889,-0.9134463276836162
5890,-3.36
5891,-0.9134463276836162
5892,-0.9134463276836162
5893,-0.9134463276836162
5894,-0.9134463276836162
5895,-0.9134463276836162
5896,-0.9134463276836162
5897,-0.9134463276836162
5898,-0.9134463276836162
5899,-0.9134463276836162
5900,-0.9134463276836162
5901,-0.9134463276836162
5902,-0.85
5903,-0.9134463276836162
5904,-0.9134463276836162
5905,-0.9134463276836162
5906,-0.9134463276836162
5907,-0.9134463276836162
5908,-0.9134463276836162
5909,-0.9134463276836162
5910,-0.9134463276836162
5911,-0.9134463276836162
5912,-0.9134463276836162
5913,-0.9134463276836162
5914,-0.06
5915,-0.9134463276836162
5916,-0.9134463276836162
5917,-0.9134463276836162
5918,-0.9134463276836162
5919,-0.9134463276836162
5920,-0.9134463276836162
5921,-0.9134463276836162
5922,-0.9134463276836162
5923,-0.9134463276836162
5924,-0.9134463276836162
5925,-0.9134463276836162
5926,-2.16
5927,-0.9134463276836162
5928,-0.9134463276836162
5929,-0.9134463276836162
5930,-0.9134463276836162
5931,-0.9134463276836162
5932,-0.9134463276836162
5933,-0.9134463276836162
5934,-0.9134463276836162
5935,-0.9134463276836162
5936,-0.9134463276836162
5937,-0.9134463276836162
5938,-7.6
5939,-0.9134463276836162
5940,-0.9134463276836162
5941,-0.9134463276836162
5942,-0.9134463276836162
5943,-0.9134463276836162
5944,-0.9134463276836162
5945,-0.9134463276836162
5946,-0.9134463276836162
5947,-0.9134463276836162
5948,-0.9134463276836162
5949,-0.9134463276836162
5950,-15.89
5951,-0.9134463276836162
5952,-0.9134463276836162
5953,-0.9134463276836162
5954,-0.9134463276836162
5955,-0.9134463276836162
5956,-0.9134463276836162
5957,-0.9134463276836162
5958,-0.9134463276836162
5959,-0.9134463276836162
5960,-0.9134463276836162
5961,-0.9134463276836162
5962,-25.68
5963,-0.9134463276836162
5964,-0.9134463276836162
5965,-0.9134463276836162
5966,-0.9134463276836162
5967,-0.9134463276836162
5968,-0.9134463276836162
5969,-0.9134463276836162
5970,-0.9134463276836162
5971,-0.9134463276836162
5972,-0.9134463276836162
5973,-0.9134463276836162
5974,-35.08
5975,-0.9134463276836162
5976,-0.9134463276836162
5977,-0.9134463276836162
5978,-0.9134463276836162
5979,-0.9134463276836162
5980,-0.9134463276836162
5981,-0.9134463276836162
5982,-0.9134463276836162
5983,-0.9134463276836162
5984,-0.9134463276836162
5985,-0.9134463276836162
5986,-42.1
5987,-0.9134463276836162
5988,-0.9134463276836162
5989,-0.9134463276836162
5990,-0.9134463276836162
5991,-0.9134463276836162
5992,-0.9134463276836162
5993,-0.9134463276836162
5994,-0.9134463276836162
5995,-0.9134463276836162
5996,-0.9134463276836162
5997,-0.9134463276836162
5998,-45.09
5999,-0.9134463276836162
6000,-0.9134463276836162
6001,-0.9134463276836162
6002,-0.9134463276836162
6003,-0.9134463276836162
6004,-0.9134463276836162
6005,-0.9134463276836162
6006,-0.9134463276836162
6007,-0.9134463276836162
6008,-0.9134463276836162
6009,-0.9134463276836162
6010,-43.13
6011,-0.9134463276836162
6012,-0.9134463276836162
6013,-0.9134463276836162
6014,-0.9134463276836162
6015,-0.9134463276836162
6016,-0.9134463276836162
6017,-0.9134463276836162
6018,-0.9134463276836162
6019,-0.9134463276836162
6020,-0.9134463276836162
6021,-0.9134463276836162
6022,-36.23
6023,-0.9134463276836162
6024,-0.9134463276836162
6025,-0.9134463276836162
6026,-0.9134463276836162
6027,-0.9134463276836162
6028,-0.9134463276836162
6029,-0.9134463276836162
6030,-0.9134463276836162
6031,-0.9134463276836162
6032,-0.9134463276836162
6033,-0.9134463276836162
6034,-25.3
6035,-0.9134463276836162
6036,-0.9134463276836162
6037,-0.9134463276836162
6038,-0.9134463276836162
6039,-0.9134463276836162
6040,-0.9134463276836162
6041,-0.9134463276836162
6042,-0.9134463276836162
6043,-0.9134463276836162
6044,-0.9134463276836162
6045,-11.95
6046,-0.9134463276836162
6047,-0.9134463276836162
6048,-0.9134463276836162
6049,-0.9134463276836162
6050,-0.9134463276836162
6051,-0.9134463276836162
6052,-0.9134463276836162
6053,-0.9134463276836162
6054,-0.9134463276836162
6055,-0.9134463276836162
6056,1.88
6057,-0.9134463276836162
6058,-0.9134463276836162
6059,-0.9134463276836162
6060,-0.9134463276836162
6061,-0.9134463276836162
6062,-0.9134463276836162
6063,-0.9134463276836162
6064,-0.9134463276836162
6065,-0.9134463276836162
6066,-0.9134463276836162
6067,-0.9134463276836162
6068,14.42
6069,-0.9134463276836162
6070,-0.9134463276836162
6071,-0.9134463276836162
6072,-0.9134463276836162
6073,-0.9134463276836162
6074,-0.9134463276836162
6075,-0.9134463276836162
6076,-0.9134463276836162
6077,-0.9134463276836162
6078,-0.9134463276836162
6079,-0.9134463276836162
6080,24.38
6081,-0.9134463276836162
6082,-0.9134463276836162
6083,-0.9134463276836162
6084,-0.9134463276836162
6085,-0.9134463276836162
6086,-0.9134463276836162
6087,-0.9134463276836162
6088,-0.9134463276836162
6089,-0.9134463276836162
6090,-0.9134463276836162
6091,-0.9134463276836162
6092,31.11
6093,-0.9134463276836162
6094,-0.9134463276836162
6095,-0.9134463276836162
6096,-0.9134463276836162
6097,-0.9134463276836162
6098,-0.9134463276836162
6099,-0.9134463276836162
6100,-0.9134463276836162
6101,-0.9134463276836162
6102,-0.9134463276836162
6103,-0.9134463276836162
6104,34.54
6105,-0.9134463276836162
6106,-0.9134463276836162
6107,-0.9134463276836162
6108,-0.9134463276836162
6109,-0.9134463276836162
6110,-0.9134463276836162
6111,-0.9134463276836162
6112,-0.9134463276836162
6113,-0.9134463276836162
6114,-0.9134463276836162
6115,-0.9134463276836162
6116,35.0
6117,-0.9134463276836162
6118,-0.9134463276836162
6119,-0.9134463276836162
6120,-0.9134463276836162
6121,-0.9134463276836162
6122,-0.9134463276836162
6123,-0.9134463276836162
6124,-0.9134463276836162
6125,-0.9134463276836162
6126,-0.9134463276836162
6127,-0.9134463276836162
6128,33.09
6129,-0.9134463276836162
6130,-0.9134463276836162
6131,-0.9134463276836162
6132,-0.9134463276836162
6133,-0.9134463276836162
6134,-0.9134463276836162
6135,-0.9134463276836162
6136,-0.9134463276836162
6137,-0.9134463276836162
6138,-0.9134463276836162
6139,-0.9134463276836162
6140,29.56
6141,-0.9134463276836162
6142,-0.9134463276836162
6143,-0.9134463276836162
6144,-0.9134463276836162
6145,-0.9134463276836162
6146,-0.9134463276836162
6147,-0.9134463276836162
6148,-0.9134463276836162
6149,-0.9134463276836162
6150,-0.9134463276836162
6151,-0.9134463276836162
6152,25.17
6153,-0.9134463276836162
6154,-0.9134463276836162
6155,-0.9134463276836162
6156,-0.9134463276836162
6157,-0.9134463276836162
6158,-0.9134463276836162
6159,-0.9134463276836162
6160,-0.9134463276836162
6161,-0.9134463276836162
6162,-0.9134463276836162
6163,-0.9134463276836162
6164,20.7
6165,-0.9134463276836162
6166,-0.9134463276836162
6167,-0.9134463276836162
6168,-0.9134463276836162
6169,-0.9134463276836162
6170,-0.9134463276836162
6171,-0.9134463276836162
6172,-0.9134463276836162
6173,-0.9134463276836162
6174,-0.9134463276836162
6175,-0.9134463276836162
6176,16.79
6177,-0.9134463276836162
6178,-0.9134463276836162
6179,-0.9134463276836162
6180,-0.9134463276836162
6181,-0.9134463276836162
6182,-0.9134463276836162
6183,-0.9134463276836162
6184,-0.9134463276836162
6185,-0.9134463276836162
6186,-0.9134463276836162
6187,-0.9134463276836162
6188,13.84
6189,-0.9134463276836162
6190,-0.9134463276836162
6191,-0.9134463276836162
6192,-0.9134463276836162
6193,-0.9134463276836162
6194,-0.9134463276836162
6195,-0.9134463276836162
6196,-0.9134463276836162
6197,-0.9134463276836162
6198,-0.9134463276836162
6199,-0.9134463276836162
6200,11.97
6201,-0.9134463276836162
6202,-0.9134463276836162
6203,-0.9134463276836162
6204,-0.9134463276836162
6205,-0.9134463276836162
6206,-0.9134463276836162
6207,-0.9134463276836162
6208,-0.9134463276836162
6209,-0.9134463276836162
6210,-0.9134463276836162
6211,-0.9134463276836162
6212,11.1
6213,-0.9134463276836162
6214,-0.9134463276836162
6215,-0.9134463276836162
6216,-0.9134463276836162
6217,-0.9134463276836162
6218,-0.9134463276836162
6219,-0.9134463276836162
6220,-0.9134463276836162
6221,-0.9134463276836162
6222,-0.9134463276836162
6223,-0.9134463276836162
6224,11.03
6225,-0.9134463276836162
6226,-0.9134463276836162
6227,-0.9134463276836162
6228,-0.9134463276836162
6229,-0.9134463276836162
6230,-0.9134463276836162
6231,-0.9134463276836162
6232,-0.9134463276836162
6233,-0.9134463276836162
6234,-0.9134463276836162
6235,11.58
6236,-0.9134463276836162
6237,-0.9134463276836162
6238,-0.9134463276836162
6239,-0.9134463276836162
6240,-0.9134463276836162
6241,-0.9134463276836162
6242,-0.9134463276836162
6243,-0.9134463276836162
6244,-0.9134463276836162
6245,-0.9134463276836162
6246,12.61
6247,-0.9134463276836162
6248,-0.9134463276836162
6249,-0.9134463276836162
6250,-0.9134463276836162
6251,-0.9134463276836162
6252,-0.9134463276836162
6253,-0.9134463276836162
6254,-0.9134463276836162
6255,-0.9134463276836162
6256,-0.9134463276836162
6257,-0.9134463276836162
6258,13.98
6259,-0.9134463276836162
6260,-0.9134463276836162
6261,-0.9134463276836162
6262,-0.9134463276836162
6263,-0.9134463276836162
6264,-0.9134463276836162
6265,-0.9134463276836162
6266,-0.9134463276836162
6267,-0.9134463276836162
6268,-0.9134463276836162
6269,-0.9134463276836162
6270,15.54
6271,-0.9134463276836162
6272,-0.9134463276836162
6273,-0.9134463276836162
6274,-0.9134463276836162
6275,-0.9134463276836162
6276,-0.9134463276836162
6277,-0.9134463276836162
6278,-0.9134463276836162
6279,-0.9134463276836162
6280,-0.9134463276836162
6281,-0.9134463276836162
6282,17.1
6283,-0.9134463276836162
6284,-0.9134463276836162
6285,-0.9134463276836162
6286,-0.9134463276836162
6287,-0.9134463276836162
6288,-0.9134463276836162
6289,-0.9134463276836162
6290,-0.9134463276836162
6291,-0.9134463276836162
6292,-0.9134463276836162
6293,-0.9134463276836162
6294,18.46
6295,-0.9134463276836162
6296,-0.9134463276836162
6297,-0.9134463276836162
6298,-0.9134463276836162
6299,-0.9134463276836162
