second,BVP
2100,3.602598870056496
2101,3.602598870056496
2102,3.602598870056496
2103,125.87
2104,3.602598870056496
2105,3.602598870056496
2106,3.602598870056496
2107,3.602598870056496
2108,3.602598870056496
2109,3.602598870056496
2110,3.602598870056496
2111,3.602598870056496
2112,3.602598870056496
2113,3.602598870056496
2114,3.602598870056496
2115,115.21
2116,3.602598870056496
2117,3.602598870056496
2118,3.602598870056496
2119,3.602598870056496
2120,3.602598870056496
2121,3.602598870056496
2122,3.602598870056496
2123,3.602598870056496
2124,3.602598870056496
2125,3.602598870056496
2126,3.602598870056496
2127,103.03
2128,3.602598870056496
2129,3.602598870056496
2130,3.602598870056496
2131,3.602598870056496
2132,3.602598870056496
2133,3.602598870056496
2134,3.602598870056496
2135,3.602598870056496
2136,3.602598870056496
2137,3.602598870056496
2138,3.602598870056496
2139,89.89
2140,3.602598870056496
2141,3.602598870056496
2142,3.602598870056496
2143,3.602598870056496
2144,3.602598870056496
2145,3.602598870056496
2146,3.602598870056496
2147,3.602598870056496
2148,3.602598870056496
2149,3.602598870056496
2150,3.602598870056496
2151,77.12
2152,3.602598870056496
2153,3.602598870056496
2154,3.602598870056496
2155,3.602598870056496
2156,3.602598870056496
2157,3.602598870056496
2158,3.602598870056496
2159,3.602598870056496
2160,3.602598870056496
2161,3.602598870056496
2162,3.602598870056496
2163,65.85
2164,3.602598870056496
2165,3.602598870056496
2166,3.602598870056496
2167,3.602598870056496
2168,3.602598870056496
2169,3.602598870056496
2170,3.602598870056496
2171,3.602598870056496
2172,3.602598870056496
2173,3.602598870056496
2174,3.602598870056496
2175,56.05
2176,3.602598870056496
2177,3.602598870056496
2178,3.602598870056496
2179,3.602598870056496
2180,3.602598870056496
2181,3.602598870056496
2182,3.602598870056496
2183,3.602598870056496
2184,3.602598870056496
2185,3.602598870056496
2186,3.602598870056496
2187,46.04
2188,3.602598870056496
2189,3.602598870056496
2190,3.602598870056496
2191,3.602598870056496
2192,3.602598870056496
2193,3.602598870056496
2194,3.602598870056496
2195,3.602598870056496
2196,3.602598870056496
2197,3.602598870056496
2198,3.602598870056496
2199,33.19
2200,3.602598870056496
2201,3.602598870056496
2202,3.602598870056496
2203,3.602598870056496
2204,3.602598870056496
2205,3.602598870056496
2206,3.602598870056496
2207,3.602598870056496
2208,3.602598870056496
2209,3.602598870056496
2210,3.602598870056496
2211,15.31
2212,3.602598870056496
2213,3.602598870056496
2214,3.602598870056496
2215,3.602598870056496
2216,3.602598870056496
2217,3.602598870056496
2218,3.602598870056496
2219,3.602598870056496
2220,3.602598870056496
2221,3.602598870056496
2222,3.602598870056496
2223,-7.85
2224,3.602598870056496
2225,3.602598870056496
2226,3.602598870056496
2227,3.602598870056496
2228,3.602598870056496
2229,3.602598870056496
2230,3.602598870056496
2231,3.602598870056496
2232,3.602598870056496
2233,3.602598870056496
2234,3.602598870056496
2235,-34.02
2236,3.602598870056496
2237,3.602598870056496
2238,3.602598870056496
2239,3.602598870056496
2240,3.602598870056496
2241,3.602598870056496
2242,3.602598870056496
2243,3.602598870056496
2244,3.602598870056496
2245,3.602598870056496
2246,-58.97
2247,3.602598870056496
2248,3.602598870056496
2249,3.602598870056496
2250,3.602598870056496
2251,3.602598870056496
2252,3.602598870056496
2253,3.602598870056496
2254,3.602598870056496
2255,3.602598870056496
2256,3.602598870056496
2257,-78.3
2258,3.602598870056496
2259,3.602598870056496
2260,3.602598870056496
2261,3.602598870056496
2262,3.602598870056496
2263,3.602598870056496
2264,3.602598870056496
2265,3.602598870056496
2266,3.602598870056496
2267,3.602598870056496
2268,3.602598870056496
2269,-89.2
2270,3.602598870056496
2271,3.602598870056496
2272,3.602598870056496
2273,3.602598870056496
2274,3.602598870056496
2275,3.602598870056496
2276,3.602598870056496
2277,3.602598870056496
2278,3.602598870056496
2279,3.602598870056496
2280,3.602598870056496
2281,-91.63
2282,3.602598870056496
2283,3.602598870056496
2284,3.602598870056496
2285,3.602598870056496
2286,3.602598870056496
2287,3.602598870056496
2288,3.602598870056496
2289,3.602598870056496
2290,3.602598870056496
2291,3.602598870056496
2292,3.602598870056496
2293,-88.2
2294,3.602598870056496
2295,3.602598870056496
2296,3.602598870056496
2297,3.602598870056496
2298,3.602598870056496
2299,3.602598870056496
2300,3.602598870056496
2301,3.602598870056496
2302,3.602598870056496
2303,3.602598870056496
2304,3.602598870056496
2305,-83.06
2306,3.602598870056496
2307,3.602598870056496
2308,3.602598870056496
2309,3.602598870056496
2310,3.602598870056496
2311,3.602598870056496
2312,3.602598870056496
2313,3.602598870056496
2314,3.602598870056496
2315,3.602598870056496
2316,3.602598870056496
2317,-80.29
2318,3.602598870056496
2319,3.602598870056496
2320,3.602598870056496
2321,3.602598870056496
2322,3.602598870056496
2323,3.602598870056496
2324,3.602598870056496
2325,3.602598870056496
2326,3.602598870056496
2327,3.602598870056496
2328,3.602598870056496
2329,-82.71
2330,3.602598870056496
2331,3.602598870056496
2332,3.602598870056496
2333,3.602598870056496
2334,3.602598870056496
2335,3.602598870056496
2336,3.602598870056496
2337,3.602598870056496
2338,3.602598870056496
2339,3.602598870056496
2340,3.602598870056496
2341,-91.24
2342,3.602598870056496
2343,3.602598870056496
2344,3.602598870056496
2345,3.602598870056496
2346,3.602598870056496
2347,3.602598870056496
2348,3.602598870056496
2349,3.602598870056496
2350,3.602598870056496
2351,3.602598870056496
2352,3.602598870056496
2353,-105.09
2354,3.602598870056496
2355,3.602598870056496
2356,3.602598870056496
2357,3.602598870056496
2358,3.602598870056496
2359,3.602598870056496
2360,3.602598870056496
2361,3.602598870056496
2362,3.602598870056496
2363,3.602598870056496
2364,3.602598870056496
2365,-122.37
2366,3.602598870056496
2367,3.602598870056496
2368,3.602598870056496
2369,3.602598870056496
2370,3.602598870056496
2371,3.602598870056496
2372,3.602598870056496
2373,3.602598870056496
2374,3.602598870056496
2375,3.602598870056496
2376,3.602598870056496
2377,-140.75
2378,3.602598870056496
2379,3.602598870056496
2380,3.602598870056496
2381,3.602598870056496
2382,3.602598870056496
2383,3.602598870056496
2384,3.602598870056496
2385,3.602598870056496
2386,3.602598870056496
2387,3.602598870056496
2388,3.602598870056496
2389,-158.06
2390,3.602598870056496
2391,3.602598870056496
2392,3.602598870056496
2393,3.602598870056496
2394,3.602598870056496
2395,3.602598870056496
2396,3.602598870056496
2397,3.602598870056496
2398,3.602598870056496
2399,3.602598870056496
2400,3.602598870056496
2401,-172.6
2402,3.602598870056496
2403,3.602598870056496
2404,3.602598870056496
2405,3.602598870056496
2406,3.602598870056496
2407,3.602598870056496
2408,3.602598870056496
2409,3.602598870056496
2410,3.602598870056496
2411,3.602598870056496
2412,3.602598870056496
2413,-183.39
2414,3.602598870056496
2415,3.602598870056496
2416,3.602598870056496
2417,3.602598870056496
2418,3.602598870056496
2419,3.602598870056496
2420,3.602598870056496
2421,3.602598870056496
2422,3.602598870056496
2423,3.602598870056496
2424,3.602598870056496
2425,-190.08
2426,3.602598870056496
2427,3.602598870056496
2428,3.602598870056496
2429,3.602598870056496
2430,3.602598870056496
2431,3.602598870056496
2432,3.602598870056496
2433,3.602598870056496
2434,3.602598870056496
2435,3.602598870056496
2436,-192.93
2437,3.602598870056496
2438,3.602598870056496
2439,3.602598870056496
2440,3.602598870056496
2441,3.602598870056496
2442,3.602598870056496
2443,3.602598870056496
2444,3.602598870056496
2445,3.602598870056496
2446,3.602598870056496
2447,-192.65
2448,3.602598870056496
2449,3.602598870056496
2450,3.602598870056496
2451,3.602598870056496
2452,3.602598870056496
2453,3.602598870056496
2454,3.602598870056496
2455,3.602598870056496
2456,3.602598870056496
2457,3.602598870056496
2458,3.602598870056496
2459,-190.26
2460,3.602598870056496
2461,3.602598870056496
2462,3.602598870056496
2463,3.602598870056496
2464,3.602598870056496
2465,3.602598870056496
2466,3.602598870056496
2467,3.602598870056496
2468,3.602598870056496
2469,3.602598870056496
2470,3.602598870056496
2471,-186.96
2472,3.602598870056496
2473,3.602598870056496
2474,3.602598870056496
2475,3.602598870056496
2476,3.602598870056496
2477,3.602598870056496
2478,3.602598870056496
2479,3.602598870056496
2480,3.602598870056496
2481,3.602598870056496
2482,3.602598870056496
2483,-184.11
2484,3.602598870056496
2485,3.602598870056496
2486,3.602598870056496
2487,3.602598870056496
2488,3.602598870056496
2489,3.602598870056496
2490,3.602598870056496
2491,3.602598870056496
2492,3.602598870056496
2493,3.602598870056496
2494,3.602598870056496
2495,-182.94
2496,3.602598870056496
2497,3.602598870056496
2498,3.602598870056496
2499,3.602598870056496
2500,3.602598870056496
2501,3.602598870056496
2502,3.602598870056496
2503,3.602598870056496
2504,3.602598870056496
2505,3.602598870056496
2506,3.602598870056496
2507,-184.32
2508,3.602598870056496
2509,3.602598870056496
2510,3.602598870056496
2511,3.602598870056496
2512,3.602598870056496
2513,3.602598870056496
2514,3.602598870056496
2515,3.602598870056496
2516,3.602598870056496
2517,3.602598870056496
2518,3.602598870056496
2519,-188.51
2520,3.602598870056496
2521,3.602598870056496
2522,3.602598870056496
2523,3.602598870056496
2524,3.602598870056496
2525,3.602598870056496
2526,3.602598870056496
2527,3.602598870056496
2528,3.602598870056496
2529,3.602598870056496
2530,3.602598870056496
2531,-195.04
2532,3.602598870056496
2533,3.602598870056496
2534,3.602598870056496
2535,3.602598870056496
2536,3.602598870056496
2537,3.602598870056496
2538,3.602598870056496
2539,3.602598870056496
2540,3.602598870056496
2541,3.602598870056496
2542,3.602598870056496
2543,-202.92
2544,3.602598870056496
2545,3.602598870056496
2546,3.602598870056496
2547,3.602598870056496
2548,3.602598870056496
2549,3.602598870056496
2550,3.602598870056496
2551,3.602598870056496
2552,3.602598870056496
2553,3.602598870056496
2554,3.602598870056496
2555,-211.05
2556,3.602598870056496
2557,3.602598870056496
2558,3.602598870056496
2559,3.602598870056496
2560,3.602598870056496
2561,3.602598870056496
2562,3.602598870056496
2563,3.602598870056496
2564,3.602598870056496
2565,3.602598870056496
2566,3.602598870056496
2567,-218.59
2568,3.602598870056496
2569,3.602598870056496
2570,3.602598870056496
2571,3.602598870056496
2572,3.602598870056496
2573,3.602598870056496
2574,3.602598870056496
2575,3.602598870056496
2576,3.602598870056496
2577,3.602598870056496
2578,3.602598870056496
2579,-225.06
2580,3.602598870056496
2581,3.602598870056496
2582,3.602598870056496
2583,3.602598870056496
2584,3.602598870056496
2585,3.602598870056496
2586,3.602598870056496
2587,3.602598870056496
2588,3.602598870056496
2589,3.602598870056496
2590,3.602598870056496
2591,-230.03
2592,3.602598870056496
2593,3.602598870056496
2594,3.602598870056496
2595,3.602598870056496
2596,3.602598870056496
2597,3.602598870056496
2598,3.602598870056496
2599,3.602598870056496
2600,3.602598870056496
2601,3.602598870056496
2602,3.602598870056496
2603,-232.61
2604,3.602598870056496
2605,3.602598870056496
2606,3.602598870056496
2607,3.602598870056496
2608,3.602598870056496
2609,3.602598870056496
2610,3.602598870056496
2611,3.602598870056496
2612,3.602598870056496
2613,3.602598870056496
2614,3.602598870056496
2615,-231.24
2616,3.602598870056496
2617,3.602598870056496
2618,3.602598870056496
2619,3.602598870056496
2620,3.602598870056496
2621,3.602598870056496
2622,3.602598870056496
2623,3.602598870056496
2624,3.602598870056496
2625,3.602598870056496
2626,-223.96
2627,3.602598870056496
2628,3.602598870056496
2629,3.602598870056496
2630,3.602598870056496
2631,3.602598870056496
2632,3.602598870056496
2633,3.602598870056496
2634,3.602598870056496
2635,3.602598870056496
2636,3.602598870056496
2637,-209.1
2638,3.602598870056496
2639,3.602598870056496
2640,3.602598870056496
2641,3.602598870056496
2642,3.602598870056496
2643,3.602598870056496
2644,3.602598870056496
2645,3.602598870056496
2646,3.602598870056496
2647,3.602598870056496
2648,3.602598870056496
2649,-185.95
2650,3.602598870056496
2651,3.602598870056496
2652,3.602598870056496
2653,3.602598870056496
2654,3.602598870056496
2655,3.602598870056496
2656,3.602598870056496
2657,3.602598870056496
2658,3.602598870056496
2659,3.602598870056496
2660,3.602598870056496
2661,-155.17
2662,3.602598870056496
2663,3.602598870056496
2664,3.602598870056496
2665,3.602598870056496
2666,3.602598870056496
2667,3.602598870056496
2668,3.602598870056496
2669,3.602598870056496
2670,3.602598870056496
2671,3.602598870056496
2672,3.602598870056496
2673,-118.68
2674,3.602598870056496
2675,3.602598870056496
2676,3.602598870056496
2677,3.602598870056496
2678,3.602598870056496
2679,3.602598870056496
2680,3.602598870056496
2681,3.602598870056496
2682,3.602598870056496
2683,3.602598870056496
2684,3.602598870056496
2685,-79.2
2686,3.602598870056496
2687,3.602598870056496
2688,3.602598870056496
2689,3.602598870056496
2690,3.602598870056496
2691,3.602598870056496
2692,3.602598870056496
2693,3.602598870056496
2694,3.602598870056496
2695,3.602598870056496
2696,3.602598870056496
2697,-39.69
2698,3.602598870056496
2699,3.602598870056496
2700,3.602598870056496
2701,3.602598870056496
2702,3.602598870056496
2703,3.602598870056496
2704,3.602598870056496
2705,3.602598870056496
2706,3.602598870056496
2707,3.602598870056496
2708,3.602598870056496
2709,-2.86
2710,3.602598870056496
2711,3.602598870056496
2712,3.602598870056496
2713,3.602598870056496
2714,3.602598870056496
2715,3.602598870056496
2716,3.602598870056496
2717,3.602598870056496
2718,3.602598870056496
2719,3.602598870056496
2720,3.602598870056496
2721,29.16
2722,3.602598870056496
2723,3.602598870056496
2724,3.602598870056496
2725,3.602598870056496
2726,3.602598870056496
2727,3.602598870056496
2728,3.602598870056496
2729,3.602598870056496
2730,3.602598870056496
2731,3.602598870056496
2732,3.602598870056496
2733,55.3
2734,3.602598870056496
2735,3.602598870056496
2736,3.602598870056496
2737,3.602598870056496
2738,3.602598870056496
2739,3.602598870056496
2740,3.602598870056496
2741,3.602598870056496
2742,3.602598870056496
2743,3.602598870056496
2744,3.602598870056496
2745,75.93
2746,3.602598870056496
2747,3.602598870056496
2748,3.602598870056496
2749,3.602598870056496
2750,3.602598870056496
2751,3.602598870056496
2752,3.602598870056496
2753,3.602598870056496
2754,3.602598870056496
2755,3.602598870056496
2756,3.602598870056496
2757,92.7
2758,3.602598870056496
2759,3.602598870056496
2760,3.602598870056496
2761,3.602598870056496
2762,3.602598870056496
2763,3.602598870056496
2764,3.602598870056496
2765,3.602598870056496
2766,3.602598870056496
2767,3.602598870056496
2768,3.602598870056496
2769,107.88
2770,3.602598870056496
2771,3.602598870056496
2772,3.602598870056496
2773,3.602598870056496
2774,3.602598870056496
2775,3.602598870056496
2776,3.602598870056496
2777,3.602598870056496
2778,3.602598870056496
2779,3.602598870056496
2780,3.602598870056496
2781,123.22
2782,3.602598870056496
2783,3.602598870056496
2784,3.602598870056496
2785,3.602598870056496
2786,3.602598870056496
2787,3.602598870056496
2788,3.602598870056496
2789,3.602598870056496
2790,3.602598870056496
2791,3.602598870056496
2792,3.602598870056496
2793,138.93
2794,3.602598870056496
2795,3.602598870056496
2796,3.602598870056496
2797,3.602598870056496
2798,3.602598870056496
2799,3.602598870056496
2800,3.602598870056496
2801,3.602598870056496
2802,3.602598870056496
2803,3.602598870056496
2804,3.602598870056496
2805,153.33
2806,3.602598870056496
2807,3.602598870056496
2808,3.602598870056496
2809,3.602598870056496
2810,3.602598870056496
2811,3.602598870056496
2812,3.602598870056496
2813,3.602598870056496
2814,3.602598870056496
2815,3.602598870056496
2816,163.52
2817,3.602598870056496
2818,3.602598870056496
2819,3.602598870056496
2820,3.602598870056496
2821,3.602598870056496
2822,3.602598870056496
2823,3.602598870056496
2824,3.602598870056496
2825,3.602598870056496
2826,3.602598870056496
2827,166.95
2828,3.602598870056496
2829,3.602598870056496
2830,3.602598870056496
2831,3.602598870056496
2832,3.602598870056496
2833,3.602598870056496
2834,3.602598870056496
2835,3.602598870056496
2836,3.602598870056496
2837,3.602598870056496
2838,3.602598870056496
2839,163.31
2840,3.602598870056496
2841,3.602598870056496
2842,3.602598870056496
2843,3.602598870056496
2844,3.602598870056496
2845,3.602598870056496
2846,3.602598870056496
2847,3.602598870056496
2848,3.602598870056496
2849,3.602598870056496
2850,3.602598870056496
2851,156.02
2852,3.602598870056496
2853,3.602598870056496
2854,3.602598870056496
2855,3.602598870056496
2856,3.602598870056496
2857,3.602598870056496
2858,3.602598870056496
2859,3.602598870056496
2860,3.602598870056496
2861,3.602598870056496
2862,3.602598870056496
2863,151.86
2864,3.602598870056496
2865,3.602598870056496
2866,3.602598870056496
2867,3.602598870056496
2868,3.602598870056496
2869,3.602598870056496
2870,3.602598870056496
2871,3.602598870056496
2872,3.602598870056496
2873,3.602598870056496
2874,3.602598870056496
2875,159.36
2876,3.602598870056496
2877,3.602598870056496
2878,3.602598870056496
2879,3.602598870056496
2880,3.602598870056496
2881,3.602598870056496
2882,3.602598870056496
2883,3.602598870056496
2884,3.602598870056496
2885,3.602598870056496
2886,3.602598870056496
2887,185.3
2888,3.602598870056496
2889,3.602598870056496
2890,3.602598870056496
2891,3.602598870056496
2892,3.602598870056496
2893,3.602598870056496
2894,3.602598870056496
2895,3.602598870056496
2896,3.602598870056496
2897,3.602598870056496
2898,3.602598870056496
2899,231.42
2900,3.602598870056496
2901,3.602598870056496
2902,3.602598870056496
2903,3.602598870056496
2904,3.602598870056496
2905,3.602598870056496
2906,3.602598870056496
2907,3.602598870056496
2908,3.602598870056496
2909,3.602598870056496
2910,3.602598870056496
2911,292.57
2912,3.602598870056496
2913,3.602598870056496
2914,3.602598870056496
2915,3.602598870056496
2916,3.602598870056496
2917,3.602598870056496
2918,3.602598870056496
2919,3.602598870056496
2920,3.602598870056496
2921,3.602598870056496
2922,3.602598870056496
2923,357.21
2924,3.602598870056496
2925,3.602598870056496
2926,3.602598870056496
2927,3.602598870056496
2928,3.602598870056496
2929,3.602598870056496
2930,3.602598870056496
2931,3.602598870056496
2932,3.602598870056496
2933,3.602598870056496
2934,3.602598870056496
2935,410.51
2936,3.602598870056496
2937,3.602598870056496
2938,3.602598870056496
2939,3.602598870056496
2940,3.602598870056496
2941,3.602598870056496
2942,3.602598870056496
2943,3.602598870056496
2944,3.602598870056496
2945,3.602598870056496
2946,3.602598870056496
2947,439.01
2948,3.602598870056496
2949,3.602598870056496
2950,3.602598870056496
2951,3.602598870056496
2952,3.602598870056496
2953,3.602598870056496
2954,3.602598870056496
2955,3.602598870056496
2956,3.602598870056496
2957,3.602598870056496
2958,3.602598870056496
2959,435.06
2960,3.602598870056496
2961,3.602598870056496
2962,3.602598870056496
2963,3.602598870056496
2964,3.602598870056496
2965,3.602598870056496
2966,3.602598870056496
2967,3.602598870056496
2968,3.602598870056496
2969,3.602598870056496
2970,3.602598870056496
2971,399.23
2972,3.602598870056496
2973,3.602598870056496
2974,3.602598870056496
2975,3.602598870056496
2976,3.602598870056496
2977,3.602598870056496
2978,3.602598870056496
2979,3.602598870056496
2980,3.602598870056496
2981,3.602598870056496
2982,3.602598870056496
2983,340.05
2984,3.602598870056496
2985,3.602598870056496
2986,3.602598870056496
2987,3.602598870056496
2988,3.602598870056496
2989,3.602598870056496
2990,3.602598870056496
2991,3.602598870056496
2992,3.602598870056496
2993,3.602598870056496
2994,3.602598870056496
2995,271.31
2996,3.602598870056496
2997,3.602598870056496
2998,3.602598870056496
2999,3.602598870056496
3000,3.602598870056496
3001,3.602598870056496
3002,3.602598870056496
3003,3.602598870056496
3004,3.602598870056496
3005,3.602598870056496
3006,208.16
3007,3.602598870056496
3008,3.602598870056496
3009,3.602598870056496
3010,3.602598870056496
3011,3.602598870056496
3012,3.602598870056496
3013,3.602598870056496
3014,3.602598870056496
3015,3.602598870056496
3016,3.602598870056496
3017,163.3
3018,3.602598870056496
3019,3.602598870056496
3020,3.602598870056496
3021,3.602598870056496
3022,3.602598870056496
3023,3.602598870056496
3024,3.602598870056496
3025,3.602598870056496
3026,3.602598870056496
3027,3.602598870056496
3028,3.602598870056496
3029,144.03
3030,3.602598870056496
3031,3.602598870056496
3032,3.602598870056496
3033,3.602598870056496
3034,3.602598870056496
3035,3.602598870056496
3036,3.602598870056496
3037,3.602598870056496
3038,3.602598870056496
3039,3.602598870056496
3040,3.602598870056496
3041,150.64
3042,3.602598870056496
3043,3.602598870056496
3044,3.602598870056496
3045,3.602598870056496
3046,3.602598870056496
3047,3.602598870056496
3048,3.602598870056496
3049,3.602598870056496
3050,3.602598870056496
3051,3.602598870056496
3052,3.602598870056496
3053,176.43
3054,3.602598870056496
3055,3.602598870056496
3056,3.602598870056496
3057,3.602598870056496
3058,3.602598870056496
3059,3.602598870056496
3060,3.602598870056496
3061,3.602598870056496
3062,3.602598870056496
3063,3.602598870056496
3064,3.602598870056496
3065,209.53
3066,3.602598870056496
3067,3.602598870056496
3068,3.602598870056496
3069,3.602598870056496
3070,3.602598870056496
3071,3.602598870056496
3072,3.602598870056496
3073,3.602598870056496
3074,3.602598870056496
3075,3.602598870056496
3076,3.602598870056496
3077,236.38
3078,3.602598870056496
3079,3.602598870056496
3080,3.602598870056496
3081,3.602598870056496
3082,3.602598870056496
3083,3.602598870056496
3084,3.602598870056496
3085,3.602598870056496
3086,3.602598870056496
3087,3.602598870056496
3088,3.602598870056496
3089,246.16
3090,3.602598870056496
3091,3.602598870056496
3092,3.602598870056496
3093,3.602598870056496
3094,3.602598870056496
3095,3.602598870056496
3096,3.602598870056496
3097,3.602598870056496
3098,3.602598870056496
3099,3.602598870056496
3100,3.602598870056496
3101,234.36
3102,3.602598870056496
3103,3.602598870056496
3104,3.602598870056496
3105,3.602598870056496
3106,3.602598870056496
3107,3.602598870056496
3108,3.602598870056496
3109,3.602598870056496
3110,3.602598870056496
3111,3.602598870056496
3112,3.602598870056496
3113,204.01
3114,3.602598870056496
3115,3.602598870056496
3116,3.602598870056496
3117,3.602598870056496
3118,3.602598870056496
3119,3.602598870056496
3120,3.602598870056496
3121,3.602598870056496
3122,3.602598870056496
3123,3.602598870056496
3124,3.602598870056496
3125,163.93
3126,3.602598870056496
3127,3.602598870056496
3128,3.602598870056496
3129,3.602598870056496
3130,3.602598870056496
3131,3.602598870056496
3132,3.602598870056496
3133,3.602598870056496
3134,3.602598870056496
3135,3.602598870056496
3136,3.602598870056496
3137,124.74
3138,3.602598870056496
3139,3.602598870056496
3140,3.602598870056496
3141,3.602598870056496
3142,3.602598870056496
3143,3.602598870056496
3144,3.602598870056496
3145,3.602598870056496
3146,3.602598870056496
3147,3.602598870056496
3148,3.602598870056496
3149,94.67
3150,3.602598870056496
3151,3.602598870056496
3152,3.602598870056496
3153,3.602598870056496
3154,3.602598870056496
3155,3.602598870056496
3156,3.602598870056496
3157,3.602598870056496
3158,3.602598870056496
3159,3.602598870056496
3160,3.602598870056496
3161,77.11
3162,3.602598870056496
3163,3.602598870056496
3164,3.602598870056496
3165,3.602598870056496
3166,3.602598870056496
3167,3.602598870056496
3168,3.602598870056496
3169,3.602598870056496
3170,3.602598870056496
3171,3.602598870056496
3172,3.602598870056496
3173,70.69
3174,3.602598870056496
3175,3.602598870056496
3176,3.602598870056496
3177,3.602598870056496
3178,3.602598870056496
3179,3.602598870056496
3180,3.602598870056496
3181,3.602598870056496
3182,3.602598870056496
3183,3.602598870056496
3184,3.602598870056496
3185,71.4
3186,3.602598870056496
3187,3.602598870056496
3188,3.602598870056496
3189,3.602598870056496
3190,3.602598870056496
3191,3.602598870056496
3192,3.602598870056496
3193,3.602598870056496
3194,3.602598870056496
3195,3.602598870056496
3196,74.97
3197,3.602598870056496
3198,3.602598870056496
3199,3.602598870056496
3200,3.602598870056496
3201,3.602598870056496
3202,3.602598870056496
3203,3.602598870056496
3204,3.602598870056496
3205,3.602598870056496
3206,3.602598870056496
3207,78.34
3208,3.602598870056496
3209,3.602598870056496
3210,3.602598870056496
3211,3.602598870056496
3212,3.602598870056496
3213,3.602598870056496
3214,3.602598870056496
3215,3.602598870056496
3216,3.602598870056496
3217,3.602598870056496
3218,3.602598870056496
3219,79.72
3220,3.602598870056496
3221,3.602598870056496
3222,3.602598870056496
3223,3.602598870056496
3224,3.602598870056496
3225,3.602598870056496
3226,3.602598870056496
3227,3.602598870056496
3228,3.602598870056496
3229,3.602598870056496
3230,3.602598870056496
3231,77.75
3232,3.602598870056496
3233,3.602598870056496
3234,3.602598870056496
3235,3.602598870056496
3236,3.602598870056496
3237,3.602598870056496
3238,3.602598870056496
3239,3.602598870056496
3240,3.602598870056496
3241,3.602598870056496
3242,3.602598870056496
3243,70.85
3244,3.602598870056496
3245,3.602598870056496
3246,3.602598870056496
3247,3.602598870056496
3248,3.602598870056496
3249,3.602598870056496
3250,3.602598870056496
3251,3.602598870056496
3252,3.602598870056496
3253,3.602598870056496
3254,3.602598870056496
3255,57.88
3256,3.602598870056496
3257,3.602598870056496
3258,3.602598870056496
3259,3.602598870056496
3260,3.602598870056496
3261,3.602598870056496
3262,3.602598870056496
3263,3.602598870056496
3264,3.602598870056496
3265,3.602598870056496
3266,3.602598870056496
3267,38.97
3268,3.602598870056496
3269,3.602598870056496
3270,3.602598870056496
3271,3.602598870056496
3272,3.602598870056496
3273,3.602598870056496
3274,3.602598870056496
3275,3.602598870056496
3276,3.602598870056496
3277,3.602598870056496
3278,3.602598870056496
3279,16.13
3280,3.602598870056496
3281,3.602598870056496
3282,3.602598870056496
3283,3.602598870056496
3284,3.602598870056496
3285,3.602598870056496
3286,3.602598870056496
3287,3.602598870056496
3288,3.602598870056496
3289,3.602598870056496
3290,3.602598870056496
3291,-7.23
3292,3.602598870056496
3293,3.602598870056496
3294,3.602598870056496
3295,3.602598870056496
3296,3.602598870056496
3297,3.602598870056496
3298,3.602598870056496
3299,3.602598870056496
3300,3.602598870056496
3301,3.602598870056496
3302,3.602598870056496
3303,-27.94
3304,3.602598870056496
3305,3.602598870056496
3306,3.602598870056496
3307,3.602598870056496
3308,3.602598870056496
3309,3.602598870056496
3310,3.602598870056496
3311,3.602598870056496
3312,3.602598870056496
3313,3.602598870056496
3314,3.602598870056496
3315,-45.01
3316,3.602598870056496
3317,3.602598870056496
3318,3.602598870056496
3319,3.602598870056496
3320,3.602598870056496
3321,3.602598870056496
3322,3.602598870056496
3323,3.602598870056496
3324,3.602598870056496
3325,3.602598870056496
3326,3.602598870056496
3327,-60.56
3328,3.602598870056496
3329,3.602598870056496
3330,3.602598870056496
3331,3.602598870056496
3332,3.602598870056496
3333,3.602598870056496
3334,3.602598870056496
3335,3.602598870056496
3336,3.602598870056496
3337,3.602598870056496
3338,3.602598870056496
3339,-79.2
3340,3.602598870056496
3341,3.602598870056496
3342,3.602598870056496
3343,3.602598870056496
3344,3.602598870056496
3345,3.602598870056496
3346,3.602598870056496
3347,3.602598870056496
3348,3.602598870056496
3349,3.602598870056496
3350,3.602598870056496
3351,-105.87
3352,3.602598870056496
3353,3.602598870056496
3354,3.602598870056496
3355,3.602598870056496
3356,3.602598870056496
3357,3.602598870056496
3358,3.602598870056496
3359,3.602598870056496
3360,3.602598870056496
3361,3.602598870056496
3362,3.602598870056496
3363,-143.4
3364,3.602598870056496
3365,3.602598870056496
3366,3.602598870056496
3367,3.602598870056496
3368,3.602598870056496
3369,3.602598870056496
3370,3.602598870056496
3371,3.602598870056496
3372,3.602598870056496
3373,3.602598870056496
3374,3.602598870056496
3375,-190.99
3376,3.602598870056496
3377,3.602598870056496
3378,3.602598870056496
3379,3.602598870056496
3380,3.602598870056496
3381,3.602598870056496
3382,3.602598870056496
3383,3.602598870056496
3384,3.602598870056496
3385,3.602598870056496
3386,-244.25
3387,3.602598870056496
3388,3.602598870056496
3389,3.602598870056496
3390,3.602598870056496
3391,3.602598870056496
3392,3.602598870056496
3393,3.602598870056496
3394,3.602598870056496
3395,3.602598870056496
3396,3.602598870056496
3397,-296.48
3398,3.602598870056496
3399,3.602598870056496
3400,3.602598870056496
3401,3.602598870056496
3402,3.602598870056496
3403,3.602598870056496
3404,3.602598870056496
3405,3.602598870056496
3406,3.602598870056496
3407,3.602598870056496
3408,3.602598870056496
3409,-340.61
3410,3.602598870056496
3411,3.602598870056496
3412,3.602598870056496
3413,3.602598870056496
3414,3.602598870056496
3415,3.602598870056496
3416,3.602598870056496
3417,3.602598870056496
3418,3.602598870056496
3419,3.602598870056496
3420,3.602598870056496
3421,-371.12
3422,3.602598870056496
3423,3.602598870056496
3424,3.602598870056496
3425,3.602598870056496
3426,3.602598870056496
3427,3.602598870056496
3428,3.602598870056496
3429,3.602598870056496
3430,3.602598870056496
3431,3.602598870056496
3432,3.602598870056496
3433,-385.25
3434,3.602598870056496
3435,3.602598870056496
3436,3.602598870056496
3437,3.602598870056496
3438,3.602598870056496
3439,3.602598870056496
3440,3.602598870056496
3441,3.602598870056496
3442,3.602598870056496
3443,3.602598870056496
3444,3.602598870056496
3445,-383.21
3446,3.602598870056496
3447,3.602598870056496
3448,3.602598870056496
3449,3.602598870056496
3450,3.602598870056496
3451,3.602598870056496
3452,3.602598870056496
3453,3.602598870056496
3454,3.602598870056496
3455,3.602598870056496
3456,3.602598870056496
3457,-367.33
3458,3.602598870056496
3459,3.602598870056496
3460,3.602598870056496
3461,3.602598870056496
3462,3.602598870056496
3463,3.602598870056496
3464,3.602598870056496
3465,3.602598870056496
3466,3.602598870056496
3467,3.602598870056496
3468,3.602598870056496
3469,-340.73
3470,3.602598870056496
3471,3.602598870056496
3472,3.602598870056496
3473,3.602598870056496
3474,3.602598870056496
3475,3.602598870056496
3476,3.602598870056496
3477,3.602598870056496
3478,3.602598870056496
3479,3.602598870056496
3480,3.602598870056496
3481,-306.2
3482,3.602598870056496
3483,3.602598870056496
3484,3.602598870056496
3485,3.602598870056496
3486,3.602598870056496
3487,3.602598870056496
3488,3.602598870056496
3489,3.602598870056496
3490,3.602598870056496
3491,3.602598870056496
3492,3.602598870056496
3493,-265.68
3494,3.602598870056496
3495,3.602598870056496
3496,3.602598870056496
3497,3.602598870056496
3498,3.602598870056496
3499,3.602598870056496
3500,3.602598870056496
3501,3.602598870056496
3502,3.602598870056496
3503,3.602598870056496
3504,3.602598870056496
3505,-220.74
3506,3.602598870056496
3507,3.602598870056496
3508,3.602598870056496
3509,3.602598870056496
3510,3.602598870056496
3511,3.602598870056496
3512,3.602598870056496
3513,3.602598870056496
3514,3.602598870056496
3515,3.602598870056496
3516,3.602598870056496
3517,-173.8
3518,3.602598870056496
3519,3.602598870056496
3520,3.602598870056496
3521,3.602598870056496
3522,3.602598870056496
3523,3.602598870056496
3524,3.602598870056496
3525,3.602598870056496
3526,3.602598870056496
3527,3.602598870056496
3528,3.602598870056496
3529,-128.69
3530,3.602598870056496
3531,3.602598870056496
3532,3.602598870056496
3533,3.602598870056496
3534,3.602598870056496
3535,3.602598870056496
3536,3.602598870056496
3537,3.602598870056496
3538,3.602598870056496
3539,3.602598870056496
3540,3.602598870056496
3541,-90.31
3542,3.602598870056496
3543,3.602598870056496
3544,3.602598870056496
3545,3.602598870056496
3546,3.602598870056496
3547,3.602598870056496
3548,3.602598870056496
3549,3.602598870056496
3550,3.602598870056496
3551,3.602598870056496
3552,3.602598870056496
3553,-62.95
3554,3.602598870056496
3555,3.602598870056496
3556,3.602598870056496
3557,3.602598870056496
3558,3.602598870056496
3559,3.602598870056496
3560,3.602598870056496
3561,3.602598870056496
3562,3.602598870056496
3563,3.602598870056496
3564,3.602598870056496
3565,-48.6
3566,3.602598870056496
3567,3.602598870056496
3568,3.602598870056496
3569,3.602598870056496
3570,3.602598870056496
3571,3.602598870056496
3572,3.602598870056496
3573,3.602598870056496
3574,3.602598870056496
3575,3.602598870056496
3576,-46.18
3577,3.602598870056496
3578,3.602598870056496
3579,3.602598870056496
3580,3.602598870056496
3581,3.602598870056496
3582,3.602598870056496
3583,3.602598870056496
3584,3.602598870056496
3585,3.602598870056496
3586,3.602598870056496
3587,-52.71
3588,3.602598870056496
3589,3.602598870056496
3590,3.602598870056496
3591,3.602598870056496
3592,3.602598870056496
3593,3.602598870056496
3594,3.602598870056496
3595,3.602598870056496
3596,3.602598870056496
3597,3.602598870056496
3598,3.602598870056496
3599,-65.37
3600,3.602598870056496
3601,3.602598870056496
3602,3.602598870056496
3603,3.602598870056496
3604,3.602598870056496
3605,3.602598870056496
3606,3.602598870056496
3607,3.602598870056496
3608,3.602598870056496
3609,3.602598870056496
3610,3.602598870056496
3611,-83.23
3612,3.602598870056496
3613,3.602598870056496
3614,3.602598870056496
3615,3.602598870056496
3616,3.602598870056496
3617,3.602598870056496
3618,3.602598870056496
3619,3.602598870056496
3620,3.602598870056496
3621,3.602598870056496
3622,3.602598870056496
3623,-106.87
3624,3.602598870056496
3625,3.602598870056496
3626,3.602598870056496
3627,3.602598870056496
3628,3.602598870056496
3629,3.602598870056496
3630,3.602598870056496
3631,3.602598870056496
3632,3.602598870056496
3633,3.602598870056496
3634,3.602598870056496
3635,-136.51
3636,3.602598870056496
3637,3.602598870056496
3638,3.602598870056496
3639,3.602598870056496
3640,3.602598870056496
3641,3.602598870056496
3642,3.602598870056496
3643,3.602598870056496
3644,3.602598870056496
3645,3.602598870056496
3646,3.602598870056496
3647,-169.66
3648,3.602598870056496
3649,3.602598870056496
3650,3.602598870056496
3651,3.602598870056496
3652,3.602598870056496
3653,3.602598870056496
3654,3.602598870056496
3655,3.602598870056496
3656,3.602598870056496
3657,3.602598870056496
3658,3.602598870056496
3659,-200.4
3660,3.602598870056496
3661,3.602598870056496
3662,3.602598870056496
3663,3.602598870056496
3664,3.602598870056496
3665,3.602598870056496
3666,3.602598870056496
3667,3.602598870056496
3668,3.602598870056496
3669,3.602598870056496
3670,3.602598870056496
3671,-221.17
3672,3.602598870056496
3673,3.602598870056496
3674,3.602598870056496
3675,3.602598870056496
3676,3.602598870056496
3677,3.602598870056496
3678,3.602598870056496
3679,3.602598870056496
3680,3.602598870056496
3681,3.602598870056496
3682,3.602598870056496
3683,-226.04
3684,3.602598870056496
3685,3.602598870056496
3686,3.602598870056496
3687,3.602598870056496
3688,3.602598870056496
3689,3.602598870056496
3690,3.602598870056496
3691,3.602598870056496
3692,3.602598870056496
3693,3.602598870056496
3694,3.602598870056496
3695,-213.61
3696,3.602598870056496
3697,3.602598870056496
3698,3.602598870056496
3699,3.602598870056496
3700,3.602598870056496
3701,3.602598870056496
3702,3.602598870056496
3703,3.602598870056496
3704,3.602598870056496
3705,3.602598870056496
3706,3.602598870056496
3707,-187.21
3708,3.602598870056496
3709,3.602598870056496
3710,3.602598870056496
3711,3.602598870056496
3712,3.602598870056496
3713,3.602598870056496
3714,3.602598870056496
3715,3.602598870056496
3716,3.602598870056496
3717,3.602598870056496
3718,3.602598870056496
3719,-152.62
3720,3.602598870056496
3721,3.602598870056496
3722,3.602598870056496
3723,3.602598870056496
3724,3.602598870056496
3725,3.602598870056496
3726,3.602598870056496
3727,3.602598870056496
3728,3.602598870056496
3729,3.602598870056496
3730,3.602598870056496
3731,-114.58
3732,3.602598870056496
3733,3.602598870056496
3734,3.602598870056496
3735,3.602598870056496
3736,3.602598870056496
3737,3.602598870056496
3738,3.602598870056496
3739,3.602598870056496
3740,3.602598870056496
3741,3.602598870056496
3742,3.602598870056496
3743,-74.4
3744,3.602598870056496
3745,3.602598870056496
3746,3.602598870056496
3747,3.602598870056496
3748,3.602598870056496
3749,3.602598870056496
3750,3.602598870056496
3751,3.602598870056496
3752,3.602598870056496
3753,3.602598870056496
3754,3.602598870056496
3755,-30.21
3756,3.602598870056496
3757,3.602598870056496
3758,3.602598870056496
3759,3.602598870056496
3760,3.602598870056496
3761,3.602598870056496
3762,3.602598870056496
3763,3.602598870056496
3764,3.602598870056496
3765,3.602598870056496
3766,20.57
3767,3.602598870056496
3768,3.602598870056496
3769,3.602598870056496
3770,3.602598870056496
3771,3.602598870056496
3772,3.602598870056496
3773,3.602598870056496
3774,3.602598870056496
3775,3.602598870056496
3776,3.602598870056496
3777,78.06
3778,3.602598870056496
3779,3.602598870056496
3780,3.602598870056496
3781,3.602598870056496
3782,3.602598870056496
3783,3.602598870056496
3784,3.602598870056496
3785,3.602598870056496
3786,3.602598870056496
3787,3.602598870056496
3788,3.602598870056496
3789,138.63
3790,3.602598870056496
3791,3.602598870056496
3792,3.602598870056496
3793,3.602598870056496
3794,3.602598870056496
3795,3.602598870056496
3796,3.602598870056496
3797,3.602598870056496
3798,3.602598870056496
3799,3.602598870056496
3800,3.602598870056496
3801,196.0
3802,3.602598870056496
3803,3.602598870056496
3804,3.602598870056496
3805,3.602598870056496
3806,3.602598870056496
3807,3.602598870056496
3808,3.602598870056496
3809,3.602598870056496
3810,3.602598870056496
3811,3.602598870056496
3812,3.602598870056496
3813,244.28
3814,3.602598870056496
3815,3.602598870056496
3816,3.602598870056496
3817,3.602598870056496
3818,3.602598870056496
3819,3.602598870056496
3820,3.602598870056496
3821,3.602598870056496
3822,3.602598870056496
3823,3.602598870056496
3824,3.602598870056496
3825,280.64
3826,3.602598870056496
3827,3.602598870056496
3828,3.602598870056496
3829,3.602598870056496
3830,3.602598870056496
3831,3.602598870056496
3832,3.602598870056496
3833,3.602598870056496
3834,3.602598870056496
3835,3.602598870056496
3836,3.602598870056496
3837,306.14
3838,3.602598870056496
3839,3.602598870056496
3840,3.602598870056496
3841,3.602598870056496
3842,3.602598870056496
3843,3.602598870056496
3844,3.602598870056496
3845,3.602598870056496
3846,3.602598870056496
3847,3.602598870056496
3848,3.602598870056496
3849,324.39
3850,3.602598870056496
3851,3.602598870056496
3852,3.602598870056496
3853,3.602598870056496
3854,3.602598870056496
3855,3.602598870056496
3856,3.602598870056496
3857,3.602598870056496
3858,3.602598870056496
3859,3.602598870056496
3860,3.602598870056496
3861,338.83
3862,3.602598870056496
3863,3.602598870056496
3864,3.602598870056496
3865,3.602598870056496
3866,3.602598870056496
3867,3.602598870056496
3868,3.602598870056496
3869,3.602598870056496
3870,3.602598870056496
3871,3.602598870056496
3872,3.602598870056496
3873,350.43
3874,3.602598870056496
3875,3.602598870056496
3876,3.602598870056496
3877,3.602598870056496
3878,3.602598870056496
3879,3.602598870056496
3880,3.602598870056496
3881,3.602598870056496
3882,3.602598870056496
3883,3.602598870056496
3884,3.602598870056496
3885,357.37
3886,3.602598870056496
3887,3.602598870056496
3888,3.602598870056496
3889,3.602598870056496
3890,3.602598870056496
3891,3.602598870056496
3892,3.602598870056496
3893,3.602598870056496
3894,3.602598870056496
3895,3.602598870056496
3896,3.602598870056496
3897,356.27
3898,3.602598870056496
3899,3.602598870056496
3900,3.602598870056496
3901,3.602598870056496
3902,3.602598870056496
3903,3.602598870056496
3904,3.602598870056496
3905,3.602598870056496
3906,3.602598870056496
3907,3.602598870056496
3908,3.602598870056496
3909,344.17
3910,3.602598870056496
3911,3.602598870056496
3912,3.602598870056496
3913,3.602598870056496
3914,3.602598870056496
3915,3.602598870056496
3916,3.602598870056496
3917,3.602598870056496
3918,3.602598870056496
3919,3.602598870056496
3920,3.602598870056496
3921,320.12
3922,3.602598870056496
3923,3.602598870056496
3924,3.602598870056496
3925,3.602598870056496
3926,3.602598870056496
3927,3.602598870056496
3928,3.602598870056496
3929,3.602598870056496
3930,3.602598870056496
3931,3.602598870056496
3932,3.602598870056496
3933,286.03
3934,3.602598870056496
3935,3.602598870056496
3936,3.602598870056496
3937,3.602598870056496
3938,3.602598870056496
3939,3.602598870056496
3940,3.602598870056496
3941,3.602598870056496
3942,3.602598870056496
3943,3.602598870056496
3944,3.602598870056496
3945,246.3
3946,3.602598870056496
3947,3.602598870056496
3948,3.602598870056496
3949,3.602598870056496
3950,3.602598870056496
3951,3.602598870056496
3952,3.602598870056496
3953,3.602598870056496
3954,3.602598870056496
3955,3.602598870056496
3956,206.57
3957,3.602598870056496
3958,3.602598870056496
3959,3.602598870056496
3960,3.602598870056496
3961,3.602598870056496
3962,3.602598870056496
3963,3.602598870056496
3964,3.602598870056496
3965,3.602598870056496
3966,3.602598870056496
3967,171.55
3968,3.602598870056496
3969,3.602598870056496
3970,3.602598870056496
3971,3.602598870056496
3972,3.602598870056496
3973,3.602598870056496
3974,3.602598870056496
3975,3.602598870056496
3976,3.602598870056496
3977,3.602598870056496
3978,3.602598870056496
3979,143.14
3980,3.602598870056496
3981,3.602598870056496
3982,3.602598870056496
3983,3.602598870056496
3984,3.602598870056496
3985,3.602598870056496
3986,3.602598870056496
3987,3.602598870056496
3988,3.602598870056496
3989,3.602598870056496
3990,3.602598870056496
3991,119.6
3992,3.602598870056496
3993,3.602598870056496
3994,3.602598870056496
3995,3.602598870056496
3996,3.602598870056496
3997,3.602598870056496
3998,3.602598870056496
3999,3.602598870056496
4000,3.602598870056496
4001,3.602598870056496
4002,3.602598870056496
4003,96.85
4004,3.602598870056496
4005,3.602598870056496
4006,3.602598870056496
4007,3.602598870056496
4008,3.602598870056496
4009,3.602598870056496
4010,3.602598870056496
4011,3.602598870056496
4012,3.602598870056496
4013,3.602598870056496
4014,3.602598870056496
4015,71.44
4016,3.602598870056496
4017,3.602598870056496
4018,3.602598870056496
4019,3.602598870056496
4020,3.602598870056496
4021,3.602598870056496
4022,3.602598870056496
4023,3.602598870056496
4024,3.602598870056496
4025,3.602598870056496
4026,3.602598870056496
4027,43.87
4028,3.602598870056496
4029,3.602598870056496
4030,3.602598870056496
4031,3.602598870056496
4032,3.602598870056496
4033,3.602598870056496
4034,3.602598870056496
4035,3.602598870056496
4036,3.602598870056496
4037,3.602598870056496
4038,3.602598870056496
4039,19.87
4040,3.602598870056496
4041,3.602598870056496
4042,3.602598870056496
4043,3.602598870056496
4044,3.602598870056496
4045,3.602598870056496
4046,3.602598870056496
4047,3.602598870056496
4048,3.602598870056496
4049,3.602598870056496
4050,3.602598870056496
4051,8.07
4052,3.602598870056496
4053,3.602598870056496
4054,3.602598870056496
4055,3.602598870056496
4056,3.602598870056496
4057,3.602598870056496
4058,3.602598870056496
4059,3.602598870056496
4060,3.602598870056496
4061,3.602598870056496
4062,3.602598870056496
4063,14.75
4064,3.602598870056496
4065,3.602598870056496
4066,3.602598870056496
4067,3.602598870056496
4068,3.602598870056496
4069,3.602598870056496
4070,3.602598870056496
4071,3.602598870056496
4072,3.602598870056496
4073,3.602598870056496
4074,3.602598870056496
4075,38.67
4076,3.602598870056496
4077,3.602598870056496
4078,3.602598870056496
4079,3.602598870056496
4080,3.602598870056496
4081,3.602598870056496
4082,3.602598870056496
4083,3.602598870056496
4084,3.602598870056496
4085,3.602598870056496
4086,3.602598870056496
4087,69.29
4088,3.602598870056496
4089,3.602598870056496
4090,3.602598870056496
4091,3.602598870056496
4092,3.602598870056496
4093,3.602598870056496
4094,3.602598870056496
4095,3.602598870056496
4096,3.602598870056496
4097,3.602598870056496
4098,3.602598870056496
4099,90.34
4100,3.602598870056496
4101,3.602598870056496
4102,3.602598870056496
4103,3.602598870056496
4104,3.602598870056496
4105,3.602598870056496
4106,3.602598870056496
4107,3.602598870056496
4108,3.602598870056496
4109,3.602598870056496
4110,3.602598870056496
4111,87.18
4112,3.602598870056496
4113,3.602598870056496
4114,3.602598870056496
4115,3.602598870056496
4116,3.602598870056496
4117,3.602598870056496
4118,3.602598870056496
4119,3.602598870056496
4120,3.602598870056496
4121,3.602598870056496
4122,3.602598870056496
4123,53.89
4124,3.602598870056496
4125,3.602598870056496
4126,3.602598870056496
4127,3.602598870056496
4128,3.602598870056496
4129,3.602598870056496
4130,3.602598870056496
4131,3.602598870056496
4132,3.602598870056496
4133,3.602598870056496
4134,3.602598870056496
4135,-3.77
4136,3.602598870056496
4137,3.602598870056496
4138,3.602598870056496
4139,3.602598870056496
4140,3.602598870056496
4141,3.602598870056496
4142,3.602598870056496
4143,3.602598870056496
4144,3.602598870056496
4145,3.602598870056496
4146,-71.41
4147,3.602598870056496
4148,3.602598870056496
4149,3.602598870056496
4150,3.602598870056496
4151,3.602598870056496
4152,3.602598870056496
4153,3.602598870056496
4154,3.602598870056496
4155,3.602598870056496
4156,3.602598870056496
4157,-132.88
4158,3.602598870056496
4159,3.602598870056496
4160,3.602598870056496
4161,3.602598870056496
4162,3.602598870056496
4163,3.602598870056496
4164,3.602598870056496
4165,3.602598870056496
4166,3.602598870056496
4167,3.602598870056496
4168,3.602598870056496
4169,-177.0
4170,3.602598870056496
4171,3.602598870056496
4172,3.602598870056496
4173,3.602598870056496
4174,3.602598870056496
4175,3.602598870056496
4176,3.602598870056496
4177,3.602598870056496
4178,3.602598870056496
4179,3.602598870056496
4180,3.602598870056496
4181,-200.79
4182,3.602598870056496
4183,3.602598870056496
4184,3.602598870056496
4185,3.602598870056496
4186,3.602598870056496
4187,3.602598870056496
4188,3.602598870056496
4189,3.602598870056496
4190,3.602598870056496
4191,3.602598870056496
4192,3.602598870056496
4193,-208.09
4194,3.602598870056496
4195,3.602598870056496
4196,3.602598870056496
4197,3.602598870056496
4198,3.602598870056496
4199,3.602598870056496
