seconds,BVP
2,-44.53
14,-47.97
26,-52.04
38,-56.37
50,-60.37
62,-63.23
74,-64.14
86,-62.44
97,-57.77
108,-50.24
120,-40.44
132,-29.33
144,-18.03
156,-7.55
168,1.45
180,8.77
192,14.55
204,19.11
216,22.76
228,25.67
240,27.87
252,29.38
264,30.26
276,30.65
287,30.74
298,30.69
310,30.55
322,30.29
334,29.89
346,29.36
358,28.79
370,28.28
382,27.95
394,27.78
406,27.68
418,27.43
430,26.82
442,25.67
454,23.94
466,21.67
477,18.98
488,16.07
500,13.07
512,10.1
524,7.18
536,4.19
548,0.99
560,-2.55
572,-6.45
584,-10.5
596,-14.39
608,-17.73
620,-20.28
632,-22.04
644,-23.3
656,-24.59
667,-26.44
678,-29.24
690,-33.01
702,-37.37
714,-41.54
726,-44.5
738,-45.31
750,-43.31
762,-38.42
774,-31.15
786,-22.46
798,-13.41
810,-4.88
822,2.67
834,9.22
846,14.96
857,20.08
868,24.61
880,28.44
892,31.37
904,33.35
916,34.48
928,35.0
940,35.11
952,34.95
964,34.48
976,33.63
988,32.34
1000,30.66
1012,28.77
1024,26.9
1036,25.23
1047,23.8
1058,22.56
1070,21.32
1082,19.9
1094,18.14
1106,15.95
1118,13.37
1130,10.49
1142,7.53
1154,4.68
1166,2.14
1178,-0.06
1190,-2.04
1202,-3.99
1214,-6.16
1226,-8.66
1237,-11.48
1248,-14.46
1260,-17.38
1272,-20.02
1284,-22.33
1296,-24.38
1308,-26.34
1320,-28.46
1332,-30.98
1344,-34.04
1356,-37.6
1368,-41.37
1380,-44.78
1392,-47.07
1404,-47.42
1416,-45.18
1427,-40.09
1438,-32.34
1450,-22.57
1462,-11.77
1474,-0.99
1486,8.86
1498,17.15
1510,23.55
1522,28.01
1534,30.61
1546,31.62
1558,31.36
1570,30.24
1582,28.68
1594,27.02
1606,25.44
1617,24.03
1628,22.76
1640,21.63
1652,20.65
1664,19.87
1676,19.33
1688,18.95
1700,18.64
1712,18.27
1724,17.76
1736,17.07
1748,16.19
1760,15.1
1772,13.68
1784,11.85
1796,9.54
1807,6.76
1818,3.63
1830,0.27
1842,-3.21
1854,-6.74
1866,-10.26
1878,-13.71
1890,-17.0
1902,-20.02
1914,-22.76
1926,-25.3
1938,-27.91
1950,-30.91
1962,-34.57
1974,-38.89
1986,-43.51
1997,-47.67
2008,-50.34
2020,-50.57
2032,-47.76
2044,-41.9
2056,-33.58
2068,-23.8
2080,-13.65
2092,-4.03
2104,4.57
2116,11.96
2128,18.17
2140,23.24
2152,27.21
2164,30.09
2176,31.97
2187,33.02
2198,33.43
2210,33.38
2222,32.94
2234,32.13
2246,30.95
2258,29.51
2270,28.01
2282,26.69
2294,25.78
2306,25.4
2318,25.48
2330,25.8
2342,26.03
2354,25.81
2366,24.88
2377,23.11
2388,20.59
2400,17.51
2412,14.17
2424,10.82
2436,7.6
2448,4.55
2460,1.62
2472,-1.29
2484,-4.25
2496,-7.35
2508,-10.67
2520,-14.23
2532,-17.99
2544,-21.73
2556,-25.17
2567,-28.04
2578,-30.22
2590,-31.82
2602,-33.2
2614,-34.94
2626,-37.57
2638,-41.41
2650,-46.36
2662,-51.78
2674,-56.63
2686,-59.63
2698,-59.61
2710,-55.87
2722,-48.42
2734,-37.9
2746,-25.44
2757,-12.3
2768,0.4
2780,11.89
2792,21.71
2804,29.72
2816,35.96
2828,40.61
2840,43.98
2852,46.39
2864,48.11
2876,49.3
2888,49.95
2900,49.92
2912,49.03
2924,47.22
2936,44.64
2947,41.65
2958,38.72
2970,36.29
2982,34.57
2994,33.49
3006,32.75
3018,31.96
3030,30.77
3042,29.09
3054,27.01
3066,24.74
3078,22.44
3090,20.17
3102,17.81
3114,15.23
3126,12.31
3137,9.09
3148,5.75
3160,2.49
3172,-0.53
3184,-3.27
3196,-5.78
3208,-8.2
3220,-10.63
3232,-13.15
3244,-15.83
3256,-18.69
3268,-21.71
3280,-24.85
3292,-28.0
3304,-31.06
3316,-34.06
3327,-37.13
3338,-40.54
3350,-44.57
3362,-49.26
3374,-54.32
3386,-59.04
3398,-62.4
3410,-63.36
3422,-61.13
3434,-55.44
3446,-46.62
3458,-35.59
3470,-23.57
3482,-11.81
3494,-1.31
3506,7.33
3517,13.95
3528,18.7
3540,21.96
3552,24.16
3564,25.69
3576,26.85
3588,27.8
3600,28.56
3612,29.02
3624,29.05
3636,28.57
3648,27.62
3660,26.36
3672,25.02
3684,23.86
3696,23.02
3707,22.57
3718,22.42
3730,22.38
3742,22.21
3754,21.75
3766,20.93
3778,19.81
3790,18.48
3802,17.01
3814,15.4
3826,13.59
3838,11.52
3850,9.17
3862,6.62
3874,3.91
3886,1.14
3897,-1.67
3908,-4.53
3920,-7.42
3932,-10.32
3944,-13.21
3956,-16.06
3968,-18.89
3980,-21.69
3992,-24.48
4004,-27.22
4016,-29.88
4028,-32.43
4040,-34.92
4052,-37.45
4064,-40.14
4076,-43.09
4087,-46.24
4098,-49.28
4110,-51.56
4122,-52.24
4134,-50.46
4146,-45.66
4158,-37.85
4170,-27.66
4182,-16.2
4194,-4.7
4206,5.84
4218,14.88
4230,22.21
4242,27.96
4254,32.21
4266,35.08
4277,36.67
4288,37.18
4300,36.89
4312,36.16
4324,35.29
4336,34.4
4348,33.47
4360,32.36
4372,30.96
4384,29.32
4396,27.58
4408,25.98
4420,24.69
4432,23.75
4444,23.01
4456,22.18
4467,20.95
4478,19.16
4490,16.79
4502,14.0
4514,11.0
4526,8.0
4538,5.16
4550,2.56
4562,0.18
4574,-2.05
4586,-4.35
4598,-6.94
4610,-9.99
4622,-13.46
4634,-17.1
4646,-20.52
4657,-23.41
4668,-25.63
4680,-27.36
4692,-28.99
4704,-31.02
4716,-33.8
4728,-37.4
4740,-41.47
4752,-45.3
4764,-47.86
4776,-48.11
4788,-45.28
4800,-39.16
4812,-30.26
4824,-19.66
4836,-8.68
4847,1.48
4858,10.08
4870,16.87
4882,21.98
4894,25.7
4906,28.3
4918,29.99
4930,30.97
4942,31.45
4954,31.64
4966,31.68
4978,31.64
4990,31.43
5002,30.96
5014,30.13
5026,28.94
5037,27.51
5048,26.02
5060,24.66
5072,23.57
5084,22.75
5096,22.08
5108,21.33
5120,20.24
5132,18.6
5144,16.34
5156,13.57
5168,10.53
5180,7.48
5192,4.6
5204,1.9
5216,-0.71
5227,-3.4
5238,-6.26
5250,-9.31
5262,-12.5
5274,-15.75
5286,-19.05
5298,-22.38
5310,-25.76
5322,-29.1
5334,-32.22
5346,-34.93
5358,-37.14
5370,-38.98
5382,-40.8
5394,-43.08
5406,-46.13
5417,-49.9
5428,-53.82
5440,-56.92
5452,-58.04
5464,-56.28
5476,-51.19
5488,-42.96
5500,-32.35
5512,-20.46
5524,-8.46
5536,2.63
5548,12.09
5560,19.56
5572,24.99
5584,28.58
5596,30.7
5607,31.78
5618,32.27
5630,32.52
5642,32.8
5654,33.21
5666,33.79
5678,34.46
5690,35.13
5702,35.68
5714,36.03
5726,36.18
5738,36.18
5750,36.09
5762,36.0
5774,35.87
5786,35.61
5797,35.05
5808,34.02
5820,32.43
5832,30.33
5844,27.9
5856,25.31
5868,22.65
5880,19.91
5892,16.99
5904,13.81
5916,10.4
5928,6.87
5940,3.39
5952,0.1
5964,-3.02
5976,-6.06
5987,-9.2
5998,-12.53
6010,-16.03
6022,-19.55
6034,-22.86
6046,-25.79
6058,-28.31
6070,-30.53
6082,-32.69
6094,-35.08
6106,-37.95
6118,-41.47
6130,-45.6
6142,-50.15
6154,-54.58
6166,-58.09
6177,-59.71
6188,-58.51
6200,-53.93
6212,-45.98
6224,-35.31
6236,-23.08
6248,-10.64
6260,0.79
6272,10.4
6284,17.86
6296,23.35
6308,27.32
6320,30.31
6332,32.72
6344,34.75
6356,36.32
6367,37.27
6378,37.49
6390,36.98
6402,35.91
6414,34.54
6426,33.07
6438,31.62
6450,30.24
6462,28.99
6474,27.93
6486,27.13
6498,26.6
6510,26.18
6522,25.6
6534,24.53
6546,22.72
6557,20.19
6568,17.2
6580,14.18
6592,11.48
6604,9.26
6616,7.37
6628,5.47
6640,3.22
6652,0.48
6664,-2.61
6676,-5.71
6688,-8.55
6700,-11.02
6712,-13.26
6724,-15.52
6736,-18.0
6747,-20.74
6758,-23.55
6770,-26.18
6782,-28.44
6794,-30.37
6806,-32.12
6818,-33.96
6830,-36.13
6842,-38.76
6854,-41.93
6866,-45.6
6878,-49.58
6890,-53.45
6902,-56.44
6914,-57.61
6926,-56.04
6937,-51.24
6948,-43.27
6960,-32.92
6972,-21.41
6984,-10.06
6996,0.05
7008,8.3
7020,14.56
7032,19.03
7044,22.07
7056,24.06
7068,25.3
7080,26.03
7092,26.39
7104,26.47
7116,26.34
7127,26.0
7138,25.49
7150,24.79
7162,23.93
7174,22.94
7186,21.87
7198,20.8
7210,19.85
7222,19.12
7234,18.66
7246,18.45
7258,18.37
7270,18.15
7282,17.53
7294,16.27
7306,14.3
7317,11.71
7328,8.79
7340,5.83
7352,3.03
7364,0.44
7376,-2.08
7388,-4.73
7400,-7.65
7412,-10.81
7424,-14.04
7436,-17.06
7448,-19.67
7460,-21.84
7472,-23.76
7484,-25.76
7496,-28.21
7507,-31.35
7518,-35.18
7530,-39.35
7542,-43.24
7554,-46.01
7566,-46.75
7578,-44.79
7590,-39.88
7602,-32.29
7614,-22.82
7626,-12.51
7638,-2.44
7650,6.58
7662,14.08
7674,19.95
7686,24.28
7697,27.24
7708,29.03
7720,29.84
7732,29.89
7744,29.46
7756,28.75
7768,27.92
7780,26.99
7792,25.9
7804,24.63
7816,23.22
7828,21.87
7840,20.77
7852,20.0
7864,19.49
7876,19.03
7887,18.33
7898,17.25
7910,15.79
7922,14.05
7934,12.14
7946,10.1
7958,7.86
7970,5.34
7982,2.51
7994,-0.54
8006,-3.7
8018,-6.83
8030,-9.87
8042,-12.85
8054,-15.85
8066,-18.86
8077,-21.88
8088,-24.87
8100,-27.82
8112,-30.84
8124,-34.08
8136,-37.6
8148,-41.19
8160,-44.28
8172,-45.99
8184,-45.37
8196,-41.78
8208,-35.17
8220,-26.16
8232,-15.84
8244,-5.39
8256,4.28
8267,12.69
8278,19.67
8290,25.25
8302,29.46
8314,32.27
8326,33.75
8338,34.1
8350,33.71
8362,33.0
8374,32.3
8386,31.76
8398,31.32
8410,30.85
8422,30.22
8434,29.42
8446,28.45
8457,27.37
8468,26.22
8480,25.07
8492,23.96
8504,22.92
8516,21.94
8528,20.87
8540,19.51
8552,17.67
8564,15.24
8576,12.31
8588,9.09
8600,5.9
8612,2.94
8624,0.3
8636,-2.19
8647,-4.77
8658,-7.64
8670,-10.87
8682,-14.31
8694,-17.76
8706,-20.99
8718,-23.91
8730,-26.55
8742,-29.0
8754,-31.37
8766,-33.77
8778,-36.34
8790,-39.25
8802,-42.62
8814,-46.35
8826,-49.91
8837,-52.4
8848,-52.71
8860,-49.92
8872,-43.7
8884,-34.49
8896,-23.34
8908,-11.63
8920,-0.62
8932,8.86
8944,16.46
8956,22.28
8968,26.59
8980,29.72
8992,31.95
9004,33.46
9016,34.43
9027,34.97
9038,35.21
9050,35.16
9062,34.82
9074,34.11
9086,32.98
9098,31.44
9110,29.66
9122,27.81
9134,26.09
9146,24.59
9158,23.32
9170,22.18
9182,21.05
9194,19.78
9206,18.26
9217,16.42
9228,14.23
9240,11.7
9252,8.89
9264,5.88
9276,2.72
9288,-0.53
9300,-3.85
9312,-7.14
9324,-10.32
9336,-13.28
9348,-16.03
9360,-18.72
9372,-21.64
9384,-25.06
9396,-29.09
9407,-33.6
9418,-38.27
9430,-42.71
9442,-46.69
9454,-50.21
9466,-53.56
9478,-57.23
9490,-61.75
9502,-67.52
9514,-74.61
9526,-82.58
9538,-90.43
9550,-96.72
9562,-99.89
9574,-98.69
9586,-92.65
9597,-82.27
9608,-68.91
9620,-54.4
9632,-40.53
9644,-28.57
9656,-19.1
9668,-12.02
9680,-6.75
9692,-2.55
9704,1.31
9716,5.36
9728,9.89
9740,14.87
9752,20.08
9764,25.21
9776,29.95
9787,34.18
9798,37.97
9810,41.5
9822,44.96
9834,48.4
9846,51.68
9858,54.5
9870,56.57
9882,57.72
9894,57.98
9906,57.6
9918,56.9
9930,56.17
9942,55.58
9954,55.15
9966,54.75
9977,54.19
9988,53.28
10000,51.88
10012,49.91
10024,47.35
10036,44.21
10048,40.59
10060,36.67
10072,32.69
10084,28.94
10096,25.56
10108,22.58
10120,19.86
10132,17.21
10144,14.53
10156,11.79
10167,9.08
10178,6.44
10190,3.77
10202,0.79
10214,-2.83
10226,-7.37
10238,-12.79
10250,-18.59
10262,-23.84
10274,-27.36
10286,-28.07
10298,-25.39
10310,-19.47
10322,-11.2
10334,-1.95
10346,6.92
10357,14.44
10368,20.23
10380,24.38
10392,27.23
10404,29.09
10416,30.13
10428,30.47
10440,30.26
10452,29.79
10464,29.36
10476,29.14
10488,29.04
10500,28.76
10512,27.96
10524,26.52
10536,24.63
10547,22.71
10558,21.23
10570,20.43
10582,20.22
10594,20.26
10606,20.1
10618,19.39
10630,17.96
10642,15.87
10654,13.3
10666,10.46
10678,7.54
10690,4.67
10702,1.92
10714,-0.74
10726,-3.37
10737,-6.06
10748,-8.86
10760,-11.82
10772,-14.92
10784,-18.08
10796,-21.28
10808,-24.52
10820,-27.85
10832,-31.4
10844,-35.24
10856,-39.26
10868,-43.1
10880,-46.08
10892,-47.4
10904,-46.38
10916,-42.72
10927,-36.68
10938,-29.09
10950,-21.05
10962,-13.61
10974,-7.41
10986,-2.5
10998,1.47
11010,5.1
11022,8.79
11034,12.59
11046,16.19
11058,19.08
11070,20.77
11082,21.05
11094,19.99
11106,17.96
11117,15.43
11128,12.96
11140,10.98
11152,9.82
11164,9.57
11176,10.11
11188,11.05
11200,11.88
11212,12.1
11224,11.33
11236,9.47
11248,6.64
11260,3.19
11272,-0.41
11284,-3.77
11296,-6.73
11307,-9.38
11318,-12.03
11330,-15.07
11342,-18.68
11354,-22.78
11366,-27.02
11378,-30.97
11390,-34.31
11402,-37.03
11414,-39.39
11426,-41.8
11438,-44.54
11450,-47.61
11462,-50.55
11474,-52.55
11486,-52.61
11497,-49.92
11508,-44.08
11520,-35.35
11532,-24.63
11544,-13.2
11556,-2.39
11568,6.8
11580,13.95
11592,19.14
11604,22.83
11616,25.58
11628,27.83
11640,29.8
11652,31.52
11664,32.9
11676,33.83
11687,34.18
11698,33.91
11710,32.98
11722,31.43
11734,29.35
11746,26.92
11758,24.37
11770,21.95
11782,19.91
11794,18.34
11806,17.18
11818,16.16
11830,14.96
11842,13.33
11854,11.16
11866,8.59
11877,5.88
11888,3.29
11900,0.95
11912,-1.19
11924,-3.34
11936,-5.73
11948,-8.51
11960,-11.67
11972,-15.05
11984,-18.41
11996,-21.5
12008,-24.15
12020,-26.41
12032,-28.55
12044,-30.99
12056,-34.23
12067,-38.5
12078,-43.57
12090,-48.69
12102,-52.71
12114,-54.49
12126,-53.25
12138,-48.85
12150,-41.79
12162,-32.94
12174,-23.27
12186,-13.6
12198,-4.49
12210,3.63
12222,10.51
12234,16.01
12246,20.17
12257,23.28
12268,25.79
12280,28.17
12292,30.65
12304,33.2
12316,35.48
12328,37.13
12340,37.92
12352,37.86
12364,37.19
12376,36.25
12388,35.29
12400,34.41
12412,33.63
12424,32.88
12436,32.12
12447,31.32
12458,30.44
12470,29.39
12482,27.99
12494,26.1
12506,23.6
12518,20.52
12530,17.0
12542,13.22
12554,9.35
12566,5.44
12578,1.43
12590,-2.84
12602,-7.5
12614,-12.53
12626,-17.74
12637,-22.82
12648,-27.43
12660,-31.37
12672,-34.69
12684,-37.69
12696,-40.81
12708,-44.39
12720,-48.56
12732,-53.11
12744,-57.43
12756,-60.68
12768,-61.92
12780,-60.38
12792,-55.65
12804,-47.87
12816,-37.73
12827,-26.31
12838,-14.81
12850,-4.24
12862,4.79
12874,12.1
12886,17.87
12898,22.36
12910,25.8
12922,28.34
12934,30.12
12946,31.33
12958,32.16
12970,32.71
12982,32.9
12994,32.52
13006,31.38
13017,29.48
13028,27.13
13040,24.75
13052,22.78
13064,21.46
13076,20.76
13088,20.43
13100,20.14
13112,19.56
13124,18.45
13136,16.69
13148,14.32
13160,11.49
13172,8.46
13184,5.46
13196,2.64
13207,-0.04
13218,-2.73
13230,-5.58
13242,-8.64
13254,-11.83
13266,-15.01
13278,-18.05
13290,-20.82
13302,-23.3
13314,-25.44
13326,-27.24
13338,-28.8
13350,-30.28
13362,-31.88
13374,-33.75
13386,-35.84
13397,-37.94
13408,-39.6
13420,-40.3
13432,-39.54
13444,-36.93
13456,-32.32
13468,-25.85
13480,-17.93
13492,-9.2
13504,-0.44
13516,7.64
13528,14.52
13540,19.93
13552,23.86
13564,26.46
13576,27.95
13587,28.61
13598,28.72
13610,28.53
13622,28.25
13634,28.0
13646,27.74
13658,27.34
13670,26.65
13682,25.65
13694,24.44
13706,23.22
13718,22.19
13730,21.41
13742,20.84
13754,20.3
13766,19.66
13777,18.77
13788,17.57
13800,16.01
13812,14.08
13824,11.84
13836,9.4
13848,6.95
13860,4.68
13872,2.75
13884,1.21
13896,-0.01
13908,-1.04
13920,-2.12
13932,-3.48
13944,-5.35
13956,-7.95
13967,-11.43
13978,-15.78
13990,-20.79
14002,-26.01
14014,-30.81
14026,-34.47
14038,-36.29
14050,-35.83
14062,-33.03
14074,-28.3
14086,-22.44
14098,-16.44
14110,-11.11
14122,-6.93
14134,-3.9
14146,-1.63
14157,0.38
14168,2.6
14180,5.26
14192,8.36
14204,11.71
14216,15.03
14228,17.98
14240,20.3
14252,21.83
14264,22.53
14276,22.54
14288,22.11
14300,21.48
14312,20.85
14324,20.3
14336,19.77
14347,19.13
14358,18.2
14370,16.75
14382,14.59
14394,11.58
14406,7.69
14418,3.08
14430,-2.0
14442,-7.2
14454,-12.18
14466,-16.65
14478,-20.51
14490,-23.78
14502,-26.72
14514,-29.69
14526,-33.09
14537,-37.12
14548,-41.66
14560,-46.21
14572,-49.92
14584,-51.94
14596,-51.59
14608,-48.54
14620,-42.96
14632,-35.29
14644,-26.26
14656,-16.67
14668,-7.39
14680,0.83
14692,7.43
14704,12.17
14716,15.21
14727,17.02
14738,18.16
14750,19.08
14762,19.96
14774,20.68
14786,21.01
14798,20.76
14810,19.96
14822,18.82
14834,17.61
14846,16.53
14858,15.55
14870,14.51
14882,13.26
14894,11.75
14906,10.06
14917,8.4
14928,6.93
14940,5.76
14952,4.84
14964,4.06
14976,3.29
14988,2.36
15000,1.14
15012,-0.41
15024,-2.27
15036,-4.34
15048,-6.5
15060,-8.66
15072,-10.84
15084,-13.11
15096,-15.64
15107,-18.55
15118,-21.91
15130,-25.71
15142,-29.73
15154,-33.62
15166,-36.76
15178,-38.4
15190,-37.85
15202,-34.68
15214,-28.98
15226,-21.33
15238,-12.69
15250,-4.07
15262,3.72
15274,10.2
15286,15.2
15297,18.7
15308,20.79
15320,21.59
15332,21.28
15344,20.15
15356,18.48
15368,16.47
15380,14.13
15392,11.28
15404,7.7
15416,3.27
15428,-1.82
15440,-7.12
15452,-12.04
15464,-16.01
15476,-18.69
15487,-20.03
15498,-20.27
15510,-19.82
15522,-19.16
15534,-18.73
15546,-18.79
15558,-19.38
15570,-20.38
15582,-21.52
15594,-22.61
15606,-23.59
15618,-24.55
15630,-25.67
15642,-27.14
15654,-29.04
15666,-31.39
15677,-34.19
15688,-37.5
15700,-41.36
15712,-45.72
15724,-50.31
15736,-54.52
15748,-57.53
15760,-58.49
15772,-56.73
15784,-51.99
15796,-44.53
15808,-35.07
15820,-24.66
15832,-14.39
15844,-5.13
15856,2.59
15867,8.67
15878,13.32
15890,16.87
15902,19.61
15914,21.66
15926,23.11
15938,23.97
15950,24.36
15962,24.42
15974,24.28
15986,23.97
15998,23.35
16010,22.2
16022,20.36
16034,17.83
16046,14.76
16057,11.44
16068,8.13
16080,4.98
16092,2.06
16104,-0.71
16116,-3.46
16128,-6.4
16140,-9.74
16152,-13.74
16164,-18.58
16176,-24.35
16188,-30.97
16200,-38.18
16212,-45.68
16224,-53.18
16236,-60.5
16247,-67.58
16258,-74.52
16270,-81.38
16282,-88.3
16294,-95.37
16306,-102.66
16318,-110.12
16330,-117.44
16342,-123.98
16354,-128.78
16366,-130.85
16378,-129.35
16390,-124.04
16402,-115.34
16414,-104.2
16426,-91.82
16437,-79.23
16448,-66.94
16460,-54.86
16472,-42.43
16484,-28.93
16496,-13.87
16508,2.69
16520,20.06
16532,37.11
16544,52.72
16556,66.19
16568,77.46
16580,87.1
16592,95.92
16604,104.54
16616,113.14
16627,121.46
16638,128.99
16650,135.3
16662,140.16
16674,143.55
16686,145.62
16698,146.69
16710,147.41
16722,148.72
16734,151.78
16746,157.41
16758,165.59
16770,175.12
16782,183.71
16794,188.65
16806,187.7
16817,179.77
16828,165.14
16840,145.1
16852,121.42
16864,95.72
16876,69.21
16888,42.76
16900,17.17
16912,-6.61
16924,-27.39
16936,-44.0
16948,-55.58
16960,-61.86
16972,-63.39
16984,-61.29
16996,-56.91
17007,-51.4
17018,-45.5
17030,-39.54
17042,-33.6
17054,-27.86
17066,-22.61
17078,-18.24
17090,-15.02
17102,-12.9
17114,-11.45
17126,-10.12
17138,-8.27
17150,-5.42
17162,-1.24
17174,4.36
17186,11.26
17197,19.04
17208,27.04
17220,34.48
17232,40.7
17244,45.45
17256,48.9
17268,51.64
17280,54.31
17292,57.41
17304,61.11
17316,65.28
17328,69.69
17340,74.16
17352,78.59
17364,82.93
17376,87.13
17387,91.17
17398,95.12
17410,99.17
17422,103.46
17434,107.71
17446,110.98
17458,111.69
17470,108.08
17482,98.96
17494,84.36
17506,65.66
17518,45.2
17530,25.45
17542,8.25
17554,-5.61
17566,-16.32
17577,-24.68
17588,-31.75
17600,-38.62
17612,-46.31
17624,-55.75
17636,-67.54
17648,-81.66
17660,-97.29
17672,-112.91
17684,-126.64
17696,-136.74
17708,-141.98
17720,-141.83
17732,-136.42
17744,-126.47
17756,-113.23
17767,-98.3
17778,-83.55
17790,-70.76
17802,-61.21
17814,-55.41
17826,-52.96
17838,-52.85
17850,-53.89
17862,-55.27
17874,-56.71
17886,-58.41
17898,-60.65
17910,-63.41
17922,-66.16
17934,-68.1
17946,-68.45
17957,-66.88
17968,-63.58
17980,-59.13
17992,-54.09
18004,-48.69
18016,-42.76
18028,-35.93
18040,-28.05
18052,-19.43
18064,-10.87
18076,-3.31
18088,2.63
18100,6.93
18112,10.22
18124,13.49
18136,17.66
18147,23.23
18158,30.16
18170,38.0
18182,46.1
18194,53.94
18206,61.17
18218,67.58
18230,73.02
18242,77.33
18254,80.3
18266,81.76
18278,81.67
18290,80.1
18302,77.26
18314,73.44
18326,68.94
18337,64.01
18348,58.85
18360,53.55
18372,48.19
18384,42.83
18396,37.63
18408,32.81
18420,28.6
18432,25.11
18444,22.32
18456,19.98
18468,17.72
18480,15.24
18492,12.39
18504,9.23
18516,5.93
18527,2.67
18538,-0.55
18550,-3.85
18562,-7.4
18574,-11.3
18586,-15.4
18598,-19.39
18610,-22.88
18622,-25.64
18634,-27.64
18646,-29.12
18658,-30.38
18670,-31.72
18682,-33.29
18694,-35.17
18706,-37.37
18717,-39.84
18728,-42.39
18740,-44.59
18752,-45.82
18764,-45.42
18776,-42.94
18788,-38.35
18800,-32.05
18812,-24.8
18824,-17.45
18836,-10.63
18848,-4.72
18860,0.18
18872,4.14
18884,7.25
18896,9.62
18907,11.32
18918,12.46
18930,13.14
18942,13.51
18954,13.65
18966,13.65
18978,13.56
18990,13.42
19002,13.26
19014,13.1
19026,12.9
19038,12.64
19050,12.28
19062,11.83
19074,11.31
19086,10.77
19097,10.21
19108,9.52
19120,8.57
19132,7.23
19144,5.46
19156,3.29
19168,0.87
19180,-1.69
19192,-4.3
19204,-6.91
19216,-9.42
19228,-11.71
19240,-13.66
19252,-15.19
19264,-16.47
19276,-17.81
19287,-19.57
19298,-21.97
19310,-24.9
19322,-27.82
19334,-29.96
19346,-30.52
19358,-28.95
19370,-25.15
19382,-19.44
19394,-12.46
19406,-4.96
19418,2.39
19430,9.08
19442,14.78
19454,19.33
19466,22.73
19477,25.03
19488,26.37
19500,26.93
19512,26.9
19524,26.48
19536,25.82
19548,25.01
19560,24.08
19572,23.01
19584,21.79
19596,20.45
19608,19.07
19620,17.8
19632,16.79
19644,16.1
19656,15.69
19667,15.41
19678,15.02
19690,14.29
19702,13.1
19714,11.43
19726,9.34
19738,7.0
19750,4.56
19762,2.2
19774,0.04
19786,-1.87
19798,-3.6
19810,-5.29
19822,-7.12
19834,-9.23
19846,-11.64
19857,-14.22
19868,-16.77
19880,-19.1
19892,-21.13
19904,-22.98
19916,-24.85
19928,-27.02
19940,-29.72
19952,-32.99
19964,-36.65
19976,-40.19
19988,-42.91
20000,-44.05
20012,-42.98
20024,-39.47
20036,-33.81
20047,-26.69
20058,-19.0
20070,-11.61
20082,-5.13
20094,0.11
20106,4.03
20118,6.75
20130,8.51
20142,9.65
20154,10.54
20166,11.5
20178,12.67
20190,13.97
20202,15.2
20214,16.13
20226,16.61
20237,16.63
20248,16.33
20260,15.84
20272,15.32
20284,14.84
20296,14.49
20308,14.33
20320,14.4
20332,14.63
20344,14.87
20356,14.89
20368,14.49
20380,13.59
20392,12.21
20404,10.49
20416,8.59
20427,6.63
20438,4.67
20450,2.73
20462,0.78
20474,-1.18
20486,-3.07
20498,-4.83
20510,-6.42
20522,-7.88
20534,-9.39
20546,-11.17
20558,-13.32
20570,-15.77
20582,-18.3
20594,-20.6
20606,-22.48
20617,-23.99
20628,-25.41
20640,-27.07
20652,-29.18
20664,-31.79
20676,-34.69
20688,-37.62
20700,-40.18
20712,-41.95
20724,-42.33
20736,-40.73
20748,-36.72
20760,-30.29
20772,-21.96
20784,-12.75
20796,-3.8
20807,3.94
20818,9.97
20830,14.27
20842,17.12
20854,18.96
20866,20.15
20878,20.99
20890,21.65
20902,22.26
20914,22.82
20926,23.25
20938,23.45
20950,23.31
20962,22.83
20974,22.14
20986,21.41
20997,20.77
