seconds,BVP
10,-59.73
22,-46.49
34,-31.29
46,-16.08
58,-2.35
70,9.13
82,18.27
94,25.28
106,30.35
118,33.6
130,35.15
141,35.27
152,34.49
164,33.45
176,32.68
188,32.4
200,32.56
212,32.86
224,33.06
236,33.05
248,32.91
260,32.78
272,32.75
284,32.72
296,32.44
308,31.58
320,29.87
331,27.22
342,23.79
354,19.89
366,15.92
378,12.19
390,8.75
402,5.43
414,1.94
426,-2.01
438,-6.48
450,-11.28
462,-16.05
474,-20.42
486,-24.19
498,-27.47
510,-30.67
521,-34.41
532,-39.24
544,-45.54
556,-53.14
568,-61.29
580,-68.62
592,-73.43
604,-74.14
616,-69.78
628,-60.38
640,-46.96
652,-31.32
664,-15.43
676,-0.97
688,11.1
700,20.51
711,27.52
722,32.56
734,36.01
746,38.1
758,38.98
770,38.9
782,38.21
794,37.42
806,36.99
818,37.2
830,38.03
842,39.16
854,40.19
866,40.78
878,40.85
890,40.53
901,40.02
912,39.41
924,38.55
936,37.09
948,34.71
960,31.27
972,26.99
984,22.35
996,17.91
1008,14.04
1020,10.75
1032,7.74
1044,4.5
1056,0.61
1068,-4.04
1080,-9.26
1091,-14.61
1102,-19.62
1114,-24.01
1126,-27.78
1138,-31.23
1150,-34.86
1162,-39.21
1174,-44.73
1186,-51.7
1198,-60.06
1210,-69.27
1222,-78.17
1234,-85.11
1246,-88.25
1258,-86.2
1270,-78.43
1281,-65.64
1292,-49.57
1304,-32.42
1316,-16.19
1328,-2.15
1340,9.34
1352,18.53
1364,25.94
1376,31.9
1388,36.5
1400,39.63
1412,41.3
1424,41.79
1436,41.63
1448,41.46
1460,41.76
1471,42.61
1482,43.74
1494,44.69
1506,45.09
1518,44.9
1530,44.33
1542,43.73
1554,43.31
1566,42.97
1578,42.31
1590,40.82
1602,38.15
1614,34.27
1626,29.55
1638,24.54
1650,19.75
1661,15.5
1672,11.81
1684,8.39
1696,4.87
1708,0.92
1720,-3.6
1732,-8.56
1744,-13.69
1756,-18.61
1768,-23.01
1780,-26.85
1792,-30.32
1804,-33.81
1816,-37.87
1828,-43.01
1840,-49.56
1851,-57.54
1862,-66.42
1874,-75.11
1886,-81.98
1898,-85.26
1910,-83.54
1922,-76.25
1934,-63.92
1946,-48.1
1958,-30.88
1970,-14.3
1982,0.2
1994,11.98
2006,21.08
2018,27.98
2030,33.17
2041,37.02
2052,39.75
2064,41.48
2076,42.37
2088,42.69
2100,42.75
2112,42.87
2124,43.23
2136,43.84
2148,44.56
2160,45.15
2172,45.45
2184,45.41
2196,45.13
2208,44.73
2220,44.23
2231,43.49
2242,42.2
2254,40.05
2266,36.86
2278,32.72
2290,27.99
2302,23.19
2314,18.82
2326,15.07
2338,11.79
2350,8.55
2362,4.83
2374,0.3
2386,-5.01
2398,-10.69
2410,-16.18
2421,-20.99
2432,-24.96
2444,-28.37
2456,-31.79
2468,-35.91
2480,-41.33
2492,-48.31
2504,-56.67
2516,-65.69
2528,-74.06
2540,-80.05
2552,-81.93
2564,-78.51
2576,-69.57
2588,-56.05
2600,-39.8
2611,-22.99
2622,-7.49
2634,5.56
2646,15.87
2658,23.66
2670,29.38
2682,33.39
2694,35.87
2706,36.99
2718,36.96
2730,36.15
2742,35.06
2754,34.12
2766,33.67
2778,33.77
2790,34.32
2801,35.1
2812,35.87
2824,36.47
2836,36.76
2848,36.64
2860,35.95
2872,34.58
2884,32.41
2896,29.44
2908,25.82
2920,21.74
2932,17.43
2944,13.03
2956,8.6
2968,4.12
2980,-0.42
2991,-5.0
3002,-9.54
3014,-13.95
3026,-18.16
3038,-22.18
3050,-26.07
3062,-29.99
3074,-34.22
3086,-39.16
3098,-45.16
3110,-52.36
3122,-60.36
3134,-68.09
3146,-73.88
3158,-75.93
3170,-72.89
3181,-64.43
3192,-51.45
3204,-35.8
3216,-19.66
3228,-4.85
3240,7.59
3252,17.45
3264,25.08
3276,30.89
3288,35.16
3300,37.95
3312,39.32
3324,39.51
3336,38.97
3348,38.3
3360,38.0
3371,38.29
3382,39.04
3394,39.92
3406,40.54
3418,40.71
3430,40.47
3442,40.03
3454,39.62
3466,39.27
3478,38.74
3490,37.59
3502,35.35
3514,31.82
3526,27.18
3538,22.0
3550,17.03
3561,12.84
3572,9.6
3584,6.98
3596,4.32
3608,0.97
3620,-3.4
3632,-8.62
3644,-14.18
3656,-19.44
3668,-23.95
3680,-27.63
3692,-30.85
3704,-34.2
3716,-38.4
3728,-44.03
3740,-51.33
3751,-60.04
3762,-69.22
3774,-77.34
3786,-82.53
3798,-83.12
3810,-78.17
3822,-67.8
3834,-53.26
3846,-36.53
3858,-19.74
3870,-4.57
3882,8.07
3894,18.04
3906,25.72
3918,31.63
3930,36.19
3941,39.58
3952,41.85
3964,43.08
3976,43.5
3988,43.44
4000,43.34
4012,43.47
4024,43.89
4036,44.44
4048,44.84
4060,44.95
4072,44.79
4084,44.53
4096,44.29
4108,44.05
4120,43.5
4131,42.21
4142,39.8
4154,36.2
4166,31.73
4178,26.98
4190,22.58
4202,18.87
4214,15.83
4226,13.02
4238,9.88
4250,5.96
4262,1.08
4274,-4.51
4286,-10.37
4298,-15.99
4310,-21.06
4321,-25.49
4332,-29.55
4344,-33.77
4356,-38.77
4368,-45.18
4380,-53.25
4392,-62.66
4404,-72.38
4416,-80.71
4428,-85.71
4440,-85.75
4452,-80.06
4464,-69.07
4476,-54.29
4488,-37.81
4500,-21.73
4511,-7.51
4522,4.17
4534,13.35
4546,20.49
4558,26.03
4570,30.29
4582,33.33
4594,35.18
4606,35.92
4618,35.84
4630,35.34
4642,34.78
4654,34.41
4666,34.28
4678,34.29
4690,34.35
4701,34.43
4712,34.58
4724,34.83
4736,35.1
4748,35.14
4760,34.58
4772,33.09
4784,30.56
4796,27.14
4808,23.26
4820,19.44
4832,16.05
4844,13.15
4856,10.44
4868,7.42
4880,3.67
4891,-0.91
4902,-6.09
4914,-11.33
4926,-16.15
4938,-20.33
4950,-23.96
4962,-27.45
4974,-31.34
4986,-36.09
4998,-42.02
5010,-49.16
5022,-57.11
5034,-65.02
5046,-71.49
5058,-74.89
5070,-73.82
5081,-67.61
5092,-56.69
5104,-42.54
5116,-27.21
5128,-12.63
5140,-0.13
5152,9.86
5164,17.55
5176,23.44
5188,27.88
5200,30.98
5212,32.69
5224,33.01
5236,32.21
5248,30.82
5260,29.42
5271,28.54
5282,28.42
5294,29.01
5306,30.07
5318,31.27
5330,32.28
5342,32.9
5354,33.0
5366,32.51
5378,31.44
5390,29.75
5402,27.41
5414,24.44
5426,20.86
5438,16.76
5450,12.31
5461,7.67
5472,2.98
5484,-1.69
5496,-6.29
5508,-10.8
5520,-15.18
5532,-19.42
5544,-23.57
5556,-27.82
5568,-32.5
5580,-37.97
5592,-44.52
5604,-52.08
5616,-60.11
5628,-67.44
5640,-72.54
5651,-73.84
5662,-70.27
5674,-61.69
5686,-49.02
5698,-33.93
5710,-18.36
5722,-3.96
5734,8.35
5746,18.31
5758,26.11
5770,32.08
5782,36.4
5794,39.14
5806,40.37
5818,40.33
5830,39.48
5841,38.35
5852,37.45
5864,37.02
5876,37.03
5888,37.27
5900,37.51
5912,37.67
5924,37.83
5936,38.11
5948,38.54
5960,38.92
5972,38.82
5984,37.75
5996,35.35
6008,31.6
6020,26.87
6031,21.78
6042,16.96
6054,12.84
6066,9.41
6078,6.27
6090,2.85
6102,-1.31
6114,-6.34
6126,-11.96
6138,-17.6
6150,-22.72
6162,-27.03
6174,-30.67
6186,-34.16
6198,-38.17
6210,-43.38
6221,-50.17
6232,-58.55
6244,-67.9
6256,-77.02
6268,-84.17
6280,-87.42
6292,-85.28
6304,-77.18
6316,-63.85
6328,-47.1
6340,-29.32
6352,-12.68
6364,1.43
6376,12.58
6388,21.1
6400,27.59
6411,32.52
6422,36.07
6434,38.3
6446,39.3
6458,39.38
6470,39.01
6482,38.66
6494,38.61
6506,38.88
6518,39.3
6530,39.62
6542,39.71
6554,39.62
6566,39.49
6578,39.45
6590,39.47
6601,39.37
6612,38.79
6624,37.37
6636,34.91
6648,31.41
6660,27.14
6672,22.57
6684,18.22
6696,14.51
6708,11.55
6720,9.15
6732,6.77
6744,3.86
6756,0.01
6768,-4.83
6780,-10.3
6791,-15.83
6802,-20.87
6814,-25.19
6826,-28.95
6838,-32.68
6850,-37.04
6862,-42.62
6874,-49.65
6886,-57.94
6898,-66.81
6910,-75.07
6922,-81.21
6934,-83.67
6946,-81.26
6958,-73.55
6970,-61.15
6981,-45.53
6992,-28.73
7004,-12.69
7016,1.19
7028,12.28
7040,20.7
7052,26.92
7064,31.45
7076,34.64
7088,36.68
7100,37.7
7112,37.94
7124,37.77
7136,37.59
7148,37.71
7160,38.23
7171,38.98
7182,39.74
7194,40.31
7206,40.66
7218,40.92
7230,41.23
7242,41.59
7254,41.77
7266,41.37
7278,39.97
7290,37.35
7302,33.59
7314,29.07
7326,24.35
7338,19.89
7350,15.95
7361,12.5
7372,9.29
7384,6.0
7396,2.36
7408,-1.72
7420,-6.17
7432,-10.76
7444,-15.29
7456,-19.64
7468,-23.85
7480,-28.17
7492,-32.97
7504,-38.65
7516,-45.44
7528,-53.19
7540,-61.14
7551,-67.97
7562,-71.99
7574,-71.67
7586,-66.22
7598,-55.92
7610,-42.1
7622,-26.72
7634,-11.76
7646,1.32
7658,11.88
7670,19.95
7682,25.9
7694,30.08
7706,32.71
7718,33.86
7730,33.64
7741,32.38
7752,30.6
7764,28.91
7776,27.78
7788,27.41
7800,27.66
7812,28.14
7824,28.43
7836,28.19
7848,27.32
7860,25.89
7872,24.05
7884,21.94
7896,19.6
7908,17.05
7920,14.3
7931,11.35
7942,8.18
7954,4.74
7966,0.9
7978,-3.43
7990,-8.23
8002,-13.36
8014,-18.55
8026,-23.49
8038,-27.96
8050,-31.88
8062,-35.42
8074,-38.93
8086,-42.94
8098,-47.93
8110,-54.17
8121,-61.44
8132,-68.89
8144,-75.03
8156,-78.13
8168,-76.68
8180,-70.0
8192,-58.51
8204,-43.62
8216,-27.35
8228,-11.68
8240,1.93
8252,12.77
8264,20.85
8276,26.58
8288,30.44
8300,32.82
8311,34.0
8322,34.2
8334,33.74
8346,33.03
8358,32.47
8370,32.33
8382,32.63
8394,33.2
8406,33.78
8418,34.19
8430,34.47
8442,34.75
8454,35.16
8466,35.59
8478,35.69
8490,34.95
8501,32.99
8512,29.72
8524,25.48
8536,20.83
8548,16.35
8560,12.39
8572,8.93
8584,5.61
8596,1.98
8608,-2.32
8620,-7.39
8632,-12.98
8644,-18.67
8656,-23.99
8668,-28.72
8680,-32.88
8691,-36.86
8702,-41.3
8714,-46.86
8726,-53.99
8738,-62.6
8750,-71.87
8762,-80.26
8774,-85.88
8786,-86.98
8798,-82.52
8810,-72.59
8822,-58.4
8834,-41.91
8846,-25.24
8858,-10.09
8870,2.61
8881,12.65
8892,20.33
8904,26.15
8916,30.52
8928,33.68
8940,35.78
8952,36.98
8964,37.53
8976,37.75
8988,37.96
9000,38.32
9012,38.83
9024,39.34
9036,39.66
9048,39.74
9060,39.7
9071,39.73
9082,39.94
9094,40.2
9106,40.12
9118,39.21
9130,37.06
9142,33.63
9154,29.24
9166,24.49
9178,19.96
9190,15.98
9202,12.46
9214,9.02
9226,5.16
9238,0.59
9250,-4.66
9261,-10.28
9272,-15.83
9284,-20.96
9296,-25.6
9308,-29.97
9320,-34.49
9332,-39.63
9344,-45.84
9356,-53.3
9368,-61.89
9380,-70.92
9392,-79.13
9404,-84.84
9416,-86.33
9428,-82.46
9440,-73.09
9451,-59.25
9462,-42.86
9474,-26.08
9486,-10.68
9498,2.33
9510,12.77
9522,20.95
9534,27.32
9546,32.2
9558,35.7
9570,37.91
9582,39.01
9594,39.36
9606,39.4
9618,39.54
9630,39.97
9641,40.69
9652,41.51
9664,42.17
9676,42.51
9688,42.5
9700,42.24
9712,41.82
9724,41.22
9736,40.26
9748,38.64
9760,36.11
9772,32.62
9784,28.41
9796,23.89
9808,19.52
9820,15.59
9831,12.07
9842,8.65
9854,4.89
9866,0.42
9878,-4.8
9890,-10.51
9902,-16.18
9914,-21.29
9926,-25.59
9938,-29.19
9950,-32.61
9962,-36.55
9974,-41.66
9986,-48.28
9998,-56.22
10010,-64.64
10021,-72.14
10032,-76.99
10044,-77.58
10056,-72.97
10068,-63.23
10080,-49.52
10092,-33.77
10104,-18.07
10116,-4.04
10128,7.52
10140,16.58
10152,23.58
10164,28.94
10176,32.86
10188,35.35
10200,36.38
10211,36.16
10222,35.15
10234,33.97
10246,33.16
10258,33.01
10270,33.5
10282,34.39
10294,35.37
10306,36.19
10318,36.65
10330,36.67
10342,36.17
10354,35.05
10366,33.24
10378,30.75
10390,27.7
10401,24.26
10412,20.62
10424,16.91
10436,13.13
10448,9.21
10460,5.07
10472,0.69
10484,-3.88
10496,-8.52
10508,-13.1
10520,-17.56
10532,-21.96
10544,-26.48
10556,-31.44
10568,-37.21
10580,-44.02
10591,-51.78
10602,-59.84
10614,-66.92
10626,-71.41
10638,-71.77
10650,-67.12
10662,-57.6
10674,-44.44
10686,-29.5
10698,-14.74
10710,-1.63
10722,9.15
10734,17.57
10746,23.96
10758,28.67
10770,31.87
10781,33.58
10792,33.91
10804,33.12
10816,31.74
10828,30.39
10840,29.57
10852,29.53
10864,30.21
10876,31.31
10888,32.51
10900,33.52
10912,34.16
10924,34.31
10936,33.82
10948,32.54
10960,30.36
10971,27.28
10982,23.51
10994,19.37
11006,15.25
11018,11.43
11030,7.98
11042,4.71
11054,1.28
11066,-2.65
11078,-7.23
11090,-12.34
11102,-17.64
11114,-22.73
11126,-27.32
11138,-31.46
11150,-35.51
11161,-40.1
11172,-45.9
11184,-53.33
11196,-62.26
11208,-71.82
11220,-80.49
11232,-86.31
11244,-87.54
11256,-83.11
11268,-73.13
11280,-58.83
11292,-42.26
11304,-25.58
11316,-10.47
11328,2.19
11340,12.34
11351,20.4
11362,26.87
11374,32.07
11386,36.1
11398,38.95
11410,40.68
11422,41.51
11434,41.82
11446,41.98
11458,42.26
11470,42.7
11482,43.22
11494,43.68
11506,43.99
11518,44.16
11530,44.27
11541,44.31
11552,44.14
11564,43.44
11576,41.86
11588,39.14
11600,35.31
11612,30.69
11624,25.82
11636,21.25
11648,17.27
11660,13.83
11672,10.57
11684,6.98
11696,2.68
11708,-2.38
11720,-7.9
11731,-13.39
11742,-18.37
11754,-22.62
11766,-26.32
11778,-29.99
11790,-34.32
11802,-39.97
11814,-47.3
11826,-56.21
11838,-65.91
11850,-74.96
11862,-81.55
11874,-83.9
11886,-80.82
11898,-72.14
11910,-58.84
11921,-42.71
11932,-25.89
11944,-10.19
11956,3.28
11968,14.16
11980,22.64
11992,29.14
12004,34.03
12016,37.52
12028,39.74
12040,40.89
12052,41.33
12064,41.53
12076,41.94
12088,42.81
12100,44.12
12111,45.55
12122,46.7
12134,47.28
12146,47.24
12158,46.79
12170,46.21
12182,45.65
12194,45.02
12206,44.01
12218,42.19
12230,39.28
12242,35.31
12254,30.64
12266,25.82
12278,21.43
12290,17.79
12301,14.9
12312,12.39
12324,9.72
12336,6.42
12348,2.32
12360,-2.4
12372,-7.28
12384,-11.82
12396,-15.7
12408,-18.95
12420,-21.94
12432,-25.23
12444,-29.48
12456,-35.2
12468,-42.67
12480,-51.73
12491,-61.66
12502,-71.12
12514,-78.36
12526,-81.6
12538,-79.6
12550,-72.09
12562,-59.95
12574,-44.96
12586,-29.21
12598,-14.49
12610,-1.91
12622,8.23
12634,16.11
12646,22.13
12658,26.54
12670,29.46
12681,30.98
12692,31.31
12704,30.86
12716,30.17
12728,29.75
12740,29.87
12752,30.52
12764,31.46
12776,32.35
12788,32.95
12800,33.22
12812,33.26
12824,33.19
12836,32.98
12848,32.42
12860,31.19
12871,29.03
12882,25.89
12894,22.01
12906,17.82
12918,13.75
12930,10.02
12942,6.56
12954,3.09
12966,-0.69
12978,-4.92
12990,-9.47
13002,-14.04
13014,-18.29
13026,-22.05
13038,-25.4
13050,-28.67
13061,-32.36
13072,-36.98
13084,-42.86
13096,-49.96
13108,-57.77
13120,-65.15
13132,-70.57
13144,-72.41
13156,-69.48
13168,-61.51
13180,-49.31
13192,-34.54
13204,-19.22
13216,-5.08
13228,6.89
13240,16.46
13251,23.96
13262,29.87
13274,34.45
13286,37.73
13298,39.62
13310,40.11
13322,39.53
13334,38.44
13346,37.49
13358,37.19
13370,37.64
13382,38.57
13394,39.48
13406,39.93
13418,39.73
13430,38.98
13441,37.97
13452,36.94
13464,35.86
13476,34.45
13488,32.27
13500,29.03
13512,24.79
13524,19.94
13536,15.09
13548,10.75
13560,7.11
13572,3.93
13584,0.7
13596,-3.09
13608,-7.69
13620,-12.93
13631,-18.32
13642,-23.26
13654,-27.29
13666,-30.34
13678,-32.72
13690,-35.07
13702,-38.1
13714,-42.47
13726,-48.52
13738,-56.23
13750,-65.04
13762,-73.81
13774,-80.88
13786,-84.47
13798,-83.12
13810,-76.24
13821,-64.37
13832,-49.07
13844,-32.43
13856,-16.48
13868,-2.57
13880,8.72
13892,17.5
13904,24.21
13916,29.35
13928,33.29
13940,36.23
13952,38.35
13964,39.77
13976,40.67
13988,41.25
14000,41.67
14011,42.08
14022,42.52
14034,42.94
14046,43.29
14058,43.54
14070,43.74
14082,43.95
14094,44.18
14106,44.29
14118,43.93
14130,42.71
14142,40.31
14154,36.72
14166,32.31
14178,27.63
14190,23.27
14201,19.55
14212,16.41
14224,13.44
14236,10.08
14248,5.89
14260,0.79
14272,-4.94
14284,-10.77
14296,-16.1
14308,-20.58
14320,-24.19
14332,-27.26
14344,-30.32
14356,-33.94
14368,-38.61
14380,-44.65
14391,-52.07
14402,-60.39
14414,-68.57
14426,-75.02
14438,-77.92
14450,-75.79
14462,-68.1
14474,-55.49
14486,-39.74
14498,-23.07
14510,-7.49
14522,5.77
14534,16.39
14546,24.71
14558,31.24
14570,36.34
14581,40.1
14592,42.5
14604,43.64
14616,43.8
14628,43.47
14640,43.13
14652,43.12
14664,43.54
14676,44.25
14688,45.0
14700,45.58
14712,45.93
14724,46.09
14736,46.18
14748,46.16
14760,45.81
14771,44.76
14782,42.62
14794,39.21
14806,34.66
14818,29.44
14830,24.19
14842,19.47
14854,15.53
14866,12.22
14878,9.06
14890,5.53
14902,1.23
14914,-3.86
14926,-9.42
14938,-14.94
14950,-19.97
14961,-24.33
14972,-28.17
14984,-31.91
14996,-36.13
15008,-41.34
15020,-47.9
15032,-55.75
15044,-64.35
15056,-72.56
15068,-78.74
15080,-81.17
15092,-78.52
15104,-70.41
15116,-57.63
15128,-41.98
15140,-25.67
15151,-10.71
15162,1.68
15174,11.1
15186,17.85
15198,22.46
15210,25.43
15222,27.08
15234,27.59
15246,27.18
15258,26.13
15270,24.81
15282,23.58
15294,22.69
15306,22.24
15318,22.23
15330,22.55
15341,23.09
15352,23.66
15364,24.05
15376,24.04
15388,23.49
15400,22.3
15412,20.51
15424,18.23
15436,15.59
15448,12.68
15460,9.47
15472,5.9
15484,1.92
15496,-2.45
15508,-7.05
15520,-11.62
15531,-15.94
15542,-19.92
15554,-23.64
15566,-27.34
15578,-31.36
15590,-36.04
15602,-41.64
15614,-48.26
15626,-55.66
15638,-63.21
15650,-69.77
15662,-73.89
15674,-74.16
15686,-69.63
15698,-60.27
15710,-47.09
15721,-31.81
15732,-16.41
15744,-2.52
15756,8.91
15768,17.7
15780,24.15
15792,28.69
15804,31.67
15816,33.27
15828,33.64
15840,33.03
15852,31.88
15864,30.69
15876,29.87
15888,29.62
15900,29.88
15911,30.45
15922,31.08
15934,31.65
15946,32.11
15958,32.45
15970,32.55
15982,32.16
15994,30.97
16006,28.73
16018,25.42
16030,21.32
16042,16.88
16054,12.56
16066,8.61
16078,4.98
16090,1.37
16101,-2.63
16112,-7.24
16124,-12.36
16136,-17.58
16148,-22.41
16160,-26.53
16172,-30.01
16184,-33.28
16196,-36.98
16208,-41.77
16220,-48.08
16232,-55.94
16244,-64.85
16256,-73.72
16268,-80.94
16280,-84.69
16291,-83.43
16302,-76.49
16314,-64.36
16326,-48.67
16338,-31.65
16350,-15.41
16362,-1.38
16374,9.95
16386,18.8
16398,25.69
16410,31.07
16422,35.14
16434,37.99
16446,39.75
16458,40.71
16470,41.23
16481,41.67
16492,42.19
16504,42.73
16516,43.15
16528,43.33
16540,43.31
16552,43.22
16564,43.26
16576,43.44
16588,43.57
16600,43.27
16612,42.09
16624,39.77
16636,36.33
16648,32.07
16660,27.46
16671,22.96
16682,18.75
16694,14.75
16706,10.65
16718,6.08
16730,0.89
16742,-4.8
16754,-10.65
16766,-16.22
16778,-21.26
16790,-25.78
16802,-30.13
16814,-34.85
16826,-40.53
16838,-47.62
16850,-56.26
16861,-66.0
16872,-75.77
16884,-83.93
16896,-88.58
16908,-88.18
16920,-82.02
16932,-70.59
16944,-55.42
16956,-38.63
16968,-22.28
16980,-7.83
16992,4.08
17004,13.49
17016,20.8
17028,26.42
17040,30.62
17051,33.5
17062,35.14
17074,35.73
17086,35.61
17098,35.2
17110,34.87
17122,34.82
17134,35.08
17146,35.53
17158,36.03
17170,36.48
17182,36.85
17194,37.08
17206,37.04
17218,36.47
17230,35.09
17241,32.68
17252,29.25
17264,25.08
17276,20.63
17288,16.38
17300,12.61
17312,9.29
17324,6.09
17336,2.57
17348,-1.59
17360,-6.44
17372,-11.72
17384,-16.97
17396,-21.82
17408,-26.14
17420,-30.13
17431,-34.3
17442,-39.29
17454,-45.61
17466,-53.41
17478,-62.24
17490,-70.99
17502,-77.97
17514,-81.36
17526,-79.75
17538,-72.6
17550,-60.56
17562,-45.27
17574,-28.84
17586,-13.22
17598,0.32
17610,11.37
17621,20.08
17632,26.8
17644,31.76
17656,34.98
17668,36.48
17680,36.47
17692,35.48
17704,34.25
17716,33.45
17728,33.5
17740,34.4
17752,35.81
17764,37.29
17776,38.42
17788,38.91
17800,38.69
17811,37.8
17822,36.37
17834,34.55
17846,32.47
17858,30.2
17870,27.72
17882,24.89
17894,21.59
17906,17.7
17918,13.22
17930,8.25
17942,2.98
17954,-2.37
17966,-7.6
17978,-12.64
17990,-17.49
18001,-22.28
18012,-27.2
18024,-32.54
18036,-38.58
18048,-45.44
18060,-52.97
18072,-60.54
18084,-67.01
18096,-70.94
18108,-70.92
18120,-66.12
18132,-56.61
18144,-43.38
18156,-28.14
18168,-12.77
18180,1.19
18191,12.85
18202,21.97
18214,28.78
18226,33.62
18238,36.78
18250,38.48
18262,38.93
18274,38.42
18286,37.38
18298,36.26
18310,35.45
18322,35.09
18334,35.1
18346,35.29
18358,35.43
18370,35.39
18381,35.09
18392,34.46
18404,33.45
18416,31.89
18428,29.7
18440,26.86
18452,23.46
18464,19.68
18476,15.68
18488,11.53
18500,7.21
18512,2.65
18524,-2.17
18536,-7.18
18548,-12.26
18560,-17.25
18571,-22.05
18582,-26.68
18594,-31.27
18606,-36.04
18618,-41.32
18630,-47.41
18642,-54.5
18654,-62.39
18666,-70.34
18678,-77.04
18690,-80.82
18702,-80.18
18714,-74.31
18726,-63.5
18738,-49.07
18750,-32.97
18761,-17.16
18772,-3.01
18784,8.86
18796,18.46
18808,26.12
18820,32.1
18832,36.52
18844,39.39
18856,40.83
18868,41.14
18880,40.76
18892,40.21
18904,39.83
18916,39.79
18928,40.06
18940,40.5
18951,40.97
18962,41.4
18974,41.72
18986,41.78
18998,41.4
19010,40.32
19022,38.34
19034,35.48
19046,31.87
19058,27.86
19070,23.78
19082,19.89
19094,16.23
19106,12.65
19118,8.88
19130,4.67
19141,-0.09
19152,-5.31
19164,-10.76
19176,-16.16
19188,-21.31
19200,-26.19
19212,-30.95
19224,-35.99
19236,-41.78
19248,-48.65
19260,-56.62
19272,-65.06
19284,-72.68
19296,-77.74
19308,-78.46
19320,-73.76
19331,-63.69
19342,-49.51
19354,-33.35
19366,-17.48
19378,-3.6
19390,7.55
19402,16.09
19414,22.63
19426,27.77
19438,31.87
19450,34.95
19462,36.97
19474,37.97
19486,38.21
19498,38.06
19510,37.86
19521,37.83
19532,37.95
19544,38.17
19556,38.38
19568,38.57
19580,38.74
19592,38.91
19604,39.0
19616,38.81
19628,38.08
19640,36.57
19652,34.21
19664,31.11
19676,27.56
19688,23.84
19700,20.19
19711,16.61
19722,12.97
19734,9.04
19746,4.68
19758,-0.11
19770,-5.16
19782,-10.23
19794,-15.13
19806,-19.81
19818,-24.44
19830,-29.41
19842,-35.17
19854,-42.09
19866,-50.12
19878,-58.67
19890,-66.47
19901,-71.84
19912,-73.14
19924,-69.28
19936,-60.21
19948,-46.97
19960,-31.44
19972,-15.71
19984,-1.52
19996,10.18
20008,19.22
20020,25.96
20032,30.88
20044,34.35
20056,36.49
20068,37.37
20080,37.17
20091,36.28
20102,35.25
20114,34.54
20126,34.39
20138,34.7
20150,35.11
20162,35.17
20174,34.58
20186,33.26
20198,31.36
20210,29.14
20222,26.82
20234,24.51
20246,22.18
20258,19.71
20270,16.95
20281,13.76
20292,10.06
20304,5.89
20316,1.31
20328,-3.5
20340,-8.37
20352,-13.13
20364,-17.63
20376,-21.82
20388,-25.72
20400,-29.44
20412,-33.2
20424,-37.32
20436,-42.12
20448,-47.82
20460,-54.26
20471,-60.75
20482,-66.06
20494,-68.65
20506,-67.18
20518,-60.97
20530,-50.35
20542,-36.66
20554,-21.82
20566,-7.72
20578,4.31
20590,13.73
20602,20.69
20614,25.63
20626,28.92
20638,30.72
20650,31.04
20661,30.05
20672,28.19
20684,26.15
20696,24.63
20708,24.06
20720,24.4
20732,25.22
20744,25.94
20756,26.13
20768,25.65
20780,24.65
20792,23.39
20804,22.07
20816,20.69
20828,19.12
20840,17.1
20851,14.44
20862,11.1
20874,7.12
20886,2.74
20898,-1.81
20910,-6.29
20922,-10.56
20934,-14.6
20946,-18.51
20958,-22.49
20970,-26.79
20982,-31.72
20994,-37.5
