seconds,BVP
1,-1.31
13,-2.6
25,-4.06
37,-5.54
49,-6.91
61,-8.11
73,-9.19
85,-10.3
97,-11.61
109,-13.14
121,-14.74
132,-16.06
143,-16.69
155,-16.34
167,-14.94
179,-12.69
191,-9.99
203,-7.24
215,-4.72
227,-2.53
239,-0.6
251,1.09
263,2.52
275,3.57
287,4.06
299,3.91
311,3.2
322,2.13
333,1.01
345,0.09
357,-0.51
369,-0.83
381,-0.97
393,-1.03
405,-1.0
417,-0.85
429,-0.59
441,-0.35
453,-0.34
465,-0.74
477,-1.64
489,-2.91
501,-4.33
512,-5.67
523,-6.83
535,-7.82
547,-8.75
559,-9.7
571,-10.67
583,-11.66
595,-12.6
607,-13.44
619,-14.06
631,-14.27
643,-13.84
655,-12.64
667,-10.72
679,-8.35
691,-5.86
702,-3.57
713,-1.59
725,0.07
737,1.48
749,2.64
761,3.44
773,3.76
785,3.6
797,3.1
809,2.53
821,2.1
833,1.93
845,1.95
857,2.05
869,2.11
881,2.17
892,2.28
903,2.46
915,2.64
927,2.68
939,2.37
951,1.66
963,0.65
975,-0.44
987,-1.36
999,-2.0
1011,-2.46
1023,-3.03
1035,-4.05
1047,-5.74
1059,-8.08
1071,-10.78
1082,-13.39
1093,-15.47
1105,-16.72
1117,-17.02
1129,-16.4
1141,-14.97
1153,-12.88
1165,-10.31
1177,-7.49
1189,-4.74
1201,-2.38
1213,-0.64
1225,0.47
1237,1.07
1249,1.4
1261,1.67
1272,1.98
1283,2.33
1295,2.67
1307,2.95
1319,3.17
1331,3.34
1343,3.45
1355,3.5
1367,3.45
1379,3.3
1391,3.05
1403,2.76
1415,2.47
1427,2.24
1439,2.08
1451,1.88
1462,1.5
1473,0.73
1485,-0.52
1497,-2.22
1509,-4.16
1521,-6.09
1533,-7.79
1545,-9.15
1557,-10.19
1569,-10.96
1581,-11.43
1593,-11.47
1605,-10.92
1617,-9.68
1629,-7.81
1641,-5.5
1652,-3.01
1663,-0.58
1675,1.63
1687,3.56
1699,5.19
1711,6.5
1723,7.46
1735,8.01
1747,8.1
1759,7.79
1771,7.25
1783,6.7
1795,6.39
1807,6.45
1819,6.83
1831,7.36
1842,7.79
1853,7.97
1865,7.85
1877,7.55
1889,7.2
1901,6.93
1913,6.74
1925,6.56
1937,6.27
1949,5.82
1961,5.2
1973,4.44
1985,3.57
1997,2.61
2009,1.65
2021,0.8
2032,0.29
2043,0.3
2055,0.94
2067,2.16
2079,3.78
2091,5.54
2103,7.2
2115,8.59
2127,9.63
2139,10.28
2151,10.49
2163,10.22
2175,9.47
2187,8.29
2199,6.82
2211,5.27
2222,3.86
2233,2.69
2245,1.75
2257,0.9
2269,-0.03
2281,-1.15
2293,-2.49
2305,-3.98
2317,-5.46
2329,-6.83
2341,-8.02
2353,-9.02
2365,-9.81
2377,-10.4
2389,-10.81
2401,-11.08
2412,-11.32
2423,-11.61
2435,-11.99
2447,-12.39
2459,-12.68
2471,-12.7
2483,-12.29
2495,-11.31
2507,-9.67
2519,-7.33
2531,-4.31
2543,-0.79
2555,2.95
2567,6.51
2579,9.51
2591,11.66
2602,12.82
2613,12.93
2625,11.97
2637,9.94
2649,6.9
2661,3.05
2673,-1.2
2685,-5.3
2697,-8.63
2709,-10.67
2721,-11.02
2733,-9.42
2745,-5.71
2757,0.14
2769,8.05
2781,17.66
2792,28.33
2803,39.08
2815,48.79
2827,56.31
2839,60.78
2851,61.75
2863,59.29
2875,53.93
2887,46.47
2899,37.8
2911,28.71
2923,19.86
2935,11.75
2947,4.76
2959,-0.91
2971,-5.21
2982,-8.31
2993,-10.45
3005,-11.86
3017,-12.62
3029,-12.72
3041,-12.11
3053,-10.9
3065,-9.4
3077,-8.04
3089,-7.27
3101,-7.42
3113,-8.65
3125,-11.02
3137,-14.54
3149,-19.16
3161,-24.64
3172,-30.57
3183,-36.4
3195,-41.55
3207,-45.62
3219,-48.46
3231,-50.17
3243,-50.97
3255,-51.08
3267,-50.64
3279,-49.73
3291,-48.41
3303,-46.78
3315,-44.93
3327,-42.99
3339,-40.99
3351,-38.99
3362,-37.03
3373,-35.19
3385,-33.6
3397,-32.38
3409,-31.54
3421,-30.94
3433,-30.34
3445,-29.49
3457,-28.19
3469,-26.42
3481,-24.31
3493,-22.06
3505,-19.86
3517,-17.71
3529,-15.47
3541,-12.88
3552,-9.72
3563,-5.93
3575,-1.66
3587,2.73
3599,6.84
3611,10.39
3623,13.23
3635,15.44
3647,17.16
3659,18.55
3671,19.65
3683,20.38
3695,20.62
3707,20.21
3719,19.13
3731,17.47
3742,15.44
3753,13.23
3765,11.0
3777,8.79
3789,6.53
3801,4.11
3813,1.43
3825,-1.54
3837,-4.74
3849,-8.08
3861,-11.46
3873,-14.82
3885,-18.12
3897,-21.27
3909,-24.05
3921,-26.14
3932,-27.13
3943,-26.66
3955,-24.52
3967,-20.72
3979,-15.5
3991,-9.35
4003,-2.86
4015,3.26
4027,8.34
4039,11.8
4051,13.29
4063,12.8
4075,10.69
4087,7.64
4099,4.53
4111,2.14
4122,0.99
4133,1.19
4145,2.43
4157,4.19
4169,5.85
4181,6.96
4193,7.26
4205,6.73
4217,5.48
4229,3.68
4241,1.51
4253,-0.9
4265,-3.46
4277,-6.15
4289,-8.95
4301,-11.9
4312,-14.97
4323,-18.1
4335,-21.13
4347,-23.94
4359,-26.33
4371,-28.12
4383,-29.01
4395,-28.64
4407,-26.61
4419,-22.58
4431,-16.36
4443,-7.94
4455,2.57
4467,14.96
4479,28.93
4491,43.93
4502,59.11
4513,73.42
4525,85.7
4537,95.12
4549,101.41
4561,104.87
4573,106.26
4585,106.46
4597,106.1
4609,105.51
4621,104.7
4633,103.52
4645,101.8
4657,99.35
4669,95.95
4681,91.41
4692,85.57
4703,78.47
4715,70.38
4727,61.74
4739,53.01
4751,44.45
4763,36.04
4775,27.66
4787,19.22
4799,10.82
4811,2.74
4823,-4.68
4835,-11.28
4847,-17.23
4859,-22.87
4871,-28.61
4882,-34.63
4893,-40.79
4905,-46.74
4917,-52.22
4929,-57.22
4941,-62.2
4953,-67.75
4965,-74.33
4977,-81.97
4989,-90.16
5001,-97.99
5013,-104.38
5025,-108.28
5037,-108.77
5049,-105.06
5061,-96.61
5072,-83.29
5083,-65.63
5095,-44.97
5107,-23.26
5119,-2.82
5131,13.98
5143,25.12
5155,29.1
5167,25.28
5179,14.19
5191,-2.42
5203,-21.56
5215,-39.74
5227,-53.78
5239,-61.68
5251,-62.98
5262,-58.56
5273,-50.09
5285,-39.29
5297,-27.54
5309,-15.81
5321,-4.67
5333,5.63
5345,15.2
5357,24.41
5369,33.78
5381,43.54
5393,53.39
5405,62.46
5417,69.68
5429,74.27
5441,76.11
5452,75.74
5463,74.01
5475,71.65
5487,69.03
5499,66.17
5511,63.04
5523,59.8
5535,56.75
5547,54.17
5559,52.12
5571,50.33
5583,48.42
5595,46.06
5607,43.14
5619,39.63
5631,35.5
5642,30.5
5653,24.29
5665,16.57
5677,7.27
5689,-3.41
5701,-15.08
5713,-27.18
5725,-39.07
5737,-49.88
5749,-58.57
5761,-64.03
5773,-65.46
5785,-62.77
5797,-56.82
5809,-49.33
5821,-42.47
5832,-38.26
5843,-38.06
5855,-42.4
5867,-51.11
5879,-63.56
5891,-78.89
5903,-96.1
5915,-113.95
5927,-130.93
5939,-145.27
5951,-155.17
5963,-159.26
5975,-156.93
5987,-148.58
5999,-135.6
6011,-120.09
6022,-104.31
6033,-90.16
6045,-78.75
6057,-70.22
6069,-63.82
6081,-58.23
6093,-51.99
6105,-43.91
6117,-33.4
6129,-20.54
6141,-6.04
6153,8.98
6165,23.28
6177,35.81
6189,45.85
6201,53.17
6212,57.83
6223,60.02
6235,59.87
6247,57.25
6259,51.83
6271,43.33
6283,31.82
6295,18.05
6307,3.52
6319,-9.69
6331,-19.35
6343,-23.77
6355,-22.24
6367,-15.3
6379,-4.58
6391,7.88
6402,20.25
6413,31.4
6425,40.77
6437,47.89
6449,51.94
6461,51.66
6473,45.98
6485,34.75
6497,19.08
6509,0.86
6521,-18.36
6533,-38.44
6545,-60.88
6557,-88.07
6569,-121.79
6581,-161.96
6592,-206.21
6603,-250.5
6615,-290.4
6627,-322.14
6639,-343.34
6651,-353.03
6663,-351.47
6675,-339.9
6687,-320.32
6699,-295.18
6711,-267.01
6723,-237.92
6735,-209.31
6747,-181.74
6759,-155.15
6771,-129.03
6782,-102.73
6793,-75.53
6805,-46.88
6817,-16.56
6829,15.0
6841,46.64
6853,76.56
6865,102.79
6877,123.73
6889,138.76
6901,148.3
6913,153.59
6925,156.1
6937,157.01
6949,156.84
6961,155.58
6972,152.95
6983,148.77
6995,143.07
7007,136.01
7019,127.63
7031,117.65
7043,105.51
7055,90.5
7067,72.31
7079,51.36
7091,29.28
7103,8.78
7115,-6.8
7127,-14.35
7139,-12.0
7151,0.28
7162,20.56
7173,45.66
7185,72.04
7197,96.77
7209,118.05
7221,135.08
7233,147.65
7245,155.7
7257,159.04
7269,157.58
7281,151.49
7293,141.53
7305,128.93
7317,115.21
7329,101.73
7341,89.44
7352,78.69
7363,69.37
7375,61.0
7387,53.05
7399,45.15
7411,37.16
7423,29.29
7435,21.95
7447,15.55
7459,10.35
7471,6.29
7483,2.95
7495,-0.34
7507,-4.38
7519,-9.89
7531,-17.25
7542,-26.31
7553,-36.15
7565,-45.1
7577,-50.87
7589,-51.08
7601,-43.89
7613,-28.6
7625,-6.02
7637,21.65
7649,51.34
7661,79.87
7673,104.68
7685,124.16
7697,137.79
7709,145.8
7721,148.94
7732,148.15
7743,144.43
7755,138.79
7767,132.3
7779,125.95
7791,120.54
7803,116.53
7815,114.05
7827,112.94
7839,112.93
7851,113.7
7863,114.98
7875,116.47
7887,117.77
7899,118.43
7911,117.96
7922,115.97
7933,112.33
7945,107.09
7957,100.52
7969,92.92
7981,84.43
7993,74.95
8005,64.2
8017,51.85
8029,37.87
8041,22.78
8053,7.89
8065,-4.89
8077,-13.4
8089,-15.95
8101,-11.84
8112,-1.75
8123,12.47
8135,28.29
8147,43.22
8159,55.41
8171,63.88
8183,68.46
8195,69.51
8207,67.61
8219,63.38
8231,57.45
8243,50.41
8255,42.83
8267,35.2
8279,27.92
8291,21.22
8302,15.27
8313,10.15
8325,5.92
8337,2.61
8349,0.2
8361,-1.41
8373,-2.47
8385,-3.27
8397,-4.18
8409,-5.54
8421,-7.48
8433,-9.86
8445,-12.23
8457,-13.94
8469,-14.51
8481,-13.96
8492,-13.02
8503,-12.94
8515,-14.98
8527,-19.67
8539,-26.22
8551,-32.56
8563,-35.83
8575,-33.33
8587,-23.46
8599,-6.2
8611,16.99
8623,43.68
8635,71.15
8647,96.93
8659,119.06
8671,136.08
8682,147.13
8693,152.01
8705,151.24
8717,146.07
8729,138.12
8741,129.05
8753,120.22
8765,112.61
8777,107.11
8789,104.72
8801,106.64
8813,113.86
8825,126.5
8837,143.07
8849,160.29
8861,173.62
8872,178.51
8883,171.84
8895,152.79
8907,122.95
8919,85.39
8931,43.27
8943,-1.28
8955,-47.54
8967,-95.73
8979,-145.92
8991,-197.09
9003,-246.55
9015,-290.26
9027,-323.66
9039,-342.76
9051,-345.08
9062,-330.26
9073,-300.16
9085,-258.64
9097,-210.93
9109,-162.84
9121,-119.86
9133,-86.31
9145,-64.76
9157,-55.71
9169,-57.7
9181,-67.7
9193,-81.78
9205,-95.84
9217,-106.28
9229,-110.56
9241,-107.45
9252,-97.13
9263,-81.01
9275,-61.35
9287,-40.7
9299,-21.33
9311,-4.75
9323,8.57
9335,19.13
9347,28.1
9359,36.77
9371,46.11
9383,56.37
9395,67.09
9407,77.22
9419,85.55
9431,91.04
9442,93.14
9453,91.86
9465,87.7
9477,81.47
9489,74.16
9501,66.81
9513,60.45
9525,55.91
9537,53.64
9549,53.54
9561,54.91
9573,56.65
9585,57.64
9597,57.09
9609,54.75
9621,50.9
9632,46.09
9643,40.86
9655,35.55
9667,30.28
9679,25.03
9691,19.7
9703,14.3
9715,8.99
9727,4.04
9739,-0.22
9751,-3.47
9763,-5.47
9775,-6.2
9787,-5.94
9799,-5.36
9811,-5.49
9822,-7.57
9833,-12.69
9845,-21.2
9857,-32.41
9869,-44.42
9881,-54.67
9893,-60.75
9905,-61.3
9917,-56.46
9929,-47.76
9941,-37.39
9953,-27.32
9965,-18.66
9977,-11.48
9989,-5.14
10001,1.22
10012,8.19
10023,15.9
10035,23.98
10047,31.72
10059,38.31
10071,42.92
10083,44.91
10095,43.94
10107,40.03
10119,33.65
10131,25.66
10143,17.13
10155,9.22
10167,2.81
10179,-1.56
10191,-3.86
10202,-4.45
10213,-3.95
10225,-3.0
10237,-2.14
10249,-1.7
10261,-1.78
10273,-2.22
10285,-2.74
10297,-2.98
10309,-2.68
10321,-1.85
10333,-0.8
10345,-0.05
10357,-0.2
10369,-1.66
10381,-4.48
10392,-8.29
10403,-12.34
10415,-15.64
10427,-17.2
10439,-16.22
10451,-12.29
10463,-5.59
10475,3.07
10487,12.3
10499,20.45
10511,25.82
10523,27.05
10535,23.27
10547,14.2
10559,0.1
10571,-18.33
10582,-40.07
10593,-63.93
10605,-88.64
10617,-112.95
10629,-135.77
10641,-156.03
10653,-172.76
10665,-184.93
10677,-191.65
10689,-192.24
10701,-186.47
10713,-174.76
10725,-158.1
10737,-137.92
10749,-115.87
10761,-93.57
10772,-72.53
10783,-54.04
10795,-39.12
10807,-28.47
10819,-22.37
10831,-20.73
10843,-23.2
10855,-29.28
10867,-38.42
10879,-49.89
10891,-62.58
10903,-74.78
10915,-84.16
10927,-88.14
10939,-84.65
10951,-72.9
10962,-53.87
10973,-30.2
10985,-5.42
10997,17.16
11009,35.43
11021,48.91
11033,58.54
11045,65.9
11057,72.5
11069,79.28
11081,86.55
11093,94.25
11105,101.99
11117,109.16
11129,114.91
11141,118.43
11152,119.36
11163,118.26
11175,116.51
11187,115.98
11199,118.09
11211,123.1
11223,129.79
11235,135.82
11247,138.6
11259,136.28
11271,128.37
11283,115.86
11295,100.63
11307,84.47
11319,68.12
11331,50.68
11342,29.86
11353,2.93
11365,-31.96
11377,-74.52
11389,-122.01
11401,-169.92
11413,-213.41
11425,-248.79
11437,-274.5
11449,-291.12
11461,-300.61
11473,-305.17
11485,-306.34
11497,-304.62
11509,-299.66
11521,-290.88
11532,-278.01
11543,-261.4
11555,-241.96
11567,-220.81
11579,-199.06
11591,-177.87
11603,-158.58
11615,-142.74
11627,-131.78
11639,-126.37
11651,-125.92
11663,-128.47
11675,-131.38
11687,-132.35
11699,-130.29
11711,-125.62
11722,-119.78
11733,-114.33
11745,-110.14
11757,-107.2
11769,-104.96
11781,-102.87
11793,-100.81
11805,-99.14
11817,-98.48
11829,-99.45
11841,-102.44
11853,-107.43
11865,-113.73
11877,-119.86
11889,-123.65
11901,-122.5
11912,-114.14
11923,-97.32
11935,-72.34
11947,-41.06
11959,-6.37
11971,28.66
11983,61.35
11995,89.92
12007,113.33
12019,131.1
12031,143.16
12043,149.8
12055,151.73
12067,150.07
12079,146.19
12091,141.31
12102,136.32
12113,131.61
12125,127.23
12137,123.09
12149,119.16
12161,115.52
12173,112.26
12185,109.36
12197,106.58
12209,103.58
12221,100.07
12233,96.0
12245,91.55
12257,86.98
12269,82.41
12281,77.67
12292,72.31
12303,65.68
12315,57.17
12327,46.47
12339,33.7
12351,19.65
12363,5.81
12375,-5.71
12387,-12.48
12399,-12.33
12411,-4.02
12423,12.25
12435,34.76
12447,60.66
12459,86.73
12471,110.2
12482,129.17
12493,142.74
12505,150.72
12517,153.3
12529,150.81
12541,143.81
12553,133.19
12565,120.23
12577,106.5
12589,93.54
12601,82.48
12613,73.86
12625,67.54
12637,63.01
12649,59.65
12661,56.98
12672,54.72
12683,52.75
12695,50.94
12707,49.05
12719,46.72
12731,43.63
12743,39.62
12755,34.8
12767,29.46
12779,23.9
12791,18.19
12803,11.96
12815,4.49
12827,-4.97
12839,-16.74
12851,-30.13
12862,-43.34
12873,-53.72
12885,-58.55
12897,-55.9
12909,-45.34
12921,-28.11
12933,-6.66
12945,16.02
12957,37.28
12969,55.19
12981,68.75
12993,77.69
13005,82.21
13017,82.81
13029,80.19
13041,75.23
13052,68.94
13063,62.33
13075,56.24
13087,51.24
13099,47.54
13111,45.06
13123,43.57
13135,42.77
13147,42.41
13159,42.2
13171,41.83
13183,40.87
13195,38.84
13207,35.31
13219,30.09
13231,23.36
13242,15.63
13253,7.59
13265,-0.13
13277,-7.2
13289,-13.71
13301,-20.11
13313,-27.03
13325,-35.02
13337,-44.13
13349,-53.74
13361,-62.45
13373,-68.18
13385,-68.62
13397,-61.86
13409,-47.02
13421,-24.64
13432,3.26
13443,33.64
13455,63.22
13467,89.27
13479,110.06
13491,125.01
13503,134.31
13515,138.53
13527,138.3
13539,134.28
13551,127.23
13563,118.24
13575,108.64
13587,99.89
13599,93.12
13611,88.9
13622,87.06
13633,86.8
13645,87.02
13657,86.6
13669,84.72
13681,80.93
13693,75.15
13705,67.53
13717,58.34
13729,47.88
13741,36.45
13753,24.36
13765,11.96
13777,-0.32
13789,-12.07
13801,-22.95
13812,-32.79
13823,-41.7
13835,-49.97
13847,-58.06
13859,-66.44
13871,-75.51
13883,-85.51
13895,-96.39
13907,-107.66
13919,-118.35
13931,-126.94
13943,-131.58
13955,-130.53
13967,-122.61
13979,-107.68
13991,-86.76
14002,-61.86
14013,-35.54
14025,-10.22
14037,12.15
14049,30.43
14061,44.15
14073,53.33
14085,58.27
14097,59.47
14109,57.63
14121,53.71
14133,48.83
14145,44.11
14157,40.38
14169,38.04
14181,36.96
14192,36.64
14203,36.39
14215,35.52
14227,33.47
14239,29.86
14251,24.56
14263,17.66
14275,9.45
14287,0.43
14299,-8.91
14311,-18.17
14323,-27.13
14335,-35.73
14347,-44.0
14359,-51.98
14371,-59.76
14382,-67.45
14393,-75.27
14405,-83.47
14417,-92.31
14429,-101.97
14441,-112.41
14453,-123.38
14465,-134.4
14477,-144.83
14489,-153.99
14501,-161.08
14513,-165.23
14525,-165.41
14537,-160.59
14549,-149.89
14561,-133.03
14572,-110.68
14583,-84.53
14595,-57.15
14607,-31.32
14619,-9.4
14631,7.29
14643,18.5
14655,24.92
14667,27.58
14679,27.44
14691,25.18
14703,21.17
14715,15.71
14727,9.21
14739,2.25
14751,-4.52
14762,-10.54
14773,-15.6
14785,-19.88
14797,-23.88
14809,-28.26
14821,-33.64
14833,-40.4
14845,-48.7
14857,-58.5
14869,-69.63
14881,-81.76
14893,-94.3
14905,-106.31
14917,-116.53
14929,-123.54
14941,-126.2
14952,-123.98
14963,-117.09
14975,-106.42
14987,-93.14
14999,-78.46
15011,-63.3
15023,-48.35
15035,-34.18
15047,-21.34
15059,-10.47
15071,-2.06
15083,3.72
15095,7.26
15107,9.61
15119,12.33
15131,17.19
15142,25.69
15153,38.61
15165,55.75
15177,75.9
15189,97.14
15201,117.38
15213,134.88
15225,148.63
15237,158.39
15249,164.5
15261,167.51
15273,167.91
15285,166.06
15297,162.2
15309,156.69
15321,150.0
15332,142.71
15343,135.38
15355,128.34
15367,121.75
15379,115.54
15391,109.59
15403,103.87
15415,98.46
15427,93.55
15439,89.29
15451,85.7
15463,82.56
15475,79.43
15487,75.71
15499,70.78
15511,64.22
15522,55.9
15533,46.05
15545,35.2
15557,23.94
15569,12.72
15581,1.71
15593,-9.21
15605,-20.31
15617,-31.78
15629,-43.66
15641,-55.81
15653,-67.88
15665,-79.33
15677,-89.33
15689,-96.72
15701,-100.13
15712,-98.44
15723,-91.25
15735,-79.14
15747,-63.58
15759,-46.4
15771,-29.08
15783,-12.35
15795,3.78
15807,19.6
15819,35.06
15831,49.55
15843,62.01
15855,71.38
15867,77.12
15879,79.36
15891,78.76
15902,76.2
15913,72.44
15925,68.12
15937,63.76
15949,59.96
15961,57.36
15973,56.46
15985,57.38
15997,59.68
16009,62.35
16021,64.12
16033,63.78
16045,60.56
16057,54.26
16069,45.16
16081,33.89
16092,21.19
16103,7.87
16115,-5.2
16127,-17.15
16139,-27.18
16151,-34.78
16163,-39.86
16175,-42.82
16187,-44.42
16199,-45.43
16211,-46.32
16223,-47.03
16235,-46.99
16247,-45.34
16259,-41.34
16271,-34.68
16282,-25.68
16293,-15.24
16305,-4.62
16317,4.83
16329,12.05
16341,16.34
16353,17.41
16365,15.26
16377,10.09
16389,2.18
16401,-8.0
16413,-19.78
16425,-32.28
16437,-44.52
16449,-55.54
16461,-64.62
16472,-71.36
16483,-75.65
16495,-77.61
16507,-77.41
16519,-75.27
16531,-71.44
16543,-66.31
16555,-60.41
16567,-54.41
16579,-49.04
16591,-44.96
16603,-42.6
16615,-42.08
16627,-43.23
16639,-45.65
16651,-48.92
16662,-52.75
16673,-57.02
16685,-61.85
16697,-67.45
16709,-74.0
16721,-81.4
16733,-89.1
16745,-96.01
16757,-100.6
16769,-101.27
16781,-96.76
16793,-86.65
16805,-71.59
16817,-53.18
16829,-33.48
16841,-14.51
16852,2.31
16863,16.25
16875,27.22
16887,35.41
16899,41.0
16911,44.16
16923,45.04
16935,44.01
16947,41.69
16959,38.85
16971,36.19
16983,34.19
16995,32.93
17007,32.27
17019,31.97
17031,31.92
17042,32.13
17053,32.67
17065,33.44
17077,34.11
17089,34.11
17101,32.86
17113,30.01
17125,25.59
17137,20.09
17149,14.17
17161,8.51
17173,3.49
17185,-0.9
17197,-5.01
17209,-9.37
17221,-14.48
17232,-20.62
17243,-27.65
17255,-34.87
17267,-40.91
17279,-43.97
17291,-42.18
17303,-34.22
17315,-19.88
17327,-0.3
17339,22.25
17351,44.99
17363,65.34
17375,81.53
17387,92.77
17399,99.09
17411,101.02
17422,99.31
17433,94.77
17445,88.24
17457,80.61
17469,72.73
17481,65.25
17493,58.48
17505,52.39
17517,46.71
17529,41.09
17541,35.34
17553,29.51
17565,23.82
17577,18.56
17589,13.83
17601,9.48
17612,5.11
17623,0.23
17635,-5.47
17647,-11.93
17659,-18.7
17671,-25.06
17683,-30.3
17695,-33.96
17707,-36.02
17719,-36.96
17731,-37.61
17743,-38.93
17755,-41.71
17767,-46.26
17779,-52.22
17791,-58.42
17802,-63.1
17813,-64.23
17825,-60.07
17837,-49.7
17849,-33.45
17861,-12.77
17873,9.99
17885,32.27
17897,51.92
17909,67.56
17921,78.7
17933,85.52
17945,88.48
17957,88.1
17969,84.87
17981,79.29
17992,72.06
18003,64.06
18015,56.21
18027,49.28
18039,43.59
18051,38.98
18063,34.93
18075,30.87
18087,26.4
18099,21.44
18111,16.07
18123,10.33
18135,4.01
18147,-3.4
18159,-12.48
18171,-23.56
18182,-36.52
18193,-50.69
18205,-65.1
18217,-78.86
18229,-91.43
18241,-102.89
18253,-113.8
18265,-124.96
18277,-137.08
18289,-150.52
18301,-165.11
18313,-180.08
18325,-194.1
18337,-205.33
18349,-211.75
18361,-211.53
18372,-203.6
18383,-188.05
18395,-166.28
18407,-140.78
18419,-114.52
18431,-90.19
18443,-69.62
18455,-53.58
18467,-42.0
18479,-34.31
18491,-29.86
18503,-28.09
18515,-28.52
18527,-30.64
18539,-33.76
18551,-37.15
18562,-40.02
18573,-41.68
18585,-41.61
18597,-39.5
18609,-35.3
18621,-29.23
18633,-21.82
18645,-13.85
18657,-6.21
18669,0.24
18681,4.86
18693,7.47
18705,8.32
18717,8.11
18729,7.77
18741,8.13
18752,9.62
18763,12.06
18775,14.77
18787,16.77
18799,17.2
18811,15.52
18823,11.68
18835,5.93
18847,-1.28
18859,-9.35
18871,-17.42
18883,-24.26
18895,-28.31
18907,-27.95
18919,-21.99
18931,-10.17
18942,6.61
18953,26.46
18965,46.96
18977,65.79
18989,81.18
19001,92.18
19013,98.54
19025,100.46
19037,98.34
19049,92.61
19061,83.86
19073,72.87
19085,60.77
19097,48.87
19109,38.42
19121,30.3
19132,24.76
19143,21.35
19155,19.2
19167,17.27
19179,14.7
19191,10.94
19203,5.83
19215,-0.62
19227,-8.29
19239,-16.97
19251,-26.39
19263,-36.09
19275,-45.49
19287,-53.98
19299,-61.19
19311,-67.03
19322,-71.78
19333,-75.91
19345,-79.88
19357,-84.01
19369,-88.42
19381,-93.05
19393,-97.62
19405,-101.55
19417,-103.79
19429,-102.81
19441,-96.83
19453,-84.28
19465,-64.38
19477,-37.62
19489,-5.74
19501,28.59
19512,62.42
19523,93.15
19535,118.86
19547,138.39
19559,151.23
19571,157.37
19583,157.35
19595,152.21
19607,143.49
19619,133.0
19631,122.46
19643,113.11
19655,105.61
19667,100.03
19679,96.07
19691,93.38
19702,91.6
19713,90.48
19725,89.78
19737,89.19
19749,88.32
19761,86.71
19773,83.9
19785,79.49
19797,73.25
19809,65.19
19821,55.54
19833,44.63
19845,32.71
19857,19.84
19869,5.87
19881,-9.44
19892,-26.24
19903,-44.38
19915,-63.34
19927,-82.22
19939,-99.74
19951,-114.23
19963,-123.88
19975,-127.0
19987,-122.52
19999,-110.46
20011,-92.15
20023,-70.02
20035,-46.92
20047,-25.46
20059,-7.31
20071,6.94
20082,17.58
20093,25.29
20105,30.67
20117,33.96
20129,35.18
20141,34.36
20153,31.88
20165,28.51
20177,25.25
20189,22.96
20201,22.05
20213,22.36
20225,23.32
20237,24.35
20249,25.14
20261,25.77
20272,26.48
20283,27.4
20295,28.25
20307,28.39
20319,27.08
20331,23.85
20343,18.7
20355,12.09
20367,4.74
20379,-2.74
20391,-10.06
20403,-17.31
20415,-24.85
20427,-33.15
20439,-42.56
20451,-53.26
20462,-65.04
20473,-77.24
20485,-88.67
20497,-97.6
20509,-102.17
20521,-100.89
20533,-93.18
20545,-79.71
20557,-62.27
20569,-43.19
20581,-24.66
20593,-8.09
20605,6.03
20617,17.86
20629,27.77
20641,35.97
20652,42.47
20663,47.21
20675,50.37
20687,52.49
20699,54.3
20711,56.5
20723,59.47
20735,63.12
20747,66.99
20759,70.44
20771,72.82
20783,73.67
20795,72.76
20807,70.09
20819,65.93
20831,60.61
20842,54.48
20853,47.7
20865,40.19
20877,31.76
20889,22.26
20901,11.8
20913,0.74
20925,-10.42
20937,-21.29
20949,-31.77
20961,-42.06
20973,-52.47
20985,-63.23
20997,-74.36
