seconds,BVP
6,-23.5
18,-23.91
30,-24.68
42,-25.46
54,-25.87
66,-25.66
78,-24.83
90,-23.59
102,-22.21
114,-20.87
126,-19.58
138,-18.18
150,-16.54
162,-14.69
173,-12.85
184,-11.36
196,-10.55
208,-10.56
220,-11.32
232,-12.58
244,-14.05
256,-15.5
268,-16.81
280,-18.02
292,-19.24
304,-20.65
316,-22.4
328,-24.47
340,-26.62
352,-28.31
363,-28.76
374,-27.15
386,-22.87
398,-15.77
410,-6.32
422,4.53
434,15.56
446,25.68
458,34.07
470,40.38
482,44.49
494,46.51
506,46.56
518,44.82
530,41.52
542,37.05
553,31.87
564,26.5
576,21.4
588,16.88
600,13.07
612,9.89
624,7.17
636,4.79
648,2.69
660,0.96
672,-0.28
684,-1.01
696,-1.39
708,-1.76
720,-2.45
732,-3.66
743,-5.32
754,-7.16
766,-8.83
778,-10.09
790,-10.89
802,-11.41
814,-11.91
826,-12.67
838,-13.84
850,-15.37
862,-16.96
874,-18.09
886,-18.15
898,-16.66
910,-13.44
922,-8.79
933,-3.36
944,1.99
956,6.57
968,9.98
980,12.18
992,13.4
1004,13.91
1016,13.89
1028,13.48
1040,12.78
1052,11.95
1064,11.2
1076,10.71
1088,10.57
1100,10.72
1112,11.0
1123,11.26
1134,11.43
1146,11.49
1158,11.54
1170,11.65
1182,11.8
1194,11.87
1206,11.69
1218,11.12
1230,10.1
1242,8.72
1254,7.16
1266,5.66
1278,4.41
1290,3.52
1302,2.97
1313,2.6
1324,2.21
1336,1.61
1348,0.79
1360,-0.13
1372,-0.83
1384,-0.91
1396,-0.01
1408,2.09
1420,5.42
1432,9.72
1444,14.57
1456,19.42
1468,23.67
1480,26.84
1492,28.62
1503,28.98
1514,28.15
1526,26.49
1538,24.42
1550,22.22
1562,20.01
1574,17.78
1586,15.47
1598,13.13
1610,10.88
1622,8.89
1634,7.32
1646,6.15
1658,5.25
1670,4.45
1682,3.71
1693,3.16
1704,3.07
1716,3.66
1728,4.92
1740,6.56
1752,8.16
1764,9.32
1776,9.84
1788,9.77
1800,9.29
1812,8.61
1824,7.78
1836,6.8
1848,5.61
1860,4.21
1872,2.67
1883,1.07
1894,-0.52
1906,-2.01
1918,-3.19
1930,-3.75
1942,-3.29
1954,-1.56
1966,1.38
1978,5.13
1990,8.98
2002,12.22
2014,14.33
2026,15.19
2038,14.96
2050,13.94
2062,12.39
2073,10.4
2084,7.96
2096,5.12
2108,2.05
2120,-0.93
2132,-3.45
2144,-5.31
2156,-6.54
2168,-7.4
2180,-8.21
2192,-9.17
2204,-10.26
2216,-11.27
2228,-11.95
2240,-12.16
2252,-11.98
2263,-11.65
2274,-11.46
2286,-11.54
2298,-11.88
2310,-12.33
2322,-12.67
2334,-12.78
2346,-12.65
2358,-12.37
2370,-12.09
2382,-12.04
2394,-12.35
2406,-13.09
2418,-14.16
2430,-15.26
2442,-15.93
2453,-15.7
2464,-14.25
2476,-11.57
2488,-8.03
2500,-4.25
2512,-0.89
2524,1.54
2536,2.84
2548,3.06
2560,2.43
2572,1.3
2584,-0.05
2596,-1.36
2608,-2.44
2620,-3.16
2632,-3.49
2643,-3.43
2654,-3.16
2666,-2.86
2678,-2.73
2690,-2.87
2702,-3.33
2714,-4.01
2726,-4.83
2738,-5.73
2750,-6.63
2762,-7.56
2774,-8.54
2786,-9.57
2798,-10.62
2810,-11.65
2822,-12.61
2833,-13.47
2844,-14.23
2856,-14.95
2868,-15.73
2880,-16.68
2892,-17.91
2904,-19.41
2916,-21.03
2928,-22.37
2940,-22.98
2952,-22.41
2964,-20.43
2976,-17.19
2988,-13.24
3000,-9.28
3012,-6.0
3023,-3.84
3034,-2.85
3046,-2.82
3058,-3.44
3070,-4.43
3082,-5.69
3094,-7.18
3106,-8.82
3118,-10.43
3130,-11.72
3142,-12.41
3154,-12.4
3166,-11.81
3178,-10.94
3190,-10.12
3202,-9.49
3213,-8.99
3224,-8.42
3236,-7.6
3248,-6.47
3260,-5.19
3272,-4.02
3284,-3.2
3296,-2.83
3308,-2.86
3320,-3.14
3332,-3.46
3344,-3.67
3356,-3.64
3368,-3.36
3380,-2.94
3392,-2.59
3403,-2.61
3414,-3.3
3426,-4.8
3438,-7.01
3450,-9.58
3462,-11.89
3474,-13.29
3486,-13.22
3498,-11.49
3510,-8.31
3522,-4.25
3534,-0.06
3546,3.65
3558,6.5
3570,8.49
3582,9.82
3593,10.79
3604,11.59
3616,12.26
3628,12.71
3640,12.85
3652,12.67
3664,12.23
3676,11.68
3688,11.09
3700,10.47
3712,9.83
3724,9.15
3736,8.48
3748,7.85
3760,7.27
3772,6.68
3783,5.95
3794,4.97
3806,3.65
3818,2.02
3830,0.19
3842,-1.7
3854,-3.56
3866,-5.32
3878,-6.94
3890,-8.33
3902,-9.35
3914,-9.89
3926,-9.88
3938,-9.43
3950,-8.78
3962,-8.27
3973,-8.17
3984,-8.67
3996,-9.74
4008,-11.1
4020,-12.32
4032,-12.89
4044,-12.38
4056,-10.56
4068,-7.55
4080,-3.73
4092,0.31
4104,3.98
4116,6.87
4128,8.82
4140,9.94
4152,10.42
4163,10.45
4174,10.14
4186,9.57
4198,8.8
4210,7.98
4222,7.26
4234,6.83
4246,6.75
4258,7.01
4270,7.42
4282,7.79
4294,7.98
4306,7.94
4318,7.76
4330,7.58
4342,7.47
4353,7.41
4364,7.3
4376,7.05
4388,6.64
4400,6.15
4412,5.78
4424,5.71
4436,6.01
4448,6.63
4460,7.34
4472,7.91
4484,8.06
4496,7.6
4508,6.39
4520,4.42
4532,1.78
4543,-1.29
4554,-4.52
4566,-7.78
4578,-11.06
4590,-14.55
4602,-18.46
4614,-22.8
4626,-27.22
4638,-31.01
4650,-33.22
4662,-32.98
4674,-29.83
4686,-23.82
4698,-15.6
4710,-6.25
4722,3.02
4733,11.09
4744,17.1
4756,20.64
4768,21.7
4780,20.64
4792,17.99
4804,14.36
4816,10.2
4828,5.78
4840,1.28
4852,-3.12
4864,-7.13
4876,-10.35
4888,-12.37
4900,-12.97
4912,-12.18
4923,-10.34
4934,-7.96
4946,-5.49
4958,-3.28
4970,-1.46
4982,-0.08
4994,0.86
5006,1.29
5018,1.16
5030,0.48
5042,-0.62
5054,-1.85
5066,-2.88
5078,-3.5
5090,-3.68
5102,-3.63
5113,-3.69
5124,-4.13
5136,-5.08
5148,-6.4
5160,-7.8
5172,-8.91
5184,-9.53
5196,-9.64
5208,-9.46
5220,-9.37
5232,-9.66
5244,-10.52
5256,-11.85
5268,-13.21
5280,-14.0
5292,-13.58
5303,-11.53
5314,-7.88
5326,-3.04
5338,2.24
5350,7.18
5362,11.16
5374,13.93
5386,15.54
5398,16.22
5410,16.29
5422,15.92
5434,15.22
5446,14.24
5458,13.0
5470,11.61
5482,10.19
5493,8.86
5504,7.7
5516,6.69
5528,5.79
5540,4.93
5552,4.15
5564,3.54
5576,3.27
5588,3.43
5600,3.93
5612,4.53
5624,4.8
5636,4.37
5648,3.05
5660,0.96
5672,-1.49
5683,-3.85
5694,-5.79
5706,-7.25
5718,-8.46
5730,-9.71
5742,-11.22
5754,-13.0
5766,-14.84
5778,-16.49
5790,-17.79
5802,-18.68
5814,-19.24
5826,-19.57
5838,-19.77
5850,-19.96
5862,-20.31
5873,-20.92
5884,-21.76
5896,-22.5
5908,-22.58
5920,-21.37
5932,-18.42
5944,-13.7
5956,-7.62
5968,-0.91
5980,5.66
5992,11.53
6004,16.41
6016,20.25
6028,23.08
6040,24.89
6052,25.64
6063,25.34
6074,24.12
6086,22.23
6098,20.01
6110,17.81
6122,15.93
6134,14.53
6146,13.67
6158,13.32
6170,13.36
6182,13.61
6194,13.84
6206,13.75
6218,13.09
6230,11.65
6242,9.34
6253,6.22
6264,2.59
6276,-1.04
6288,-4.05
6300,-5.86
6312,-6.11
6324,-4.82
6336,-2.41
6348,0.45
6360,3.07
6372,4.96
6384,5.92
6396,6.02
6408,5.48
6420,4.51
6432,3.31
6443,1.98
6454,0.6
6466,-0.79
6478,-2.18
6490,-3.63
6502,-5.2
6514,-6.85
6526,-8.35
6538,-9.3
6550,-9.22
6562,-7.75
6574,-4.82
6586,-0.68
6598,4.11
6610,8.88
6622,13.04
6633,16.18
6644,18.14
6656,18.98
6668,18.92
6680,18.23
6692,17.16
6704,15.9
6716,14.61
6728,13.43
6740,12.51
6752,12.02
6764,12.12
6776,12.82
6788,14.02
6800,15.51
6812,16.99
6823,18.26
6834,19.19
6846,19.76
6858,20.05
6870,20.1
6882,19.95
6894,19.57
6906,18.99
6918,18.26
6930,17.47
6942,16.71
6954,15.96
6966,15.11
6978,13.95
6990,12.3
7002,10.12
7013,7.59
7024,5.0
7036,2.63
7048,0.61
7060,-1.14
7072,-2.78
7084,-4.54
7096,-6.49
7108,-8.59
7120,-10.67
7132,-12.52
7144,-13.81
7156,-14.23
7168,-13.56
7180,-11.74
7192,-9.04
7203,-5.93
7214,-3.0
7226,-0.66
7238,0.95
7250,2.08
7262,3.14
7274,4.5
7286,6.31
7298,8.46
7310,10.68
7322,12.65
7334,14.2
7346,15.31
7358,16.09
7370,16.73
7382,17.33
7393,17.85
7404,18.07
7416,17.74
7428,16.6
7440,14.64
7452,12.1
7464,9.36
7476,6.81
7488,4.65
7500,2.77
7512,0.91
7524,-1.14
7536,-3.42
7548,-5.72
7560,-7.68
7572,-9.12
7583,-10.08
7594,-10.82
7606,-11.7
7618,-12.9
7630,-14.42
7642,-16.06
7654,-17.58
7666,-18.81
7678,-19.67
7690,-20.02
7702,-19.59
7714,-18.03
7726,-15.09
7738,-10.87
7750,-5.84
7762,-0.77
7773,3.62
7784,6.88
7796,9.04
7808,10.48
7820,11.63
7832,12.77
7844,13.81
7856,14.45
7868,14.35
7880,13.34
7892,11.54
7904,9.32
7916,7.22
7928,5.64
7940,4.76
7952,4.38
7963,3.89
7974,2.52
7986,-0.59
7998,-6.0
8010,-13.79
8022,-23.36
8034,-33.64
8046,-43.33
8058,-51.39
8070,-57.34
8082,-61.29
8094,-63.82
8106,-65.61
8118,-67.23
8130,-68.99
8142,-70.92
8153,-72.84
8164,-74.39
8176,-75.09
8188,-74.42
8200,-72.0
8212,-67.74
8224,-61.84
8236,-54.62
8248,-46.17
8260,-36.14
8272,-23.72
8284,-8.01
8296,11.39
8308,33.85
8320,57.62
8332,80.12
8343,98.62
8354,111.08
8366,116.62
8378,115.65
8390,109.4
8402,99.38
8414,86.81
8426,72.52
8438,57.05
8450,40.94
8462,24.92
8474,9.8
8486,-3.73
8498,-15.39
8510,-25.37
8522,-34.07
8533,-41.89
8544,-48.9
8556,-54.95
8568,-59.7
8580,-62.9
8592,-64.6
8604,-65.13
8616,-64.98
8628,-64.46
8640,-63.5
8652,-61.52
8664,-57.57
8676,-50.67
8688,-40.24
8700,-26.47
8712,-10.49
8723,5.78
8734,20.28
8746,31.34
8758,38.34
8770,41.73
8782,42.83
8794,43.1
8806,43.41
8818,43.72
8830,43.1
8842,40.38
8854,34.76
8866,26.39
8878,16.33
8890,6.26
8902,-2.08
8913,-7.39
8924,-8.96
8936,-6.74
8948,-1.11
8960,7.3
8972,17.72
8984,29.31
8996,41.16
9008,52.3
9020,61.63
9032,67.94
9044,70.09
9056,67.19
9068,58.88
9080,45.46
9092,27.9
9103,7.61
9114,-13.73
9126,-34.37
9138,-52.57
9150,-66.72
9162,-75.34
9174,-77.36
9186,-72.28
9198,-60.43
9210,-42.96
9222,-21.7
9234,1.22
9246,23.77
9258,44.25
9270,61.48
9282,74.74
9293,83.69
9304,88.31
9316,88.85
9328,85.79
9340,79.75
9352,71.37
9364,61.22
9376,49.76
9388,37.4
9400,24.59
9412,11.9
9424,-0.02
9436,-10.6
9448,-19.45
9460,-26.5
9472,-31.89
9483,-35.87
9494,-38.69
9506,-40.48
9518,-41.31
9530,-41.25
9542,-40.46
9554,-39.16
9566,-37.63
9578,-36.05
9590,-34.5
9602,-32.98
9614,-31.49
9626,-30.02
9638,-28.65
9650,-27.48
9662,-26.64
9673,-26.26
9684,-26.43
9696,-27.13
9708,-28.24
9720,-29.53
9732,-30.72
9744,-31.61
9756,-32.14
9768,-32.45
9780,-32.8
9792,-33.49
9804,-34.71
9816,-36.42
9828,-38.47
9840,-40.53
9852,-42.27
9863,-43.35
9874,-43.51
9886,-42.62
9898,-40.71
9910,-38.05
9922,-35.12
9934,-32.56
9946,-31.01
9958,-30.99
9970,-32.77
9982,-36.35
9994,-41.68
10006,-48.69
10018,-57.39
10030,-67.72
10042,-79.16
10053,-90.46
10064,-99.59
10076,-104.09
10088,-101.87
10100,-92.03
10112,-75.17
10124,-53.4
10136,-29.62
10148,-6.68
10160,13.21
10172,28.77
10184,39.44
10196,45.26
10208,46.66
10220,44.56
10232,40.39
10243,35.91
10254,32.9
10266,32.64
10278,35.64
10290,41.61
10302,49.64
10314,58.52
10326,67.08
10338,74.36
10350,79.86
10362,83.83
10374,87.42
10386,92.56
10398,101.29
10410,114.94
10422,133.25
10433,153.99
10444,173.42
10456,187.39
10468,192.6
10480,187.53
10492,172.66
10504,150.04
10516,122.58
10528,93.3
10540,64.96
10552,39.86
10564,19.76
10576,5.7
10588,-2.26
10600,-5.12
10612,-4.76
10623,-3.41
10634,-2.91
10646,-4.13
10658,-6.75
10670,-9.52
10682,-10.92
10694,-9.88
10706,-6.28
10718,-1.04
10730,4.23
10742,7.8
10754,8.41
10766,5.63
10778,-0.1
10790,-7.61
10802,-15.35
10813,-21.65
10824,-25.03
10836,-24.46
10848,-19.48
10860,-10.33
10872,1.99
10884,15.9
10896,29.48
10908,40.88
10920,48.82
10932,52.91
10944,53.76
10956,52.84
10968,51.98
10980,52.86
10992,56.49
11003,62.94
11014,71.32
11026,80.11
11038,87.55
11050,92.07
11062,92.64
11074,88.91
11086,81.15
11098,70.01
11110,56.32
11122,40.98
11134,24.81
11146,8.52
11158,-7.38
11170,-22.63
11182,-37.18
11193,-51.09
11204,-64.36
11216,-76.87
11228,-88.29
11240,-98.2
11252,-106.26
11264,-112.32
11276,-116.44
11288,-118.85
11300,-119.85
11312,-119.71
11324,-118.68
11336,-116.99
11348,-114.9
11360,-112.61
11372,-110.3
11383,-108.09
11394,-106.05
11406,-104.22
11418,-102.48
11430,-100.63
11442,-98.37
11454,-95.51
11466,-91.98
11478,-87.87
11490,-83.32
11502,-78.37
11514,-72.82
11526,-66.25
11538,-58.18
11550,-48.21
11562,-36.18
11573,-22.21
11584,-6.62
11596,10.16
11608,27.63
11620,45.27
11632,62.47
11644,78.49
11656,92.49
11668,103.55
11680,110.77
11692,113.4
11704,110.98
11716,103.54
11728,91.64
11740,76.32
11752,58.93
11763,40.87
11774,23.4
11786,7.44
11798,-6.35
11810,-17.65
11822,-26.38
11834,-32.73
11846,-37.08
11858,-39.99
11870,-42.09
11882,-43.93
11894,-45.85
11906,-47.93
11918,-49.97
11930,-51.68
11942,-52.74
11953,-53.03
11964,-52.65
11976,-51.9
11988,-51.18
12000,-50.82
12012,-50.93
12024,-51.31
12036,-51.45
12048,-50.64
12060,-48.15
12072,-43.49
12084,-36.64
12096,-28.11
12108,-18.9
12120,-10.11
12132,-2.66
12143,2.95
12154,6.74
12166,9.06
12178,10.36
12190,10.99
12202,11.08
12214,10.63
12226,9.66
12238,8.25
12250,6.61
12262,5.05
12274,3.86
12286,3.27
12298,3.38
12310,4.09
12322,5.13
12333,6.13
12344,6.73
12356,6.76
12368,6.21
12380,5.22
12392,3.96
12404,2.5
12416,0.77
12428,-1.36
12440,-4.01
12452,-7.17
12464,-10.65
12476,-14.21
12488,-17.62
12500,-20.75
12512,-23.53
12523,-25.93
12534,-27.89
12546,-29.29
12558,-30.13
12570,-30.49
12582,-30.66
12594,-31.03
12606,-31.83
12618,-32.92
12630,-33.74
12642,-33.4
12654,-31.09
12666,-26.39
12678,-19.42
12690,-10.71
12702,-0.99
12713,9.24
12724,19.64
12736,30.08
12748,40.46
12760,50.52
12772,59.94
12784,68.4
12796,75.64
12808,81.42
12820,85.43
12832,87.2
12844,86.12
12856,81.69
12868,73.7
12880,62.32
12892,48.06
12903,31.62
12914,13.58
12926,-5.61
12938,-25.76
12950,-46.8
12962,-68.61
12974,-90.84
12986,-112.71
12998,-133.0
13010,-150.04
13022,-161.97
13034,-167.07
13046,-164.11
13058,-152.57
13070,-132.84
13082,-106.14
13093,-74.34
13104,-39.71
13116,-4.58
13128,28.78
13140,58.42
13152,82.68
13164,100.25
13176,110.25
13188,112.28
13200,106.75
13212,94.98
13224,79.27
13236,62.5
13248,47.52
13260,36.49
13272,30.42
13283,29.15
13294,31.69
13306,36.88
13318,43.74
13330,51.56
13342,59.64
13354,66.92
13366,72.02
13378,73.51
13390,70.5
13402,63.14
13414,52.88
13426,42.02
13438,33.15
13450,28.24
13462,28.2
13473,32.78
13484,40.91
13496,51.19
13508,62.24
13520,73.17
13532,83.55
13544,93.39
13556,102.94
13568,112.56
13580,122.53
13592,132.95
13604,143.43
13616,152.91
13628,159.63
13640,161.57
13652,157.06
13663,145.63
13674,128.36
13686,107.68
13698,86.5
13710,67.07
13722,50.12
13734,34.75
13746,19.12
13758,1.51
13770,-18.76
13782,-41.06
13794,-63.73
13806,-84.79
13818,-102.54
13830,-116.04
13842,-124.96
13853,-129.61
13864,-130.67
13876,-129.04
13888,-125.85
13900,-122.33
13912,-119.67
13924,-118.61
13936,-119.26
13948,-120.77
13960,-121.58
13972,-119.81
13984,-113.73
13996,-102.42
14008,-86.04
14020,-65.76
14032,-43.33
14043,-20.62
14054,0.89
14066,20.15
14078,36.61
14090,50.05
14102,60.37
14114,67.59
14126,71.82
14138,73.19
14150,71.88
14162,68.04
14174,61.81
14186,53.43
14198,43.32
14210,32.06
14222,20.37
14233,8.96
14244,-1.56
14256,-10.82
14268,-18.66
14280,-25.11
14292,-30.41
14304,-34.92
14316,-39.05
14328,-43.14
14340,-47.22
14352,-51.03
14364,-53.94
14376,-55.21
14388,-54.35
14400,-51.28
14412,-46.43
14423,-40.6
14434,-34.61
14446,-29.07
14458,-24.26
14470,-20.17
14482,-16.66
14494,-13.62
14506,-11.0
14518,-8.85
14530,-7.23
14542,-6.14
14554,-5.5
14566,-5.13
14578,-4.81
14590,-4.31
14602,-3.5
14613,-2.35
14624,-0.95
14636,0.5
14648,1.76
14660,2.65
14672,3.14
14684,3.35
14696,3.47
14708,3.68
14720,4.06
14732,4.5
14744,4.77
14756,4.6
14768,3.82
14780,2.44
14792,0.68
14803,-1.2
14814,-2.93
14826,-4.39
14838,-5.59
14850,-6.6
14862,-7.5
14874,-8.39
14886,-9.37
14898,-10.54
14910,-11.91
14922,-13.35
14934,-14.45
14946,-14.62
14958,-13.21
14970,-9.9
14982,-4.77
14993,1.53
15004,8.04
15016,13.83
15028,18.3
15040,21.34
15052,23.22
15064,24.38
15076,25.16
15088,25.69
15100,25.93
15112,25.74
15124,25.08
15136,24.04
15148,22.75
15160,21.33
15172,19.89
15183,18.48
15194,17.2
15206,16.14
15218,15.37
15230,14.84
15242,14.36
15254,13.67
15266,12.54
15278,10.9
15290,8.8
15302,6.42
15314,3.92
15326,1.43
15338,-1.04
15350,-3.45
15362,-5.75
15373,-7.85
15384,-9.61
15396,-10.96
15408,-11.89
15420,-12.49
15432,-12.95
15444,-13.49
15456,-14.33
15468,-15.61
15480,-17.38
15492,-19.41
15504,-21.28
15516,-22.43
15528,-22.29
15540,-20.61
15552,-17.47
15563,-13.39
15574,-9.1
15586,-5.32
15598,-2.49
15610,-0.68
15622,0.36
15634,0.98
15646,1.44
15658,1.84
15670,2.08
15682,2.02
15694,1.64
15706,1.08
15718,0.55
15730,0.25
15742,0.24
15753,0.42
15764,0.61
15776,0.66
15788,0.56
15800,0.42
15812,0.41
15824,0.6
15836,0.89
15848,1.07
15860,0.91
15872,0.34
15884,-0.54
15896,-1.43
15908,-2.01
15920,-2.1
15932,-1.78
15943,-1.31
15954,-1.07
15966,-1.4
15978,-2.39
15990,-3.95
16002,-5.82
16014,-7.65
16026,-9.22
16038,-10.41
16050,-11.27
16062,-11.92
16074,-12.57
16086,-13.4
16098,-14.56
16110,-16.05
16122,-17.64
16133,-18.91
16144,-19.25
16156,-18.13
16168,-15.25
16180,-10.77
16192,-5.28
16204,0.35
16216,5.26
16228,8.91
16240,11.15
16252,12.21
16264,12.47
16276,12.32
16288,12.02
16300,11.68
16312,11.37
16323,11.16
16334,11.14
16346,11.33
16358,11.68
16370,11.99
16382,12.05
16394,11.72
16406,11.06
16418,10.31
16430,9.8
16442,9.75
16454,10.15
16466,10.79
16478,11.33
16490,11.44
16502,10.96
16513,9.86
16524,8.29
16536,6.49
16548,4.76
16560,3.35
16572,2.42
16584,1.95
16596,1.76
16608,1.61
16620,1.27
16632,0.71
16644,0.03
16656,-0.58
16668,-0.98
16680,-1.14
16692,-1.18
16703,-1.28
16714,-1.61
16726,-2.31
16738,-3.39
16750,-4.75
16762,-6.16
16774,-7.2
16786,-7.42
16798,-6.43
16810,-4.1
16822,-0.63
16834,3.46
16846,7.46
16858,10.73
16870,12.83
16882,13.63
16893,13.28
16904,12.02
16916,10.12
16928,7.81
16940,5.29
16952,2.75
16964,0.42
16976,-1.45
16988,-2.65
17000,-3.1
17012,-2.86
17024,-2.14
17036,-1.17
17048,-0.16
17060,0.75
17072,1.56
17083,2.26
17094,2.77
17106,2.91
17118,2.4
17130,0.88
17142,-1.87
17154,-5.88
17166,-10.99
17178,-16.88
17190,-23.28
17202,-30.06
17214,-37.3
17226,-45.17
17238,-53.73
17250,-62.76
17262,-71.74
17273,-79.86
17284,-86.25
17296,-90.09
17308,-90.76
17320,-87.87
17332,-81.33
17344,-71.38
17356,-58.59
17368,-43.87
17380,-28.19
17392,-12.46
17404,2.72
17416,17.09
17428,30.66
17440,43.4
17452,55.11
17463,65.36
17474,73.65
17486,79.65
17498,83.36
17510,85.16
17522,85.55
17534,85.11
17546,84.22
17558,83.17
17570,82.1
17582,81.12
17594,80.29
17606,79.62
17618,79.04
17630,78.44
17642,77.62
17653,76.36
17664,74.43
17676,71.65
17688,67.97
17700,63.58
17712,58.81
17724,54.14
17736,49.98
17748,46.56
17760,43.92
17772,41.91
17784,40.41
17796,39.35
17808,38.73
17820,38.53
17832,38.62
17843,38.75
17854,38.52
17866,37.53
17878,35.48
17890,32.26
17902,27.89
17914,22.51
17926,16.22
17938,9.06
17950,0.99
17962,-7.98
17974,-17.63
17986,-27.45
17998,-36.64
18010,-44.38
18022,-50.06
18033,-53.58
18044,-55.33
18056,-56.13
18068,-56.79
18080,-57.87
18092,-59.44
18104,-61.16
18116,-62.53
18128,-63.14
18140,-62.95
18152,-62.18
18164,-61.23
18176,-60.33
18188,-59.44
18200,-58.27
18212,-56.5
18223,-54.02
18234,-51.0
18246,-47.85
18258,-45.04
18270,-42.83
18282,-41.23
18294,-40.01
18306,-38.89
18318,-37.7
18330,-36.43
18342,-35.24
18354,-34.29
18366,-33.69
18378,-33.51
18390,-33.74
18402,-34.45
18413,-35.7
18424,-37.64
18436,-40.39
18448,-44.06
18460,-48.65
18472,-54.08
18484,-60.23
18496,-66.9
18508,-73.9
18520,-80.96
18532,-87.64
18544,-93.23
18556,-96.69
18568,-96.82
18580,-92.53
18592,-83.18
18603,-68.9
18614,-50.61
18626,-29.81
18638,-8.21
18650,12.7
18662,31.82
18674,48.52
18686,62.48
18698,73.66
18710,82.12
18722,88.08
18734,91.89
18746,94.01
18758,95.01
18770,95.45
18782,95.77
18793,96.25
18804,96.95
18816,97.76
18828,98.52
18840,99.09
18852,99.44
18864,99.62
18876,99.68
18888,99.55
18900,98.96
18912,97.45
18924,94.49
18936,89.65
18948,82.68
18960,73.63
18972,62.81
18983,50.74
18994,38.0
19006,25.07
19018,12.32
19030,-0.08
19042,-12.07
19054,-23.67
19066,-34.88
19078,-45.63
19090,-55.75
19102,-64.95
19114,-72.76
19126,-78.65
19138,-82.07
19150,-82.67
19162,-80.46
19173,-75.85
19184,-69.63
19196,-62.77
19208,-56.18
19220,-50.5
19232,-45.97
19244,-42.42
19256,-39.49
19268,-36.7
19280,-33.78
19292,-30.68
19304,-27.53
19316,-24.53
19328,-21.75
19340,-19.13
19352,-16.5
19363,-13.71
19374,-10.82
19386,-8.01
19398,-5.53
19410,-3.55
19422,-2.02
19434,-0.76
19446,0.42
19458,1.6
19470,2.69
19482,3.52
19494,3.94
19506,3.92
19518,3.54
19530,2.95
19542,2.23
19553,1.46
19564,0.67
19576,-0.1
19588,-0.79
19600,-1.35
19612,-1.83
19624,-2.37
19636,-3.13
19648,-4.27
19660,-5.79
19672,-7.45
19684,-8.84
19696,-9.41
19708,-8.69
19720,-6.38
19732,-2.56
19743,2.37
19754,7.72
19766,12.77
19778,16.94
19790,19.96
19802,21.88
19814,22.92
19826,23.33
19838,23.23
19850,22.64
19862,21.56
19874,20.12
19886,18.61
19898,17.37
19910,16.72
19922,16.75
19933,17.31
19944,18.05
19956,18.53
19968,18.42
19980,17.54
19992,15.96
20004,13.86
20016,11.46
20028,8.89
20040,6.12
20052,3.08
20064,-0.31
20076,-3.95
20088,-7.64
20100,-11.06
20112,-13.9
20123,-16.02
20134,-17.5
20146,-18.6
20158,-19.66
20170,-20.94
20182,-22.6
20194,-24.62
20206,-26.88
20218,-29.14
20230,-31.05
20242,-32.15
20254,-31.99
20266,-30.21
20278,-26.76
20290,-21.9
20302,-16.24
20313,-10.53
20324,-5.42
20336,-1.29
20348,1.86
20360,4.34
20372,6.53
20384,8.7
20396,10.84
20408,12.71
20420,13.97
20432,14.41
20444,14.05
20456,13.17
20468,12.15
20480,11.37
20492,11.03
20503,11.12
20514,11.47
20526,11.86
20538,12.08
20550,11.99
20562,11.53
20574,10.63
20586,9.31
20598,7.65
20610,5.76
20622,3.81
20634,1.89
20646,0.05
20658,-1.77
20670,-3.65
20682,-5.66
20693,-7.79
20704,-10.03
20716,-12.31
20728,-14.62
20740,-16.89
20752,-19.1
20764,-21.24
20776,-23.31
20788,-25.44
20800,-27.69
20812,-30.08
20824,-32.28
20836,-33.64
20848,-33.33
20860,-30.62
20872,-25.26
20883,-17.7
20894,-8.98
20906,-0.37
20918,7.07
20930,12.8
20942,16.88
20954,19.74
20966,21.84
20978,23.47
20990,24.59
