seconds,BVP
10,33.14
22,31.45
34,29.79
46,28.52
58,27.92
70,27.94
82,28.21
94,28.11
106,27.01
117,24.62
128,21.02
140,16.67
152,12.15
164,7.96
176,4.27
188,0.99
200,-2.19
212,-5.62
224,-9.49
236,-13.79
248,-18.34
260,-22.86
272,-27.08
284,-30.85
296,-34.17
307,-37.19
318,-40.22
330,-43.68
342,-48.02
354,-53.46
366,-59.79
378,-66.16
390,-71.17
402,-73.16
414,-70.85
426,-63.77
438,-52.51
450,-38.61
462,-23.95
474,-10.22
486,1.56
497,11.09
508,18.57
520,24.43
532,28.98
544,32.39
556,34.68
568,35.95
580,36.37
592,36.19
604,35.64
616,34.87
628,33.86
640,32.55
652,30.92
664,29.06
676,27.2
687,25.56
698,24.3
710,23.4
722,22.66
734,21.78
746,20.51
758,18.71
770,16.39
782,13.69
794,10.79
806,7.84
818,4.96
830,2.22
842,-0.34
854,-2.69
866,-4.85
877,-6.91
888,-9.0
900,-11.28
912,-13.77
924,-16.39
936,-18.96
948,-21.31
960,-23.45
972,-25.65
984,-28.34
996,-32.01
1008,-36.87
1020,-42.7
1032,-48.75
1044,-53.86
1056,-56.69
1067,-56.13
1078,-51.59
1090,-43.23
1102,-31.88
1114,-18.86
1126,-5.61
1138,6.62
1150,17.0
1162,25.16
1174,31.1
1186,35.08
1198,37.44
1210,38.58
1222,38.84
1234,38.51
1246,37.73
1257,36.57
1268,35.02
1280,33.05
1292,30.68
1304,27.97
1316,25.04
1328,22.03
1340,19.11
1352,16.37
1364,13.87
1376,11.57
1388,9.37
1400,7.1
1412,4.65
1424,1.95
1436,-1.02
1447,-4.21
1458,-7.59
1470,-11.15
1482,-14.89
1494,-18.69
1506,-22.35
1518,-25.49
1530,-27.72
1542,-28.73
1554,-28.45
1566,-27.07
1578,-25.05
1590,-23.05
1602,-21.84
1614,-22.13
1626,-24.41
1637,-28.77
1648,-34.7
1660,-41.09
1672,-46.37
1684,-48.92
1696,-47.54
1708,-41.9
1720,-32.64
1732,-21.11
1744,-8.94
1756,2.48
1768,12.32
1780,20.3
1792,26.5
1804,31.1
1816,34.22
1827,35.91
1838,36.32
1850,35.72
1862,34.48
1874,33.04
1886,31.7
1898,30.58
1910,29.66
1922,28.83
1934,27.99
1946,27.07
1958,26.07
1970,25.0
1982,23.88
1994,22.72
2006,21.52
2017,20.25
2028,18.78
2040,16.91
2052,14.38
2064,10.99
2076,6.71
2088,1.76
2100,-3.47
2112,-8.52
2124,-13.09
2136,-17.09
2148,-20.67
2160,-24.18
2172,-27.99
2184,-32.47
2196,-37.83
2207,-44.02
2218,-50.55
2230,-56.4
2242,-60.21
2254,-60.63
2266,-56.75
2278,-48.55
2290,-36.96
2302,-23.53
2314,-9.98
2326,2.36
2338,12.77
2350,21.15
2362,27.71
2374,32.75
2386,36.49
2397,38.99
2408,40.34
2420,40.61
2432,39.99
2444,38.76
2456,37.14
2468,35.36
2480,33.46
2492,31.43
2504,29.21
2516,26.79
2528,24.25
2540,21.8
2552,19.67
2564,17.98
2576,16.68
2587,15.52
2598,14.03
2610,11.77
2622,8.45
2634,4.06
2646,-1.09
2658,-6.48
2670,-11.57
2682,-16.01
2694,-19.76
2706,-23.07
2718,-26.36
2730,-30.14
2742,-34.81
2754,-40.58
2766,-47.31
2777,-54.46
2788,-61.01
2800,-65.64
2812,-67.02
2824,-64.26
2836,-57.19
2848,-46.51
2860,-33.55
2872,-19.87
2884,-6.85
2896,4.56
2908,13.9
2920,21.01
2932,25.96
2944,28.88
2956,30.01
2967,29.68
2978,28.29
2990,26.28
3002,23.98
3014,21.63
3026,19.21
3038,16.56
3050,13.44
3062,9.71
3074,5.41
3086,0.84
3098,-3.6
3110,-7.51
3122,-10.77
3134,-13.59
3146,-16.43
3157,-19.85
3168,-24.21
3180,-29.56
3192,-35.54
3204,-41.64
3216,-47.35
3228,-52.32
3240,-56.57
3252,-60.38
3264,-64.2
3276,-68.51
3288,-73.68
3300,-79.74
3312,-86.35
3324,-92.68
3336,-97.55
3347,-99.59
3358,-97.58
3370,-90.78
3382,-79.27
3394,-63.93
3406,-46.16
3418,-27.61
3430,-9.88
3442,5.91
3454,19.13
3466,29.64
3478,37.48
3490,42.73
3502,45.41
3514,45.83
3526,44.46
3537,42.06
3548,39.43
3560,37.3
3572,36.08
3584,35.7
3596,35.66
3608,35.37
3620,34.81
3632,34.37
3644,34.65
3656,36.23
3668,39.48
3680,44.4
3692,50.47
3704,56.73
3716,62.02
3727,66.29
3738,69.69
3750,72.15
3762,73.38
3774,73.19
3786,71.65
3798,68.97
3810,65.12
3822,59.86
3834,54.83
3846,51.35
3858,49.78
3870,49.56
3882,50.27
3894,52.29
3906,56.38
3917,63.03
3928,72.0
3940,85.34
3952,103.78
3964,125.63
3976,147.23
3988,165.14
4000,177.84
4012,185.72
4024,190.27
4036,193.17
4048,199.81
4060,213.81
4072,235.14
4084,260.2
4096,284.65
4107,305.67
4118,322.35
4130,334.89
4142,319.04
4154,262.87
4166,173.11
4178,72.27
4190,-18.01
4202,-87.8
4214,-137.38
4226,-171.5
4238,-195.45
4250,-213.23
4262,-222.77
4274,-223.43
4286,-216.59
4297,-206.22
4308,-196.77
4320,-191.04
4332,-190.0
4344,-193.43
4356,-200.75
4368,-208.42
4380,-212.36
4392,-211.28
4404,-206.52
4416,-199.89
4428,-192.03
4440,-182.45
4452,-170.38
4464,-155.67
4476,-137.19
4487,-115.27
4498,-92.14
4510,-71.06
4522,-54.45
4534,-42.7
4546,-34.44
4558,-27.58
4570,-20.42
4582,-11.19
4594,0.61
4606,14.04
4618,27.41
4630,39.3
4642,49.04
4654,56.5
4666,61.61
4677,64.08
4688,63.99
4700,61.73
4712,58.09
4724,54.35
4736,52.11
4748,52.64
4760,56.21
4772,61.92
4784,68.03
4796,72.8
4808,75.19
4820,75.01
4832,73.2
4844,71.33
4856,70.62
4867,71.18
4878,71.68
4890,69.7
4902,62.54
4914,48.14
4926,25.48
4938,-4.12
4950,-37.0
4962,-68.4
4974,-94.01
4986,-111.26
4998,-119.62
5010,-120.29
5022,-115.32
5034,-107.53
5046,-98.56
5057,-88.58
5068,-77.23
5080,-64.79
5092,-52.48
5104,-41.94
5116,-34.64
5128,-31.4
5140,-33.49
5152,-40.82
5164,-51.59
5176,-62.77
5188,-71.23
5200,-74.28
5212,-70.21
5224,-58.88
5236,-35.89
5247,-4.13
5258,27.49
5270,50.1
5282,60.41
5294,60.09
5306,52.46
5318,40.18
5330,25.07
5342,8.88
5354,-7.74
5366,-23.28
5378,-35.53
5390,-42.77
5402,-44.74
5414,-42.46
5426,-37.39
5437,-32.45
5448,-27.74
5460,-24.33
5472,-22.8
5484,-22.77
5496,-23.29
5508,-23.56
5520,-23.04
5532,-21.36
5544,-18.25
5556,-13.31
5568,-7.22
5580,-0.61
5592,6.15
5604,12.75
5616,18.74
5627,23.59
5638,26.84
5650,28.05
5662,27.4
5674,24.88
5686,20.83
5698,15.99
5710,11.12
5722,6.73
5734,2.96
5746,-0.38
5758,-3.56
5770,-6.58
5782,-9.5
5794,-11.96
5806,-13.37
5817,-13.06
5828,-10.67
5840,-6.27
5852,-0.36
5864,6.31
5876,13.06
5888,19.27
5900,24.57
5912,28.86
5924,32.22
5936,34.76
5948,36.54
5960,37.48
5972,37.41
5984,36.2
5996,33.78
6007,30.17
6018,25.53
6030,20.05
6042,13.94
6054,7.32
6066,0.28
6078,-7.19
6090,-15.17
6102,-23.76
6114,-33.06
6126,-43.02
6138,-53.19
6150,-62.69
6162,-70.26
6174,-74.57
6186,-74.65
6197,-70.23
6208,-61.94
6220,-51.09
6232,-39.28
6244,-27.92
6256,-17.91
6268,-9.65
6280,-3.17
6292,1.62
6304,4.81
6316,6.49
6328,6.82
6340,6.04
6352,4.45
6364,2.32
6376,-0.18
6387,-2.95
6398,-5.92
6410,-8.96
6422,-11.89
6434,-14.54
6446,-16.77
6458,-18.57
6470,-20.07
6482,-21.45
6494,-22.82
6506,-24.17
6518,-25.25
6530,-25.64
6542,-24.96
6554,-23.11
6566,-20.45
6577,-17.69
6588,-15.58
6600,-14.53
6612,-14.39
6624,-14.41
6636,-13.67
6648,-11.44
6660,-7.51
6672,-2.21
6684,3.69
6696,9.33
6708,13.88
6720,16.66
6732,17.23
6744,15.52
6756,11.94
6767,7.51
6778,3.69
6790,2.04
6802,3.8
6814,9.45
6826,18.58
6838,30.06
6850,42.32
6862,53.81
6874,63.37
6886,70.38
6898,74.8
6910,77.01
6922,77.55
6934,77.01
6946,75.8
6957,74.14
6968,72.11
6980,69.73
6992,67.05
7004,64.16
7016,61.2
7028,58.27
7040,55.39
7052,52.52
7064,49.57
7076,46.51
7088,43.4
7100,40.41
7112,37.69
7124,35.37
7136,33.36
7147,31.39
7158,29.05
7170,25.92
7182,21.73
7194,16.44
7206,10.25
7218,3.54
7230,-3.24
7242,-9.71
7254,-15.7
7266,-21.23
7278,-26.59
7290,-32.16
7302,-38.36
7314,-45.34
7326,-52.85
7337,-60.09
7348,-65.85
7360,-68.81
7372,-67.98
7384,-63.0
7396,-54.34
7408,-43.06
7420,-30.55
7432,-18.14
7444,-6.83
7456,2.8
7468,10.45
7480,16.13
7492,19.95
7504,22.23
7516,23.35
7527,23.73
7538,23.7
7550,23.46
7562,23.01
7574,22.29
7586,21.22
7598,19.77
7610,18.06
7622,16.29
7634,14.72
7646,13.62
7658,13.15
7670,13.35
7682,14.03
7694,14.88
7706,15.52
7717,15.68
7728,15.23
7740,14.18
7752,12.59
7764,10.48
7776,7.83
7788,4.65
7800,1.03
7812,-2.83
7824,-6.72
7836,-10.47
7848,-14.02
7860,-17.47
7872,-20.92
7884,-24.48
7896,-28.26
7907,-32.43
7918,-37.2
7930,-42.63
7942,-48.4
7954,-53.63
7966,-56.96
7978,-56.92
7990,-52.5
8002,-43.58
8014,-31.04
8026,-16.48
8038,-1.67
8050,11.95
8062,23.52
8074,32.79
8086,39.84
8097,44.9
8108,48.23
8120,50.09
8132,50.8
8144,50.67
8156,50.01
8168,49.03
8180,47.79
8192,46.27
8204,44.45
8216,42.37
8228,40.22
8240,38.22
8252,36.6
8264,35.5
8276,34.9
8287,34.64
8298,34.45
8310,33.97
8322,32.93
8334,31.09
8346,28.4
8358,24.97
8370,21.1
8382,17.17
8394,13.53
8406,10.36
8418,7.6
8430,4.93
8442,1.96
8454,-1.62
8466,-5.87
8477,-10.57
8488,-15.29
8500,-19.57
8512,-23.15
8524,-26.06
8536,-28.63
8548,-31.32
8560,-34.63
8572,-38.89
8584,-44.19
8596,-50.28
8608,-56.46
8620,-61.64
8632,-64.43
8644,-63.5
8656,-58.0
8667,-47.94
8678,-34.23
8690,-18.53
8702,-2.72
8714,11.6
8726,23.45
8738,32.54
8750,39.06
8762,43.42
8774,46.03
8786,47.24
8798,47.34
8810,46.64
8822,45.45
8834,44.08
8846,42.7
8857,41.35
8868,39.98
8880,38.46
8892,36.77
8904,34.98
8916,33.3
8928,31.95
8940,31.11
8952,30.77
8964,30.7
8976,30.55
8988,29.95
9000,28.65
9012,26.55
9024,23.69
9036,20.2
9047,16.2
9058,11.75
9070,6.93
9082,1.87
9094,-3.27
9106,-8.27
9118,-13.02
9130,-17.5
9142,-21.88
9154,-26.35
9166,-31.0
9178,-35.78
9190,-40.44
9202,-44.69
9214,-48.32
9226,-51.31
9237,-53.93
9248,-56.59
9260,-59.8
9272,-63.87
9284,-68.81
9296,-74.17
9308,-79.03
9320,-82.16
9332,-82.27
9344,-78.33
9356,-69.96
9368,-57.55
9380,-42.21
9392,-25.53
9404,-9.17
9416,5.52
9427,17.74
9438,27.25
9450,34.22
9462,39.01
9474,41.97
9486,43.41
9498,43.6
9510,42.85
9522,41.5
9534,39.91
9546,38.29
9558,36.69
9570,35.0
9582,33.05
9594,30.81
9606,28.41
9617,26.15
9628,24.38
9640,23.32
9652,22.96
9664,22.99
9676,22.98
9688,22.47
9700,21.17
9712,19.07
9724,16.41
9736,13.58
9748,11.05
9760,9.09
9772,7.79
9784,6.98
9796,6.29
9807,5.32
9818,3.71
9830,1.36
9842,-1.63
9854,-4.91
9866,-8.08
9878,-10.85
9890,-13.13
9902,-15.12
9914,-17.25
9926,-20.03
9938,-23.93
9950,-29.12
9962,-35.29
9974,-41.68
9986,-47.05
9997,-50.02
10008,-49.44
10020,-44.73
10032,-36.11
10044,-24.56
10056,-11.52
10068,1.53
10080,13.4
10092,23.38
10104,31.19
10116,36.88
10128,40.59
10140,42.52
10152,42.84
10164,41.81
10176,39.75
10187,37.07
10198,34.13
10210,31.17
10222,28.18
10234,25.02
10246,21.55
10258,17.79
10270,13.98
10282,10.49
10294,7.62
10306,5.46
10318,3.78
10330,2.13
10342,0.08
10354,-2.68
10366,-6.17
10377,-10.22
10388,-14.59
10400,-19.04
10412,-23.38
10424,-27.51
10436,-31.41
10448,-35.15
10460,-38.84
10472,-42.63
10484,-46.61
10496,-50.7
10508,-54.71
10520,-58.38
10532,-61.46
10544,-63.84
10556,-65.63
10567,-67.13
10578,-68.76
10590,-70.91
10602,-73.79
10614,-77.3
10626,-80.87
10638,-83.51
10650,-83.93
10662,-80.91
10674,-73.62
10686,-61.98
10698,-46.71
10710,-29.23
10722,-11.25
10734,5.64
10746,20.33
10757,32.3
10768,41.55
10780,48.38
10792,53.16
10804,56.25
10816,57.94
10828,58.48
10840,58.18
10852,57.38
10864,56.37
10876,55.39
10888,54.54
10900,53.81
10912,53.18
10924,52.64
10936,52.23
10947,51.99
10958,51.92
10970,51.91
10982,51.75
10994,51.2
11006,50.04
11018,48.1
11030,45.3
11042,41.69
11054,37.33
11066,32.36
11078,26.94
11090,21.21
11102,15.37
11114,9.59
11126,4.04
11137,-1.23
11148,-6.23
11160,-11.08
11172,-15.94
11184,-20.88
11196,-25.87
11208,-30.73
11220,-35.19
11232,-39.05
11244,-42.27
11256,-45.01
11268,-47.67
11280,-50.69
11292,-54.48
11304,-59.13
11316,-64.33
11327,-69.2
11338,-72.49
11350,-72.83
11362,-69.21
11374,-61.25
11386,-49.44
11398,-34.91
11410,-19.17
11422,-3.65
11434,10.57
11446,22.84
11458,32.89
11470,40.71
11482,46.39
11494,50.09
11506,52.07
11517,52.61
11528,52.02
11540,50.6
11552,48.57
11564,46.1
11576,43.36
11588,40.5
11600,37.69
11612,35.05
11624,32.68
11636,30.61
11648,28.84
11660,27.34
11672,26.04
11684,24.84
11696,23.61
11707,22.16
11718,20.39
11730,18.21
11742,15.64
11754,12.75
11766,9.63
11778,6.33
11790,2.83
11802,-0.93
11814,-4.93
11826,-9.11
11838,-13.3
11850,-17.33
11862,-21.08
11874,-24.58
11886,-27.97
11897,-31.4
11908,-34.92
11920,-38.43
11932,-41.71
11944,-44.57
11956,-46.95
11968,-48.99
11980,-51.1
11992,-53.75
12004,-57.39
12016,-62.19
12028,-67.86
12040,-73.54
12052,-77.94
12064,-79.61
12076,-77.39
12087,-70.77
12098,-60.07
12110,-46.42
12122,-31.36
12134,-16.46
12146,-2.95
12158,8.49
12170,17.67
12182,24.74
12194,29.95
12206,33.57
12218,35.8
12230,36.85
12242,36.94
12254,36.34
12266,35.29
12277,33.96
12288,32.45
12300,30.76
12312,28.9
12324,26.94
12336,25.05
12348,23.47
12360,22.44
12372,22.05
12384,22.14
12396,22.35
12408,22.18
12420,21.23
12432,19.26
12444,16.37
12456,12.86
12467,9.11
12478,5.49
12490,2.18
12502,-0.84
12514,-3.76
12526,-6.81
12538,-10.27
12550,-14.28
12562,-18.86
12574,-23.82
12586,-28.82
12598,-33.45
12610,-37.44
12622,-40.78
12634,-43.74
12646,-46.78
12657,-50.44
12668,-54.99
12680,-60.36
12692,-65.96
12704,-70.75
12716,-73.41
12728,-72.69
12740,-67.76
12752,-58.48
12764,-45.52
12776,-30.16
12788,-14.03
12800,1.3
12812,14.65
12824,25.41
12836,33.52
12847,39.31
12858,43.25
12870,45.83
12882,47.41
12894,48.23
12906,48.51
12918,48.43
12930,48.2
12942,47.96
12954,47.76
12966,47.54
12978,47.21
12990,46.79
13002,46.41
13014,46.27
13026,46.54
13037,47.17
13048,47.84
13060,48.08
13072,47.42
13084,45.53
13096,42.36
13108,38.12
13120,33.18
13132,27.96
13144,22.89
13156,18.24
13168,14.08
13180,10.32
13192,6.65
13204,2.76
13216,-1.6
13227,-6.46
13238,-11.64
13250,-16.79
13262,-21.53
13274,-25.62
13286,-29.03
13298,-31.98
13310,-34.92
13322,-38.43
13334,-43.01
13346,-48.9
13358,-55.86
13370,-63.04
13382,-69.14
13394,-72.66
13406,-72.34
13417,-67.54
13428,-58.43
13440,-45.97
13452,-31.63
13464,-17.07
13476,-3.72
13488,7.51
13500,16.28
13512,22.76
13524,27.5
13536,31.05
13548,33.86
13560,36.17
13572,37.97
13584,39.2
13596,39.76
13607,39.59
13618,38.73
13630,37.25
13642,35.31
13654,33.15
13666,31.08
13678,29.39
13690,28.24
13702,27.62
13714,27.31
13726,26.97
13738,26.34
13750,25.26
13762,23.79
13774,22.05
13786,20.13
13797,18.05
13808,15.73
13820,13.09
13832,10.13
13844,6.95
13856,3.68
13868,0.45
13880,-2.73
13892,-5.96
13904,-9.35
13916,-12.99
13928,-16.86
13940,-20.83
13952,-24.75
13964,-28.51
13976,-32.05
13987,-35.46
13998,-38.84
14010,-42.33
14022,-46.08
14034,-50.26
14046,-55.04
14058,-60.42
14070,-66.13
14082,-71.41
14094,-75.08
14106,-75.81
14118,-72.52
14130,-64.85
14142,-53.35
14154,-39.39
14166,-24.64
14177,-10.67
14188,1.5
14200,11.5
14212,19.42
14224,25.63
14236,30.47
14248,34.18
14260,36.84
14272,38.51
14284,39.24
14296,39.19
14308,38.63
14320,37.82
14332,36.97
14344,36.12
14356,35.24
14367,34.25
14378,33.23
14390,32.37
14402,31.91
14414,31.99
14426,32.42
14438,32.81
14450,32.62
14462,31.51
14474,29.45
14486,26.73
14498,23.8
14510,20.99
14522,18.39
14534,15.83
14546,13.07
14557,9.92
14568,6.38
14580,2.65
14592,-1.05
14604,-4.52
14616,-7.75
14628,-10.82
14640,-13.9
14652,-17.11
14664,-20.47
14676,-23.92
14688,-27.34
14700,-30.63
14712,-33.72
14724,-36.61
14736,-39.34
14747,-42.03
14758,-44.86
14770,-48.1
14782,-51.98
14794,-56.5
14806,-61.27
14818,-65.39
14830,-67.57
14842,-66.53
14854,-61.45
14866,-52.26
14878,-39.78
14890,-25.41
14902,-10.74
14914,2.86
14926,14.58
14937,24.08
14948,31.42
14960,36.83
14972,40.57
14984,42.87
14996,43.99
15008,44.2
15020,43.77
15032,42.93
15044,41.83
15056,40.55
15068,39.12
15080,37.5
15092,35.66
15104,33.65
15116,31.55
15127,29.51
15138,27.67
15150,26.09
15162,24.69
15174,23.24
15186,21.45
15198,19.03
15210,15.81
15222,11.85
15234,7.35
15246,2.67
15258,-1.86
15270,-6.0
15282,-9.66
15294,-12.92
15306,-15.94
15317,-18.89
15328,-21.82
15340,-24.68
15352,-27.32
15364,-29.61
15376,-31.44
15388,-32.76
15400,-33.58
15412,-33.96
15424,-34.05
15436,-34.08
15448,-34.43
15460,-35.43
15472,-37.17
15484,-39.23
15496,-40.71
15507,-40.33
15518,-36.93
15530,-29.91
15542,-19.5
15554,-6.77
15566,6.76
15578,19.56
15590,30.54
15602,39.22
15614,45.6
15626,49.99
15638,52.67
15650,53.9
15662,53.82
15674,52.61
15686,50.53
15697,47.87
15708,44.95
15720,42.0
15732,39.12
15744,36.31
15756,33.55
15768,30.85
15780,28.33
15792,26.16
15804,24.5
15816,23.41
15828,22.77
15840,22.3
15852,21.61
15864,20.4
15876,18.51
15887,16.01
15898,13.1
15910,10.01
15922,6.94
15934,3.91
15946,0.88
15958,-2.27
15970,-5.68
15982,-9.44
15994,-13.64
16006,-18.25
16018,-23.19
16030,-28.24
16042,-33.14
16054,-37.62
16066,-41.54
16077,-44.92
16088,-48.01
16100,-51.19
16112,-54.86
16124,-59.25
16136,-64.24
16148,-69.25
16160,-73.27
16172,-75.03
16184,-73.38
16196,-67.61
16208,-57.77
16220,-44.65
16232,-29.65
16244,-14.32
16256,-0.07
16267,12.15
16278,21.91
16290,29.19
16302,34.31
16314,37.67
16326,39.72
16338,40.83
16350,41.28
16362,41.25
16374,40.78
16386,39.88
16398,38.55
16410,36.84
16422,34.88
16434,32.85
16446,30.98
16457,29.42
16468,28.21
16480,27.27
16492,26.43
16504,25.46
16516,24.23
16528,22.68
16540,20.87
16552,18.88
16564,16.75
16576,14.43
16588,11.81
16600,8.85
16612,5.53
16624,1.95
16636,-1.75
16647,-5.47
16658,-9.21
16670,-13.02
16682,-16.98
16694,-21.06
16706,-25.14
16718,-29.02
16730,-32.49
16742,-35.42
16754,-37.81
16766,-39.75
16778,-41.37
16790,-42.82
16802,-44.26
16814,-45.9
16826,-47.95
16837,-50.45
16848,-53.12
16860,-55.21
16872,-55.59
16884,-53.04
16896,-46.66
16908,-36.31
16920,-22.66
16932,-7.12
16944,8.64
16956,23.14
16968,35.35
16980,44.9
16992,51.86
17004,56.57
17016,59.43
17027,60.77
17038,60.86
17050,59.97
17062,58.42
17074,56.47
17086,54.36
17098,52.16
17110,49.83
17122,47.31
17134,44.61
17146,41.87
17158,39.34
17170,37.28
17182,35.82
17194,34.91
17206,34.31
17217,33.67
17228,32.69
17240,31.16
17252,29.03
17264,26.35
17276,23.33
17288,20.12
17300,16.84
17312,13.55
17324,10.25
17336,6.91
17348,3.49
17360,-0.05
17372,-3.7
17384,-7.46
17396,-11.27
17407,-15.09
17418,-18.89
17430,-22.69
17442,-26.57
17454,-30.59
17466,-34.76
17478,-38.98
17490,-43.04
17502,-46.74
17514,-50.01
17526,-53.06
17538,-56.35
17550,-60.36
17562,-65.35
17574,-71.04
17586,-76.52
17597,-80.42
17608,-81.35
17620,-78.3
17632,-71.09
17644,-60.48
17656,-47.89
17668,-35.02
17680,-23.38
17692,-13.93
17704,-7.03
17716,-2.59
17728,-0.25
17740,0.31
17752,-0.64
17764,-2.93
17776,-6.39
17787,-10.81
17798,-15.88
17810,-21.31
17822,-26.87
17834,-32.39
17846,-37.74
17858,-42.76
17870,-47.15
17882,-50.56
17894,-52.63
17906,-53.2
17918,-52.39
17930,-50.5
17942,-47.85
17954,-44.59
17966,-40.59
17977,-35.52
17988,-29.05
18000,-20.99
18012,-11.43
18024,-0.65
18036,10.95
18048,22.9
18060,34.73
18072,45.91
18084,55.92
18096,64.37
18108,71.09
18120,76.13
18132,79.71
18144,81.98
18156,82.86
18167,82.09
18178,79.32
18190,74.34
18202,67.13
18214,57.89
18226,47.01
18238,35.1
18250,23.04
18262,12.1
18274,3.73
18286,-0.76
18298,-0.66
18310,3.8
18322,11.61
18334,21.31
18346,31.57
18357,41.57
18368,51.0
18380,59.89
18392,68.25
18404,75.97
18416,82.83
18428,88.64
18440,93.34
18452,96.97
18464,99.55
18476,101.01
18488,101.25
18500,100.15
18512,97.67
18524,93.83
18536,88.73
18547,82.5
18558,75.29
18570,67.29
18582,58.75
18594,49.97
18606,41.25
18618,32.86
18630,25.06
18642,18.03
18654,11.87
18666,6.57
18678,1.95
18690,-2.29
18702,-6.5
18714,-10.94
18726,-15.73
18737,-20.85
18748,-26.23
18760,-31.76
18772,-37.42
18784,-43.16
18796,-48.94
18808,-54.63
18820,-60.06
18832,-65.03
18844,-69.38
18856,-73.05
18868,-76.16
18880,-78.97
18892,-81.94
18904,-85.53
18916,-90.1
18927,-95.63
18938,-101.61
18950,-106.95
18962,-110.22
18974,-110.08
18986,-105.7
18998,-97.09
19010,-85.1
19022,-71.2
19034,-57.03
19046,-43.94
19058,-32.68
19070,-23.39
19082,-15.81
19094,-9.5
19106,-4.11
19117,0.52
19128,4.45
19140,7.7
19152,10.41
19164,12.76
19176,14.96
19188,17.15
19200,19.35
19212,21.54
19224,23.68
19236,25.82
19248,28.06
19260,30.51
19272,33.16
19284,35.84
19296,38.28
19307,40.16
19318,41.19
19330,41.19
19342,40.17
19354,38.22
19366,35.52
19378,32.32
19390,28.85
19402,25.3
19414,21.77
19426,18.29
19438,14.85
19450,11.43
19462,8.06
19474,4.72
19486,1.39
19497,-2.02
19508,-5.6
19520,-9.4
19532,-13.35
19544,-17.31
19556,-21.15
19568,-24.85
19580,-28.53
19592,-32.44
19604,-36.9
19616,-42.15
19628,-48.21
19640,-54.73
19652,-60.94
19664,-65.74
19676,-67.91
19687,-66.49
19698,-61.12
19710,-52.22
19722,-40.88
19734,-28.54
19746,-16.65
19758,-6.22
19770,2.25
19782,8.81
19794,13.77
19806,17.51
19818,20.32
19830,22.36
19842,23.69
19854,24.39
19866,24.57
19877,24.37
19888,23.9
19900,23.23
19912,22.36
19924,21.26
19936,19.97
19948,18.63
19960,17.41
19972,16.54
19984,16.12
19996,16.13
20008,16.42
20020,16.75
20032,16.84
20044,16.46
20056,15.53
20067,14.06
20078,12.24
20090,10.29
20102,8.39
20114,6.64
20126,4.97
20138,3.21
20150,1.11
20162,-1.46
20174,-4.56
20186,-8.04
20198,-11.67
20210,-15.18
20222,-18.4
20234,-21.34
20246,-24.22
20257,-27.39
20268,-31.24
20280,-36.07
20292,-41.92
20304,-48.44
20316,-54.87
20328,-60.03
20340,-62.61
20352,-61.47
20364,-56.09
20376,-46.74
20388,-34.49
20400,-20.87
20412,-7.41
20424,4.71
20436,14.87
20447,22.91
20458,28.95
20470,33.24
20482,35.98
20494,37.37
20506,37.58
20518,36.82
20530,35.32
20542,33.29
20554,30.95
20566,28.49
20578,26.04
20590,23.69
20602,21.5
20614,19.51
20626,17.82
20637,16.5
20648,15.61
20660,15.13
20672,14.88
20684,14.58
20696,13.94
20708,12.72
20720,10.87
20732,8.55
20744,6.05
20756,3.66
20768,1.55
20780,-0.38
20792,-2.39
20804,-4.84
20816,-7.97
20827,-11.76
20838,-15.95
20850,-20.14
20862,-23.93
20874,-27.15
20886,-29.84
20898,-32.27
20910,-34.88
20922,-38.12
20934,-42.25
20946,-47.26
20958,-52.63
20970,-57.39
20982,-60.25
20994,-59.99
