seconds,BVP
8,-4.28
20,-4.29
32,-5.05
44,-6.18
56,-7.15
68,-7.74
80,-8.19
92,-8.91
104,-10.08
116,-11.5
128,-12.64
140,-13.16
151,-13.09
162,-12.75
174,-12.34
186,-11.78
198,-10.65
210,-8.63
222,-5.85
234,-2.97
246,-0.74
258,0.47
270,0.87
282,1.06
294,1.55
306,2.3
318,2.88
330,2.85
341,2.25
352,1.63
364,1.71
376,2.76
388,4.36
400,5.73
412,6.28
424,5.98
436,5.38
448,5.07
460,5.18
472,5.36
484,5.11
496,4.28
508,3.27
520,2.76
531,3.12
542,4.05
554,4.85
566,4.87
578,4.01
590,2.76
602,1.81
614,1.53
626,1.69
638,1.85
650,1.69
662,1.29
674,1.06
686,1.27
698,1.71
710,1.94
721,1.53
732,0.54
744,-0.51
756,-0.94
768,-0.49
780,0.5
792,1.35
804,1.5
816,0.89
828,-0.04
840,-0.8
852,-1.22
864,-1.64
876,-2.45
888,-3.79
900,-5.29
911,-6.29
922,-6.35
934,-5.7
946,-4.96
958,-4.83
970,-5.61
982,-7.06
994,-8.73
1006,-10.33
1018,-11.9
1030,-13.47
1042,-14.84
1054,-15.41
1066,-14.51
1078,-11.93
1090,-8.19
1101,-4.32
1112,-1.24
1124,0.69
1136,1.76
1148,2.49
1160,3.15
1172,3.57
1184,3.5
1196,2.99
1208,2.55
1220,2.84
1232,4.16
1244,6.04
1256,7.59
1268,8.09
1280,7.48
1291,6.46
1302,5.95
1314,6.46
1326,7.75
1338,9.1
1350,9.9
1362,10.03
1374,9.91
1386,10.0
1398,10.35
1410,10.58
1422,10.22
1434,9.16
1446,7.88
1458,7.13
1470,7.38
1481,8.42
1492,9.56
1504,10.08
1516,9.66
1528,8.55
1540,7.27
1552,6.09
1564,4.96
1576,3.73
1588,2.41
1600,1.36
1612,1.12
1624,1.83
1636,3.05
1648,4.01
1660,4.05
1671,3.07
1682,1.54
1694,0.12
1706,-0.9
1718,-1.7
1730,-2.62
1742,-3.79
1754,-4.94
1766,-5.64
1778,-5.77
1790,-5.73
1802,-6.25
1814,-7.79
1826,-10.18
1838,-12.63
1850,-14.23
1861,-14.54
1872,-13.79
1884,-12.59
1896,-11.4
1908,-10.23
1920,-8.75
1932,-6.73
1944,-4.39
1956,-2.33
1968,-1.14
1980,-0.93
1992,-1.2
2004,-1.2
2016,-0.44
2028,0.93
2040,2.34
2051,3.26
2062,3.53
2074,3.47
2086,3.52
2098,3.82
2110,4.07
2122,3.96
2134,3.44
2146,2.92
2158,3.03
2170,4.03
2182,5.58
2194,6.92
2206,7.44
2218,7.09
2230,6.42
2241,6.11
2252,6.4
2264,6.91
2276,7.07
2288,6.53
2300,5.57
2312,4.85
2324,4.85
2336,5.43
2348,5.95
2360,5.76
2372,4.71
2384,3.33
2396,2.42
2408,2.45
2420,3.23
2431,4.11
2442,4.46
2454,4.1
2466,3.34
2478,2.64
2490,2.14
2502,1.64
2514,0.83
2526,-0.35
2538,-1.57
2550,-2.28
2562,-2.23
2574,-1.66
2586,-1.2
2598,-1.35
2610,-2.25
2621,-3.53
2632,-4.67
2644,-5.51
2656,-6.32
2668,-7.46
2680,-9.08
2692,-10.86
2704,-12.25
2716,-12.96
2728,-13.28
2740,-13.76
2752,-14.81
2764,-16.17
2776,-17.02
2788,-16.5
2800,-14.39
2811,-11.26
2822,-8.08
2834,-5.55
2846,-3.69
2858,-2.03
2870,-0.18
2882,1.67
2894,2.88
2906,2.88
2918,1.74
2930,0.25
2942,-0.54
2954,-0.04
2966,1.49
2978,3.26
2990,4.52
3001,5.07
3012,5.29
3024,5.66
3036,6.27
3048,6.75
3060,6.65
3072,5.87
3084,4.87
3096,4.4
3108,4.89
3120,6.12
3132,7.33
3144,7.74
3156,6.92
3168,5.05
3180,2.58
3191,-0.09
3202,-2.86
3214,-5.68
3226,-8.38
3238,-10.49
3250,-11.49
3262,-11.19
3274,-9.92
3286,-8.28
3298,-6.74
3310,-5.32
3322,-3.64
3334,-1.32
3346,1.58
3358,4.47
3370,6.7
3381,7.96
3392,8.53
3404,8.96
3416,9.55
3428,10.0
3440,9.63
3452,8.01
3464,5.32
3476,2.44
3488,0.35
3500,-0.5
3512,-0.47
3524,-0.34
3536,-0.74
3548,-1.72
3560,-2.8
3571,-3.5
3582,-3.82
3594,-4.18
3606,-5.05
3618,-6.52
3630,-8.1
3642,-9.11
3654,-9.21
3666,-8.68
3678,-8.18
3690,-8.19
3702,-8.68
3714,-9.07
3726,-8.76
3738,-7.55
3750,-5.84
3761,-4.2
3772,-2.98
3784,-1.97
3796,-0.73
3808,0.99
3820,2.81
3832,4.01
3844,4.01
3856,2.85
3868,1.2
3880,-0.04
3892,-0.41
3904,-0.14
3916,0.23
3928,0.33
3940,0.31
3951,0.7
3962,1.85
3974,3.49
3986,4.87
3998,5.31
4010,4.74
4022,3.85
4034,3.6
4046,4.56
4058,6.49
4070,8.56
4082,9.97
4094,10.38
4106,10.07
4118,9.52
4130,8.96
4141,8.28
4152,7.29
4164,6.03
4176,4.9
4188,4.47
4200,5.0
4212,6.18
4224,7.42
4236,8.17
4248,8.27
4260,7.94
4272,7.48
4284,6.93
4296,6.04
4308,4.63
4320,2.84
4331,1.24
4342,0.48
4354,0.77
4366,1.64
4378,2.18
4390,1.67
4402,0.06
4414,-1.98
4426,-3.53
4438,-4.14
4450,-4.09
4462,-4.1
4474,-4.74
4486,-6.03
4498,-7.44
4510,-8.47
4521,-9.11
4532,-9.89
4544,-11.41
4556,-13.76
4568,-16.29
4580,-17.88
4592,-17.71
4604,-15.72
4616,-12.57
4628,-9.17
4640,-6.18
4652,-3.78
4664,-1.9
4676,-0.56
4688,0.04
4700,-0.19
4711,-1.01
4722,-1.74
4734,-1.65
4746,-0.39
4758,1.67
4770,3.76
4782,5.22
4794,5.85
4806,5.99
4818,6.15
4830,6.55
4842,6.96
4854,7.07
4866,6.8
4878,6.49
4890,6.67
4901,7.58
4912,8.87
4924,9.8
4936,9.83
4948,8.95
4960,7.77
4972,7.09
4984,7.28
4996,8.0
5008,8.59
5020,8.55
5032,7.9
5044,7.19
5056,6.92
5068,7.1
5080,7.21
5091,6.7
5102,5.44
5114,3.96
5126,3.12
5138,3.43
5150,4.66
5162,6.03
5174,6.77
5186,6.52
5198,5.57
5210,4.44
5222,3.4
5234,2.34
5246,1.04
5258,-0.5
5270,-1.87
5281,-2.54
5292,-2.26
5304,-1.4
5316,-0.63
5328,-0.54
5340,-1.28
5352,-2.48
5364,-3.63
5376,-4.53
5388,-5.35
5400,-6.35
5412,-7.55
5424,-8.66
5436,-9.26
5448,-9.35
5460,-9.46
5471,-10.34
5482,-12.37
5494,-15.15
5506,-17.59
5518,-18.51
5530,-17.4
5542,-14.73
5554,-11.49
5566,-8.61
5578,-6.41
5590,-4.62
5602,-2.84
5614,-1.16
5626,-0.09
5638,-0.16
5650,-1.38
5661,-3.0
5672,-3.89
5684,-3.3
5696,-1.38
5708,1.02
5720,2.92
5732,3.85
5744,4.06
5756,4.12
5768,4.41
5780,4.81
5792,4.98
5804,4.72
5816,4.33
5828,4.35
5840,5.19
5851,6.66
5862,8.18
5874,9.15
5886,9.33
5898,8.96
5910,8.47
5922,8.08
5934,7.64
5946,6.93
5958,5.99
5970,5.17
5982,4.93
5994,5.43
6006,6.2
6018,6.51
6030,5.77
6041,4.04
6052,2.01
6064,0.58
6076,0.21
6088,0.7
6100,1.36
6112,1.61
6124,1.3
6136,0.75
6148,0.3
6160,-0.04
6172,-0.66
6184,-1.95
6196,-3.9
6208,-5.99
6220,-7.39
6231,-7.7
6242,-7.19
6254,-6.67
6266,-6.91
6278,-8.22
6290,-10.2
6302,-12.16
6314,-13.59
6326,-14.36
6338,-14.52
6350,-14.05
6362,-12.7
6374,-10.19
6386,-6.67
6398,-2.87
6410,0.24
6421,1.99
6432,2.37
6444,2.03
6456,1.79
6468,2.04
6480,2.59
6492,3.04
6504,3.2
6516,3.3
6528,3.83
6540,5.0
6552,6.46
6564,7.54
6576,7.72
6588,7.05
6600,6.21
6611,6.04
6622,6.87
6634,8.33
6646,9.6
6658,9.96
6670,9.31
6682,8.11
6694,7.02
6706,6.34
6718,5.9
6730,5.27
6742,4.24
6754,3.06
6766,2.3
6778,2.38
6790,3.19
6801,4.21
6812,4.81
6824,4.67
6836,3.96
6848,3.12
6860,2.38
6872,1.65
6884,0.74
6896,-0.38
6908,-1.36
6920,-1.72
6932,-1.31
6944,-0.51
6956,-0.06
6968,-0.53
6980,-1.89
6991,-3.58
7002,-4.93
7014,-5.68
7026,-6.2
7038,-7.0
7050,-8.29
7062,-9.71
7074,-10.61
7086,-10.67
7098,-10.26
7110,-10.28
7122,-11.48
7134,-13.91
7146,-16.72
7158,-18.66
7170,-18.86
7181,-17.33
7192,-14.71
7204,-11.78
7216,-8.99
7228,-6.36
7240,-3.81
7252,-1.51
7264,0.02
7276,0.39
7288,-0.33
7300,-1.43
7312,-1.92
7324,-1.11
7336,0.88
7348,3.29
7360,5.27
7371,6.32
7382,6.61
7394,6.61
7406,6.64
7418,6.61
7430,6.29
7442,5.63
7454,4.98
7466,4.97
7478,5.93
7490,7.56
7502,9.07
7514,9.73
7526,9.28
7538,8.14
7550,7.05
7561,6.44
7572,6.23
7584,6.05
7596,5.63
7608,5.13
7620,4.95
7632,5.31
7644,5.9
7656,6.1
7668,5.42
7680,3.98
7692,2.55
7704,2.05
7716,2.86
7728,4.57
7740,6.26
7751,7.15
7762,7.08
7774,6.49
7786,6.02
7798,5.94
7810,6.04
7822,5.88
7834,5.32
7846,4.67
7858,4.47
7870,5.0
7882,5.9
7894,6.44
7906,5.98
7918,4.48
7930,2.58
7941,1.16
7952,0.7
7964,0.94
7976,1.19
7988,0.87
8000,-0.1
8012,-1.26
8024,-2.15
8036,-2.73
8048,-3.46
8060,-4.81
8072,-6.84
8084,-8.96
8096,-10.27
8108,-10.29
8120,-9.29
8131,-8.14
8142,-7.69
8154,-8.31
8166,-9.77
8178,-11.54
8190,-13.33
8202,-15.14
8214,-16.98
8226,-18.55
8238,-19.15
8250,-18.06
8262,-15.21
8274,-11.37
8286,-7.77
8298,-5.44
8310,-4.62
8321,-4.67
8332,-4.59
8344,-3.8
8356,-2.45
8368,-1.13
8380,-0.35
8392,-0.08
8404,0.18
8416,0.9
8428,2.07
8440,3.14
8452,3.55
8464,3.16
8476,2.49
8488,2.41
8500,3.44
8511,5.36
8522,7.44
8534,8.9
8546,9.47
8558,9.46
8570,9.39
8582,9.44
8594,9.32
8606,8.67
8618,7.4
8630,6.0
8642,5.23
8654,5.49
8666,6.47
8678,7.39
8690,7.51
8701,6.7
8712,5.47
8724,4.54
8736,4.28
8748,4.46
8760,4.63
8772,4.53
8784,4.29
8796,4.33
8808,4.79
8820,5.31
8832,5.21
8844,4.08
8856,2.11
8868,0.13
8880,-0.9
8891,-0.58
8902,0.68
8914,1.97
8926,2.48
8938,1.93
8950,0.71
8962,-0.65
8974,-1.84
8986,-2.99
8998,-4.36
9010,-6.0
9022,-7.55
9034,-8.43
9046,-8.31
9058,-7.47
9070,-6.59
9081,-6.29
9092,-6.82
9104,-7.87
9116,-8.94
9128,-9.8
9140,-10.68
9152,-11.96
9164,-13.76
9176,-15.75
9188,-17.22
9200,-17.69
9212,-17.26
9224,-16.43
9236,-15.68
9248,-15.03
9260,-13.94
9271,-11.8
9282,-8.48
9294,-4.63
9306,-1.29
9318,0.76
9330,1.41
9342,1.25
9354,1.03
9366,1.11
9378,1.34
9390,1.36
9402,1.03
9414,0.67
9426,0.85
9438,1.89
9450,3.6
9461,5.41
9472,6.75
9484,7.37
9496,7.43
9508,7.27
9520,7.05
9532,6.71
9544,6.17
9556,5.51
9568,5.08
9580,5.25
9592,6.0
9604,6.86
9616,7.15
9628,6.51
9640,5.16
9651,3.8
9662,3.15
9674,3.34
9686,3.9
9698,4.13
9710,3.66
9722,2.77
9734,2.15
9746,2.33
9758,3.12
9770,3.83
9782,3.76
9794,2.79
9806,1.57
9818,1.04
9830,1.72
9841,3.32
9852,4.93
9864,5.71
9876,5.43
9888,4.51
9900,3.61
9912,3.03
9924,2.56
9936,1.82
9948,0.68
9960,-0.48
9972,-1.06
9984,-0.74
9996,0.16
10008,0.88
10020,0.8
10031,-0.2
10042,-1.62
10054,-2.75
10066,-3.26
10078,-3.4
10090,-3.63
10102,-4.26
10114,-5.09
10126,-5.57
10138,-5.39
10150,-4.85
10162,-4.75
10174,-5.83
10186,-8.18
10198,-11.01
10210,-13.05
10221,-13.33
10232,-11.69
10244,-8.8
10256,-5.58
10268,-2.71
10280,-0.32
10292,1.72
10304,3.41
10316,4.49
10328,4.62
10340,3.76
10352,2.4
10364,1.35
10376,1.2
10388,1.99
10400,3.27
10411,4.48
10422,5.3
10434,5.79
10446,6.16
10458,6.43
10470,6.38
10482,5.88
10494,5.06
10506,4.47
10518,4.67
10530,5.76
10542,7.24
10554,8.31
10566,8.45
10578,7.73
10590,6.78
10601,6.25
10612,6.34
10624,6.67
10636,6.71
10648,6.19
10660,5.42
10672,4.97
10684,5.19
10696,5.82
10708,6.14
10720,5.51
10732,3.91
10744,2.06
10756,0.98
10768,1.22
10780,2.49
10791,3.89
10802,4.56
10814,4.17
10826,3.12
10838,2.05
10850,1.31
10862,0.74
10874,-0.05
10886,-1.22
10898,-2.44
10910,-3.07
10922,-2.74
10934,-1.73
10946,-0.86
10958,-0.89
10970,-2.07
10981,-3.99
10992,-5.97
11004,-7.57
11016,-8.9
11028,-10.31
11040,-11.94
11052,-13.55
11064,-14.66
11076,-15.04
11088,-15.0
11100,-15.16
11112,-15.95
11124,-17.16
11136,-18.0
11148,-17.55
11160,-15.47
11171,-12.23
11182,-8.77
11194,-5.9
11206,-3.9
11218,-2.44
11230,-1.16
11242,-0.0
11254,0.7
11266,0.62
11278,-0.22
11290,-1.19
11302,-1.46
11314,-0.48
11326,1.61
11338,4.12
11350,6.35
11361,7.91
11372,8.89
11384,9.59
11396,10.09
11408,10.24
11420,9.95
11432,9.37
11444,9.08
11456,9.69
11468,11.38
11480,13.59
11492,15.36
11504,15.86
11516,14.89
11528,12.98
11540,10.89
11551,9.1
11562,7.59
11574,6.08
11586,4.46
11598,3.03
11610,2.27
11622,2.38
11634,2.97
11646,3.31
11658,2.85
11670,1.58
11682,0.06
11694,-1.0
11706,-1.35
11718,-1.29
11730,-1.37
11741,-1.87
11752,-2.59
11764,-3.0
11776,-2.77
11788,-2.17
11800,-1.88
11812,-2.52
11824,-4.14
11836,-6.1
11848,-7.51
11860,-7.86
11872,-7.36
11884,-6.75
11896,-6.71
11908,-7.48
11920,-8.77
11931,-10.16
11942,-11.5
11954,-13.01
11966,-14.92
11978,-17.09
11990,-18.82
12002,-19.18
12014,-17.61
12026,-14.35
12038,-10.26
12050,-6.39
12062,-3.39
12074,-1.33
12086,0.04
12098,0.88
12110,1.12
12121,0.67
12132,-0.24
12144,-0.92
12156,-0.62
12168,0.94
12180,3.23
12192,5.23
12204,6.08
12216,5.61
12228,4.49
12240,3.69
12252,3.83
12264,4.78
12276,5.92
12288,6.69
12300,7.0
12311,7.23
12322,7.75
12334,8.5
12346,8.97
12358,8.64
12370,7.37
12382,5.67
12394,4.39
12406,4.1
12418,4.7
12430,5.57
12442,6.02
12454,5.74
12466,4.98
12478,4.24
12490,3.8
12501,3.56
12512,3.24
12524,2.76
12536,2.41
12548,2.67
12560,3.74
12572,5.2
12584,6.22
12596,6.14
12608,4.9
12620,3.2
12632,2.01
12644,1.84
12656,2.45
12668,3.09
12680,3.1
12691,2.34
12702,1.21
12714,0.15
12726,-0.78
12738,-1.94
12750,-3.64
12762,-5.78
12774,-7.7
12786,-8.59
12798,-8.16
12810,-6.91
12822,-5.89
12834,-6.02
12846,-7.58
12858,-10.1
12870,-12.73
12881,-14.79
12892,-16.0
12904,-16.3
12916,-15.63
12928,-13.8
12940,-10.7
12952,-6.7
12964,-2.67
12976,0.33
12988,1.61
13000,1.3
13012,0.3
13024,-0.26
13036,0.26
13048,1.7
13060,3.38
13071,4.62
13082,5.21
13094,5.42
13106,5.64
13118,5.92
13130,5.96
13142,5.42
13154,4.31
13166,3.2
13178,2.92
13190,3.91
13202,5.92
13214,8.1
13226,9.59
13238,9.99
13250,9.5
13261,8.68
13272,7.92
13284,7.21
13296,6.4
13308,5.51
13320,4.89
13332,4.99
13344,5.95
13356,7.28
13368,8.16
13380,7.96
13392,6.72
13404,5.12
13416,4.11
13428,4.21
13440,5.15
13451,6.24
13462,6.79
13474,6.65
13486,6.14
13498,5.72
13510,5.49
13522,5.19
13534,4.38
13546,2.94
13558,1.25
13570,-0.08
13582,-0.67
13594,-0.71
13606,-0.81
13618,-1.54
13630,-3.05
13641,-4.98
13652,-6.81
13664,-8.29
13676,-9.66
13688,-11.29
13700,-13.37
13712,-15.61
13724,-17.5
13736,-18.73
13748,-19.52
13760,-20.42
13772,-21.75
13784,-23.2
13796,-23.83
13808,-22.66
13820,-19.37
13831,-14.63
13842,-9.69
13854,-5.67
13866,-2.97
13878,-1.27
13890,0.01
13902,1.11
13914,1.86
13926,1.91
13938,1.28
13950,0.51
13962,0.4
13974,1.45
13986,3.5
13998,5.83
14010,7.66
14021,8.54
14032,8.62
14044,8.33
14056,8.0
14068,7.68
14080,7.24
14092,6.7
14104,6.36
14116,6.57
14128,7.47
14140,8.68
14152,9.5
14164,9.43
14176,8.46
14188,7.18
14200,6.36
14211,6.42
14222,7.07
14234,7.68
14246,7.74
14258,7.18
14270,6.44
14282,5.96
14294,5.74
14306,5.33
14318,4.23
14330,2.34
14342,0.18
14354,-1.38
14366,-1.81
14378,-1.22
14390,-0.28
14401,0.32
14412,0.23
14424,-0.43
14436,-1.33
14448,-2.38
14460,-3.74
14472,-5.57
14484,-7.72
14496,-9.73
14508,-11.01
14520,-11.41
14532,-11.35
14544,-11.54
14556,-12.42
14568,-13.94
14580,-15.51
14591,-16.45
14602,-16.55
14614,-16.04
14626,-15.28
14638,-14.43
14650,-13.24
14662,-11.36
14674,-8.78
14686,-6.09
14698,-4.16
14710,-3.56
14722,-4.26
14734,-5.51
14746,-6.44
14758,-6.6
14770,-6.23
14781,-5.93
14792,-6.09
14804,-6.57
14816,-6.79
14828,-6.25
14840,-4.97
14852,-3.45
14864,-2.2
14876,-1.38
14888,-0.53
14900,1.01
14912,3.55
14924,6.72
14936,9.72
14948,11.89
14960,13.09
14971,13.73
14982,14.34
14994,15.11
15006,15.82
15018,16.17
15030,16.1
15042,16.01
15054,16.48
15066,17.74
15078,19.45
15090,20.88
15102,21.42
15114,20.91
15126,19.66
15138,18.12
15150,16.47
15161,14.55
15172,12.19
15184,9.48
15196,6.8
15208,4.64
15220,3.0
15232,1.31
15244,-1.26
15256,-5.19
15268,-10.19
15280,-15.24
15292,-19.09
15304,-21.05
15316,-21.24
15328,-20.35
15340,-19.09
15351,-17.73
15362,-16.11
15374,-14.07
15386,-11.82
15398,-9.98
15410,-9.08
15422,-9.16
15434,-9.55
15446,-9.2
15458,-7.46
15470,-4.44
15482,-0.89
15494,2.33
15506,4.76
15518,6.58
15530,8.22
15541,9.91
15552,11.5
15564,12.73
15576,13.57
15588,14.42
15600,15.88
15612,18.23
15624,21.13
15636,23.71
15648,25.19
15660,25.24
15672,24.19
15684,22.68
15696,21.17
15708,19.69
15720,18.02
15731,16.05
15742,13.94
15754,12.08
15766,10.64
15778,9.36
15790,7.72
15802,5.39
15814,2.54
15826,-0.15
15838,-1.89
15850,-2.44
15862,-2.22
15874,-2.01
15886,-2.4
15898,-3.42
15910,-4.58
15921,-5.4
15932,-5.87
15944,-6.47
15956,-7.74
15968,-9.78
15980,-12.07
15992,-13.69
16004,-14.1
16016,-13.5
16028,-12.62
16040,-12.3
16052,-12.87
16064,-14.1
16076,-15.55
16088,-17.02
16100,-18.67
16111,-20.67
16122,-22.75
16134,-24.1
16146,-23.75
16158,-21.27
16170,-17.16
16182,-12.62
16194,-8.85
16206,-6.41
16218,-5.08
16230,-4.15
16242,-3.18
16254,-2.22
16266,-1.57
16278,-1.34
16290,-1.21
16301,-0.54
16312,1.01
16324,3.12
16336,5.0
16348,5.91
16360,5.7
16372,5.0
16384,4.75
16396,5.54
16408,7.19
16420,8.92
16432,9.95
16444,10.02
16456,9.46
16468,8.86
16480,8.55
16491,8.42
16502,8.18
16514,7.73
16526,7.35
16538,7.55
16550,8.58
16562,10.14
16574,11.55
16586,12.24
16598,12.04
16610,11.37
16622,10.73
16634,10.3
16646,9.86
16658,9.07
16670,7.87
16681,6.69
16692,6.14
16704,6.5
16716,7.41
16728,8.12
16740,8.0
16752,6.95
16764,5.4
16776,3.87
16788,2.53
16800,1.09
16812,-0.75
16824,-3.01
16836,-5.21
16848,-6.69
16860,-7.16
16871,-6.99
16882,-6.89
16894,-7.49
16906,-8.84
16918,-10.53
16930,-12.03
16942,-13.18
16954,-14.23
16966,-15.46
16978,-16.74
16990,-17.45
17002,-16.78
17014,-14.36
17026,-10.66
17038,-6.72
17050,-3.58
17061,-1.68
17072,-0.7
17084,0.06
17096,1.1
17108,2.32
17120,3.24
17132,3.55
17144,3.35
17156,3.25
17168,3.83
17180,5.13
17192,6.64
17204,7.69
17216,7.96
17228,7.77
17240,7.85
17251,8.72
17262,10.3
17274,12.02
17286,13.21
17298,13.57
17310,13.36
17322,12.96
17334,12.54
17346,11.88
17358,10.69
17370,8.97
17382,7.16
17394,5.9
17406,5.55
17418,5.87
17430,6.25
17441,6.16
17452,5.45
17464,4.44
17476,3.57
17488,2.96
17500,2.38
17512,1.57
17524,0.53
17536,-0.41
17548,-0.78
17560,-0.55
17572,-0.16
17584,-0.28
17596,-1.25
17608,-2.86
17620,-4.44
17631,-5.4
17642,-5.73
17654,-6.01
17666,-6.88
17678,-8.55
17690,-10.56
17702,-12.13
17714,-12.77
17726,-12.74
17738,-12.85
17750,-13.82
17762,-15.75
17774,-18.0
17786,-19.64
17798,-20.17
17810,-19.81
17821,-19.24
17832,-18.93
17844,-18.77
17856,-18.09
17868,-16.26
17880,-13.29
17892,-9.9
17904,-6.99
17916,-5.08
17928,-3.95
17940,-2.9
17952,-1.35
17964,0.68
17976,2.69
17988,4.16
18000,4.92
18011,5.31
18022,5.8
18034,6.52
18046,7.19
18058,7.43
18070,7.16
18082,6.77
18094,6.89
18106,7.84
18118,9.33
18130,10.67
18142,11.19
18154,10.73
18166,9.65
18178,8.56
18190,7.8
18201,7.23
18212,6.55
18224,5.57
18236,4.49
18248,3.72
18260,3.45
18272,3.39
18284,2.97
18296,1.84
18308,0.12
18320,-1.5
18332,-2.28
18344,-1.97
18356,-0.97
18368,0.02
18380,0.53
18391,0.65
18402,0.89
18414,1.58
18426,2.49
18438,2.93
18450,2.33
18462,0.75
18474,-1.0
18486,-1.89
18498,-1.41
18510,0.07
18522,1.55
18534,2.14
18546,1.59
18558,0.33
18570,-0.96
18581,-1.98
18592,-2.93
18604,-4.19
18616,-5.84
18628,-7.46
18640,-8.41
18652,-8.36
18664,-7.63
18676,-6.97
18688,-7.11
18700,-8.28
18712,-10.11
18724,-11.97
18736,-13.4
18748,-14.26
18760,-14.54
18771,-14.11
18782,-12.64
18794,-9.86
18806,-5.97
18818,-1.83
18830,1.45
18842,3.07
18854,3.04
18866,2.14
18878,1.44
18890,1.59
18902,2.52
18914,3.74
18926,4.81
18938,5.7
18950,6.74
18961,8.16
18972,9.68
18984,10.68
18996,10.63
19008,9.6
19020,8.35
19032,7.88
19044,8.76
19056,10.7
19068,12.86
19080,14.36
19092,14.79
19104,14.36
19116,13.46
19128,12.26
19140,10.68
19151,8.6
19162,6.25
19174,4.28
19186,3.45
19198,4.06
19210,5.69
19222,7.44
19234,8.46
19246,8.37
19258,7.43
19270,6.16
19282,4.91
19294,3.69
19306,2.42
19318,1.15
19330,0.23
19341,0.11
19352,0.86
19364,2.03
19376,2.82
19388,2.61
19400,1.39
19412,-0.27
19424,-1.56
19436,-2.06
19448,-2.02
19460,-2.04
19472,-2.6
19484,-3.72
19496,-4.96
19508,-5.87
19520,-6.45
19531,-7.13
19542,-8.36
19554,-10.18
19566,-12.06
19578,-13.23
19590,-13.37
19602,-12.86
19614,-12.51
19626,-12.98
19638,-14.24
19650,-15.57
19662,-16.06
19674,-15.22
19686,-13.24
19698,-10.69
19710,-8.09
19721,-5.51
19732,-2.8
19744,0.07
19756,2.75
19768,4.66
19780,5.5
19792,5.46
19804,5.19
19816,5.38
19828,6.18
19840,7.17
19852,7.73
19864,7.57
19876,6.93
19888,6.46
19900,6.65
19911,7.45
19922,8.32
19934,8.69
19946,8.4
19958,7.84
19970,7.73
19982,8.48
19994,9.89
20006,11.33
20018,12.14
20030,12.0
20042,11.12
20054,9.9
20066,8.59
20078,7.16
20090,5.51
20101,3.77
20112,2.35
20124,1.8
20136,2.3
20148,3.44
20160,4.43
20172,4.62
20184,3.82
20196,2.46
20208,1.13
20220,0.12
20232,-0.75
20244,-1.85
20256,-3.26
20268,-4.65
20280,-5.44
20291,-5.39
20302,-4.89
20314,-4.71
20326,-5.48
20338,-7.2
20350,-9.19
20362,-10.6
20374,-11.04
20386,-10.9
20398,-10.99
20410,-11.91
20422,-13.63
20434,-15.46
20446,-16.57
20458,-16.55
20470,-15.55
20481,-14.01
20492,-12.27
20504,-10.26
20516,-7.7
20528,-4.53
20540,-1.14
20552,1.75
20564,3.53
20576,4.09
20588,3.85
20600,3.43
20612,3.25
20624,3.23
20636,3.16
20648,2.91
20660,2.74
20671,3.11
20682,4.25
20694,5.88
20706,7.37
20718,8.2
20730,8.26
20742,7.99
20754,7.98
20766,8.45
20778,9.1
20790,9.46
20802,9.26
20814,8.74
20826,8.43
20838,8.63
20850,9.09
20861,9.17
20872,8.36
20884,6.75
20896,5.0
20908,3.94
20920,3.91
20932,4.5
20944,4.93
20956,4.7
20968,3.87
20980,2.98
20992,2.49
