seconds,BVP
4,-10.75
16,-15.59
28,-19.07
40,-21.22
52,-22.18
64,-22.02
76,-20.85
88,-18.78
100,-16.08
112,-13.16
124,-10.42
135,-8.12
146,-6.32
158,-4.85
170,-3.44
182,-1.9
194,-0.13
206,1.8
218,3.74
230,5.56
242,7.17
254,8.56
266,9.71
278,10.54
290,10.94
302,10.69
314,9.58
325,7.51
336,4.63
348,1.24
360,-2.26
372,-5.52
384,-8.34
396,-10.73
408,-12.93
420,-15.4
432,-18.58
444,-22.7
456,-27.64
468,-32.86
480,-37.43
492,-40.33
504,-40.68
515,-38.27
526,-33.85
538,-28.76
550,-24.53
562,-22.36
574,-22.32
586,-22.94
598,-21.59
610,-15.29
622,-2.76
634,14.37
646,32.32
658,46.52
670,53.54
682,52.77
694,46.47
705,38.37
716,32.25
728,29.93
740,31.08
752,35.41
764,43.04
776,53.72
788,65.98
800,76.82
812,82.83
824,82.99
836,79.06
848,74.6
860,74.86
872,83.21
884,98.45
895,115.33
906,127.39
918,130.18
930,124.14
942,112.28
954,97.02
966,80.6
978,63.71
990,45.44
1002,24.94
1014,2.91
1026,-24.21
1038,-53.1
1050,-71.63
1062,-78.4
1074,-77.95
1085,-74.74
1096,-72.97
1108,-75.39
1120,-82.69
1132,-93.76
1144,-105.69
1156,-116.59
1168,-127.07
1180,-137.56
1192,-148.17
1204,-158.88
1216,-169.14
1228,-177.89
1240,-183.98
1252,-185.92
1264,-183.48
1275,-178.27
1286,-171.21
1298,-162.42
1310,-151.73
1322,-138.8
1334,-123.4
1346,-105.74
1358,-86.2
1370,-66.09
1382,-47.73
1394,-32.73
1406,-21.65
1418,-14.25
1430,-9.56
1442,-6.15
1454,-2.6
1465,2.43
1476,9.56
1488,18.52
1500,28.91
1512,40.22
1524,51.84
1536,63.11
1548,73.43
1560,82.36
1572,89.75
1584,95.53
1596,99.52
1608,101.6
1620,101.53
1632,99.01
1644,93.87
1655,86.28
1666,76.86
1678,66.61
1690,56.71
1702,48.22
1714,41.84
1726,37.79
1738,35.84
1750,35.39
1762,35.76
1774,36.35
1786,36.76
1798,36.77
1810,36.28
1822,35.18
1834,33.27
1845,30.26
1856,25.87
1868,19.98
1880,12.77
1892,4.65
1904,-3.72
1916,-11.64
1928,-18.42
1940,-23.5
1952,-26.44
1964,-27.05
1976,-25.36
1988,-21.69
2000,-16.61
2012,-10.81
2024,-4.99
2035,0.28
2046,4.61
2058,7.88
2070,10.1
2082,11.42
2094,12.04
2106,12.16
2118,11.97
2130,11.59
2142,11.14
2154,10.64
2166,10.14
2178,9.64
2190,9.2
2202,8.89
2214,8.76
2225,8.84
2236,9.09
2248,9.38
2260,9.61
2272,9.65
2284,9.43
2296,8.93
2308,8.16
2320,7.06
2332,5.59
2344,3.68
2356,1.36
2368,-1.27
2380,-3.94
2392,-6.28
2404,-7.84
2415,-8.18
2426,-6.99
2438,-4.25
2450,-0.25
2462,4.46
2474,9.16
2486,13.21
2498,16.16
2510,17.84
2522,18.33
2534,17.8
2546,16.5
2558,14.68
2570,12.59
2582,10.54
2594,8.85
2605,7.8
2616,7.52
2628,7.98
2640,9.01
2652,10.28
2664,11.47
2676,12.28
2688,12.59
2700,12.4
2712,11.83
2724,11.0
2736,9.97
2748,8.67
2760,6.89
2772,4.46
2784,1.27
2795,-2.59
2806,-6.9
2818,-11.39
2830,-15.73
2842,-19.63
2854,-22.76
2866,-24.7
2878,-25.03
2890,-23.42
2902,-19.72
2914,-14.16
2926,-7.28
2938,0.14
2950,7.29
2962,13.48
2974,18.25
2985,21.41
2996,22.99
3008,23.13
3020,22.02
3032,19.93
3044,17.19
3056,14.17
3068,11.31
3080,8.93
3092,7.22
3104,6.14
3116,5.49
3128,4.99
3140,4.43
3152,3.71
3164,2.87
3175,2.03
3186,1.32
3198,0.84
3210,0.58
3222,0.5
3234,0.52
3246,0.53
3258,0.47
3270,0.25
3282,-0.19
3294,-0.86
3306,-1.73
3318,-2.62
3330,-3.19
3342,-3.02
3354,-1.68
3365,1.07
3376,5.22
3388,10.48
3400,16.36
3412,22.32
3424,27.86
3436,32.61
3448,36.24
3460,38.58
3472,39.53
3484,39.13
3496,37.52
3508,34.85
3520,31.31
3532,27.03
3544,22.19
3555,17.0
3566,11.74
3578,6.67
3590,1.99
3602,-2.25
3614,-6.1
3626,-9.6
3638,-12.74
3650,-15.4
3662,-17.5
3674,-18.96
3686,-19.87
3698,-20.34
3710,-20.53
3722,-20.59
3734,-20.65
3745,-20.9
3756,-21.57
3768,-22.88
3780,-24.89
3792,-27.47
3804,-30.23
3816,-32.64
3828,-34.11
3840,-34.18
3852,-32.59
3864,-29.31
3876,-24.61
3888,-18.92
3900,-12.81
3912,-6.89
3924,-1.65
3935,2.54
3946,5.49
3958,7.14
3970,7.63
3982,7.16
3994,6.07
4006,4.79
4018,3.74
4030,3.22
4042,3.28
4054,3.78
4066,4.44
4078,5.01
4090,5.39
4102,5.59
4114,5.71
4125,5.8
4136,5.83
4148,5.69
4160,5.29
4172,4.58
4184,3.58
4196,2.35
4208,0.95
4220,-0.57
4232,-2.19
4244,-3.88
4256,-5.65
4268,-7.49
4280,-9.47
4292,-11.61
4304,-13.96
4315,-16.46
4326,-19.02
4338,-21.39
4350,-23.24
4362,-24.14
4374,-23.68
4386,-21.6
4398,-17.87
4410,-12.76
4422,-6.75
4434,-0.43
4446,5.66
4458,11.15
4470,15.83
4482,19.6
4494,22.4
4505,24.21
4516,25.04
4528,25.0
4540,24.3
4552,23.21
4564,22.02
4576,20.93
4588,20.05
4600,19.38
4612,18.9
4624,18.58
4636,18.37
4648,18.22
4660,18.02
4672,17.62
4684,16.91
4695,15.78
4706,14.27
4718,12.43
4730,10.39
4742,8.25
4754,6.1
4766,3.99
4778,1.96
4790,0.01
4802,-1.87
4814,-3.7
4826,-5.54
4838,-7.42
4850,-9.36
4862,-11.35
4874,-13.33
4885,-15.29
4896,-17.27
4908,-19.36
4920,-21.68
4932,-24.36
4944,-27.38
4956,-30.57
4968,-33.51
4980,-35.66
4992,-36.49
5004,-35.59
5016,-32.83
5028,-28.41
5040,-22.74
5052,-16.33
5064,-9.64
5075,-3.08
5086,3.03
5098,8.39
5110,12.75
5122,15.94
5134,17.93
5146,18.87
5158,19.04
5170,18.79
5182,18.43
5194,18.14
5206,18.0
5218,18.01
5230,18.17
5242,18.51
5254,19.05
5265,19.76
5276,20.49
5288,21.03
5300,21.19
5312,20.89
5324,20.22
5336,19.35
5348,18.46
5360,17.63
5372,16.74
5384,15.62
5396,14.12
5408,12.21
5420,10.07
5432,7.91
5444,5.92
5455,4.13
5466,2.42
5478,0.62
5490,-1.41
5502,-3.7
5514,-6.14
5526,-8.56
5538,-10.78
5550,-12.76
5562,-14.52
5574,-16.19
5586,-17.9
5598,-19.76
5610,-21.83
5622,-24.09
5634,-26.5
5645,-28.98
5656,-31.43
5668,-33.65
5680,-35.28
5692,-35.85
5704,-34.89
5716,-32.08
5728,-27.47
5740,-21.48
5752,-14.83
5764,-8.28
5776,-2.4
5788,2.56
5800,6.67
5812,10.07
5824,12.86
5835,14.99
5846,16.32
5858,16.79
5870,16.53
5882,15.87
5894,15.18
5906,14.74
5918,14.6
5930,14.66
5942,14.78
5954,14.85
5966,14.9
5978,14.99
5990,15.09
6002,15.09
6014,14.82
6025,14.16
6036,13.1
6048,11.77
6060,10.36
6072,9.02
6084,7.8
6096,6.65
6108,5.5
6120,4.29
6132,3.03
6144,1.75
6156,0.46
6168,-0.86
6180,-2.26
6192,-3.74
6204,-5.3
6215,-6.84
6226,-8.29
6238,-9.58
6250,-10.73
6262,-11.79
6274,-12.86
6286,-14.06
6298,-15.49
6310,-17.23
6322,-19.26
6334,-21.43
6346,-23.41
6358,-24.77
6370,-25.03
6382,-23.87
6394,-21.26
6405,-17.44
6416,-12.94
6428,-8.28
6440,-3.92
6452,-0.11
6464,3.02
6476,5.41
6488,7.02
6500,7.8
6512,7.82
6524,7.26
6536,6.44
6548,5.66
6560,5.16
6572,4.98
6584,5.04
6595,5.21
6606,5.4
6618,5.58
6630,5.77
6642,6.01
6654,6.31
6666,6.64
6678,6.93
6690,7.14
6702,7.2
6714,7.05
6726,6.64
6738,5.96
6750,5.05
6762,3.98
6774,2.83
6785,1.64
6796,0.39
6808,-0.94
6820,-2.37
6832,-3.89
6844,-5.47
6856,-7.06
6868,-8.58
6880,-9.99
6892,-11.27
6904,-12.47
6916,-13.71
6928,-15.15
6940,-16.91
6952,-18.96
6964,-21.05
6975,-22.71
6986,-23.41
6998,-22.71
7010,-20.48
7022,-16.94
7034,-12.51
7046,-7.71
7058,-2.93
7070,1.57
7082,5.63
7094,9.09
7106,11.75
7118,13.42
7130,14.0
7142,13.59
7154,12.48
7165,11.06
7176,9.72
7188,8.75
7200,8.24
7212,8.16
7224,8.37
7236,8.69
7248,8.98
7260,9.13
7272,9.08
7284,8.89
7296,8.59
7308,8.23
7320,7.82
7332,7.34
7344,6.77
7355,6.11
7366,5.37
7378,4.55
7390,3.65
7402,2.65
7414,1.55
7426,0.36
7438,-0.83
7450,-1.96
7462,-2.98
7474,-3.93
7486,-4.89
7498,-5.98
7510,-7.26
7522,-8.77
7534,-10.48
7545,-12.34
7556,-14.33
7568,-16.4
7580,-18.43
7592,-20.14
7604,-21.18
7616,-21.13
7628,-19.72
7640,-16.91
7652,-12.94
7664,-8.33
7676,-3.6
7688,0.73
7700,4.36
7712,7.15
7724,9.14
7735,10.4
7746,11.08
7758,11.27
7770,11.04
7782,10.48
7794,9.67
7806,8.74
7818,7.81
7830,6.98
7842,6.33
7854,5.86
7866,5.52
7878,5.27
7890,5.06
7902,4.9
7914,4.81
7925,4.78
7936,4.74
7948,4.58
7960,4.19
7972,3.52
7984,2.65
7996,1.71
8008,0.84
8020,0.09
8032,-0.61
8044,-1.42
8056,-2.54
8068,-4.05
8080,-5.89
8092,-7.9
8104,-9.84
8115,-11.51
8126,-12.84
8138,-13.87
8150,-14.78
8162,-15.75
8174,-16.96
8186,-18.45
8198,-20.1
8210,-21.61
8222,-22.59
8234,-22.65
8246,-21.57
8258,-19.3
8270,-15.98
8282,-11.88
8294,-7.27
8305,-2.44
8316,2.29
8328,6.61
8340,10.19
8352,12.79
8364,14.32
8376,14.88
8388,14.72
8400,14.14
8412,13.4
8424,12.7
8436,12.19
8448,12.03
8460,12.28
8472,12.9
8484,13.63
8495,14.08
8506,13.84
8518,12.7
8530,10.7
8542,8.11
8554,5.33
8566,2.68
8578,0.36
8590,-1.61
8602,-3.29
8614,-4.76
8626,-6.03
8638,-7.1
8650,-7.98
8662,-8.75
8674,-9.5
8685,-10.29
8696,-11.15
8708,-12.02
8720,-12.8
8732,-13.39
8744,-13.76
8756,-13.98
8768,-14.28
8780,-14.91
8792,-16.07
8804,-17.77
8816,-19.72
8828,-21.45
8840,-22.39
8852,-22.15
8864,-20.58
8875,-17.86
8886,-14.4
8898,-10.67
8910,-7.11
8922,-4.04
8934,-1.71
8946,-0.22
8958,0.47
8970,0.61
8982,0.65
8994,1.1
9006,2.38
9018,4.61
9030,7.61
9042,10.95
9054,14.16
9065,16.86
9076,18.87
9088,20.21
9100,20.95
9112,21.14
9124,20.8
9136,19.92
9148,18.59
9160,16.98
9172,15.33
9184,13.87
9196,12.7
9208,11.74
9220,10.77
9232,9.52
9244,7.82
9255,5.75
9266,3.53
9278,1.51
9290,-0.1
9302,-1.26
9314,-2.15
9326,-3.09
9338,-4.32
9350,-5.95
9362,-7.9
9374,-9.93
9386,-11.76
9398,-13.15
9410,-13.86
9422,-13.72
9434,-12.57
9445,-10.37
9456,-7.25
9468,-3.51
9480,0.36
9492,3.84
9504,6.47
9516,8.03
9528,8.56
9540,8.27
9552,7.53
9564,6.62
9576,5.74
9588,4.97
9600,4.3
9612,3.75
9624,3.31
9635,3.06
9646,3.0
9658,3.1
9670,3.29
9682,3.44
9694,3.48
9706,3.41
9718,3.27
9730,3.09
9742,2.82
9754,2.33
9766,1.5
9778,0.24
9790,-1.42
9802,-3.35
9814,-5.36
9825,-7.28
9836,-8.99
9848,-10.38
9860,-11.43
9872,-12.17
9884,-12.73
9896,-13.29
9908,-14.06
9920,-15.16
9932,-16.53
9944,-17.88
9956,-18.78
9968,-18.75
9980,-17.48
9992,-14.91
10004,-11.26
10015,-6.97
10026,-2.54
10038,1.61
10050,5.2
10062,8.1
10074,10.28
10086,11.72
10098,12.44
10110,12.49
10122,11.98
10134,11.06
10146,9.92
10158,8.73
10170,7.59
10182,6.58
10194,5.76
10205,5.2
10216,5.03
10228,5.29
10240,5.98
10252,6.93
10264,7.9
10276,8.62
10288,8.91
10300,8.67
10312,7.94
10324,6.86
10336,5.54
10348,4.14
10360,2.73
10372,1.38
10384,0.13
10395,-1.05
10406,-2.18
10418,-3.35
10430,-4.63
10442,-6.05
10454,-7.61
10466,-9.26
10478,-10.92
10490,-12.5
10502,-13.84
10514,-14.77
10526,-15.07
10538,-14.53
10550,-13.0
10562,-10.49
10574,-7.16
10585,-3.36
10596,0.51
10608,4.08
10620,7.06
10632,9.27
10644,10.65
10656,11.24
10668,11.1
10680,10.4
10692,9.37
10704,8.28
10716,7.39
10728,6.88
10740,6.82
10752,7.09
10764,7.53
10775,7.92
10786,8.08
10798,7.88
10810,7.28
10822,6.27
10834,4.93
10846,3.33
10858,1.59
10870,-0.11
10882,-1.64
10894,-2.85
10906,-3.74
10918,-4.38
10930,-4.93
10942,-5.59
10954,-6.49
10965,-7.64
10976,-8.95
10988,-10.26
11000,-11.43
11012,-12.41
11024,-13.26
11036,-14.04
11048,-14.79
11060,-15.42
11072,-15.74
11084,-15.47
11096,-14.37
11108,-12.28
11120,-9.26
11132,-5.56
11144,-1.54
11155,2.34
11166,5.74
11178,8.44
11190,10.34
11202,11.43
11214,11.79
11226,11.49
11238,10.71
11250,9.64
11262,8.49
11274,7.43
11286,6.56
11298,5.9
11310,5.45
11322,5.19
11334,5.16
11345,5.34
11356,5.7
11368,6.14
11380,6.53
11392,6.74
11404,6.72
11416,6.47
11428,6.09
11440,5.63
11452,5.15
11464,4.61
11476,3.95
11488,3.1
11500,2.08
11512,0.96
11524,-0.15
11535,-1.13
11546,-1.95
11558,-2.67
11570,-3.47
11582,-4.47
11594,-5.72
11606,-7.11
11618,-8.48
11630,-9.65
11642,-10.4
11654,-10.57
11666,-10.05
11678,-8.76
11690,-6.67
11702,-3.82
11714,-0.37
11725,3.4
11736,7.19
11748,10.78
11760,13.94
11772,16.44
11784,17.99
11796,18.47
11808,17.94
11820,16.78
11832,15.49
11844,14.67
11856,14.95
11868,16.57
11880,19.17
11892,21.91
11904,23.95
11915,24.83
11926,24.76
11938,24.58
11950,25.41
11962,28.54
11974,34.44
11986,42.35
11998,50.55
12010,57.15
12022,60.86
12034,61.34
12046,58.96
12058,54.45
12070,49.04
12082,43.76
12094,39.29
12105,36.05
12116,34.22
12128,33.39
12140,31.97
12152,27.11
12164,13.83
12176,-9.57
12188,-39.77
12200,-69.42
12212,-91.49
12224,-102.41
12236,-102.59
12248,-95.23
12260,-84.58
12272,-74.61
12284,-66.88
12295,-61.38
12306,-57.2
12318,-53.39
12330,-49.4
12342,-44.99
12354,-40.47
12366,-36.57
12378,-35.46
12390,-37.2
12402,-42.07
12414,-50.67
12426,-63.57
12438,-80.27
12450,-98.1
12462,-112.34
12474,-114.38
12485,-100.67
12496,-71.95
12508,-33.9
12520,4.91
12532,36.48
12544,56.42
12556,65.16
12568,66.4
12580,64.37
12592,61.26
12604,57.68
12616,53.25
12628,47.94
12640,42.77
12652,39.39
12664,39.24
12675,42.61
12686,48.39
12698,54.05
12710,56.92
12722,54.9
12734,47.22
12746,35.39
12758,21.68
12770,9.45
12782,1.64
12794,-0.35
12806,2.62
12818,8.38
12830,14.39
12842,19.03
12854,22.11
12865,24.32
12876,26.37
12888,27.94
12900,27.65
12912,23.74
12924,15.44
12936,3.52
12948,-9.61
12960,-20.82
12972,-27.45
12984,-28.24
12996,-23.81
13008,-16.32
13020,-8.75
13032,-3.95
13044,-4.13
13055,-10.14
13066,-21.28
13078,-35.51
13090,-49.88
13102,-61.26
13114,-67.34
13126,-67.27
13138,-60.27
13150,-47.81
13162,-32.56
13174,-17.28
13186,-3.89
13198,7.02
13210,15.83
13222,23.31
13234,29.96
13245,35.82
13256,40.42
13268,43.48
13280,45.18
13292,45.97
13304,46.25
13316,46.07
13328,45.17
13340,43.25
13352,40.32
13364,36.65
13376,32.94
13388,29.91
13400,27.91
13412,26.67
13424,25.41
13435,23.25
13446,19.65
13458,14.79
13470,9.18
13482,3.39
13494,-2.52
13506,-9.13
13518,-17.33
13530,-27.56
13542,-39.34
13554,-51.31
13566,-61.88
13578,-70.09
13590,-75.94
13602,-80.17
13614,-83.51
13625,-86.08
13636,-87.27
13648,-86.14
13660,-82.14
13672,-75.35
13684,-66.18
13696,-54.76
13708,-40.51
13720,-22.4
13732,0.23
13744,26.59
13756,54.21
13768,79.39
13780,98.52
13792,109.48
13804,112.37
13815,109.2
13826,102.84
13838,95.77
13850,89.27
13862,83.54
13874,78.32
13886,73.55
13898,69.48
13910,66.35
13922,63.77
13934,60.71
13946,56.04
13958,49.2
13970,40.64
13982,31.3
13994,21.66
14005,11.15
14016,-1.48
14028,-16.91
14040,-34.12
14052,-50.07
14064,-61.16
14076,-65.06
14088,-62.2
14100,-55.62
14112,-49.38
14124,-46.47
14136,-47.56
14148,-51.3
14160,-55.61
14172,-59.13
14184,-61.59
14195,-63.47
14206,-65.15
14218,-66.45
14230,-66.87
14242,-66.05
14254,-64.12
14266,-61.51
14278,-58.65
14290,-55.58
14302,-52.09
14314,-47.96
14326,-43.14
14338,-37.74
14350,-31.79
14362,-25.2
14374,-17.86
14385,-10.07
14396,-2.71
14408,3.06
14420,6.41
14432,7.56
14444,7.89
14456,9.42
14468,13.82
14480,21.53
14492,31.61
14504,42.23
14516,51.64
14528,58.85
14540,63.86
14552,67.27
14564,69.63
14575,71.06
14586,71.2
14598,69.56
14610,65.92
14622,60.5
14634,53.85
14646,46.49
14658,38.72
14670,30.54
14682,21.85
14694,12.67
14706,3.38
14718,-5.37
14730,-12.88
14742,-18.63
14754,-22.37
14765,-24.06
14776,-23.71
14788,-21.34
14800,-17.02
14812,-11.05
14824,-4.1
14836,2.88
14848,8.92
14860,13.33
14872,15.89
14884,16.8
14896,16.4
14908,14.94
14920,12.47
14932,8.91
14944,4.32
14955,-0.96
14966,-6.26
14978,-10.77
14990,-13.78
15002,-14.88
15014,-14.1
15026,-11.82
15038,-8.58
15050,-4.9
15062,-1.14
15074,2.61
15086,6.38
15098,10.29
15110,14.43
15122,18.8
15134,23.37
15145,28.01
15156,32.62
15168,36.97
15180,40.84
15192,43.97
15204,46.22
15216,47.65
15228,48.61
15240,49.58
15252,50.81
15264,51.95
15276,51.92
15288,49.07
15300,41.83
15312,29.4
15324,12.28
15335,-7.81
15346,-28.43
15358,-47.23
15370,-62.56
15382,-73.65
15394,-80.43
15406,-83.1
15418,-81.86
15430,-76.96
15442,-68.73
15454,-57.8
15466,-44.98
15478,-31.05
15490,-16.58
15502,-1.94
15514,12.57
15525,26.43
15536,38.91
15548,49.15
15560,56.59
15572,61.21
15584,63.6
15596,64.65
15608,65.11
15620,65.2
15632,64.62
15644,62.87
15656,59.6
15668,54.88
15680,49.02
15692,42.13
15704,33.8
15715,22.93
15726,8.11
15738,-11.65
15750,-36.29
15762,-64.31
15774,-92.96
15786,-118.86
15798,-138.84
15810,-150.74
15822,-153.9
15834,-149.28
15846,-139.07
15858,-126.06
15870,-112.85
15882,-101.19
15894,-91.81
15905,-84.49
15916,-78.52
15928,-73.24
15940,-68.32
15952,-63.79
15964,-59.9
15976,-56.82
15988,-54.39
16000,-52.46
16012,-50.88
16024,-49.61
16036,-48.8
16048,-48.51
16060,-48.5
16072,-47.82
16084,-44.96
16095,-38.21
16106,-26.36
16118,-9.07
16130,13.06
16142,38.53
16154,65.3
16166,90.88
16178,112.75
16190,128.59
16202,136.78
16214,136.53
16226,128.51
16238,114.89
16250,98.77
16262,83.36
16274,71.14
16285,63.73
16296,61.66
16308,64.79
16320,71.35
16332,79.26
16344,86.64
16356,92.26
16368,95.66
16380,96.96
16392,97.3
16404,97.78
16416,99.5
16428,101.05
16440,100.64
16452,97.2
16464,91.0
16475,83.35
16486,75.49
16498,69.05
16510,64.19
16522,60.84
16534,55.8
16546,46.51
16558,32.25
16570,13.88
16582,-7.54
16594,-32.48
16606,-61.36
16618,-96.07
16630,-137.06
16642,-186.64
16654,-244.76
16665,-308.54
16676,-373.43
16688,-435.05
16700,-491.49
16712,-541.32
16724,-586.1
16736,-598.44
16748,-558.77
16760,-465.93
16772,-341.02
16784,-213.04
16796,-101.96
16808,-26.44
16820,20.95
16832,46.84
16844,54.74
16855,43.92
16866,15.48
16878,-21.2
16890,-54.72
16902,-73.49
16914,-70.72
16926,-44.98
16938,2.89
16950,61.78
16962,113.64
16974,145.56
16986,155.93
16998,151.54
17010,141.56
17022,133.44
17034,128.99
17045,126.56
17056,125.01
17068,124.35
17080,127.15
17092,137.58
17104,156.27
17116,183.55
17128,217.32
17140,253.69
17152,286.23
17164,307.5
17176,311.39
17188,295.87
17200,263.83
17212,221.61
17224,177.34
17235,137.44
17246,105.24
17258,80.74
17270,62.18
17282,48.32
17294,39.56
17306,37.04
17318,40.75
17330,48.96
17342,58.09
17354,64.33
17366,65.38
17378,61.18
17390,53.93
17402,46.73
17414,41.76
17425,39.29
17436,38.16
17448,36.52
17460,32.85
17472,26.85
17484,19.32
17496,11.88
17508,6.31
17520,3.81
17532,4.5
17544,7.38
17556,10.46
17568,11.28
17580,7.75
17592,-1.21
17604,-15.22
17615,-32.59
17626,-51.03
17638,-68.45
17650,-83.64
17662,-96.45
17674,-107.46
17686,-117.34
17698,-126.33
17710,-134.25
17722,-140.73
17734,-145.6
17746,-148.88
17758,-150.33
17770,-149.05
17782,-143.38
17794,-131.47
17805,-112.35
17816,-86.79
17828,-57.52
17840,-28.45
17852,-3.41
17864,15.07
17876,26.33
17888,31.3
17900,31.74
17912,29.55
17924,26.43
17936,23.86
17948,23.18
17960,25.54
17972,31.61
17984,41.31
17995,53.76
18006,67.56
18018,81.35
18030,94.19
18042,105.74
18054,116.04
18066,125.07
18078,132.22
18090,136.13
18102,134.81
18114,126.28
18126,109.34
18138,84.33
18150,53.32
18162,19.79
18174,-12.23
18185,-39.3
18196,-59.38
18208,-72.2
18220,-78.99
18232,-81.79
18244,-82.68
18256,-83.18
18268,-84.06
18280,-85.44
18292,-86.98
18304,-88.19
18316,-88.57
18328,-87.7
18340,-85.28
18352,-81.13
18364,-75.28
18375,-68.04
18386,-59.97
18398,-51.79
18410,-44.13
18422,-37.38
18434,-31.54
18446,-26.32
18458,-21.31
18470,-16.17
18482,-10.85
18494,-5.57
18506,-0.73
18518,3.24
18530,6.03
18542,7.44
18554,7.43
18565,6.09
18576,3.72
18588,0.88
18600,-1.71
18612,-3.31
18624,-3.46
18636,-2.16
18648,0.12
18660,2.69
18672,4.93
18684,6.56
18696,7.59
18708,8.23
18720,8.59
18732,8.57
18744,7.94
18755,6.52
18766,4.38
18778,1.84
18790,-0.62
18802,-2.63
18814,-4.05
18826,-4.97
18838,-5.61
18850,-6.14
18862,-6.6
18874,-6.84
18886,-6.65
18898,-5.84
18910,-4.34
18922,-2.18
18934,0.46
18945,3.39
18956,6.35
18968,9.11
18980,11.42
18992,13.05
19004,13.82
19016,13.7
19028,12.78
19040,11.35
19052,9.75
19064,8.38
19076,7.55
19088,7.46
19100,8.1
19112,9.37
19124,11.06
19135,12.89
19146,14.66
19158,16.17
19170,17.36
19182,18.22
19194,18.76
19206,18.98
19218,18.84
19230,18.29
19242,17.32
19254,16.01
19266,14.5
19278,12.92
19290,11.31
19302,9.58
19314,7.6
19325,5.29
19336,2.69
19348,-0.06
19360,-2.82
19372,-5.58
19384,-8.45
19396,-11.56
19408,-14.86
19420,-18.03
19432,-20.52
19444,-21.75
19456,-21.36
19468,-19.33
19480,-15.96
19492,-11.72
19504,-7.05
19515,-2.31
19526,2.28
19538,6.49
19550,10.12
19562,12.94
19574,14.82
19586,15.75
19598,15.93
19610,15.66
19622,15.26
19634,14.91
19646,14.62
19658,14.32
19670,13.94
19682,13.47
19694,12.98
19705,12.61
19716,12.38
19728,12.25
19740,12.04
19752,11.56
19764,10.72
19776,9.5
19788,8.04
19800,6.52
19812,5.07
19824,3.8
19836,2.7
19848,1.68
19860,0.6
19872,-0.7
19884,-2.28
19895,-4.15
19906,-6.22
19918,-8.39
19930,-10.6
19942,-12.8
19954,-14.89
19966,-16.67
19978,-17.9
19990,-18.33
20002,-17.86
20014,-16.59
20026,-14.74
20038,-12.55
20050,-10.15
20062,-7.59
20074,-4.93
20085,-2.39
20096,-0.4
20108,0.5
20120,-0.06
20132,-2.17
20144,-5.41
20156,-9.08
20168,-12.28
20180,-14.16
20192,-14.06
20204,-11.66
20216,-6.91
20228,-0.12
20240,8.12
20252,17.0
20264,25.54
20275,32.75
20286,37.74
20298,39.89
20310,38.91
20322,34.89
20334,28.18
20346,19.4
20358,9.35
20370,-0.99
20382,-10.48
20394,-17.94
20406,-22.37
20418,-23.15
20430,-20.32
20442,-14.62
20454,-7.35
20465,-0.02
20476,6.06
20488,10.08
20500,11.76
20512,11.32
20524,9.27
20536,6.23
20548,2.87
20560,-0.22
20572,-2.6
20584,-3.97
20596,-4.25
20608,-3.49
20620,-1.86
20632,0.48
20644,3.35
20655,6.56
20666,9.83
20678,12.83
20690,15.16
20702,16.58
20714,17.0
20726,16.58
20738,15.63
20750,14.49
20762,13.43
20774,12.63
20786,12.14
20798,11.99
20810,12.12
20822,12.48
20834,12.98
20845,13.49
20856,13.84
20868,13.85
20880,13.36
20892,12.28
20904,10.64
20916,8.65
20928,6.66
20940,5.02
20952,3.94
20964,3.36
20976,2.98
20988,2.4
