seconds,BVP
9,98.06
21,119.6
33,138.55
45,153.26
57,163.04
69,168.33
81,170.56
93,171.66
105,173.45
116,177.03
127,182.56
139,189.22
151,195.63
163,200.31
175,202.08
187,200.27
199,194.83
211,186.21
223,175.17
235,162.53
247,148.76
259,133.79
271,116.97
283,97.36
295,74.22
306,47.6
317,18.59
329,-10.79
341,-38.08
353,-61.06
365,-78.31
377,-89.47
389,-95.22
401,-97.03
413,-96.82
425,-96.53
437,-97.74
449,-101.39
461,-107.53
473,-115.46
485,-123.97
496,-131.76
507,-137.67
519,-140.82
531,-140.54
543,-136.46
555,-128.52
567,-117.18
579,-103.41
591,-88.53
603,-73.83
615,-60.18
627,-47.84
639,-36.62
651,-26.23
663,-16.56
675,-7.93
686,-0.86
697,4.11
709,6.8
721,7.5
733,6.9
745,5.96
757,5.62
769,6.54
781,8.97
793,12.7
805,17.18
817,21.66
829,25.34
841,27.47
853,27.44
865,24.93
876,20.11
887,13.78
899,7.35
911,2.55
923,0.9
935,3.12
947,8.89
959,16.99
971,25.89
983,34.3
995,41.59
1007,47.69
1019,52.72
1031,56.61
1043,59.05
1055,59.63
1066,58.27
1077,55.35
1089,51.66
1101,48.04
1113,45.07
1125,42.9
1137,41.46
1149,40.6
1161,40.38
1173,40.92
1185,42.32
1197,44.43
1209,46.86
1221,49.09
1233,50.74
1245,51.73
1256,52.31
1267,52.9
1279,53.91
1291,55.48
1303,57.2
1315,58.16
1327,57.12
1339,52.88
1351,44.77
1363,32.88
1375,18.06
1387,1.64
1399,-15.06
1411,-31.04
1423,-45.63
1435,-58.41
1446,-69.14
1457,-77.74
1469,-84.41
1481,-89.78
1493,-94.6
1505,-99.42
1517,-104.17
1529,-108.07
1541,-109.91
1553,-108.7
1565,-104.14
1577,-96.85
1589,-88.07
1601,-79.14
1613,-71.13
1625,-64.58
1636,-59.6
1647,-56.17
1659,-54.31
1671,-54.0
1683,-55.08
1695,-57.07
1707,-59.08
1719,-60.04
1731,-58.94
1743,-55.24
1755,-49.0
1767,-40.83
1779,-31.67
1791,-22.31
1803,-13.23
1815,-4.57
1826,3.58
1837,10.96
1849,17.01
1861,21.01
1873,22.41
1885,21.16
1897,17.88
1909,13.61
1921,9.56
1933,6.63
1945,5.0
1957,4.45
1969,4.47
1981,4.56
1993,4.25
2005,3.01
2016,0.56
2027,-2.92
2039,-6.72
2051,-9.84
2063,-10.91
2075,-8.73
2087,-2.7
2099,6.76
2111,18.17
2123,29.6
2135,39.44
2147,46.76
2159,50.96
2171,52.14
2183,50.74
2195,47.14
2206,41.52
2217,33.66
2229,23.61
2241,12.03
2253,-0.1
2265,-13.01
2277,-26.64
2289,-40.43
2301,-53.74
2313,-66.0
2325,-77.95
2337,-90.29
2349,-103.24
2361,-116.55
2373,-132.29
2385,-151.24
2396,-172.24
2407,-193.11
2419,-211.42
2431,-227.41
2443,-241.5
2455,-253.61
2467,-263.45
2479,-274.75
2491,-289.37
2503,-305.95
2515,-321.09
2527,-330.6
2539,-334.69
2551,-334.23
2563,-329.94
2575,-322.44
2586,-317.29
2597,-316.92
2609,-318.98
2621,-318.32
2633,-309.35
2645,-293.03
2657,-272.05
2669,-249.13
2681,-193.86
2693,-99.03
2705,17.74
2717,127.62
2729,200.85
2741,246.84
2753,275.32
2765,292.54
2776,302.61
2787,306.89
2799,301.51
2811,285.72
2823,263.35
2835,240.63
2847,224.07
2859,213.58
2871,207.55
2883,204.33
2895,202.46
2907,196.89
2919,185.13
2931,168.55
2943,150.97
2955,137.05
2966,126.71
2977,118.83
2989,112.27
3001,106.03
3013,97.14
3025,84.41
3037,69.19
3049,54.17
3061,42.31
3073,33.35
3085,26.19
3097,19.77
3109,13.17
3121,4.75
3133,-6.1
3145,-18.53
3156,-30.78
3167,-40.76
3179,-47.68
3191,-51.04
3203,-50.37
3215,-45.47
3227,-36.86
3239,-25.24
3251,-11.18
3263,4.91
3275,22.94
3287,42.53
3299,63.37
3311,85.05
3323,106.81
3335,127.6
3346,146.36
3357,162.51
3369,176.36
3381,189.05
3393,202.16
3405,216.85
3417,233.36
3429,250.78
3441,267.47
3453,281.72
3465,292.43
3477,299.43
3489,303.33
3501,305.23
3513,306.16
3525,306.72
3536,306.78
3547,305.29
3559,300.4
3571,289.88
3583,271.76
3595,245.16
3607,210.82
3619,170.97
3631,128.67
3643,86.77
3655,47.21
3667,10.72
3679,-22.75
3691,-53.51
3703,-81.69
3715,-107.15
3726,-129.77
3737,-149.66
3749,-167.13
3761,-182.44
3773,-195.49
3785,-205.63
3797,-211.88
3809,-213.26
3821,-209.13
3833,-199.4
3845,-184.55
3857,-165.41
3869,-143.14
3881,-119.12
3893,-94.83
3905,-71.82
3916,-51.43
3927,-34.57
3939,-21.66
3951,-12.54
3963,-6.7
3975,-3.42
3987,-1.95
3999,-1.62
4011,-1.84
4023,-2.15
4035,-2.17
4047,-1.69
4059,-0.59
4071,1.03
4083,2.85
4095,4.29
4106,4.63
4117,3.17
4129,-0.59
4141,-6.65
4153,-14.53
4165,-23.31
4177,-31.86
4189,-39.2
4201,-44.73
4213,-48.35
4225,-50.36
4237,-51.26
4249,-51.52
4261,-51.43
4273,-51.1
4285,-50.52
4296,-49.73
4307,-48.83
4319,-48.08
4331,-47.85
4343,-48.54
4355,-50.52
4367,-54.06
4379,-59.19
4391,-65.53
4403,-72.15
4415,-77.58
4427,-80.03
4439,-77.87
4451,-70.21
4463,-57.19
4475,-40.08
4486,-20.89
4497,-1.74
4509,15.68
4521,30.36
4533,41.97
4545,50.57
4557,56.35
4569,59.56
4581,60.53
4593,59.78
4605,57.98
4617,55.9
4629,54.15
4641,53.07
4653,52.67
4665,52.72
4676,52.88
4687,52.8
4699,52.23
4711,50.96
4723,48.9
4735,46.06
4747,42.58
4759,38.69
4771,34.61
4783,30.54
4795,26.53
4807,22.5
4819,18.29
4831,13.73
4843,8.75
4855,3.39
4866,-2.2
4877,-7.9
4889,-13.57
4901,-19.23
4913,-24.98
4925,-30.98
4937,-37.47
4949,-44.65
4961,-52.66
4973,-61.37
4985,-70.22
4997,-78.08
5009,-83.48
5021,-84.81
5033,-80.97
5045,-71.73
5056,-57.94
5067,-41.32
5079,-23.88
5091,-7.37
5103,7.11
5115,19.14
5127,28.71
5139,35.94
5151,40.94
5163,43.85
5175,44.94
5187,44.71
5199,43.77
5211,42.68
5223,41.79
5235,41.15
5246,40.66
5257,40.2
5269,39.71
5281,39.27
5293,38.88
5305,38.47
5317,37.78
5329,36.52
5341,34.37
5353,31.15
5365,26.85
5377,21.65
5389,15.89
5401,10.0
5413,4.36
5425,-0.78
5436,-5.44
5447,-9.83
5459,-14.29
5471,-19.08
5483,-24.19
5495,-29.36
5507,-34.25
5519,-38.49
5531,-42.0
5543,-45.0
5555,-48.0
5567,-51.65
5579,-56.52
5591,-62.92
5603,-70.66
5615,-78.96
5626,-86.56
5637,-91.81
5649,-93.16
5661,-89.51
5673,-80.64
5685,-67.28
5697,-50.93
5709,-33.42
5721,-16.43
5733,-1.13
5745,11.9
5757,22.56
5769,30.92
5781,37.08
5793,41.11
5805,43.13
5816,43.48
5827,42.74
5839,41.62
5851,40.76
5863,40.53
5875,40.97
5887,41.89
5899,43.0
5911,44.06
5923,44.96
5935,45.71
5947,46.33
5959,46.86
5971,47.24
5983,47.31
5995,46.89
6006,45.73
6017,43.67
6029,40.69
6041,36.91
6053,32.63
6065,28.14
6077,23.66
6089,19.27
6101,14.84
6113,10.17
6125,5.12
6137,-0.4
6149,-6.25
6161,-12.21
6173,-18.04
6185,-23.56
6196,-28.79
6207,-33.86
6219,-39.06
6231,-44.71
6243,-51.15
6255,-58.6
6267,-67.11
6279,-76.29
6291,-85.2
6303,-92.37
6315,-96.05
6327,-94.73
6339,-87.7
6351,-75.33
6363,-59.05
6375,-40.77
6386,-22.44
6397,-5.4
6409,9.67
6421,22.57
6433,33.26
6445,41.59
6457,47.34
6469,50.44
6481,51.16
6493,50.17
6505,48.44
6517,46.84
6529,45.91
6541,45.83
6553,46.4
6565,47.31
6576,48.3
6587,49.27
6599,50.11
6611,50.72
6623,50.77
6635,49.86
6647,47.54
6659,43.63
6671,38.32
6683,32.15
6695,25.87
6707,20.08
6719,15.1
6731,10.78
6743,6.74
6755,2.54
6766,-2.11
6777,-7.22
6789,-12.63
6801,-18.09
6813,-23.38
6825,-28.38
6837,-33.05
6849,-37.47
6861,-41.85
6873,-46.54
6885,-51.96
6897,-58.38
6909,-65.64
6921,-72.99
6933,-78.98
6945,-81.89
6956,-80.24
6967,-73.35
6979,-61.68
6991,-46.69
7003,-30.37
7015,-14.58
7027,-0.61
7039,11.0
7051,20.23
7063,27.25
7075,32.14
7087,34.89
7099,35.5
7111,34.21
7123,31.59
7135,28.43
7146,25.52
7157,23.44
7169,22.44
7181,22.38
7193,22.94
7205,23.71
7217,24.37
7229,24.71
7241,24.63
7253,24.08
7265,23.02
7277,21.41
7289,19.2
7301,16.29
7313,12.66
7325,8.29
7336,3.22
7347,-2.42
7359,-8.39
7371,-14.44
7383,-20.28
7395,-25.73
7407,-30.8
7419,-35.6
7431,-40.42
7443,-45.57
7455,-51.4
7467,-58.07
7479,-65.48
7491,-73.05
7503,-79.65
7515,-83.83
7526,-84.07
7537,-79.35
7549,-69.47
7561,-55.23
7573,-38.24
7585,-20.4
7597,-3.47
7609,11.36
7621,23.53
7633,32.9
7645,39.58
7657,43.76
7669,45.62
7681,45.42
7693,43.54
7705,40.51
7716,36.94
7727,33.42
7739,30.42
7751,28.27
7763,27.12
7775,26.94
7787,27.58
7799,28.74
7811,30.04
7823,31.06
7835,31.43
7847,30.89
7859,29.31
7871,26.75
7883,23.41
7895,19.5
7906,15.2
7917,10.6
7929,5.71
7941,0.52
7953,-4.99
7965,-10.75
7977,-16.65
7989,-22.57
8001,-28.43
8013,-34.26
8025,-40.17
8037,-46.36
8049,-53.11
8061,-60.67
8073,-69.14
8085,-78.15
8096,-86.68
8107,-93.14
8119,-95.63
8131,-92.66
8143,-83.62
8155,-69.19
8167,-51.07
8179,-31.45
8191,-12.33
8203,4.94
8215,19.7
8227,31.88
8239,41.49
8251,48.6
8263,53.22
8275,55.47
8286,55.74
8297,54.65
8309,52.93
8321,51.28
8333,50.11
8345,49.53
8357,49.38
8369,49.38
8381,49.23
8393,48.81
8405,48.08
8417,47.04
8429,45.64
8441,43.68
8453,40.89
8465,37.11
8476,32.35
8487,26.87
8499,21.13
8511,15.56
8523,10.41
8535,5.71
8547,1.24
8559,-3.34
8571,-8.26
8583,-13.6
8595,-19.14
8607,-24.55
8619,-29.49
8631,-33.82
8643,-37.73
8655,-41.7
8666,-46.44
8677,-52.53
8689,-60.19
8701,-69.03
8713,-77.95
8725,-85.31
8737,-89.26
8749,-88.28
8761,-81.66
8773,-69.73
8785,-53.8
8797,-35.76
8809,-17.57
8821,-0.78
8833,13.69
8845,25.54
8856,34.78
8867,41.57
8879,46.13
8891,48.67
8903,49.5
8915,49.1
8927,48.04
8939,46.95
8951,46.29
8963,46.22
8975,46.63
8987,47.13
8999,47.35
9011,47.16
9023,46.73
9035,46.46
9046,46.66
9057,47.36
9069,48.15
9081,48.39
9093,47.47
9105,45.1
9117,41.46
9129,36.98
9141,32.2
9153,27.45
9165,22.74
9177,17.85
9189,12.49
9201,6.5
9213,-0.09
9225,-7.07
9236,-14.08
9247,-20.82
9259,-27.05
9271,-32.71
9283,-37.94
9295,-43.06
9307,-48.54
9319,-54.86
9331,-62.31
9343,-70.81
9355,-79.72
9367,-87.84
9379,-93.59
9391,-95.35
9403,-91.93
9415,-82.99
9426,-69.16
9437,-51.94
9449,-33.29
9461,-15.11
9473,1.19
9485,14.83
9497,25.64
9509,33.77
9521,39.38
9533,42.58
9545,43.53
9557,42.52
9569,40.11
9581,37.07
9593,34.26
9605,32.33
9616,31.68
9627,32.28
9639,33.87
9651,36.05
9663,38.44
9675,40.69
9687,42.52
9699,43.64
9711,43.8
9723,42.79
9735,40.61
9747,37.41
9759,33.52
9771,29.28
9783,24.93
9795,20.56
9806,16.1
9817,11.41
9829,6.49
9841,1.4
9853,-3.59
9865,-8.24
9877,-12.34
9889,-15.91
9901,-19.23
9913,-22.84
9925,-27.41
9937,-33.47
9949,-41.18
9961,-50.02
9973,-58.86
9985,-66.06
9996,-69.93
10007,-69.18
10019,-63.29
10031,-52.66
10043,-38.54
10055,-22.63
10067,-6.69
10079,7.83
10091,20.0
10103,29.38
10115,35.94
10127,39.8
10139,41.24
10151,40.66
10163,38.56
10175,35.59
10186,32.45
10197,29.71
10209,27.79
10221,26.87
10233,26.93
10245,27.82
10257,29.29
10269,31.02
10281,32.66
10293,33.88
10305,34.44
10317,34.2
10329,33.18
10341,31.44
10353,29.05
10365,26.03
10376,22.33
10387,17.91
10399,12.71
10411,6.81
10423,0.37
10435,-6.29
10447,-12.81
10459,-18.86
10471,-24.22
10483,-28.88
10495,-33.05
10507,-37.18
10519,-41.82
10531,-47.56
10543,-54.79
10555,-63.42
10566,-72.67
10577,-81.09
10589,-86.82
10601,-88.09
10613,-83.85
10625,-74.04
10637,-59.69
10649,-42.55
10661,-24.53
10673,-7.24
10685,8.22
10697,21.32
10709,31.83
10721,39.7
10733,44.94
10745,47.66
10756,48.13
10767,46.91
10779,44.75
10791,42.43
10803,40.6
10815,39.58
10827,39.38
10839,39.77
10851,40.41
10863,41.07
10875,41.66
10887,42.2
10899,42.74
10911,43.24
10923,43.47
10935,43.07
10946,41.69
10957,39.08
10969,35.27
10981,30.62
10993,25.64
11005,20.81
11017,16.39
11029,12.25
11041,8.04
11053,3.31
11065,-2.15
11077,-8.25
11089,-14.6
11101,-20.73
11113,-26.34
11125,-31.37
11136,-36.06
11147,-40.81
11159,-46.07
11171,-52.27
11183,-59.65
11195,-68.25
11207,-77.61
11219,-86.67
11231,-93.84
11243,-97.27
11255,-95.37
11267,-87.4
11279,-73.78
11291,-56.06
11303,-36.37
11315,-16.93
11326,0.63
11337,15.42
11349,27.19
11361,36.14
11373,42.54
11385,46.73
11397,49.05
11409,49.86
11421,49.62
11433,48.75
11445,47.67
11457,46.68
11469,45.98
11481,45.66
11493,45.66
11505,45.85
11516,46.0
11527,45.91
11539,45.45
11551,44.62
11563,43.55
11575,42.37
11587,41.12
11599,39.72
11611,37.96
11623,35.61
11635,32.49
11647,28.6
11659,24.16
11671,19.45
11683,14.73
11695,10.13
11706,5.54
11717,0.81
11729,-4.26
11741,-9.73
11753,-15.48
11765,-21.28
11777,-26.83
11789,-31.88
11801,-36.3
11813,-40.14
11825,-43.64
11837,-47.22
11849,-51.42
11861,-56.73
11873,-63.46
11885,-71.46
11896,-80.03
11907,-87.89
11919,-93.36
11931,-94.75
11943,-90.86
11955,-81.39
11967,-67.1
11979,-49.66
11991,-31.19
12003,-13.66
12015,1.61
12027,14.03
12039,23.71
12051,31.07
12063,36.45
12075,40.07
12086,41.99
12097,42.39
12109,41.6
12121,40.23
12133,38.93
12145,38.21
12157,38.3
12169,39.09
12181,40.29
12193,41.55
12205,42.65
12217,43.46
12229,43.94
12241,44.02
12253,43.56
12265,42.39
12276,40.35
12287,37.4
12299,33.63
12311,29.3
12323,24.71
12335,20.19
12347,15.95
12359,12.09
12371,8.56
12383,5.16
12395,1.64
12407,-2.26
12419,-6.65
12431,-11.46
12443,-16.42
12455,-21.13
12466,-25.27
12477,-28.7
12489,-31.64
12501,-34.59
12513,-38.22
12525,-43.12
12537,-49.62
12549,-57.59
12561,-66.35
12573,-74.72
12585,-81.15
12597,-84.06
12609,-82.2
12621,-75.07
12633,-63.08
12645,-47.46
12656,-30.0
12667,-12.48
12679,3.69
12691,17.66
12703,29.06
12715,37.81
12727,43.88
12739,47.32
12751,48.3
12763,47.24
12775,44.88
12787,42.06
12799,39.54
12811,37.8
12823,36.93
12835,36.81
12846,37.16
12857,37.74
12869,38.39
12881,38.98
12893,39.36
12905,39.31
12917,38.61
12929,37.06
12941,34.6
12953,31.32
12965,27.45
12977,23.33
12989,19.2
13001,15.18
13013,11.22
13025,7.12
13036,2.65
13047,-2.33
13059,-7.82
13071,-13.58
13083,-19.34
13095,-24.81
13107,-29.83
13119,-34.46
13131,-38.91
13143,-43.57
13155,-48.89
13167,-55.25
13179,-62.7
13191,-70.76
13203,-78.29
13215,-83.67
13226,-85.21
13237,-81.68
13249,-72.78
13261,-59.31
13273,-42.88
13285,-25.46
13297,-8.75
13309,6.09
13321,18.56
13333,28.55
13345,36.09
13357,41.21
13369,44.0
13381,44.7
13393,43.82
13405,42.09
13416,40.27
13427,38.93
13439,38.34
13451,38.48
13463,39.15
13475,40.12
13487,41.25
13499,42.4
13511,43.51
13523,44.45
13535,44.98
13547,44.89
13559,43.93
13571,41.95
13583,38.9
13595,34.93
13606,30.37
13617,25.7
13629,21.35
13641,17.57
13653,14.31
13665,11.21
13677,7.79
13689,3.63
13701,-1.45
13713,-7.24
13725,-13.32
13737,-19.17
13749,-24.42
13761,-28.99
13773,-33.13
13785,-37.36
13796,-42.27
13807,-48.33
13819,-55.76
13831,-64.33
13843,-73.2
13855,-81.06
13867,-86.23
13879,-87.19
13891,-82.92
13903,-73.24
13915,-58.96
13927,-41.61
13939,-23.12
13951,-5.32
13963,10.47
13975,23.54
13986,33.82
13997,41.65
14009,47.47
14021,51.57
14033,54.12
14045,55.11
14057,54.65
14069,53.08
14081,50.98
14093,48.99
14105,47.63
14117,47.05
14129,47.1
14141,47.4
14153,47.63
14165,47.6
14176,47.25
14187,46.61
14199,45.56
14211,43.94
14223,41.5
14235,38.08
14247,33.74
14259,28.7
14271,23.33
14283,17.97
14295,12.86
14307,8.07
14319,3.6
14331,-0.62
14343,-4.64
14355,-8.5
14366,-12.26
14377,-16.01
14389,-19.84
14401,-23.82
14413,-27.98
14425,-32.24
14437,-36.48
14449,-40.54
14461,-44.37
14473,-48.0
14485,-51.69
14497,-55.89
14509,-61.18
14521,-68.02
14533,-76.39
14545,-85.56
14556,-93.96
14567,-99.44
14579,-99.93
14591,-94.06
14603,-81.75
14615,-64.24
14627,-43.68
14639,-22.5
14651,-2.64
14663,14.78
14675,29.5
14687,41.73
14699,51.87
14711,60.1
14723,66.44
14735,70.87
14746,73.54
14757,74.92
14769,75.71
14781,76.69
14793,78.46
14805,81.29
14817,85.06
14829,89.34
14841,93.65
14853,97.58
14865,100.94
14877,103.69
14889,105.91
14901,107.76
14913,109.49
14925,111.36
14936,113.59
14947,115.94
14959,117.49
14971,116.59
14983,111.18
14995,99.52
15007,80.85
15019,55.88
15031,26.65
15043,-4.08
15055,-33.61
15067,-59.93
15079,-81.95
15091,-99.5
15103,-112.98
15115,-123.01
15126,-130.35
15137,-135.67
15149,-139.52
15161,-142.32
15173,-144.27
15185,-145.48
15197,-145.9
15209,-145.57
15221,-144.66
15233,-143.58
15245,-142.94
15257,-143.41
15269,-145.38
15281,-148.49
15293,-151.49
15305,-152.38
15316,-148.96
15327,-139.68
15339,-124.25
15351,-103.86
15363,-80.85
15375,-57.88
15387,-37.13
15399,-19.8
15411,-6.08
15423,4.5
15435,12.6
15447,18.69
15459,23.09
15471,26.04
15483,27.88
15495,29.15
15506,30.4
15517,32.08
15529,34.34
15541,37.03
15553,39.9
15565,42.7
15577,45.37
15589,47.98
15601,50.59
15613,53.01
15625,54.9
15637,55.75
15649,55.21
15661,53.18
15673,49.91
15685,45.89
15696,41.63
15707,37.46
15719,33.51
15731,29.66
15743,25.7
15755,21.45
15767,16.84
15779,11.93
15791,6.9
15803,2.01
15815,-2.6
15827,-6.92
15839,-11.17
15851,-15.82
15863,-21.41
15875,-28.36
15886,-36.65
15897,-45.74
15909,-54.43
15921,-61.15
15933,-64.3
15945,-62.69
15957,-55.91
15969,-44.48
15981,-29.71
15993,-13.31
16005,2.97
16017,17.75
16029,30.2
16041,40.01
16053,47.21
16065,51.99
16076,54.55
16087,55.05
16099,53.75
16111,51.04
16123,47.58
16135,44.06
16147,41.15
16159,39.19
16171,38.2
16183,37.83
16195,37.64
16207,37.25
16219,36.42
16231,35.1
16243,33.28
16255,30.99
16266,28.22
16277,24.96
16289,21.24
16301,17.1
16313,12.56
16325,7.62
16337,2.32
16349,-3.23
16361,-8.83
16373,-14.26
16385,-19.32
16397,-24.02
16409,-28.56
16421,-33.31
16433,-38.69
16445,-45.06
16456,-52.54
16467,-60.82
16479,-69.14
16491,-76.28
16503,-80.74
16515,-81.08
16527,-76.38
16539,-66.56
16551,-52.44
16563,-35.62
16575,-17.97
16587,-1.24
16599,13.39
16611,25.35
16623,34.6
16635,41.39
16646,46.07
16657,48.89
16669,50.14
16681,50.13
16693,49.21
16705,47.77
16717,46.17
16729,44.65
16741,43.39
16753,42.44
16765,41.88
16777,41.73
16789,42.01
16801,42.6
16813,43.27
16825,43.66
16836,43.3
16847,41.78
16859,38.82
16871,34.4
16883,28.71
16895,22.16
16907,15.26
16919,8.39
16931,1.88
16943,-4.21
16955,-9.88
16967,-15.22
16979,-20.23
16991,-24.9
17003,-29.13
17015,-32.93
17026,-36.41
17037,-39.91
17049,-43.91
17061,-48.89
17073,-55.03
17085,-61.94
17097,-68.55
17109,-73.25
17121,-74.3
17133,-70.44
17145,-61.31
17157,-47.68
17169,-31.18
17181,-13.79
17193,2.69
17205,17.08
17216,28.83
17227,37.89
17239,44.37
17251,48.42
17263,50.17
17275,49.82
17287,47.73
17299,44.46
17311,40.71
17323,37.09
17335,34.11
17347,32.04
17359,30.92
17371,30.61
17383,30.95
17395,31.73
17406,32.84
17417,34.14
17429,35.44
17441,36.4
17453,36.63
17465,35.73
17477,33.54
17489,30.22
17501,26.29
17513,22.37
17525,18.94
17537,16.1
17549,13.52
17561,10.65
17573,6.98
17585,2.3
17596,-3.19
17607,-9.02
17619,-14.64
17631,-19.68
17643,-24.11
17655,-28.25
17667,-32.62
17679,-37.86
17691,-44.43
17703,-52.41
17715,-61.42
17727,-70.38
17739,-77.72
17751,-81.73
17763,-81.0
17775,-74.91
17786,-63.84
17797,-49.1
17809,-32.53
17821,-15.94
17833,-0.74
17845,12.3
17857,22.98
17869,31.42
17881,37.8
17893,42.22
17905,44.77
17917,45.6
17929,45.03
17941,43.55
17953,41.76
17965,40.18
17976,39.14
17987,38.76
17999,38.99
18011,39.62
18023,40.4
18035,41.07
18047,41.38
18059,41.13
18071,40.16
18083,38.41
18095,35.88
18107,32.65
18119,28.79
18131,24.37
18143,19.38
18155,13.8
18166,7.62
18177,1.01
18189,-5.78
18201,-12.36
18213,-18.4
18225,-23.76
18237,-28.58
18249,-33.24
18261,-38.22
18273,-43.93
18285,-50.61
18297,-58.23
18309,-66.36
18321,-74.17
18333,-80.48
18345,-84.05
18356,-83.75
18367,-78.95
18379,-69.6
18391,-56.41
18403,-40.68
18415,-24.07
18427,-8.22
18439,5.52
18451,16.25
18463,23.6
18475,27.77
18487,29.39
18499,29.17
18511,27.77
18523,25.79
18535,23.87
18546,22.67
18557,22.72
18569,24.11
18581,26.55
18593,29.19
18605,30.62
18617,29.36
18629,24.59
18641,16.57
18653,6.4
18665,-4.57
18677,-15.19
18689,-24.09
18701,-29.85
18713,-31.59
18725,-29.21
18736,-23.02
18747,-13.6
18759,-1.89
18771,10.48
18783,21.22
18795,28.58
18807,31.34
18819,28.26
18831,18.2
18843,1.4
18855,-19.92
18867,-42.17
18879,-61.59
18891,-75.32
18903,-80.44
18915,-74.32
18926,-56.01
18937,-26.81
18949,10.58
18961,52.88
18973,96.4
18985,137.52
18997,164.58
19009,167.48
19021,146.54
19033,113.14
19045,80.4
19057,55.52
19069,38.86
19081,26.6
19093,13.69
19105,-1.72
19116,-20.46
19127,-39.94
19139,-56.77
19151,-68.9
19163,-75.98
19175,-78.84
19187,-79.01
19199,-78.12
19211,-76.71
19223,-74.39
19235,-69.82
19247,-62.55
19259,-53.81
19271,-45.6
19283,-39.56
19295,-36.36
19306,-35.78
19317,-37.1
19329,-39.07
19341,-40.26
19353,-40.14
19365,-39.43
19377,-39.23
19389,-40.3
19401,-42.74
19413,-46.1
19425,-49.74
19437,-52.94
19449,-54.94
19461,-55.63
19473,-55.67
19485,-56.08
19496,-57.58
19507,-60.27
19519,-63.43
19531,-65.68
19543,-65.37
19555,-61.03
19567,-52.04
19579,-38.91
19591,-22.93
19603,-5.63
19615,11.75
19627,28.41
19639,43.84
19651,57.57
19663,69.05
19675,77.76
19686,83.47
19697,86.41
19709,87.39
19721,87.53
19733,87.93
19745,89.36
19757,92.12
19769,96.13
19781,101.07
19793,106.64
19805,112.7
19817,119.31
19829,126.72
19841,135.2
19853,144.87
19865,155.48
19876,166.34
19887,176.49
19899,185.01
19911,191.5
19923,196.34
19935,200.76
19947,206.48
19959,215.1
19971,227.51
19983,243.41
19995,261.38
20007,279.04
20019,293.81
20031,303.41
20043,306.41
20055,302.42
20066,292.04
20077,276.55
20089,257.58
20101,236.73
20113,215.28
20125,194.12
20137,173.63
20149,153.82
20161,134.38
20173,114.83
20185,94.69
20197,73.55
20209,51.28
20221,27.93
20233,3.74
20245,-21.05
20256,-46.29
20267,-72.0
20279,-98.26
20291,-125.0
20303,-151.83
20315,-178.0
20327,-202.37
20339,-223.74
20351,-241.02
20363,-253.51
20375,-261.07
20387,-264.07
20399,-263.34
20411,-259.9
20423,-254.66
20435,-248.2
20446,-240.56
20457,-231.38
20469,-220.1
20481,-206.31
20493,-190.01
20505,-171.74
20517,-152.43
20529,-133.23
20541,-115.23
20553,-99.36
20565,-86.16
20577,-75.79
20589,-67.98
20601,-62.07
20613,-57.18
20625,-52.46
20636,-47.2
20647,-41.14
20659,-34.42
20671,-27.51
20683,-20.97
20695,-15.26
20707,-10.6
20719,-6.96
20731,-4.17
20743,-1.98
20755,-0.27
20767,0.98
20779,1.76
20791,2.03
20803,1.86
20815,1.45
20826,1.0
20837,0.67
20849,0.5
20861,0.38
20873,0.17
20885,-0.31
20897,-1.18
20909,-2.58
20921,-4.57
20933,-7.2
20945,-10.49
20957,-14.43
20969,-19.04
20981,-24.38
20993,-30.53
