seconds,BVP
10,6.07
22,5.11
34,4.07
46,2.98
58,1.9
70,0.85
81,-0.14
92,-1.08
104,-1.97
116,-2.81
128,-3.65
140,-4.49
152,-5.29
164,-6.02
176,-6.66
188,-7.24
200,-7.89
212,-8.82
224,-10.14
236,-11.91
248,-14.0
260,-16.19
271,-18.18
282,-19.64
294,-20.27
306,-19.83
318,-18.18
330,-15.3
342,-11.38
354,-6.78
366,-1.98
378,2.48
390,6.18
402,8.9
414,10.62
426,11.54
438,11.91
450,11.96
461,11.84
472,11.58
484,11.17
496,10.64
508,10.04
520,9.46
532,8.97
544,8.57
556,8.21
568,7.86
580,7.57
592,7.43
604,7.55
616,7.93
628,8.44
640,8.83
651,8.81
662,8.18
674,6.94
686,5.26
698,3.41
710,1.7
722,0.3
734,-0.73
746,-1.47
758,-2.05
770,-2.64
782,-3.4
794,-4.38
806,-5.57
818,-6.87
830,-8.13
841,-9.21
852,-10.06
864,-10.71
876,-11.25
888,-11.77
900,-12.27
912,-12.69
924,-12.89
936,-12.77
948,-12.32
960,-11.67
972,-11.05
984,-10.68
996,-10.73
1008,-11.25
1020,-12.12
1031,-13.09
1042,-13.81
1054,-13.93
1066,-13.16
1078,-11.34
1090,-8.49
1102,-4.79
1114,-0.54
1126,3.87
1138,8.05
1150,11.71
1162,14.63
1174,16.68
1186,17.85
1198,18.13
1210,17.59
1221,16.31
1232,14.44
1244,12.22
1256,9.9
1268,7.78
1280,6.08
1292,4.88
1304,4.15
1316,3.83
1328,3.82
1340,4.09
1352,4.57
1364,5.14
1376,5.63
1388,5.85
1400,5.73
1411,5.32
1422,4.81
1434,4.42
1446,4.25
1458,4.28
1470,4.33
1482,4.23
1494,3.83
1506,3.11
1518,2.14
1530,1.0
1542,-0.22
1554,-1.43
1566,-2.58
1578,-3.61
1590,-4.53
1601,-5.38
1612,-6.26
1624,-7.22
1636,-8.3
1648,-9.43
1660,-10.53
1672,-11.55
1684,-12.49
1696,-13.38
1708,-14.33
1720,-15.41
1732,-16.69
1744,-18.15
1756,-19.71
1768,-21.15
1780,-22.16
1791,-22.38
1802,-21.5
1814,-19.34
1826,-15.97
1838,-11.66
1850,-6.83
1862,-1.92
1874,2.71
1886,6.82
1898,10.25
1910,12.93
1922,14.8
1934,15.81
1946,16.01
1958,15.56
1970,14.72
1981,13.77
1992,12.92
2004,12.25
2016,11.7
2028,11.14
2040,10.46
2052,9.68
2064,8.93
2076,8.48
2088,8.54
2100,9.24
2112,10.49
2124,12.06
2136,13.58
2148,14.7
2160,15.19
2171,14.95
2182,14.04
2194,12.59
2206,10.75
2218,8.66
2230,6.42
2242,4.17
2254,2.0
2266,0.03
2278,-1.69
2290,-3.15
2302,-4.43
2314,-5.61
2326,-6.71
2338,-7.76
2350,-8.73
2361,-9.61
2372,-10.4
2384,-11.14
2396,-11.84
2408,-12.53
2420,-13.22
2432,-13.88
2444,-14.44
2456,-14.73
2468,-14.56
2480,-13.74
2492,-12.2
2504,-9.96
2516,-7.18
2528,-4.06
2540,-0.76
2551,2.53
2562,5.65
2574,8.41
2586,10.56
2598,11.95
2610,12.49
2622,12.25
2634,11.41
2646,10.2
2658,8.82
2670,7.44
2682,6.23
2694,5.3
2706,4.77
2718,4.69
2730,5.01
2741,5.6
2752,6.28
2764,6.9
2776,7.32
2788,7.48
2800,7.37
2812,7.01
2824,6.47
2836,5.84
2848,5.22
2860,4.65
2872,4.13
2884,3.58
2896,2.91
2908,2.04
2920,0.97
2931,-0.25
2942,-1.49
2954,-2.64
2966,-3.7
2978,-4.69
2990,-5.73
3002,-6.9
3014,-8.23
3026,-9.68
3038,-11.2
3050,-12.74
3062,-14.27
3074,-15.68
3086,-16.76
3098,-17.11
3110,-16.32
3121,-14.09
3132,-10.41
3144,-5.68
3156,-0.52
3168,4.34
3180,8.38
3192,11.35
3204,13.33
3216,14.56
3228,15.28
3240,15.62
3252,15.61
3264,15.19
3276,14.34
3288,13.11
3300,11.67
3311,10.24
3322,8.98
3334,8.01
3346,7.34
3358,6.95
3370,6.79
3382,6.83
3394,7.05
3406,7.31
3418,7.42
3430,7.12
3442,6.24
3454,4.73
3466,2.78
3478,0.69
3490,-1.25
3501,-2.92
3512,-4.41
3524,-5.9
3536,-7.59
3548,-9.54
3560,-11.61
3572,-13.54
3584,-15.11
3596,-16.25
3608,-17.11
3620,-17.93
3632,-18.94
3644,-20.27
3656,-21.88
3668,-23.65
3680,-25.37
3691,-26.84
3702,-27.78
3714,-27.89
3726,-26.87
3738,-24.55
3750,-20.94
3762,-16.28
3774,-11.02
3786,-5.67
3798,-0.66
3810,3.66
3822,7.11
3834,9.62
3846,11.24
3858,12.12
3870,12.46
3881,12.49
3892,12.35
3904,12.09
3916,11.71
3928,11.19
3940,10.57
3952,9.96
3964,9.49
3976,9.26
3988,9.3
4000,9.57
4012,9.99
4024,10.44
4036,10.79
4048,10.93
4060,10.76
4071,10.25
4082,9.42
4094,8.37
4106,7.23
4118,6.08
4130,4.91
4142,3.64
4154,2.13
4166,0.29
4178,-1.84
4190,-4.1
4202,-6.21
4214,-7.95
4226,-9.24
4238,-10.21
4250,-11.14
4261,-12.36
4272,-14.07
4284,-16.28
4296,-18.71
4308,-20.95
4320,-22.49
4332,-22.87
4344,-21.79
4356,-19.17
4368,-15.15
4380,-10.16
4392,-4.77
4404,0.43
4416,4.98
4428,8.71
4440,11.78
4451,14.49
4462,17.15
4474,19.79
4486,22.14
4498,23.69
4510,24.03
4522,23.01
4534,20.93
4546,18.36
4558,15.92
4570,14.01
4582,12.68
4594,11.69
4606,10.71
4618,9.44
4630,7.75
4641,5.6
4652,3.02
4664,0.0
4676,-3.45
4688,-7.26
4700,-11.24
4712,-15.08
4724,-18.39
4736,-20.84
4748,-22.18
4760,-22.42
4772,-21.72
4784,-20.43
4796,-19.0
4808,-17.84
4820,-17.24
4831,-17.35
4842,-18.13
4854,-19.39
4866,-20.84
4878,-22.09
4890,-22.72
4902,-22.35
4914,-20.67
4926,-17.58
4938,-13.23
4950,-8.02
4962,-2.51
4974,2.67
4986,7.06
4998,10.41
5010,12.68
5021,14.02
5032,14.6
5044,14.58
5056,14.09
5068,13.24
5080,12.2
5092,11.08
5104,10.01
5116,8.99
5128,8.01
5140,7.03
5152,6.11
5164,5.39
5176,5.11
5188,5.46
5200,6.53
5211,8.25
5222,10.37
5234,12.56
5246,14.52
5258,16.09
5270,17.26
5282,18.16
5294,18.95
5306,19.75
5318,20.52
5330,21.12
5342,21.29
5354,20.84
5366,19.67
5378,17.86
5390,15.65
5401,13.28
5412,11.01
5424,8.98
5436,7.17
5448,5.44
5460,3.52
5472,1.11
5484,-2.0
5496,-5.83
5508,-10.1
5520,-14.23
5532,-17.48
5544,-19.18
5556,-18.96
5568,-16.9
5580,-13.49
5591,-9.36
5602,-5.1
5614,-1.06
5626,2.61
5638,5.89
5650,8.66
5662,10.7
5674,11.73
5686,11.62
5698,10.49
5710,8.73
5722,6.91
5734,5.52
5746,4.86
5758,4.93
5770,5.51
5781,6.32
5792,7.12
5804,7.81
5816,8.39
5828,8.92
5840,9.47
5852,10.06
5864,10.69
5876,11.33
5888,11.9
5900,12.29
5912,12.39
5924,12.09
5936,11.42
5948,10.46
5960,9.36
5971,8.23
5982,7.11
5994,5.96
6006,4.74
6018,3.45
6030,2.18
6042,1.03
6054,0.03
6066,-0.89
6078,-1.86
6090,-3.03
6102,-4.44
6114,-6.08
6126,-7.86
6138,-9.76
6150,-11.78
6161,-13.84
6172,-15.72
6184,-16.96
6196,-17.08
6208,-15.72
6220,-12.83
6232,-8.78
6244,-4.17
6256,0.32
6268,4.18
6280,7.08
6292,8.9
6304,9.59
6316,9.12
6328,7.54
6340,4.99
6351,1.79
6362,-1.67
6374,-5.02
6386,-8.02
6398,-10.6
6410,-12.81
6422,-14.67
6434,-16.18
6446,-17.25
6458,-17.81
6470,-17.82
6482,-17.41
6494,-16.74
6506,-16.0
6518,-15.28
6530,-14.59
6541,-13.89
6552,-13.17
6564,-12.45
6576,-11.84
6588,-11.41
6600,-11.17
6612,-11.08
6624,-11.07
6636,-11.07
6648,-11.08
6660,-11.13
6672,-11.22
6684,-11.35
6696,-11.48
6708,-11.62
6720,-11.87
6731,-12.45
6742,-13.58
6754,-15.35
6766,-17.58
6778,-19.81
6790,-21.35
6802,-21.53
6814,-19.96
6826,-16.68
6838,-12.17
6850,-7.12
6862,-2.2
6874,2.16
6886,5.87
6898,9.04
6910,11.83
6921,14.25
6932,16.16
6944,17.38
6956,17.76
6968,17.36
6980,16.45
6992,15.41
7004,14.61
7016,14.26
7028,14.43
7040,14.98
7052,15.71
7064,16.45
7076,17.06
7088,17.49
7100,17.75
7111,17.82
7122,17.73
7134,17.42
7146,16.86
7158,16.0
7170,14.81
7182,13.32
7194,11.61
7206,9.85
7218,8.2
7230,6.79
7242,5.64
7254,4.65
7266,3.62
7278,2.39
7290,0.87
7301,-0.87
7312,-2.66
7324,-4.31
7336,-5.7
7348,-6.81
7360,-7.76
7372,-8.73
7384,-9.94
7396,-11.56
7408,-13.68
7420,-16.19
7432,-18.78
7444,-20.92
7456,-22.01
7468,-21.52
7480,-19.17
7491,-15.03
7502,-9.5
7514,-3.18
7526,3.23
7538,9.1
7550,13.99
7562,17.65
7574,20.05
7586,21.27
7598,21.48
7610,20.84
7622,19.53
7634,17.77
7646,15.8
7658,13.91
7670,12.35
7681,11.22
7692,10.54
7704,10.16
7716,9.96
7728,9.85
7740,9.81
7752,9.84
7764,9.92
7776,9.95
7788,9.79
7800,9.38
7812,8.72
7824,7.91
7836,7.08
7848,6.33
7860,5.64
7871,4.9
7882,3.99
7894,2.82
7906,1.4
7918,-0.15
7930,-1.64
7942,-2.94
7954,-4.0
7966,-4.89
7978,-5.79
7990,-6.85
8002,-8.14
8014,-9.59
8026,-11.05
8038,-12.34
8050,-13.39
8061,-14.21
8072,-14.93
8084,-15.73
8096,-16.78
8108,-18.26
8120,-20.22
8132,-22.59
8144,-25.07
8156,-27.16
8168,-28.23
8180,-27.73
8192,-25.34
8204,-21.13
8216,-15.52
8228,-9.16
8240,-2.74
8251,3.15
8262,8.11
8274,11.93
8286,14.54
8298,16.0
8310,16.46
8322,16.1
8334,15.22
8346,14.04
8358,12.82
8370,11.7
8382,10.81
8394,10.22
8406,9.94
8418,9.95
8430,10.16
8441,10.47
8452,10.78
8464,11.0
8476,11.13
8488,11.14
8500,11.06
8512,10.83
8524,10.4
8536,9.71
8548,8.75
8560,7.58
8572,6.31
8584,5.1
8596,4.04
8608,3.11
8620,2.2
8631,1.18
8642,-0.03
8654,-1.41
8666,-2.87
8678,-4.29
8690,-5.57
8702,-6.72
8714,-7.75
8726,-8.69
8738,-9.53
8750,-10.27
8762,-10.92
8774,-11.57
8786,-12.31
8798,-13.24
8810,-14.37
8821,-15.68
8832,-17.17
8844,-18.88
8856,-20.88
8868,-23.12
8880,-25.34
8892,-27.03
8904,-27.6
8916,-26.56
8928,-23.76
8940,-19.47
8952,-14.27
8964,-8.81
8976,-3.62
8988,1.03
9000,5.03
9011,8.36
9022,10.98
9034,12.77
9046,13.67
9058,13.66
9070,12.89
9082,11.6
9094,10.09
9106,8.61
9118,7.38
9130,6.53
9142,6.15
9154,6.27
9166,6.85
9178,7.8
9190,8.97
9201,10.18
9212,11.26
9224,12.02
9236,12.35
9248,12.18
9260,11.51
9272,10.44
9284,9.1
9296,7.67
9308,6.29
9320,5.02
9332,3.86
9344,2.75
9356,1.63
9368,0.48
9380,-0.68
9391,-1.81
9402,-2.86
9414,-3.77
9426,-4.55
9438,-5.21
9450,-5.81
9462,-6.39
9474,-7.0
9486,-7.67
9498,-8.43
9510,-9.29
9522,-10.29
9534,-11.47
9546,-12.92
9558,-14.63
9570,-16.48
9581,-18.18
9592,-19.3
9604,-19.4
9616,-18.15
9628,-15.49
9640,-11.63
9652,-7.0
9664,-2.09
9676,2.7
9688,7.11
9700,11.01
9712,14.31
9724,16.86
9736,18.48
9748,19.01
9760,18.45
9771,17.0
9782,15.07
9794,13.11
9806,11.49
9818,10.39
9830,9.78
9842,9.53
9854,9.51
9866,9.62
9878,9.86
9890,10.22
9902,10.68
9914,11.13
9926,11.41
9938,11.44
9950,11.17
9961,10.67
9972,10.01
9984,9.21
9996,8.19
10008,6.87
10020,5.2
10032,3.24
10044,1.17
10056,-0.77
10068,-2.41
10080,-3.73
10092,-4.84
10104,-5.95
10116,-7.21
10128,-8.65
10140,-10.17
10151,-11.6
10162,-12.78
10174,-13.65
10186,-14.31
10198,-14.93
10210,-15.72
10222,-16.84
10234,-18.36
10246,-20.23
10258,-22.32
10270,-24.4
10282,-26.13
10294,-27.03
10306,-26.59
10318,-24.43
10330,-20.46
10341,-14.96
10352,-8.6
10364,-2.17
10376,3.62
10388,8.34
10400,11.86
10412,14.3
10424,15.78
10436,16.46
10448,16.41
10460,15.74
10472,14.64
10484,13.34
10496,12.13
10508,11.21
10520,10.7
10531,10.61
10542,10.91
10554,11.49
10566,12.22
10578,12.95
10590,13.54
10602,13.88
10614,13.92
10626,13.73
10638,13.36
10650,12.89
10662,12.3
10674,11.55
10686,10.55
10698,9.26
10710,7.7
10721,5.97
10732,4.17
10744,2.43
10756,0.81
10768,-0.7
10780,-2.11
10792,-3.48
10804,-4.85
10816,-6.23
10828,-7.59
10840,-8.94
10852,-10.23
10864,-11.47
10876,-12.69
10888,-13.91
10900,-15.11
10911,-16.31
10922,-17.57
10934,-18.98
10946,-20.67
10958,-22.7
10970,-24.88
10982,-26.77
10994,-27.7
11006,-27.07
11018,-24.54
11030,-20.21
11042,-14.6
11054,-8.44
11066,-2.41
11078,3.04
11090,7.68
11101,11.45
11112,14.31
11124,16.19
11136,17.04
11148,16.88
11160,15.91
11172,14.46
11184,12.92
11196,11.61
11208,10.72
11220,10.32
11232,10.36
11244,10.73
11256,11.26
11268,11.8
11280,12.23
11291,12.49
11302,12.58
11314,12.53
11326,12.38
11338,12.12
11350,11.7
11362,11.03
11374,10.03
11386,8.71
11398,7.17
11410,5.59
11422,4.12
11434,2.84
11446,1.72
11458,0.62
11470,-0.59
11481,-2.0
11492,-3.6
11504,-5.29
11516,-6.95
11528,-8.45
11540,-9.69
11552,-10.65
11564,-11.34
11576,-11.85
11588,-12.31
11600,-12.88
11612,-13.73
11624,-15.0
11636,-16.76
11648,-18.98
11660,-21.48
11671,-23.9
11682,-25.7
11694,-26.31
11706,-25.27
11718,-22.43
11730,-18.02
11742,-12.61
11754,-6.92
11766,-1.59
11778,3.0
11790,6.73
11802,9.65
11814,11.85
11826,13.39
11838,14.22
11850,14.3
11861,13.66
11872,12.43
11884,10.86
11896,9.27
11908,7.95
11920,7.09
11932,6.75
11944,6.87
11956,7.32
11968,7.98
11980,8.69
11992,9.35
12004,9.86
12016,10.13
12028,10.12
12040,9.8
12051,9.23
12062,8.45
12074,7.53
12086,6.51
12098,5.37
12110,4.11
12122,2.73
12134,1.28
12146,-0.14
12158,-1.41
12170,-2.44
12182,-3.24
12194,-3.91
12206,-4.61
12218,-5.46
12230,-6.49
12241,-7.64
12252,-8.77
12264,-9.75
12276,-10.53
12288,-11.17
12300,-11.78
12312,-12.51
12324,-13.51
12336,-14.88
12348,-16.59
12360,-18.44
12372,-20.02
12384,-20.76
12396,-20.14
12408,-17.8
12420,-13.72
12431,-8.19
12442,-1.75
12454,4.97
12466,11.37
12478,16.95
12490,21.35
12502,24.35
12514,25.89
12526,26.07
12538,25.13
12550,23.4
12562,21.23
12574,18.96
12586,16.86
12598,15.17
12610,13.99
12621,13.3
12632,12.93
12644,12.64
12656,12.2
12668,11.49
12680,10.56
12692,9.58
12704,8.8
12716,8.41
12728,8.44
12740,8.79
12752,9.19
12764,9.34
12776,8.98
12788,7.95
12800,6.24
12811,3.94
12822,1.2
12834,-1.82
12846,-4.99
12858,-8.15
12870,-11.07
12882,-13.47
12894,-15.11
12906,-15.85
12918,-15.82
12930,-15.29
12942,-14.64
12954,-14.22
12966,-14.22
12978,-14.74
12990,-15.73
13001,-17.07
13012,-18.45
13024,-19.44
13036,-19.51
13048,-18.18
13060,-15.29
13072,-11.01
13084,-5.87
13096,-0.53
13108,4.41
13120,8.56
13132,11.72
13144,13.8
13156,14.75
13168,14.6
13180,13.5
13191,11.78
13202,9.84
13214,8.11
13226,6.85
13238,6.12
13250,5.85
13262,5.9
13274,6.17
13286,6.6
13298,7.14
13310,7.72
13322,8.2
13334,8.47
13346,8.47
13358,8.21
13370,7.77
13381,7.17
13392,6.41
13404,5.4
13416,4.08
13428,2.44
13440,0.58
13452,-1.36
13464,-3.23
13476,-4.97
13488,-6.61
13500,-8.2
13512,-9.79
13524,-11.34
13536,-12.81
13548,-14.14
13560,-15.31
13571,-16.35
13582,-17.31
13594,-18.25
13606,-19.22
13618,-20.39
13630,-21.96
13642,-24.16
13654,-27.04
13666,-30.34
13678,-33.45
13690,-35.52
13702,-35.73
13714,-33.55
13726,-28.93
13738,-22.35
13750,-14.6
13761,-6.6
13772,0.82
13784,7.02
13796,11.66
13808,14.64
13820,16.15
13832,16.56
13844,16.33
13856,15.87
13868,15.46
13880,15.16
13892,14.89
13904,14.57
13916,14.17
13928,13.83
13940,13.82
13951,14.35
13962,15.55
13974,17.33
13986,19.41
13998,21.42
14010,23.0
14022,23.91
14034,24.03
14046,23.44
14058,22.23
14070,20.57
14082,18.6
14094,16.42
14106,14.1
14118,11.67
14130,9.14
14141,6.52
14152,3.82
14164,1.06
14176,-1.75
14188,-4.6
14200,-7.43
14212,-10.15
14224,-12.59
14236,-14.59
14248,-16.05
14260,-17.01
14272,-17.63
14284,-18.2
14296,-19.05
14308,-20.46
14320,-22.55
14331,-25.28
14342,-28.31
14354,-31.14
14366,-33.13
14378,-33.67
14390,-32.38
14402,-29.19
14414,-24.39
14426,-18.56
14438,-12.37
14450,-6.47
14462,-1.33
14474,2.81
14486,5.95
14498,8.19
14510,9.74
14521,10.84
14532,11.63
14544,12.21
14556,12.57
14568,12.64
14580,12.37
14592,11.78
14604,11.03
14616,10.38
14628,10.13
14640,10.46
14652,11.38
14664,12.68
14676,14.05
14688,15.18
14700,15.88
14711,16.1
14722,15.86
14734,15.22
14746,14.2
14758,12.87
14770,11.34
14782,9.78
14794,8.37
14806,7.21
14818,6.28
14830,5.43
14842,4.48
14854,3.24
14866,1.63
14878,-0.28
14890,-2.31
14901,-4.16
14912,-5.5
14924,-6.09
14936,-5.85
14948,-5.03
14960,-4.1
14972,-3.72
14984,-4.49
14996,-6.82
15008,-10.75
15020,-15.93
15032,-21.61
15044,-26.73
15056,-30.1
15068,-30.63
15080,-27.64
15091,-21.14
15102,-11.84
15114,-1.04
15126,9.78
15138,19.34
15150,26.86
15162,32.15
15174,35.39
15186,36.95
15198,37.14
15210,36.17
15222,34.27
15234,31.73
15246,28.92
15258,26.25
15270,23.98
15281,22.24
15292,20.92
15304,19.83
15316,18.8
15328,17.72
15340,16.59
15352,15.45
15364,14.33
15376,13.15
15388,11.84
15400,10.28
15412,8.43
15424,6.3
15436,3.92
15448,1.38
15460,-1.22
15471,-3.77
15482,-6.12
15494,-8.16
15506,-9.8
15518,-11.02
15530,-11.89
15542,-12.55
15554,-13.17
15566,-13.9
15578,-14.81
15590,-15.92
15602,-17.12
15614,-18.24
15626,-19.06
15638,-19.37
15650,-19.04
15661,-18.11
15672,-16.82
15684,-15.58
15696,-14.87
15708,-15.09
15720,-16.41
15732,-18.66
15744,-21.38
15756,-23.88
15768,-25.48
15780,-25.72
15792,-24.46
15804,-21.89
15816,-18.42
15828,-14.54
15840,-10.65
15851,-7.06
15862,-3.96
15874,-1.51
15886,0.16
15898,0.99
15910,1.0
15922,0.3
15934,-0.84
15946,-2.09
15958,-3.11
15970,-3.63
15982,-3.56
15994,-2.94
16006,-1.94
16018,-0.78
16030,0.4
16041,1.51
16052,2.57
16064,3.57
16076,4.5
16088,5.26
16100,5.78
16112,6.03
16124,6.02
16136,5.83
16148,5.51
16160,5.05
16172,4.48
16184,3.81
16196,3.08
16208,2.34
16220,1.61
16231,0.86
16242,0.05
16254,-0.84
16266,-1.77
16278,-2.67
16290,-3.52
16302,-4.37
16314,-5.33
16326,-6.53
16338,-8.02
16350,-9.8
16362,-11.79
16374,-13.89
16386,-16.0
16398,-17.97
16410,-19.5
16421,-20.22
16432,-19.69
16444,-17.61
16456,-13.96
16468,-9.07
16480,-3.52
16492,2.02
16504,7.02
16516,11.2
16528,14.48
16540,16.91
16552,18.5
16564,19.24
16576,19.14
16588,18.32
16600,17.02
16611,15.59
16622,14.35
16634,13.52
16646,13.16
16658,13.2
16670,13.52
16682,13.99
16694,14.51
16706,14.98
16718,15.33
16730,15.49
16742,15.43
16754,15.19
16766,14.79
16778,14.25
16790,13.52
16801,12.51
16812,11.14
16824,9.38
16836,7.32
16848,5.15
16860,3.1
16872,1.38
16884,0.03
16896,-1.03
16908,-2.02
16920,-3.16
16932,-4.57
16944,-6.23
16956,-8.01
16968,-9.76
16980,-11.35
16991,-12.77
17002,-14.07
17014,-15.32
17026,-16.6
17038,-17.96
17050,-19.44
17062,-21.0
17074,-22.53
17086,-23.81
17098,-24.5
17110,-24.22
17122,-22.68
17134,-19.74
17146,-15.55
17158,-10.44
17170,-4.89
17181,0.59
17192,5.55
17204,9.68
17216,12.75
17228,14.63
17240,15.26
17252,14.72
17264,13.24
17276,11.2
17288,9.08
17300,7.31
17312,6.16
17324,5.68
17336,5.75
17348,6.16
17360,6.72
17371,7.32
17382,7.94
17394,8.54
17406,9.12
17418,9.63
17430,10.01
17442,10.2
17454,10.16
17466,9.86
17478,9.28
17490,8.39
17502,7.2
17514,5.78
17526,4.2
17538,2.6
17550,1.1
17561,-0.19
17572,-1.21
17584,-2.0
17596,-2.65
17608,-3.34
17620,-4.2
17632,-5.29
17644,-6.58
17656,-7.96
17668,-9.29
17680,-10.5
17692,-11.62
17704,-12.78
17716,-14.2
17728,-16.01
17740,-18.17
17751,-20.41
17762,-22.26
17774,-23.17
17786,-22.7
17798,-20.64
17810,-17.15
17822,-12.64
17834,-7.65
17846,-2.75
17858,1.69
17870,5.43
17882,8.35
17894,10.41
17906,11.62
17918,12.03
17930,11.81
17941,11.18
17952,10.45
17964,9.85
17976,9.53
17988,9.51
18000,9.7
18012,9.97
18024,10.23
18036,10.46
18048,10.7
18060,11.0
18072,11.33
18084,11.61
18096,11.68
18108,11.4
18120,10.69
18131,9.56
18142,8.11
18154,6.48
18166,4.81
18178,3.23
18190,1.78
18202,0.5
18214,-0.63
18226,-1.67
18238,-2.69
18250,-3.82
18262,-5.11
18274,-6.58
18286,-8.13
18298,-9.66
18310,-11.07
18321,-12.37
18332,-13.7
18344,-15.21
18356,-16.95
18368,-18.74
18380,-20.17
18392,-20.65
18404,-19.72
18416,-17.14
18428,-13.12
18440,-8.13
18452,-2.82
18464,2.29
18476,6.85
18488,10.67
18500,13.65
18511,15.68
18522,16.66
18534,16.59
18546,15.68
18558,14.31
18570,12.87
18582,11.65
18594,10.73
18606,10.06
18618,9.52
18630,9.1
18642,8.87
18654,8.91
18666,9.24
18678,9.71
18690,10.14
18701,10.31
18712,10.12
18724,9.56
18736,8.66
18748,7.48
18760,6.09
18772,4.57
18784,3.02
18796,1.57
18808,0.26
18820,-0.9
18832,-2.01
18844,-3.19
18856,-4.5
18868,-5.96
18880,-7.51
18891,-9.08
18902,-10.58
18914,-11.98
18926,-13.24
18938,-14.35
18950,-15.34
18962,-16.28
18974,-17.3
18986,-18.5
18998,-19.88
19010,-21.23
19022,-22.16
19034,-22.21
19046,-21.01
19058,-18.43
19070,-14.62
19081,-9.98
19092,-5.0
19104,-0.1
19116,4.4
19128,8.33
19140,11.6
19152,14.11
19164,15.77
19176,16.53
19188,16.42
19200,15.6
19212,14.34
19224,12.89
19236,11.49
19248,10.3
19260,9.37
19271,8.75
19282,8.46
19294,8.52
19306,8.89
19318,9.49
19330,10.15
19342,10.67
19354,10.88
19366,10.69
19378,10.09
19390,9.18
19402,8.12
19414,7.02
19426,5.99
19438,5.01
19450,4.02
19461,2.91
19472,1.61
19484,0.12
19496,-1.51
19508,-3.15
19520,-4.69
19532,-6.07
19544,-7.23
19556,-8.19
19568,-8.98
19580,-9.67
19592,-10.39
19604,-11.33
19616,-12.67
19628,-14.48
19640,-16.61
19651,-18.64
19662,-19.97
19674,-20.01
19686,-18.43
19698,-15.28
19710,-11.02
19722,-6.27
19734,-1.65
19746,2.48
19758,5.96
19770,8.77
19782,10.87
19794,12.18
19806,12.6
19818,12.14
19830,11.0
19841,9.53
19852,8.12
19864,7.05
19876,6.44
19888,6.23
19900,6.32
19912,6.57
19924,6.93
19936,7.35
19948,7.81
19960,8.27
19972,8.66
19984,8.92
19996,8.96
20008,8.74
20020,8.18
20031,7.26
20042,5.99
20054,4.4
20066,2.56
20078,0.59
20090,-1.41
20102,-3.26
20114,-4.79
20126,-5.85
20138,-6.37
20150,-6.43
20162,-6.21
20174,-5.99
20186,-6.04
20198,-6.58
20210,-7.68
20221,-9.27
20232,-11.11
20244,-12.85
20256,-14.04
20268,-14.23
20280,-13.06
20292,-10.39
20304,-6.38
20316,-1.44
20328,3.81
20340,8.77
20352,13.01
20364,16.35
20376,18.81
20388,20.47
20400,21.38
20411,21.54
20422,20.95
20434,19.72
20446,18.12
20458,16.49
20470,15.14
20482,14.19
20494,13.57
20506,13.05
20518,12.44
20530,11.68
20542,10.87
20554,10.17
20566,9.7
20578,9.44
20590,9.23
20601,8.87
20612,8.16
20624,7.02
20636,5.51
20648,3.75
20660,1.89
20672,-0.03
20684,-2.05
20696,-4.31
20708,-6.95
20720,-10.01
20732,-13.38
20744,-16.84
20756,-20.09
20768,-22.9
20780,-25.14
20791,-26.85
20802,-28.18
20814,-29.4
20826,-30.8
20838,-32.55
20850,-34.64
20862,-36.76
20874,-38.31
20886,-38.64
20898,-37.19
20910,-33.77
20922,-28.6
20934,-22.23
20946,-15.34
20958,-8.55
20970,-2.34
20981,2.97
20992,7.18
