seconds,BVP
0,4.48
12,9.55
24,13.2
36,15.64
48,17.18
60,18.09
72,18.52
84,18.51
96,18.06
108,17.15
119,15.81
130,14.22
142,12.7
154,11.61
166,11.23
178,11.63
190,12.6
202,13.77
214,14.79
226,15.46
238,15.8
250,15.92
262,15.91
274,15.73
286,15.24
298,14.34
309,13.05
320,11.53
332,10.04
344,8.75
356,7.7
368,6.77
380,5.77
392,4.6
404,3.26
416,1.85
428,0.53
440,-0.58
452,-1.43
464,-2.08
476,-2.61
488,-3.08
499,-3.52
510,-3.89
522,-4.17
534,-4.42
546,-4.75
558,-5.34
570,-6.3
582,-7.63
594,-9.23
606,-10.91
618,-12.51
630,-13.97
642,-15.31
654,-16.64
666,-18.1
678,-19.83
689,-21.91
700,-24.3
712,-26.69
724,-28.56
736,-29.22
748,-28.03
760,-24.69
772,-19.39
784,-12.78
796,-5.79
808,0.7
820,6.11
832,10.2
844,13.02
856,14.75
868,15.52
879,15.47
890,14.69
902,13.37
914,11.81
926,10.37
938,9.39
950,9.05
962,9.34
974,10.09
986,11.05
998,12.03
1010,12.95
1022,13.84
1034,14.74
1046,15.6
1058,16.26
1069,16.49
1080,16.08
1092,14.97
1104,13.31
1116,11.41
1128,9.6
1140,8.13
1152,7.07
1164,6.3
1176,5.64
1188,4.84
1200,3.74
1212,2.26
1224,0.43
1236,-1.65
1248,-3.83
1259,-5.97
1270,-7.95
1282,-9.71
1294,-11.21
1306,-12.47
1318,-13.56
1330,-14.55
1342,-15.55
1354,-16.63
1366,-17.83
1378,-19.22
1390,-20.82
1402,-22.69
1414,-24.8
1426,-27.0
1438,-28.92
1449,-29.96
1460,-29.47
1472,-26.95
1484,-22.3
1496,-15.93
1508,-8.65
1520,-1.38
1532,5.09
1544,10.31
1556,14.25
1568,17.1
1580,19.09
1592,20.31
1604,20.76
1616,20.35
1628,19.12
1639,17.28
1650,15.24
1662,13.41
1674,12.12
1686,11.48
1698,11.44
1710,11.83
1722,12.51
1734,13.42
1746,14.47
1758,15.54
1770,16.38
1782,16.7
1794,16.28
1806,15.17
1818,13.61
1829,12.04
1840,10.77
1852,9.92
1864,9.31
1876,8.57
1888,7.39
1900,5.66
1912,3.52
1924,1.26
1936,-0.8
1948,-2.45
1960,-3.65
1972,-4.52
1984,-5.24
1996,-6.05
2008,-7.16
2019,-8.68
2030,-10.62
2042,-12.82
2054,-15.02
2066,-16.96
2078,-18.51
2090,-19.73
2102,-20.93
2114,-22.53
2126,-24.89
2138,-28.17
2150,-32.19
2162,-36.42
2174,-40.12
2186,-42.45
2198,-42.77
2209,-40.76
2220,-36.61
2232,-30.93
2244,-24.55
2256,-18.25
2268,-12.58
2280,-7.79
2292,-3.9
2304,-0.82
2316,1.49
2328,3.02
2340,3.74
2352,3.64
2364,2.76
2376,1.2
2388,-0.98
2399,-3.72
2410,-6.89
2422,-10.25
2434,-13.32
2446,-15.49
2458,-16.2
2470,-15.12
2482,-12.26
2494,-7.98
2506,-2.81
2518,2.65
2530,7.92
2542,12.68
2554,16.73
2566,19.98
2578,22.4
2589,24.04
2600,25.06
2612,25.7
2624,26.27
2636,27.1
2648,28.42
2660,30.33
2672,32.72
2684,35.25
2696,37.43
2708,38.68
2720,38.63
2732,37.32
2744,35.36
2756,33.85
2768,33.94
2779,36.31
2790,40.78
2802,46.19
2814,50.96
2826,53.64
2838,53.52
2850,50.65
2862,45.57
2874,38.87
2886,31.09
2898,22.76
2910,14.74
2922,8.22
2934,4.33
2946,3.54
2958,5.3
2969,8.23
2980,10.79
2992,12.03
3004,12.0
3016,11.36
3028,10.79
3040,10.5
3052,10.14
3064,9.14
3076,7.27
3088,4.85
3100,2.61
3112,1.36
3124,1.54
3136,3.14
3148,5.78
3159,8.87
3170,11.95
3182,14.71
3194,16.96
3206,18.42
3218,18.58
3230,16.67
3242,11.95
3254,4.17
3266,-6.13
3278,-17.49
3290,-27.97
3302,-35.84
3314,-40.22
3326,-41.33
3338,-40.25
3349,-38.28
3360,-36.43
3372,-35.12
3384,-34.22
3396,-33.37
3408,-32.33
3420,-31.07
3432,-29.78
3444,-28.73
3456,-28.11
3468,-27.94
3480,-28.02
3492,-28.05
3504,-27.71
3516,-26.86
3528,-25.49
3539,-23.63
3550,-21.2
3562,-17.99
3574,-13.74
3586,-8.33
3598,-1.9
3610,5.17
3622,12.47
3634,19.75
3646,26.97
3658,34.11
3670,41.02
3682,47.23
3694,52.01
3706,54.58
3718,54.45
3729,51.51
3740,46.22
3752,39.43
3764,32.26
3776,25.86
3788,21.08
3800,18.28
3812,17.23
3824,17.25
3836,17.46
3848,17.11
3860,15.71
3872,13.06
3884,9.11
3896,3.92
3908,-2.35
3919,-9.41
3930,-16.96
3942,-24.94
3954,-33.73
3966,-44.13
3978,-56.91
3990,-72.03
4002,-88.05
4014,-102.11
4026,-110.75
4038,-111.22
4050,-102.76
4062,-87.09
4074,-68.01
4086,-49.99
4098,-36.67
4109,-29.77
4120,-28.9
4132,-31.99
4144,-36.35
4156,-39.48
4168,-39.57
4180,-35.68
4192,-27.61
4204,-15.8
4216,-1.27
4228,14.56
4240,30.01
4252,43.59
4264,54.3
4276,62.04
4288,67.59
4299,72.37
4310,77.84
4322,84.87
4334,93.31
4346,101.98
4358,109.14
4370,113.24
4382,113.66
4394,110.98
4406,106.59
4418,101.96
4430,97.96
4442,94.44
4454,90.53
4466,85.17
4478,77.72
4489,68.21
4500,57.13
4512,45.21
4524,33.08
4536,21.3
4548,10.43
4560,1.01
4572,-6.58
4584,-12.37
4596,-16.84
4608,-20.8
4620,-24.99
4632,-29.74
4644,-34.88
4656,-39.95
4668,-44.49
4679,-48.33
4690,-51.51
4702,-54.13
4714,-56.06
4726,-56.92
4738,-56.37
4750,-54.31
4762,-51.18
4774,-47.76
4786,-44.87
4798,-42.94
4810,-41.91
4822,-41.35
4834,-40.83
4846,-40.26
4858,-39.97
4869,-40.5
4880,-42.28
4892,-45.28
4904,-48.97
4916,-52.44
4928,-54.82
4940,-55.56
4952,-54.61
4964,-52.37
4976,-49.46
4988,-46.57
5000,-44.17
5012,-42.54
5024,-41.73
5036,-41.59
5048,-41.85
5059,-42.19
5070,-42.22
5082,-41.61
5094,-40.12
5106,-37.69
5118,-34.47
5130,-30.77
5142,-27.04
5154,-23.77
5166,-21.36
5178,-20.13
5190,-20.15
5202,-21.3
5214,-23.18
5226,-25.26
5238,-26.92
5249,-27.66
5260,-27.1
5272,-25.04
5284,-21.44
5296,-16.36
5308,-10.0
5320,-2.61
5332,5.41
5344,13.57
5356,21.31
5368,28.02
5380,33.22
5392,36.63
5404,38.22
5416,38.21
5428,36.94
5439,34.8
5450,32.07
5462,28.98
5474,25.7
5486,22.44
5498,19.48
5510,17.12
5522,15.58
5534,14.86
5546,14.72
5558,14.71
5570,14.36
5582,13.28
5594,11.33
5606,8.56
5618,5.2
5629,1.53
5640,-2.18
5652,-5.74
5664,-9.03
5676,-11.96
5688,-14.49
5700,-16.63
5712,-18.46
5724,-20.09
5736,-21.64
5748,-23.17
5760,-24.65
5772,-26.03
5784,-27.29
5796,-28.55
5808,-30.04
5819,-32.01
5830,-34.56
5842,-37.5
5854,-40.27
5866,-42.11
5878,-42.23
5890,-40.08
5902,-35.57
5914,-29.01
5926,-21.07
5938,-12.53
5950,-4.19
5962,3.34
5974,9.63
5986,14.48
5998,17.85
6009,19.83
6020,20.62
6032,20.48
6044,19.78
6056,18.98
6068,18.54
6080,18.82
6092,19.87
6104,21.46
6116,23.15
6128,24.45
6140,25.1
6152,25.15
6164,24.87
6176,24.67
6188,24.73
6199,25.0
6210,25.16
6222,24.82
6234,23.71
6246,21.79
6258,19.23
6270,16.32
6282,13.35
6294,10.54
6306,8.04
6318,5.96
6330,4.29
6342,2.96
6354,1.79
6366,0.55
6378,-1.01
6389,-2.94
6400,-5.14
6412,-7.33
6424,-9.26
6436,-10.81
6448,-12.05
6460,-13.2
6472,-14.53
6484,-16.18
6496,-18.21
6508,-20.62
6520,-23.38
6532,-26.43
6544,-29.56
6556,-32.28
6568,-33.84
6579,-33.45
6590,-30.52
6602,-25.05
6614,-17.66
6626,-9.49
6638,-1.8
6650,4.47
6662,8.88
6674,11.61
6686,13.15
6698,14.01
6710,14.42
6722,14.32
6734,13.44
6746,11.58
6758,8.74
6769,5.24
6780,1.68
6792,-1.26
6804,-2.93
6816,-2.89
6828,-0.95
6840,2.65
6852,7.21
6864,11.52
6876,14.02
6888,13.25
6900,8.38
6912,-0.24
6924,-11.04
6936,-21.57
6948,-29.16
6959,-31.77
6970,-28.47
6982,-19.64
6994,-6.58
7006,8.83
7018,24.75
7030,39.67
7042,52.63
7054,63.2
7066,71.41
7078,77.56
7090,81.97
7102,84.81
7114,86.08
7126,85.72
7138,83.79
7149,80.71
7160,77.16
7172,73.86
7184,71.29
7196,69.47
7208,68.04
7220,66.51
7232,64.69
7244,62.8
7256,61.45
7268,61.34
7280,62.82
7292,65.73
7304,69.47
7316,73.21
7328,76.33
7339,78.52
7350,79.79
7362,80.31
7374,80.17
7386,79.17
7398,76.73
7410,72.12
7422,64.74
7434,54.47
7446,41.94
7458,28.38
7470,15.31
7482,3.91
7494,-5.37
7506,-12.97
7518,-19.88
7529,-27.14
7540,-35.24
7552,-44.06
7564,-52.89
7576,-61.0
7588,-67.91
7600,-73.57
7612,-78.17
7624,-81.88
7636,-84.64
7648,-86.04
7660,-85.51
7672,-82.39
7684,-76.09
7696,-66.16
7708,-52.47
7719,-35.4
7730,-16.09
7742,3.58
7754,21.3
7766,34.96
7778,43.23
7790,45.86
7802,43.55
7814,37.43
7826,28.44
7838,17.12
7850,3.66
7862,-11.66
7874,-28.13
7886,-44.61
7898,-59.83
7909,-72.82
7920,-83.13
7932,-90.78
7944,-95.98
7956,-98.82
7968,-99.19
7980,-97.01
7992,-92.57
8004,-86.69
8016,-80.63
8028,-75.72
8040,-72.83
8052,-72.04
8064,-72.7
8076,-73.69
8088,-73.9
8099,-72.54
8110,-69.37
8122,-64.53
8134,-58.44
8146,-51.57
8158,-44.28
8170,-36.68
8182,-28.46
8194,-18.89
8206,-6.95
8218,8.33
8230,27.43
8242,49.92
8254,74.43
8266,98.97
8278,121.43
8289,140.13
8300,154.12
8312,163.19
8324,167.58
8336,167.84
8348,164.63
8360,158.66
8372,150.65
8384,141.13
8396,130.46
8408,118.84
8420,106.52
8432,93.95
8444,81.7
8456,70.21
8468,59.48
8479,49.0
8490,38.16
8502,26.82
8514,15.61
8526,5.77
8538,-1.57
8550,-6.15
8562,-8.9
8574,-11.42
8586,-15.18
8598,-20.67
8610,-27.28
8622,-33.81
8634,-39.33
8646,-43.71
8658,-47.61
8669,-51.78
8680,-56.42
8692,-60.92
8704,-64.07
8716,-64.74
8728,-62.36
8740,-57.25
8752,-50.34
8764,-42.72
8776,-35.21
8788,-28.03
8800,-20.85
8812,-12.94
8824,-3.39
8836,8.57
8848,23.35
8859,40.78
8870,60.02
8882,79.56
8894,97.45
8906,111.66
8918,120.48
8930,122.89
8942,118.65
8954,108.25
8966,92.68
8978,73.18
8990,51.05
9002,27.5
9014,3.61
9026,-19.74
9038,-41.96
9049,-62.79
9060,-82.28
9072,-100.62
9084,-118.05
9096,-134.59
9108,-149.98
9120,-163.66
9132,-174.81
9144,-182.6
9156,-186.39
9168,-186.02
9180,-181.94
9192,-175.21
9204,-167.2
9216,-159.16
9228,-151.77
9239,-144.9
9250,-137.74
9262,-129.16
9274,-118.23
9286,-104.63
9298,-88.67
9310,-71.19
9322,-53.16
9334,-35.37
9346,-18.27
9358,-1.97
9370,13.68
9382,28.84
9394,43.58
9406,57.67
9418,70.65
9429,81.93
9440,91.04
9452,97.85
9464,102.73
9476,106.44
9488,109.97
9500,114.11
9512,119.19
9524,124.81
9536,129.81
9548,132.59
9560,131.53
9572,125.71
9584,115.21
9596,101.33
9608,86.15
9619,71.85
9630,60.03
9642,51.24
9654,44.99
9666,40.16
9678,35.65
9690,30.74
9702,25.39
9714,19.97
9726,14.97
9738,10.61
9750,6.73
9762,2.94
9774,-1.14
9786,-5.6
9798,-10.23
9809,-14.63
9820,-18.57
9832,-22.12
9844,-25.62
9856,-29.42
9868,-33.61
9880,-37.91
9892,-41.73
9904,-44.54
9916,-46.1
9928,-46.63
9940,-46.65
9952,-46.79
9964,-47.47
9976,-48.84
9988,-50.67
9999,-52.59
10010,-54.12
10022,-54.87
10034,-54.59
10046,-53.14
10058,-50.56
10070,-46.97
10082,-42.55
10094,-37.56
10106,-32.24
10118,-26.8
10130,-21.36
10142,-15.99
10154,-10.71
10166,-5.53
10178,-0.39
10189,4.89
10200,10.65
10212,17.41
10224,25.62
10236,35.57
10248,47.13
10260,59.79
10272,72.72
10284,84.91
10296,95.37
10308,103.2
10320,107.77
10332,108.78
10344,106.41
10356,101.24
10368,94.18
10379,86.23
10390,78.17
10402,70.39
10414,62.83
10426,55.11
10438,46.82
10450,37.68
10462,27.67
10474,16.98
10486,5.96
10498,-5.05
10510,-15.75
10522,-25.87
10534,-35.16
10546,-43.39
10558,-50.3
10569,-55.74
10580,-59.71
10592,-62.36
10604,-63.92
10616,-64.58
10628,-64.47
10640,-63.6
10652,-62.09
10664,-60.18
10676,-58.34
10688,-57.11
10700,-56.88
10712,-57.66
10724,-59.02
10736,-60.18
10748,-60.26
10759,-58.53
10770,-54.57
10782,-48.37
10794,-40.37
10806,-31.33
10818,-22.24
10830,-14.09
10842,-7.67
10854,-3.41
10866,-1.31
10878,-1.0
10890,-1.86
10902,-3.19
10914,-4.27
10926,-4.5
10938,-3.38
10949,-0.58
10960,3.92
10972,9.84
10984,16.62
10996,23.56
11008,29.99
11020,35.4
11032,39.5
11044,42.25
11056,43.79
11068,44.34
11080,44.11
11092,43.18
11104,41.55
11116,39.19
11128,36.19
11139,32.83
11150,29.62
11162,27.13
11174,25.73
11186,25.42
11198,25.76
11210,26.06
11222,25.55
11234,23.73
11246,20.43
11258,15.85
11270,10.42
11282,4.64
11294,-1.01
11306,-6.2
11318,-10.84
11329,-15.16
11340,-19.61
11352,-24.82
11364,-31.3
11376,-39.23
11388,-48.34
11400,-57.96
11412,-67.1
11424,-74.73
11436,-79.94
11448,-82.1
11460,-80.99
11472,-76.82
11484,-70.28
11496,-62.39
11508,-54.31
11519,-47.02
11530,-41.07
11542,-36.52
11554,-33.02
11566,-30.12
11578,-27.49
11590,-25.07
11602,-23.05
11614,-21.65
11626,-20.99
11638,-20.96
11650,-21.27
11662,-21.56
11674,-21.51
11686,-20.96
11698,-19.88
11709,-18.41
11720,-16.67
11732,-14.73
11744,-12.5
11756,-9.8
11768,-6.46
11780,-2.45
11792,2.02
11804,6.49
11816,10.37
11828,13.2
11840,14.73
11852,15.03
11864,14.32
11876,12.87
11888,10.9
11899,8.54
11910,5.97
11922,3.48
11934,1.51
11946,0.52
11958,0.89
11970,2.76
11982,5.96
11994,10.09
12006,14.55
12018,18.65
12030,21.73
12042,23.29
12054,23.1
12066,21.35
12078,18.59
12089,15.61
12100,13.21
12112,11.95
12124,11.97
12136,13.09
12148,14.89
12160,16.94
12172,18.84
12184,20.33
12196,21.23
12208,21.44
12220,21.0
12232,20.03
12244,18.74
12256,17.34
12268,16.0
12279,14.73
12290,13.53
12302,12.43
12314,11.58
12326,11.2
12338,11.51
12350,12.58
12362,14.15
12374,15.78
12386,16.95
12398,17.3
12410,16.77
12422,15.54
12434,13.94
12446,12.28
12458,10.66
12469,9.03
12480,7.28
12492,5.32
12504,3.21
12516,1.04
12528,-1.12
12540,-3.31
12552,-5.69
12564,-8.42
12576,-11.56
12588,-14.98
12600,-18.44
12612,-21.65
12624,-24.44
12636,-26.79
12648,-28.87
12659,-30.95
12670,-33.29
12682,-36.08
12694,-39.38
12706,-43.13
12718,-47.14
12730,-51.09
12742,-54.43
12754,-56.56
12766,-56.89
12778,-55.07
12790,-51.09
12802,-45.36
12814,-38.58
12826,-31.58
12838,-25.11
12849,-19.75
12860,-15.81
12872,-13.41
12884,-12.46
12896,-12.73
12908,-13.91
12920,-15.62
12932,-17.48
12944,-19.12
12956,-20.25
12968,-20.69
12980,-20.42
12992,-19.56
13004,-18.31
13016,-16.91
13028,-15.53
13039,-14.27
13050,-13.15
13062,-12.14
13074,-11.19
13086,-10.27
13098,-9.32
13110,-8.23
13122,-6.83
13134,-4.84
13146,-2.04
13158,1.79
13170,6.67
13182,12.43
13194,18.58
13206,24.34
13218,28.82
13229,31.27
13240,31.32
13252,29.09
13264,25.16
13276,20.32
13288,15.29
13300,10.55
13312,6.22
13324,2.25
13336,-1.5
13348,-5.08
13360,-8.44
13372,-11.49
13384,-14.22
13396,-16.78
13408,-19.48
13419,-22.74
13430,-26.84
13442,-31.83
13454,-37.31
13466,-42.49
13478,-46.38
13490,-48.06
13502,-47.0
13514,-43.22
13526,-37.21
13538,-29.74
13550,-21.61
13562,-13.4
13574,-5.54
13586,1.71
13598,8.06
13609,13.24
13620,17.01
13632,19.3
13644,20.24
13656,20.16
13668,19.47
13680,18.58
13692,17.86
13704,17.62
13716,18.1
13728,19.44
13740,21.59
13752,24.28
13764,27.13
13776,29.76
13788,31.93
13799,33.61
13810,34.91
13822,35.9
13834,36.58
13846,36.78
13858,36.36
13870,35.29
13882,33.73
13894,32.01
13906,30.41
13918,29.06
13930,27.92
13942,26.85
13954,25.69
13966,24.42
13978,23.06
13989,21.66
14000,20.26
14012,18.84
14024,17.41
14036,15.96
14048,14.53
14060,13.11
14072,11.6
14084,9.87
14096,7.83
14108,5.48
14120,2.99
14132,0.57
14144,-1.6
14156,-3.51
14168,-5.31
14179,-7.28
14190,-9.7
14202,-12.75
14214,-16.51
14226,-20.93
14238,-25.87
14250,-31.02
14262,-35.8
14274,-39.37
14286,-40.77
14298,-39.26
14310,-34.57
14322,-27.12
14334,-17.92
14346,-8.24
14358,0.86
14369,8.75
14380,15.29
14392,20.61
14404,24.86
14416,28.03
14428,30.03
14440,30.79
14452,30.46
14464,29.4
14476,28.12
14488,27.12
14500,26.76
14512,27.13
14524,28.12
14536,29.43
14548,30.82
14559,32.11
14570,33.3
14582,34.5
14594,35.83
14606,37.32
14618,38.82
14630,40.07
14642,40.75
14654,40.7
14666,39.88
14678,38.44
14690,36.59
14702,34.56
14714,32.51
14726,30.52
14738,28.66
14749,26.94
14760,25.34
14772,23.84
14784,22.41
14796,21.02
14808,19.69
14820,18.43
14832,17.27
14844,16.21
14856,15.14
14868,13.95
14880,12.57
14892,11.01
14904,9.43
14916,8.07
14928,7.12
14939,6.68
14950,6.59
14962,6.6
14974,6.33
14986,5.4
14998,3.52
15010,0.54
15022,-3.52
15034,-8.36
15046,-13.43
15058,-17.92
15070,-20.94
15082,-21.76
15094,-20.07
15106,-16.09
15118,-10.54
15129,-4.34
15140,1.66
15152,6.92
15164,11.27
15176,14.74
15188,17.4
15200,19.19
15212,19.99
15224,19.67
15236,18.25
15248,15.96
15260,13.22
15272,10.46
15284,8.05
15296,6.15
15308,4.76
15319,3.75
15330,2.93
15342,2.16
15354,1.31
15366,0.29
15378,-1.03
15390,-2.83
15402,-5.26
15414,-8.39
15426,-12.11
15438,-16.11
15450,-19.92
15462,-23.06
15474,-25.27
15486,-26.52
15498,-27.03
15509,-27.11
15520,-26.95
15532,-26.52
15544,-25.69
15556,-24.32
15568,-22.48
15580,-20.45
15592,-18.59
15604,-17.2
15616,-16.31
15628,-15.72
15640,-15.1
15652,-14.22
15664,-13.02
15676,-11.61
15688,-10.14
15699,-8.69
15710,-7.29
15722,-5.89
15734,-4.46
15746,-3.04
15758,-1.61
15770,-0.08
15782,1.79
15794,4.39
15806,8.1
15818,13.28
15830,20.08
15842,28.38
15854,37.79
15866,47.63
15878,57.03
15889,65.18
15900,71.48
15912,75.8
15924,78.46
15936,80.15
15948,81.64
15960,83.56
15972,86.35
15984,90.31
15996,95.71
16008,102.68
16020,110.94
16032,119.41
16044,126.34
16056,129.73
16068,128.12
16079,121.34
16090,110.51
16102,97.59
16114,84.48
16126,72.28
16138,61.2
16150,50.86
16162,40.98
16174,31.64
16186,23.28
16198,16.26
16210,10.5
16222,5.51
16234,0.63
16246,-4.54
16258,-10.03
16269,-15.51
16280,-20.55
16292,-24.88
16304,-28.5
16316,-31.58
16328,-34.37
16340,-37.03
16352,-39.59
16364,-41.93
16376,-43.9
16388,-45.35
16400,-46.31
16412,-47.0
16424,-47.83
16436,-49.33
16448,-51.97
16459,-56.0
16470,-61.42
16482,-67.93
16494,-75.06
16506,-82.21
16518,-88.75
16530,-94.01
16542,-97.37
16554,-98.32
16566,-96.63
16578,-92.37
16590,-86.0
16602,-78.21
16614,-69.73
16626,-61.14
16638,-52.73
16649,-44.6
16660,-36.78
16672,-29.38
16684,-22.75
16696,-17.29
16708,-13.37
16720,-11.04
16732,-10.07
16744,-9.9
16756,-9.95
16768,-9.73
16780,-9.05
16792,-7.97
16804,-6.72
16816,-5.58
16828,-4.77
16839,-4.37
16850,-4.33
16862,-4.55
16874,-4.89
16886,-5.25
16898,-5.63
16910,-6.12
16922,-6.93
16934,-8.24
16946,-10.2
16958,-12.79
16970,-15.8
16982,-18.88
16994,-21.7
17006,-24.08
17018,-26.1
17029,-28.13
17040,-30.63
17052,-33.99
17064,-38.26
17076,-43.14
17088,-48.12
17100,-52.74
17112,-56.84
17124,-60.67
17136,-64.75
17148,-69.56
17160,-75.32
17172,-81.8
17184,-88.45
17196,-94.61
17208,-99.63
17219,-103.01
17230,-104.28
17242,-103.05
17254,-98.96
17266,-91.91
17278,-82.07
17290,-69.97
17302,-56.32
17314,-41.68
17326,-26.32
17338,-10.2
17350,6.77
17362,24.38
17374,42.01
17386,58.73
17398,73.67
17409,86.37
17420,96.98
17432,106.01
17444,114.04
17456,121.37
17468,127.93
17480,133.48
17492,137.96
17504,141.71
17516,145.36
17528,149.53
17540,154.25
17552,158.74
17564,161.47
17576,160.61
17588,154.8
17599,143.76
17610,128.55
17622,111.28
17634,94.4
17646,79.87
17658,68.64
17670,60.6
17682,54.88
17694,50.53
17706,46.85
17718,43.56
17730,40.5
17742,37.45
17754,33.96
17766,29.39
17778,23.22
17789,15.26
17800,5.76
17812,-4.7
17824,-15.33
17836,-25.48
17848,-34.67
17860,-42.64
17872,-49.26
17884,-54.49
17896,-58.3
17908,-60.77
17920,-62.08
17932,-62.56
17944,-62.57
17956,-62.44
17968,-62.35
17979,-62.36
17990,-62.43
18002,-62.49
18014,-62.45
18026,-62.22
18038,-61.65
18050,-60.59
18062,-58.88
18074,-56.5
18086,-53.55
18098,-50.22
18110,-46.74
18122,-43.29
18134,-39.99
18146,-36.92
18158,-34.14
18169,-31.69
18180,-29.59
18192,-27.87
18204,-26.51
18216,-25.48
18228,-24.68
18240,-23.94
18252,-23.09
18264,-21.98
18276,-20.56
18288,-18.89
18300,-17.1
18312,-15.33
18324,-13.66
18336,-12.05
18348,-10.43
18359,-8.7
18370,-6.81
18382,-4.72
18394,-2.46
18406,-0.07
18418,2.3
18430,4.47
18442,6.29
18454,7.76
18466,9.06
18478,10.58
18490,12.76
18502,15.9
18514,20.06
18526,24.98
18538,30.26
18549,35.47
18560,40.31
18572,44.65
18584,48.47
18596,51.76
18608,54.45
18620,56.41
18632,57.49
18644,57.65
18656,56.99
18668,55.78
18680,54.34
18692,52.88
18704,51.48
18716,50.04
18728,48.39
18739,46.41
18750,44.06
18762,41.38
18774,38.38
18786,35.02
18798,31.24
18810,27.04
18822,22.5
18834,17.88
18846,13.43
18858,9.36
18870,5.72
18882,2.4
18894,-0.74
18906,-3.84
18918,-6.96
18929,-10.1
18940,-13.26
18952,-16.46
18964,-19.79
18976,-23.5
18988,-27.89
19000,-33.32
19012,-39.97
19024,-47.79
19036,-56.44
19048,-65.42
19060,-74.22
19072,-82.48
19084,-89.94
19096,-96.32
19108,-101.22
19119,-104.09
19130,-104.41
19142,-101.97
19154,-96.95
19166,-89.93
19178,-81.56
19190,-72.35
19202,-62.43
19214,-51.79
19226,-40.53
19238,-29.17
19250,-18.61
19262,-9.83
19274,-3.41
19286,0.81
19298,3.77
19309,6.73
19320,10.69
19332,15.93
19344,21.89
19356,27.58
19368,32.16
19380,35.38
19392,37.65
19404,39.68
19416,41.95
19428,44.41
19440,46.4
19452,47.12
19464,45.96
19476,42.97
19488,38.75
19499,34.26
19510,30.36
19522,27.52
19534,25.8
19546,25.11
19558,25.38
19570,26.59
19582,28.63
19594,31.1
19606,33.35
19618,34.7
19630,34.75
19642,33.53
19654,31.48
19666,29.13
19678,26.71
19689,24.0
19700,20.49
19712,15.73
19724,9.68
19736,2.79
19748,-4.21
19760,-10.71
19772,-16.51
19784,-21.84
19796,-27.12
19808,-32.62
19820,-38.16
19832,-43.13
19844,-46.68
19856,-48.17
19868,-47.53
19879,-45.31
19890,-42.44
19902,-39.82
19914,-37.99
19926,-37.01
19938,-36.64
19950,-36.59
19962,-36.73
19974,-37.08
19986,-37.76
19998,-38.76
20010,-39.92
20022,-40.93
20034,-41.44
20046,-41.14
20058,-39.87
20069,-37.65
20080,-34.65
20092,-31.19
20104,-27.64
20116,-24.28
20128,-21.18
20140,-18.19
20152,-14.92
20164,-10.98
20176,-6.18
20188,-0.63
20200,5.29
20212,11.09
20224,16.4
20236,21.08
20248,25.16
20259,28.77
20270,31.98
20282,34.8
20294,37.16
20306,39.07
20318,40.54
20330,41.61
20342,42.28
20354,42.43
20366,41.95
20378,40.75
20390,38.91
20402,36.63
20414,34.18
20426,31.78
20438,29.56
20449,27.53
20460,25.57
20472,23.48
20484,21.03
20496,18.02
20508,14.4
20520,10.41
20532,6.69
20544,4.12
20556,3.64
20568,5.82
20580,10.63
20592,17.39
20604,24.98
20616,32.26
20628,38.38
20639,42.91
20650,45.75
20662,46.95
20674,46.46
20686,44.24
20698,40.3
20710,34.84
20722,28.31
20734,21.23
20746,14.06
20758,6.98
20770,0.04
20782,-6.8
20794,-13.51
20806,-19.93
20818,-25.83
20829,-31.03
20840,-35.46
20852,-39.24
20864,-42.58
20876,-45.7
20888,-48.8
20900,-51.95
20912,-55.16
20924,-58.32
20936,-61.27
20948,-63.8
20960,-65.73
20972,-66.96
20984,-67.45
20996,-67.23
