seconds,BVP
10,331.2
22,336.8
34,341.09
46,344.57
57,347.4
68,349.13
80,348.63
92,344.3
104,334.51
116,318.1
128,294.73
140,265.09
152,230.73
164,193.63
176,155.75
188,118.49
200,82.42
212,47.37
224,12.72
236,-22.21
247,-57.82
258,-94.07
270,-130.64
282,-167.16
294,-203.38
306,-239.31
318,-275.21
330,-311.42
342,-348.41
354,-386.91
366,-427.89
378,-472.24
390,-520.05
402,-569.79
414,-617.87
426,-659.29
437,-689.04
448,-703.88
460,-703.35
472,-689.69
484,-666.56
496,-637.43
508,-604.56
520,-569.05
532,-531.65
544,-493.65
556,-457.2
568,-424.65
580,-397.58
592,-376.06
604,-358.68
616,-343.33
627,-328.25
638,-312.85
650,-297.72
662,-284.12
674,-272.88
686,-263.74
698,-255.12
710,-244.69
722,-230.21
734,-210.26
746,-184.56
758,-153.77
770,-118.95
782,-81.19
794,-41.27
806,0.46
817,44.03
828,89.83
840,138.46
852,190.4
864,245.62
876,303.22
888,361.59
900,418.76
912,473.11
924,523.98
936,571.74
948,617.67
960,663.6
972,711.66
984,763.72
996,820.54
1007,880.5
1018,938.75
1030,987.56
1042,1018.26
1054,1024.11
1066,1002.73
1078,956.92
1090,893.22
1102,819.13
1114,740.52
1126,660.42
1138,579.74
1150,498.79
1162,418.68
1174,341.24
1186,268.12
1197,199.68
1208,134.66
1220,70.98
1232,7.1
1244,-57.0
1256,-119.77
1268,-178.74
1280,-231.86
1292,-278.6
1304,-320.1
1316,-358.98
1328,-398.36
1340,-441.07
1352,-488.73
1364,-541.1
1376,-595.51
1387,-646.8
1398,-688.25
1410,-713.32
1422,-717.85
1434,-701.54
1446,-667.87
1458,-622.44
1470,-570.61
1482,-515.81
1494,-459.31
1506,-401.39
1518,-342.73
1530,-285.08
1542,-230.71
1554,-181.23
1566,-136.81
1577,-96.29
1588,-58.16
1600,-21.76
1612,12.26
1624,42.1
1636,65.42
1648,80.09
1660,84.53
1672,78.03
1684,61.03
1696,35.39
1708,4.38
1720,-27.65
1732,-56.19
1744,-77.65
1756,-90.15
1767,-93.78
1778,-90.18
1790,-81.63
1802,-70.17
1814,-57.02
1826,-42.54
1838,-26.67
1850,-9.43
1862,8.79
1874,27.17
1886,44.78
1898,61.0
1910,75.63
1922,88.8
1934,100.62
1946,110.86
1957,118.88
1968,123.89
1980,125.33
1992,123.22
2004,118.21
2016,111.37
2028,103.81
2040,96.31
2052,89.16
2064,82.23
2076,75.24
2088,67.94
2100,60.35
2112,52.66
2124,45.13
2136,37.92
2147,31.16
2158,25.07
2170,20.07
2182,16.89
2194,16.23
2206,18.55
2218,23.67
2230,30.75
2242,38.53
2254,45.75
2266,51.54
2278,55.63
2290,58.21
2302,59.62
2314,60.01
2326,59.36
2337,57.53
2348,54.57
2360,50.83
2372,46.95
2384,43.56
2396,41.03
2408,39.31
2420,37.98
2432,36.5
2444,34.49
2456,31.9
2468,28.97
2480,26.09
2492,23.57
2504,21.5
2516,19.69
2527,17.74
2538,15.27
2550,11.96
2562,7.7
2574,2.59
2586,-3.05
2598,-8.68
2610,-13.63
2622,-17.12
2634,-18.42
2646,-17.0
2658,-12.78
2670,-6.13
2682,2.11
2694,10.85
2706,19.04
2717,25.87
2728,30.97
2740,34.36
2752,36.28
2764,37.11
2776,37.15
2788,36.63
2800,35.74
2812,34.7
2824,33.73
2836,33.09
2848,32.97
2860,33.39
2872,34.23
2884,35.12
2896,35.6
2907,35.23
2918,33.75
2930,31.14
2942,27.58
2954,23.36
2966,18.71
2978,13.8
2990,8.64
3002,3.28
3014,-2.22
3026,-7.76
3038,-13.23
3050,-18.51
3062,-23.36
3074,-27.38
3086,-30.0
3097,-30.64
3108,-28.96
3120,-25.07
3132,-19.62
3144,-13.64
3156,-8.19
3168,-4.06
3180,-1.6
3192,-0.76
3204,-1.21
3216,-2.59
3228,-4.6
3240,-7.03
3252,-9.77
3264,-12.7
3276,-15.72
3287,-18.75
3298,-21.73
3310,-24.71
3322,-27.76
3334,-30.92
3346,-34.01
3358,-36.58
3370,-37.91
3382,-37.23
3394,-33.87
3406,-27.53
3418,-18.35
3430,-6.83
3442,6.24
3454,19.89
3466,33.07
3477,44.7
3488,53.81
3500,59.71
3512,62.14
3524,61.34
3536,58.1
3548,53.64
3560,49.33
3572,46.51
3584,46.12
3596,48.48
3608,53.17
3620,59.16
3632,65.13
3644,69.89
3656,72.69
3667,73.35
3678,72.17
3690,69.61
3702,66.14
3714,62.14
3726,57.87
3738,53.6
3750,49.58
3762,46.0
3774,42.92
3786,40.28
3798,37.83
3810,35.32
3822,32.56
3834,29.46
3846,26.05
3857,22.46
3868,18.88
3880,15.51
3892,12.53
3904,10.02
3916,7.96
3928,6.22
3940,4.56
3952,2.78
3964,0.74
3976,-1.67
3988,-4.52
4000,-7.92
4012,-11.88
4024,-16.23
4036,-20.51
4047,-23.97
4058,-25.76
4070,-25.3
4082,-22.5
4094,-17.94
4106,-12.67
4118,-7.79
4130,-4.13
4142,-1.98
4154,-1.11
4166,-1.06
4178,-1.34
4190,-1.66
4202,-2.0
4214,-2.44
4226,-3.06
4237,-3.83
4248,-4.64
4260,-5.35
4272,-5.88
4284,-6.29
4296,-6.7
4308,-7.31
4320,-8.24
4332,-9.5
4344,-10.99
4356,-12.6
4368,-14.22
4380,-15.85
4392,-17.56
4404,-19.43
4416,-21.47
4427,-23.64
4438,-25.83
4450,-27.95
4462,-30.01
4474,-32.12
4486,-34.43
4498,-37.01
4510,-39.61
4522,-41.74
4534,-42.68
4546,-41.74
4558,-38.58
4570,-33.41
4582,-27.11
4594,-20.86
4606,-15.72
4617,-12.31
4628,-10.7
4640,-10.55
4652,-11.34
4664,-12.68
4676,-14.35
4688,-16.27
4700,-18.31
4712,-20.12
4724,-21.35
4736,-21.91
4748,-22.01
4760,-22.04
4772,-22.33
4784,-22.91
4796,-23.43
4807,-23.39
4818,-22.05
4830,-19.17
4842,-15.31
4854,-11.41
4866,-8.1
4878,-5.04
4890,-0.92
4902,6.16
4914,17.79
4926,35.28
4938,58.07
4950,83.39
4962,107.15
4974,125.5
4986,136.19
4997,139.3
5008,136.78
5020,131.8
5032,128.75
5044,130.64
5056,137.82
5068,148.25
5080,158.74
5092,166.16
5104,168.34
5116,163.95
5128,152.83
5140,137.5
5152,121.11
5164,106.21
5176,94.55
5187,87.0
5198,83.38
5210,82.12
5222,79.95
5234,65.41
5246,34.91
5258,-3.71
5270,-35.52
5282,-48.63
5294,-40.04
5306,-15.62
5318,16.66
5330,49.62
5342,77.79
5354,99.44
5366,114.49
5377,120.95
5388,117.45
5400,103.86
5412,81.47
5424,52.62
5436,19.42
5448,-16.39
5460,-52.15
5472,-85.41
5484,-114.42
5496,-137.64
5508,-153.76
5520,-161.79
5532,-161.46
5544,-153.8
5556,-140.93
5567,-124.8
5578,-107.58
5590,-91.68
5602,-79.12
5614,-71.14
5626,-67.8
5638,-68.12
5650,-70.91
5662,-75.45
5674,-81.44
5686,-89.55
5698,-101.06
5710,-116.91
5722,-136.78
5734,-158.68
5746,-179.19
5757,-194.47
5768,-201.36
5780,-198.12
5792,-184.97
5804,-163.95
5816,-138.21
5828,-111.18
5840,-85.8
5852,-64.21
5864,-47.65
5876,-36.58
5888,-30.8
5900,-29.57
5912,-31.79
5924,-36.07
5936,-41.04
5947,-45.54
5958,-48.71
5970,-50.02
5982,-49.14
5994,-45.98
6006,-40.7
6018,-33.78
6030,-26.09
6042,-18.81
6054,-13.11
6066,-9.83
6078,-9.15
6090,-10.53
6102,-12.96
6114,-15.36
6126,-17.09
6137,-18.12
6148,-18.97
6160,-20.16
6172,-21.87
6184,-23.79
6196,-25.12
6208,-25.03
6220,-23.03
6232,-19.07
6244,-13.64
6256,-7.9
6268,-4.08
6280,-5.53
6292,-15.76
6304,-36.52
6316,-65.82
6327,-96.9
6338,-119.57
6350,-123.79
6362,-103.94
6374,-61.72
6386,-5.8
6398,51.57
6410,99.39
6422,131.65
6434,148.29
6446,153.34
6458,151.85
6470,147.43
6482,141.69
6494,135.1
6506,128.27
6517,122.44
6528,118.9
6540,117.97
6552,118.37
6564,117.42
6576,112.39
6588,101.93
6600,86.92
6612,70.17
6624,55.23
6636,44.91
6648,40.3
6660,40.67
6672,44.16
6684,48.89
6696,53.86
6707,59.19
6718,65.77
6730,74.56
6742,85.84
6754,98.91
6766,112.26
6778,124.12
6790,133.16
6802,138.93
6814,141.91
6826,143.23
6838,144.08
6850,145.27
6862,146.83
6874,148.01
6886,147.51
6897,143.85
6908,135.84
6920,122.9
6932,105.2
6944,83.7
6956,59.9
6968,35.49
6980,11.92
6992,-9.89
7004,-29.78
7016,-48.27
7028,-66.35
7040,-85.12
7052,-105.43
7064,-127.76
7076,-152.09
7087,-178.06
7098,-205.01
7110,-232.1
7122,-258.5
7134,-283.48
7146,-306.61
7158,-327.77
7170,-347.11
7182,-364.71
7194,-380.35
7206,-393.15
7218,-401.56
7230,-403.51
7242,-396.8
7254,-379.69
7266,-351.52
7277,-313.2
7288,-267.24
7300,-217.42
7312,-167.83
7324,-121.91
7336,-81.67
7348,-47.64
7360,-19.34
7372,3.94
7384,22.51
7396,36.3
7408,45.17
7420,49.43
7432,50.0
7444,48.25
7456,45.45
7467,42.33
7478,38.92
7490,34.74
7502,29.21
7514,21.97
7526,13.16
7538,3.36
7550,-6.62
7562,-15.94
7574,-24.08
7586,-30.98
7598,-37.12
7610,-43.42
7622,-50.85
7634,-60.04
7646,-70.93
7657,-82.58
7668,-93.39
7680,-101.47
7692,-105.22
7704,-103.84
7716,-97.57
7728,-87.8
7740,-76.8
7752,-67.04
7764,-60.21
7776,-56.29
7788,-53.35
7800,-48.16
7812,-37.7
7824,-20.63
7836,1.86
7847,26.48
7858,49.22
7870,66.91
7882,78.24
7894,83.75
7906,84.94
7918,83.32
7930,79.84
7942,75.0
7954,69.26
7966,63.24
7978,57.68
7990,53.09
8002,49.52
8014,46.66
8026,44.1
8037,41.58
8048,39.12
8060,36.9
8072,35.03
8084,33.47
8096,32.0
8108,30.51
8120,29.17
8132,28.57
8144,29.6
8156,33.15
8168,39.7
8180,49.09
8192,60.51
8204,72.76
8216,84.76
8227,95.83
8238,105.79
8250,114.68
8262,122.38
8274,128.41
8286,131.98
8298,132.38
8310,129.42
8322,123.59
8334,115.88
8346,107.33
8358,98.58
8370,89.75
8382,80.62
8394,71.09
8406,61.42
8417,52.31
8428,44.58
8440,38.83
8452,35.18
8464,33.32
8476,32.69
8488,32.74
8500,33.17
8512,33.95
8524,35.16
8536,36.82
8548,38.74
8560,40.53
8572,41.6
8584,41.34
8596,39.34
8607,35.42
8618,29.77
8630,22.94
8642,15.79
8654,9.41
8666,4.94
8678,3.32
8690,5.02
8702,9.89
8714,17.07
8726,25.21
8738,32.74
8750,38.28
8762,40.98
8774,40.7
8786,38.0
8797,33.97
8808,29.92
8820,26.99
8832,25.92
8844,26.8
8856,29.11
8868,31.95
8880,34.23
8892,35.04
8904,33.84
8916,30.52
8928,25.4
8940,19.09
8952,12.33
8964,5.87
8976,0.24
8987,-4.26
8998,-7.64
9010,-10.09
9022,-11.9
9034,-13.26
9046,-14.22
9058,-14.72
9070,-14.7
9082,-14.19
9094,-13.37
9106,-12.51
9118,-11.83
9130,-11.43
9142,-11.28
9154,-11.17
9166,-10.79
9177,-9.74
9188,-7.48
9200,-3.45
9212,2.81
9224,11.26
9236,21.05
9248,30.63
9260,38.23
9272,42.57
9284,43.54
9296,42.23
9308,40.42
9320,39.66
9332,40.62
9344,42.96
9356,45.69
9367,47.89
9378,49.13
9390,49.48
9402,49.24
9414,48.58
9426,47.56
9438,46.28
9450,45.11
9462,44.61
9474,45.21
9486,46.83
9498,48.64
9510,49.29
9522,47.2
9534,41.15
9546,30.75
9557,16.55
9568,0.0
9580,-16.9
9592,-32.19
9604,-44.42
9616,-53.03
9628,-58.42
9640,-61.6
9652,-63.68
9664,-65.28
9676,-66.07
9688,-64.92
9700,-60.35
9712,-51.54
9724,-39.17
9736,-25.84
9747,-15.55
9758,-12.5
9770,-19.41
9782,-36.33
9794,-60.45
9806,-87.13
9818,-111.66
9830,-130.96
9842,-144.31
9854,-152.99
9866,-159.07
9878,-164.16
9890,-168.79
9902,-172.45
9914,-174.26
9926,-173.44
9937,-169.69
9948,-163.01
9960,-153.46
9972,-140.87
9984,-124.63
9996,-103.77
10008,-77.09
10020,-43.43
10032,-2.11
10044,46.64
10056,101.15
10068,158.17
10080,213.19
10092,261.34
10104,298.48
10116,322.02
10127,331.23
10138,326.82
10150,310.33
10162,283.67
10174,248.96
10186,208.96
10198,167.22
10210,127.9
10222,94.82
10234,70.17
10246,53.46
10258,41.52
10270,29.56
10282,13.08
10294,-10.51
10306,-41.03
10317,-75.89
10328,-111.3
10340,-143.64
10352,-170.41
10364,-190.49
10376,-203.72
10388,-210.57
10400,-212.06
10412,-209.97
10424,-206.62
10436,-204.18
10448,-203.33
10460,-201.99
10472,-195.35
10484,-177.33
10496,-143.23
10507,-92.42
10518,-29.41
10530,37.18
10542,97.48
10554,143.46
10566,171.05
10578,180.41
10590,174.76
10602,158.64
10614,136.61
10626,112.51
10638,89.38
10650,69.5
10662,54.16
10674,43.37
10686,35.69
10697,28.48
10708,18.49
10720,3.27
10732,-17.37
10744,-40.42
10756,-60.19
10768,-70.46
10780,-67.62
10792,-53.02
10804,-32.91
10816,-15.58
10828,-6.97
10840,-7.12
10852,-9.51
10864,-3.9
10876,18.92
10887,62.58
10898,123.17
10910,190.45
10922,251.71
10934,296.24
10946,318.57
10958,319.42
10970,304.25
10982,280.56
10994,254.99
11006,231.4
11018,210.85
11030,192.86
11042,177.17
11054,164.58
11066,156.38
11077,152.85
11088,151.86
11100,148.83
11112,138.24
11124,115.84
11136,80.45
11148,34.29
11160,-17.96
11172,-70.81
11184,-119.45
11196,-160.52
11208,-192.16
11220,-213.71
11232,-225.37
11244,-228.07
11256,-223.32
11267,-213.02
11278,-199.25
11290,-184.07
11302,-169.45
11314,-157.33
11326,-149.63
11338,-147.99
11350,-153.4
11362,-165.85
11374,-184.28
11386,-206.86
11398,-231.45
11410,-256.1
11422,-279.17
11434,-299.19
11446,-314.69
11457,-324.14
11468,-326.35
11480,-320.96
11492,-308.79
11504,-291.82
11516,-272.48
11528,-252.79
11540,-233.63
11552,-214.37
11564,-193.23
11576,-167.86
11588,-136.11
11600,-96.63
11612,-49.37
11624,4.21
11636,61.13
11647,117.34
11658,168.44
11670,210.74
11682,242.11
11694,262.37
11706,273.01
11718,276.39
11730,274.89
11742,270.39
11754,264.13
11766,256.86
11778,248.93
11790,240.32
11802,230.45
11814,218.36
11826,202.98
11837,183.65
11848,160.54
11860,134.61
11872,107.32
11884,80.11
11896,54.19
11908,30.49
11920,9.89
11932,-6.59
11944,-17.99
11956,-23.71
11968,-23.92
11980,-19.69
11992,-12.75
12004,-4.95
12016,2.2
12027,7.92
12038,12.05
12050,14.76
12062,16.31
12074,16.84
12086,16.47
12098,15.43
12110,14.12
12122,13.04
12134,12.56
12146,12.74
12158,13.27
12170,13.7
12182,13.62
12194,12.94
12206,11.83
12217,10.61
12228,9.53
12240,8.61
12252,7.66
12264,6.36
12276,4.38
12288,1.5
12300,-2.35
12312,-6.95
12324,-11.87
12336,-16.33
12348,-19.38
12360,-20.08
12372,-17.84
12384,-12.56
12396,-4.83
12407,4.3
12418,13.61
12430,22.08
12442,29.15
12454,34.71
12466,38.96
12478,42.09
12490,44.19
12502,45.19
12514,45.02
12526,43.73
12538,41.51
12550,38.65
12562,35.37
12574,31.76
12586,27.82
12597,23.52
12608,18.92
12620,14.09
12632,9.01
12644,3.4
12656,-3.18
12668,-11.18
12680,-20.8
12692,-31.73
12704,-43.18
12716,-54.09
12728,-63.32
12740,-69.95
12752,-73.31
12764,-73.04
12776,-69.24
12787,-62.57
12798,-54.23
12810,-45.57
12822,-37.58
12834,-30.4
12846,-23.32
12858,-15.32
12870,-5.9
12882,4.34
12894,13.66
12906,19.78
12918,20.8
12930,15.92
12942,5.57
12954,-8.89
12966,-25.75
12977,-43.33
12988,-60.24
13000,-75.37
13012,-87.91
13024,-97.39
13036,-103.63
13048,-106.67
13060,-106.56
13072,-103.3
13084,-96.94
13096,-87.7
13108,-76.15
13120,-63.06
13132,-49.23
13144,-35.19
13156,-21.14
13167,-7.05
13178,7.13
13190,21.26
13202,35.07
13214,48.36
13226,61.22
13238,74.05
13250,87.37
13262,101.57
13274,116.55
13286,131.76
13298,146.16
13310,158.63
13322,168.18
13334,174.19
13346,176.47
13357,175.22
13368,170.82
13380,163.68
13392,154.04
13404,141.99
13416,127.58
13428,110.95
13440,92.45
13452,72.63
13464,52.17
13476,31.68
13488,11.55
13500,-8.11
13512,-27.36
13524,-46.37
13536,-65.22
13547,-83.89
13558,-102.15
13570,-119.59
13582,-135.56
13594,-149.19
13606,-159.37
13618,-164.94
13630,-164.99
13642,-159.17
13654,-148.02
13666,-132.91
13678,-115.77
13690,-98.61
13702,-82.91
13714,-69.51
13726,-58.6
13737,-50.18
13748,-44.35
13760,-41.47
13772,-41.98
13784,-46.01
13796,-53.12
13808,-62.33
13820,-72.42
13832,-82.32
13844,-91.32
13856,-99.01
13868,-105.06
13880,-108.85
13892,-109.57
13904,-106.53
13916,-99.57
13927,-89.46
13938,-77.81
13950,-66.63
13962,-57.58
13974,-51.53
13986,-48.4
13998,-47.41
14010,-47.55
14022,-47.82
14034,-47.18
14046,-44.4
14058,-38.28
14070,-28.25
14082,-15.28
14094,-2.27
14106,6.47
14117,6.78
14128,-3.47
14140,-23.09
14152,-47.68
14164,-71.05
14176,-87.28
14188,-92.45
14200,-85.34
14212,-67.04
14224,-40.04
14236,-7.29
14248,28.36
14260,64.39
14272,98.69
14284,129.67
14296,156.33
14307,178.18
14318,195.05
14330,206.82
14342,213.35
14354,214.58
14366,210.68
14378,202.07
14390,189.12
14402,171.85
14414,149.65
14426,121.51
14438,86.72
14450,45.78
14462,0.89
14474,-44.12
14486,-84.7
14497,-116.75
14508,-137.76
14520,-147.18
14532,-146.24
14544,-137.14
14556,-122.11
14568,-102.69
14580,-79.35
14592,-51.61
14604,-18.68
14616,19.7
14628,62.34
14640,106.22
14652,146.98
14664,179.95
14676,201.61
14687,210.49
14698,207.36
14710,194.43
14722,174.23
14734,148.8
14746,119.55
14758,87.73
14770,55.14
14782,24.29
14794,-1.86
14806,-20.73
14818,-30.89
14830,-32.37
14842,-26.68
14854,-16.2
14866,-3.67
14877,8.57
14888,19.07
14900,27.59
14912,35.17
14924,43.7
14936,55.27
14948,71.2
14960,91.4
14972,114.23
14984,136.92
14996,156.48
15008,170.6
15020,178.21
15032,179.52
15044,175.63
15056,168.01
15067,158.32
15078,148.38
15090,140.38
15102,136.8
15114,140.0
15126,151.43
15138,170.83
15150,196.12
15162,223.81
15174,250.22
15186,272.65
15198,290.09
15210,303.14
15222,313.25
15234,321.7
15246,328.77
15257,333.73
15268,335.18
15280,331.82
15292,322.97
15304,308.81
15316,290.19
15328,268.26
15340,244.09
15352,218.5
15364,192.06
15376,165.3
15388,138.75
15400,113.04
15412,88.72
15424,66.11
15436,45.17
15447,25.54
15458,6.7
15470,-11.64
15482,-29.43
15494,-46.24
15506,-61.48
15518,-74.62
15530,-85.31
15542,-93.43
15554,-99.04
15566,-102.37
15578,-103.98
15590,-104.78
15602,-106.02
15614,-108.9
15626,-114.2
15637,-121.95
15648,-131.48
15660,-141.71
15672,-151.69
15684,-160.95
15696,-169.6
15708,-178.06
15720,-186.88
15732,-196.54
15744,-207.39
15756,-219.48
15768,-232.5
15780,-245.59
15792,-257.41
15804,-266.49
15816,-271.69
15827,-272.67
15838,-270.05
15850,-265.14
15862,-259.36
15874,-253.8
15886,-248.92
15898,-244.61
15910,-240.45
15922,-236.01
15934,-231.0
15946,-225.23
15958,-218.64
15970,-211.13
15982,-202.73
15994,-193.6
16006,-184.14
16017,-174.94
16028,-166.69
16040,-159.86
16052,-154.55
16064,-150.38
16076,-146.58
16088,-142.39
16100,-137.31
16112,-131.38
16124,-125.06
16136,-118.95
16148,-113.5
16160,-108.86
16172,-104.88
16184,-101.38
16196,-98.3
16207,-95.76
16218,-94.0
16230,-93.21
16242,-93.5
16254,-94.8
16266,-96.99
16278,-99.95
16290,-103.58
16302,-107.83
16314,-112.57
16326,-117.64
16338,-122.82
16350,-127.95
16362,-132.97
16374,-137.95
16386,-143.02
16397,-148.23
16408,-153.38
16420,-157.91
16432,-161.01
16444,-161.73
16456,-159.36
16468,-153.54
16480,-144.36
16492,-132.26
16504,-117.97
16516,-102.34
16528,-86.25
16540,-70.53
16552,-55.79
16564,-42.22
16576,-29.42
16587,-16.45
16598,-1.96
16610,15.37
16622,36.33
16634,60.81
16646,87.72
16658,115.13
16670,140.83
16682,162.87
16694,179.88
16706,191.24
16718,196.87
16730,197.02
16742,192.04
16754,182.4
16766,168.84
16777,152.46
16788,134.58
16800,116.42
16812,98.76
16824,81.74
16836,65.04
16848,48.22
16860,31.22
16872,14.54
16884,-0.85
16896,-13.85
16908,-23.57
16920,-29.58
16932,-31.99
16944,-31.34
16956,-28.42
16967,-24.24
16978,-19.82
16990,-16.03
17002,-13.46
17014,-12.23
17026,-11.97
17038,-11.88
17050,-11.01
17062,-8.42
17074,-3.55
17086,3.76
17098,13.12
17110,23.76
17122,34.64
17134,44.75
17146,53.28
17157,59.76
17168,64.11
17180,66.55
17192,67.46
17204,67.3
17216,66.58
17228,65.74
17240,65.15
17252,65.1
17264,65.66
17276,66.79
17288,68.29
17300,69.93
17312,71.45
17324,72.61
17336,73.17
17347,72.87
17358,71.4
17370,68.36
17382,63.35
17394,56.04
17406,46.3
17418,34.38
17430,20.83
17442,6.45
17454,-7.85
17466,-21.22
17478,-32.86
17490,-42.11
17502,-48.63
17514,-52.56
17526,-54.72
17537,-56.57
17548,-59.78
17560,-65.71
17572,-74.82
17584,-86.55
17596,-99.61
17608,-112.59
17620,-124.42
17632,-134.5
17644,-142.53
17656,-148.34
17668,-151.93
17680,-153.69
17692,-154.51
17704,-155.59
17716,-157.94
17727,-162.02
17738,-167.64
17750,-174.6
17762,-183.22
17774,-194.73
17786,-210.88
17798,-233.04
17810,-261.38
17822,-294.53
17834,-329.81
17846,-364.05
17858,-394.16
17870,-417.45
17882,-431.8
17894,-435.72
17906,-428.69
17917,-411.45
17928,-386.03
17940,-355.42
17952,-322.79
17964,-290.8
17976,-261.13
17988,-234.54
18000,-211.13
18012,-190.6
18024,-172.44
18036,-155.88
18048,-139.99
18060,-123.76
18072,-106.45
18084,-87.84
18096,-68.28
18107,-48.45
18118,-28.91
18130,-9.83
18142,9.16
18154,28.87
18166,50.18
18178,73.92
18190,100.59
18202,130.26
18214,162.15
18226,194.5
18238,224.54
18250,249.15
18262,265.87
18274,273.96
18286,274.9
18297,271.89
18308,268.53
18320,267.4
18332,269.16
18344,272.64
18356,275.8
18368,276.82
18380,274.75
18392,269.64
18404,261.9
18416,251.82
18428,239.31
18440,224.03
18452,205.95
18464,185.7
18476,164.73
18487,145.0
18498,128.36
18510,116.02
18522,108.33
18534,104.98
18546,105.48
18558,109.39
18570,116.38
18582,125.88
18594,136.65
18606,146.68
18618,153.65
18630,155.6
18642,151.73
18654,142.64
18666,130.01
18677,115.88
18688,101.98
18700,89.22
18712,77.64
18724,66.7
18736,55.57
18748,43.57
18760,30.5
18772,16.84
18784,3.84
18796,-6.77
18808,-13.23
18820,-14.39
18832,-10.12
18844,-1.41
18856,9.93
18867,21.85
18878,32.57
18890,40.95
18902,46.44
18914,48.92
18926,48.42
18938,44.94
18950,38.5
18962,29.24
18974,17.58
18986,4.32
18998,-9.45
19010,-22.58
19022,-34.04
19034,-43.05
19046,-49.11
19057,-51.94
19068,-51.4
19080,-47.53
19092,-40.57
19104,-30.98
19116,-19.41
19128,-6.55
19140,6.83
19152,19.89
19164,31.75
19176,41.52
19188,48.53
19200,52.57
19212,53.94
19224,53.33
19236,51.35
19247,48.22
19258,43.57
19270,36.52
19282,26.19
19294,11.96
19306,-6.18
19318,-27.83
19330,-52.31
19342,-78.85
19354,-106.49
19366,-133.92
19378,-159.24
19390,-179.95
19402,-193.23
19414,-196.52
19426,-188.13
19437,-167.84
19448,-137.03
19460,-98.47
19472,-55.69
19484,-12.18
19496,29.31
19508,67.22
19520,101.25
19532,132.15
19544,161.27
19556,190.22
19568,220.66
19580,254.21
19592,292.17
19604,334.94
19616,381.41
19627,428.7
19638,472.72
19650,509.48
19662,536.68
19674,554.44
19686,564.93
19698,570.69
19710,572.99
19722,570.88
19734,561.81
19746,543.15
19758,513.81
19770,474.9
19782,429.16
19794,379.64
19806,328.49
19817,276.68
19828,224.45
19840,172.09
19852,120.45
19864,70.8
19876,24.3
19888,-18.75
19900,-59.03
19912,-97.88
19924,-136.54
19936,-175.33
19948,-213.29
19960,-248.38
19972,-278.15
19984,-300.55
19996,-314.67
20007,-320.89
20018,-320.62
20030,-315.79
20042,-308.19
20054,-299.04
20066,-288.89
20078,-277.74
20090,-265.41
20102,-251.82
20114,-237.2
20126,-222.08
20138,-207.08
20150,-192.67
20162,-179.04
20174,-166.01
20186,-153.24
20197,-140.4
20208,-127.37
20220,-114.32
20232,-101.59
20244,-89.54
20256,-78.5
20268,-68.62
20280,-59.91
20292,-52.32
20304,-45.74
20316,-40.13
20328,-35.45
20340,-31.69
20352,-28.85
20364,-26.92
20376,-25.96
20387,-25.96
20398,-26.9
20410,-28.65
20422,-30.96
20434,-33.53
20446,-36.13
20458,-38.69
20470,-41.36
20482,-44.42
20494,-48.2
20506,-52.96
20518,-58.79
20530,-65.52
20542,-72.71
20554,-79.76
20566,-85.97
20577,-90.78
20588,-93.94
20600,-95.73
20612,-96.88
20624,-98.33
20636,-100.87
20648,-104.85
20660,-110.03
20672,-115.81
20684,-121.46
20696,-126.59
20708,-131.22
20720,-135.74
20732,-140.67
20744,-146.35
20756,-152.82
20767,-159.86
20778,-167.13
20790,-174.46
20802,-181.8
20814,-189.2
20826,-196.42
20838,-202.87
20850,-207.57
20862,-209.32
20874,-207.12
20886,-200.35
20898,-188.85
20910,-172.89
20922,-152.98
20934,-129.84
20946,-104.33
20957,-77.47
20968,-50.28
20980,-23.57
20992,2.31
