seconds,BVP
11,-10.4
23,-7.21
35,-4.15
47,-1.2
59,1.71
71,4.55
83,7.28
95,9.8
107,12.01
119,13.86
131,15.33
142,16.51
153,17.48
165,18.37
177,19.25
189,20.14
201,20.99
213,21.73
225,22.36
237,22.88
249,23.34
261,23.73
273,23.98
285,24.05
297,23.89
309,23.52
321,23.02
332,22.47
343,21.86
355,21.15
367,20.3
379,19.33
391,18.32
403,17.38
415,16.55
427,15.76
439,14.91
451,13.86
463,12.61
475,11.22
487,9.82
499,8.52
511,7.3
522,6.07
533,4.74
545,3.25
557,1.66
569,0.1
581,-1.34
593,-2.64
605,-3.86
617,-5.04
629,-6.24
641,-7.48
653,-8.78
665,-10.2
677,-11.84
689,-13.83
701,-16.3
712,-19.3
723,-22.72
735,-26.21
747,-29.27
759,-31.33
771,-31.97
783,-31.0
795,-28.64
807,-25.28
819,-21.47
831,-17.61
843,-13.94
855,-10.51
867,-7.28
879,-4.21
891,-1.23
902,1.64
913,4.36
925,6.88
937,9.16
949,11.11
961,12.71
973,13.91
985,14.73
997,15.18
1009,15.34
1021,15.28
1033,15.17
1045,15.19
1057,15.45
1069,15.96
1081,16.62
1092,17.35
1103,18.07
1115,18.78
1127,19.5
1139,20.24
1151,20.91
1163,21.42
1175,21.66
1187,21.59
1199,21.23
1211,20.65
1223,19.93
1235,19.08
1247,18.1
1259,16.91
1271,15.41
1282,13.56
1293,11.4
1305,9.08
1317,6.81
1329,4.84
1341,3.32
1353,2.26
1365,1.54
1377,0.97
1389,0.41
1401,-0.23
1413,-0.97
1425,-1.82
1437,-2.81
1449,-4.01
1461,-5.45
1472,-7.08
1483,-8.83
1495,-10.58
1507,-12.3
1519,-14.01
1531,-15.79
1543,-17.82
1555,-20.24
1567,-23.14
1579,-26.46
1591,-29.89
1603,-32.93
1615,-35.04
1627,-35.79
1639,-35.02
1651,-32.91
1662,-29.91
1673,-26.52
1685,-23.21
1697,-20.17
1709,-17.46
1721,-15.0
1733,-12.63
1745,-10.2
1757,-7.58
1769,-4.74
1781,-1.66
1793,1.55
1805,4.75
1817,7.79
1829,10.48
1841,12.74
1852,14.51
1863,15.84
1875,16.83
1887,17.62
1899,18.36
1911,19.17
1923,20.07
1935,21.05
1947,21.96
1959,22.66
1971,23.04
1983,23.02
1995,22.62
2007,21.9
2019,20.95
2031,19.87
2042,18.75
2053,17.7
2065,16.76
2077,16.0
2089,15.41
2101,14.91
2113,14.33
2125,13.54
2137,12.42
2149,10.98
2161,9.33
2173,7.51
2185,5.65
2197,3.75
2209,1.77
2221,-0.37
2232,-2.63
2243,-5.02
2255,-7.43
2267,-9.78
2279,-12.01
2291,-13.99
2303,-15.65
2315,-16.99
2327,-18.14
2339,-19.27
2351,-20.7
2363,-22.6
2375,-24.95
2387,-27.48
2399,-29.67
2411,-30.94
2422,-30.88
2433,-29.38
2445,-26.7
2457,-23.38
2469,-19.98
2481,-16.82
2493,-14.09
2505,-11.62
2517,-9.25
2529,-6.85
2541,-4.37
2553,-1.9
2565,0.44
2577,2.54
2589,4.41
2601,6.05
2612,7.62
2623,9.28
2635,11.06
2647,12.97
2659,14.82
2671,16.4
2683,17.56
2695,18.33
2707,18.81
2719,19.25
2731,19.75
2743,20.23
2755,20.46
2767,20.23
2779,19.52
2791,18.49
2802,17.47
2813,16.67
2825,16.21
2837,15.97
2849,15.62
2861,14.87
2873,13.48
2885,11.51
2897,9.14
2909,6.72
2921,4.57
2933,2.86
2945,1.61
2957,0.61
2969,-0.38
2981,-1.55
2992,-2.93
3003,-4.38
3015,-5.75
3027,-6.97
3039,-8.15
3051,-9.52
3063,-11.37
3075,-13.86
3087,-17.01
3099,-20.66
3111,-24.59
3123,-28.53
3135,-32.13
3147,-35.0
3159,-36.76
3171,-37.11
3182,-36.0
3193,-33.65
3205,-30.42
3217,-26.71
3229,-22.75
3241,-18.64
3253,-14.43
3265,-10.15
3277,-5.93
3289,-1.94
3301,1.74
3313,5.09
3325,8.21
3337,11.19
3349,14.03
3361,16.53
3372,18.49
3383,19.73
3395,20.24
3407,20.17
3419,19.8
3431,19.41
3443,19.19
3455,19.24
3467,19.52
3479,19.94
3491,20.39
3503,20.78
3515,21.03
3527,21.12
3539,21.02
3551,20.77
3562,20.41
3573,20.04
3585,19.74
3597,19.5
3609,19.19
3621,18.65
3633,17.74
3645,16.46
3657,15.01
3669,13.67
3681,12.65
3693,11.98
3705,11.42
3717,10.61
3729,9.31
3741,7.49
3752,5.35
3763,3.2
3775,1.29
3787,-0.33
3799,-1.79
3811,-3.23
3823,-4.81
3835,-6.56
3847,-8.43
3859,-10.36
3871,-12.28
3883,-14.14
3895,-15.93
3907,-17.68
3919,-19.49
3931,-21.47
3942,-23.81
3953,-26.6
3965,-29.86
3977,-33.38
3989,-36.8
4001,-39.62
4013,-41.34
4025,-41.62
4037,-40.33
4049,-37.63
4061,-33.92
4073,-29.68
4085,-25.3
4097,-21.02
4109,-16.89
4121,-12.84
4132,-8.83
4143,-4.84
4155,-0.96
4167,2.7
4179,6.04
4191,8.94
4203,11.32
4215,13.11
4227,14.31
4239,14.99
4251,15.36
4263,15.62
4275,16.01
4287,16.67
4299,17.6
4311,18.71
4322,19.83
4333,20.88
4345,21.69
4357,22.21
4369,22.39
4381,22.21
4393,21.75
4405,21.11
4417,20.42
4429,19.79
4441,19.31
4453,19.0
4465,18.83
4477,18.7
4489,18.52
4501,18.22
4512,17.72
4523,16.98
4535,15.89
4547,14.39
4559,12.46
4571,10.14
4583,7.59
4595,5.08
4607,2.86
4619,1.1
4631,-0.17
4643,-1.12
4655,-2.08
4667,-3.37
4679,-5.17
4691,-7.41
4702,-9.87
4713,-12.25
4725,-14.39
4737,-16.28
4749,-18.1
4761,-20.1
4773,-22.48
4785,-25.3
4797,-28.44
4809,-31.66
4821,-34.68
4833,-37.14
4845,-38.7
4857,-39.06
4869,-38.14
4881,-36.05
4892,-33.1
4903,-29.65
4915,-25.97
4927,-22.2
4939,-18.32
4951,-14.25
4963,-9.98
4975,-5.57
4987,-1.14
4999,3.1
5011,6.98
5023,10.28
5035,12.91
5047,14.8
5059,16.04
5071,16.78
5082,17.25
5093,17.62
5105,18.0
5117,18.37
5129,18.7
5141,18.99
5153,19.24
5165,19.49
5177,19.74
5189,19.92
5201,19.99
5213,19.88
5225,19.58
5237,19.17
5249,18.71
5261,18.22
5272,17.7
5283,17.06
5295,16.22
5307,15.16
5319,13.85
5331,12.37
5343,10.84
5355,9.39
5367,8.15
5379,7.24
5391,6.74
5403,6.62
5415,6.76
5427,6.91
5439,6.84
5451,6.38
5462,5.55
5473,4.46
5485,3.37
5497,2.34
5509,1.33
5521,0.1
5533,-1.58
5545,-3.76
5557,-6.28
5569,-8.84
5581,-11.2
5593,-13.32
5605,-15.45
5617,-17.95
5629,-21.15
5641,-25.08
5652,-29.5
5663,-33.92
5675,-37.7
5687,-40.28
5699,-41.3
5711,-40.69
5723,-38.61
5735,-35.48
5747,-31.75
5759,-27.84
5771,-23.97
5783,-20.18
5795,-16.32
5807,-12.24
5819,-7.89
5831,-3.41
5842,0.97
5853,4.97
5865,8.38
5877,11.08
5889,13.1
5901,14.57
5913,15.67
5925,16.58
5937,17.39
5949,18.11
5961,18.67
5973,19.06
5985,19.28
5997,19.43
6009,19.63
6021,19.95
6032,20.32
6043,20.54
6055,20.36
6067,19.62
6079,18.35
6091,16.79
6103,15.29
6115,14.17
6127,13.63
6139,13.64
6151,14.0
6163,14.42
6175,14.6
6187,14.36
6199,13.71
6211,12.75
6222,11.66
6233,10.6
6245,9.63
6257,8.68
6269,7.66
6281,6.42
6293,4.91
6305,3.22
6317,1.49
6329,-0.15
6341,-1.64
6353,-3.12
6365,-4.79
6377,-6.81
6389,-9.21
6401,-11.9
6412,-14.7
6423,-17.48
6435,-20.23
6447,-22.99
6459,-25.92
6471,-29.1
6483,-32.47
6495,-35.81
6507,-38.78
6519,-40.9
6531,-41.71
6543,-40.94
6555,-38.54
6567,-34.79
6579,-30.16
6591,-25.15
6602,-20.21
6613,-15.52
6625,-11.04
6637,-6.62
6649,-2.13
6661,2.46
6673,6.97
6685,11.12
6697,14.62
6709,17.24
6721,18.98
6733,19.94
6745,20.34
6757,20.33
6769,20.12
6781,19.8
6792,19.5
6803,19.36
6815,19.38
6827,19.53
6839,19.65
6851,19.58
6863,19.24
6875,18.68
6887,18.05
6899,17.53
6911,17.24
6923,17.15
6935,17.15
6947,17.04
6959,16.77
6971,16.36
6982,15.95
6993,15.63
7005,15.41
7017,15.22
7029,14.89
7041,14.27
7053,13.28
7065,11.96
7077,10.39
7089,8.65
7101,6.71
7113,4.49
7125,1.9
7137,-1.12
7149,-4.46
7161,-7.91
7172,-11.19
7183,-14.01
7195,-16.24
7207,-17.83
7219,-18.92
7231,-19.72
7243,-20.49
7255,-21.47
7267,-22.84
7279,-24.66
7291,-26.78
7303,-28.91
7315,-30.59
7327,-31.36
7339,-30.94
7351,-29.34
7362,-26.86
7373,-23.94
7385,-20.97
7397,-18.13
7409,-15.34
7421,-12.44
7433,-9.22
7445,-5.64
7457,-1.85
7469,1.91
7481,5.32
7493,8.22
7505,10.53
7517,12.37
7529,13.88
7541,15.21
7552,16.41
7563,17.54
7575,18.56
7587,19.43
7599,20.13
7611,20.57
7623,20.69
7635,20.44
7647,19.85
7659,19.03
7671,18.22
7683,17.61
7695,17.27
7707,17.19
7719,17.17
7731,17.05
7742,16.76
7753,16.33
7765,15.87
7777,15.43
7789,15.06
7801,14.63
7813,14.03
7825,13.15
7837,11.95
7849,10.5
7861,8.87
7873,7.17
7885,5.5
7897,3.95
7909,2.57
7921,1.39
7932,0.33
7943,-0.77
7955,-2.11
7967,-3.88
7979,-6.15
7991,-8.78
8003,-11.52
8015,-14.05
8027,-16.16
8039,-17.89
8051,-19.46
8063,-21.21
8075,-23.47
8087,-26.36
8099,-29.8
8111,-33.53
8122,-37.13
8133,-40.11
8145,-41.95
8157,-42.3
8169,-40.93
8181,-37.97
8193,-33.79
8205,-28.96
8217,-24.02
8229,-19.37
8241,-15.12
8253,-11.19
8265,-7.4
8277,-3.62
8289,0.23
8301,4.1
8312,7.9
8323,11.44
8335,14.58
8347,17.19
8359,19.19
8371,20.59
8383,21.49
8395,22.07
8407,22.46
8419,22.7
8431,22.8
8443,22.7
8455,22.46
8467,22.15
8479,21.93
8491,21.88
8502,22.0
8513,22.13
8525,22.05
8537,21.69
8549,21.03
8561,20.3
8573,19.71
8585,19.35
8597,19.18
8609,19.05
8621,18.79
8633,18.29
8645,17.56
8657,16.6
8669,15.43
8681,13.99
8692,12.22
8703,10.04
8715,7.5
8727,4.72
8739,1.85
8751,-0.94
8763,-3.58
8775,-6.07
8787,-8.48
8799,-10.86
8811,-13.17
8823,-15.34
8835,-17.23
8847,-18.81
8859,-20.14
8871,-21.36
8882,-22.68
8893,-24.26
8905,-26.2
8917,-28.46
8929,-30.96
8941,-33.49
8953,-35.81
8965,-37.6
8977,-38.61
8989,-38.63
9001,-37.65
9013,-35.8
9025,-33.32
9037,-30.43
9049,-27.21
9061,-23.63
9072,-19.62
9083,-15.15
9095,-10.32
9107,-5.29
9119,-0.33
9131,4.4
9143,8.77
9155,12.75
9167,16.27
9179,19.27
9191,21.63
9203,23.27
9215,24.16
9227,24.4
9239,24.14
9251,23.65
9262,23.12
9273,22.69
9285,22.41
9297,22.19
9309,21.92
9321,21.44
9333,20.59
9345,19.33
9357,17.73
9369,15.95
9381,14.27
9393,12.88
9405,11.87
9417,11.14
9429,10.51
9441,9.79
9452,8.92
9463,7.97
9475,7.04
9487,6.21
9499,5.48
9511,4.77
9523,4.0
9535,3.12
9547,2.06
9559,0.86
9571,-0.53
9583,-2.1
9595,-3.92
9607,-5.98
9619,-8.25
9631,-10.61
9642,-12.95
9653,-15.23
9665,-17.43
9677,-19.68
9689,-22.07
9701,-24.67
9713,-27.35
9725,-29.8
9737,-31.59
9749,-32.29
9761,-31.63
9773,-29.59
9785,-26.46
9797,-22.64
9809,-18.57
9821,-14.55
9832,-10.8
9843,-7.32
9855,-4.1
9867,-1.12
9879,1.65
9891,4.15
9903,6.34
9915,8.2
9927,9.71
9939,10.91
9951,11.88
9963,12.75
9975,13.57
9987,14.4
9999,15.23
10011,16.08
10022,16.95
10033,17.82
10045,18.66
10057,19.31
10069,19.6
10081,19.41
10093,18.73
10105,17.69
10117,16.54
10129,15.46
10141,14.54
10153,13.75
10165,12.94
10177,12.0
10189,10.84
10201,9.47
10212,7.95
10223,6.38
10235,4.79
10247,3.18
10259,1.54
10271,-0.15
10283,-1.9
10295,-3.67
10307,-5.44
10319,-7.21
10331,-8.94
10343,-10.65
10355,-12.28
10367,-13.78
10379,-15.15
10391,-16.42
10402,-17.67
10413,-19.11
10425,-20.93
10437,-23.18
10449,-25.74
10461,-28.23
10473,-30.14
10485,-31.0
10497,-30.56
10509,-28.93
10521,-26.5
10533,-23.74
10545,-20.99
10557,-18.31
10569,-15.48
10581,-12.17
10592,-8.17
10603,-3.54
10615,1.4
10627,6.23
10639,10.53
10651,14.09
10663,16.85
10675,18.84
10687,20.24
10699,21.12
10711,21.61
10723,21.78
10735,21.72
10747,21.5
10759,21.21
10771,20.95
10782,20.76
10793,20.71
10805,20.7
10817,20.68
10829,20.61
10841,20.47
10853,20.28
10865,20.15
10877,20.11
10889,20.1
10901,19.98
10913,19.55
10925,18.71
10937,17.55
10949,16.2
10961,14.84
10972,13.61
10983,12.48
10995,11.33
11007,10.05
11019,8.57
11031,6.94
11043,5.26
11055,3.7
11067,2.32
11079,1.11
11091,-0.04
11103,-1.3
11115,-2.75
11127,-4.48
11139,-6.43
11151,-8.52
11162,-10.64
11173,-12.78
11185,-14.99
11197,-17.39
11209,-20.11
11221,-23.16
11233,-26.48
11245,-29.94
11257,-33.29
11269,-36.22
11281,-38.42
11293,-39.59
11305,-39.57
11317,-38.35
11329,-36.05
11341,-32.97
11352,-29.41
11363,-25.67
11375,-21.89
11387,-18.12
11399,-14.36
11411,-10.57
11423,-6.72
11435,-2.83
11447,0.98
11459,4.58
11471,7.76
11483,10.39
11495,12.4
11507,13.85
11519,14.92
11531,15.81
11542,16.66
11553,17.5
11565,18.26
11577,18.84
11589,19.15
11601,19.16
11613,18.96
11625,18.67
11637,18.37
11649,18.08
11661,17.79
11673,17.46
11685,17.11
11697,16.82
11709,16.68
11721,16.71
11732,16.88
11743,16.98
11755,16.71
11767,15.85
11779,14.29
11791,12.11
11803,9.54
11815,6.91
11827,4.47
11839,2.39
11851,0.71
11863,-0.64
11875,-1.79
11887,-2.86
11899,-3.95
11911,-5.12
11922,-6.39
11933,-7.83
11945,-9.43
11957,-11.17
11969,-12.96
11981,-14.68
11993,-16.27
12005,-17.72
12017,-19.19
12029,-20.82
12041,-22.75
12053,-24.91
12065,-27.0
12077,-28.51
12089,-28.98
12101,-28.13
12112,-26.01
12123,-22.98
12135,-19.55
12147,-16.2
12159,-13.16
12171,-10.4
12183,-7.77
12195,-5.09
12207,-2.29
12219,0.59
12231,3.46
12243,6.23
12255,8.8
12267,11.15
12279,13.28
12291,15.17
12302,16.88
12313,18.47
12325,19.98
12337,21.4
12349,22.59
12361,23.39
12373,23.59
12385,23.19
12397,22.26
12409,21.05
12421,19.77
12433,18.57
12445,17.55
12457,16.67
12469,15.9
12481,15.21
12492,14.6
12503,14.04
12515,13.45
12527,12.65
12539,11.45
12551,9.68
12563,7.3
12575,4.42
12587,1.27
12599,-1.83
12611,-4.64
12623,-7.02
12635,-9.02
12647,-10.79
12659,-12.48
12671,-14.19
12682,-15.93
12693,-17.72
12705,-19.56
12717,-21.5
12729,-23.56
12741,-25.55
12753,-27.18
12765,-27.97
12777,-27.59
12789,-25.96
12801,-23.36
12813,-20.24
12825,-17.02
12837,-13.95
12849,-10.97
12861,-7.93
12872,-4.67
12883,-1.2
12895,2.31
12907,5.59
12919,8.47
12931,10.88
12943,12.89
12955,14.58
12967,16.04
12979,17.35
12991,18.51
13003,19.59
13015,20.62
13027,21.56
13039,22.37
13051,22.93
13062,23.1
13073,22.77
13085,21.92
13097,20.6
13109,18.98
13121,17.25
13133,15.56
13145,14.04
13157,12.77
13169,11.72
13181,10.86
13193,10.08
13205,9.24
13217,8.24
13229,6.95
13241,5.36
13252,3.56
13263,1.69
13275,-0.13
13287,-1.86
13299,-3.57
13311,-5.37
13323,-7.25
13335,-9.16
13347,-10.98
13359,-12.6
13371,-14.15
13383,-15.87
13395,-18.09
13407,-20.96
13419,-24.35
13431,-27.73
13442,-30.35
13453,-31.59
13465,-31.13
13477,-29.13
13489,-26.05
13501,-22.5
13513,-18.92
13525,-15.47
13537,-12.11
13549,-8.67
13561,-5.03
13573,-1.24
13585,2.51
13597,5.98
13609,9.0
13621,11.47
13632,13.39
13643,14.75
13655,15.56
13667,15.84
13679,15.71
13691,15.33
13703,14.96
13715,14.79
13727,14.89
13739,15.25
13751,15.73
13763,16.27
13775,16.79
13787,17.31
13799,17.82
13811,18.18
13822,18.27
13833,18.01
13845,17.41
13857,16.61
13869,15.78
13881,15.0
13893,14.22
13905,13.33
13917,12.2
13929,10.77
13941,9.11
13953,7.3
13965,5.39
13977,3.38
13989,1.28
14001,-0.8
14012,-2.69
14023,-4.2
14035,-5.29
14047,-6.1
14059,-6.94
14071,-8.14
14083,-9.8
14095,-11.78
14107,-13.73
14119,-15.27
14131,-16.19
14143,-16.62
14155,-17.0
14167,-17.9
14179,-19.72
14191,-22.5
14202,-25.95
14213,-29.56
14225,-32.71
14237,-34.94
14249,-35.89
14261,-35.47
14273,-33.69
14285,-30.75
14297,-26.97
14309,-22.83
14321,-18.78
14333,-15.11
14345,-11.9
14357,-9.0
14369,-6.16
14381,-3.19
14392,-0.12
14403,2.88
14415,5.61
14427,7.92
14439,9.86
14451,11.52
14463,13.02
14475,14.41
14487,15.66
14499,16.71
14511,17.53
14523,18.2
14535,18.81
14547,19.44
14559,20.02
14571,20.44
14582,20.6
14593,20.43
14605,19.98
14617,19.35
14629,18.62
14641,17.8
14653,16.85
14665,15.72
14677,14.43
14689,13.07
14701,11.69
14713,10.28
14725,8.81
14737,7.24
14749,5.67
14761,4.26
14772,3.19
14783,2.47
14795,1.96
14807,1.35
14819,0.38
14831,-1.07
14843,-2.88
14855,-4.79
14867,-6.56
14879,-8.05
14891,-9.29
14903,-10.44
14915,-11.69
14927,-13.22
14939,-15.1
14951,-17.33
14962,-19.7
14973,-21.94
14985,-23.65
14997,-24.47
15009,-24.19
15021,-22.78
15033,-20.47
15045,-17.61
15057,-14.59
15069,-11.69
15081,-8.97
15093,-6.36
15105,-3.7
15117,-0.93
15129,1.91
15141,4.6
15152,6.89
15163,8.62
15175,9.8
15187,10.55
15199,11.14
15211,11.73
15223,12.41
15235,13.18
15247,13.96
15259,14.64
15271,15.17
15283,15.53
15295,15.76
15307,15.91
15319,16.01
15331,16.03
15342,15.93
15353,15.63
15365,15.12
15377,14.42
15389,13.63
15401,12.81
15413,11.92
15425,10.83
15437,9.41
15449,7.6
15461,5.51
15473,3.31
15485,1.16
15497,-0.92
15509,-2.99
15521,-5.09
15532,-7.15
15543,-8.98
15555,-10.41
15567,-11.43
15579,-12.29
15591,-13.41
15603,-15.17
15615,-17.68
15627,-20.74
15639,-23.84
15651,-26.36
15663,-27.86
15675,-28.09
15687,-27.1
15699,-25.14
15711,-22.51
15722,-19.46
15733,-16.12
15745,-12.55
15757,-8.82
15769,-5.05
15781,-1.4
15793,1.99
15805,4.99
15817,7.62
15829,9.84
15841,11.69
15853,13.1
15865,13.99
15877,14.35
15889,14.28
15901,14.02
15912,13.76
15923,13.68
15935,13.76
15947,13.96
15959,14.19
15971,14.44
15983,14.79
15995,15.26
16007,15.85
16019,16.4
16031,16.76
16043,16.76
16055,16.36
16067,15.66
16079,14.8
16091,13.94
16102,13.11
16113,12.26
16125,11.21
16137,9.74
16149,7.68
16161,5.0
16173,1.85
16185,-1.49
16197,-4.66
16209,-7.37
16221,-9.51
16233,-11.19
16245,-12.64
16257,-14.15
16269,-15.98
16281,-18.18
16292,-20.74
16303,-23.54
16315,-26.38
16327,-28.97
16339,-31.0
16351,-32.12
16363,-32.08
16375,-30.82
16387,-28.48
16399,-25.45
16411,-22.2
16423,-19.14
16435,-16.41
16447,-13.9
16459,-11.36
16471,-8.56
16482,-5.45
16493,-2.19
16505,0.99
16517,3.84
16529,6.25
16541,8.21
16553,9.83
16565,11.21
16577,12.44
16589,13.57
16601,14.63
16613,15.6
16625,16.44
16637,17.08
16649,17.48
16661,17.58
16672,17.44
16683,17.15
16695,16.79
16707,16.45
16719,16.11
16731,15.72
16743,15.2
16755,14.53
16767,13.68
16779,12.72
16791,11.7
16803,10.57
16815,9.31
16827,7.86
16839,6.24
16851,4.49
16862,2.77
16873,1.14
16885,-0.29
16897,-1.57
16909,-2.86
16921,-4.36
16933,-6.25
16945,-8.53
16957,-11.02
16969,-13.39
16981,-15.38
16993,-16.9
17005,-18.1
17017,-19.32
17029,-20.84
17041,-22.82
17052,-25.1
17063,-27.34
17075,-29.13
17087,-30.15
17099,-30.26
17111,-29.52
17123,-28.09
17135,-26.13
17147,-23.8
17159,-21.23
17171,-18.5
17183,-15.65
17195,-12.76
17207,-9.86
17219,-7.01
17231,-4.24
17242,-1.54
17253,1.04
17265,3.5
17277,5.76
17289,7.76
17301,9.43
17313,10.76
17325,11.78
17337,12.53
17349,13.12
17361,13.66
17373,14.26
17385,15.07
17397,16.14
17409,17.4
17421,18.64
17432,19.61
17443,20.02
17455,19.75
17467,18.88
17479,17.64
17491,16.31
17503,15.12
17515,14.09
17527,13.09
17539,11.92
17551,10.38
17563,8.38
17575,5.93
17587,3.18
17599,0.32
17611,-2.46
17622,-5.04
17633,-7.46
17645,-9.84
17657,-12.33
17669,-14.94
17681,-17.63
17693,-20.23
17705,-22.6
17717,-24.6
17729,-26.13
17741,-27.05
17753,-27.09
17765,-26.02
17777,-23.72
17789,-20.37
17801,-16.39
17812,-12.31
17823,-8.53
17835,-5.23
17847,-2.29
17859,0.49
17871,3.24
17883,5.89
17895,8.33
17907,10.4
17919,12.07
17931,13.38
17943,14.37
17955,15.04
17967,15.37
17979,15.33
17991,14.96
18002,14.44
18013,13.97
18025,13.69
18037,13.61
18049,13.59
18061,13.43
18073,12.99
18085,12.19
18097,11.09
18109,9.83
18121,8.52
18133,7.21
18145,5.88
18157,4.53
18169,3.11
18181,1.62
18192,0.02
18203,-1.77
18215,-3.76
18227,-6.01
18239,-8.44
18251,-10.99
18263,-13.59
18275,-16.24
18287,-18.96
18299,-21.64
18311,-24.08
18323,-25.84
18335,-26.53
18347,-25.9
18359,-24.01
18371,-21.21
18382,-18.01
18393,-14.78
18405,-11.64
18417,-8.44
18429,-5.03
18441,-1.37
18453,2.33
18465,5.68
18477,8.32
18489,10.14
18501,11.24
18513,11.93
18525,12.51
18537,13.12
18549,13.8
18561,14.46
18572,14.99
18583,15.3
18595,15.35
18607,15.14
18619,14.67
18631,14.01
18643,13.2
18655,12.32
18667,11.42
18679,10.58
18691,9.82
18703,9.16
18715,8.63
18727,8.14
18739,7.53
18751,6.59
18762,5.18
18773,3.25
18785,1.02
18797,-1.24
18809,-3.25
18821,-4.92
18833,-6.38
18845,-7.96
18857,-10.07
18869,-12.9
18881,-16.47
18893,-20.47
18905,-24.42
18917,-27.77
18929,-29.97
18941,-30.67
18952,-29.76
18963,-27.4
18975,-23.92
18987,-19.79
18999,-15.39
19011,-11.02
19023,-6.87
19035,-3.02
19047,0.46
19059,3.56
19071,6.2
19083,8.38
19095,10.07
19107,11.35
19119,12.31
19131,13.11
19142,13.93
19153,14.88
19165,16.09
19177,17.55
19189,19.23
19201,21.03
19213,22.87
19225,24.67
19237,26.38
19249,27.89
19261,29.14
19273,30.11
19285,30.75
19297,31.05
19309,30.95
19321,30.36
19332,29.2
19343,27.55
19355,25.59
19367,23.56
19379,21.71
19391,20.12
19403,18.73
19415,17.44
19427,16.14
19439,14.88
19451,13.73
19463,12.74
19475,11.9
19487,11.11
19499,10.26
19511,9.29
19522,8.25
19533,7.13
19545,5.95
19557,4.66
19569,3.22
19581,1.58
19593,-0.23
19605,-2.24
19617,-4.44
19629,-6.81
19641,-9.33
19653,-11.89
19665,-14.37
19677,-16.68
19689,-18.76
19701,-20.6
19712,-22.25
19723,-23.76
19735,-25.14
19747,-26.49
19759,-27.91
19771,-29.56
19783,-31.62
19795,-34.1
19807,-36.84
19819,-39.43
19831,-41.26
19843,-41.79
19855,-40.68
19867,-38.01
19879,-34.18
19891,-29.8
19902,-25.41
19913,-21.32
19925,-17.54
19937,-13.82
19949,-9.93
19961,-5.73
19973,-1.35
19985,2.93
19997,6.77
20009,9.94
20021,12.32
20033,13.95
20045,14.95
20057,15.42
20069,15.52
20081,15.45
20092,15.43
20103,15.73
20115,16.53
20127,17.88
20139,19.66
20151,21.59
20163,23.29
20175,24.45
20187,24.94
20199,24.78
20211,24.16
20223,23.29
20235,22.34
20247,21.37
20259,20.4
20271,19.35
20282,18.14
20293,16.77
20305,15.21
20317,13.53
20329,11.82
20341,10.21
20353,8.8
20365,7.6
20377,6.49
20389,5.31
20401,3.83
20413,1.94
20425,-0.27
20437,-2.6
20449,-4.69
20461,-6.3
20472,-7.37
20483,-7.99
20495,-8.4
20507,-8.82
20519,-9.44
20531,-10.32
20543,-11.47
20555,-12.89
20567,-14.6
20579,-16.67
20591,-19.11
20603,-21.8
20615,-24.48
20627,-26.78
20639,-28.19
20651,-28.34
20662,-27.05
20673,-24.43
20685,-20.9
20697,-17.01
20709,-13.22
20721,-9.74
20733,-6.49
20745,-3.22
20757,0.29
20769,4.07
20781,7.94
20793,11.57
20805,14.66
20817,17.01
20829,18.59
20841,19.53
20852,19.98
20863,20.06
20875,19.84
20887,19.4
20899,18.81
20911,18.18
20923,17.56
20935,17.01
20947,16.57
20959,16.23
20971,15.92
20983,15.6
20995,15.19
