seconds,BVP
5,-13.75
17,-8.61
29,-4.19
41,-0.93
53,1.12
65,2.11
77,2.33
89,2.09
101,1.74
113,1.66
125,2.19
136,3.5
147,5.55
159,8.06
171,10.6
183,12.74
195,14.19
207,14.83
219,14.78
231,14.29
243,13.7
255,13.29
267,13.23
279,13.56
291,14.12
303,14.7
315,15.06
326,15.04
337,14.55
349,13.61
361,12.29
373,10.69
385,8.88
397,6.92
409,4.94
421,3.08
433,1.59
445,0.69
457,0.53
469,1.16
481,2.42
493,4.02
505,5.61
516,6.9
527,7.78
539,8.41
551,9.07
563,10.02
575,11.27
587,12.42
599,12.84
611,11.94
623,9.56
635,6.23
647,2.97
659,1.01
671,1.21
683,3.83
695,8.52
706,14.58
717,21.22
729,27.75
741,33.54
753,37.99
765,40.69
777,41.72
789,41.83
801,42.31
813,44.54
825,49.23
837,55.77
849,62.26
861,66.11
873,65.26
885,59.03
896,48.51
907,35.96
919,23.79
931,13.54
943,5.45
955,-1.23
967,-7.53
979,-14.01
991,-20.61
1003,-26.82
1015,-32.18
1027,-36.47
1039,-39.66
1051,-41.58
1063,-41.67
1075,-39.2
1086,-33.8
1097,-26.07
1109,-17.72
1121,-11.14
1133,-8.6
1145,-11.41
1157,-19.38
1169,-31.06
1181,-44.26
1193,-56.77
1205,-66.73
1217,-72.83
1229,-74.29
1241,-70.94
1253,-63.29
1265,-52.6
1276,-40.73
1287,-29.79
1299,-21.59
1311,-17.18
1323,-16.57
1335,-18.86
1347,-22.49
1359,-25.66
1371,-26.75
1383,-24.7
1395,-19.21
1407,-10.95
1419,-1.34
1431,7.75
1443,14.53
1455,17.88
1466,17.61
1477,14.45
1489,9.73
1501,4.83
1513,0.81
1525,-1.86
1537,-3.23
1549,-3.68
1561,-3.52
1573,-2.86
1585,-1.47
1597,1.02
1609,4.81
1621,9.68
1633,14.86
1645,19.1
1656,21.02
1667,19.6
1679,14.59
1691,6.69
1703,-2.66
1715,-11.75
1727,-19.2
1739,-24.34
1751,-27.19
1763,-28.24
1775,-28.05
1787,-26.96
1799,-25.08
1811,-22.44
1823,-19.17
1835,-15.6
1846,-12.17
1857,-9.28
1869,-7.13
1881,-5.68
1893,-4.71
1905,-3.94
1917,-3.2
1929,-2.42
1941,-1.77
1953,-1.44
1965,-1.62
1977,-2.28
1989,-3.23
2001,-4.08
2013,-4.49
2025,-4.34
2036,-3.82
2047,-3.35
2059,-3.37
2071,-4.11
2083,-5.45
2095,-7.01
2107,-8.36
2119,-9.27
2131,-9.83
2143,-10.39
2155,-11.39
2167,-13.1
2179,-15.59
2191,-18.69
2203,-22.18
2215,-25.85
2226,-29.55
2237,-33.18
2249,-36.69
2261,-40.08
2273,-43.59
2285,-47.65
2297,-52.79
2309,-59.36
2321,-67.2
2333,-75.44
2345,-82.69
2357,-87.39
2369,-88.4
2381,-85.31
2393,-78.48
2405,-68.78
2416,-57.24
2427,-44.88
2439,-32.72
2451,-21.88
2463,-13.45
2475,-8.05
2487,-5.36
2499,-3.93
2511,-1.57
2523,3.81
2535,13.22
2547,26.05
2559,40.42
2571,53.9
2583,64.52
2595,71.32
2606,74.32
2617,74.17
2629,71.7
2641,67.6
2653,62.52
2665,57.09
2677,52.01
2689,47.89
2701,45.06
2713,43.49
2725,42.8
2737,42.38
2749,41.67
2761,40.35
2773,38.46
2785,36.39
2796,34.68
2807,33.79
2819,33.83
2831,34.53
2843,35.32
2855,35.55
2867,34.76
2879,32.77
2891,29.71
2903,25.94
2915,21.91
2927,18.05
2939,14.69
2951,12.02
2963,10.02
2975,8.56
2986,7.38
2997,6.22
3009,4.84
3021,3.14
3033,1.09
3045,-1.32
3057,-4.12
3069,-7.3
3081,-10.81
3093,-14.4
3105,-17.7
3117,-20.28
3129,-21.83
3141,-22.34
3153,-22.07
3165,-21.34
3176,-20.25
3187,-18.58
3199,-15.77
3211,-11.42
3223,-5.61
3235,0.82
3247,6.44
3259,9.73
3271,9.64
3283,6.03
3295,-0.34
3307,-8.19
3319,-16.23
3331,-23.63
3343,-30.07
3355,-35.58
3366,-40.14
3377,-43.52
3389,-45.34
3401,-45.22
3413,-43.16
3425,-39.51
3437,-34.87
3449,-29.84
3461,-24.83
3473,-20.06
3485,-15.64
3497,-11.75
3509,-8.63
3521,-6.53
3533,-5.54
3545,-5.6
3556,-6.5
3567,-8.02
3579,-9.91
3591,-11.96
3603,-13.86
3615,-15.33
3627,-16.18
3639,-16.45
3651,-16.41
3663,-16.37
3675,-16.55
3687,-16.89
3699,-17.09
3711,-16.81
3723,-15.86
3735,-14.25
3746,-12.19
3757,-9.93
3769,-7.58
3781,-5.07
3793,-2.25
3805,0.99
3817,4.62
3829,8.43
3841,12.1
3853,15.36
3865,18.05
3877,20.15
3889,21.75
3901,23.0
3913,24.01
3925,24.89
3936,25.7
3947,26.48
3959,27.22
3971,27.92
3983,28.54
3995,29.07
4007,29.52
4019,29.93
4031,30.4
4043,30.99
4055,31.75
4067,32.66
4079,33.64
4091,34.59
4103,35.4
4115,36.0
4126,36.45
4137,36.93
4149,37.74
4161,39.18
4173,41.42
4185,44.35
4197,47.6
4209,50.55
4221,52.63
4233,53.43
4245,52.89
4257,51.28
4269,49.08
4281,46.79
4293,44.72
4305,43.01
4316,41.6
4327,40.36
4339,39.18
4351,38.03
4363,36.91
4375,35.86
4387,34.77
4399,33.53
4411,31.92
4423,29.66
4435,26.39
4447,21.61
4459,14.85
4471,5.78
4483,-5.54
4495,-18.52
4506,-32.18
4517,-45.33
4529,-56.97
4541,-66.45
4553,-73.6
4565,-78.56
4577,-81.59
4589,-82.95
4601,-82.82
4613,-81.46
4625,-79.18
4637,-76.36
4649,-73.35
4661,-70.31
4673,-67.2
4685,-63.76
4696,-59.73
4707,-55.0
4719,-49.67
4731,-44.05
4743,-38.5
4755,-33.2
4767,-28.03
4779,-22.66
4791,-16.75
4803,-10.2
4815,-3.24
4827,3.61
4839,9.83
4851,15.01
4863,19.03
4875,21.96
4886,23.93
4897,25.08
4909,25.54
4921,25.47
4933,25.04
4945,24.35
4957,23.48
4969,22.43
4981,21.27
4993,20.16
5005,19.28
5017,18.76
5029,18.49
5041,18.18
5053,17.45
5065,16.07
5076,14.06
5087,11.65
5099,9.1
5111,6.58
5123,4.13
5135,1.79
5147,-0.27
5159,-1.75
5171,-2.33
5183,-1.84
5195,-0.35
5207,1.83
5219,4.32
5231,6.71
5243,8.67
5255,9.9
5266,10.21
5277,9.56
5289,8.26
5301,6.88
5313,6.21
5325,6.91
5337,9.2
5349,12.75
5361,16.82
5373,20.52
5385,23.13
5397,24.25
5409,23.84
5421,22.07
5433,19.26
5445,15.87
5456,12.35
5467,9.03
5479,6.0
5491,3.03
5503,-0.29
5515,-4.16
5527,-8.34
5539,-12.02
5551,-14.13
5563,-13.74
5575,-10.61
5587,-5.25
5599,1.21
5611,7.5
5623,12.68
5635,16.3
5646,18.4
5657,19.22
5669,19.01
5681,17.83
5693,15.71
5705,12.85
5717,9.64
5729,6.73
5741,4.79
5753,4.2
5765,4.93
5777,6.48
5789,8.01
5801,8.67
5813,7.89
5825,5.5
5836,1.86
5847,-2.35
5859,-6.28
5871,-9.14
5883,-10.34
5895,-9.69
5907,-7.32
5919,-3.72
5931,0.29
5943,3.74
5955,5.63
5967,5.35
5979,2.95
5991,-0.65
6003,-3.89
6015,-5.07
6026,-3.07
6037,2.11
6049,9.31
6061,16.65
6073,22.29
6085,24.97
6097,24.27
6109,20.41
6121,13.95
6133,5.61
6145,-3.67
6157,-12.75
6169,-20.26
6181,-25.07
6193,-26.78
6205,-26.01
6216,-24.2
6227,-23.1
6239,-24.11
6251,-27.87
6263,-34.09
6275,-41.71
6287,-49.16
6299,-54.7
6311,-56.83
6323,-54.72
6335,-48.55
6347,-39.47
6359,-29.22
6371,-19.42
6383,-11.05
6395,-4.19
6406,1.58
6417,6.71
6429,11.3
6441,15.05
6453,17.58
6465,18.76
6477,18.89
6489,18.51
6501,18.09
6513,17.82
6525,17.62
6537,17.25
6549,16.54
6561,15.52
6573,14.46
6585,13.7
6596,13.58
6607,14.28
6619,15.79
6631,17.95
6643,20.5
6655,23.2
6667,25.92
6679,28.69
6691,31.6
6703,34.75
6715,38.08
6727,41.32
6739,43.98
6751,45.53
6763,45.55
6775,44.0
6786,41.2
6797,37.73
6809,34.21
6821,31.03
6833,28.27
6845,25.69
6857,22.91
6869,19.67
6881,15.99
6893,12.14
6905,8.61
6917,5.84
6929,4.0
6941,2.9
6953,1.98
6965,0.5
6976,-2.22
6987,-6.48
6999,-12.04
7011,-18.09
7023,-23.44
7035,-26.85
7047,-27.5
7059,-25.23
7071,-20.74
7083,-15.28
7095,-10.36
7107,-7.18
7119,-6.29
7131,-7.44
7143,-9.71
7155,-11.88
7166,-12.89
7177,-12.23
7189,-10.01
7201,-6.89
7213,-3.73
7225,-1.21
7237,0.39
7249,1.15
7261,1.4
7273,1.38
7285,1.23
7297,0.9
7309,0.27
7321,-0.81
7333,-2.43
7345,-4.66
7356,-7.47
7367,-10.7
7379,-13.97
7391,-16.76
7403,-18.52
7415,-18.89
7427,-17.8
7439,-15.47
7451,-12.27
7463,-8.54
7475,-4.65
7487,-0.98
7499,2.05
7511,4.04
7523,4.7
7535,3.97
7546,2.03
7557,-0.77
7569,-3.95
7581,-7.03
7593,-9.52
7605,-11.01
7617,-11.18
7629,-9.97
7641,-7.63
7653,-4.67
7665,-1.71
7677,0.79
7689,2.6
7701,3.79
7713,4.6
7725,5.28
7736,6.05
7747,7.07
7759,8.43
7771,10.15
7783,12.1
7795,13.95
7807,15.32
7819,15.9
7831,15.69
7843,15.13
7855,14.89
7867,15.59
7879,17.5
7891,20.37
7903,23.56
7915,26.32
7926,28.11
7937,28.72
7949,28.13
7961,26.43
7973,23.72
7985,20.15
7997,16.02
8009,11.87
8021,8.36
8033,5.99
8045,4.91
8057,4.86
8069,5.36
8081,5.91
8093,6.18
8105,6.03
8116,5.43
8127,4.39
8139,2.94
8151,1.17
8163,-0.68
8175,-2.29
8187,-3.34
8199,-3.69
8211,-3.35
8223,-2.55
8235,-1.5
8247,-0.4
8259,0.68
8271,1.72
8283,2.72
8295,3.68
8306,4.56
8317,5.33
8329,5.88
8341,6.03
8353,5.53
8365,4.11
8377,1.64
8389,-1.87
8401,-6.22
8413,-11.14
8425,-16.38
8437,-21.77
8449,-27.15
8461,-32.31
8473,-36.95
8485,-40.71
8496,-43.34
8507,-44.83
8519,-45.42
8531,-45.54
8543,-45.58
8555,-45.74
8567,-45.94
8579,-45.9
8591,-45.29
8603,-43.86
8615,-41.49
8627,-38.16
8639,-33.93
8651,-28.99
8663,-23.65
8675,-18.4
8686,-13.82
8697,-10.37
8709,-8.28
8721,-7.37
8733,-7.13
8745,-6.92
8757,-6.26
8769,-5.03
8781,-3.62
8793,-2.78
8805,-3.38
8817,-6.04
8829,-10.79
8841,-16.97
8853,-23.38
8865,-28.71
8876,-31.99
8887,-32.98
8899,-32.17
8911,-30.47
8923,-28.82
8935,-27.92
8947,-28.09
8959,-29.42
8971,-31.77
8983,-34.73
8995,-37.57
9007,-39.28
9019,-38.84
9031,-35.76
9043,-30.4
9055,-23.94
9066,-17.92
9077,-13.56
9089,-11.24
9101,-10.36
9113,-9.83
9125,-8.61
9137,-6.25
9149,-2.94
9161,0.73
9173,4.11
9185,6.78
9197,8.66
9209,9.84
9221,10.43
9233,10.47
9245,9.95
9256,8.88
9267,7.42
9279,5.85
9291,4.51
9303,3.71
9315,3.54
9327,3.94
9339,4.71
9351,5.65
9363,6.65
9375,7.75
9387,9.1
9399,10.88
9411,13.21
9423,16.06
9435,19.3
9446,22.73
9457,26.14
9469,29.3
9481,32.07
9493,34.38
9505,36.24
9517,37.8
9529,39.25
9541,40.78
9553,42.5
9565,44.32
9577,46.02
9589,47.33
9601,48.02
9613,48.04
9625,47.51
9636,46.64
9647,45.64
9659,44.63
9671,43.6
9683,42.5
9695,41.28
9707,39.99
9719,38.7
9731,37.56
9743,36.61
9755,35.75
9767,34.63
9779,32.72
9791,29.46
9803,24.48
9815,17.83
9826,9.95
9837,1.6
9849,-6.49
9861,-13.72
9873,-19.88
9885,-24.97
9897,-29.15
9909,-32.61
9921,-35.49
9933,-37.86
9945,-39.76
9957,-41.15
9969,-41.83
9981,-41.48
9993,-39.76
10005,-36.49
10016,-31.8
10027,-26.2
10039,-20.43
10051,-15.24
10063,-11.2
10075,-8.53
10087,-7.14
10099,-6.8
10111,-7.18
10123,-7.99
10135,-9.01
10147,-10.03
10159,-10.9
10171,-11.5
10183,-11.82
10195,-11.89
10206,-11.77
10217,-11.52
10229,-11.19
10241,-10.81
10253,-10.45
10265,-10.21
10277,-10.18
10289,-10.38
10301,-10.76
10313,-11.25
10325,-11.81
10337,-12.42
10349,-13.04
10361,-13.55
10373,-13.73
10385,-13.37
10396,-12.4
10407,-11.02
10419,-9.65
10431,-8.72
10443,-8.49
10455,-8.9
10467,-9.61
10479,-10.18
10491,-10.21
10503,-9.49
10515,-8.01
10527,-5.87
10539,-3.2
10551,-0.23
10563,2.8
10575,5.57
10586,7.84
10597,9.52
10609,10.69
10621,11.55
10633,12.24
10645,12.77
10657,13.03
10669,12.86
10681,12.26
10693,11.37
10705,10.4
10717,9.5
10729,8.65
10741,7.75
10753,6.72
10765,5.65
10776,4.8
10787,4.44
10799,4.65
10811,5.21
10823,5.74
10835,5.86
10847,5.45
10859,4.65
10871,3.84
10883,3.38
10895,3.43
10907,3.96
10919,4.77
10931,5.62
10943,6.31
10955,6.75
10966,6.89
10977,6.77
10989,6.49
11001,6.15
11013,5.88
11025,5.74
11037,5.73
11049,5.77
11061,5.76
11073,5.63
11085,5.44
11097,5.26
11109,5.16
11121,5.17
11133,5.21
11145,5.14
11156,4.87
11167,4.37
11179,3.73
11191,3.08
11203,2.51
11215,2.04
11227,1.61
11239,1.12
11251,0.55
11263,0.0
11275,-0.33
11287,-0.26
11299,0.34
11311,1.41
11323,2.76
11335,4.16
11346,5.42
11357,6.51
11369,7.46
11381,8.38
11393,9.31
11405,10.27
11417,11.26
11429,12.25
11441,13.25
11453,14.26
11465,15.27
11477,16.26
11489,17.24
11501,18.26
11513,19.41
11525,20.83
11536,22.6
11547,24.72
11559,27.09
11571,29.55
11583,31.88
11595,33.91
11607,35.5
11619,36.65
11631,37.46
11643,38.21
11655,39.22
11667,40.78
11679,42.99
11691,45.67
11703,48.4
11715,50.58
11726,51.58
11737,50.72
11749,47.33
11761,40.79
11773,30.74
11785,17.28
11797,1.1
11809,-16.58
11821,-34.34
11833,-50.91
11845,-65.38
11857,-77.25
11869,-86.25
11881,-92.16
11893,-94.79
11905,-94.22
11916,-90.89
11927,-85.7
11939,-79.66
11951,-73.57
11963,-67.64
11975,-61.53
11987,-54.66
11999,-46.62
12011,-37.51
12023,-27.88
12035,-18.56
12047,-10.32
12059,-3.64
12071,1.39
12083,4.96
12095,7.37
12106,8.91
12117,9.79
12129,10.22
12141,10.39
12153,10.49
12165,10.62
12177,10.75
12189,10.77
12201,10.46
12213,9.66
12225,8.29
12237,6.42
12249,4.29
12261,2.15
12273,0.29
12285,-1.04
12296,-1.72
12307,-1.74
12319,-1.2
12331,-0.25
12343,0.97
12355,2.37
12367,3.93
12379,5.62
12391,7.34
12403,8.91
12415,10.09
12427,10.71
12439,10.76
12451,10.42
12463,9.96
12475,9.63
12486,9.46
12497,9.33
12509,8.97
12521,8.15
12533,6.76
12545,4.87
12557,2.62
12569,0.21
12581,-2.21
12593,-4.47
12605,-6.41
12617,-7.91
12629,-8.9
12641,-9.44
12653,-9.69
12665,-9.84
12676,-9.97
12687,-10.06
12699,-9.97
12711,-9.57
12723,-8.81
12735,-7.75
12747,-6.53
12759,-5.28
12771,-4.1
12783,-2.99
12795,-1.98
12807,-1.06
12819,-0.28
12831,0.34
12843,0.76
12855,1.03
12866,1.2
12877,1.37
12889,1.59
12901,1.84
12913,2.08
12925,2.21
12937,2.18
12949,2.04
12961,1.91
12973,1.93
12985,2.17
12997,2.61
13009,3.12
13021,3.47
13033,3.52
13045,3.21
13056,2.63
13067,1.97
13079,1.47
13091,1.33
13103,1.63
13115,2.31
13127,3.21
13139,4.09
13151,4.79
13163,5.2
13175,5.32
13187,5.22
13199,4.94
13211,4.54
13223,4.0
13235,3.33
13246,2.61
13257,1.94
13269,1.44
13281,1.12
13293,0.94
13305,0.73
13317,0.4
13329,-0.04
13341,-0.48
13353,-0.79
13365,-0.87
13377,-0.78
13389,-0.65
13401,-0.64
13413,-0.81
13425,-1.11
13436,-1.39
13447,-1.52
13459,-1.45
13471,-1.2
13483,-0.85
13495,-0.42
13507,0.08
13519,0.66
13531,1.33
13543,1.99
13555,2.55
13567,2.91
13579,3.01
13591,2.84
13603,2.46
13615,1.95
13626,1.36
13637,0.77
13649,0.24
13661,-0.14
13673,-0.34
13685,-0.33
13697,-0.18
13709,0.01
13721,0.15
13733,0.15
13745,0.01
13757,-0.24
13769,-0.51
13781,-0.73
13793,-0.88
13805,-0.96
13816,-0.97
13827,-0.9
13839,-0.71
13851,-0.34
13863,0.22
13875,0.92
13887,1.67
13899,2.33
13911,2.82
13923,3.08
13935,3.1
13947,2.95
13959,2.68
13971,2.37
13983,2.1
13995,1.92
14006,1.85
14017,1.88
14029,1.96
14041,2.02
14053,2.03
14065,1.98
14077,1.92
14089,1.89
14101,1.93
14113,2.05
14125,2.22
14137,2.41
14149,2.51
14161,2.43
14173,2.12
14185,1.6
14196,1.04
14207,0.63
14219,0.52
14231,0.73
14243,1.14
14255,1.54
14267,1.77
14279,1.79
14291,1.69
14303,1.59
14315,1.54
14327,1.5
14339,1.41
14351,1.22
14363,0.95
14375,0.69
14386,0.5
14397,0.39
14409,0.27
14421,-0.01
14433,-0.48
14445,-1.13
14457,-1.79
14469,-2.33
14481,-2.65
14493,-2.71
14505,-2.61
14517,-2.43
14529,-2.26
14541,-2.11
14553,-1.96
14565,-1.7
14576,-1.27
14587,-0.61
14599,0.23
14611,1.13
14623,1.93
14635,2.47
14647,2.71
14659,2.66
14671,2.5
14683,2.39
14695,2.44
14707,2.63
14719,2.86
14731,2.97
14743,2.88
14755,2.61
14766,2.25
14777,1.91
14789,1.68
14801,1.54
14813,1.46
14825,1.4
14837,1.33
14849,1.26
14861,1.15
14873,0.97
14885,0.66
14897,0.23
14909,-0.25
14921,-0.63
14933,-0.78
14945,-0.61
14956,-0.13
14967,0.52
14979,1.19
14991,1.74
15003,2.09
15015,2.22
15027,2.17
15039,2.01
15051,1.81
15063,1.66
15075,1.59
15087,1.61
15099,1.69
15111,1.76
15123,1.74
15135,1.59
15146,1.31
15157,0.92
15169,0.5
15181,0.08
15193,-0.3
15205,-0.66
15217,-1.02
15229,-1.38
15241,-1.7
15253,-1.9
15265,-1.93
15277,-1.76
15289,-1.44
15301,-1.06
15313,-0.77
15325,-0.61
15336,-0.59
15347,-0.62
15359,-0.62
15371,-0.5
15383,-0.24
15395,0.1
15407,0.46
15419,0.77
15431,1.02
15443,1.22
15455,1.36
15467,1.42
15479,1.38
15491,1.23
15503,1.02
15515,0.82
15526,0.77
15537,0.92
15549,1.23
15561,1.56
15573,1.72
15585,1.6
15597,1.19
15609,0.65
15621,0.14
15633,-0.28
15645,-0.64
15657,-1.07
15669,-1.68
15681,-2.43
15693,-3.16
15705,-3.64
15716,-3.74
15727,-3.45
15739,-2.9
15751,-2.25
15763,-1.63
15775,-1.07
15787,-0.53
15799,-0.01
15811,0.48
15823,0.89
15835,1.13
15847,1.21
15859,1.13
15871,0.97
15883,0.78
15895,0.6
15906,0.46
15917,0.38
15929,0.36
15941,0.4
15953,0.46
15965,0.5
15977,0.47
15989,0.34
16001,0.16
16013,-0.02
16025,-0.12
16037,-0.11
16049,-0.1
16061,-0.22
16073,-0.59
16085,-1.19
16096,-1.87
16107,-2.4
16119,-2.59
16131,-2.42
16143,-2.02
16155,-1.6
16167,-1.3
16179,-1.17
16191,-1.11
16203,-1.01
16215,-0.8
16227,-0.51
16239,-0.2
16251,0.09
16263,0.33
16275,0.54
16286,0.73
16297,0.93
16309,1.12
16321,1.29
16333,1.42
16345,1.52
16357,1.6
16369,1.69
16381,1.8
16393,1.94
16405,2.08
16417,2.2
16429,2.23
16441,2.14
16453,1.94
16465,1.67
16476,1.34
16487,0.99
16499,0.6
16511,0.18
16523,-0.26
16535,-0.67
16547,-0.96
16559,-1.03
16571,-0.82
16583,-0.36
16595,0.28
16607,0.97
16619,1.63
16631,2.16
16643,2.57
16655,2.87
16666,3.05
16677,3.07
16689,2.87
16701,2.46
16713,1.92
16725,1.41
16737,1.08
16749,1.04
16761,1.24
16773,1.53
16785,1.74
16797,1.74
16809,1.5
16821,1.06
16833,0.51
16845,-0.07
16856,-0.6
16867,-1.05
16879,-1.38
16891,-1.58
16903,-1.66
16915,-1.64
16927,-1.55
16939,-1.44
16951,-1.34
16963,-1.25
16975,-1.14
16987,-0.95
16999,-0.63
17011,-0.22
17023,0.2
17035,0.52
17046,0.66
17057,0.62
17069,0.5
17081,0.4
17093,0.4
17105,0.48
17117,0.55
17129,0.53
17141,0.41
17153,0.21
17165,0.02
17177,-0.14
17189,-0.26
17201,-0.39
17213,-0.53
17225,-0.63
17236,-0.62
17247,-0.44
17259,-0.09
17271,0.32
17283,0.64
17295,0.74
17307,0.56
17319,0.16
17331,-0.32
17343,-0.73
17355,-0.98
17367,-1.05
17379,-0.94
17391,-0.7
17403,-0.34
17415,0.11
17426,0.61
17437,1.07
17449,1.37
17461,1.45
17473,1.27
17485,0.92
17497,0.5
17509,0.15
17521,-0.06
17533,-0.12
17545,-0.08
17557,0.0
17569,0.07
17581,0.1
17593,0.09
17605,0.05
17616,-0.03
17627,-0.1
17639,-0.14
17651,-0.08
17663,0.1
17675,0.39
17687,0.67
17699,0.84
17711,0.75
17723,0.37
17735,-0.24
17747,-0.92
17759,-1.51
17771,-1.86
17783,-1.93
17795,-1.72
17806,-1.29
17817,-0.73
17829,-0.17
17841,0.22
17853,0.32
17865,0.11
17877,-0.32
17889,-0.69
17901,-0.77
17913,-0.41
17925,0.3
17937,1.12
17949,1.77
17961,2.07
17973,2.03
17985,1.78
17996,1.5
18007,1.27
18019,1.07
18031,0.81
18043,0.44
18055,0.0
18067,-0.36
18079,-0.52
18091,-0.42
18103,-0.15
18115,0.16
18127,0.37
18139,0.36
18151,0.16
18163,-0.14
18175,-0.43
18186,-0.6
18197,-0.57
18209,-0.35
18221,0.02
18233,0.47
18245,0.89
18257,1.22
18269,1.41
18281,1.5
18293,1.61
18305,1.86
18317,2.36
18329,3.08
18341,3.9
18353,4.62
18365,5.05
18376,5.03
18387,4.48
18399,3.44
18411,1.98
18423,0.31
18435,-1.35
18447,-2.69
18459,-3.48
18471,-3.6
18483,-3.13
18495,-2.34
18507,-1.61
18519,-1.3
18531,-1.58
18543,-2.43
18555,-3.6
18566,-4.78
18577,-5.66
18589,-6.09
18601,-6.05
18613,-5.64
18625,-5.07
18637,-4.52
18649,-4.1
18661,-3.84
18673,-3.72
18685,-3.69
18697,-3.75
18709,-3.9
18721,-4.16
18733,-4.44
18745,-4.62
18756,-4.53
18767,-4.1
18779,-3.36
18791,-2.52
18803,-1.8
18815,-1.41
18827,-1.42
18839,-1.73
18851,-2.12
18863,-2.41
18875,-2.44
18887,-2.13
18899,-1.51
18911,-0.66
18923,0.26
18935,1.05
18946,1.53
18957,1.56
18969,1.16
18981,0.47
18993,-0.3
19005,-0.91
19017,-1.22
19029,-1.17
19041,-0.85
19053,-0.4
19065,0.02
19077,0.3
19089,0.38
19101,0.31
19113,0.18
19125,0.06
19136,0.0
19147,0.04
19159,0.11
19171,0.22
19183,0.33
19195,0.45
19207,0.59
19219,0.72
19231,0.81
19243,0.83
19255,0.76
19267,0.64
19279,0.52
19291,0.41
19303,0.29
19315,0.17
19326,0.05
19337,-0.03
19349,-0.02
19361,0.12
19373,0.38
19385,0.66
19397,0.87
19409,0.93
19421,0.81
19433,0.54
19445,0.21
19457,-0.09
19469,-0.33
19481,-0.44
19493,-0.39
19505,-0.17
19516,0.2
19527,0.68
19539,1.13
19551,1.47
19563,1.61
19575,1.57
19587,1.43
19599,1.29
19611,1.21
19623,1.16
19635,1.1
19647,0.94
19659,0.69
19671,0.4
19683,0.16
19695,0.03
19706,0.03
19717,0.07
19729,0.06
19741,-0.12
19753,-0.5
19765,-0.99
19777,-1.45
19789,-1.72
19801,-1.71
19813,-1.45
19825,-1.09
19837,-0.76
19849,-0.55
19861,-0.45
19873,-0.33
19885,-0.11
19896,0.26
19907,0.77
19919,1.32
19931,1.82
19943,2.23
19955,2.52
19967,2.72
19979,2.84
19991,2.92
20003,2.97
20015,3.04
20027,3.11
20039,3.15
20051,3.05
20063,2.69
20075,1.98
20086,0.97
20097,-0.18
20109,-1.24
20121,-2.01
20133,-2.38
20145,-2.39
20157,-2.16
20169,-1.86
20181,-1.58
20193,-1.36
20205,-1.17
20217,-0.99
20229,-0.87
20241,-0.84
20253,-0.93
20265,-1.07
20276,-1.15
20287,-1.03
20299,-0.66
20311,-0.08
20323,0.54
20335,0.99
20347,1.12
20359,0.91
20371,0.46
20383,-0.08
20395,-0.55
20407,-0.91
20419,-1.17
20431,-1.39
20443,-1.63
20455,-1.88
20466,-2.06
20477,-2.08
20489,-1.94
20501,-1.72
20513,-1.62
20525,-1.79
20537,-2.27
20549,-2.9
20561,-3.41
20573,-3.53
20585,-3.15
20597,-2.35
20609,-1.4
20621,-0.62
20633,-0.23
20645,-0.29
20656,-0.69
20667,-1.25
20679,-1.75
20691,-2.03
20703,-1.95
20715,-1.51
20727,-0.78
20739,0.06
20751,0.84
20763,1.43
20775,1.79
20787,1.99
20799,2.1
20811,2.21
20823,2.32
20835,2.38
20846,2.33
20857,2.14
20869,1.83
20881,1.47
20893,1.16
20905,1.01
20917,1.07
20929,1.31
20941,1.66
20953,1.95
20965,2.04
20977,1.84
20989,1.33
