seconds,BVP
0,19.84
12,18.13
24,15.56
36,12.39
48,8.9
60,5.32
72,1.8
84,-1.49
96,-4.39
107,-6.64
118,-8.02
130,-8.4
142,-7.85
154,-6.7
166,-5.44
178,-4.63
190,-4.73
202,-5.97
214,-8.32
226,-11.4
238,-14.68
250,-17.55
262,-19.49
274,-20.23
286,-19.76
297,-18.44
308,-16.83
320,-15.56
332,-15.07
344,-15.45
356,-16.43
368,-17.42
380,-17.78
392,-17.0
404,-14.86
416,-11.5
428,-7.32
440,-2.83
452,1.52
464,5.46
476,8.92
487,11.92
498,14.48
510,16.53
522,17.99
534,18.77
546,18.94
558,18.76
570,18.61
582,18.83
594,19.58
606,20.78
618,22.11
630,23.21
642,23.84
654,23.91
666,23.49
677,22.66
688,21.4
700,19.56
712,17.04
724,13.89
736,10.37
748,6.92
760,3.92
772,1.62
784,-0.05
796,-1.32
808,-2.54
820,-3.91
832,-5.58
844,-7.55
856,-9.78
867,-12.19
878,-14.51
890,-16.34
902,-17.16
914,-16.53
926,-14.26
938,-10.61
950,-6.13
962,-1.53
974,2.64
986,6.2
998,9.29
1010,12.21
1022,15.26
1034,18.49
1046,21.78
1057,24.87
1068,27.58
1080,29.9
1092,31.99
1104,34.1
1116,36.45
1128,39.1
1140,41.9
1152,44.59
1164,46.86
1176,48.47
1188,49.29
1200,49.37
1212,48.84
1224,47.83
1236,46.47
1247,44.83
1258,42.96
1270,40.88
1282,38.66
1294,36.39
1306,34.16
1318,32.08
1330,30.14
1342,28.26
1354,26.23
1366,23.79
1378,20.71
1390,16.88
1402,12.41
1414,7.56
1426,2.71
1437,-1.73
1448,-5.41
1460,-8.08
1472,-9.59
1484,-9.91
1496,-9.14
1508,-7.55
1520,-5.53
1532,-3.54
1544,-1.99
1556,-1.12
1568,-0.98
1580,-1.43
1592,-2.3
1604,-3.51
1616,-5.06
1627,-7.02
1638,-9.46
1650,-12.3
1662,-15.38
1674,-18.49
1686,-21.46
1698,-24.2
1710,-26.7
1722,-28.93
1734,-30.84
1746,-32.36
1758,-33.42
1770,-34.07
1782,-34.39
1794,-34.51
1806,-34.54
1817,-34.53
1828,-34.49
1840,-34.45
1852,-34.43
1864,-34.51
1876,-34.69
1888,-34.93
1900,-35.15
1912,-35.28
1924,-35.33
1936,-35.39
1948,-35.61
1960,-36.08
1972,-36.75
1984,-37.42
1996,-37.7
2007,-37.21
2018,-35.69
2030,-33.08
2042,-29.61
2054,-25.67
2066,-21.68
2078,-17.95
2090,-14.66
2102,-11.81
2114,-9.34
2126,-7.17
2138,-5.28
2150,-3.65
2162,-2.28
2174,-1.14
2186,-0.12
2197,0.94
2208,2.19
2220,3.71
2232,5.45
2244,7.25
2256,8.84
2268,10.0
2280,10.66
2292,10.98
2304,11.24
2316,11.75
2328,12.68
2340,13.97
2352,15.34
2364,16.46
2376,17.04
2387,16.94
2398,16.15
2410,14.72
2422,12.72
2434,10.18
2446,7.12
2458,3.57
2470,-0.37
2482,-4.55
2494,-8.73
2506,-12.55
2518,-15.62
2530,-17.5
2542,-17.89
2554,-16.75
2566,-14.31
2577,-11.08
2588,-7.65
2600,-4.49
2612,-1.87
2624,0.22
2636,1.89
2648,3.25
2660,4.3
2672,4.94
2684,5.1
2696,4.82
2708,4.34
2720,3.95
2732,3.9
2744,4.29
2756,4.94
2767,5.6
2778,6.0
2790,6.05
2802,5.79
2814,5.42
2826,5.13
2838,5.0
2850,5.0
2862,5.02
2874,4.93
2886,4.66
2898,4.22
2910,3.67
2922,3.12
2934,2.65
2946,2.33
2957,2.1
2968,1.86
2980,1.48
2992,0.85
3004,-0.11
3016,-1.43
3028,-3.13
3040,-5.13
3052,-7.22
3064,-9.0
3076,-9.9
3088,-9.42
3100,-7.29
3112,-3.69
3124,0.8
3136,5.38
3147,9.36
3158,12.41
3170,14.6
3182,16.17
3194,17.38
3206,18.28
3218,18.77
3230,18.75
3242,18.32
3254,17.72
3266,17.31
3278,17.39
3290,18.02
3302,19.05
3314,20.21
3326,21.17
3337,21.72
3348,21.78
3360,21.41
3372,20.73
3384,19.9
3396,19.04
3408,18.24
3420,17.52
3432,16.88
3444,16.28
3456,15.71
3468,15.13
3480,14.46
3492,13.59
3504,12.36
3516,10.67
3527,8.53
3538,6.09
3550,3.61
3562,1.31
3574,-0.67
3586,-2.33
3598,-3.77
3610,-5.06
3622,-6.19
3634,-7.01
3646,-7.27
3658,-6.73
3670,-5.32
3682,-3.17
3694,-0.54
3706,2.23
3717,4.87
3728,7.24
3740,9.33
3752,11.2
3764,12.88
3776,14.27
3788,15.2
3800,15.51
3812,15.15
3824,14.26
3836,13.13
3848,12.09
3860,11.38
3872,11.09
3884,11.13
3896,11.27
3907,11.21
3918,10.71
3930,9.65
3942,8.1
3954,6.25
3966,4.32
3978,2.46
3990,0.72
4002,-0.96
4014,-2.67
4026,-4.37
4038,-5.98
4050,-7.35
4062,-8.46
4074,-9.4
4086,-10.38
4097,-11.63
4108,-13.31
4120,-15.41
4132,-17.81
4144,-20.32
4156,-22.69
4168,-24.68
4180,-26.05
4192,-26.59
4204,-26.19
4216,-24.87
4228,-22.74
4240,-19.98
4252,-16.76
4264,-13.23
4276,-9.55
4287,-5.89
4298,-2.43
4310,0.64
4322,3.25
4334,5.36
4346,7.01
4358,8.25
4370,9.08
4382,9.5
4394,9.51
4406,9.15
4418,8.51
4430,7.64
4442,6.5
4454,5.03
4466,3.17
4477,1.02
4488,-1.17
4500,-3.06
4512,-4.39
4524,-5.13
4536,-5.47
4548,-5.76
4560,-6.27
4572,-7.1
4584,-8.09
4596,-8.99
4608,-9.61
4620,-9.91
4632,-10.04
4644,-10.25
4656,-10.76
4667,-11.73
4678,-13.25
4690,-15.31
4702,-17.79
4714,-20.43
4726,-22.82
4738,-24.45
4750,-24.93
4762,-24.05
4774,-21.87
4786,-18.74
4798,-15.12
4810,-11.44
4822,-8.05
4834,-5.14
4846,-2.8
4857,-1.01
4868,0.28
4880,1.18
4892,1.75
4904,2.08
4916,2.26
4928,2.36
4940,2.49
4952,2.77
4964,3.27
4976,4.02
4988,4.93
5000,5.8
5012,6.46
5024,6.72
5036,6.52
5047,5.91
5058,5.08
5070,4.24
5082,3.56
5094,3.1
5106,2.74
5118,2.28
5130,1.53
5142,0.43
5154,-0.96
5166,-2.43
5178,-3.79
5190,-4.96
5202,-5.98
5214,-6.98
5226,-8.1
5237,-9.37
5248,-10.76
5260,-12.2
5272,-13.61
5284,-14.91
5296,-15.94
5308,-16.46
5320,-16.19
5332,-14.91
5344,-12.57
5356,-9.36
5368,-5.63
5380,-1.78
5392,1.83
5404,5.01
5416,7.71
5427,9.92
5438,11.65
5450,12.9
5462,13.64
5474,13.91
5486,13.78
5498,13.37
5510,12.86
5522,12.39
5534,12.04
5546,11.83
5558,11.72
5570,11.62
5582,11.46
5594,11.17
5606,10.72
5617,10.09
5628,9.28
5640,8.3
5652,7.18
5664,5.97
5676,4.78
5688,3.76
5700,3.05
5712,2.71
5724,2.71
5736,2.91
5748,3.14
5760,3.24
5772,3.15
5784,2.93
5796,2.69
5807,2.48
5818,2.29
5830,2.08
5842,1.78
5854,1.42
5866,1.09
5878,0.88
5890,0.88
5902,1.15
5914,1.79
5926,2.93
5938,4.71
5950,7.21
5962,10.3
5974,13.72
5986,17.05
5997,19.93
6008,22.2
6020,23.83
6032,24.98
6044,25.73
6056,26.11
6068,26.05
6080,25.45
6092,24.31
6104,22.72
6116,20.88
6128,18.98
6140,17.17
6152,15.49
6164,13.91
6176,12.35
6187,10.7
6198,8.9
6210,6.91
6222,4.71
6234,2.35
6246,-0.12
6258,-2.62
6270,-5.11
6282,-7.56
6294,-9.95
6306,-12.28
6318,-14.52
6330,-16.58
6342,-18.41
6354,-19.94
6366,-21.13
6377,-21.98
6388,-22.55
6400,-22.98
6412,-23.41
6424,-24.05
6436,-25.04
6448,-26.46
6460,-28.26
6472,-30.24
6484,-32.09
6496,-33.43
6508,-33.89
6520,-33.12
6532,-30.97
6544,-27.53
6556,-23.14
6567,-18.31
6578,-13.58
6590,-9.32
6602,-5.73
6614,-2.75
6626,-0.23
6638,1.98
6650,3.93
6662,5.58
6674,6.88
6686,7.79
6698,8.36
6710,8.71
6722,8.98
6734,9.27
6746,9.64
6757,10.07
6768,10.5
6780,10.82
6792,10.87
6804,10.53
6816,9.74
6828,8.57
6840,7.23
6852,5.94
6864,4.89
6876,4.09
6888,3.42
6900,2.64
6912,1.58
6924,0.2
6936,-1.38
6947,-2.97
6958,-4.4
6970,-5.57
6982,-6.45
6994,-7.06
7006,-7.41
7018,-7.6
7030,-7.76
7042,-8.19
7054,-9.17
7066,-10.89
7078,-13.27
7090,-15.93
7102,-18.23
7114,-19.49
7126,-19.2
7137,-17.26
7148,-13.98
7160,-9.96
7172,-5.89
7184,-2.26
7196,0.69
7208,3.01
7220,4.89
7232,6.52
7244,7.98
7256,9.26
7268,10.28
7280,10.97
7292,11.35
7304,11.53
7316,11.59
7327,11.6
7338,11.52
7350,11.27
7362,10.73
7374,9.86
7386,8.75
7398,7.59
7410,6.57
7422,5.84
7434,5.39
7446,5.08
7458,4.74
7470,4.18
7482,3.36
7494,2.33
7506,1.2
7517,0.07
7528,-1.01
7540,-2.0
7552,-2.88
7564,-3.65
7576,-4.34
7588,-5.04
7600,-5.84
7612,-6.79
7624,-7.92
7636,-9.16
7648,-10.44
7660,-11.7
7672,-12.99
7684,-14.39
7696,-15.99
7707,-17.79
7718,-19.55
7730,-20.87
7742,-21.26
7754,-20.33
7766,-17.95
7778,-14.34
7790,-10.01
7802,-5.59
7814,-1.63
7826,1.6
7838,4.17
7850,6.31
7862,8.26
7874,10.1
7886,11.7
7897,12.86
7908,13.49
7920,13.72
7932,13.88
7944,14.34
7956,15.35
7968,16.88
7980,18.64
7992,20.19
8004,21.15
8016,21.31
8028,20.73
8040,19.66
8052,18.38
8064,17.17
8076,16.17
8087,15.41
8098,14.87
8110,14.48
8122,14.2
8134,13.99
8146,13.85
8158,13.8
8170,13.84
8182,13.98
8194,14.17
8206,14.37
8218,14.54
8230,14.68
8242,14.82
8254,15.01
8266,15.24
8277,15.43
8288,15.42
8300,15.06
8312,14.23
8324,12.86
8336,11.0
8348,8.81
8360,6.59
8372,4.76
8384,3.77
8396,3.98
8408,5.48
8420,8.09
8432,11.33
8444,14.7
8456,17.75
8467,20.29
8478,22.3
8490,23.9
8502,25.19
8514,26.24
8526,27.01
8538,27.5
8550,27.64
8562,27.41
8574,26.78
8586,25.79
8598,24.5
8610,23.02
8622,21.41
8634,19.66
8646,17.67
8657,15.3
8668,12.41
8680,9.01
8692,5.18
8704,1.08
8716,-3.13
8728,-7.34
8740,-11.48
8752,-15.5
8764,-19.38
8776,-23.06
8788,-26.54
8800,-29.83
8812,-32.96
8824,-35.97
8836,-38.82
8847,-41.46
8858,-43.8
8870,-45.79
8882,-47.49
8894,-48.94
8906,-50.32
8918,-51.76
8930,-53.44
8942,-55.45
8954,-57.78
8966,-60.22
8978,-62.39
8990,-63.82
9002,-64.07
9014,-62.91
9026,-60.34
9037,-56.56
9048,-51.88
9060,-46.63
9072,-41.11
9084,-35.6
9096,-30.39
9108,-25.68
9120,-21.57
9132,-17.94
9144,-14.59
9156,-11.29
9168,-7.94
9180,-4.64
9192,-1.61
9204,0.94
9216,2.97
9227,4.58
9238,5.99
9250,7.39
9262,8.79
9274,10.06
9286,10.95
9298,11.26
9310,10.85
9322,9.76
9334,8.15
9346,6.28
9358,4.39
9370,2.69
9382,1.23
9394,-0.0
9406,-1.16
9417,-2.42
9428,-3.89
9440,-5.63
9452,-7.59
9464,-9.65
9476,-11.68
9488,-13.55
9500,-15.22
9512,-16.74
9524,-18.23
9536,-19.73
9548,-21.19
9560,-22.4
9572,-23.03
9584,-22.73
9596,-21.29
9607,-18.71
9618,-15.18
9630,-11.05
9642,-6.68
9654,-2.42
9666,1.45
9678,4.75
9690,7.44
9702,9.61
9714,11.43
9726,13.08
9738,14.6
9750,15.93
9762,16.95
9774,17.6
9786,17.95
9797,18.2
9808,18.54
9820,19.06
9832,19.63
9844,20.06
9856,20.12
9868,19.72
9880,18.92
9892,17.86
9904,16.75
9916,15.69
9928,14.77
9940,14.06
9952,13.7
9964,13.82
9976,14.5
9987,15.67
9998,17.13
10010,18.55
10022,19.61
10034,20.09
10046,19.99
10058,19.45
10070,18.75
10082,18.07
10094,17.47
10106,16.8
10118,15.88
10130,14.59
10142,13.01
10154,11.51
10166,10.6
10177,10.79
10188,12.4
10200,15.45
10212,19.62
10224,24.41
10236,29.3
10248,33.9
10260,38.01
10272,41.62
10284,44.85
10296,47.8
10308,50.49
10320,52.94
10332,55.09
10344,56.93
10356,58.52
10367,59.93
10378,61.22
10390,62.43
10402,63.52
10414,64.44
10426,65.12
10438,65.53
10450,65.66
10462,65.45
10474,64.88
10486,63.88
10498,62.35
10510,60.18
10522,57.3
10534,53.68
10546,49.42
10557,44.64
10568,39.58
10580,34.4
10592,29.22
10604,24.02
10616,18.65
10628,12.93
10640,6.73
10652,0.06
10664,-6.89
10676,-13.83
10688,-20.46
10700,-26.6
10712,-32.26
10724,-37.57
10736,-42.68
10747,-47.61
10758,-52.27
10770,-56.47
10782,-60.1
10794,-63.19
10806,-65.97
10818,-68.69
10830,-71.46
10842,-74.27
10854,-76.93
10866,-79.23
10878,-81.1
10890,-82.58
10902,-83.84
10914,-85.06
10926,-86.33
10937,-87.63
10948,-88.83
10960,-89.69
10972,-89.92
10984,-89.21
10996,-87.35
11008,-84.29
11020,-80.2
11032,-75.46
11044,-70.51
11056,-65.77
11068,-61.45
11080,-57.62
11092,-54.18
11104,-51.0
11116,-47.97
11127,-44.98
11138,-41.99
11150,-38.93
11162,-35.76
11174,-32.46
11186,-29.1
11198,-25.81
11210,-22.8
11222,-20.28
11234,-18.42
11246,-17.22
11258,-16.51
11270,-15.93
11282,-15.06
11294,-13.48
11306,-11.0
11317,-7.65
11328,-3.73
11340,0.39
11352,4.39
11364,8.1
11376,11.5
11388,14.65
11400,17.5
11412,19.91
11424,21.72
11436,22.82
11448,23.28
11460,23.28
11472,23.09
11484,22.84
11496,22.59
11507,22.25
11518,21.76
11530,21.13
11542,20.47
11554,19.92
11566,19.58
11578,19.45
11590,19.43
11602,19.39
11614,19.18
11626,18.7
11638,17.92
11650,16.87
11662,15.65
11674,14.44
11686,13.44
11697,12.83
11708,12.67
11720,12.86
11732,13.15
11744,13.3
11756,13.1
11768,12.53
11780,11.72
11792,10.85
11804,10.16
11816,9.81
11828,9.91
11840,10.54
11852,11.76
11864,13.53
11876,15.73
11887,18.14
11898,20.43
11910,22.31
11922,23.58
11934,24.19
11946,24.22
11958,23.8
11970,23.06
11982,22.07
11994,20.9
12006,19.56
12018,18.13
12030,16.68
12042,15.3
12054,14.04
12066,12.88
12077,11.76
12088,10.64
12100,9.53
12112,8.48
12124,7.59
12136,6.9
12148,6.34
12160,5.82
12172,5.2
12184,4.45
12196,3.64
12208,2.92
12220,2.46
12232,2.37
12244,2.67
12256,3.28
12267,4.08
12278,4.95
12290,5.72
12302,6.25
12314,6.42
12326,6.16
12338,5.48
12350,4.46
12362,3.18
12374,1.63
12386,-0.25
12398,-2.54
12410,-5.22
12422,-8.04
12434,-10.55
12446,-12.26
12457,-12.82
12468,-12.16
12480,-10.55
12492,-8.45
12504,-6.29
12516,-4.38
12528,-2.83
12540,-1.64
12552,-0.8
12564,-0.35
12576,-0.27
12588,-0.45
12600,-0.64
12612,-0.49
12624,0.29
12636,1.8
12647,3.92
12658,6.37
12670,8.89
12682,11.27
12694,13.44
12706,15.42
12718,17.22
12730,18.81
12742,20.16
12754,21.34
12766,22.44
12778,23.66
12790,25.17
12802,27.04
12814,29.31
12826,31.94
12837,34.93
12848,38.23
12860,41.82
12872,45.57
12884,49.29
12896,52.76
12908,55.81
12920,58.4
12932,60.59
12944,62.55
12956,64.45
12968,66.43
12980,68.49
12992,70.53
13004,72.28
13016,73.34
13027,73.2
13038,71.23
13050,66.86
13062,59.72
13074,49.77
13086,37.42
13098,23.44
13110,8.79
13122,-5.6
13134,-19.02
13146,-31.04
13158,-41.49
13170,-50.33
13182,-57.63
13194,-63.51
13206,-68.23
13217,-72.18
13228,-75.76
13240,-79.3
13252,-82.86
13264,-86.21
13276,-88.92
13288,-90.57
13300,-90.9
13312,-89.84
13324,-87.47
13336,-83.9
13348,-79.2
13360,-73.4
13372,-66.59
13384,-59.0
13396,-50.98
13407,-42.96
13418,-35.27
13430,-28.09
13442,-21.4
13454,-15.05
13466,-8.88
13478,-2.82
13490,3.1
13502,8.76
13514,13.98
13526,18.59
13538,22.48
13550,25.61
13562,28.04
13574,30.01
13586,31.83
13597,33.85
13608,36.31
13620,39.23
13632,42.39
13644,45.38
13656,47.81
13668,49.48
13680,50.49
13692,51.16
13704,51.84
13716,52.72
13728,53.68
13740,54.37
13752,54.37
13764,53.41
13776,51.53
13787,49.09
13798,46.63
13810,44.7
13822,43.66
13834,43.55
13846,44.08
13858,44.65
13870,44.58
13882,43.21
13894,40.16
13906,35.35
13918,29.06
13930,21.76
13942,13.98
13954,6.18
13966,-1.33
13977,-8.31
13988,-14.57
14000,-19.93
14012,-24.29
14024,-27.7
14036,-30.4
14048,-32.77
14060,-35.16
14072,-37.75
14084,-40.57
14096,-43.51
14108,-46.44
14120,-49.28
14132,-51.92
14144,-54.18
14156,-55.79
14167,-56.47
14178,-56.11
14190,-54.79
14202,-52.8
14214,-50.44
14226,-47.92
14238,-45.28
14250,-42.52
14262,-39.68
14274,-36.92
14286,-34.42
14298,-32.28
14310,-30.46
14322,-28.75
14334,-26.93
14346,-24.86
14357,-22.55
14368,-20.06
14380,-17.49
14392,-14.93
14404,-12.44
14416,-10.1
14428,-8.04
14440,-6.34
14452,-5.05
14464,-4.13
14476,-3.54
14488,-3.25
14500,-3.24
14512,-3.51
14524,-3.98
14536,-4.45
14547,-4.72
14558,-4.73
14570,-4.64
14582,-4.83
14594,-5.71
14606,-7.55
14618,-10.32
14630,-13.65
14642,-16.99
14654,-19.85
14666,-21.94
14678,-23.27
14690,-24.1
14702,-24.8
14714,-25.69
14726,-26.91
14737,-28.42
14748,-30.1
14760,-31.86
14772,-33.74
14784,-35.9
14796,-38.52
14808,-41.66
14820,-45.18
14832,-48.72
14844,-51.91
14856,-54.47
14868,-56.36
14880,-57.74
14892,-58.9
14904,-60.09
14916,-61.45
14927,-62.95
14938,-64.51
14950,-65.96
14962,-67.14
14974,-67.9
14986,-68.11
14998,-67.67
15010,-66.63
15022,-65.17
15034,-63.59
15046,-62.18
15058,-61.14
15070,-60.42
15082,-59.74
15094,-58.73
15106,-57.09
15117,-54.81
15128,-52.15
15140,-49.47
15152,-47.03
15164,-44.73
15176,-42.19
15188,-38.98
15200,-34.9
15212,-30.13
15224,-25.14
15236,-20.5
15248,-16.56
15260,-13.34
15272,-10.63
15284,-8.14
15296,-5.7
15307,-3.26
15318,-0.75
15330,2.02
15342,5.33
15354,9.44
15366,14.37
15378,19.87
15390,25.43
15402,30.5
15414,34.71
15426,37.92
15438,40.25
15450,41.97
15462,43.34
15474,44.56
15486,45.68
15497,46.67
15508,47.46
15520,47.97
15532,48.1
15544,47.76
15556,46.89
15568,45.5
15580,43.74
15592,41.92
15604,40.49
15616,39.92
15628,40.55
15640,42.4
15652,45.16
15664,48.24
15676,51.02
15687,53.0
15698,53.99
15710,54.1
15722,53.62
15734,52.8
15746,51.8
15758,50.6
15770,49.1
15782,47.25
15794,45.13
15806,42.94
15818,40.93
15830,39.27
15842,37.95
15854,36.85
15866,35.8
15877,34.63
15888,33.3
15900,31.85
15912,30.37
15924,29.0
15936,27.88
15948,27.12
15960,26.78
15972,26.81
15984,27.02
15996,27.15
16008,26.92
16020,26.13
16032,24.81
16044,23.16
16056,21.53
16067,20.34
16078,19.97
16090,20.63
16102,22.33
16114,24.9
16126,27.99
16138,31.2
16150,34.19
16162,36.73
16174,38.76
16186,40.31
16198,41.45
16210,42.22
16222,42.61
16234,42.61
16246,42.23
16257,41.6
16268,40.91
16280,40.38
16292,40.16
16304,40.24
16316,40.47
16328,40.56
16340,40.2
16352,39.1
16364,37.13
16376,34.31
16388,30.82
16400,26.92
16412,22.95
16424,19.27
16436,16.19
16447,13.87
16458,12.28
16470,11.24
16482,10.45
16494,9.7
16506,8.94
16518,8.33
16530,8.15
16542,8.68
16554,10.11
16566,12.44
16578,15.53
16590,19.15
16602,23.02
16614,26.81
16626,30.2
16637,32.95
16648,34.99
16660,36.42
16672,37.43
16684,38.19
16696,38.73
16708,38.91
16720,38.57
16732,37.71
16744,36.56
16756,35.49
16768,34.86
16780,34.79
16792,35.05
16804,35.21
16816,34.74
16827,33.26
16838,30.64
16850,26.96
16862,22.47
16874,17.39
16886,11.9
16898,6.11
16910,0.12
16922,-5.99
16934,-12.08
16946,-18.08
16958,-23.93
16970,-29.65
16982,-35.25
16994,-40.69
17006,-45.82
17017,-50.43
17028,-54.27
17040,-57.14
17052,-58.98
17064,-59.84
17076,-59.88
17088,-59.33
17100,-58.41
17112,-57.32
17124,-56.19
17136,-55.16
17148,-54.29
17160,-53.62
17172,-53.16
17184,-52.86
17196,-52.61
17207,-52.28
17218,-51.7
17230,-50.76
17242,-49.45
17254,-47.89
17266,-46.29
17278,-44.89
17290,-43.84
17302,-43.15
17314,-42.66
17326,-42.15
17338,-41.43
17350,-40.43
17362,-39.23
17374,-38.02
17386,-37.04
17397,-36.47
17408,-36.38
17420,-36.73
17432,-37.34
17444,-37.89
17456,-38.03
17468,-37.36
17480,-35.61
17492,-32.71
17504,-28.81
17516,-24.3
17528,-19.66
17540,-15.29
17552,-11.38
17564,-7.86
17576,-4.51
17587,-1.05
17598,2.63
17610,6.39
17622,9.95
17634,12.95
17646,15.2
17658,16.77
17670,18.02
17682,19.48
17694,21.8
17706,25.54
17718,31.13
17730,38.82
17742,48.57
17754,60.12
17766,72.93
17777,86.35
17788,99.77
17800,112.78
17812,125.31
17824,137.55
17836,149.78
17848,162.15
17860,174.45
17872,186.11
17884,196.26
17896,204.11
17908,209.18
17920,211.59
17932,212.05
17944,211.6
17956,211.32
17967,211.91
17978,213.51
17990,215.76
18002,217.98
18014,219.36
18026,219.07
18038,216.29
18050,210.27
18062,199.9
18074,184.69
18086,165.08
18098,142.38
18110,118.22
18122,94.04
18134,70.84
18146,49.17
18157,29.03
18168,9.75
18180,-9.2
18192,-27.81
18204,-45.82
18216,-63.19
18228,-80.46
18240,-98.78
18252,-119.48
18264,-143.63
18276,-172.31
18288,-204.5
18300,-236.63
18312,-263.78
18324,-281.63
18336,-287.72
18347,-281.64
18358,-264.47
18370,-238.33
18382,-208.68
18394,-179.64
18406,-152.58
18418,-127.35
18430,-104.56
18442,-85.89
18454,-72.97
18466,-66.28
18478,-65.38
18490,-74.87
18502,-95.6
18514,-122.31
18526,-146.61
18537,-162.84
18548,-170.12
18560,-170.87
18572,-168.53
18584,-167.03
18596,-178.46
18608,-208.16
18620,-250.45
18632,-293.46
18644,-328.44
18656,-353.2
18668,-369.97
18680,-382.26
18692,-394.84
18704,-423.76
18716,-476.9
18727,-547.74
18738,-620.79
18750,-682.88
18762,-727.65
18774,-753.31
18786,-759.9
18798,-671.64
18810,-467.63
18822,-198.94
18834,52.89
18846,239.46
18858,355.88
18870,418.74
18882,444.35
18894,455.0
18906,462.5
18917,459.72
18928,441.42
18940,411.78
18952,380.34
18964,354.77
18976,333.95
18988,313.75
19000,291.68
19012,266.39
19024,229.77
19036,180.2
19048,125.83
19060,79.37
19072,49.15
19084,36.14
19096,37.19
19107,48.27
19118,64.37
19130,75.56
19142,76.04
19154,67.22
19166,55.3
19178,46.06
19190,42.41
19202,45.15
19214,53.46
19226,63.88
19238,68.89
19250,62.6
19262,43.76
19274,15.63
19286,-16.7
19297,-48.47
19308,-76.03
19320,-97.33
19332,-112.54
19344,-123.97
19356,-133.81
19368,-142.97
19380,-151.54
19392,-159.89
19404,-169.03
19416,-179.83
19428,-192.04
19440,-203.94
19452,-212.48
19464,-214.3
19476,-207.14
19487,-190.62
19498,-166.33
19510,-136.97
19522,-105.31
19534,-73.54
19546,-43.26
19558,-15.62
19570,8.43
19582,28.55
19594,45.37
19606,60.76
19618,77.5
19630,98.44
19642,125.55
19654,159.31
19666,198.5
19677,240.43
19688,281.54
19700,318.08
19712,346.9
19724,366.16
19736,375.82
19748,377.64
19760,374.68
19772,370.29
19784,367.01
19796,365.8
19808,365.74
19820,364.32
19832,358.37
19844,345.19
19856,323.62
19867,294.55
19878,260.64
19890,225.29
19902,191.34
19914,159.94
19926,130.28
19938,100.25
19950,67.57
19962,30.98
19974,-9.12
19986,-50.84
19998,-91.48
20010,-128.39
20022,-159.62
20034,-184.05
20046,-201.36
20057,-211.78
20068,-216.02
20080,-215.27
20092,-211.21
20104,-205.73
20116,-200.31
20128,-195.46
20140,-190.45
20152,-183.78
20164,-174.23
20176,-161.63
20188,-147.07
20200,-132.23
20212,-118.2
20224,-104.76
20236,-90.37
20247,-73.1
20258,-51.78
20270,-26.72
20282,0.34
20294,26.96
20306,50.82
20318,70.31
20330,84.66
20342,93.82
20354,98.42
20366,99.8
20378,99.87
20390,100.88
20402,104.76
20414,112.57
20426,124.24
20437,138.67
20448,154.24
20460,169.48
20472,183.36
20484,195.44
20496,205.62
20508,213.92
20520,220.2
20532,224.08
20544,224.89
20556,221.72
20568,213.63
20580,199.88
20592,180.33
20604,155.41
20616,126.47
20627,95.56
20638,64.9
20650,36.37
20662,11.31
20674,-9.22
20686,-24.31
20698,-33.22
20710,-35.87
20722,-32.75
20734,-24.93
20746,-13.92
20758,-1.4
20770,11.14
20782,22.71
20794,32.9
20806,41.73
20817,48.92
20828,54.72
20840,59.96
20852,65.71
20864,72.47
20876,79.92
20888,87.06
20900,92.56
20912,95.26
20924,92.77
20936,84.27
20948,70.97
20960,55.21
20972,38.64
20984,21.57
20996,3.45
