seconds,BVP
7,8.51
19,6.5
31,4.67
43,3.2
55,2.12
67,1.22
79,0.25
91,-0.99
103,-2.53
115,-4.27
127,-5.97
139,-7.52
151,-8.93
162,-10.42
173,-12.29
185,-14.77
197,-17.92
209,-21.56
221,-25.37
233,-28.87
245,-31.63
257,-33.27
269,-33.49
281,-32.18
293,-29.39
305,-25.37
317,-20.54
329,-15.39
341,-10.32
352,-5.6
363,-1.28
375,2.69
387,6.41
399,9.91
411,13.12
423,15.95
435,18.25
447,19.96
459,21.03
471,21.52
483,21.5
495,21.06
507,20.31
519,19.41
531,18.49
542,17.7
553,17.1
565,16.71
577,16.46
589,16.28
601,16.03
613,15.68
625,15.17
637,14.48
649,13.64
661,12.69
673,11.66
685,10.61
697,9.59
709,8.62
721,7.67
732,6.66
743,5.52
755,4.17
767,2.6
779,0.85
791,-1.03
803,-2.91
815,-4.74
827,-6.49
839,-8.22
851,-10.05
863,-12.16
875,-14.71
887,-17.83
899,-21.48
911,-25.44
922,-29.31
933,-32.55
945,-34.66
957,-35.28
969,-34.28
981,-31.82
993,-28.26
1005,-23.95
1017,-19.29
1029,-14.54
1041,-9.86
1053,-5.35
1065,-1.04
1077,3.06
1089,6.94
1101,10.54
1112,13.76
1123,16.52
1135,18.74
1147,20.42
1159,21.63
1171,22.47
1183,23.07
1195,23.52
1207,23.89
1219,24.24
1231,24.58
1243,24.9
1255,25.17
1267,25.24
1279,24.99
1291,24.33
1302,23.24
1313,21.79
1325,20.14
1337,18.38
1349,16.63
1361,14.92
1373,13.18
1385,11.39
1397,9.55
1409,7.67
1421,5.87
1433,4.23
1445,2.82
1457,1.62
1469,0.52
1481,-0.61
1492,-1.89
1503,-3.43
1515,-5.3
1527,-7.49
1539,-10.03
1551,-12.86
1563,-15.86
1575,-18.87
1587,-21.8
1599,-24.57
1611,-27.26
1623,-29.96
1635,-32.58
1647,-34.93
1659,-36.57
1671,-37.0
1682,-35.89
1693,-33.23
1705,-29.29
1717,-24.56
1729,-19.52
1741,-14.46
1753,-9.48
1765,-4.48
1777,0.7
1789,6.1
1801,11.62
1813,17.07
1825,22.15
1837,26.6
1849,30.23
1861,32.97
1872,34.91
1883,36.26
1895,37.32
1907,38.44
1919,39.93
1931,41.88
1943,44.06
1955,45.92
1967,46.79
1979,46.07
1991,43.49
2003,39.17
2015,33.57
2027,27.33
2039,21.0
2051,15.01
2062,9.56
2073,4.78
2085,0.75
2097,-2.42
2109,-4.63
2121,-5.96
2133,-6.61
2145,-6.9
2157,-7.12
2169,-7.4
2181,-7.7
2193,-7.88
2205,-7.68
2217,-6.87
2229,-5.4
2241,-3.34
2252,-0.99
2263,1.11
2275,2.38
2287,2.26
2299,0.48
2311,-2.85
2323,-7.17
2335,-11.8
2347,-16.14
2359,-19.79
2371,-22.7
2383,-24.85
2395,-26.26
2407,-26.78
2419,-26.16
2431,-24.13
2442,-20.49
2453,-15.2
2465,-8.42
2477,-0.62
2489,7.49
2501,14.83
2513,20.25
2525,22.64
2537,21.37
2549,16.48
2561,8.72
2573,-0.61
2585,-10.01
2597,-18.12
2609,-24.01
2621,-27.28
2632,-27.96
2643,-26.4
2655,-23.11
2667,-18.66
2679,-13.67
2691,-8.75
2703,-4.42
2715,-1.03
2727,1.3
2739,2.71
2751,3.49
2763,3.96
2775,4.27
2787,4.41
2799,4.21
2811,3.5
2822,2.24
2833,0.54
2845,-1.26
2857,-2.87
2869,-4.05
2881,-4.8
2893,-5.31
2905,-5.9
2917,-6.83
2929,-8.21
2941,-9.96
2953,-11.83
2965,-13.58
2977,-15.01
2989,-16.08
3001,-16.9
3012,-17.67
3023,-18.53
3035,-19.53
3047,-20.52
3059,-21.24
3071,-21.38
3083,-20.72
3095,-19.24
3107,-17.13
3119,-14.71
3131,-12.31
3143,-10.15
3155,-8.18
3167,-6.19
3179,-3.89
3191,-1.05
3202,2.35
3213,6.09
3225,9.78
3237,13.01
3249,15.51
3261,17.19
3273,18.12
3285,18.45
3297,18.44
3309,18.26
3321,18.06
3333,17.97
3345,18.04
3357,18.28
3369,18.59
3381,18.83
3392,18.85
3403,18.55
3415,17.85
3427,16.79
3439,15.48
3451,14.0
3463,12.48
3475,11.01
3487,9.63
3499,8.32
3511,7.07
3523,5.8
3535,4.5
3547,3.15
3559,1.68
3571,0.06
3582,-1.79
3593,-3.87
3605,-6.1
3617,-8.36
3629,-10.53
3641,-12.59
3653,-14.67
3665,-16.95
3677,-19.49
3689,-22.08
3701,-24.37
3713,-25.85
3725,-26.21
3737,-25.34
3749,-23.4
3761,-20.63
3772,-17.3
3783,-13.55
3795,-9.43
3807,-5.07
3819,-0.6
3831,3.77
3843,7.85
3855,11.45
3867,14.44
3879,16.7
3891,18.18
3903,18.95
3915,19.19
3927,19.14
3939,18.92
3951,18.62
3962,18.2
3973,17.66
3985,17.09
3997,16.68
4009,16.6
4021,16.92
4033,17.53
4045,18.17
4057,18.55
4069,18.48
4081,17.89
4093,16.86
4105,15.52
4117,14.02
4129,12.47
4141,10.93
4152,9.43
4163,7.94
4175,6.45
4187,4.91
4199,3.36
4211,1.83
4223,0.41
4235,-0.91
4247,-2.12
4259,-3.3
4271,-4.55
4283,-5.96
4295,-7.59
4307,-9.46
4319,-11.56
4331,-13.88
4342,-16.42
4353,-19.16
4365,-22.1
4377,-25.11
4389,-27.98
4401,-30.44
4413,-32.09
4425,-32.65
4437,-31.98
4449,-30.16
4461,-27.44
4473,-24.13
4485,-20.55
4497,-16.87
4509,-13.19
4521,-9.44
4532,-5.62
4543,-1.8
4555,1.9
4567,5.26
4579,8.13
4591,10.42
4603,12.21
4615,13.58
4627,14.66
4639,15.55
4651,16.27
4663,16.84
4675,17.31
4687,17.74
4699,18.18
4711,18.71
4722,19.3
4733,19.91
4745,20.48
4757,20.91
4769,21.17
4781,21.15
4793,20.68
4805,19.66
4817,18.05
4829,15.88
4841,13.28
4853,10.45
4865,7.55
4877,4.82
4889,2.39
4901,0.37
4912,-1.19
4923,-2.38
4935,-3.39
4947,-4.41
4959,-5.61
4971,-7.03
4983,-8.64
4995,-10.34
5007,-12.04
5019,-13.68
5031,-15.26
5043,-16.86
5055,-18.52
5067,-20.3
5079,-22.26
5091,-24.27
5102,-26.08
5113,-27.29
5125,-27.47
5137,-26.37
5149,-23.98
5161,-20.59
5173,-16.66
5185,-12.6
5197,-8.65
5209,-4.88
5221,-1.27
5233,2.21
5245,5.41
5257,8.13
5269,10.15
5281,11.47
5292,12.21
5303,12.63
5315,12.96
5327,13.36
5339,13.8
5351,14.17
5363,14.4
5375,14.54
5387,14.71
5399,15.07
5411,15.66
5423,16.38
5435,17.09
5447,17.65
5459,17.98
5471,18.1
5482,17.99
5493,17.63
5505,16.86
5517,15.57
5529,13.76
5541,11.52
5553,9.04
5565,6.53
5577,4.11
5589,1.78
5601,-0.47
5613,-2.64
5625,-4.74
5637,-6.68
5649,-8.41
5661,-9.9
5672,-11.1
5683,-12.09
5695,-12.98
5707,-13.97
5719,-15.21
5731,-16.82
5743,-18.79
5755,-21.02
5767,-23.37
5779,-25.6
5791,-27.47
5803,-28.74
5815,-29.14
5827,-28.49
5839,-26.77
5851,-24.1
5862,-20.74
5873,-16.98
5885,-13.01
5897,-8.91
5909,-4.69
5921,-0.38
5933,3.9
5945,7.91
5957,11.49
5969,14.51
5981,16.95
5993,18.97
6005,20.66
6017,22.1
6029,23.28
6041,24.1
6052,24.49
6063,24.41
6075,23.88
6087,22.97
6099,21.79
6111,20.44
6123,18.99
6135,17.54
6147,16.15
6159,14.89
6171,13.81
6183,12.91
6195,12.17
6207,11.55
6219,10.98
6231,10.4
6242,9.8
6253,9.07
6265,8.22
6277,7.28
6289,6.31
6301,5.39
6313,4.61
6325,3.94
6337,3.33
6349,2.69
6361,1.9
6373,0.93
6385,-0.17
6397,-1.37
6409,-2.59
6421,-3.82
6432,-5.1
6443,-6.46
6455,-7.95
6467,-9.59
6479,-11.38
6491,-13.34
6503,-15.54
6515,-18.03
6527,-20.85
6539,-23.95
6551,-27.17
6563,-30.28
6575,-32.95
6587,-34.81
6599,-35.56
6611,-35.0
6622,-33.05
6633,-29.84
6645,-25.66
6657,-20.84
6669,-15.77
6681,-10.74
6693,-5.92
6705,-1.39
6717,2.76
6729,6.45
6741,9.48
6753,11.69
6765,13.01
6777,13.49
6789,13.33
6801,12.79
6812,12.13
6823,11.56
6835,11.22
6847,11.17
6859,11.43
6871,12.02
6883,12.89
6895,13.97
6907,15.14
6919,16.27
6931,17.26
6943,17.97
6955,18.32
6967,18.25
6979,17.79
6991,17.02
7002,16.1
7013,15.14
7025,14.18
7037,13.18
7049,12.06
7061,10.73
7073,9.15
7085,7.34
7097,5.33
7109,3.19
7121,0.96
7133,-1.24
7145,-3.25
7157,-4.91
7169,-6.14
7181,-7.07
7192,-7.95
7203,-9.09
7215,-10.65
7227,-12.58
7239,-14.65
7251,-16.65
7263,-18.44
7275,-20.05
7287,-21.65
7299,-23.38
7311,-25.36
7323,-27.54
7335,-29.82
7347,-32.02
7359,-33.92
7371,-35.23
7382,-35.66
7393,-35.0
7405,-33.16
7417,-30.28
7429,-26.64
7441,-22.6
7453,-18.47
7465,-14.41
7477,-10.54
7489,-6.8
7501,-3.17
7513,0.4
7525,3.79
7537,6.93
7549,9.69
7561,12.03
7572,14.02
7583,15.74
7595,17.27
7607,18.62
7619,19.7
7631,20.32
7643,20.35
7655,19.72
7667,18.56
7679,17.12
7691,15.64
7703,14.33
7715,13.26
7727,12.39
7739,11.63
7751,10.87
7762,10.08
7773,9.23
7785,8.36
7797,7.48
7809,6.6
7821,5.74
7833,4.82
7845,3.78
7857,2.56
7869,1.17
7881,-0.34
7893,-1.9
7905,-3.45
7917,-4.95
7929,-6.46
7941,-8.02
7952,-9.64
7963,-11.29
7975,-13.01
7987,-14.86
7999,-16.97
8011,-19.43
8023,-22.23
8035,-25.18
8047,-27.97
8059,-30.19
8071,-31.5
8083,-31.68
8095,-30.63
8107,-28.43
8119,-25.28
8131,-21.51
8142,-17.46
8153,-13.43
8165,-9.61
8177,-6.08
8189,-2.84
8201,0.12
8213,2.82
8225,5.23
8237,7.36
8249,9.25
8261,11.04
8273,12.79
8285,14.53
8297,16.2
8309,17.71
8321,18.98
8332,20.06
8343,20.93
8355,21.57
8367,21.86
8379,21.7
8391,21.02
8403,19.89
8415,18.48
8427,16.96
8439,15.48
8451,14.08
8463,12.76
8475,11.47
8487,10.27
8499,9.25
8511,8.43
8522,7.75
8533,7.01
8545,6.0
8557,4.56
8569,2.68
8581,0.51
8593,-1.73
8605,-3.76
8617,-5.46
8629,-6.89
8641,-8.27
8653,-9.88
8665,-12.0
8677,-14.76
8689,-18.13
8701,-21.94
8712,-25.92
8723,-29.74
8735,-33.0
8747,-35.26
8759,-36.12
8771,-35.37
8783,-33.0
8795,-29.27
8807,-24.63
8819,-19.58
8831,-14.53
8843,-9.75
8855,-5.33
8867,-1.26
8879,2.44
8891,5.84
8902,8.96
8913,11.83
8925,14.4
8937,16.65
8949,18.49
8961,19.88
8973,20.78
8985,21.31
8997,21.62
9009,21.89
9021,22.23
9033,22.66
9045,23.12
9057,23.46
9069,23.55
9081,23.32
9092,22.69
9103,21.71
9115,20.44
9127,18.95
9139,17.38
9151,15.91
9163,14.63
9175,13.56
9187,12.64
9199,11.75
9211,10.74
9223,9.64
9235,8.43
9247,7.17
9259,5.81
9271,4.22
9282,2.31
9293,0.12
9305,-2.22
9317,-4.5
9329,-6.5
9341,-8.25
9353,-9.9
9365,-11.71
9377,-13.9
9389,-16.52
9401,-19.47
9413,-22.62
9425,-25.82
9437,-29.0
9449,-32.02
9461,-34.57
9472,-36.24
9483,-36.58
9495,-35.3
9507,-32.39
9519,-28.19
9531,-23.22
9543,-18.0
9555,-12.85
9567,-7.81
9579,-2.79
9591,2.22
9603,7.11
9615,11.58
9627,15.26
9639,17.95
9651,19.67
9662,20.66
9673,21.27
9685,21.82
9697,22.38
9709,22.89
9721,23.12
9733,22.88
9745,22.16
9757,21.11
9769,20.0
9781,19.08
9793,18.49
9805,18.12
9817,17.83
9829,17.45
9841,16.94
9852,16.41
9863,16.02
9875,15.87
9887,15.89
9899,15.86
9911,15.58
9923,14.92
9935,13.92
9947,12.72
9959,11.52
9971,10.37
9983,9.27
9995,8.16
10007,6.91
10019,5.42
10031,3.64
10042,1.49
10053,-1.14
10065,-4.22
10077,-7.67
10089,-11.22
10101,-14.46
10113,-17.11
10125,-19.0
10137,-20.31
10149,-21.4
10161,-22.72
10173,-24.54
10185,-26.93
10197,-29.68
10209,-32.47
10221,-34.99
10232,-36.88
10243,-37.84
10255,-37.54
10267,-35.76
10279,-32.44
10291,-27.79
10303,-22.24
10315,-16.33
10327,-10.57
10339,-5.23
10351,-0.44
10363,3.86
10375,7.71
10387,11.12
10399,14.04
10411,16.37
10422,18.13
10433,19.31
10445,20.09
10457,20.58
10469,20.91
10481,21.07
10493,21.01
10505,20.69
10517,20.16
10529,19.61
10541,19.24
10553,19.19
10565,19.45
10577,19.8
10589,19.99
10601,19.8
10612,19.2
10623,18.23
10635,17.07
10647,15.76
10659,14.34
10671,12.76
10683,10.99
10695,9.12
10707,7.23
10719,5.42
10731,3.7
10743,2.0
10755,0.15
10767,-1.97
10779,-4.43
10791,-7.17
10802,-10.05
10813,-12.95
10825,-15.77
10837,-18.53
10849,-21.23
10861,-23.92
10873,-26.62
10885,-29.26
10897,-31.65
10909,-33.5
10921,-34.45
10933,-34.13
10945,-32.39
10957,-29.28
10969,-25.04
10981,-20.09
10992,-14.79
11003,-9.46
11015,-4.2
11027,0.86
11039,5.63
11051,9.95
11063,13.63
11075,16.56
11087,18.71
11099,20.22
11111,21.18
11123,21.75
11135,22.04
11147,22.13
11159,22.11
11171,22.07
11182,22.09
11193,22.15
11205,22.28
11217,22.43
11229,22.58
11241,22.74
11253,22.88
11265,22.87
11277,22.55
11289,21.76
11301,20.4
11313,18.53
11325,16.26
11337,13.74
11349,11.16
11361,8.62
11372,6.17
11383,3.86
11395,1.73
11407,-0.17
11419,-1.87
11431,-3.41
11443,-4.88
11455,-6.31
11467,-7.68
11479,-8.9
11491,-9.95
11503,-10.84
11515,-11.67
11527,-12.62
11539,-13.9
11551,-15.7
11562,-18.14
11573,-21.23
11585,-24.8
11597,-28.49
11609,-31.76
11621,-33.99
11633,-34.68
11645,-33.62
11657,-31.0
11669,-27.31
11681,-23.12
11693,-18.85
11705,-14.66
11717,-10.47
11729,-6.13
11741,-1.6
11752,3.04
11763,7.5
11775,11.46
11787,14.7
11799,17.14
11811,18.91
11823,20.16
11835,21.06
11847,21.66
11859,21.95
11871,21.87
11883,21.44
11895,20.75
11907,19.96
11919,19.26
11931,18.81
11942,18.64
11953,18.65
11965,18.62
11977,18.3
11989,17.49
12001,16.17
12013,14.46
12025,12.64
12037,10.98
12049,9.6
12061,8.51
12073,7.52
12085,6.39
12097,4.99
12109,3.37
12121,1.73
12132,0.38
12143,-0.47
12155,-0.78
12167,-0.68
12179,-0.49
12191,-0.51
12203,-1.02
12215,-2.14
12227,-3.85
12239,-5.99
12251,-8.31
12263,-10.59
12275,-12.71
12287,-14.72
12299,-16.77
12311,-19.08
12322,-21.8
12333,-24.89
12345,-28.19
12357,-31.47
12369,-34.39
12381,-36.59
12393,-37.75
12405,-37.55
12417,-35.83
12429,-32.67
12441,-28.4
12453,-23.5
12465,-18.44
12477,-13.51
12489,-8.75
12501,-4.14
12512,0.33
12523,4.51
12535,8.14
12547,10.96
12559,12.85
12571,13.9
12583,14.29
12595,14.29
12607,14.12
12619,13.93
12631,13.8
12643,13.75
12655,13.79
12667,13.86
12679,13.86
12691,13.7
12702,13.34
12713,12.82
12725,12.29
12737,11.88
12749,11.61
12761,11.48
12773,11.35
12785,11.13
12797,10.79
12809,10.37
12821,9.95
12833,9.56
12845,9.17
12857,8.6
12869,7.71
12881,6.4
12892,4.66
12903,2.62
12915,0.41
12927,-1.78
12939,-3.85
12951,-5.72
12963,-7.4
12975,-8.94
12987,-10.38
12999,-11.83
13011,-13.34
13023,-15.0
13035,-16.92
13047,-19.11
13059,-21.52
13071,-23.91
13082,-25.86
13093,-26.9
13105,-26.63
13117,-24.89
13129,-21.79
13141,-17.73
13153,-13.2
13165,-8.59
13177,-4.12
13189,0.15
13201,4.22
13213,8.05
13225,11.51
13237,14.4
13249,16.54
13261,17.82
13272,18.32
13283,18.21
13295,17.78
13307,17.28
13319,16.88
13331,16.64
13343,16.57
13355,16.63
13367,16.81
13379,17.06
13391,17.31
13403,17.44
13415,17.32
13427,16.8
13439,15.82
13451,14.44
13462,12.76
13473,11.01
13485,9.32
13497,7.79
13509,6.45
13521,5.27
13533,4.12
13545,2.87
13557,1.36
13569,-0.53
13581,-2.81
13593,-5.34
13605,-7.92
13617,-10.31
13629,-12.37
13641,-14.09
13652,-15.63
13663,-17.19
13675,-18.94
13687,-20.95
13699,-23.11
13711,-25.25
13723,-27.12
13735,-28.49
13747,-29.11
13759,-28.8
13771,-27.46
13783,-25.14
13795,-21.98
13807,-18.22
13819,-14.13
13831,-9.87
13842,-5.59
13853,-1.39
13865,2.67
13877,6.47
13889,9.95
13901,13.05
13913,15.72
13925,17.97
13937,19.77
13949,21.05
13961,21.79
13973,22.01
13985,21.86
13997,21.57
14009,21.35
14021,21.32
14032,21.47
14043,21.71
14055,21.85
14067,21.8
14079,21.54
14091,21.11
14103,20.56
14115,19.95
14127,19.25
14139,18.46
14151,17.61
14163,16.77
14175,16.05
14187,15.43
14199,14.78
14211,13.94
14222,12.75
14233,11.18
14245,9.35
14257,7.49
14269,5.8
14281,4.38
14293,3.12
14305,1.86
14317,0.43
14329,-1.19
14341,-2.95
14353,-4.74
14365,-6.54
14377,-8.41
14389,-10.41
14401,-12.58
14412,-14.93
14423,-17.4
14435,-20.01
14447,-22.88
14459,-26.13
14471,-29.78
14483,-33.67
14495,-37.28
14507,-39.93
14519,-40.97
14531,-39.98
14543,-36.97
14555,-32.34
14567,-26.74
14579,-20.81
14591,-15.06
14602,-9.76
14613,-4.96
14625,-0.62
14637,3.32
14649,6.87
14661,10.02
14673,12.74
14685,15.01
14697,16.8
14709,18.07
14721,18.82
14733,19.09
14745,18.96
14757,18.5
14769,17.84
14781,17.14
14792,16.59
14803,16.39
14815,16.66
14827,17.41
14839,18.41
14851,19.33
14863,19.8
14875,19.62
14887,18.83
14899,17.63
14911,16.28
14923,14.95
14935,13.66
14947,12.37
14959,11.0
14971,9.54
14982,8.09
14993,6.73
15005,5.56
15017,4.57
15029,3.74
15041,2.96
15053,2.16
15065,1.29
15077,0.34
15089,-0.65
15101,-1.66
15113,-2.62
15125,-3.53
15137,-4.43
15149,-5.45
15161,-6.64
15172,-8.05
15183,-9.61
15195,-11.22
15207,-12.74
15219,-14.11
15231,-15.32
15243,-16.47
15255,-17.75
15267,-19.31
15279,-21.26
15291,-23.58
15303,-26.06
15315,-28.35
15327,-30.02
15339,-30.66
15351,-30.12
15362,-28.46
15373,-25.98
15385,-23.04
15397,-19.93
15409,-16.74
15421,-13.52
15433,-10.25
15445,-6.95
15457,-3.74
15469,-0.73
15481,2.01
15493,4.45
15505,6.54
15517,8.29
15529,9.62
15541,10.52
15552,11.01
15563,11.26
15575,11.46
15587,11.84
15599,12.48
15611,13.34
15623,14.3
15635,15.14
15647,15.76
15659,16.06
15671,16.06
15683,15.79
15695,15.27
15707,14.55
15719,13.7
15731,12.85
15742,12.09
15753,11.5
15765,11.03
15777,10.52
15789,9.81
15801,8.79
15813,7.51
15825,6.11
15837,4.77
15849,3.57
15861,2.5
15873,1.45
15885,0.27
15897,-1.13
15909,-2.78
15921,-4.63
15932,-6.62
15943,-8.68
15955,-10.74
15967,-12.72
15979,-14.55
15991,-16.25
16003,-17.9
16015,-19.71
16027,-21.82
16039,-24.32
16051,-27.06
16063,-29.59
16075,-31.34
16087,-31.78
16099,-30.66
16111,-28.06
16122,-24.41
16133,-20.21
16145,-15.94
16157,-11.83
16169,-7.9
16181,-4.07
16193,-0.28
16205,3.41
16217,6.83
16229,9.82
16241,12.29
16253,14.25
16265,15.81
16277,17.03
16289,17.83
16301,18.12
16312,17.77
16323,16.81
16335,15.46
16347,14.02
16359,12.77
16371,11.84
16383,11.14
16395,10.52
16407,9.85
16419,9.17
16431,8.57
16443,8.13
16455,7.8
16467,7.33
16479,6.48
16491,5.12
16502,3.35
16513,1.45
16525,-0.29
16537,-1.68
16549,-2.72
16561,-3.61
16573,-4.56
16585,-5.71
16597,-7.05
16609,-8.4
16621,-9.55
16633,-10.38
16645,-10.87
16657,-11.16
16669,-11.47
16681,-12.04
16692,-13.07
16703,-14.7
16715,-16.94
16727,-19.64
16739,-22.59
16751,-25.35
16763,-27.42
16775,-28.34
16787,-27.82
16799,-25.9
16811,-22.9
16823,-19.36
16835,-15.74
16847,-12.36
16859,-9.23
16871,-6.16
16882,-2.91
16893,0.68
16905,4.58
16917,8.6
16929,12.45
16941,15.84
16953,18.52
16965,20.32
16977,21.21
16989,21.22
17001,20.54
17013,19.38
17025,18.03
17037,16.71
17049,15.54
17061,14.57
17072,13.74
17083,13.01
17095,12.34
17107,11.71
17119,11.06
17131,10.35
17143,9.51
17155,8.54
17167,7.5
17179,6.52
17191,5.71
17203,5.08
17215,4.58
17227,3.96
17239,3.02
17251,1.62
17262,-0.22
17273,-2.33
17285,-4.45
17297,-6.39
17309,-8.16
17321,-9.82
17333,-11.6
17345,-13.68
17357,-16.15
17369,-18.99
17381,-22.09
17393,-25.28
17405,-28.34
17417,-30.97
17429,-32.78
17441,-33.42
17452,-32.63
17463,-30.46
17475,-27.19
17487,-23.32
17499,-19.36
17511,-15.68
17523,-12.39
17535,-9.42
17547,-6.58
17559,-3.7
17571,-0.75
17583,2.22
17595,5.07
17607,7.68
17619,10.0
17631,12.0
17642,13.75
17653,15.3
17665,16.73
17677,18.08
17689,19.3
17701,20.27
17713,20.85
17725,20.98
17737,20.65
17749,20.02
17761,19.25
17773,18.44
17785,17.63
17797,16.7
17809,15.51
17821,13.99
17832,12.2
17843,10.33
17855,8.58
17867,7.02
17879,5.55
17891,3.99
17903,2.18
17915,0.07
17927,-2.23
17939,-4.56
17951,-6.75
17963,-8.71
17975,-10.43
17987,-12.0
17999,-13.47
18011,-14.89
18022,-16.33
18033,-17.92
18045,-19.8
18057,-22.03
18069,-24.5
18081,-26.85
18093,-28.64
18105,-29.43
18117,-29.02
18129,-27.45
18141,-24.94
18153,-21.86
18165,-18.46
18177,-14.93
18189,-11.32
18201,-7.62
18212,-3.77
18223,0.14
18235,3.93
18247,7.37
18259,10.2
18271,12.32
18283,13.75
18295,14.67
18307,15.28
18319,15.75
18331,16.1
18343,16.25
18355,16.16
18367,15.85
18379,15.46
18391,15.16
18402,15.07
18413,15.18
18425,15.41
18437,15.63
18449,15.72
18461,15.62
18473,15.3
18485,14.79
18497,14.09
18509,13.17
18521,11.99
18533,10.42
18545,8.49
18557,6.22
18569,3.73
18581,1.16
18592,-1.36
18603,-3.79
18615,-6.19
18627,-8.69
18639,-11.48
18651,-14.6
18663,-17.96
18675,-21.37
18687,-24.56
18699,-27.21
18711,-29.0
18723,-29.62
18735,-28.9
18747,-26.85
18759,-23.63
18771,-19.58
18782,-15.12
18793,-10.61
18805,-6.24
18817,-2.0
18829,2.22
18841,6.52
18853,10.76
18865,14.66
18877,17.81
18889,19.93
18901,21.09
18913,21.61
18925,22.0
18937,22.73
18949,23.93
18961,25.44
18972,26.93
18983,28.05
18995,28.65
19007,28.91
19019,29.03
19031,29.19
19043,29.39
19055,29.41
19067,28.95
19079,27.81
19091,25.94
19103,23.51
19115,20.8
19127,18.05
19139,15.39
19151,12.85
19162,10.34
19173,7.82
19185,5.27
19197,2.75
19209,0.36
19221,-1.82
19233,-3.82
19245,-5.71
19257,-7.6
19269,-9.6
19281,-11.81
19293,-14.31
19305,-17.18
19317,-20.41
19329,-23.93
19341,-27.5
19352,-30.76
19363,-33.19
19375,-34.32
19387,-33.83
19399,-31.67
19411,-28.12
19423,-23.61
19435,-18.65
19447,-13.63
19459,-8.75
19471,-4.06
19483,0.4
19495,4.58
19507,8.34
19519,11.54
19531,14.11
19542,16.04
19553,17.45
19565,18.5
19577,19.33
19589,20.0
19601,20.52
19613,20.92
19625,21.15
19637,21.3
19649,21.44
19661,21.66
19673,22.01
19685,22.49
19697,23.0
19709,23.45
19721,23.76
19732,23.83
19743,23.63
19755,23.16
19767,22.47
19779,21.58
19791,20.54
19803,19.38
19815,18.14
19827,16.82
19839,15.39
19851,13.87
19863,12.24
19875,10.54
19887,8.75
19899,6.87
19911,4.87
19922,2.75
19933,0.54
19945,-1.72
19957,-3.94
19969,-6.11
19981,-8.24
19993,-10.32
20005,-12.3
20017,-14.06
20029,-15.51
20041,-16.6
20053,-17.38
20065,-18.04
20077,-18.79
20089,-19.9
20101,-21.55
20112,-23.86
20123,-26.8
20135,-30.27
20147,-33.95
20159,-37.44
20171,-40.2
20183,-41.73
20195,-41.67
20207,-39.9
20219,-36.61
20231,-32.21
20243,-27.19
20255,-21.94
20267,-16.73
20279,-11.63
20291,-6.58
20302,-1.52
20313,3.49
20325,8.28
20337,12.61
20349,16.27
20361,19.15
20373,21.23
20385,22.56
20397,23.22
20409,23.26
20421,22.75
20433,21.82
20445,20.69
20457,19.61
20469,18.84
20481,18.5
20492,18.52
20503,18.75
20515,18.94
20527,18.9
20539,18.56
20551,17.96
20563,17.21
20575,16.43
20587,15.67
20599,14.96
20611,14.31
20623,13.68
20635,13.06
20647,12.42
20659,11.66
20671,10.74
20682,9.64
20693,8.41
20705,7.14
20717,5.91
20729,4.77
20741,3.7
20753,2.63
20765,1.47
20777,0.15
20789,-1.41
20801,-3.24
20813,-5.37
20825,-7.81
20837,-10.55
20849,-13.5
20861,-16.52
20872,-19.47
20883,-22.24
20895,-24.77
20907,-27.02
20919,-29.03
20931,-30.81
20943,-32.39
20955,-33.74
20967,-34.83
20979,-35.54
20991,-35.64
