seconds,BVP
3,-7.24
15,-0.88
27,4.68
38,9.32
49,13.08
61,15.99
73,18.07
85,19.29
97,19.72
109,19.51
121,18.97
133,18.4
145,18.02
157,17.88
169,17.88
181,17.83
193,17.6
205,17.2
217,16.75
228,16.47
239,16.47
251,16.74
263,17.09
275,17.24
287,16.93
299,16.02
311,14.54
323,12.64
335,10.54
347,8.44
359,6.48
371,4.73
383,3.15
395,1.65
407,0.11
418,-1.57
429,-3.45
441,-5.43
453,-7.37
465,-9.1
477,-10.53
489,-11.72
501,-12.84
513,-14.05
525,-15.48
537,-17.1
549,-18.77
561,-20.33
573,-21.69
585,-22.88
597,-24.02
608,-25.27
619,-26.75
631,-28.52
643,-30.53
655,-32.58
667,-34.29
679,-35.16
691,-34.68
703,-32.46
715,-28.43
727,-22.84
739,-16.24
751,-9.29
763,-2.59
775,3.43
787,8.57
798,12.76
809,16.07
821,18.6
833,20.47
845,21.81
857,22.68
869,23.11
881,23.13
893,22.8
905,22.22
917,21.56
929,20.93
941,20.38
953,19.89
965,19.4
977,18.86
988,18.31
999,17.82
1011,17.43
1023,17.1
1035,16.71
1047,16.09
1059,15.15
1071,13.9
1083,12.45
1095,10.98
1107,9.64
1119,8.45
1131,7.33
1143,6.14
1155,4.8
1167,3.3
1178,1.72
1189,0.13
1201,-1.38
1213,-2.83
1225,-4.24
1237,-5.65
1249,-7.03
1261,-8.34
1273,-9.58
1285,-10.83
1297,-12.26
1309,-14.0
1321,-16.05
1333,-18.28
1345,-20.46
1357,-22.36
1368,-23.9
1379,-25.18
1391,-26.39
1403,-27.78
1415,-29.51
1427,-31.62
1439,-33.99
1451,-36.35
1463,-38.28
1475,-39.29
1487,-38.83
1499,-36.5
1511,-32.21
1523,-26.25
1535,-19.32
1547,-12.29
1558,-5.95
1569,-0.79
1581,3.11
1593,5.99
1605,8.17
1617,9.93
1629,11.38
1641,12.48
1653,13.21
1665,13.58
1677,13.68
1689,13.64
1701,13.56
1713,13.45
1725,13.25
1737,12.9
1748,12.43
1759,11.93
1771,11.57
1783,11.48
1795,11.67
1807,12.03
1819,12.33
1831,12.35
1843,11.94
1855,11.09
1867,9.91
1879,8.56
1891,7.2
1903,5.93
1915,4.77
1927,3.72
1938,2.76
1949,1.82
1961,0.88
1973,-0.08
1985,-1.05
1997,-2.01
2009,-2.94
2021,-3.88
2033,-4.94
2045,-6.22
2057,-7.79
2069,-9.6
2081,-11.45
2093,-13.16
2105,-14.56
2117,-15.68
2128,-16.65
2139,-17.65
2151,-18.81
2163,-20.16
2175,-21.65
2187,-23.26
2199,-24.92
2211,-26.5
2223,-27.69
2235,-28.05
2247,-27.1
2259,-24.52
2271,-20.34
2283,-14.9
2295,-8.77
2307,-2.52
2318,3.37
2329,8.6
2341,12.94
2353,16.17
2365,18.15
2377,18.85
2389,18.43
2401,17.23
2413,15.71
2425,14.25
2437,13.09
2449,12.29
2461,11.81
2473,11.52
2485,11.4
2497,11.42
2508,11.64
2519,12.08
2531,12.63
2543,13.13
2555,13.36
2567,13.17
2579,12.49
2591,11.41
2603,10.06
2615,8.6
2627,7.07
2639,5.49
2651,3.85
2663,2.18
2675,0.53
2687,-1.02
2698,-2.41
2709,-3.69
2721,-4.9
2733,-6.05
2745,-7.09
2757,-7.89
2769,-8.33
2781,-8.41
2793,-8.26
2805,-8.11
2817,-8.18
2829,-8.6
2841,-9.28
2853,-9.99
2865,-10.43
2877,-10.46
2888,-10.11
2899,-9.63
2911,-9.38
2923,-9.64
2935,-10.5
2947,-11.88
2959,-13.45
2971,-14.83
2983,-15.56
2995,-15.24
3007,-13.63
3019,-10.66
3031,-6.51
3043,-1.58
3055,3.6
3067,8.5
3078,12.71
3089,16.05
3101,18.5
3113,20.19
3125,21.25
3137,21.8
3149,21.95
3161,21.79
3173,21.4
3185,20.87
3197,20.24
3209,19.52
3221,18.7
3233,17.8
3245,16.88
3257,16.06
3268,15.44
3279,15.13
3291,15.14
3303,15.39
3315,15.73
3327,15.99
3339,15.99
3351,15.61
3363,14.77
3375,13.5
3387,11.86
3399,10.04
3411,8.24
3423,6.69
3435,5.5
3447,4.68
3458,4.06
3469,3.41
3481,2.5
3493,1.22
3505,-0.36
3517,-2.1
3529,-3.84
3541,-5.52
3553,-7.19
3565,-8.9
3577,-10.69
3589,-12.46
3601,-14.05
3613,-15.34
3625,-16.3
3637,-16.99
3648,-17.61
3659,-18.34
3671,-19.3
3683,-20.57
3695,-22.11
3707,-23.9
3719,-25.89
3731,-28.0
3743,-30.0
3755,-31.53
3767,-32.03
3779,-30.86
3791,-27.48
3803,-21.67
3815,-13.74
3827,-4.47
3838,4.99
3849,13.59
3861,20.68
3873,26.2
3885,30.7
3897,34.99
3909,39.75
3921,45.14
3933,50.8
3945,55.97
3957,59.97
3969,62.55
3981,64.09
3993,65.47
4005,67.64
4017,71.23
4028,76.19
4039,81.83
4051,87.09
4063,90.95
4075,92.75
4087,92.28
4099,89.58
4111,84.73
4123,77.7
4135,68.34
4147,56.55
4159,42.42
4171,26.1
4183,7.63
4195,-13.19
4207,-36.69
4218,-62.74
4229,-90.2
4241,-116.7
4253,-139.13
4265,-154.9
4277,-163.08
4289,-165.01
4301,-163.7
4313,-162.39
4325,-163.11
4337,-165.94
4349,-169.5
4361,-172.08
4373,-172.76
4385,-171.73
4397,-169.66
4408,-166.77
4419,-162.32
4431,-154.94
4443,-143.38
4455,-127.43
4467,-107.99
4479,-86.72
4491,-65.34
4503,-45.1
4515,-26.63
4527,-10.07
4539,4.88
4551,18.93
4563,33.01
4575,47.95
4587,63.86
4598,79.82
4609,93.98
4621,104.4
4633,110.03
4645,111.37
4657,110.18
4669,108.49
4681,107.44
4693,106.62
4705,104.43
4717,99.09
4729,89.94
4741,78.04
4753,65.9
4765,56.19
4777,50.44
4788,48.37
4799,47.97
4811,46.72
4823,42.74
4835,35.69
4847,26.8
4859,18.15
4871,11.79
4883,9.07
4895,10.56
4907,16.03
4919,24.76
4931,35.46
4943,46.46
4955,56.13
4967,63.37
4978,68.03
4989,70.86
5001,73.22
5013,76.26
5025,80.52
5037,85.47
5049,90.13
5061,93.75
5073,96.24
5085,97.89
5097,98.77
5109,98.81
5121,97.44
5133,94.43
5145,89.3
5157,81.95
5168,72.88
5179,63.03
5191,53.28
5203,43.82
5215,34.81
5227,25.58
5239,15.98
5251,5.23
5263,-6.98
5275,-19.9
5287,-31.66
5299,-39.86
5311,-42.87
5323,-39.46
5335,-30.62
5347,-18.05
5358,-5.82
5369,1.17
5381,-1.21
5393,-15.17
5405,-40.34
5417,-74.59
5429,-113.6
5441,-154.06
5453,-180.84
5465,-180.12
5477,-146.94
5489,-89.5
5501,-23.14
5513,40.0
5525,87.42
5537,122.78
5548,149.82
5559,170.82
5571,184.88
5583,189.78
5595,187.2
5607,178.74
5619,166.82
5631,153.29
5643,140.02
5655,126.59
5667,112.54
5679,96.49
5691,77.26
5703,54.46
5715,28.36
5727,-0.11
5738,-30.44
5749,-61.86
5761,-94.84
5773,-129.29
5785,-165.35
5797,-202.93
5809,-241.68
5821,-281.26
5833,-321.22
5845,-361.71
5857,-403.19
5869,-447.53
5881,-496.32
5893,-550.0
5905,-606.19
5917,-658.87
5928,-699.5
5939,-719.38
5951,-713.22
5963,-681.11
5975,-629.09
5987,-566.28
5999,-501.63
6011,-441.04
6023,-386.54
6035,-337.46
6047,-292.29
6059,-250.32
6071,-211.8
6083,-177.34
6095,-146.87
6107,-119.2
6118,-92.58
6129,-65.64
6141,-38.06
6153,-10.62
6165,15.07
6177,37.52
6189,55.99
6201,70.8
6213,83.24
6225,95.13
6237,108.07
6249,123.01
6261,139.95
6273,158.1
6285,176.33
6297,193.71
6308,209.86
6319,225.1
6331,240.28
6343,256.31
6355,273.88
6367,293.3
6379,314.79
6391,338.5
6403,364.37
6415,391.6
6427,418.03
6439,440.19
6451,454.07
6463,456.56
6475,446.75
6487,426.36
6498,399.04
6509,368.87
6521,338.89
6533,310.53
6545,283.92
6557,258.75
6569,235.04
6581,213.16
6593,193.49
6605,175.88
6617,159.52
6629,143.26
6641,126.14
6653,107.9
6665,89.07
6677,70.83
6688,54.48
6699,40.98
6711,30.62
6723,22.98
6735,17.24
6747,12.59
6759,8.65
6771,5.56
6783,3.86
6795,3.99
6807,5.96
6819,9.21
6831,12.77
6843,15.71
6855,17.46
6867,17.92
6878,17.41
6889,16.35
6901,15.17
6913,14.07
6925,13.14
6937,12.31
6949,11.42
6961,10.31
6973,8.8
6985,6.83
6997,4.47
7009,2.0
7021,-0.18
7033,-1.67
7045,-2.28
7057,-2.12
7068,-1.59
7079,-1.25
7091,-1.55
7103,-2.64
7115,-4.34
7127,-6.29
7139,-8.14
7151,-9.76
7163,-11.24
7175,-12.76
7187,-14.47
7199,-16.34
7211,-18.12
7223,-19.54
7235,-20.42
7247,-20.81
7258,-21.01
7269,-21.44
7281,-22.45
7293,-24.17
7305,-26.46
7317,-28.98
7329,-31.31
7341,-33.19
7353,-34.54
7365,-35.42
7377,-35.97
7389,-36.35
7401,-36.72
7413,-37.3
7425,-38.43
7437,-40.4
7448,-43.23
7459,-46.42
7471,-48.98
7483,-49.64
7495,-47.33
7507,-41.73
7519,-33.36
7531,-23.51
7543,-13.62
7555,-4.78
7567,2.63
7579,8.81
7591,14.13
7603,18.73
7615,22.3
7627,24.27
7638,24.21
7649,22.18
7661,18.87
7673,15.28
7685,12.31
7697,10.33
7709,9.17
7721,8.37
7733,7.53
7745,6.66
7757,6.09
7769,6.23
7781,7.21
7793,8.71
7805,10.07
7817,10.65
7828,10.14
7839,8.79
7851,7.17
7863,5.91
7875,5.36
7887,5.39
7899,5.58
7911,5.39
7923,4.5
7935,2.9
7947,0.84
7959,-1.41
7971,-3.65
7983,-5.85
7995,-8.11
8007,-10.52
8018,-13.09
8029,-15.71
8041,-18.25
8053,-20.59
8065,-22.65
8077,-24.38
8089,-25.79
8101,-26.94
8113,-27.96
8125,-29.07
8137,-30.62
8149,-32.9
8161,-36.09
8173,-40.11
8185,-44.49
8197,-48.48
8208,-51.16
8219,-51.62
8231,-49.33
8243,-44.16
8255,-36.54
8267,-27.29
8279,-17.4
8291,-7.77
8303,0.97
8315,8.52
8327,14.83
8339,19.95
8351,23.94
8363,26.84
8375,28.7
8387,29.63
8398,29.81
8409,29.46
8421,28.78
8433,27.96
8445,27.14
8457,26.37
8469,25.66
8481,24.99
8493,24.36
8505,23.77
8517,23.29
8529,23.01
8541,23.0
8553,23.24
8565,23.61
8577,23.83
8588,23.59
8599,22.64
8611,20.96
8623,18.77
8635,16.44
8647,14.37
8659,12.72
8671,11.4
8683,10.12
8695,8.57
8707,6.65
8719,4.52
8731,2.48
8743,0.84
8755,-0.28
8767,-1.04
8778,-1.7
8789,-2.56
8801,-3.81
8813,-5.5
8825,-7.63
8837,-10.15
8849,-12.99
8861,-16.02
8873,-19.06
8885,-21.87
8897,-24.35
8909,-26.55
8921,-28.76
8933,-31.4
8945,-34.78
8957,-38.87
8968,-43.15
8979,-46.72
8991,-48.53
9003,-47.77
9015,-44.19
9027,-38.17
9039,-30.59
9051,-22.52
9063,-14.87
9075,-8.24
9087,-2.85
9099,1.31
9111,4.38
9123,6.53
9135,7.99
9147,9.03
9158,9.94
9169,10.96
9181,12.15
9193,13.39
9205,14.37
9217,14.74
9229,14.22
9241,12.75
9253,10.57
9265,8.21
9277,6.34
9289,5.59
9301,6.29
9313,8.35
9325,11.27
9337,14.3
9348,16.76
9359,18.22
9371,18.63
9383,18.22
9395,17.29
9407,16.03
9419,14.55
9431,12.88
9443,11.16
9455,9.62
9467,8.54
9479,8.02
9491,7.93
9503,7.88
9515,7.45
9527,6.4
9538,4.78
9549,2.9
9561,1.17
9573,-0.21
9585,-1.36
9597,-2.62
9609,-4.37
9621,-6.8
9633,-9.82
9645,-13.15
9657,-16.57
9669,-20.19
9681,-24.42
9693,-29.72
9705,-36.36
9717,-44.18
9728,-52.6
9739,-60.85
9751,-68.27
9763,-74.35
9775,-78.74
9787,-80.97
9799,-80.39
9811,-76.29
9823,-68.25
9835,-56.5
9847,-42.01
9859,-26.35
9871,-11.18
9883,2.18
9895,13.04
9907,21.35
9918,27.44
9929,31.78
9941,34.77
9953,36.63
9965,37.5
9977,37.54
9989,36.95
10001,36.04
10013,35.09
10025,34.24
10037,33.46
10049,32.56
10061,31.38
10073,29.93
10085,28.44
10097,27.26
10108,26.61
10119,26.4
10131,26.24
10143,25.66
10155,24.33
10167,22.22
10179,19.57
10191,16.67
10203,13.73
10215,10.84
10227,8.1
10239,5.66
10251,3.69
10263,2.29
10275,1.35
10287,0.54
10298,-0.48
10309,-1.95
10321,-3.81
10333,-5.82
10345,-7.63
10357,-9.11
10369,-10.27
10381,-11.24
10393,-12.19
10405,-13.14
10417,-14.03
10429,-14.75
10441,-15.28
10453,-15.71
10465,-16.29
10477,-17.32
10488,-19.1
10499,-21.82
10511,-25.44
10523,-29.68
10535,-34.02
10547,-37.91
10559,-40.91
10571,-42.97
10583,-44.31
10595,-45.32
10607,-46.24
10619,-46.89
10631,-46.78
10643,-45.46
10655,-42.88
10667,-39.57
10678,-36.48
10689,-34.51
10701,-33.96
10713,-34.45
10725,-34.86
10737,-33.81
10749,-29.82
10761,-21.33
10773,-6.77
10785,15.17
10797,44.79
10809,80.65
10821,119.27
10833,155.75
10845,185.2
10857,204.33
10868,212.43
10879,211.13
10891,203.26
10903,191.5
10915,177.49
10927,161.97
10939,145.47
10951,128.82
10963,113.22
10975,99.8
10987,88.98
10999,80.42
11011,73.1
11023,65.63
11035,56.41
11047,43.67
11058,25.73
11069,1.58
11081,-28.47
11093,-62.38
11105,-96.64
11117,-127.27
11129,-151.11
11141,-166.52
11153,-173.43
11165,-172.91
11177,-166.48
11189,-155.81
11201,-142.62
11213,-128.63
11225,-115.33
11237,-103.82
11248,-94.79
11259,-88.81
11271,-86.71
11283,-89.58
11295,-98.42
11307,-113.32
11319,-132.92
11331,-154.36
11343,-173.82
11355,-187.46
11367,-192.27
11379,-186.61
11391,-170.44
11403,-145.24
11415,-113.81
11427,-79.78
11438,-47.07
11449,-19.11
11461,1.81
11473,14.85
11485,20.71
11497,21.25
11509,18.81
11521,15.48
11533,12.49
11545,9.94
11557,7.08
11569,2.98
11581,-2.75
11593,-9.48
11605,-15.64
11617,-19.42
11628,-19.53
11639,-15.79
11651,-9.01
11663,-0.41
11675,8.94
11687,18.48
11699,28.0
11711,37.21
11723,45.51
11735,52.01
11747,55.92
11759,56.91
11771,55.24
11783,51.57
11795,46.58
11807,40.74
11818,34.29
11829,27.5
11841,20.83
11853,14.89
11865,10.19
11877,6.81
11889,4.25
11901,1.66
11913,-1.66
11925,-5.86
11937,-10.28
11949,-13.77
11961,-15.2
11973,-14.09
11985,-10.87
11997,-6.85
12008,-3.68
12019,-2.7
12031,-4.49
12043,-8.71
12055,-14.43
12067,-20.54
12079,-26.1
12091,-30.61
12103,-34.02
12115,-36.56
12127,-38.63
12139,-40.58
12151,-42.37
12163,-43.41
12175,-42.54
12187,-38.44
12198,-30.28
12209,-18.32
12221,-4.04
12233,10.32
12245,22.65
12257,31.89
12269,38.4
12281,43.62
12293,49.31
12305,56.73
12317,66.22
12329,77.37
12341,89.44
12353,101.74
12365,113.84
12377,125.47
12388,136.43
12399,146.57
12411,155.92
12423,164.81
12435,173.68
12447,182.98
12459,192.78
12471,202.7
12483,212.11
12495,220.49
12507,227.77
12519,234.51
12531,241.46
12543,248.87
12555,255.68
12567,259.27
12578,255.96
12589,242.33
12601,216.74
12613,180.26
12625,136.56
12637,90.81
12649,47.82
12661,10.57
12673,-20.68
12685,-48.07
12697,-75.41
12709,-106.71
12721,-144.5
12733,-188.3
12745,-233.71
12757,-272.91
12768,-296.57
12779,-297.0
12791,-270.66
12803,-219.42
12815,-149.85
12827,-71.07
12839,7.65
12851,78.56
12863,136.08
12875,176.65
12887,198.2
12899,200.1
12911,183.12
12923,149.29
12935,101.62
12947,43.74
12958,-20.2
12969,-85.27
12981,-145.77
12993,-195.96
13005,-231.71
13017,-252.24
13029,-261.06
13041,-265.06
13053,-272.11
13065,-287.78
13077,-313.03
13089,-343.72
13101,-372.13
13113,-389.93
13125,-391.22
13137,-374.46
13148,-342.43
13159,-300.95
13171,-256.67
13183,-215.23
13195,-179.96
13207,-151.6
13219,-128.92
13231,-110.01
13243,-93.48
13255,-79.16
13267,-67.96
13279,-60.79
13291,-57.47
13303,-56.4
13315,-55.12
13327,-51.55
13338,-44.76
13349,-34.95
13361,-22.66
13373,-7.97
13385,9.63
13397,30.39
13409,53.34
13421,75.82
13433,94.32
13445,106.09
13457,110.71
13469,110.42
13481,109.06
13493,110.25
13505,115.81
13517,125.23
13528,136.22
13539,145.97
13551,152.2
13563,153.84
13575,151.1
13587,145.25
13599,138.11
13611,131.42
13623,126.39
13635,123.32
13647,121.73
13659,120.72
13671,119.42
13683,117.27
13695,114.07
13707,109.83
13718,104.62
13729,98.7
13741,92.61
13753,87.16
13765,83.23
13777,81.14
13789,80.35
13801,79.51
13813,77.02
13825,71.83
13837,63.99
13849,54.63
13861,45.47
13873,38.04
13885,33.09
13897,30.52
13908,29.6
13919,29.39
13931,29.1
13943,28.19
13955,26.44
13967,23.85
13979,20.65
13991,17.27
14003,14.24
14015,12.05
14027,10.93
14039,10.78
14051,11.15
14063,11.4
14075,10.92
14087,9.4
14098,6.94
14109,4.02
14121,1.32
14133,-0.53
14145,-1.16
14157,-0.58
14169,0.87
14181,2.58
14193,3.89
14205,4.2
14217,3.06
14229,0.34
14241,-3.8
14253,-8.73
14265,-13.52
14277,-17.05
14288,-18.34
14299,-16.82
14311,-12.54
14323,-6.21
14335,1.02
14347,7.92
14359,13.54
14371,17.49
14383,19.99
14395,21.58
14407,22.88
14419,24.2
14431,25.46
14443,26.21
14455,25.92
14467,24.26
14478,21.3
14489,17.52
14501,13.67
14513,10.48
14525,8.44
14537,7.65
14549,7.92
14561,8.83
14573,9.95
14585,10.94
14597,11.6
14609,11.87
14621,11.76
14633,11.3
14645,10.44
14657,9.09
14668,7.14
14679,4.59
14691,1.62
14703,-1.36
14715,-3.82
14727,-5.27
14739,-5.53
14751,-4.89
14763,-3.97
14775,-3.55
14787,-4.11
14799,-5.65
14811,-7.73
14823,-9.64
14835,-10.91
14847,-11.42
14858,-11.53
14869,-11.73
14881,-12.4
14893,-13.54
14905,-14.83
14917,-15.87
14929,-16.46
14941,-16.71
14953,-16.93
14965,-17.51
14977,-18.66
14989,-20.34
15001,-22.38
15013,-24.52
15025,-26.47
15037,-27.97
15048,-28.69
15059,-28.26
15071,-26.43
15083,-23.21
15095,-18.95
15107,-14.3
15119,-9.87
15131,-6.01
15143,-2.68
15155,0.48
15167,3.85
15179,7.49
15191,11.12
15203,14.18
15215,16.13
15227,16.78
15238,16.33
15249,15.23
15261,13.95
15273,12.78
15285,11.9
15297,11.4
15309,11.34
15321,11.71
15333,12.34
15345,12.93
15357,13.11
15369,12.72
15381,11.93
15393,11.14
15405,10.71
15417,10.7
15428,10.73
15439,10.18
15451,8.62
15463,6.05
15475,3.01
15487,0.23
15499,-1.75
15511,-2.85
15523,-3.43
15535,-4.02
15547,-4.98
15559,-6.27
15571,-7.6
15583,-8.61
15595,-9.15
15607,-9.45
15618,-9.97
15629,-11.21
15641,-13.56
15653,-17.13
15665,-21.76
15677,-27.04
15689,-32.43
15701,-37.31
15713,-41.15
15725,-43.54
15737,-44.32
15749,-43.71
15761,-42.29
15773,-40.91
15785,-40.27
15797,-40.6
15808,-41.36
15819,-41.29
15831,-38.92
15843,-33.22
15855,-24.12
15867,-12.66
15879,-0.66
15891,10.09
15903,18.49
15915,24.42
15927,28.48
15939,31.5
15951,33.98
15963,36.02
15975,37.4
15987,37.94
15998,37.6
16009,36.46
16021,34.65
16033,32.25
16045,29.41
16057,26.45
16069,24.03
16081,22.88
16093,23.5
16105,25.82
16117,29.1
16129,32.17
16141,33.86
16153,33.48
16165,30.95
16177,26.72
16188,21.51
16199,15.98
16211,10.55
16223,5.4
16235,0.64
16247,-3.51
16259,-6.66
16271,-8.37
16283,-8.41
16295,-6.97
16307,-4.66
16319,-2.31
16331,-0.66
16343,-0.05
16355,-0.39
16367,-1.34
16378,-2.55
16389,-3.88
16401,-5.41
16413,-7.28
16425,-9.48
16437,-11.75
16449,-13.71
16461,-15.04
16473,-15.66
16485,-15.76
16497,-15.76
16509,-16.13
16521,-17.28
16533,-19.42
16545,-22.47
16557,-26.07
16568,-29.63
16579,-32.49
16591,-34.1
16603,-34.18
16615,-32.78
16627,-30.2
16639,-26.9
16651,-23.29
16663,-19.65
16675,-16.13
16687,-12.76
16699,-9.43
16711,-6.02
16723,-2.35
16735,1.58
16747,5.54
16758,9.05
16769,11.57
16781,12.75
16793,12.66
16805,11.76
16817,10.71
16829,10.13
16841,10.31
16853,11.24
16865,12.61
16877,14.06
16889,15.27
16901,16.0
16913,16.14
16925,15.73
16937,14.97
16948,14.16
16959,13.58
16971,13.27
16983,13.01
16995,12.4
17007,11.11
17019,9.16
17031,6.89
17043,4.89
17055,3.65
17067,3.36
17079,3.8
17091,4.49
17103,4.94
17115,4.81
17127,3.98
17138,2.53
17149,0.67
17161,-1.41
17173,-3.51
17185,-5.54
17197,-7.45
17209,-9.26
17221,-11.01
17233,-12.73
17245,-14.47
17257,-16.29
17269,-18.3
17281,-20.56
17293,-23.0
17305,-25.37
17317,-27.32
17328,-28.61
17339,-29.24
17351,-29.4
17363,-29.33
17375,-29.08
17387,-28.34
17399,-26.56
17411,-23.25
17423,-18.25
17435,-11.96
17447,-5.22
17459,0.98
17471,5.81
17483,8.83
17495,10.05
17507,9.86
17518,8.91
17529,7.87
17541,7.23
17553,7.2
17565,7.67
17577,8.29
17589,8.74
17601,8.77
17613,8.35
17625,7.62
17637,6.83
17649,6.19
17661,5.87
17673,5.9
17685,6.22
17697,6.65
17708,7.04
17719,7.28
17731,7.32
17743,7.18
17755,6.8
17767,6.09
17779,4.99
17791,3.53
17803,1.92
17815,0.5
17827,-0.43
17839,-0.78
17851,-0.72
17863,-0.6
17875,-0.82
17887,-1.62
17898,-2.94
17909,-4.52
17921,-6.05
17933,-7.24
17945,-7.97
17957,-8.32
17969,-8.49
17981,-8.75
17993,-9.35
18005,-10.4
18017,-11.77
18029,-13.13
18041,-14.1
18053,-14.42
18065,-14.13
18077,-13.52
18088,-13.05
18099,-13.2
18111,-14.23
18123,-16.17
18135,-18.74
18147,-21.47
18159,-23.76
18171,-25.04
18183,-24.81
18195,-22.81
18207,-19.07
18219,-14.01
18231,-8.29
18243,-2.71
18255,2.07
18267,5.66
18278,8.07
18289,9.63
18301,10.76
18313,11.8
18325,12.83
18337,13.7
18349,14.15
18361,14.02
18373,13.37
18385,12.44
18397,11.55
18409,10.92
18421,10.57
18433,10.36
18445,10.11
18457,9.76
18468,9.42
18479,9.29
18491,9.49
18503,9.97
18515,10.5
18527,10.77
18539,10.54
18551,9.76
18563,8.57
18575,7.26
18587,6.15
18599,5.45
18611,5.19
18623,5.2
18635,5.19
18647,4.83
18658,3.87
18669,2.23
18681,0.06
18693,-2.33
18705,-4.61
18717,-6.53
18729,-8.07
18741,-9.35
18753,-10.6
18765,-11.96
18777,-13.46
18789,-15.05
18801,-16.66
18813,-18.31
18825,-20.06
18837,-21.93
18848,-23.89
18859,-25.76
18871,-27.33
18883,-28.46
18895,-29.21
18907,-29.81
18919,-30.51
18931,-31.38
18943,-32.12
18955,-32.14
18967,-30.78
18979,-27.66
18991,-22.93
19003,-17.25
19015,-11.58
19027,-6.75
19038,-3.22
19049,-0.93
19061,0.48
19073,1.37
19085,1.88
19097,1.88
19109,1.1
19121,-0.58
19133,-3.09
19145,-6.08
19157,-9.11
19169,-11.84
19181,-14.1
19193,-15.95
19205,-17.59
19217,-19.26
19228,-21.16
19239,-23.4
19251,-25.97
19263,-28.56
19275,-30.54
19287,-30.87
19299,-28.27
19311,-21.66
19323,-10.63
19335,4.12
19347,20.76
19359,36.7
19371,49.34
19383,56.85
19395,58.68
19407,55.5
19418,48.86
19429,40.66
19441,32.53
19453,25.62
19465,20.38
19477,16.72
19489,14.13
19501,11.96
19513,9.77
19525,7.49
19537,5.46
19549,4.2
19561,4.03
19573,4.92
19585,6.39
19597,7.71
19608,8.21
19619,7.51
19631,5.79
19643,3.81
19655,2.87
19667,4.44
19679,9.66
19691,18.76
19703,30.75
19715,43.54
19727,54.63
19739,62.0
19751,64.86
19763,63.88
19775,60.68
19787,57.06
19798,54.21
19809,52.44
19821,51.26
19833,49.89
19845,47.7
19857,44.44
19869,40.28
19881,35.62
19893,30.81
19905,26.06
19917,21.35
19929,16.57
19941,11.72
19953,7.0
19965,2.81
19977,-0.49
19988,-2.82
19999,-4.46
20011,-6.02
20023,-8.08
20035,-10.84
20047,-13.95
20059,-16.67
20071,-18.3
20083,-18.54
20095,-17.7
20107,-16.47
20119,-15.5
20131,-15.04
20143,-14.82
20155,-14.28
20167,-13.02
20178,-11.15
20189,-9.26
20201,-8.14
20213,-8.26
20225,-9.49
20237,-11.13
20249,-12.37
20261,-12.74
20273,-12.45
20285,-12.24
20297,-12.96
20309,-15.1
20321,-18.52
20333,-22.56
20345,-26.39
20357,-29.35
20368,-31.21
20379,-32.06
20391,-32.17
20403,-31.87
20415,-31.45
20427,-31.12
20439,-31.03
20451,-31.16
20463,-31.22
20475,-30.82
20487,-29.54
20499,-27.23
20511,-24.12
20523,-20.78
20535,-17.91
20547,-16.0
20558,-15.14
20569,-14.87
20581,-14.47
20593,-13.2
20605,-10.72
20617,-7.23
20629,-3.42
20641,-0.1
20653,2.12
20665,3.16
20677,3.49
20689,3.81
20701,4.74
20713,6.48
20725,8.76
20737,11.08
20748,13.06
20759,14.62
20771,16.03
20783,17.61
20795,19.45
20807,21.34
20819,22.8
20831,23.39
20843,22.98
20855,21.81
20867,20.35
20879,19.06
20891,18.08
20903,17.19
20915,16.01
20927,14.21
20938,11.8
20949,9.17
20961,6.9
20973,5.52
20985,5.21
20997,5.78
