seconds,BVP
9,10.17
21,9.41
33,8.68
45,7.99
57,7.4
69,7.04
81,6.99
93,7.29
105,7.86
117,8.56
129,9.27
140,9.88
151,10.36
163,10.63
175,10.59
187,10.1
199,9.12
211,7.71
223,6.09
235,4.52
247,3.2
259,2.18
271,1.34
283,0.55
295,-0.33
307,-1.3
319,-2.28
330,-3.17
341,-3.93
353,-4.58
365,-5.2
377,-5.88
389,-6.69
401,-7.68
413,-8.87
425,-10.31
437,-12.0
449,-13.9
461,-15.87
473,-17.65
485,-18.91
497,-19.28
509,-18.51
520,-16.49
531,-13.35
543,-9.44
555,-5.21
567,-1.11
579,2.49
591,5.4
603,7.58
615,9.1
627,10.07
639,10.58
651,10.67
663,10.39
675,9.81
687,9.05
699,8.28
710,7.67
721,7.3
733,7.19
745,7.26
757,7.4
769,7.52
781,7.6
793,7.71
805,7.94
817,8.3
829,8.7
841,8.96
853,8.83
865,8.15
877,6.9
889,5.24
900,3.47
911,1.86
923,0.58
935,-0.38
947,-1.14
959,-1.87
971,-2.65
983,-3.5
995,-4.32
1007,-5.08
1019,-5.79
1031,-6.56
1043,-7.49
1055,-8.64
1067,-9.94
1079,-11.3
1090,-12.62
1101,-13.86
1113,-15.08
1125,-16.3
1137,-17.48
1149,-18.37
1161,-18.62
1173,-17.86
1185,-15.87
1197,-12.68
1209,-8.64
1221,-4.21
1233,0.09
1245,3.91
1257,7.05
1269,9.5
1280,11.27
1291,12.36
1303,12.76
1315,12.49
1327,11.68
1339,10.57
1351,9.5
1363,8.72
1375,8.36
1387,8.38
1399,8.59
1411,8.86
1423,9.09
1435,9.32
1447,9.58
1459,9.87
1470,10.09
1481,10.06
1493,9.64
1505,8.83
1517,7.76
1529,6.66
1541,5.72
1553,4.99
1565,4.37
1577,3.63
1589,2.62
1601,1.29
1613,-0.19
1625,-1.57
1637,-2.6
1649,-3.19
1660,-3.44
1671,-3.58
1683,-3.86
1695,-4.41
1707,-5.25
1719,-6.3
1731,-7.5
1743,-8.78
1755,-10.13
1767,-11.52
1779,-12.92
1791,-14.28
1803,-15.59
1815,-16.83
1827,-17.97
1839,-18.87
1850,-19.3
1861,-18.98
1873,-17.66
1885,-15.26
1897,-11.9
1909,-7.81
1921,-3.37
1933,1.08
1945,5.21
1957,8.74
1969,11.49
1981,13.31
1993,14.14
2005,14.05
2017,13.24
2029,11.99
2040,10.61
2051,9.38
2063,8.43
2075,7.8
2087,7.45
2099,7.34
2111,7.45
2123,7.8
2135,8.32
2147,8.92
2159,9.41
2171,9.65
2183,9.56
2195,9.19
2207,8.67
2219,8.12
2230,7.61
2241,7.14
2253,6.64
2265,6.02
2277,5.23
2289,4.25
2301,3.12
2313,1.91
2325,0.76
2337,-0.22
2349,-0.94
2361,-1.42
2373,-1.75
2385,-2.07
2397,-2.51
2409,-3.13
2420,-3.93
2431,-4.84
2443,-5.78
2455,-6.67
2467,-7.43
2479,-8.05
2491,-8.6
2503,-9.22
2515,-10.13
2527,-11.48
2539,-13.28
2551,-15.31
2563,-17.15
2575,-18.35
2587,-18.54
2599,-17.57
2610,-15.49
2621,-12.48
2633,-8.76
2645,-4.57
2657,-0.2
2669,4.01
2681,7.7
2693,10.52
2705,12.25
2717,12.87
2729,12.56
2741,11.64
2753,10.47
2765,9.35
2777,8.45
2789,7.85
2800,7.49
2811,7.29
2823,7.2
2835,7.2
2847,7.32
2859,7.56
2871,7.91
2883,8.31
2895,8.69
2907,9.0
2919,9.23
2931,9.37
2943,9.41
2955,9.3
2967,8.99
2979,8.45
2990,7.71
3001,6.85
3013,5.95
3025,5.08
3037,4.25
3049,3.39
3061,2.43
3073,1.29
3085,-0.0
3097,-1.38
3109,-2.72
3121,-3.93
3133,-4.95
3145,-5.8
3157,-6.53
3169,-7.21
3180,-7.84
3191,-8.45
3203,-9.05
3215,-9.68
3227,-10.48
3239,-11.55
3251,-12.95
3263,-14.55
3275,-16.12
3287,-17.32
3299,-17.82
3311,-17.4
3323,-15.94
3335,-13.48
3347,-10.16
3359,-6.25
3370,-2.08
3381,1.94
3393,5.49
3405,8.28
3417,10.22
3429,11.34
3441,11.77
3453,11.69
3465,11.23
3477,10.46
3489,9.45
3501,8.34
3513,7.28
3525,6.47
3537,6.02
3549,5.98
3560,6.29
3571,6.83
3583,7.5
3595,8.18
3607,8.79
3619,9.21
3631,9.32
3643,9.02
3655,8.27
3667,7.14
3679,5.77
3691,4.38
3703,3.12
3715,2.08
3727,1.23
3739,0.48
3750,-0.24
3761,-1.02
3773,-1.84
3785,-2.65
3797,-3.36
3809,-3.92
3821,-4.31
3833,-4.56
3845,-4.8
3857,-5.08
3869,-5.52
3881,-6.12
3893,-6.9
3905,-7.81
3917,-8.79
3929,-9.77
3940,-10.71
3951,-11.64
3963,-12.62
3975,-13.76
3987,-15.06
3999,-16.45
4011,-17.74
4023,-18.63
4035,-18.82
4047,-18.08
4059,-16.36
4071,-13.72
4083,-10.39
4095,-6.67
4107,-2.82
4119,0.96
4130,4.51
4141,7.67
4153,10.3
4165,12.2
4177,13.22
4189,13.32
4201,12.64
4213,11.45
4225,10.07
4237,8.76
4249,7.68
4261,6.88
4273,6.34
4285,6.08
4297,6.1
4309,6.4
4320,6.92
4331,7.54
4343,8.07
4355,8.36
4367,8.28
4379,7.82
4391,7.03
4403,6.02
4415,4.95
4427,3.96
4439,3.11
4451,2.44
4463,1.89
4475,1.35
4487,0.75
4499,0.03
4510,-0.8
4521,-1.66
4533,-2.45
4545,-3.08
4557,-3.49
4569,-3.75
4581,-3.96
4593,-4.28
4605,-4.82
4617,-5.57
4629,-6.43
4641,-7.27
4653,-8.04
4665,-8.77
4677,-9.62
4689,-10.77
4700,-12.3
4711,-14.18
4723,-16.21
4735,-18.14
4747,-19.7
4759,-20.61
4771,-20.61
4783,-19.52
4795,-17.26
4807,-13.93
4819,-9.81
4831,-5.33
4843,-0.98
4855,2.88
4867,6.03
4879,8.45
4890,10.16
4901,11.19
4913,11.55
4925,11.22
4937,10.27
4949,8.92
4961,7.47
4973,6.27
4985,5.52
4997,5.3
5009,5.49
5021,5.9
5033,6.42
5045,6.98
5057,7.6
5069,8.26
5080,8.87
5091,9.29
5103,9.36
5115,9.05
5127,8.41
5139,7.57
5151,6.7
5163,5.83
5175,4.96
5187,4.03
5199,3.01
5211,1.91
5223,0.82
5235,-0.16
5247,-0.99
5259,-1.65
5270,-2.22
5281,-2.78
5293,-3.39
5305,-4.08
5317,-4.81
5329,-5.54
5341,-6.22
5353,-6.79
5365,-7.28
5377,-7.76
5389,-8.31
5401,-9.03
5413,-9.98
5425,-11.18
5437,-12.58
5449,-14.05
5460,-15.39
5471,-16.35
5483,-16.65
5495,-16.06
5507,-14.45
5519,-11.83
5531,-8.36
5543,-4.36
5555,-0.2
5567,3.72
5579,7.04
5591,9.51
5603,11.03
5615,11.64
5627,11.53
5639,10.92
5650,10.02
5661,8.97
5673,7.86
5685,6.8
5697,5.94
5709,5.47
5721,5.51
5733,6.05
5745,6.97
5757,8.04
5769,9.04
5781,9.82
5793,10.35
5805,10.64
5817,10.69
5829,10.46
5840,9.87
5851,8.86
5863,7.47
5875,5.8
5887,4.04
5899,2.38
5911,0.92
5923,-0.29
5935,-1.32
5947,-2.28
5959,-3.27
5971,-4.32
5983,-5.38
5995,-6.33
6007,-7.04
6019,-7.44
6030,-7.6
6041,-7.68
6053,-7.89
6065,-8.38
6077,-9.25
6089,-10.44
6101,-11.77
6113,-13.05
6125,-13.98
6137,-14.33
6149,-13.84
6161,-12.35
6173,-9.82
6185,-6.43
6197,-2.56
6209,1.33
6220,4.76
6231,7.38
6243,9.06
6255,9.86
6267,9.96
6279,9.59
6291,8.96
6303,8.21
6315,7.48
6327,6.82
6339,6.27
6351,5.85
6363,5.57
6375,5.47
6387,5.64
6399,6.12
6410,6.95
6421,8.04
6433,9.22
6445,10.24
6457,10.89
6469,11.02
6481,10.55
6493,9.52
6505,8.07
6517,6.37
6529,4.64
6541,3.09
6553,1.88
6565,1.06
6577,0.54
6589,0.16
6600,-0.29
6611,-0.91
6623,-1.74
6635,-2.76
6647,-3.85
6659,-4.97
6671,-6.08
6683,-7.17
6695,-8.28
6707,-9.47
6719,-10.77
6731,-12.14
6743,-13.49
6755,-14.61
6767,-15.21
6779,-14.99
6790,-13.69
6801,-11.2
6813,-7.6
6825,-3.15
6837,1.75
6849,6.59
6861,10.93
6873,14.44
6885,16.93
6897,18.41
6909,18.98
6921,18.76
6933,17.91
6945,16.56
6957,14.79
6969,12.72
6980,10.5
6991,8.28
7003,6.26
7015,4.61
7027,3.48
7039,2.96
7051,3.01
7063,3.35
7075,3.6
7087,3.35
7099,2.37
7111,0.76
7123,-1.12
7135,-2.74
7147,-3.63
7159,-3.64
7170,-3.18
7181,-2.98
7193,-3.75
7205,-5.8
7217,-8.83
7229,-12.04
7241,-14.37
7253,-14.87
7265,-13.23
7277,-10.04
7289,-6.57
7301,-4.14
7313,-3.6
7325,-5.02
7337,-7.62
7349,-10.18
7360,-11.21
7371,-9.62
7383,-5.2
7395,1.36
7407,8.67
7419,14.72
7431,17.16
7443,14.26
7455,4.52
7467,-11.35
7479,-29.85
7491,-46.52
7503,-58.23
7515,-64.12
7527,-65.29
7539,-63.84
7550,-61.72
7561,-59.99
7573,-58.19
7585,-54.79
7597,-48.14
7609,-37.35
7621,-22.9
7633,-6.72
7645,8.48
7657,20.41
7669,28.26
7681,33.13
7693,37.15
7705,41.98
7717,47.88
7729,53.67
7740,57.59
7751,58.5
7763,56.64
7775,53.46
7787,50.86
7799,50.01
7811,50.77
7823,51.88
7835,51.66
7847,48.79
7859,42.79
7871,34.12
7883,23.89
7895,13.53
7907,4.24
7919,-3.23
7930,-8.68
7941,-12.32
7953,-14.37
7965,-15.02
7977,-14.43
7989,-12.81
8001,-10.57
8013,-8.2
8025,-6.05
8037,-4.0
8049,-1.53
8061,1.85
8073,5.98
8085,9.77
8097,11.36
8109,8.54
8120,-0.19
8131,-14.87
8143,-33.92
8155,-54.71
8167,-74.42
8179,-90.65
8191,-101.63
8203,-105.86
8215,-102.3
8227,-90.6
8239,-71.43
8251,-46.84
8263,-20.02
8275,5.54
8287,26.91
8299,41.8
8310,50.62
8321,55.13
8333,57.13
8345,57.74
8357,57.35
8369,56.08
8381,54.3
8393,52.74
8405,52.13
8417,52.74
8429,53.75
8441,53.47
8453,50.05
8465,42.51
8477,31.28
8489,18.19
8500,5.69
8511,-4.1
8523,-10.23
8535,-13.24
8547,-14.64
8559,-15.93
8571,-17.85
8583,-20.16
8595,-22.15
8607,-23.21
8619,-23.26
8631,-22.69
8643,-22.11
8655,-21.94
8667,-22.12
8679,-22.37
8690,-22.09
8701,-20.97
8713,-19.05
8725,-16.62
8737,-14.04
8749,-11.56
8761,-9.33
8773,-7.34
8785,-5.52
8797,-3.8
8809,-2.14
8821,-0.52
8833,1.04
8845,2.5
8857,3.71
8869,4.54
8880,4.87
8891,4.69
8903,4.12
8915,3.29
8927,2.28
8939,1.13
8951,-0.19
8963,-1.72
8975,-3.45
8987,-5.33
8999,-7.24
9011,-9.06
9023,-10.71
9035,-12.14
9047,-13.31
9059,-14.22
9070,-14.91
9081,-15.5
9093,-16.22
9105,-17.28
9117,-18.9
9129,-21.1
9141,-23.71
9153,-26.29
9165,-28.25
9177,-28.96
9189,-27.92
9201,-25.05
9213,-20.53
9225,-14.81
9237,-8.56
9249,-2.5
9260,2.83
9271,7.05
9283,10.06
9295,11.95
9307,12.86
9319,13.01
9331,12.56
9343,11.64
9355,10.34
9367,8.76
9379,7.03
9391,5.32
9403,3.82
9415,2.74
9427,2.22
9439,2.27
9450,2.8
9461,3.59
9473,4.44
9485,5.12
9497,5.52
9509,5.58
9521,5.33
9533,4.85
9545,4.2
9557,3.39
9569,2.46
9581,1.39
9593,0.21
9605,-1.06
9617,-2.3
9629,-3.42
9640,-4.36
9651,-5.2
9663,-6.11
9675,-7.27
9687,-8.84
9699,-10.78
9711,-12.9
9723,-14.92
9735,-16.55
9747,-17.56
9759,-17.81
9771,-17.1
9783,-15.28
9795,-12.18
9807,-7.8
9819,-2.33
9830,3.79
9841,10.02
9853,15.79
9865,20.69
9877,24.46
9889,27.02
9901,28.38
9913,28.7
9925,28.18
9937,27.09
9949,25.74
9961,24.35
9973,23.06
9985,21.93
9997,20.92
10009,20.05
10020,19.33
10031,18.78
10043,18.41
10055,18.16
10067,17.97
10079,17.75
10091,17.42
10103,16.97
10115,16.37
10127,15.66
10139,14.8
10151,13.81
10163,12.63
10175,11.27
10187,9.77
10199,8.21
10210,6.71
10221,5.32
10233,4.05
10245,2.82
10257,1.52
10269,0.08
10281,-1.47
10293,-3.03
10305,-4.47
10317,-5.68
10329,-6.72
10341,-7.76
10353,-9.01
10365,-10.61
10377,-12.46
10389,-14.29
10400,-15.62
10411,-16.03
10423,-15.27
10435,-13.34
10447,-10.44
10459,-6.88
10471,-2.99
10483,0.96
10495,4.73
10507,8.08
10519,10.76
10531,12.57
10543,13.42
10555,13.39
10567,12.69
10579,11.59
10590,10.29
10601,8.93
10613,7.59
10625,6.37
10637,5.38
10649,4.76
10661,4.57
10673,4.77
10685,5.17
10697,5.51
10709,5.6
10721,5.37
10733,4.88
10745,4.29
10757,3.7
10769,3.13
10780,2.53
10791,1.8
10803,0.93
10815,-0.02
10827,-0.96
10839,-1.82
10851,-2.59
10863,-3.33
10875,-4.12
10887,-4.93
10899,-5.71
10911,-6.34
10923,-6.76
10935,-7.04
10947,-7.31
10959,-7.79
10970,-8.64
10981,-9.91
10993,-11.49
11005,-13.07
11017,-14.26
11029,-14.65
11041,-13.94
11053,-12.07
11065,-9.25
11077,-5.9
11089,-2.53
11101,0.44
11113,2.81
11125,4.62
11137,6.03
11149,7.23
11160,8.27
11171,9.04
11183,9.41
11195,9.31
11207,8.84
11219,8.23
11231,7.77
11243,7.6
11255,7.74
11267,8.06
11279,8.41
11291,8.7
11303,8.96
11315,9.21
11327,9.48
11339,9.7
11350,9.75
11361,9.5
11373,8.92
11385,8.07
11397,7.05
11409,6.0
11421,5.01
11433,4.11
11445,3.3
11457,2.5
11469,1.63
11481,0.63
11493,-0.48
11505,-1.62
11517,-2.65
11529,-3.42
11540,-3.88
11551,-4.1
11563,-4.25
11575,-4.52
11587,-5.07
11599,-5.95
11611,-7.04
11623,-8.12
11635,-8.97
11647,-9.38
11659,-9.24
11671,-8.5
11683,-7.18
11695,-5.37
11707,-3.21
11719,-0.86
11730,1.48
11741,3.63
11753,5.42
11765,6.73
11777,7.53
11789,7.86
11801,7.82
11813,7.6
11825,7.32
11837,7.11
11849,6.98
11861,6.9
11873,6.82
11885,6.68
11897,6.51
11909,6.36
11920,6.28
11931,6.28
11943,6.31
11955,6.25
11967,6.05
11979,5.66
11991,5.13
12003,4.53
12015,3.87
12027,3.15
12039,2.31
12051,1.33
12063,0.24
12075,-0.84
12087,-1.79
12099,-2.51
12110,-3.0
12121,-3.35
12133,-3.68
12145,-4.1
12157,-4.66
12169,-5.27
12181,-5.86
12193,-6.37
12205,-6.79
12217,-7.2
12229,-7.71
12241,-8.36
12253,-9.13
12265,-9.93
12277,-10.69
12289,-11.39
12300,-12.11
12311,-12.9
12323,-13.71
12335,-14.4
12347,-14.63
12359,-14.12
12371,-12.65
12383,-10.27
12395,-7.24
12407,-4.0
12419,-1.0
12431,1.44
12443,3.2
12455,4.34
12467,5.03
12479,5.42
12490,5.62
12501,5.62
12513,5.43
12525,5.08
12537,4.66
12549,4.33
12561,4.2
12573,4.35
12585,4.76
12597,5.37
12609,6.08
12621,6.77
12633,7.35
12645,7.75
12657,7.93
12669,7.89
12680,7.66
12691,7.24
12703,6.64
12715,5.84
12727,4.87
12739,3.82
12751,2.83
12763,2.04
12775,1.51
12787,1.21
12799,1.02
12811,0.74
12823,0.23
12835,-0.59
12847,-1.66
12859,-2.86
12870,-3.98
12881,-4.86
12893,-5.4
12905,-5.67
12917,-5.85
12929,-6.16
12941,-6.81
12953,-7.85
12965,-9.15
12977,-10.5
12989,-11.63
13001,-12.37
13013,-12.6
13025,-12.3
13037,-11.45
13049,-10.08
13060,-8.22
13071,-6.02
13083,-3.71
13095,-1.56
13107,0.21
13119,1.5
13131,2.37
13143,2.95
13155,3.37
13167,3.68
13179,3.83
13191,3.72
13203,3.35
13215,2.82
13227,2.37
13239,2.25
13250,2.58
13261,3.31
13273,4.2
13285,4.96
13297,5.39
13309,5.43
13321,5.18
13333,4.81
13345,4.41
13357,4.01
13369,3.56
13381,3.04
13393,2.51
13405,2.04
13417,1.71
13429,1.47
13440,1.2
13451,0.73
13463,-0.04
13475,-1.09
13487,-2.26
13499,-3.4
13511,-4.4
13523,-5.25
13535,-6.04
13547,-6.83
13559,-7.69
13571,-8.59
13583,-9.46
13595,-10.18
13607,-10.66
13619,-10.76
13630,-10.37
13641,-9.45
13653,-7.96
13665,-6.0
13677,-3.78
13689,-1.57
13701,0.35
13713,1.77
13725,2.65
13737,3.11
13749,3.29
13761,3.39
13773,3.5
13785,3.6
13797,3.61
13809,3.43
13820,3.05
13831,2.58
13843,2.16
13855,1.87
13867,1.75
13879,1.77
13891,1.84
13903,1.96
13915,2.16
13927,2.47
13939,2.92
13951,3.43
13963,3.88
13975,4.11
13987,4.01
13999,3.57
14010,2.85
14021,1.97
14033,1.07
14045,0.22
14057,-0.55
14069,-1.27
14081,-1.98
14093,-2.66
14105,-3.31
14117,-3.87
14129,-4.36
14141,-4.83
14153,-5.4
14165,-6.15
14177,-7.09
14189,-8.07
14200,-8.84
14211,-9.1
14223,-8.65
14235,-7.4
14247,-5.49
14259,-3.16
14271,-0.74
14283,1.49
14295,3.31
14307,4.66
14319,5.58
14331,6.19
14343,6.59
14355,6.84
14367,6.95
14379,6.86
14390,6.56
14401,6.09
14413,5.57
14425,5.13
14437,4.86
14449,4.78
14461,4.78
14473,4.77
14485,4.66
14497,4.49
14509,4.31
14521,4.22
14533,4.22
14545,4.19
14557,3.99
14569,3.49
14580,2.71
14591,1.77
14603,0.87
14615,0.14
14627,-0.41
14639,-0.83
14651,-1.23
14663,-1.68
14675,-2.19
14687,-2.77
14699,-3.43
14711,-4.23
14723,-5.25
14735,-6.52
14747,-7.92
14759,-9.22
14770,-10.11
14781,-10.34
14793,-9.76
14805,-8.4
14817,-6.42
14829,-4.05
14841,-1.53
14853,0.93
14865,3.14
14877,4.95
14889,6.26
14901,7.0
14913,7.2
14925,6.93
14937,6.31
14949,5.5
14960,4.61
14971,3.75
14983,3.03
14995,2.55
15007,2.39
15019,2.55
15031,2.94
15043,3.4
15055,3.77
15067,3.96
15079,3.97
15091,3.93
15103,3.92
15115,4.0
15127,4.09
15139,4.05
15150,3.76
15161,3.19
15173,2.44
15185,1.64
15197,0.93
15209,0.38
15221,-0.08
15233,-0.57
15245,-1.22
15257,-2.09
15269,-3.16
15281,-4.32
15293,-5.49
15305,-6.57
15317,-7.55
15329,-8.39
15340,-9.02
15351,-9.27
15363,-8.95
15375,-7.96
15387,-6.3
15399,-4.2
15411,-1.92
15423,0.24
15435,2.09
15447,3.61
15459,4.82
15471,5.76
15483,6.43
15495,6.81
15507,6.84
15519,6.57
15530,6.12
15541,5.62
15553,5.22
15565,4.95
15577,4.8
15589,4.68
15601,4.54
15613,4.32
15625,4.01
15637,3.6
15649,3.11
15661,2.56
15673,1.98
15685,1.42
15697,0.92
15709,0.49
15720,0.11
15731,-0.24
15743,-0.66
15755,-1.18
15767,-1.83
15779,-2.58
15791,-3.35
15803,-4.02
15815,-4.58
15827,-5.04
15839,-5.54
15851,-6.2
15863,-7.07
15875,-8.06
15887,-8.96
15899,-9.52
15910,-9.51
15921,-8.86
15933,-7.65
15945,-6.03
15957,-4.18
15969,-2.26
15981,-0.39
15993,1.33
16005,2.84
16017,4.11
16029,5.12
16041,5.83
16053,6.21
16065,6.21
16077,5.85
16089,5.19
16100,4.35
16111,3.49
16123,2.76
16135,2.29
16147,2.1
16159,2.18
16171,2.46
16183,2.81
16195,3.11
16207,3.29
16219,3.31
16231,3.17
16243,2.84
16255,2.29
16267,1.49
16279,0.47
16290,-0.68
16301,-1.8
16313,-2.74
16325,-3.42
16337,-3.92
16349,-4.37
16361,-4.94
16373,-5.69
16385,-6.61
16397,-7.61
16409,-8.55
16421,-9.3
16433,-9.72
16445,-9.66
16457,-9.01
16469,-7.72
16480,-5.88
16491,-3.66
16503,-1.27
16515,1.07
16527,3.22
16539,5.07
16551,6.57
16563,7.66
16575,8.3
16587,8.48
16599,8.27
16611,7.77
16623,7.1
16635,6.34
16647,5.55
16659,4.76
16670,4.02
16681,3.4
16693,2.94
16705,2.69
16717,2.6
16729,2.61
16741,2.61
16753,2.51
16765,2.29
16777,1.93
16789,1.46
16801,0.93
16813,0.39
16825,-0.11
16837,-0.57
16849,-0.99
16860,-1.43
16871,-1.93
16883,-2.56
16895,-3.34
16907,-4.28
16919,-5.36
16931,-6.52
16943,-7.67
16955,-8.69
16967,-9.38
16979,-9.57
16991,-9.15
17003,-8.13
17015,-6.65
17027,-4.93
17039,-3.13
17050,-1.39
17061,0.27
17073,1.81
17085,3.25
17097,4.5
17109,5.53
17121,6.27
17133,6.73
17145,6.91
17157,6.86
17169,6.62
17181,6.25
17193,5.87
17205,5.6
17217,5.52
17229,5.62
17240,5.79
17251,5.85
17263,5.68
17275,5.27
17287,4.73
17299,4.24
17311,3.92
17323,3.76
17335,3.62
17347,3.29
17359,2.63
17371,1.63
17383,0.44
17395,-0.73
17407,-1.72
17419,-2.46
17430,-3.07
17441,-3.68
17453,-4.42
17465,-5.34
17477,-6.34
17489,-7.32
17501,-8.19
17513,-8.92
17525,-9.58
17537,-10.18
17549,-10.66
17561,-10.85
17573,-10.55
17585,-9.59
17597,-7.97
17609,-5.85
17620,-3.49
17631,-1.18
17643,0.89
17655,2.61
17667,3.98
17679,5.0
17691,5.69
17703,6.04
17715,6.05
17727,5.76
17739,5.26
17751,4.68
17763,4.13
17775,3.73
17787,3.51
17799,3.51
17810,3.72
17821,4.12
17833,4.6
17845,5.07
17857,5.41
17869,5.54
17881,5.44
17893,5.17
17905,4.8
17917,4.42
17929,4.1
17941,3.86
17953,3.69
17965,3.53
17977,3.3
17989,2.95
18000,2.41
18011,1.69
18023,0.84
18035,-0.08
18047,-1.02
18059,-1.93
18071,-2.78
18083,-3.54
18095,-4.19
18107,-4.71
18119,-5.18
18131,-5.69
18143,-6.32
18155,-7.16
18167,-8.17
18179,-9.23
18190,-10.21
18201,-10.94
18213,-11.28
18225,-11.1
18237,-10.28
18249,-8.77
18261,-6.64
18273,-4.08
18285,-1.39
18297,1.12
18309,3.24
18321,4.91
18333,6.21
18345,7.23
18357,8.01
18369,8.52
18380,8.72
18391,8.6
18403,8.26
18415,7.86
18427,7.56
18439,7.4
18451,7.37
18463,7.4
18475,7.41
18487,7.36
18499,7.24
18511,7.04
18523,6.75
18535,6.38
18547,5.95
18559,5.47
18570,4.93
18581,4.31
18593,3.58
18605,2.74
18617,1.86
18629,1.02
18641,0.28
18653,-0.34
18665,-0.9
18677,-1.43
18689,-1.97
18701,-2.51
18713,-3.04
18725,-3.55
18737,-4.03
18749,-4.5
18760,-4.93
18771,-5.29
18783,-5.56
18795,-5.79
18807,-6.06
18819,-6.48
18831,-7.1
18843,-7.93
18855,-8.87
18867,-9.78
18879,-10.51
18891,-10.88
18903,-10.68
18915,-9.76
18927,-8.05
18939,-5.62
18950,-2.69
18961,0.38
18973,3.27
18985,5.73
18997,7.63
19009,8.94
19021,9.73
19033,10.05
19045,9.97
19057,9.6
19069,9.07
19081,8.55
19093,8.21
19105,8.11
19117,8.27
19129,8.59
19140,8.93
19151,9.18
19163,9.23
19175,9.03
19187,8.62
19199,8.04
19211,7.4
19223,6.79
19235,6.24
19247,5.71
19259,5.1
19271,4.26
19283,3.07
19295,1.48
19307,-0.49
19319,-2.7
19330,-4.97
19341,-7.08
19353,-8.83
19365,-10.11
19377,-10.88
19389,-11.24
19401,-11.29
19413,-11.15
19425,-10.9
19437,-10.6
19449,-10.3
19461,-10.11
19473,-10.13
19485,-10.51
19497,-11.3
19509,-12.51
19520,-14.0
19531,-15.48
19543,-16.6
19555,-17.07
19567,-16.68
19579,-15.45
19591,-13.58
19603,-11.42
19615,-9.29
19627,-7.46
19639,-6.03
19651,-4.99
19663,-4.25
19675,-3.71
19687,-3.3
19699,-2.99
19710,-2.78
19721,-2.69
19733,-2.73
19745,-2.86
19757,-2.89
19769,-2.54
19781,-1.49
19793,0.48
19805,3.39
19817,7.02
19829,10.97
19841,14.76
19853,18.01
19865,20.51
19877,22.3
19889,23.59
19900,24.65
19911,25.69
19923,26.69
19935,27.46
19947,27.67
19959,26.98
19971,25.23
19983,22.51
19995,19.09
20007,15.34
20019,11.59
20031,8.0
20043,4.64
20055,1.53
20067,-1.27
20079,-3.63
20090,-5.41
20101,-6.52
20113,-6.99
20125,-7.01
20137,-6.85
20149,-6.8
20161,-7.03
20173,-7.59
20185,-8.39
20197,-9.32
20209,-10.22
20221,-10.94
20233,-11.33
20245,-11.25
20257,-10.66
20269,-9.58
20280,-8.18
20291,-6.66
20303,-5.22
20315,-3.96
20327,-2.93
20339,-2.1
20351,-1.55
20363,-1.36
20375,-1.62
20387,-2.31
20399,-3.23
20411,-4.07
20423,-4.52
20435,-4.44
20447,-3.87
20459,-3.01
20470,-2.12
20481,-1.35
20493,-0.76
20505,-0.3
20517,0.09
20529,0.47
20541,0.85
20553,1.19
20565,1.46
20577,1.59
20589,1.49
20601,1.09
20613,0.31
20625,-0.84
20637,-2.26
20649,-3.72
20660,-5.0
20671,-5.88
20683,-6.26
20695,-6.22
20707,-5.89
20719,-5.44
20731,-5.0
20743,-4.63
20755,-4.37
20767,-4.24
20779,-4.29
20791,-4.55
20803,-5.0
20815,-5.56
20827,-6.17
20839,-6.82
20850,-7.6
20861,-8.62
20873,-9.91
20885,-11.31
20897,-12.42
20909,-12.73
20921,-11.8
20933,-9.49
20945,-6.03
20957,-1.94
20969,2.08
20981,5.5
20993,8.04
