seconds,BVP
8,-125.56
19,-118.84
30,-111.49
42,-104.85
54,-100.32
66,-98.94
78,-100.7
90,-103.81
102,-104.73
114,-99.04
126,-83.26
138,-56.55
150,-21.57
162,16.33
174,51.1
186,78.33
198,96.5
209,106.81
220,111.66
232,112.97
244,111.48
256,107.0
268,99.47
280,89.76
292,79.59
304,70.7
316,63.91
328,58.64
340,53.29
352,46.16
364,36.41
376,24.53
388,12.12
399,1.2
410,-6.58
422,-10.47
434,-10.72
446,-8.3
458,-4.54
470,-0.68
482,2.46
494,4.63
506,6.23
518,8.19
530,11.65
542,17.46
554,25.72
566,35.6
578,45.58
589,54.0
600,59.79
612,62.81
624,63.76
636,63.67
648,63.29
660,62.71
672,61.46
684,58.8
696,54.13
708,47.31
720,38.7
732,29.09
744,19.54
756,11.12
768,4.54
779,-0.05
790,-3.22
802,-5.99
814,-9.44
826,-14.29
838,-20.78
850,-28.87
862,-38.64
874,-50.43
886,-64.69
898,-81.41
910,-99.39
922,-115.96
934,-127.23
946,-129.09
958,-118.43
969,-94.18
980,-57.65
992,-12.16
1004,37.93
1016,88.27
1028,135.31
1040,176.59
1052,210.63
1064,236.78
1076,255.03
1088,265.87
1100,270.19
1112,268.9
1124,262.67
1136,251.68
1148,235.76
1159,214.87
1170,189.48
1182,160.86
1194,130.9
1206,101.65
1218,75.02
1230,52.57
1242,35.53
1254,24.82
1266,20.88
1278,23.26
1290,30.38
1302,39.59
1314,47.66
1326,51.67
1338,49.81
1349,41.8
1360,28.85
1372,13.1
1384,-3.26
1396,-18.7
1408,-32.71
1420,-45.7
1432,-58.56
1444,-72.13
1456,-87.01
1468,-103.52
1480,-121.94
1492,-142.4
1504,-164.69
1516,-187.71
1528,-209.25
1539,-226.33
1550,-236.05
1562,-236.6
1574,-227.91
1586,-211.6
1598,-190.26
1610,-166.55
1622,-142.63
1634,-120.03
1646,-99.75
1658,-82.44
1670,-68.27
1682,-56.66
1694,-46.3
1706,-35.53
1718,-22.98
1729,-8.22
1740,8.05
1752,24.42
1764,39.33
1776,51.74
1788,61.35
1800,68.45
1812,73.59
1824,77.27
1836,79.82
1848,81.51
1860,82.68
1872,83.7
1884,84.82
1896,85.89
1908,86.31
1919,85.2
1930,81.75
1942,75.75
1954,67.73
1966,58.78
1978,50.06
1990,42.12
2002,34.55
2014,26.17
2026,15.63
2038,2.22
2050,-13.66
2062,-30.49
2074,-46.22
2086,-58.9
2098,-67.36
2109,-71.38
2120,-71.64
2132,-69.32
2144,-65.79
2156,-62.28
2168,-59.7
2180,-58.55
2192,-58.96
2204,-60.74
2216,-63.48
2228,-66.75
2240,-70.12
2252,-73.24
2264,-75.8
2276,-77.52
2288,-78.19
2299,-77.65
2310,-75.79
2322,-72.55
2334,-67.91
2346,-62.07
2358,-55.54
2370,-49.11
2382,-43.75
2394,-40.22
2406,-38.78
2418,-39.08
2430,-40.32
2442,-41.68
2454,-42.76
2466,-43.69
2478,-45.01
2489,-47.2
2500,-50.32
2512,-53.94
2524,-57.34
2536,-59.92
2548,-61.46
2560,-62.18
2572,-62.56
2584,-63.08
2596,-63.91
2608,-65.0
2620,-66.15
2632,-67.25
2644,-68.38
2656,-69.81
2668,-71.8
2679,-74.39
2690,-77.33
2702,-80.04
2714,-81.84
2726,-82.11
2738,-80.46
2750,-76.82
2762,-71.33
2774,-64.34
2786,-56.43
2798,-48.48
2810,-41.73
2822,-37.57
2834,-37.21
2846,-41.23
2858,-49.13
2869,-59.3
2880,-69.31
2892,-76.53
2904,-78.86
2916,-75.25
2928,-65.86
2940,-51.79
2952,-34.68
2964,-16.19
2976,2.34
2988,19.95
3000,35.99
3012,49.93
3024,61.25
3036,69.6
3048,74.98
3059,77.88
3070,79.32
3082,80.55
3094,82.68
3106,86.27
3118,91.19
3130,96.76
3142,102.07
3154,106.39
3166,109.42
3178,111.3
3190,112.42
3202,113.13
3214,113.63
3226,113.81
3238,113.32
3249,111.59
3260,107.98
3272,101.98
3284,93.4
3296,82.57
3308,70.25
3320,57.53
3332,45.58
3344,35.48
3356,28.2
3368,24.56
3380,25.19
3392,30.32
3404,39.58
3416,51.97
3428,65.95
3439,79.82
3450,92.08
3462,101.65
3474,108.01
3486,111.21
3498,111.86
3510,111.15
3522,110.56
3534,111.42
3546,114.25
3558,118.41
3570,122.31
3582,124.14
3594,122.83
3606,118.65
3618,113.05
3629,107.84
3640,104.23
3652,102.21
3664,100.52
3676,97.37
3688,91.18
3700,81.17
3712,67.48
3724,50.89
3736,32.5
3748,13.37
3760,-5.55
3772,-23.5
3784,-39.98
3796,-54.87
3808,-68.48
3819,-81.46
3830,-94.41
3842,-107.53
3854,-120.26
3866,-131.4
3878,-139.47
3890,-143.26
3902,-142.32
3914,-137.05
3926,-128.51
3938,-118.07
3950,-106.99
3962,-96.3
3974,-86.73
3986,-78.84
3998,-72.98
4009,-69.28
4020,-67.57
4032,-67.43
4044,-68.25
4056,-69.33
4068,-70.06
4080,-69.9
4092,-68.44
4104,-65.46
4116,-61.08
4128,-55.83
4140,-50.64
4152,-46.5
4164,-44.16
4176,-43.72
4188,-44.61
4199,-45.88
4210,-46.59
4222,-46.3
4234,-45.12
4246,-43.5
4258,-41.95
4270,-40.72
4282,-39.93
4294,-39.75
4306,-40.71
4318,-43.63
4330,-49.26
4342,-57.93
4354,-69.25
4366,-82.31
4378,-95.95
4389,-109.14
4400,-120.97
4412,-130.63
4424,-137.28
4436,-140.18
4448,-138.93
4460,-133.82
4472,-125.81
4484,-116.31
4496,-106.67
4508,-97.81
4520,-90.16
4532,-83.92
4544,-79.4
4556,-77.15
4568,-77.65
4579,-80.72
4590,-85.11
4602,-88.43
4614,-87.74
4626,-80.47
4638,-65.33
4650,-42.72
4662,-14.7
4674,15.74
4686,45.48
4698,72.08
4710,94.17
4722,111.39
4734,124.04
4746,132.58
4758,137.42
4769,138.8
4780,137.03
4792,132.66
4804,126.53
4816,119.5
4828,112.14
4840,104.46
4852,95.96
4864,86.01
4876,74.37
4888,61.52
4900,48.67
4912,37.36
4924,28.84
4936,23.56
4948,21.05
4959,19.98
4970,18.71
4982,15.86
4994,10.75
5006,3.78
5018,-3.71
5030,-9.79
5042,-12.58
5054,-10.86
5066,-4.42
5078,5.98
5090,18.99
5102,33.12
5114,47.08
5126,59.91
5138,70.78
5149,78.92
5160,83.62
5172,84.44
5184,81.51
5196,75.62
5208,68.11
5220,60.46
5232,53.78
5244,48.52
5256,44.39
5268,40.72
5280,36.82
5292,32.34
5304,27.45
5316,22.66
5328,18.54
5339,15.37
5350,13.01
5362,10.93
5374,8.47
5386,5.04
5398,0.34
5410,-5.58
5422,-12.34
5434,-19.27
5446,-25.47
5458,-29.9
5470,-31.56
5482,-29.71
5494,-24.16
5506,-15.38
5518,-4.39
5529,7.47
5540,18.89
5552,28.86
5564,36.73
5576,42.16
5588,45.06
5600,45.55
5612,43.91
5624,40.71
5636,36.64
5648,32.45
5660,28.77
5672,25.96
5684,24.06
5696,22.88
5708,22.12
5719,21.42
5730,20.55
5742,19.4
5754,18.01
5766,16.51
5778,14.99
5790,13.44
5802,11.67
5814,9.32
5826,6.02
5838,1.46
5850,-4.33
5862,-10.92
5874,-17.45
5886,-22.77
5898,-25.7
5909,-25.36
5920,-21.43
5932,-14.25
5944,-4.7
5956,6.03
5968,16.8
5980,26.64
5992,34.91
6004,41.17
6016,45.18
6028,46.82
6040,46.2
6052,43.68
6064,39.93
6076,35.77
6088,32.0
6099,29.23
6110,27.71
6122,27.36
6134,27.78
6146,28.47
6158,28.98
6170,29.02
6182,28.51
6194,27.53
6206,26.19
6218,24.58
6230,22.67
6242,20.36
6254,17.55
6266,14.17
6278,10.15
6289,5.5
6300,0.29
6312,-5.22
6324,-10.48
6336,-14.7
6348,-16.98
6360,-16.67
6372,-13.53
6384,-7.87
6396,-0.45
6408,7.76
6420,15.81
6432,22.89
6444,28.46
6456,32.21
6468,34.02
6479,33.98
6490,32.34
6502,29.48
6514,25.87
6526,22.01
6538,18.35
6550,15.3
6562,13.13
6574,11.95
6586,11.69
6598,12.1
6610,12.84
6622,13.56
6634,13.99
6646,14.02
6658,13.65
6669,12.93
6680,11.95
6692,10.7
6704,9.1
6716,7.01
6728,4.26
6740,0.77
6752,-3.37
6764,-7.77
6776,-11.81
6788,-14.66
6800,-15.52
6812,-13.87
6824,-9.59
6836,-2.99
6848,5.26
6859,14.34
6870,23.46
6882,31.97
6894,39.35
6906,45.22
6918,49.34
6930,51.65
6942,52.27
6954,51.52
6966,49.82
6978,47.59
6990,45.13
7002,42.52
7014,39.69
7026,36.43
7038,32.5
7049,27.81
7060,22.49
7072,16.86
7084,11.43
7096,6.68
7108,2.88
7120,0.07
7132,-2.02
7144,-3.78
7156,-5.58
7168,-7.69
7180,-10.25
7192,-13.31
7204,-16.76
7216,-20.41
7228,-23.81
7239,-26.39
7250,-27.49
7262,-26.62
7274,-23.68
7286,-19.04
7298,-13.48
7310,-7.89
7322,-3.05
7334,0.6
7346,2.98
7358,4.2
7370,4.43
7382,3.79
7394,2.38
7406,0.4
7418,-1.81
7429,-3.8
7440,-5.17
7452,-5.73
7464,-5.57
7476,-5.0
7488,-4.4
7500,-4.02
7512,-3.93
7524,-4.05
7536,-4.31
7548,-4.71
7560,-5.42
7572,-6.68
7584,-8.64
7596,-11.28
7608,-14.41
7619,-17.7
7630,-20.89
7642,-23.8
7654,-26.33
7666,-28.3
7678,-29.38
7690,-29.14
7702,-27.21
7714,-23.49
7726,-18.3
7738,-12.32
7750,-6.39
7762,-1.2
7774,2.77
7786,5.35
7798,6.56
7809,6.47
7820,5.24
7832,3.09
7844,0.4
7856,-2.35
7868,-4.71
7880,-6.34
7892,-7.17
7904,-7.35
7916,-7.19
7928,-7.04
7940,-7.18
7952,-7.71
7964,-8.58
7976,-9.63
7988,-10.7
7999,-11.71
8010,-12.78
8022,-14.08
8034,-15.87
8046,-18.36
8058,-21.54
8070,-25.18
8082,-28.8
8094,-31.72
8106,-33.21
8118,-32.73
8130,-30.07
8142,-25.48
8154,-19.56
8166,-13.12
8178,-6.92
8189,-1.57
8200,2.55
8212,5.19
8224,6.27
8236,5.82
8248,4.02
8260,1.29
8272,-1.84
8284,-4.8
8296,-7.17
8308,-8.73
8320,-9.52
8332,-9.74
8344,-9.7
8356,-9.68
8368,-9.85
8379,-10.27
8390,-10.83
8402,-11.36
8414,-11.74
8426,-11.98
8438,-12.26
8450,-12.89
8462,-14.14
8474,-16.19
8486,-19.04
8498,-22.45
8510,-25.98
8522,-29.01
8534,-30.82
8546,-30.81
8558,-28.59
8569,-24.21
8580,-18.16
8592,-11.19
8604,-4.18
8616,2.14
8628,7.29
8640,11.06
8652,13.41
8664,14.39
8676,14.07
8688,12.58
8700,10.18
8712,7.23
8724,4.2
8736,1.54
8748,-0.39
8759,-1.45
8770,-1.71
8782,-1.54
8794,-1.36
8806,-1.62
8818,-2.53
8830,-4.08
8842,-5.99
8854,-7.91
8866,-9.55
8878,-10.85
8890,-12.01
8902,-13.37
8914,-15.26
8926,-17.85
8938,-21.04
8949,-24.43
8960,-27.41
8972,-29.28
8984,-29.44
8996,-27.53
9008,-23.58
9020,-17.95
9032,-11.28
9044,-4.33
9056,2.15
9068,7.57
9080,11.49
9092,13.69
9104,14.13
9116,12.95
9128,10.5
9139,7.25
9150,3.78
9162,0.65
9174,-1.69
9186,-3.0
9198,-3.29
9210,-2.8
9222,-1.95
9234,-1.18
9246,-0.85
9258,-1.14
9270,-1.99
9282,-3.23
9294,-4.65
9306,-6.08
9318,-7.48
9329,-8.95
9340,-10.6
9352,-12.64
9364,-15.2
9376,-18.36
9388,-22.01
9400,-25.77
9412,-29.02
9424,-30.97
9436,-30.93
9448,-28.5
9460,-23.77
9472,-17.29
9484,-9.9
9496,-2.54
9508,4.01
9519,9.24
9530,12.89
9542,14.92
9554,15.4
9566,14.52
9578,12.56
9590,9.85
9602,6.86
9614,4.05
9626,1.84
9638,0.49
9650,0.03
9662,0.24
9674,0.75
9686,1.19
9698,1.29
9709,0.93
9720,0.12
9732,-1.02
9744,-2.4
9756,-3.96
9768,-5.72
9780,-7.7
9792,-9.97
9804,-12.65
9816,-15.86
9828,-19.72
9840,-24.24
9852,-29.17
9864,-33.94
9876,-37.74
9888,-39.65
9899,-38.96
9910,-35.41
9922,-29.32
9934,-21.57
9946,-13.31
9958,-5.63
9970,0.67
9982,5.2
9994,7.87
10006,8.77
10018,8.02
10030,5.72
10042,2.11
10054,-2.45
10066,-7.42
10078,-12.18
10089,-16.17
10100,-19.01
10112,-20.46
10124,-20.4
10136,-18.74
10148,-15.46
10160,-10.66
10172,-4.63
10184,2.09
10196,8.83
10208,14.89
10220,19.7
10232,22.98
10244,24.67
10256,24.93
10268,23.95
10279,21.9
10290,18.9
10302,15.13
10314,10.99
10326,7.08
10338,4.2
10350,3.06
10362,4.05
10374,7.13
10386,11.76
10398,17.2
10410,22.66
10422,27.49
10434,31.26
10446,33.65
10458,34.5
10469,33.79
10480,31.73
10492,28.84
10504,25.8
10516,23.31
10528,21.83
10540,21.49
10552,22.05
10564,23.12
10576,24.27
10588,25.22
10600,25.77
10612,25.83
10624,25.31
10636,24.16
10648,22.36
10659,19.9
10670,16.77
10682,12.9
10694,8.16
10706,2.5
10718,-4.01
10730,-11.03
10742,-17.98
10754,-24.1
10766,-28.7
10778,-31.26
10790,-31.51
10802,-29.46
10814,-25.32
10826,-19.52
10838,-12.66
10849,-5.47
10860,1.25
10872,6.84
10884,10.87
10896,13.27
10908,14.24
10920,14.13
10932,13.27
10944,11.93
10956,10.31
10968,8.6
10980,7.02
10992,5.78
11004,4.95
11016,4.45
11028,4.09
11039,3.62
11050,2.92
11062,2.03
11074,1.12
11086,0.35
11098,-0.26
11110,-0.85
11122,-1.74
11134,-3.27
11146,-5.72
11158,-9.2
11170,-13.59
11182,-18.45
11194,-23.08
11206,-26.59
11218,-28.13
11229,-27.19
11240,-23.73
11252,-18.27
11264,-11.67
11276,-4.9
11288,1.22
11300,6.1
11312,9.41
11324,11.03
11336,11.01
11348,9.63
11360,7.38
11372,4.86
11384,2.63
11396,1.0
11408,0.0
11419,-0.58
11430,-1.01
11442,-1.49
11454,-2.07
11466,-2.72
11478,-3.4
11490,-4.09
11502,-4.76
11514,-5.38
11526,-5.91
11538,-6.35
11550,-6.83
11562,-7.62
11574,-9.11
11586,-11.6
11598,-15.13
11609,-19.32
11620,-23.42
11632,-26.49
11644,-27.68
11656,-26.53
11668,-23.08
11680,-17.84
11692,-11.56
11704,-5.04
11716,1.1
11728,6.44
11740,10.71
11752,13.73
11764,15.38
11776,15.57
11788,14.33
11799,11.89
11810,8.66
11822,5.21
11834,2.12
11846,-0.18
11858,-1.53
11870,-2.05
11882,-2.11
11894,-2.09
11906,-2.29
11918,-2.84
11930,-3.72
11942,-4.84
11954,-6.13
11966,-7.59
11978,-9.28
11989,-11.29
12000,-13.73
12012,-16.62
12024,-19.94
12036,-23.5
12048,-26.94
12060,-29.63
12072,-30.78
12084,-29.6
12096,-25.5
12108,-18.33
12120,-8.52
12132,2.97
12144,14.87
12156,25.9
12168,35.12
12179,42.06
12190,46.79
12202,49.65
12214,51.11
12226,51.49
12238,51.05
12250,50.01
12262,48.75
12274,47.78
12286,47.73
12298,49.05
12310,51.87
12322,55.87
12334,60.39
12346,64.58
12358,67.61
12369,68.8
12380,67.61
12392,63.78
12404,57.27
12416,48.4
12428,37.81
12440,26.45
12452,15.37
12464,5.51
12476,-2.55
12488,-8.73
12500,-13.44
12512,-17.35
12524,-21.12
12536,-25.05
12548,-28.91
12559,-32.01
12570,-33.39
12582,-32.24
12594,-28.18
12606,-21.37
12618,-12.46
12630,-2.28
12642,8.32
12654,18.7
12666,28.36
12678,36.92
12690,44.1
12702,49.69
12714,53.68
12726,56.19
12738,57.53
12749,58.1
12760,58.33
12772,58.58
12784,59.17
12796,60.31
12808,61.99
12820,63.89
12832,65.31
12844,65.24
12856,62.66
12868,56.92
12880,48.05
12892,36.82
12904,24.51
12916,12.39
12928,1.37
12939,-8.29
12950,-16.77
12962,-24.45
12974,-31.55
12986,-37.93
12998,-43.24
13010,-46.98
13022,-48.79
13034,-48.46
13046,-46.02
13058,-41.73
13070,-36.05
13082,-29.64
13094,-23.25
13106,-17.62
13118,-13.4
13129,-11.06
13140,-10.92
13152,-13.22
13164,-18.05
13176,-25.3
13188,-34.58
13200,-45.07
13212,-55.67
13224,-65.14
13236,-72.38
13248,-76.69
13260,-77.89
13272,-76.25
13284,-72.36
13296,-66.89
13308,-60.46
13319,-53.63
13330,-46.91
13342,-40.91
13354,-36.31
13366,-33.72
13378,-33.62
13390,-36.09
13402,-40.86
13414,-47.3
13426,-54.59
13438,-61.84
13450,-68.25
13462,-73.11
13474,-75.84
13486,-76.02
13498,-73.38
13509,-67.72
13520,-58.8
13532,-46.23
13544,-29.36
13556,-7.51
13568,19.77
13580,52.25
13592,88.77
13604,127.23
13616,165.06
13628,199.79
13640,229.79
13652,254.44
13664,274.11
13676,289.67
13688,301.89
13699,310.98
13710,316.43
13722,317.07
13734,311.37
13746,297.85
13758,275.68
13770,245.06
13782,207.52
13794,165.83
13806,123.41
13818,83.46
13830,48.19
13842,18.31
13854,-6.82
13866,-28.61
13878,-48.63
13889,-68.11
13900,-87.81
13912,-108.14
13924,-129.13
13936,-150.47
13948,-171.37
13960,-190.48
13972,-206.18
13984,-216.92
13996,-221.74
14008,-220.61
14020,-214.44
14032,-204.82
14044,-193.54
14056,-182.13
14068,-171.59
14079,-162.33
14090,-154.33
14102,-147.36
14114,-141.27
14126,-136.04
14138,-131.64
14150,-127.92
14162,-124.3
14174,-119.9
14186,-113.7
14198,-104.96
14210,-93.63
14222,-80.59
14234,-67.5
14246,-56.44
14258,-49.2
14269,-46.76
14280,-48.98
14292,-54.8
14304,-62.72
14316,-71.51
14328,-80.6
14340,-90.21
14352,-101.02
14364,-113.67
14376,-128.41
14388,-144.83
14400,-162.02
14412,-178.64
14424,-193.19
14436,-204.24
14448,-210.69
14459,-212.19
14470,-209.32
14482,-203.6
14494,-197.06
14506,-191.53
14518,-187.87
14530,-185.46
14542,-182.26
14554,-175.37
14566,-161.76
14578,-139.03
14590,-105.9
14602,-62.43
14614,-10.2
14626,47.76
14638,107.25
14649,163.55
14660,212.29
14672,250.47
14684,276.99
14696,292.55
14708,299.08
14720,298.85
14732,293.81
14744,285.37
14756,274.6
14768,262.31
14780,249.14
14792,235.21
14804,220.0
14816,202.54
14828,182.07
14839,158.94
14850,134.99
14862,113.27
14874,96.72
14886,86.85
14898,82.9
14910,82.19
14922,81.53
14934,78.85
14946,74.05
14958,68.67
14970,64.62
14982,62.66
14994,61.74
15006,59.34
15018,52.71
15029,40.09
15040,21.26
15052,-2.73
15064,-30.26
15076,-59.62
15088,-89.29
15100,-117.71
15112,-143.34
15124,-164.79
15136,-181.09
15148,-191.83
15160,-197.16
15172,-197.7
15184,-194.35
15196,-188.28
15208,-180.62
15219,-172.44
15230,-164.4
15242,-156.81
15254,-149.84
15266,-143.78
15278,-139.29
15290,-137.22
15302,-138.05
15314,-141.41
15326,-146.13
15338,-150.86
15350,-155.1
15362,-159.52
15374,-165.42
15386,-173.39
15398,-182.0
15409,-187.57
15420,-185.31
15432,-171.14
15444,-143.37
15456,-103.11
15468,-53.61
15480,1.06
15492,56.91
15504,110.45
15516,158.41
15528,197.82
15540,226.46
15552,243.69
15564,251.08
15576,252.1
15588,251.07
15599,251.53
15610,255.11
15622,261.23
15634,267.74
15646,272.14
15658,272.63
15670,268.7
15682,261.11
15694,251.39
15706,241.12
15718,231.36
15730,222.13
15742,212.38
15754,200.34
15766,184.2
15778,162.9
15789,136.64
15800,107.0
15812,76.38
15824,47.15
15836,20.8
15848,-2.38
15860,-23.09
15872,-42.44
15884,-61.14
15896,-79.23
15908,-96.16
15920,-111.16
15932,-123.57
15944,-132.96
15956,-139.04
15968,-141.47
15979,-139.91
15990,-134.15
16002,-124.46
16014,-111.68
16026,-97.18
16038,-82.52
16050,-69.0
16062,-57.29
16074,-47.24
16086,-38.07
16098,-28.69
16110,-18.22
16122,-6.33
16134,6.58
16146,19.65
16158,31.98
16169,43.09
16180,53.12
16192,62.73
16204,72.6
16216,82.96
16228,93.3
16240,102.66
16252,110.18
16264,115.68
16276,119.94
16288,124.27
16300,129.78
16312,136.63
16324,143.83
16336,149.62
16348,152.39
16359,151.41
16370,147.17
16382,141.12
16394,135.05
16406,130.34
16418,127.69
16430,127.03
16442,127.6
16454,127.99
16466,126.1
16478,119.17
16490,104.28
16502,79.24
16514,43.69
16526,-0.08
16538,-47.31
16549,-91.8
16560,-127.65
16572,-150.93
16584,-160.42
16596,-157.48
16608,-145.04
16620,-126.46
16632,-104.77
16644,-82.53
16656,-61.89
16668,-44.66
16680,-32.06
16692,-24.23
16704,-19.88
16716,-16.46
16728,-10.83
16739,-0.31
16750,16.19
16762,37.69
16774,61.4
16786,83.55
16798,100.74
16810,110.92
16822,113.78
16834,110.51
16846,102.96
16858,92.92
16870,81.54
16882,69.35
16894,56.54
16906,43.22
16918,29.62
16929,16.08
16940,2.94
16952,-9.42
16964,-20.58
16976,-30.07
16988,-37.56
17000,-42.93
17012,-46.37
17024,-48.14
17036,-48.32
17048,-46.62
17060,-42.43
17072,-35.21
17084,-24.86
17096,-11.88
17108,2.81
17119,18.11
17130,32.86
17142,45.62
17154,54.44
17166,57.0
17178,51.36
17190,37.08
17202,15.84
17214,-8.83
17226,-32.87
17238,-53.32
17250,-69.37
17262,-82.19
17274,-93.72
17286,-105.32
17298,-116.98
17309,-127.69
17320,-136.32
17332,-142.49
17344,-146.63
17356,-149.48
17368,-151.34
17380,-151.76
17392,-149.86
17404,-144.98
17416,-137.23
17428,-127.55
17440,-117.29
17452,-107.62
17464,-99.1
17476,-91.7
17488,-85.04
17499,-78.87
17510,-73.38
17522,-69.13
17534,-66.78
17546,-66.75
17558,-68.83
17570,-72.16
17582,-75.31
17594,-76.56
17606,-74.32
17618,-67.55
17630,-56.08
17642,-40.83
17654,-23.67
17666,-6.86
17678,7.57
17689,18.56
17700,26.25
17712,31.73
17724,36.44
17736,41.51
17748,47.34
17760,53.58
17772,59.53
17784,64.56
17796,68.24
17808,70.36
17820,70.69
17832,68.82
17844,64.23
17856,56.55
17868,45.87
17879,32.87
17890,18.59
17902,4.06
17914,-10.05
17926,-23.53
17938,-36.34
17950,-48.15
17962,-58.01
17974,-64.31
17986,-65.2
17998,-59.19
18010,-45.66
18022,-25.18
18034,0.64
18046,29.35
18058,58.04
18069,83.55
18080,102.75
18092,112.9
18104,112.22
18116,100.31
18128,78.52
18140,49.7
18152,17.59
18164,-14.05
18176,-42.24
18188,-65.22
18200,-82.49
18212,-94.43
18224,-101.99
18236,-106.28
18248,-108.42
18259,-109.38
18270,-109.95
18282,-110.57
18294,-111.35
18306,-112.06
18318,-112.22
18330,-111.37
18342,-109.11
18354,-105.27
18366,-99.99
18378,-93.71
18390,-87.11
18402,-80.92
18414,-75.48
18426,-70.41
18438,-64.42
18449,-55.65
18460,-42.38
18472,-23.89
18484,-1.07
18496,23.72
18508,47.31
18520,66.76
18532,80.22
18544,87.18
18556,88.25
18568,84.52
18580,77.14
18592,67.1
18604,55.3
18616,42.75
18628,30.58
18639,19.8
18650,11.03
18662,4.28
18674,-1.06
18686,-5.95
18698,-11.22
18710,-17.08
18722,-22.88
18734,-27.19
18746,-28.31
18758,-25.02
18770,-17.2
18782,-6.04
18794,6.29
18806,17.43
18818,25.59
18829,30.08
18840,31.3
18852,30.34
18864,28.53
18876,27.07
18888,26.88
18900,28.57
18912,32.43
18924,38.34
18936,45.75
18948,53.72
18960,61.17
18972,67.05
18984,70.6
18996,71.41
19008,69.49
19019,65.21
19030,59.29
19042,52.65
19054,46.24
19066,40.76
19078,36.53
19090,33.46
19102,31.18
19114,29.23
19126,27.31
19138,25.29
19150,23.17
19162,20.98
19174,18.64
19186,15.97
19198,12.71
19209,8.57
19220,3.38
19232,-2.91
19244,-10.12
19256,-17.9
19268,-25.84
19280,-33.5
19292,-40.58
19304,-46.95
19316,-52.68
19328,-58.0
19340,-63.2
19352,-68.44
19364,-73.6
19376,-78.11
19388,-81.03
19399,-81.25
19410,-77.9
19422,-70.67
19434,-60.03
19446,-47.11
19458,-33.43
19470,-20.4
19482,-9.07
19494,0.05
19506,6.81
19518,11.29
19530,13.71
19542,14.39
19554,13.75
19566,12.27
19578,10.43
19589,8.57
19600,6.8
19612,5.14
19624,3.59
19636,2.27
19648,1.41
19660,1.24
19672,1.86
19684,3.2
19696,5.08
19708,7.33
19720,9.88
19732,12.85
19744,16.39
19756,20.61
19768,25.49
19779,30.78
19790,36.14
19802,41.16
19814,45.43
19826,48.6
19838,50.35
19850,50.52
19862,49.1
19874,46.35
19886,42.78
19898,39.0
19910,35.6
19922,32.88
19934,30.82
19946,29.14
19958,27.56
19969,25.98
19980,24.66
19992,24.14
20004,24.95
20016,27.44
20028,31.51
20040,36.72
20052,42.33
20064,47.52
20076,51.4
20088,53.11
20100,51.88
20112,47.2
20124,39.11
20136,28.31
20148,16.2
20159,4.55
20170,-5.06
20182,-11.63
20194,-14.97
20206,-15.65
20218,-14.55
20230,-12.46
20242,-9.85
20254,-6.8
20266,-3.2
20278,1.03
20290,5.85
20302,11.09
20314,16.54
20326,22.07
20338,27.59
20349,33.11
20360,38.69
20372,44.42
20384,50.4
20396,56.72
20408,63.37
20420,70.2
20432,76.79
20444,82.55
20456,86.81
20468,89.1
20480,89.37
20492,88.11
20504,86.28
20516,84.87
20528,84.53
20539,85.14
20550,85.82
20562,85.18
20574,81.98
20586,75.6
20598,66.33
20610,55.29
20622,43.91
20634,33.52
20646,24.97
20658,18.56
20670,14.14
20682,11.31
20694,9.46
20706,7.75
20718,5.3
20729,1.31
20740,-4.53
20752,-11.88
20764,-19.71
20776,-26.71
20788,-31.76
20800,-34.41
20812,-35.05
20824,-34.58
20836,-34.13
20848,-34.62
20860,-36.61
20872,-40.41
20884,-46.2
20896,-54.08
20908,-63.87
20919,-74.94
20930,-86.15
20942,-96.17
20954,-103.91
20966,-109.02
20978,-112.03
20990,-114.17
