seconds,BVP
6,6.32
18,6.38
30,6.72
42,7.21
54,7.73
66,8.16
78,8.42
90,8.41
102,8.07
114,7.4
126,6.46
138,5.36
150,4.27
161,3.29
172,2.42
184,1.6
196,0.68
208,-0.44
220,-1.74
232,-3.09
244,-4.29
256,-5.13
268,-5.46
280,-5.18
292,-4.26
304,-2.67
316,-0.46
328,2.22
340,5.08
351,7.78
362,9.99
374,11.48
386,12.21
398,12.31
410,12.01
422,11.55
434,11.05
446,10.55
458,9.98
470,9.24
482,8.29
494,7.18
506,6.01
518,4.92
530,3.97
541,3.15
552,2.35
564,1.51
576,0.63
588,-0.23
600,-1.0
612,-1.69
624,-2.44
636,-3.37
648,-4.6
660,-6.05
672,-7.56
684,-8.99
696,-10.35
708,-11.81
720,-13.65
731,-16.01
742,-18.8
754,-21.67
766,-24.13
778,-25.73
790,-26.23
802,-25.62
814,-24.08
826,-21.87
838,-19.23
850,-16.34
862,-13.37
874,-10.54
886,-8.07
898,-6.17
910,-4.93
921,-4.25
932,-3.91
944,-3.67
956,-3.33
968,-2.85
980,-2.31
992,-1.85
1004,-1.57
1016,-1.49
1028,-1.57
1040,-1.73
1052,-1.9
1064,-2.1
1076,-2.38
1088,-2.78
1100,-3.33
1111,-4.0
1122,-4.75
1134,-5.52
1146,-6.27
1158,-7.03
1170,-7.9
1182,-9.07
1194,-10.77
1206,-13.13
1218,-16.14
1230,-19.57
1242,-22.94
1254,-25.64
1266,-27.1
1278,-26.92
1290,-25.02
1301,-21.65
1312,-17.23
1324,-12.3
1336,-7.32
1348,-2.64
1360,1.55
1372,5.16
1384,8.17
1396,10.62
1408,12.5
1420,13.78
1432,14.36
1444,14.25
1456,13.51
1468,12.37
1480,11.1
1491,10.0
1502,9.23
1514,8.82
1526,8.66
1538,8.58
1550,8.37
1562,7.86
1574,6.92
1586,5.46
1598,3.5
1610,1.15
1622,-1.43
1634,-4.05
1646,-6.62
1658,-9.17
1670,-11.86
1681,-14.87
1692,-18.32
1704,-22.14
1716,-26.01
1728,-29.39
1740,-31.64
1752,-32.22
1764,-30.83
1776,-27.49
1788,-22.59
1800,-16.69
1812,-10.44
1824,-4.41
1836,0.99
1848,5.52
1860,9.04
1871,11.55
1882,13.08
1894,13.8
1906,13.92
1918,13.69
1930,13.3
1942,12.88
1954,12.45
1966,11.98
1978,11.48
1990,10.99
2002,10.57
2014,10.24
2026,9.94
2038,9.52
2050,8.83
2061,7.75
2072,6.29
2084,4.56
2096,2.72
2108,0.87
2120,-0.97
2132,-2.87
2144,-5.02
2156,-7.6
2168,-10.76
2180,-14.5
2192,-18.59
2204,-22.58
2216,-25.92
2228,-27.99
2240,-28.38
2251,-26.89
2262,-23.62
2274,-18.88
2286,-13.13
2298,-6.84
2310,-0.46
2322,5.61
2334,11.03
2346,15.53
2358,18.95
2370,21.27
2382,22.63
2394,23.3
2406,23.61
2418,23.84
2430,24.11
2441,24.38
2452,24.48
2464,24.24
2476,23.62
2488,22.74
2500,21.81
2512,20.99
2524,20.33
2536,19.68
2548,18.79
2560,17.45
2572,15.59
2584,13.29
2596,10.75
2608,8.2
2620,5.77
2631,3.46
2642,1.15
2654,-1.37
2666,-4.27
2678,-7.66
2690,-11.55
2702,-15.79
2714,-20.14
2726,-24.25
2738,-27.68
2750,-29.93
2762,-30.5
2774,-29.05
2786,-25.48
2798,-20.06
2810,-13.41
2821,-6.33
2832,0.46
2844,6.43
2856,11.38
2868,15.3
2880,18.31
2892,20.47
2904,21.81
2916,22.4
2928,22.39
2940,22.08
2952,21.78
2964,21.69
2976,21.83
2988,22.05
3000,22.11
3011,21.86
3022,21.28
3034,20.45
3046,19.53
3058,18.63
3070,17.79
3082,16.95
3094,16.02
3106,14.89
3118,13.47
3130,11.71
3142,9.6
3154,7.19
3166,4.57
3178,1.86
3190,-0.88
3201,-3.61
3212,-6.33
3224,-9.13
3236,-12.09
3248,-15.28
3260,-18.78
3272,-22.55
3284,-26.44
3296,-30.07
3308,-32.86
3320,-34.21
3332,-33.63
3344,-30.98
3356,-26.5
3368,-20.75
3380,-14.37
3391,-7.97
3402,-1.95
3414,3.43
3426,7.99
3438,11.57
3450,14.03
3462,15.33
3474,15.58
3486,15.06
3498,14.15
3510,13.24
3522,12.65
3534,12.5
3546,12.76
3558,13.27
3570,13.84
3581,14.31
3592,14.62
3604,14.8
3616,14.93
3628,15.05
3640,15.12
3652,15.02
3664,14.62
3676,13.78
3688,12.47
3700,10.7
3712,8.58
3724,6.24
3736,3.84
3748,1.52
3760,-0.65
3771,-2.7
3782,-4.77
3794,-7.08
3806,-9.8
3818,-13.02
3830,-16.63
3842,-20.28
3854,-23.47
3866,-25.65
3878,-26.32
3890,-25.23
3902,-22.38
3914,-18.06
3926,-12.76
3938,-7.03
3950,-1.38
3961,3.83
3972,8.3
3984,11.91
3996,14.55
4008,16.17
4020,16.82
4032,16.66
4044,15.94
4056,15.03
4068,14.22
4080,13.7
4092,13.5
4104,13.49
4116,13.47
4128,13.34
4140,13.04
4151,12.69
4162,12.39
4174,12.22
4186,12.13
4198,11.97
4210,11.56
4222,10.75
4234,9.45
4246,7.69
4258,5.63
4270,3.42
4282,1.27
4294,-0.72
4306,-2.53
4318,-4.26
4330,-6.11
4341,-8.3
4352,-10.96
4364,-14.06
4376,-17.35
4388,-20.35
4400,-22.53
4412,-23.41
4424,-22.68
4436,-20.31
4448,-16.53
4460,-11.76
4472,-6.48
4484,-1.14
4496,3.87
4508,8.29
4520,11.89
4531,14.54
4542,16.23
4554,17.08
4566,17.36
4578,17.34
4590,17.25
4602,17.18
4614,17.05
4626,16.78
4638,16.3
4650,15.65
4662,14.99
4674,14.45
4686,14.11
4698,13.95
4710,13.86
4721,13.69
4732,13.3
4744,12.6
4756,11.52
4768,10.05
4780,8.22
4792,6.13
4804,3.94
4816,1.8
4828,-0.22
4840,-2.14
4852,-4.09
4864,-6.2
4876,-8.58
4888,-11.24
4900,-14.17
4911,-17.3
4922,-20.49
4934,-23.5
4946,-25.9
4958,-27.17
4970,-26.87
4982,-24.77
4994,-21.06
5006,-16.25
5018,-11.06
5030,-6.1
5042,-1.76
5054,1.87
5066,4.86
5078,7.3
5090,9.19
5101,10.48
5112,11.12
5124,11.15
5136,10.76
5148,10.2
5160,9.71
5172,9.4
5184,9.31
5196,9.35
5208,9.46
5220,9.62
5232,9.82
5244,10.06
5256,10.3
5268,10.43
5280,10.34
5291,9.97
5302,9.31
5314,8.37
5326,7.2
5338,5.8
5350,4.22
5362,2.51
5374,0.78
5386,-0.88
5398,-2.41
5410,-3.87
5422,-5.42
5434,-7.25
5446,-9.52
5458,-12.3
5470,-15.45
5481,-18.7
5492,-21.66
5504,-23.95
5516,-25.21
5528,-25.19
5540,-23.81
5552,-21.13
5564,-17.36
5576,-12.81
5588,-7.89
5600,-3.01
5612,1.43
5624,5.1
5636,7.78
5648,9.4
5660,10.04
5671,9.91
5682,9.31
5694,8.58
5706,7.95
5718,7.57
5730,7.46
5742,7.58
5754,7.82
5766,8.12
5778,8.41
5790,8.62
5802,8.71
5814,8.66
5826,8.5
5838,8.3
5850,8.1
5861,7.87
5872,7.46
5884,6.67
5896,5.37
5908,3.56
5920,1.4
5932,-0.85
5944,-2.97
5956,-4.88
5968,-6.7
5980,-8.64
5992,-10.94
6004,-13.7
6016,-16.83
6028,-20.01
6040,-22.81
6051,-24.72
6062,-25.33
6074,-24.38
6086,-21.83
6098,-17.88
6110,-12.9
6122,-7.45
6134,-2.11
6146,2.6
6158,6.32
6170,8.94
6182,10.54
6194,11.35
6206,11.64
6218,11.64
6230,11.5
6241,11.31
6252,11.08
6264,10.82
6276,10.53
6288,10.23
6300,9.98
6312,9.84
6324,9.89
6336,10.14
6348,10.49
6360,10.74
6372,10.66
6384,10.05
6396,8.86
6408,7.21
6420,5.27
6431,3.27
6442,1.33
6454,-0.55
6466,-2.41
6478,-4.34
6490,-6.42
6502,-8.69
6514,-11.16
6526,-13.83
6538,-16.64
6550,-19.43
6562,-21.88
6574,-23.56
6586,-24.03
6598,-23.01
6610,-20.44
6621,-16.58
6632,-11.87
6644,-6.87
6656,-2.07
6668,2.15
6680,5.54
6692,8.0
6704,9.53
6716,10.26
6728,10.42
6740,10.27
6752,10.03
6764,9.86
6776,9.75
6788,9.65
6800,9.48
6811,9.22
6822,8.93
6834,8.7
6846,8.6
6858,8.62
6870,8.69
6882,8.63
6894,8.31
6906,7.61
6918,6.46
6930,4.85
6942,2.82
6954,0.47
6966,-2.07
6978,-4.65
6990,-7.13
7001,-9.46
7012,-11.71
7024,-14.07
7036,-16.75
7048,-19.8
7060,-23.07
7072,-26.13
7084,-28.41
7096,-29.36
7108,-28.59
7120,-26.04
7132,-21.96
7144,-16.86
7156,-11.3
7168,-5.8
7180,-0.74
7191,3.64
7202,7.2
7214,9.85
7226,11.56
7238,12.38
7250,12.46
7262,12.07
7274,11.5
7286,10.99
7298,10.63
7310,10.44
7322,10.33
7334,10.25
7346,10.15
7358,10.05
7370,9.91
7381,9.7
7392,9.38
7404,8.9
7416,8.25
7428,7.43
7440,6.38
7452,5.1
7464,3.54
7476,1.73
7488,-0.28
7500,-2.4
7512,-4.61
7524,-6.94
7536,-9.5
7548,-12.43
7560,-15.81
7571,-19.49
7582,-23.18
7594,-26.33
7606,-28.36
7618,-28.79
7630,-27.37
7642,-24.2
7654,-19.66
7666,-14.33
7678,-8.76
7690,-3.43
7702,1.33
7714,5.34
7726,8.48
7738,10.72
7750,12.06
7761,12.61
7772,12.53
7784,12.05
7796,11.43
7808,10.87
7820,10.51
7832,10.39
7844,10.47
7856,10.64
7868,10.8
7880,10.85
7892,10.79
7904,10.6
7916,10.29
7928,9.8
7940,9.07
7951,8.04
7962,6.71
7974,5.18
7986,3.56
7998,1.94
8010,0.34
8022,-1.34
8034,-3.26
8046,-5.56
8058,-8.35
8070,-11.6
8082,-15.21
8094,-18.94
8106,-22.49
8118,-25.45
8130,-27.37
8141,-27.86
8152,-26.64
8164,-23.67
8176,-19.16
8188,-13.55
8200,-7.42
8212,-1.38
8224,4.08
8236,8.58
8248,11.94
8260,14.1
8272,15.17
8284,15.36
8296,14.92
8308,14.17
8320,13.35
8331,12.62
8342,12.09
8354,11.77
8366,11.66
8378,11.7
8390,11.85
8402,12.04
8414,12.22
8426,12.37
8438,12.41
8450,12.26
8462,11.76
8474,10.77
8486,9.2
8498,7.09
8510,4.66
8521,2.18
8532,-0.1
8544,-2.1
8556,-3.95
8568,-5.94
8580,-8.32
8592,-11.22
8604,-14.61
8616,-18.25
8628,-21.82
8640,-24.95
8652,-27.19
8664,-28.11
8676,-27.36
8688,-24.74
8700,-20.36
8711,-14.6
8722,-8.07
8734,-1.47
8746,4.56
8758,9.57
8770,13.35
8782,15.86
8794,17.21
8806,17.58
8818,17.16
8830,16.18
8842,14.94
8854,13.76
8866,12.93
8878,12.62
8890,12.81
8901,13.3
8912,13.82
8924,14.16
8936,14.26
8948,14.18
8960,14.02
8972,13.76
8984,13.22
8996,12.19
9008,10.5
9020,8.18
9032,5.51
9044,2.82
9056,0.38
9068,-1.78
9080,-3.89
9091,-6.32
9102,-9.4
9114,-13.24
9126,-17.65
9138,-22.19
9150,-26.22
9162,-29.15
9174,-30.48
9186,-29.93
9198,-27.51
9210,-23.44
9222,-18.15
9234,-12.12
9246,-5.85
9258,0.26
9270,5.85
9281,10.68
9292,14.55
9304,17.3
9316,18.88
9328,19.36
9340,18.92
9352,17.87
9364,16.58
9376,15.4
9388,14.57
9400,14.17
9412,14.16
9424,14.36
9436,14.64
9448,14.87
9460,14.99
9471,14.98
9482,14.81
9494,14.42
9506,13.71
9518,12.59
9530,11.02
9542,8.98
9554,6.55
9566,3.88
9578,1.12
9590,-1.57
9602,-4.09
9614,-6.49
9626,-8.87
9638,-11.45
9650,-14.41
9661,-17.85
9672,-21.71
9684,-25.73
9696,-29.45
9708,-32.27
9720,-33.59
9732,-32.96
9744,-30.26
9756,-25.68
9768,-19.76
9780,-13.18
9792,-6.59
9804,-0.5
9816,4.83
9828,9.27
9840,12.74
9851,15.17
9862,16.55
9874,16.96
9886,16.68
9898,16.12
9910,15.68
9922,15.61
9934,15.98
9946,16.67
9958,17.46
9970,18.16
9982,18.67
9994,18.95
10006,18.99
10018,18.83
10030,18.52
10041,18.11
10052,17.67
10064,17.21
10076,16.65
10088,15.89
10100,14.84
10112,13.44
10124,11.75
10136,9.86
10148,7.87
10160,5.87
10172,3.85
10184,1.78
10196,-0.4
10208,-2.84
10220,-5.68
10231,-9.09
10242,-13.1
10254,-17.52
10266,-21.86
10278,-25.47
10290,-27.65
10302,-27.92
10314,-26.18
10326,-22.68
10338,-17.94
10350,-12.55
10362,-7.03
10374,-1.78
10386,2.96
10398,7.02
10410,10.31
10421,12.75
10432,14.29
10444,14.97
10456,14.89
10468,14.26
10480,13.37
10492,12.54
10504,12.02
10516,11.95
10528,12.32
10540,12.99
10552,13.77
10564,14.47
10576,14.98
10588,15.2
10600,15.12
10611,14.73
10622,14.05
10634,13.12
10646,11.97
10658,10.62
10670,9.02
10682,7.18
10694,5.1
10706,2.83
10718,0.4
10730,-2.16
10742,-4.9
10754,-7.87
10766,-11.08
10778,-14.49
10790,-18.02
10801,-21.58
10812,-25.14
10824,-28.62
10836,-31.81
10848,-34.35
10860,-35.72
10872,-35.43
10884,-33.19
10896,-29.09
10908,-23.56
10920,-17.25
10932,-10.8
10944,-4.72
10956,0.7
10968,5.26
10980,8.82
10991,11.27
11002,12.56
11014,12.84
11026,12.4
11038,11.68
11050,11.05
11062,10.77
11074,10.87
11086,11.24
11098,11.76
11110,12.31
11122,12.89
11134,13.49
11146,14.1
11158,14.64
11170,14.97
11181,14.98
11192,14.56
11204,13.65
11216,12.23
11228,10.31
11240,7.94
11252,5.24
11264,2.39
11276,-0.39
11288,-2.96
11300,-5.33
11312,-7.63
11324,-10.11
11336,-12.95
11348,-16.16
11360,-19.58
11371,-22.88
11382,-25.63
11394,-27.42
11406,-27.91
11418,-26.88
11430,-24.23
11442,-20.03
11454,-14.53
11466,-8.21
11478,-1.64
11490,4.5
11502,9.72
11514,13.67
11526,16.3
11538,17.73
11550,18.2
11561,17.94
11572,17.2
11584,16.18
11596,15.12
11608,14.22
11620,13.61
11632,13.36
11644,13.41
11656,13.65
11668,13.95
11680,14.2
11692,14.31
11704,14.2
11716,13.81
11728,13.08
11740,11.95
11751,10.44
11762,8.57
11774,6.44
11786,4.14
11798,1.75
11810,-0.65
11822,-3.02
11834,-5.39
11846,-7.85
11858,-10.57
11870,-13.67
11882,-17.18
11894,-20.99
11906,-24.76
11918,-28.0
11930,-30.15
11941,-30.69
11952,-29.31
11964,-25.99
11976,-20.98
11988,-14.8
12000,-8.07
12012,-1.42
12024,4.62
12036,9.71
12048,13.69
12060,16.54
12072,18.33
12084,19.16
12096,19.15
12108,18.44
12120,17.28
12131,15.99
12142,14.89
12154,14.25
12166,14.18
12178,14.62
12190,15.36
12202,16.16
12214,16.86
12226,17.38
12238,17.74
12250,17.94
12262,17.95
12274,17.64
12286,16.89
12298,15.58
12310,13.73
12321,11.46
12332,8.97
12344,6.51
12356,4.23
12368,2.14
12380,0.1
12392,-2.19
12404,-5.0
12416,-8.49
12428,-12.57
12440,-16.92
12452,-20.98
12464,-24.2
12476,-26.07
12488,-26.3
12500,-24.81
12511,-21.73
12522,-17.32
12534,-11.98
12546,-6.22
12558,-0.56
12570,4.5
12582,8.6
12594,11.56
12606,13.41
12618,14.29
12630,14.42
12642,14.01
12654,13.24
12666,12.3
12678,11.36
12690,10.6
12701,10.14
12712,10.03
12724,10.22
12736,10.57
12748,10.93
12760,11.21
12772,11.39
12784,11.47
12796,11.45
12808,11.26
12820,10.76
12832,9.8
12844,8.33
12856,6.39
12868,4.2
12880,1.97
12891,-0.14
12902,-2.12
12914,-4.1
12926,-6.28
12938,-8.86
12950,-11.95
12962,-15.54
12974,-19.48
12986,-23.48
12998,-27.16
13010,-30.16
13022,-32.17
13034,-32.99
13046,-32.57
13058,-30.99
13070,-28.45
13081,-25.19
13092,-21.54
13104,-17.79
13116,-14.19
13128,-10.94
13140,-8.16
13152,-5.9
13164,-4.18
13176,-2.98
13188,-2.3
13200,-2.03
13212,-2.01
13224,-2.05
13236,-1.95
13248,-1.56
13260,-0.85
13271,0.15
13282,1.37
13294,2.71
13306,4.08
13318,5.36
13330,6.41
13342,7.07
13354,7.19
13366,6.66
13378,5.46
13390,3.7
13402,1.6
13414,-0.5
13426,-2.33
13438,-3.75
13450,-4.82
13461,-5.85
13472,-7.23
13484,-9.26
13496,-12.06
13508,-15.47
13520,-19.14
13532,-22.64
13544,-25.52
13556,-27.38
13568,-27.88
13580,-26.77
13592,-23.95
13604,-19.56
13616,-13.96
13628,-7.69
13640,-1.35
13651,4.55
13662,9.6
13674,13.53
13686,16.25
13698,17.76
13710,18.21
13722,17.78
13734,16.74
13746,15.34
13758,13.81
13770,12.3
13782,10.95
13794,9.82
13806,9.0
13818,8.49
13830,8.28
13841,8.3
13852,8.44
13864,8.56
13876,8.48
13888,8.06
13900,7.19
13912,5.86
13924,4.19
13936,2.33
13948,0.42
13960,-1.51
13972,-3.59
13984,-6.02
13996,-9.0
14008,-12.6
14020,-16.72
14031,-21.08
14042,-25.23
14054,-28.62
14066,-30.71
14078,-31.03
14090,-29.35
14102,-25.68
14114,-20.34
14126,-13.87
14138,-6.92
14150,-0.13
14162,5.93
14174,10.87
14186,14.41
14198,16.5
14210,17.27
14221,17.0
14232,16.06
14244,14.81
14256,13.56
14268,12.51
14280,11.8
14292,11.47
14304,11.52
14316,11.81
14328,12.15
14340,12.36
14352,12.32
14364,12.0
14376,11.42
14388,10.61
14400,9.5
14411,7.94
14422,5.83
14434,3.18
14446,0.2
14458,-2.81
14470,-5.61
14482,-8.12
14494,-10.54
14506,-13.23
14518,-16.52
14530,-20.52
14542,-24.98
14554,-29.33
14566,-32.82
14578,-34.78
14590,-34.78
14601,-32.72
14612,-28.79
14624,-23.34
14636,-16.81
14648,-9.64
14660,-2.34
14672,4.54
14684,10.48
14696,15.04
14708,18.04
14720,19.59
14732,20.03
14744,19.76
14756,19.16
14768,18.43
14780,17.69
14791,16.95
14802,16.24
14814,15.61
14826,15.16
14838,14.99
14850,15.09
14862,15.38
14874,15.65
14886,15.67
14898,15.21
14910,14.14
14922,12.43
14934,10.17
14946,7.52
14958,4.65
14970,1.71
14981,-1.23
14992,-4.14
15004,-7.03
15016,-9.96
15028,-13.03
15040,-16.37
15052,-20.11
15064,-24.19
15076,-28.34
15088,-32.06
15100,-34.7
15112,-35.63
15124,-34.45
15136,-31.12
15148,-25.98
15160,-19.62
15171,-12.74
15182,-5.98
15194,0.19
15206,5.48
15218,9.67
15230,12.67
15242,14.42
15254,15.01
15266,14.64
15278,13.65
15290,12.41
15302,11.24
15314,10.29
15326,9.54
15338,8.89
15350,8.23
15361,7.53
15372,6.86
15384,6.31
15396,5.9
15408,5.54
15420,5.03
15432,4.17
15444,2.83
15456,0.98
15468,-1.33
15480,-3.98
15492,-6.83
15504,-9.74
15516,-12.56
15528,-15.18
15540,-17.58
15551,-19.84
15562,-22.19
15574,-24.88
15586,-28.02
15598,-31.47
15610,-34.82
15622,-37.44
15634,-38.7
15646,-38.13
15658,-35.57
15670,-31.14
15682,-25.19
15694,-18.19
15706,-10.59
15718,-2.78
15730,4.9
15741,12.15
15752,18.66
15764,24.14
15776,28.34
15788,31.2
15800,32.81
15812,33.46
15824,33.56
15836,33.48
15848,33.5
15860,33.7
15872,34.02
15884,34.32
15896,34.45
15908,34.33
15920,33.92
15931,33.28
15942,32.48
15954,31.62
15966,30.77
15978,29.86
15990,28.73
16002,27.13
16014,24.89
16026,21.97
16038,18.54
16050,14.9
16062,11.32
16074,7.93
16086,4.65
16098,1.29
16110,-2.35
16121,-6.42
16132,-10.9
16144,-15.64
16156,-20.4
16168,-24.81
16180,-28.44
16192,-30.85
16204,-31.65
16216,-30.61
16228,-27.75
16240,-23.32
16252,-17.77
16264,-11.63
16276,-5.48
16288,0.23
16300,5.14
16311,9.04
16322,11.85
16334,13.62
16346,14.52
16358,14.79
16370,14.73
16382,14.65
16394,14.82
16406,15.38
16418,16.35
16430,17.66
16442,19.09
16454,20.47
16466,21.69
16478,22.66
16490,23.38
16501,23.78
16512,23.72
16524,23.01
16536,21.52
16548,19.2
16560,16.2
16572,12.77
16584,9.2
16596,5.65
16608,2.1
16620,-1.58
16632,-5.53
16644,-9.74
16656,-14.05
16668,-18.15
16680,-21.72
16691,-24.49
16702,-26.32
16714,-27.1
16726,-26.74
16738,-25.16
16750,-22.38
16762,-18.54
16774,-13.95
16786,-9.04
16798,-4.28
16810,-0.1
16822,3.23
16834,5.51
16846,6.68
16858,6.79
16870,5.99
16881,4.51
16892,2.66
16904,0.75
16916,-0.93
16928,-2.11
16940,-2.66
16952,-2.53
16964,-1.8
16976,-0.78
16988,0.19
17000,0.76
17012,0.71
17024,-0.03
17036,-1.38
17048,-3.27
17060,-5.66
17071,-8.54
17082,-11.89
17094,-15.53
17106,-19.2
17118,-22.64
17130,-25.65
17142,-28.24
17154,-30.44
17166,-32.22
17178,-33.38
17190,-33.55
17202,-32.33
17214,-29.49
17226,-25.08
17238,-19.45
17250,-13.12
17261,-6.68
17272,-0.65
17284,4.58
17296,8.74
17308,11.76
17320,13.67
17332,14.64
17344,14.9
17356,14.68
17368,14.21
17380,13.64
17392,13.07
17404,12.63
17416,12.36
17428,12.26
17440,12.2
17451,11.95
17462,11.26
17474,9.97
17486,8.07
17498,5.75
17510,3.27
17522,0.93
17534,-1.13
17546,-2.87
17558,-4.4
17570,-5.85
17582,-7.4
17594,-9.2
17606,-11.41
17618,-14.09
17630,-17.2
17641,-20.46
17652,-23.34
17664,-25.13
17676,-25.16
17688,-22.98
17700,-18.64
17712,-12.61
17724,-5.7
17736,1.24
17748,7.51
17760,12.71
17772,16.72
17784,19.6
17796,21.45
17808,22.35
17820,22.35
17831,21.56
17842,20.21
17854,18.62
17866,17.18
17878,16.17
17890,15.69
17902,15.6
17914,15.58
17926,15.31
17938,14.55
17950,13.31
17962,11.72
17974,10.0
17986,8.26
17998,6.51
18010,4.63
18021,2.5
18032,0.01
18044,-2.92
18056,-6.31
18068,-10.21
18080,-14.58
18092,-19.25
18104,-23.81
18116,-27.65
18128,-30.01
18140,-30.25
18152,-27.97
18164,-23.21
18176,-16.46
18188,-8.5
18200,-0.29
18211,7.34
18222,13.83
18234,18.9
18246,22.51
18258,24.79
18270,25.89
18282,25.99
18294,25.29
18306,24.03
18318,22.51
18330,21.0
18342,19.69
18354,18.64
18366,17.79
18378,17.01
18390,16.21
18401,15.38
18412,14.52
18424,13.65
18436,12.77
18448,11.81
18460,10.7
18472,9.31
18484,7.55
18496,5.26
18508,2.27
18520,-1.57
18532,-6.28
18544,-11.65
18556,-17.12
18568,-21.9
18580,-25.1
18591,-26.02
18602,-24.38
18614,-20.43
18626,-14.78
18638,-8.26
18650,-1.64
18662,4.52
18674,9.88
18686,14.23
18698,17.39
18710,19.19
18722,19.51
18734,18.45
18746,16.36
18758,13.78
18770,11.27
18781,9.18
18792,7.59
18804,6.29
18816,5.03
18828,3.59
18840,1.96
18852,0.23
18864,-1.44
18876,-2.96
18888,-4.34
18900,-5.73
18912,-7.33
18924,-9.35
18936,-11.94
18948,-15.15
18960,-18.94
18971,-23.16
18982,-27.59
18994,-31.91
19006,-35.72
19018,-38.53
19030,-39.82
19042,-39.11
19054,-36.17
19066,-31.04
19078,-24.11
19090,-16.06
19102,-7.64
19114,0.41
19126,7.5
19138,13.22
19150,17.37
19161,19.9
19172,20.93
19184,20.68
19196,19.48
19208,17.67
19220,15.64
19232,13.71
19244,12.13
19256,11.01
19268,10.29
19280,9.72
19292,9.01
19304,7.89
19316,6.3
19328,4.37
19340,2.36
19351,0.47
19362,-1.31
19374,-3.22
19386,-5.63
19398,-8.91
19410,-13.22
19422,-18.46
19434,-24.22
19446,-29.91
19458,-34.82
19470,-38.21
19482,-39.42
19494,-38.01
19506,-33.87
19518,-27.31
19530,-19.0
19541,-9.84
19552,-0.72
19564,7.67
19576,14.93
19588,20.91
19600,25.57
19612,28.91
19624,30.91
19636,31.58
19648,31.06
19660,29.6
19672,27.57
19684,25.34
19696,23.19
19708,21.25
19720,19.55
19731,18.05
19742,16.69
19754,15.41
19766,14.09
19778,12.6
19790,10.73
19802,8.32
19814,5.23
19826,1.49
19838,-2.77
19850,-7.31
19862,-11.92
19874,-16.47
19886,-21.04
19898,-25.85
19910,-31.16
19921,-37.02
19932,-43.1
19944,-48.63
19956,-52.55
19968,-53.81
19980,-51.7
19992,-46.12
20004,-37.59
20016,-27.02
20028,-15.52
20040,-4.07
20052,6.57
20064,15.88
20076,23.56
20088,29.45
20100,33.55
20111,36.03
20122,37.19
20134,37.45
20146,37.24
20158,36.87
20170,36.52
20182,36.17
20194,35.72
20206,35.05
20218,34.11
20230,32.96
20242,31.69
20254,30.35
20266,28.87
20278,27.07
20290,24.69
20301,21.56
20312,17.63
20324,13.1
20336,8.24
20348,3.35
20360,-1.37
20372,-5.87
20384,-10.19
20396,-14.42
20408,-18.63
20420,-22.96
20432,-27.62
20444,-32.88
20456,-38.92
20468,-45.65
20480,-52.59
20491,-58.9
20502,-63.52
20514,-65.5
20526,-64.2
20538,-59.49
20550,-51.74
20562,-41.7
20574,-30.29
20586,-18.47
20598,-7.01
20610,3.53
20622,12.81
20634,20.68
20646,27.12
20658,32.15
20670,35.87
20681,38.44
20692,40.1
20704,41.08
20716,41.62
20728,41.86
20740,41.89
20752,41.77
20764,41.56
20776,41.34
20788,41.15
20800,40.93
20812,40.58
20824,39.96
20836,38.95
20848,37.49
20860,35.57
20871,33.26
20882,30.63
20894,27.78
20906,24.84
20918,21.98
20930,19.29
20942,16.79
20954,14.38
20966,11.85
20978,8.99
20990,5.71
