seconds,BVP
4,-12.15
16,-12.14
28,-11.63
40,-10.49
52,-8.67
64,-6.25
76,-3.4
88,-0.4
100,2.57
112,5.37
124,8.04
135,10.67
146,13.32
158,16.02
170,18.66
182,21.11
194,23.23
206,24.9
218,26.12
230,26.9
242,27.33
254,27.5
266,27.5
278,27.39
290,27.21
302,26.98
314,26.66
325,26.18
336,25.5
348,24.63
360,23.67
372,22.8
384,22.13
396,21.74
408,21.57
420,21.52
432,21.54
444,21.66
456,22.09
468,23.16
480,25.24
492,28.59
504,33.35
515,39.47
526,46.73
538,54.81
550,63.3
562,71.8
574,80.0
586,87.73
598,94.93
610,101.68
622,108.08
634,114.09
646,119.66
658,124.68
670,129.07
682,132.82
694,136.06
705,138.86
716,141.23
728,143.19
740,144.72
752,145.95
764,146.87
776,147.2
788,146.09
800,142.27
812,134.3
824,121.07
836,102.17
848,77.94
860,49.41
872,18.0
884,-14.54
895,-46.24
906,-75.03
918,-98.94
930,-116.49
942,-127.12
954,-131.31
966,-130.28
978,-125.63
990,-118.82
1002,-110.89
1014,-102.63
1026,-94.64
1038,-87.34
1050,-81.05
1062,-75.88
1074,-71.64
1085,-67.91
1096,-64.19
1108,-60.0
1120,-55.01
1132,-49.14
1144,-42.64
1156,-36.14
1168,-30.59
1180,-27.0
1192,-26.06
1204,-27.89
1216,-31.89
1228,-36.96
1240,-41.93
1252,-45.95
1264,-48.7
1275,-50.25
1286,-50.88
1298,-50.81
1310,-50.17
1322,-48.98
1334,-47.31
1346,-45.35
1358,-43.24
1370,-41.07
1382,-38.85
1394,-36.57
1406,-34.41
1418,-32.69
1430,-31.74
1442,-31.83
1454,-32.9
1465,-34.63
1476,-36.54
1488,-38.18
1500,-39.28
1512,-39.81
1524,-39.87
1536,-39.54
1548,-38.86
1560,-37.8
1572,-36.28
1584,-34.27
1596,-31.71
1608,-28.56
1620,-24.84
1632,-20.6
1644,-16.06
1655,-11.57
1666,-7.61
1678,-4.64
1690,-3.04
1702,-2.98
1714,-4.38
1726,-6.99
1738,-10.43
1750,-14.28
1762,-18.13
1774,-21.62
1786,-24.43
1798,-26.34
1810,-27.27
1822,-27.26
1834,-26.46
1845,-25.1
1856,-23.39
1868,-21.46
1880,-19.31
1892,-16.89
1904,-14.17
1916,-11.2
1928,-8.1
1940,-5.06
1952,-2.21
1964,0.4
1976,2.74
1988,4.76
2000,6.2
2012,6.71
2024,5.94
2035,3.82
2046,0.58
2058,-3.29
2070,-7.27
2082,-11.11
2094,-14.89
2106,-18.9
2118,-23.35
2130,-28.17
2142,-32.99
2154,-37.43
2166,-41.29
2178,-44.84
2190,-48.67
2202,-53.39
2214,-59.27
2225,-66.02
2236,-72.79
2248,-78.53
2260,-82.39
2272,-83.98
2284,-83.4
2296,-81.15
2308,-77.85
2320,-74.08
2332,-70.11
2344,-66.17
2356,-62.34
2368,-58.74
2380,-55.46
2392,-52.52
2404,-49.99
2415,-47.9
2426,-46.34
2438,-45.37
2450,-44.91
2462,-44.55
2474,-43.49
2486,-40.63
2498,-34.99
2510,-26.1
2522,-14.31
2534,-0.75
2546,13.0
2558,25.29
2570,34.88
2582,41.13
2594,44.04
2605,44.0
2616,41.69
2628,37.9
2640,33.41
2652,28.99
2664,25.22
2676,22.48
2688,20.71
2700,19.57
2712,18.5
2724,16.99
2736,14.83
2748,12.02
2760,8.84
2772,5.59
2784,2.47
2795,-0.44
2806,-3.15
2818,-5.62
2830,-7.71
2842,-9.23
2854,-10.11
2866,-10.4
2878,-10.26
2890,-9.87
2902,-9.31
2914,-8.54
2926,-7.39
2938,-5.69
2950,-3.39
2962,-0.58
2974,2.53
2985,5.66
2996,8.54
3008,10.93
3020,12.73
3032,13.97
3044,14.76
3056,15.25
3068,15.45
3080,15.33
3092,14.76
3104,13.7
3116,12.29
3128,10.94
3140,10.1
3152,10.11
3164,11.0
3175,12.4
3186,13.77
3198,14.62
3210,14.76
3222,14.32
3234,13.65
3246,13.1
3258,12.83
3270,12.82
3282,12.86
3294,12.79
3306,12.55
3318,12.19
3330,11.76
3342,11.19
3354,10.32
3365,9.03
3376,7.47
3388,5.97
3400,5.11
3412,5.33
3424,6.84
3436,9.41
3448,12.53
3460,15.65
3472,18.28
3484,20.29
3496,21.66
3508,22.49
3520,22.76
3532,22.36
3544,21.13
3555,18.98
3566,16.06
3578,12.69
3590,9.39
3602,6.63
3614,4.69
3626,3.6
3638,3.19
3650,3.15
3662,3.24
3674,3.31
3686,3.3
3698,3.16
3710,2.75
3722,1.91
3734,0.51
3745,-1.43
3756,-3.73
3768,-6.09
3780,-8.23
3792,-9.94
3804,-11.17
3816,-11.99
3828,-12.51
3840,-12.69
3852,-12.45
3864,-11.63
3876,-10.07
3888,-7.74
3900,-4.75
3912,-1.35
3924,2.14
3935,5.35
3946,7.99
3958,9.81
3970,10.68
3982,10.73
3994,10.24
4006,9.69
4018,9.54
4030,10.05
4042,11.16
4054,12.51
4066,13.65
4078,14.23
4090,14.17
4102,13.7
4114,13.18
4125,12.92
4136,12.99
4148,13.22
4160,13.32
4172,13.07
4184,12.28
4196,10.9
4208,8.99
4220,6.59
4232,3.84
4244,0.94
4256,-1.82
4268,-4.19
4280,-5.97
4292,-7.2
4304,-8.14
4315,-9.23
4326,-10.76
4338,-12.73
4350,-14.77
4362,-16.23
4374,-16.5
4386,-15.21
4398,-12.42
4410,-8.56
4422,-4.28
4434,-0.19
4446,3.38
4458,6.27
4470,8.52
4482,10.18
4494,11.29
4505,11.83
4516,11.84
4528,11.38
4540,10.6
4552,9.74
4564,9.0
4576,8.54
4588,8.39
4600,8.41
4612,8.34
4624,7.91
4636,7.0
4648,5.69
4660,4.28
4672,3.16
4684,2.58
4695,2.5
4706,2.67
4718,2.71
4730,2.35
4742,1.53
4754,0.38
4766,-0.86
4778,-2.05
4790,-3.21
4802,-4.45
4814,-5.88
4826,-7.55
4838,-9.36
4850,-11.15
4862,-12.77
4874,-14.0
4885,-14.57
4896,-14.21
4908,-12.7
4920,-9.99
4932,-6.35
4944,-2.25
4956,1.69
4968,4.92
4980,7.14
4992,8.39
5004,8.86
5016,8.77
5028,8.25
5040,7.24
5052,5.7
5064,3.72
5075,1.65
5086,0.06
5098,-0.45
5110,0.46
5122,2.79
5134,6.04
5146,9.44
5158,12.23
5170,13.91
5182,14.4
5194,14.02
5206,13.18
5218,12.2
5230,11.15
5242,9.84
5254,8.06
5265,5.73
5276,3.06
5288,0.44
5300,-1.72
5312,-3.18
5324,-3.99
5336,-4.35
5348,-4.56
5360,-4.88
5372,-5.39
5384,-6.03
5396,-6.74
5408,-7.36
5420,-7.67
5432,-7.4
5444,-6.22
5455,-3.94
5466,-0.67
5478,3.17
5490,6.83
5502,9.6
5514,11.01
5526,11.03
5538,10.03
5550,8.54
5562,6.98
5574,5.53
5586,4.18
5598,2.92
5610,1.88
5622,1.3
5634,1.4
5645,2.13
5656,3.29
5668,4.51
5680,5.46
5692,6.07
5704,6.39
5716,6.56
5728,6.68
5740,6.72
5752,6.59
5764,6.27
5776,5.69
5788,4.87
5800,3.8
5812,2.54
5824,1.17
5835,-0.15
5846,-1.31
5858,-2.32
5870,-3.35
5882,-4.65
5894,-6.44
5906,-8.72
5918,-11.22
5930,-13.51
5942,-15.03
5954,-15.32
5966,-14.15
5978,-11.52
5990,-7.7
6002,-3.19
6014,1.4
6025,5.48
6036,8.62
6048,10.69
6060,11.75
6072,11.98
6084,11.66
6096,11.02
6108,10.25
6120,9.51
6132,8.93
6144,8.56
6156,8.3
6168,8.05
6180,7.65
6192,7.09
6204,6.44
6215,5.85
6226,5.42
6238,5.15
6250,4.88
6262,4.36
6274,3.43
6286,2.08
6298,0.46
6310,-1.24
6322,-2.82
6334,-4.25
6346,-5.6
6358,-7.01
6370,-8.63
6382,-10.45
6394,-12.32
6405,-13.99
6416,-15.17
6428,-15.59
6440,-15.09
6452,-13.58
6464,-11.07
6476,-7.74
6488,-3.88
6500,0.06
6512,3.62
6524,6.41
6536,8.24
6548,9.19
6560,9.54
6572,9.59
6584,9.58
6595,9.54
6606,9.32
6618,8.81
6630,8.02
6642,7.04
6654,6.14
6666,5.46
6678,5.03
6690,4.78
6702,4.63
6714,4.48
6726,4.25
6738,3.9
6750,3.33
6762,2.49
6774,1.38
6785,0.07
6796,-1.33
6808,-2.69
6820,-3.92
6832,-5.03
6844,-6.04
6856,-6.99
6868,-7.91
6880,-8.84
6892,-9.79
6904,-10.66
6916,-11.29
6928,-11.33
6940,-10.43
6952,-8.42
6964,-5.31
6975,-1.47
6986,2.5
6998,6.04
7010,8.74
7022,10.5
7034,11.52
7046,12.1
7058,12.54
7070,12.98
7082,13.35
7094,13.47
7106,13.12
7118,12.22
7130,10.83
7142,9.19
7154,7.58
7165,6.26
7176,5.37
7188,4.79
7200,4.26
7212,3.47
7224,2.18
7236,0.36
7248,-1.8
7260,-3.9
7272,-5.58
7284,-6.62
7296,-7.11
7308,-7.33
7320,-7.68
7332,-8.51
7344,-9.92
7355,-11.84
7366,-13.96
7378,-15.99
7390,-17.61
7402,-18.56
7414,-18.65
7426,-17.67
7438,-15.6
7450,-12.53
7462,-8.76
7474,-4.67
7486,-0.68
7498,2.89
7510,5.85
7522,8.2
7534,10.05
7545,11.57
7556,12.93
7568,14.28
7580,15.74
7592,17.44
7604,19.42
7616,21.71
7628,24.22
7640,26.86
7652,29.53
7664,32.18
7676,34.71
7688,36.94
7700,38.6
7712,39.35
7724,39.03
7735,37.6
7746,35.26
7758,32.24
7770,28.78
7782,24.98
7794,20.88
7806,16.48
7818,11.82
7830,6.92
7842,1.62
7854,-4.43
7866,-11.7
7878,-20.48
7890,-30.62
7902,-41.47
7914,-52.03
7925,-61.27
7936,-68.49
7948,-73.49
7960,-76.53
7972,-78.16
7984,-78.89
7996,-79.03
8008,-78.5
8020,-76.95
8032,-73.89
8044,-68.99
8056,-62.26
8068,-54.11
8080,-45.15
8092,-36.04
8104,-27.15
8115,-18.65
8126,-10.53
8138,-2.88
8150,4.04
8162,9.83
8174,14.19
8186,17.1
8198,18.86
8210,19.92
8222,20.7
8234,21.34
8246,21.77
8258,21.88
8270,21.61
8282,21.13
8294,20.6
8305,20.11
8316,19.56
8328,18.68
8340,17.19
8352,14.98
8364,12.15
8376,9.03
8388,6.01
8400,3.4
8412,1.4
8424,0.13
8436,-0.36
8448,0.06
8460,1.44
8472,3.75
8484,6.79
8495,10.21
8506,13.6
8518,16.54
8530,18.82
8542,20.39
8554,21.34
8566,21.78
8578,21.88
8590,21.62
8602,21.08
8614,20.28
8626,19.32
8638,18.39
8650,17.61
8662,17.06
8674,16.67
8685,16.3
8696,15.8
8708,15.08
8720,14.15
8732,13.1
8744,12.08
8756,11.15
8768,10.27
8780,9.31
8792,8.17
8804,6.8
8816,5.27
8828,3.69
8840,2.1
8852,0.46
8864,-1.34
8875,-3.43
8886,-5.75
8898,-8.12
8910,-10.26
8922,-11.74
8934,-12.25
8946,-11.62
8958,-9.9
8970,-7.31
8982,-4.2
8994,-0.87
9006,2.41
9018,5.49
9030,8.28
9042,10.72
9054,12.69
9065,14.0
9076,14.54
9088,14.37
9100,13.7
9112,12.8
9124,11.95
9136,11.27
9148,10.78
9160,10.42
9172,10.11
9184,9.79
9196,9.45
9208,9.11
9220,8.8
9232,8.5
9244,8.15
9255,7.67
9266,6.87
9278,5.67
9290,3.99
9302,1.94
9314,-0.35
9326,-2.63
9338,-4.73
9350,-6.57
9362,-8.21
9374,-9.78
9386,-11.32
9398,-12.86
9410,-14.27
9422,-15.48
9434,-16.27
9445,-16.5
9456,-15.93
9468,-14.47
9480,-12.06
9492,-8.84
9504,-5.2
9516,-1.55
9528,1.61
9540,4.06
9552,5.86
9564,7.32
9576,8.82
9588,10.62
9600,12.73
9612,14.9
9624,16.85
9635,18.38
9646,19.48
9658,20.27
9670,20.88
9682,21.3
9694,21.4
9706,21.02
9718,20.1
9730,18.72
9742,17.06
9754,15.3
9766,13.48
9778,11.47
9790,9.18
9802,6.54
9814,3.7
9825,0.9
9836,-1.55
9848,-3.5
9860,-4.99
9872,-6.26
9884,-7.65
9896,-9.38
9908,-11.42
9920,-13.52
9932,-15.19
9944,-15.93
9956,-15.43
9968,-13.58
9980,-10.58
9992,-6.89
10004,-3.03
10015,0.48
10026,3.22
10038,5.03
10050,5.9
10062,5.99
10074,5.54
10086,4.77
10098,3.86
10110,2.89
10122,1.89
10134,0.94
10146,0.17
10158,-0.21
10170,0.0
10182,0.87
10194,2.26
10205,3.86
10216,5.3
10228,6.34
10240,6.9
10252,7.02
10264,6.75
10276,6.11
10288,5.06
10300,3.56
10312,1.69
10324,-0.34
10336,-2.35
10348,-4.3
10360,-6.28
10372,-8.5
10384,-11.05
10395,-13.83
10406,-16.54
10418,-18.76
10430,-20.11
10442,-20.36
10454,-19.4
10466,-17.19
10478,-13.86
10490,-9.66
10502,-5.0
10514,-0.52
10526,3.24
10538,5.89
10550,7.35
10562,7.83
10574,7.68
10585,7.13
10596,6.24
10608,4.95
10620,3.19
10632,1.03
10644,-1.28
10656,-3.39
10668,-4.99
10680,-5.95
10692,-6.35
10704,-6.4
10716,-6.32
10728,-6.21
10740,-6.05
10752,-5.72
10764,-5.12
10775,-4.27
10786,-3.31
10798,-2.46
10810,-1.94
10822,-1.95
10834,-2.47
10846,-3.42
10858,-4.6
10870,-5.83
10882,-6.91
10894,-7.7
10906,-8.02
10918,-7.72
10930,-6.72
10942,-5.01
10954,-2.69
10965,0.0
10976,2.78
10988,5.36
11000,7.57
11012,9.32
11024,10.64
11036,11.58
11048,12.17
11060,12.42
11072,12.31
11084,11.88
11096,11.16
11108,10.32
11120,9.52
11132,8.85
11144,8.36
11155,8.01
11166,7.63
11178,7.1
11190,6.31
11202,5.17
11214,3.68
11226,1.9
11238,-0.1
11250,-2.26
11262,-4.5
11274,-6.79
11286,-9.06
11298,-11.27
11310,-13.38
11322,-15.34
11334,-17.07
11345,-18.54
11356,-19.73
11368,-20.55
11380,-20.87
11392,-20.43
11404,-18.97
11416,-16.31
11428,-12.52
11440,-7.9
11452,-3.07
11464,1.4
11476,5.02
11488,7.62
11500,9.33
11512,10.39
11524,11.05
11535,11.36
11546,11.32
11558,10.86
11570,10.03
11582,9.0
11594,7.99
11606,7.24
11618,6.83
11630,6.74
11642,6.84
11654,6.92
11666,6.78
11678,6.33
11690,5.55
11702,4.47
11714,3.26
11725,2.02
11736,0.78
11748,-0.54
11760,-2.12
11772,-4.04
11784,-6.23
11796,-8.37
11808,-10.07
11820,-11.11
11832,-11.54
11844,-11.67
11856,-11.87
11868,-12.32
11880,-12.78
11892,-12.74
11904,-11.66
11915,-9.26
11926,-5.74
11938,-1.67
11950,2.28
11962,5.57
11974,7.98
11986,9.63
11998,10.76
12010,11.52
12022,11.95
12034,11.97
12046,11.52
12058,10.71
12070,9.77
12082,8.98
12094,8.56
12105,8.48
12116,8.52
12128,8.43
12140,8.02
12152,7.32
12164,6.47
12176,5.63
12188,4.83
12200,3.99
12212,2.97
12224,1.74
12236,0.3
12248,-1.23
12260,-2.74
12272,-4.19
12284,-5.6
12295,-6.97
12306,-8.32
12318,-9.63
12330,-10.78
12342,-11.7
12354,-12.2
12366,-12.04
12378,-10.94
12390,-8.77
12402,-5.64
12414,-1.96
12426,1.68
12438,4.73
12450,6.83
12462,7.97
12474,8.42
12485,8.55
12496,8.62
12508,8.77
12520,8.92
12532,8.96
12544,8.85
12556,8.63
12568,8.44
12580,8.43
12592,8.67
12604,9.1
12616,9.56
12628,9.74
12640,9.41
12652,8.44
12664,6.8
12675,4.63
12686,2.16
12698,-0.37
12710,-2.77
12722,-4.87
12734,-6.63
12746,-8.08
12758,-9.28
12770,-10.37
12782,-11.49
12794,-12.71
12806,-13.99
12818,-15.16
12830,-15.88
12842,-15.78
12854,-14.62
12865,-12.33
12876,-9.21
12888,-5.72
12900,-2.37
12912,0.45
12924,2.56
12936,4.01
12948,4.96
12960,5.53
12972,5.8
12984,5.78
12996,5.54
13008,5.17
13020,4.81
13032,4.54
13044,4.43
13055,4.44
13066,4.49
13078,4.6
13090,4.79
13102,5.07
13114,5.37
13126,5.54
13138,5.34
13150,4.63
13162,3.33
13174,1.57
13186,-0.44
13198,-2.44
13210,-4.25
13222,-5.79
13234,-7.11
13245,-8.29
13256,-9.44
13268,-10.54
13280,-11.4
13292,-11.72
13304,-11.19
13316,-9.65
13328,-7.09
13340,-3.79
13352,-0.19
13364,3.24
13376,6.13
13388,8.28
13400,9.7
13412,10.5
13424,10.84
13435,10.8
13446,10.39
13458,9.63
13470,8.57
13482,7.32
13494,6.1
13506,5.1
13518,4.38
13530,3.85
13542,3.29
13554,2.51
13566,1.46
13578,0.31
13590,-0.67
13602,-1.23
13614,-1.32
13625,-1.05
13636,-0.74
13648,-0.71
13660,-1.21
13672,-2.3
13684,-3.94
13696,-5.96
13708,-8.18
13720,-10.4
13732,-12.34
13744,-13.71
13756,-14.23
13768,-13.68
13780,-11.97
13792,-9.28
13804,-5.89
13815,-2.19
13826,1.39
13838,4.62
13850,7.38
13862,9.63
13874,11.41
13886,12.77
13898,13.7
13910,14.24
13922,14.44
13934,14.35
13946,14.07
13958,13.7
13970,13.26
13982,12.78
13994,12.2
14005,11.49
14016,10.69
14028,9.81
14040,8.89
14052,7.93
14064,6.85
14076,5.52
14088,3.93
14100,2.1
14112,0.18
14124,-1.62
14136,-3.12
14148,-4.26
14160,-5.15
14172,-6.02
14184,-7.22
14195,-8.92
14206,-11.1
14218,-13.39
14230,-15.16
14242,-15.76
14254,-14.74
14266,-12.1
14278,-8.22
14290,-3.83
14302,0.37
14314,3.86
14326,6.47
14338,8.34
14350,9.72
14362,10.93
14374,12.16
14385,13.49
14396,14.8
14408,15.9
14420,16.51
14432,16.48
14444,15.86
14456,14.89
14468,13.9
14480,13.11
14492,12.62
14504,12.28
14516,11.91
14528,11.36
14540,10.6
14552,9.71
14564,8.73
14575,7.67
14586,6.44
14598,4.94
14610,3.21
14622,1.31
14634,-0.59
14646,-2.36
14658,-3.99
14670,-5.54
14682,-7.04
14694,-8.61
14706,-10.21
14718,-11.78
14730,-13.25
14742,-14.57
14754,-15.72
14765,-16.71
14776,-17.55
14788,-18.15
14800,-18.4
14812,-18.02
14824,-16.84
14836,-14.73
14848,-11.69
14860,-7.9
14872,-3.61
14884,0.82
14896,5.02
14908,8.67
14920,11.56
14932,13.58
14944,14.79
14955,15.38
14966,15.59
14978,15.65
14990,15.69
15002,15.74
15014,15.7
15026,15.51
15038,15.17
15050,14.78
15062,14.49
15074,14.35
15086,14.31
15098,14.15
15110,13.64
15122,12.62
15134,11.1
15145,9.29
15156,7.41
15168,5.68
15180,4.15
15192,2.78
15204,1.43
15216,-0.02
15228,-1.62
15240,-3.4
15252,-5.34
15264,-7.37
15276,-9.37
15288,-11.19
15300,-12.74
15312,-14.01
15324,-15.08
15335,-16.05
15346,-17.0
15358,-18.0
15370,-19.03
15382,-19.99
15394,-20.75
15406,-21.09
15418,-20.71
15430,-19.38
15442,-16.98
15454,-13.62
15466,-9.66
15478,-5.6
15490,-1.91
15502,1.13
15514,3.49
15525,5.34
15536,6.97
15548,8.55
15560,10.15
15572,11.64
15584,12.8
15596,13.38
15608,13.29
15620,12.57
15632,11.47
15644,10.26
15656,9.15
15668,8.19
15680,7.28
15692,6.28
15704,5.1
15715,3.81
15726,2.61
15738,1.73
15750,1.28
15762,1.23
15774,1.39
15786,1.42
15798,1.1
15810,0.26
15822,-1.11
15834,-2.83
15846,-4.68
15858,-6.39
15870,-7.77
15882,-8.74
15894,-9.41
15905,-9.98
15916,-10.69
15928,-11.75
15940,-13.2
15952,-14.89
15964,-16.55
15976,-17.75
15988,-18.05
16000,-17.15
16012,-14.96
16024,-11.68
16036,-7.72
16048,-3.6
16060,0.2
16072,3.41
16084,5.98
16095,8.04
16106,9.77
16118,11.28
16130,12.59
16142,13.6
16154,14.16
16166,14.21
16178,13.74
16190,12.96
16202,12.06
16214,11.3
16226,10.81
16238,10.6
16250,10.56
16262,10.47
16274,10.12
16285,9.39
16296,8.31
16308,7.01
16320,5.65
16332,4.37
16344,3.18
16356,2.01
16368,0.77
16380,-0.57
16392,-2.01
16404,-3.45
16416,-4.76
16428,-5.92
16440,-6.93
16452,-7.9
16464,-8.97
16475,-10.22
16486,-11.64
16498,-13.17
16510,-14.62
16522,-15.72
16534,-16.29
16546,-16.16
16558,-15.25
16570,-13.64
16582,-11.46
16594,-8.86
16606,-6.08
16618,-3.31
16630,-0.71
16642,1.55
16654,3.42
16665,4.93
16676,6.12
16688,7.07
16700,7.75
16712,8.07
16724,8.0
16736,7.58
16748,6.98
16760,6.47
16772,6.31
16784,6.6
16796,7.24
16808,7.96
16820,8.39
16832,8.34
16844,7.76
16855,6.73
16866,5.42
16878,4.0
16890,2.49
16902,0.93
16914,-0.67
16926,-2.3
16938,-3.88
16950,-5.39
16962,-6.84
16974,-8.26
16986,-9.65
16998,-11.02
17010,-12.28
17022,-13.39
17034,-14.36
17045,-15.27
17056,-16.2
17068,-17.12
17080,-17.87
17092,-18.12
17104,-17.52
17116,-15.8
17128,-12.95
17140,-9.33
17152,-5.39
17164,-1.73
17176,1.29
17188,3.58
17200,5.24
17212,6.49
17224,7.53
17235,8.4
17246,9.0
17258,9.24
17270,9.11
17282,8.74
17294,8.4
17306,8.28
17318,8.42
17330,8.77
17342,9.12
17354,9.33
17366,9.32
17378,9.1
17390,8.7
17402,8.11
17414,7.25
17425,6.01
17436,4.3
17448,2.19
17460,-0.14
17472,-2.44
17484,-4.45
17496,-6.04
17508,-7.18
17520,-7.99
17532,-8.6
17544,-9.13
17556,-9.65
17568,-10.25
17580,-10.98
17592,-11.87
17604,-12.92
17615,-13.92
17626,-14.52
17638,-14.28
17650,-12.87
17662,-10.28
17674,-6.78
17686,-2.84
17698,0.98
17710,4.23
17722,6.68
17734,8.28
17746,9.13
17758,9.39
17770,9.26
17782,8.89
17794,8.44
17805,7.97
17816,7.48
17828,6.99
17840,6.53
17852,6.08
17864,5.66
17876,5.25
17888,4.76
17900,4.18
17912,3.5
17924,2.79
17936,2.09
17948,1.42
17960,0.66
17972,-0.29
17984,-1.48
17995,-2.89
18006,-4.39
18018,-5.87
18030,-7.24
18042,-8.49
18054,-9.66
18066,-10.83
18078,-11.98
18090,-13.15
18102,-14.35
18114,-15.52
18126,-16.51
18138,-17.06
18150,-16.83
18162,-15.62
18174,-13.45
18185,-10.59
18196,-7.46
18208,-4.45
18220,-1.78
18232,0.48
18244,2.32
18256,3.78
18268,4.81
18280,5.4
18292,5.6
18304,5.51
18316,5.31
18328,5.11
18340,4.95
18352,4.78
18364,4.64
18375,4.53
18386,4.59
18398,4.87
18410,5.29
18422,5.68
18434,5.81
18446,5.48
18458,4.6
18470,3.27
18482,1.6
18494,-0.21
18506,-2.01
18518,-3.69
18530,-5.15
18542,-6.35
18554,-7.32
18565,-8.15
18576,-8.98
18588,-9.99
18600,-11.27
18612,-12.81
18624,-14.43
18636,-15.71
18648,-16.16
18660,-15.32
18672,-12.98
18684,-9.35
18696,-4.98
18708,-0.62
18720,3.05
18732,5.61
18744,7.09
18755,7.79
18766,8.06
18778,8.18
18790,8.16
18802,7.89
18814,7.26
18826,6.35
18838,5.37
18850,4.63
18862,4.32
18874,4.41
18886,4.67
18898,4.79
18910,4.55
18922,3.97
18934,3.24
18945,2.58
18956,2.03
18968,1.48
18980,0.66
18992,-0.61
19004,-2.32
19016,-4.29
19028,-6.19
19040,-7.8
19052,-9.06
19064,-10.14
19076,-11.35
19088,-12.92
19100,-14.98
19112,-17.43
19124,-19.98
19135,-22.27
19146,-24.01
19158,-25.0
19170,-25.11
19182,-24.36
19194,-22.77
19206,-20.44
19218,-17.56
19230,-14.36
19242,-11.18
19254,-8.33
19266,-6.06
19278,-4.41
19290,-3.33
19302,-2.65
19314,-2.31
19325,-2.2
19336,-2.32
19348,-2.63
19360,-2.99
19372,-3.19
19384,-2.98
19396,-2.25
19408,-0.99
19420,0.59
19432,2.36
19444,4.21
19456,6.14
19468,8.33
19480,10.84
19492,13.59
19504,16.19
19515,18.13
19526,18.85
19538,18.12
19550,16.09
19562,13.25
19574,10.28
19586,7.76
19598,5.88
19610,4.49
19622,3.22
19634,1.77
19646,0.04
19658,-1.84
19670,-3.63
19682,-5.05
19694,-5.98
19705,-6.26
19716,-5.74
19728,-4.31
19740,-1.98
19752,1.05
19764,4.36
19776,7.41
19788,9.81
19800,11.33
19812,12.05
19824,12.25
19836,12.2
19848,12.08
19860,12.0
19872,11.96
19884,11.91
19895,11.88
19906,11.85
19918,11.84
19930,11.84
19942,11.79
19954,11.62
19966,11.27
19978,10.73
19990,9.97
20002,9.02
20014,7.84
20026,6.41
20038,4.71
20050,2.76
20062,0.65
20074,-1.46
20085,-3.36
20096,-4.93
20108,-6.07
20120,-6.88
20132,-7.6
20144,-8.42
20156,-9.49
20168,-10.86
20180,-12.34
20192,-13.75
20204,-14.79
20216,-15.13
20228,-14.56
20240,-13.0
20252,-10.53
20264,-7.44
20275,-4.14
20286,-1.01
20298,1.61
20310,3.55
20322,4.91
20334,5.84
20346,6.53
20358,7.11
20370,7.55
20382,7.8
20394,7.84
20406,7.66
20418,7.39
20430,7.13
20442,6.95
20454,6.84
20465,6.67
20476,6.33
20488,5.76
20500,5.11
20512,4.51
20524,4.12
20536,3.93
20548,3.77
20560,3.43
20572,2.68
20584,1.45
20596,-0.17
20608,-1.96
20620,-3.65
20632,-5.07
20644,-6.09
20655,-6.77
20666,-7.17
20678,-7.41
20690,-7.64
20702,-7.97
20714,-8.51
20726,-9.27
20738,-10.08
20750,-10.66
20762,-10.66
20774,-9.81
20786,-8.03
20798,-5.41
20810,-2.31
20822,0.86
20834,3.73
20845,6.05
20856,7.78
20868,8.91
20880,9.57
20892,9.84
20904,9.79
20916,9.54
20928,9.15
20940,8.7
20952,8.28
20964,7.91
20976,7.58
20988,7.25
