seconds,BVP
8,-23.27
20,-24.45
32,-24.14
44,-22.08
56,-18.31
68,-13.21
80,-7.37
92,-1.5
104,3.78
116,8.03
128,11.05
140,12.83
152,13.48
164,13.2
175,12.2
186,10.76
198,9.22
210,7.91
222,7.06
234,6.81
246,7.1
258,7.81
270,8.8
282,9.88
294,10.91
306,11.71
318,12.1
330,11.97
342,11.27
354,10.12
365,8.67
376,7.09
388,5.46
400,3.8
412,2.08
424,0.34
436,-1.34
448,-2.87
460,-4.2
472,-5.35
484,-6.44
496,-7.59
508,-8.92
520,-10.54
532,-12.49
544,-14.82
555,-17.44
566,-20.17
578,-22.65
590,-24.42
602,-24.98
614,-24.01
626,-21.45
638,-17.54
650,-12.73
662,-7.55
674,-2.46
686,2.19
698,6.16
710,9.29
722,11.41
734,12.46
745,12.48
756,11.68
768,10.39
780,8.99
792,7.8
804,7.01
816,6.74
828,7.02
840,7.82
852,9.03
864,10.44
876,11.75
888,12.67
900,13.01
912,12.77
924,12.06
935,11.13
946,10.12
958,9.1
970,8.04
982,6.87
994,5.55
1006,4.1
1018,2.54
1030,0.9
1042,-0.82
1054,-2.63
1066,-4.52
1078,-6.48
1090,-8.41
1102,-10.24
1114,-11.96
1125,-13.61
1136,-15.35
1148,-17.33
1160,-19.63
1172,-22.14
1184,-24.51
1196,-26.2
1208,-26.63
1220,-25.38
1232,-22.33
1244,-17.77
1256,-12.23
1268,-6.36
1280,-0.73
1292,4.21
1304,8.23
1315,11.17
1326,12.97
1338,13.65
1350,13.35
1362,12.37
1374,11.11
1386,10.01
1398,9.38
1410,9.39
1422,10.01
1434,11.09
1446,12.42
1458,13.75
1470,14.84
1482,15.51
1494,15.62
1505,15.13
1516,14.11
1528,12.72
1540,11.1
1552,9.41
1564,7.76
1576,6.18
1588,4.71
1600,3.29
1612,1.89
1624,0.43
1636,-1.11
1648,-2.79
1660,-4.59
1672,-6.49
1684,-8.45
1695,-10.43
1706,-12.45
1718,-14.52
1730,-16.64
1742,-18.79
1754,-20.87
1766,-22.68
1778,-23.94
1790,-24.31
1802,-23.49
1814,-21.28
1826,-17.73
1838,-13.06
1850,-7.71
1862,-2.16
1874,3.08
1885,7.61
1896,11.15
1908,13.58
1920,14.88
1932,15.18
1944,14.69
1956,13.68
1968,12.48
1980,11.43
1992,10.78
2004,10.69
2016,11.18
2028,12.14
2040,13.35
2052,14.54
2064,15.49
2075,16.05
2086,16.17
2098,15.85
2110,15.11
2122,14.01
2134,12.6
2146,10.93
2158,9.04
2170,7.03
2182,4.94
2194,2.85
2206,0.83
2218,-1.06
2230,-2.8
2242,-4.36
2254,-5.78
2265,-7.12
2276,-8.44
2288,-9.83
2300,-11.4
2312,-13.23
2324,-15.4
2336,-17.88
2348,-20.52
2360,-22.94
2372,-24.65
2384,-25.14
2396,-24.05
2408,-21.31
2420,-17.14
2432,-12.04
2444,-6.55
2455,-1.22
2466,3.55
2478,7.5
2490,10.44
2502,12.24
2514,12.85
2526,12.38
2538,11.12
2550,9.51
2562,8.04
2574,7.09
2586,6.89
2598,7.4
2610,8.43
2622,9.68
2634,10.85
2645,11.71
2656,12.16
2668,12.22
2680,11.99
2692,11.59
2704,11.12
2716,10.59
2728,9.93
2740,9.01
2752,7.74
2764,6.1
2776,4.21
2788,2.27
2800,0.47
2812,-1.07
2824,-2.37
2835,-3.51
2846,-4.65
2858,-5.92
2870,-7.42
2882,-9.22
2894,-11.33
2906,-13.71
2918,-16.2
2930,-18.53
2942,-20.3
2954,-21.07
2966,-20.46
2978,-18.29
2990,-14.67
3002,-10.02
3014,-4.89
3025,0.08
3036,4.41
3048,7.79
3060,10.09
3072,11.34
3084,11.61
3096,11.04
3108,9.81
3120,8.2
3132,6.53
3144,5.18
3156,4.43
3168,4.44
3180,5.18
3192,6.48
3204,8.05
3215,9.6
3226,10.85
3238,11.59
3250,11.73
3262,11.28
3274,10.35
3286,9.13
3298,7.78
3310,6.41
3322,5.03
3334,3.61
3346,2.06
3358,0.31
3370,-1.67
3382,-3.86
3394,-6.2
3405,-8.58
3416,-10.84
3428,-12.88
3440,-14.63
3452,-16.17
3464,-17.65
3476,-19.23
3488,-20.94
3500,-22.61
3512,-23.87
3524,-24.29
3536,-23.5
3548,-21.35
3560,-17.93
3572,-13.52
3584,-8.53
3595,-3.39
3606,1.44
3618,5.54
3630,8.59
3642,10.41
3654,11.01
3666,10.62
3678,9.55
3690,8.17
3702,6.8
3714,5.66
3726,4.93
3738,4.68
3750,4.98
3762,5.76
3774,6.86
3785,8.05
3796,9.04
3808,9.61
3820,9.65
3832,9.16
3844,8.25
3856,7.08
3868,5.79
3880,4.47
3892,3.14
3904,1.76
3916,0.28
3928,-1.3
3940,-2.95
3952,-4.57
3964,-6.08
3975,-7.45
3986,-8.71
3998,-9.96
4010,-11.32
4022,-12.9
4034,-14.79
4046,-17.04
4058,-19.6
4070,-22.34
4082,-24.95
4094,-27.0
4106,-27.99
4118,-27.49
4130,-25.26
4142,-21.35
4154,-16.1
4165,-10.09
4176,-3.97
4188,1.62
4200,6.24
4212,9.63
4224,11.77
4236,12.81
4248,13.01
4260,12.67
4272,12.09
4284,11.48
4296,10.99
4308,10.71
4320,10.69
4332,10.95
4344,11.5
4355,12.29
4366,13.24
4378,14.24
4390,15.1
4402,15.66
4414,15.8
4426,15.44
4438,14.55
4450,13.15
4462,11.32
4474,9.17
4486,6.88
4498,4.62
4510,2.52
4522,0.6
4534,-1.2
4545,-2.99
4556,-4.79
4568,-6.56
4580,-8.15
4592,-9.44
4604,-10.4
4616,-11.14
4628,-11.94
4640,-13.09
4652,-14.78
4664,-17.04
4676,-19.7
4688,-22.45
4700,-24.85
4712,-26.45
4724,-26.83
4735,-25.67
4746,-22.87
4758,-18.57
4770,-13.14
4782,-7.16
4794,-1.19
4806,4.3
4818,8.97
4830,12.64
4842,15.19
4854,16.59
4866,16.93
4878,16.41
4890,15.39
4902,14.3
4914,13.57
4925,13.45
4936,14.0
4948,15.05
4960,16.32
4972,17.52
4984,18.42
4996,18.89
5008,18.92
5020,18.56
5032,17.89
5044,16.99
5056,15.88
5068,14.53
5080,12.92
5092,11.06
5104,9.03
5115,7.0
5126,5.1
5138,3.37
5150,1.76
5162,0.12
5174,-1.67
5186,-3.65
5198,-5.7
5210,-7.64
5222,-9.27
5234,-10.54
5246,-11.56
5258,-12.61
5270,-14.0
5282,-15.98
5294,-18.62
5305,-21.71
5316,-24.85
5328,-27.45
5340,-28.97
5352,-28.98
5364,-27.34
5376,-24.12
5388,-19.61
5400,-14.18
5412,-8.25
5424,-2.22
5436,3.47
5448,8.4
5460,12.16
5472,14.5
5484,15.42
5495,15.17
5506,14.21
5518,13.08
5530,12.16
5542,11.66
5554,11.62
5566,11.94
5578,12.55
5590,13.42
5602,14.51
5614,15.74
5626,16.92
5638,17.8
5650,18.15
5662,17.92
5674,17.19
5685,16.17
5696,15.08
5708,14.01
5720,12.93
5732,11.72
5744,10.24
5756,8.49
5768,6.58
5780,4.7
5792,3.03
5804,1.6
5816,0.31
5828,-1.02
5840,-2.55
5852,-4.26
5864,-6.02
5875,-7.59
5886,-8.82
5898,-9.77
5910,-10.72
5922,-12.02
5934,-13.96
5946,-16.58
5958,-19.67
5970,-22.81
5982,-25.53
5994,-27.38
6006,-28.03
6018,-27.24
6030,-24.9
6042,-21.03
6054,-15.89
6065,-9.88
6076,-3.59
6088,2.37
6100,7.49
6112,11.41
6124,13.96
6136,15.19
6148,15.24
6160,14.39
6172,13.0
6184,11.5
6196,10.28
6208,9.59
6220,9.53
6232,9.97
6244,10.71
6255,11.53
6266,12.29
6278,12.91
6290,13.37
6302,13.66
6314,13.7
6326,13.43
6338,12.81
6350,11.9
6362,10.81
6374,9.65
6386,8.5
6398,7.36
6410,6.14
6422,4.8
6434,3.31
6445,1.78
6456,0.32
6468,-1.0
6480,-2.2
6492,-3.4
6504,-4.75
6516,-6.35
6528,-8.15
6540,-10.0
6552,-11.75
6564,-13.31
6576,-14.74
6588,-16.14
6600,-17.61
6612,-19.06
6624,-20.24
6635,-20.74
6646,-20.2
6658,-18.33
6670,-15.11
6682,-10.77
6694,-5.7
6706,-0.42
6718,4.62
6730,9.04
6742,12.62
6754,15.2
6766,16.72
6778,17.22
6790,16.79
6802,15.68
6814,14.2
6825,12.72
6836,11.52
6848,10.83
6860,10.72
6872,11.15
6884,11.98
6896,13.02
6908,14.05
6920,14.88
6932,15.33
6944,15.32
6956,14.83
6968,13.92
6980,12.69
6992,11.28
7004,9.82
7015,8.38
7026,7.02
7038,5.77
7050,4.58
7062,3.42
7074,2.24
7086,1.03
7098,-0.18
7110,-1.37
7122,-2.52
7134,-3.7
7146,-4.99
7158,-6.48
7170,-8.2
7182,-10.11
7194,-12.05
7205,-13.79
7216,-15.05
7228,-15.51
7240,-14.92
7252,-13.12
7264,-10.11
7276,-6.08
7288,-1.44
7300,3.31
7312,7.68
7324,11.28
7336,13.92
7348,15.5
7360,16.01
7372,15.41
7384,13.7
7395,10.94
7406,7.38
7418,3.4
7430,-0.51
7442,-3.89
7454,-6.42
7466,-7.93
7478,-8.43
7490,-7.94
7502,-6.45
7514,-3.8
7526,0.22
7538,5.74
7550,12.6
7562,20.21
7574,27.61
7585,33.77
7596,37.9
7608,39.77
7620,39.65
7632,38.16
7644,35.82
7656,32.85
7668,29.18
7680,24.69
7692,19.48
7704,13.99
7716,8.87
7728,4.65
7740,1.53
7752,-0.74
7764,-2.58
7775,-4.28
7786,-5.69
7798,-6.34
7810,-5.7
7822,-3.52
7834,-0.11
7846,3.7
7858,6.87
7870,8.55
7882,8.39
7894,6.55
7906,3.57
7918,-0.03
7930,-3.92
7942,-8.02
7954,-12.34
7965,-16.81
7976,-21.16
7988,-24.95
8000,-27.8
8012,-29.54
8024,-30.35
8036,-30.63
8048,-30.86
8060,-31.34
8072,-32.19
8084,-33.32
8096,-34.63
8108,-36.1
8120,-37.77
8132,-39.71
8144,-41.83
8155,-43.9
8166,-45.56
8178,-46.55
8190,-46.85
8202,-46.7
8214,-46.62
8226,-47.11
8238,-48.55
8250,-51.03
8262,-54.28
8274,-57.78
8286,-60.82
8298,-62.61
8310,-62.44
8322,-59.83
8334,-54.58
8345,-46.91
8356,-37.39
8368,-26.9
8380,-16.49
8392,-7.17
8404,0.3
8416,5.56
8428,8.67
8440,10.09
8452,10.44
8464,10.28
8476,9.97
8488,9.58
8500,9.08
8512,8.42
8524,7.66
8535,7.02
8546,6.73
8558,6.92
8570,7.58
8582,8.52
8594,9.47
8606,10.17
8618,10.39
8630,10.02
8642,9.01
8654,7.4
8666,5.23
8678,2.59
8690,-0.42
8702,-3.6
8714,-6.73
8725,-9.58
8736,-12.01
8748,-14.03
8760,-15.88
8772,-17.81
8784,-20.0
8796,-22.34
8808,-24.38
8820,-25.45
8832,-24.92
8844,-22.39
8856,-17.89
8868,-11.85
8880,-4.99
8892,1.85
8904,8.0
8915,12.96
8926,16.56
8938,18.83
8950,19.89
8962,19.9
8974,18.99
8986,17.36
8998,15.35
9010,13.36
9022,11.87
9034,11.18
9046,11.35
9058,12.18
9070,13.32
9082,14.43
9094,15.27
9105,15.75
9116,15.81
9128,15.41
9140,14.48
9152,13.0
9164,11.03
9176,8.77
9188,6.46
9200,4.29
9212,2.38
9224,0.68
9236,-0.97
9248,-2.79
9260,-4.97
9272,-7.6
9284,-10.68
9295,-13.98
9306,-17.12
9318,-19.59
9330,-20.83
9342,-20.42
9354,-18.16
9366,-14.17
9378,-8.87
9390,-2.91
9402,3.03
9414,8.31
9426,12.47
9438,15.22
9450,16.47
9462,16.23
9474,14.69
9485,12.15
9496,9.08
9508,6.01
9520,3.52
9532,2.0
9544,1.66
9556,2.39
9568,3.88
9580,5.69
9592,7.38
9604,8.62
9616,9.25
9628,9.28
9640,8.81
9652,8.07
9664,7.24
9675,6.42
9686,5.65
9698,4.87
9710,3.98
9722,2.95
9734,1.78
9746,0.52
9758,-0.78
9770,-2.14
9782,-3.61
9794,-5.24
9806,-7.01
9818,-8.77
9830,-10.2
9842,-10.96
9854,-10.67
9865,-9.08
9876,-6.07
9888,-1.69
9900,3.75
9912,9.79
9924,15.82
9936,21.25
9948,25.62
9960,28.65
9972,30.24
9984,30.45
9996,29.4
10008,27.34
10020,24.51
10032,21.25
10044,17.93
10055,14.97
10066,12.74
10078,11.48
10090,11.26
10102,11.9
10114,13.06
10126,14.25
10138,15.08
10150,15.26
10162,14.73
10174,13.61
10186,12.11
10198,10.36
10210,8.43
10222,6.33
10234,4.09
10245,1.81
10256,-0.4
10268,-2.49
10280,-4.53
10292,-6.73
10304,-9.25
10316,-12.09
10328,-14.98
10340,-17.36
10352,-18.58
10364,-18.1
10376,-15.69
10388,-11.53
10400,-6.13
10412,-0.16
10424,5.74
10435,11.06
10446,15.44
10458,18.67
10470,20.64
10482,21.33
10494,20.8
10506,19.25
10518,16.99
10530,14.42
10542,11.94
10554,9.94
10566,8.65
10578,8.11
10590,8.18
10602,8.57
10614,8.94
10625,9.06
10636,8.82
10648,8.25
10660,7.47
10672,6.55
10684,5.49
10696,4.22
10708,2.69
10720,0.88
10732,-1.17
10744,-3.39
10756,-5.78
10768,-8.37
10780,-11.21
10792,-14.32
10804,-17.53
10815,-20.58
10826,-23.01
10838,-24.32
10850,-24.06
10862,-21.97
10874,-18.07
10886,-12.71
10898,-6.47
10910,-0.05
10922,5.88
10934,10.8
10946,14.42
10958,16.65
10970,17.55
10982,17.31
10994,16.19
11005,14.52
11016,12.69
11028,11.06
11040,9.92
11052,9.41
11064,9.49
11076,9.98
11088,10.7
11100,11.51
11112,12.29
11124,12.99
11136,13.5
11148,13.63
11160,13.22
11172,12.14
11184,10.43
11195,8.27
11206,5.95
11218,3.67
11230,1.56
11242,-0.38
11254,-2.21
11266,-4.03
11278,-5.91
11290,-7.95
11302,-10.17
11314,-12.49
11326,-14.64
11338,-16.18
11350,-16.62
11362,-15.54
11374,-12.84
11385,-8.73
11396,-3.67
11408,1.75
11420,6.99
11432,11.62
11444,15.33
11456,17.9
11468,19.16
11480,19.05
11492,17.6
11504,15.02
11516,11.7
11528,8.13
11540,4.86
11552,2.35
11564,0.91
11575,0.62
11586,1.38
11598,2.87
11610,4.72
11622,6.49
11634,7.8
11646,8.42
11658,8.25
11670,7.41
11682,6.1
11694,4.62
11706,3.22
11718,2.08
11730,1.2
11742,0.47
11754,-0.31
11765,-1.32
11776,-2.66
11788,-4.3
11800,-6.05
11812,-7.63
11824,-8.69
11836,-8.94
11848,-8.23
11860,-6.59
11872,-4.23
11884,-1.52
11896,1.12
11908,3.3
11920,4.77
11932,5.4
11944,5.21
11955,4.36
11966,3.02
11978,1.44
11990,-0.18
12002,-1.66
12014,-2.86
12026,-3.65
12038,-3.93
12050,-3.71
12062,-3.07
12074,-2.26
12086,-1.6
12098,-1.42
12110,-1.88
12122,-2.95
12134,-4.4
12145,-5.89
12156,-7.22
12168,-8.38
12180,-9.52
12192,-10.88
12204,-12.62
12216,-14.75
12228,-17.17
12240,-19.69
12252,-22.06
12264,-23.94
12276,-24.91
12288,-24.5
12300,-22.36
12312,-18.45
12324,-13.07
12335,-6.85
12346,-0.53
12358,5.23
12370,10.0
12382,13.53
12394,15.74
12406,16.6
12418,16.2
12430,14.73
12442,12.54
12454,10.1
12466,7.87
12478,6.19
12490,5.22
12502,4.97
12514,5.28
12525,5.96
12536,6.79
12548,7.52
12560,7.94
12572,7.93
12584,7.46
12596,6.59
12608,5.41
12620,4.04
12632,2.56
12644,1.01
12656,-0.62
12668,-2.36
12680,-4.3
12692,-6.52
12704,-9.09
12715,-11.95
12726,-14.94
12738,-17.75
12750,-19.91
12762,-20.95
12774,-20.47
12786,-18.29
12798,-14.53
12810,-9.58
12822,-4.06
12834,1.38
12846,6.15
12858,9.89
12870,12.42
12882,13.79
12894,14.09
12905,13.52
12916,12.25
12928,10.51
12940,8.57
12952,6.75
12964,5.41
12976,4.8
12988,5.02
13000,5.94
13012,7.24
13024,8.49
13036,9.24
13048,9.2
13060,8.25
13072,6.52
13084,4.23
13095,1.66
13106,-0.97
13118,-3.5
13130,-5.82
13142,-7.89
13154,-9.73
13166,-11.4
13178,-13.03
13190,-14.78
13202,-16.72
13214,-18.72
13226,-20.42
13238,-21.29
13250,-20.77
13262,-18.56
13274,-14.72
13285,-9.7
13296,-4.17
13308,1.23
13320,6.0
13332,9.9
13344,12.8
13356,14.62
13368,15.32
13380,14.9
13392,13.52
13404,11.51
13416,9.32
13428,7.38
13440,6.0
13452,5.28
13464,5.14
13475,5.43
13486,5.98
13498,6.67
13510,7.39
13522,8.03
13534,8.43
13546,8.43
13558,7.88
13570,6.76
13582,5.16
13594,3.28
13606,1.33
13618,-0.54
13630,-2.29
13642,-3.96
13654,-5.59
13665,-7.22
13676,-8.88
13688,-10.59
13700,-12.45
13712,-14.44
13724,-16.47
13736,-18.24
13748,-19.27
13760,-19.11
13772,-17.49
13784,-14.44
13796,-10.25
13808,-5.39
13820,-0.37
13832,4.34
13844,8.34
13855,11.3
13866,12.97
13878,13.23
13890,12.2
13902,10.2
13914,7.7
13926,5.27
13938,3.33
13950,2.21
13962,1.98
13974,2.52
13986,3.59
13998,4.84
14010,5.92
14022,6.62
14034,6.89
14045,6.79
14056,6.46
14068,6.0
14080,5.42
14092,4.7
14104,3.78
14116,2.67
14128,1.42
14140,0.14
14152,-1.13
14164,-2.35
14176,-3.6
14188,-5.02
14200,-6.75
14212,-8.9
14224,-11.43
14235,-14.1
14246,-16.49
14258,-18.06
14270,-18.33
14282,-17.0
14294,-14.11
14306,-9.99
14318,-5.16
14330,-0.22
14342,4.32
14354,8.06
14366,10.75
14378,12.23
14390,12.49
14402,11.68
14414,10.03
14425,7.91
14436,5.72
14448,3.86
14460,2.64
14472,2.23
14484,2.58
14496,3.51
14508,4.65
14520,5.69
14532,6.39
14544,6.67
14556,6.62
14568,6.34
14580,5.91
14592,5.31
14604,4.48
14615,3.42
14626,2.2
14638,0.93
14650,-0.31
14662,-1.56
14674,-2.97
14686,-4.65
14698,-6.62
14710,-8.77
14722,-10.91
14734,-12.9
14746,-14.67
14758,-16.18
14770,-17.36
14782,-18.0
14794,-17.78
14805,-16.39
14816,-13.63
14828,-9.58
14840,-4.62
14852,0.68
14864,5.64
14876,9.68
14888,12.38
14900,13.6
14912,13.38
14924,11.97
14936,9.71
14948,6.98
14960,4.21
14972,1.8
14984,0.12
14995,-0.6
15006,-0.34
15018,0.74
15030,2.26
15042,3.82
15054,5.07
15066,5.85
15078,6.17
15090,6.17
15102,6.01
15114,5.75
15126,5.37
15138,4.74
15150,3.8
15162,2.59
15174,1.26
15185,0.04
15196,-0.87
15208,-1.44
15220,-1.78
15232,-2.09
15244,-2.62
15256,-3.53
15268,-4.93
15280,-6.81
15292,-9.08
15304,-11.53
15316,-13.78
15328,-15.35
15340,-15.72
15352,-14.5
15364,-11.64
15375,-7.44
15386,-2.48
15398,2.5
15410,6.87
15422,10.16
15434,12.18
15446,12.9
15458,12.46
15470,11.04
15482,8.93
15494,6.48
15506,4.08
15518,2.11
15530,0.84
15542,0.36
15554,0.59
15565,1.28
15576,2.18
15588,3.08
15600,3.86
15612,4.51
15624,5.0
15636,5.34
15648,5.44
15660,5.23
15672,4.62
15684,3.58
15696,2.15
15708,0.41
15720,-1.46
15732,-3.28
15744,-4.87
15755,-6.18
15766,-7.21
15778,-8.1
15790,-9.04
15802,-10.14
15814,-11.44
15826,-12.8
15838,-13.99
15850,-14.7
15862,-14.64
15874,-13.59
15886,-11.47
15898,-8.36
15910,-4.49
15922,-0.27
15934,3.87
15945,7.5
15956,10.28
15968,11.97
15980,12.46
15992,11.77
16004,10.03
16016,7.59
16028,4.87
16040,2.33
16052,0.37
16064,-0.83
16076,-1.24
16088,-1.01
16100,-0.37
16112,0.45
16124,1.26
16135,1.94
16146,2.42
16158,2.7
16170,2.8
16182,2.71
16194,2.4
16206,1.78
16218,0.83
16230,-0.39
16242,-1.73
16254,-2.96
16266,-3.96
16278,-4.72
16290,-5.38
16302,-6.16
16314,-7.17
16325,-8.48
16336,-10.05
16348,-11.78
16360,-13.57
16372,-15.29
16384,-16.69
16396,-17.43
16408,-17.12
16420,-15.48
16432,-12.5
16444,-8.46
16456,-3.88
16468,0.69
16480,4.77
16492,8.07
16504,10.49
16515,11.95
16526,12.44
16538,11.93
16550,10.48
16562,8.3
16574,5.76
16586,3.38
16598,1.61
16610,0.74
16622,0.78
16634,1.51
16646,2.6
16658,3.71
16670,4.63
16682,5.23
16694,5.5
16705,5.42
16716,5.02
16728,4.35
16740,3.51
16752,2.57
16764,1.62
16776,0.63
16788,-0.46
16800,-1.71
16812,-3.12
16824,-4.55
16836,-5.87
16848,-6.96
16860,-7.87
16872,-8.76
16884,-9.87
16895,-11.34
16906,-13.09
16918,-14.79
16930,-15.92
16942,-16.0
16954,-14.69
16966,-11.98
16978,-8.19
16990,-3.83
17002,0.52
17014,4.42
17026,7.53
17038,9.72
17050,10.91
17062,11.1
17074,10.37
17085,8.9
17096,6.96
17108,4.89
17120,3.03
17132,1.65
17144,0.87
17156,0.7
17168,1.04
17180,1.77
17192,2.74
17204,3.82
17216,4.86
17228,5.72
17240,6.19
17252,6.13
17264,5.47
17275,4.27
17286,2.7
17298,1.01
17310,-0.64
17322,-2.18
17334,-3.64
17346,-5.04
17358,-6.34
17370,-7.46
17382,-8.33
17394,-8.98
17406,-9.57
17418,-10.34
17430,-11.48
17442,-13.0
17454,-14.68
17465,-16.13
17476,-16.86
17488,-16.46
17500,-14.74
17512,-11.75
17524,-7.81
17536,-3.4
17548,1.0
17560,4.94
17572,8.11
17584,10.31
17596,11.44
17608,11.49
17620,10.53
17632,8.79
17644,6.6
17655,4.38
17666,2.53
17678,1.37
17690,1.04
17702,1.5
17714,2.54
17726,3.85
17738,5.11
17750,6.09
17762,6.69
17774,6.93
17786,6.86
17798,6.54
17810,5.94
17822,5.04
17834,3.83
17845,2.37
17856,0.75
17868,-0.93
17880,-2.57
17892,-4.12
17904,-5.53
17916,-6.77
17928,-7.83
17940,-8.78
17952,-9.75
17964,-10.86
17976,-12.18
17988,-13.57
18000,-14.78
18012,-15.42
18024,-15.16
18035,-13.79
18046,-11.3
18058,-7.91
18070,-3.97
18082,0.09
18094,3.8
18106,6.82
18118,8.93
18130,10.07
18142,10.29
18154,9.73
18166,8.54
18178,6.93
18190,5.15
18202,3.54
18214,2.41
18225,2.02
18236,2.39
18248,3.37
18260,4.65
18272,5.91
18284,6.94
18296,7.65
18308,8.04
18320,8.1
18332,7.79
18344,7.05
18356,5.89
18368,4.38
18380,2.65
18392,0.85
18404,-0.89
18415,-2.45
18426,-3.79
18438,-4.92
18450,-5.93
18462,-7.01
18474,-8.39
18486,-10.2
18498,-12.37
18510,-14.64
18522,-16.58
18534,-17.76
18546,-17.87
18558,-16.8
18570,-14.62
18582,-11.52
18594,-7.73
18605,-3.5
18616,0.85
18628,4.97
18640,8.46
18652,10.98
18664,12.27
18676,12.29
18688,11.21
18700,9.37
18712,7.22
18724,5.17
18736,3.59
18748,2.68
18760,2.51
18772,3.05
18784,4.13
18795,5.46
18806,6.74
18818,7.66
18830,8.02
18842,7.77
18854,7.04
18866,6.02
18878,4.89
18890,3.74
18902,2.56
18914,1.29
18926,-0.1
18938,-1.57
18950,-3.05
18962,-4.5
18974,-5.93
18985,-7.4
18996,-8.96
19008,-10.63
19020,-12.37
19032,-14.1
19044,-15.72
19056,-17.06
19068,-17.85
19080,-17.81
19092,-16.65
19104,-14.27
19116,-10.78
19128,-6.58
19140,-2.16
19152,2.0
19164,5.55
19175,8.36
19186,10.34
19198,11.43
19210,11.6
19222,10.84
19234,9.32
19246,7.41
19258,5.6
19270,4.35
19282,3.95
19294,4.38
19306,5.4
19318,6.62
19330,7.7
19342,8.44
19354,8.84
19365,9.0
19376,9.0
19388,8.88
19400,8.57
19412,7.92
19424,6.84
19436,5.32
19448,3.47
19460,1.5
19472,-0.37
19484,-1.98
19496,-3.31
19508,-4.43
19520,-5.53
19532,-6.79
19544,-8.31
19555,-10.11
19566,-12.12
19578,-14.21
19590,-16.21
19602,-17.91
19614,-19.0
19626,-19.12
19638,-17.93
19650,-15.25
19662,-11.22
19674,-6.26
19686,-1.02
19698,3.87
19710,7.95
19722,11.0
19734,13.01
19745,14.05
19756,14.21
19768,13.59
19780,12.34
19792,10.72
19804,9.03
19816,7.65
19828,6.8
19840,6.61
19852,6.97
19864,7.65
19876,8.33
19888,8.8
19900,8.97
19912,8.9
19924,8.71
19935,8.5
19946,8.24
19958,7.8
19970,7.05
19982,5.9
19994,4.38
20006,2.62
20018,0.72
20030,-1.21
20042,-3.15
20054,-5.05
20066,-6.86
20078,-8.52
20090,-10.01
20102,-11.4
20114,-12.78
20125,-14.2
20136,-15.54
20148,-16.59
20160,-17.02
20172,-16.56
20184,-15.03
20196,-12.41
20208,-8.87
20220,-4.67
20232,-0.2
20244,4.17
20256,8.1
20268,11.33
20280,13.68
20292,15.07
20304,15.45
20315,14.88
20326,13.5
20338,11.56
20350,9.45
20362,7.64
20374,6.53
20386,6.34
20398,7.05
20410,8.38
20422,9.93
20434,11.3
20446,12.2
20458,12.51
20470,12.26
20482,11.56
20494,10.54
20505,9.31
20516,7.94
20528,6.48
20540,4.91
20552,3.25
20564,1.47
20576,-0.36
20588,-2.13
20600,-3.72
20612,-5.02
20624,-6.01
20636,-6.8
20648,-7.6
20660,-8.65
20672,-10.09
20684,-11.93
20695,-14.05
20706,-16.19
20718,-18.07
20730,-19.36
20742,-19.78
20754,-19.11
20766,-17.23
20778,-14.2
20790,-10.27
20802,-5.88
20814,-1.48
20826,2.57
20838,6.04
20850,8.87
20862,11.05
20874,12.53
20885,13.27
20896,13.2
20908,12.36
20920,10.96
20932,9.35
20944,7.92
20956,6.99
20968,6.69
20980,7.0
20992,7.73
