seconds,BVP
3,5.75
15,6.14
27,6.36
39,6.43
51,6.38
63,6.25
75,6.03
87,5.66
99,5.09
110,4.34
121,3.49
133,2.67
145,1.98
157,1.4
169,0.84
181,0.16
193,-0.76
205,-1.95
217,-3.38
229,-5.0
241,-6.74
253,-8.53
265,-10.22
277,-11.58
289,-12.39
300,-12.53
311,-12.08
323,-11.37
335,-10.83
347,-10.92
359,-11.93
371,-13.87
383,-16.49
395,-19.33
407,-21.87
419,-23.57
431,-24.1
443,-23.32
455,-21.35
467,-18.46
479,-15.04
490,-11.44
501,-7.95
513,-4.78
525,-2.07
537,0.08
549,1.56
561,2.31
573,2.33
585,1.75
597,0.77
609,-0.33
621,-1.29
633,-1.89
645,-2.01
657,-1.63
669,-0.79
680,0.42
691,1.88
703,3.43
715,4.88
727,5.99
739,6.47
751,6.16
763,4.97
775,3.09
787,0.84
799,-1.32
811,-2.98
823,-3.79
835,-3.62
847,-2.5
859,-0.7
870,1.45
881,3.55
893,5.41
905,7.09
917,8.93
929,11.45
941,15.16
953,20.28
965,26.62
977,33.63
989,40.45
1001,46.19
1013,50.05
1025,51.44
1037,50.08
1049,45.93
1060,39.26
1071,30.64
1083,20.8
1095,10.61
1107,0.94
1119,-7.44
1131,-13.95
1143,-18.23
1155,-20.22
1167,-20.13
1179,-18.41
1191,-15.61
1203,-12.26
1215,-8.67
1227,-4.98
1239,-1.16
1250,2.85
1261,7.03
1273,11.25
1285,15.3
1297,19.02
1309,22.3
1321,25.15
1333,27.6
1345,29.6
1357,31.01
1369,31.58
1381,31.08
1393,29.32
1405,26.31
1417,22.17
1429,17.16
1440,11.58
1451,5.78
1463,0.04
1475,-5.38
1487,-10.28
1499,-14.51
1511,-18.02
1523,-20.86
1535,-23.12
1547,-25.01
1559,-26.68
1571,-28.25
1583,-29.76
1595,-31.13
1607,-32.22
1619,-32.92
1630,-33.2
1641,-33.17
1653,-33.02
1665,-33.01
1677,-33.3
1689,-33.95
1701,-34.82
1713,-35.64
1725,-36.06
1737,-35.77
1749,-34.55
1761,-32.28
1773,-29.05
1785,-25.02
1797,-20.5
1809,-15.85
1820,-11.38
1831,-7.34
1843,-3.85
1855,-0.96
1867,1.32
1879,3.01
1891,4.12
1903,4.73
1915,4.96
1927,5.01
1939,5.05
1951,5.22
1963,5.54
1975,5.95
1987,6.4
1999,6.9
2010,7.49
2021,8.23
2033,9.13
2045,10.04
2057,10.73
2069,10.99
2081,10.75
2093,10.07
2105,9.13
2117,8.13
2129,7.21
2141,6.36
2153,5.53
2165,4.59
2177,3.45
2189,2.11
2200,0.62
2211,-0.89
2223,-2.25
2235,-3.34
2247,-4.1
2259,-4.57
2271,-4.89
2283,-5.27
2295,-5.93
2307,-7.01
2319,-8.48
2331,-10.17
2343,-11.76
2355,-12.9
2367,-13.27
2379,-12.68
2390,-11.11
2401,-8.7
2413,-5.73
2425,-2.54
2437,0.51
2449,3.17
2461,5.28
2473,6.81
2485,7.85
2497,8.49
2509,8.81
2521,8.83
2533,8.56
2545,8.08
2557,7.51
2569,7.08
2580,7.03
2591,7.49
2603,8.48
2615,9.83
2627,11.28
2639,12.56
2651,13.48
2663,13.97
2675,14.08
2687,13.88
2699,13.47
2711,12.89
2723,12.19
2735,11.39
2747,10.5
2759,9.58
2770,8.62
2781,7.62
2793,6.56
2805,5.45
2817,4.33
2829,3.31
2841,2.54
2853,2.13
2865,2.1
2877,2.38
2889,2.8
2901,3.1
2913,3.07
2925,2.6
2937,1.78
2949,0.88
2960,0.3
2971,0.44
2983,1.52
2995,3.51
3007,6.12
3019,8.96
3031,11.62
3043,13.83
3055,15.48
3067,16.6
3079,17.22
3091,17.34
3103,16.93
3115,15.99
3127,14.59
3139,12.92
3150,11.27
3161,9.91
3173,9.04
3185,8.69
3197,8.77
3209,9.1
3221,9.53
3233,9.97
3245,10.41
3257,10.85
3269,11.25
3281,11.49
3293,11.43
3305,10.93
3317,9.95
3329,8.61
3340,7.11
3351,5.64
3363,4.33
3375,3.2
3387,2.18
3399,1.18
3411,0.16
3423,-0.87
3435,-1.9
3447,-2.91
3459,-3.93
3471,-5.02
3483,-6.21
3495,-7.51
3507,-8.83
3519,-9.99
3530,-10.71
3541,-10.71
3553,-9.73
3565,-7.68
3577,-4.72
3589,-1.22
3601,2.31
3613,5.35
3625,7.56
3637,8.82
3649,9.17
3661,8.8
3673,7.89
3685,6.6
3697,5.1
3709,3.52
3720,2.0
3731,0.6
3743,-0.67
3755,-1.88
3767,-3.07
3779,-4.19
3791,-5.08
3803,-5.51
3815,-5.32
3827,-4.51
3839,-3.26
3851,-1.82
3863,-0.47
3875,0.63
3887,1.4
3899,1.78
3910,1.76
3921,1.32
3933,0.57
3945,-0.33
3957,-1.11
3969,-1.54
3981,-1.51
3993,-1.04
4005,-0.27
4017,0.57
4029,1.28
4041,1.64
4053,1.51
4065,0.81
4077,-0.45
4089,-2.06
4100,-3.68
4111,-4.87
4123,-5.23
4135,-4.46
4147,-2.46
4159,0.72
4171,4.9
4183,9.79
4195,15.01
4207,20.13
4219,24.72
4231,28.44
4243,31.12
4255,32.79
4267,33.57
4279,33.68
4290,33.26
4301,32.39
4313,31.05
4325,29.14
4337,26.5
4349,22.97
4361,18.49
4373,13.15
4385,7.26
4397,1.3
4409,-4.23
4421,-8.88
4433,-12.47
4445,-15.02
4457,-16.7
4469,-17.76
4480,-18.37
4491,-18.71
4503,-18.94
4515,-19.26
4527,-19.87
4539,-20.93
4551,-22.46
4563,-24.31
4575,-26.27
4587,-28.12
4599,-29.69
4611,-30.94
4623,-31.87
4635,-32.51
4647,-32.88
4659,-33.05
4670,-33.13
4681,-33.26
4693,-33.55
4705,-33.96
4717,-34.26
4729,-34.1
4741,-33.14
4753,-31.17
4765,-28.25
4777,-24.64
4789,-20.72
4801,-16.86
4813,-13.31
4825,-10.26
4837,-7.82
4849,-6.08
4860,-5.09
4871,-4.82
4883,-5.16
4895,-5.84
4907,-6.56
4919,-7.0
4931,-6.98
4943,-6.48
4955,-5.64
4967,-4.66
4979,-3.73
4991,-2.97
5003,-2.4
5015,-2.0
5027,-1.75
5039,-1.65
5050,-1.71
5061,-1.94
5073,-2.31
5085,-2.79
5097,-3.39
5109,-4.15
5121,-5.16
5133,-6.47
5145,-8.13
5157,-10.08
5169,-12.25
5181,-14.55
5193,-16.9
5205,-19.23
5217,-21.48
5229,-23.6
5240,-25.52
5251,-27.25
5263,-28.73
5275,-29.84
5287,-30.32
5299,-29.8
5311,-27.96
5323,-24.63
5335,-19.97
5347,-14.39
5359,-8.45
5371,-2.71
5383,2.45
5395,6.81
5407,10.29
5419,12.86
5430,14.54
5441,15.37
5453,15.46
5465,15.01
5477,14.24
5489,13.42
5501,12.72
5513,12.33
5525,12.31
5537,12.68
5549,13.41
5561,14.38
5573,15.51
5585,16.71
5597,17.96
5609,19.21
5620,20.38
5631,21.35
5643,21.99
5655,22.17
5667,21.85
5679,21.1
5691,20.02
5703,18.74
5715,17.37
5727,15.97
5739,14.59
5751,13.24
5763,11.96
5775,10.79
5787,9.77
5799,8.9
5810,8.15
5821,7.44
5833,6.68
5845,5.75
5857,4.55
5869,3.05
5881,1.28
5893,-0.61
5905,-2.41
5917,-3.87
5929,-4.73
5941,-4.84
5953,-4.14
5965,-2.75
5977,-0.87
5989,1.22
6000,3.24
6011,4.97
6023,6.25
6035,7.0
6047,7.22
6059,6.95
6071,6.22
6083,5.09
6095,3.65
6107,2.0
6119,0.35
6131,-1.1
6143,-2.12
6155,-2.55
6167,-2.36
6179,-1.66
6190,-0.7
6201,0.29
6213,1.07
6225,1.57
6237,1.78
6249,1.8
6261,1.69
6273,1.51
6285,1.24
6297,0.86
6309,0.35
6321,-0.26
6333,-0.91
6345,-1.54
6357,-2.16
6369,-2.83
6380,-3.61
6391,-4.51
6403,-5.47
6415,-6.36
6427,-7.07
6439,-7.54
6451,-7.86
6463,-8.17
6475,-8.63
6487,-9.3
6499,-10.11
6511,-10.85
6523,-11.22
6535,-10.92
6547,-9.75
6559,-7.65
6570,-4.77
6581,-1.42
6593,2.01
6605,5.14
6617,7.72
6629,9.64
6641,10.93
6653,11.69
6665,12.06
6677,12.12
6689,11.95
6701,11.62
6713,11.22
6725,10.81
6737,10.5
6749,10.35
6760,10.41
6771,10.67
6783,11.08
6795,11.54
6807,11.97
6819,12.32
6831,12.56
6843,12.73
6855,12.84
6867,12.91
6879,12.89
6891,12.71
6903,12.29
6915,11.6
6927,10.67
6939,9.6
6950,8.47
6961,7.32
6973,6.12
6985,4.8
6997,3.31
7009,1.64
7021,-0.14
7033,-1.98
7045,-3.81
7057,-5.6
7069,-7.27
7081,-8.71
7093,-9.74
7105,-10.14
7117,-9.71
7129,-8.37
7140,-6.22
7151,-3.5
7163,-0.56
7175,2.23
7187,4.56
7199,6.18
7211,7.0
7223,7.04
7235,6.42
7247,5.34
7259,3.98
7271,2.48
7283,0.95
7295,-0.5
7307,-1.75
7319,-2.68
7330,-3.16
7341,-3.2
7353,-2.87
7365,-2.34
7377,-1.78
7389,-1.32
7401,-0.99
7413,-0.77
7425,-0.66
7437,-0.67
7449,-0.86
7461,-1.25
7473,-1.85
7485,-2.59
7497,-3.39
7509,-4.13
7520,-4.76
7531,-5.21
7543,-5.47
7555,-5.55
7567,-5.51
7579,-5.45
7591,-5.45
7603,-5.62
7615,-5.95
7627,-6.4
7639,-6.84
7651,-7.06
7663,-6.86
7675,-6.04
7687,-4.51
7699,-2.34
7710,0.3
7721,3.13
7733,5.87
7745,8.26
7757,10.16
7769,11.49
7781,12.25
7793,12.48
7805,12.23
7817,11.6
7829,10.65
7841,9.49
7853,8.2
7865,6.91
7877,5.74
7889,4.79
7900,4.14
7911,3.79
7923,3.69
7935,3.75
7947,3.86
7959,3.94
7971,3.93
7983,3.74
7995,3.32
8007,2.61
8019,1.65
8031,0.5
8043,-0.7
8055,-1.83
8067,-2.81
8079,-3.61
8090,-4.27
8101,-4.84
8113,-5.37
8125,-5.9
8137,-6.42
8149,-6.89
8161,-7.32
8173,-7.7
8185,-8.08
8197,-8.54
8209,-9.14
8221,-9.93
8233,-10.87
8245,-11.86
8257,-12.78
8269,-13.48
8280,-13.82
8291,-13.65
8303,-12.86
8315,-11.38
8327,-9.26
8339,-6.67
8351,-3.88
8363,-1.22
8375,1.02
8387,2.66
8399,3.65
8411,4.05
8423,3.98
8435,3.57
8447,2.92
8459,2.07
8470,1.09
8481,0.08
8493,-0.79
8505,-1.33
8517,-1.42
8529,-1.05
8541,-0.4
8553,0.32
8565,0.85
8577,1.09
8589,1.06
8601,0.88
8613,0.67
8625,0.5
8637,0.35
8649,0.17
8660,-0.04
8671,-0.28
8683,-0.5
8695,-0.7
8707,-0.92
8719,-1.24
8731,-1.7
8743,-2.28
8755,-2.87
8767,-3.38
8779,-3.74
8791,-3.93
8803,-4.03
8815,-4.11
8827,-4.24
8839,-4.44
8850,-4.71
8861,-5.0
8873,-5.24
8885,-5.31
8897,-5.04
8909,-4.27
8921,-2.9
8933,-0.99
8945,1.28
8957,3.61
8969,5.69
8981,7.35
8993,8.53
9005,9.33
9017,9.82
9029,10.07
9040,10.06
9051,9.76
9063,9.17
9075,8.39
9087,7.6
9099,6.98
9111,6.67
9123,6.67
9135,6.89
9147,7.22
9159,7.54
9171,7.79
9183,7.94
9195,8.01
9207,8.03
9219,8.01
9230,7.98
9241,7.9
9253,7.71
9265,7.36
9277,6.79
9289,6.01
9301,5.06
9313,4.01
9325,2.91
9337,1.8
9349,0.68
9361,-0.48
9373,-1.68
9385,-2.88
9397,-4.09
9409,-5.31
9420,-6.55
9431,-7.79
9443,-8.89
9455,-9.67
9467,-9.9
9479,-9.45
9491,-8.32
9503,-6.69
9515,-4.83
9527,-3.03
9539,-1.48
9551,-0.29
9563,0.52
9575,0.98
9587,1.14
9599,1.08
9610,0.86
9621,0.53
9633,0.12
9645,-0.38
9657,-0.97
9669,-1.64
9681,-2.28
9693,-2.78
9705,-3.01
9717,-2.92
9729,-2.55
9741,-1.99
9753,-1.35
9765,-0.66
9777,0.09
9789,0.94
9800,1.84
9811,2.69
9823,3.32
9835,3.6
9847,3.49
9859,3.07
9871,2.51
9883,1.95
9895,1.44
9907,0.94
9919,0.33
9931,-0.51
9943,-1.67
9955,-3.15
9967,-4.88
9979,-6.78
9990,-8.71
10001,-10.48
10013,-11.87
10025,-12.61
10037,-12.5
10049,-11.44
10061,-9.5
10073,-6.93
10085,-4.08
10097,-1.33
10109,1.01
10121,2.78
10133,3.92
10145,4.45
10157,4.38
10169,3.79
10180,2.71
10191,1.22
10203,-0.54
10215,-2.46
10227,-4.42
10239,-6.3
10251,-8.01
10263,-9.44
10275,-10.49
10287,-11.08
10299,-11.2
10311,-10.91
10323,-10.31
10335,-9.51
10347,-8.61
10359,-7.67
10370,-6.76
10381,-5.91
10393,-5.17
10405,-4.59
10417,-4.19
10429,-3.98
10441,-3.93
10453,-3.99
10465,-4.12
10477,-4.26
10489,-4.39
10501,-4.47
10513,-4.48
10525,-4.37
10537,-4.12
10549,-3.72
10560,-3.21
10571,-2.71
10583,-2.38
10595,-2.33
10607,-2.57
10619,-2.94
10631,-3.12
10643,-2.75
10655,-1.5
10667,0.79
10679,4.02
10691,7.87
10703,11.88
10715,15.55
10727,18.51
10739,20.56
10750,21.68
10761,21.99
10773,21.67
10785,20.86
10797,19.66
10809,18.17
10821,16.5
10833,14.86
10845,13.44
10857,12.38
10869,11.66
10881,11.15
10893,10.6
10905,9.8
10917,8.68
10929,7.33
10940,6.02
10951,4.97
10963,4.32
10975,4.05
10987,3.95
10999,3.79
11011,3.37
11023,2.64
11035,1.62
11047,0.3
11059,-1.37
11071,-3.52
11083,-6.22
11095,-9.33
11107,-12.44
11119,-15.0
11130,-16.51
11141,-16.8
11153,-16.09
11165,-14.89
11177,-13.71
11189,-12.83
11201,-12.14
11213,-11.33
11225,-9.98
11237,-7.84
11249,-4.87
11261,-1.16
11273,3.1
11285,7.65
11297,12.16
11309,16.28
11320,19.69
11331,22.24
11343,24.01
11355,25.22
11367,26.07
11379,26.62
11391,26.66
11403,25.87
11415,24.01
11427,21.05
11439,17.25
11451,13.06
11463,8.9
11475,5.13
11487,1.96
11499,-0.51
11510,-2.19
11521,-3.1
11533,-3.29
11545,-2.93
11557,-2.25
11569,-1.52
11581,-1.0
11593,-0.9
11605,-1.31
11617,-2.23
11629,-3.55
11641,-5.08
11653,-6.65
11665,-8.15
11677,-9.55
11689,-10.94
11700,-12.42
11711,-14.09
11723,-15.96
11735,-18.01
11747,-20.19
11759,-22.45
11771,-24.72
11783,-26.92
11795,-28.87
11807,-30.35
11819,-31.1
11831,-30.92
11843,-29.78
11855,-27.76
11867,-25.1
11879,-22.1
11890,-19.09
11901,-16.36
11913,-14.13
11925,-12.54
11937,-11.66
11949,-11.48
11961,-11.94
11973,-12.86
11985,-14.01
11997,-15.07
12009,-15.74
12021,-15.8
12033,-15.19
12045,-14.01
12057,-12.48
12069,-10.81
12080,-9.08
12091,-7.26
12103,-5.22
12115,-2.88
12127,-0.31
12139,2.26
12151,4.47
12163,6.02
12175,6.75
12187,6.69
12199,6.02
12211,4.98
12223,3.75
12235,2.4
12247,0.94
12259,-0.71
12270,-2.6
12281,-4.77
12293,-7.14
12305,-9.61
12317,-11.94
12329,-13.86
12341,-15.11
12353,-15.43
12365,-14.74
12377,-13.07
12389,-10.6
12401,-7.61
12413,-4.41
12425,-1.27
12437,1.63
12449,4.14
12460,6.23
12471,7.88
12483,9.12
12495,9.95
12507,10.42
12519,10.57
12531,10.49
12543,10.31
12555,10.13
12567,10.07
12579,10.16
12591,10.38
12603,10.7
12615,11.09
12627,11.5
12639,11.97
12650,12.45
12661,12.87
12673,13.11
12685,13.03
12697,12.54
12709,11.67
12721,10.53
12733,9.31
12745,8.15
12757,7.13
12769,6.24
12781,5.44
12793,4.62
12805,3.66
12817,2.45
12829,0.98
12840,-0.64
12851,-2.14
12863,-3.18
12875,-3.42
12887,-2.68
12899,-1.02
12911,1.33
12923,4.01
12935,6.69
12947,9.11
12959,11.12
12971,12.6
12983,13.45
12995,13.59
13007,13.02
13019,11.85
13030,10.27
13041,8.52
13053,6.81
13065,5.31
13077,4.09
13089,3.19
13101,2.61
13113,2.35
13125,2.39
13137,2.69
13149,3.1
13161,3.45
13173,3.52
13185,3.19
13197,2.46
13209,1.47
13220,0.48
13231,-0.33
13243,-0.88
13255,-1.3
13267,-1.84
13279,-2.77
13291,-4.22
13303,-6.15
13315,-8.36
13327,-10.54
13339,-12.32
13351,-13.39
13363,-13.46
13375,-12.37
13387,-10.03
13399,-6.54
13410,-2.13
13421,2.83
13433,7.91
13445,12.68
13457,16.77
13469,19.91
13481,21.95
13493,22.85
13505,22.71
13517,21.79
13529,20.42
13541,19.02
13553,17.97
13565,17.5
13577,17.63
13589,18.2
13600,18.94
13611,19.57
13623,19.93
13635,19.93
13647,19.61
13659,19.03
13671,18.25
13683,17.33
13695,16.3
13707,15.25
13719,14.24
13731,13.34
13743,12.47
13755,11.45
13767,9.98
13779,7.73
13790,4.45
13801,0.1
13813,-5.09
13825,-10.68
13837,-16.04
13849,-20.53
13861,-23.66
13873,-25.15
13885,-24.97
13897,-23.3
13909,-20.51
13921,-17.07
13933,-13.43
13945,-10.0
13957,-7.05
13969,-4.8
13980,-3.36
13991,-2.76
14003,-3.0
14015,-3.97
14027,-5.49
14039,-7.3
14051,-9.09
14063,-10.62
14075,-11.72
14087,-12.39
14099,-12.73
14111,-12.92
14123,-13.1
14135,-13.31
14147,-13.46
14159,-13.42
14170,-13.03
14181,-12.26
14193,-11.16
14205,-9.94
14217,-8.89
14229,-8.23
14241,-8.1
14253,-8.48
14265,-9.24
14277,-10.17
14289,-11.05
14301,-11.79
14313,-12.36
14325,-12.85
14337,-13.34
14349,-13.95
14360,-14.7
14371,-15.59
14383,-16.48
14395,-17.17
14407,-17.32
14419,-16.59
14431,-14.69
14443,-11.54
14455,-7.33
14467,-2.46
14479,2.52
14491,7.08
14503,10.86
14515,13.68
14527,15.54
14539,16.57
14550,16.89
14561,16.65
14573,15.96
14585,14.98
14597,13.88
14609,12.92
14621,12.32
14633,12.24
14645,12.68
14657,13.51
14669,14.54
14681,15.58
14693,16.49
14705,17.19
14717,17.64
14729,17.77
14740,17.51
14751,16.86
14763,15.86
14775,14.67
14787,13.44
14799,12.3
14811,11.26
14823,10.28
14835,9.24
14847,8.11
14859,6.89
14871,5.63
14883,4.39
14895,3.23
14907,2.19
14919,1.24
14930,0.32
14941,-0.71
14953,-2.01
14965,-3.66
14977,-5.59
14989,-7.56
15001,-9.08
15013,-9.66
15025,-8.95
15037,-6.88
15049,-3.66
15061,0.21
15073,4.24
15085,8.02
15097,11.3
15109,13.97
15120,16.0
15131,17.41
15143,18.24
15155,18.6
15167,18.64
15179,18.52
15191,18.37
15203,18.23
15215,18.1
15227,17.96
15239,17.8
15251,17.59
15263,17.29
15275,16.81
15287,16.03
15299,14.88
15310,13.37
15321,11.61
15333,9.69
15345,7.67
15357,5.49
15369,3.07
15381,0.35
15393,-2.57
15405,-5.44
15417,-7.96
15429,-9.86
15441,-11.1
15453,-11.78
15465,-12.14
15477,-12.41
15489,-12.73
15500,-13.13
15511,-13.65
15523,-14.38
15535,-15.48
15547,-17.03
15559,-18.98
15571,-21.07
15583,-22.9
15595,-24.09
15607,-24.4
15619,-23.81
15631,-22.47
15643,-20.61
15655,-18.39
15667,-15.88
15679,-13.11
15690,-10.16
15701,-7.24
15713,-4.69
15725,-2.86
15737,-2.03
15749,-2.3
15761,-3.53
15773,-5.4
15785,-7.51
15797,-9.44
15809,-10.86
15821,-11.55
15833,-11.4
15845,-10.41
15857,-8.71
15869,-6.53
15880,-4.16
15891,-1.9
15903,0.03
15915,1.53
15927,2.6
15939,3.26
15951,3.59
15963,3.66
15975,3.54
15987,3.33
15999,3.15
16011,3.09
16023,3.18
16035,3.38
16047,3.59
16059,3.73
16070,3.75
16081,3.59
16093,3.27
16105,2.83
16117,2.33
16129,1.87
16141,1.55
16153,1.42
16165,1.4
16177,1.36
16189,1.15
16201,0.68
16213,0.01
16225,-0.75
16237,-1.45
16249,-2.04
16260,-2.61
16271,-3.36
16283,-4.5
16295,-6.14
16307,-8.18
16319,-10.32
16331,-12.14
16343,-13.22
16355,-13.22
16367,-12.01
16379,-9.66
16391,-6.39
16403,-2.52
16415,1.59
16427,5.59
16439,9.2
16450,12.15
16461,14.26
16473,15.42
16485,15.65
16497,15.06
16509,13.85
16521,12.28
16533,10.59
16545,9.01
16557,7.66
16569,6.62
16581,5.91
16593,5.49
16605,5.26
16617,5.08
16629,4.85
16640,4.46
16651,3.91
16663,3.23
16675,2.5
16687,1.79
16699,1.1
16711,0.39
16723,-0.39
16735,-1.25
16747,-2.15
16759,-2.98
16771,-3.65
16783,-4.08
16795,-4.29
16807,-4.36
16819,-4.38
16830,-4.41
16841,-4.47
16853,-4.49
16865,-4.34
16877,-3.96
16889,-3.34
16901,-2.55
16913,-1.71
16925,-0.93
16937,-0.25
16949,0.34
16961,0.8
16973,1.1
16985,1.17
16997,0.97
17009,0.55
17020,0.05
17031,-0.39
17043,-0.7
17055,-0.96
17067,-1.35
17079,-2.05
17091,-3.13
17103,-4.55
17115,-6.21
17127,-8.01
17139,-9.94
17151,-11.93
17163,-13.85
17175,-15.42
17187,-16.23
17199,-15.92
17210,-14.35
17221,-11.65
17233,-8.24
17245,-4.68
17257,-1.48
17269,1.07
17281,2.87
17293,4.02
17305,4.66
17317,4.89
17329,4.74
17341,4.18
17353,3.29
17365,2.2
17377,1.16
17389,0.42
17400,0.13
17411,0.31
17423,0.86
17435,1.59
17447,2.36
17459,3.08
17471,3.73
17483,4.36
17495,5.02
17507,5.77
17519,6.64
17531,7.61
17543,8.6
17555,9.5
17567,10.2
17579,10.6
17590,10.63
17601,10.32
17613,9.73
17625,8.97
17637,8.11
17649,7.24
17661,6.39
17673,5.59
17685,4.85
17697,4.18
17709,3.58
17721,3.05
17733,2.59
17745,2.15
17757,1.68
17769,1.1
17780,0.38
17791,-0.49
17803,-1.5
17815,-2.58
17827,-3.71
17839,-4.88
17851,-6.13
17863,-7.49
17875,-8.98
17887,-10.55
17899,-12.1
17911,-13.54
17923,-14.79
17935,-15.78
17947,-16.46
17959,-16.68
17970,-16.29
17981,-15.12
17993,-13.11
18005,-10.35
18017,-7.07
18029,-3.61
18041,-0.25
18053,2.82
18065,5.5
18077,7.73
18089,9.46
18101,10.61
18113,11.13
18125,11.08
18137,10.56
18149,9.74
18160,8.79
18171,7.85
18183,7.03
18195,6.4
18207,5.99
18219,5.83
18231,5.86
18243,6.0
18255,6.13
18267,6.18
18279,6.06
18291,5.76
18303,5.27
18315,4.64
18327,3.92
18339,3.19
18350,2.47
18361,1.79
18373,1.15
18385,0.52
18397,-0.11
18409,-0.75
18421,-1.44
18433,-2.23
18445,-3.18
18457,-4.32
18469,-5.56
18481,-6.73
18493,-7.66
18505,-8.25
18517,-8.53
18529,-8.67
18540,-8.86
18551,-9.22
18563,-9.72
18575,-10.26
18587,-10.69
18599,-10.95
18611,-11.1
18623,-11.25
18635,-11.54
18647,-12.08
18659,-12.9
18671,-13.95
18683,-15.1
18695,-16.15
18707,-16.82
18719,-16.83
18730,-15.98
18741,-14.2
18753,-11.58
18765,-8.42
18777,-5.06
18789,-1.86
18801,0.94
18813,3.25
18825,5.04
18837,6.35
18849,7.15
18861,7.38
18873,7.02
18885,6.15
18897,4.99
18909,3.82
18920,2.93
18931,2.47
18943,2.41
18955,2.62
18967,2.95
18979,3.31
18991,3.74
19003,4.26
19015,4.83
19027,5.34
19039,5.61
19051,5.52
19063,5.1
19075,4.45
19087,3.75
19099,3.16
19110,2.7
19121,2.32
19133,1.94
19145,1.5
19157,1.02
19169,0.56
19181,0.21
19193,0.02
19205,-0.04
19217,0.03
19229,0.2
19241,0.45
19253,0.76
19265,1.07
19277,1.34
19289,1.49
19300,1.48
19311,1.33
19323,1.07
19335,0.78
19347,0.49
19359,0.2
19371,-0.08
19383,-0.36
19395,-0.59
19407,-0.76
19419,-0.88
19431,-1.04
19443,-1.34
19455,-1.82
19467,-2.38
19479,-2.77
19490,-2.69
19501,-1.89
19513,-0.31
19525,1.82
19537,4.14
19549,6.25
19561,7.87
19573,8.94
19585,9.55
19597,9.83
19609,9.86
19621,9.6
19633,8.94
19645,7.77
19657,6.11
19669,4.15
19680,2.25
19691,0.75
19703,-0.11
19715,-0.34
19727,-0.16
19739,0.15
19751,0.37
19763,0.5
19775,0.63
19787,0.89
19799,1.3
19811,1.75
19823,2.05
19835,2.09
19847,1.87
19859,1.5
19870,1.07
19881,0.62
19893,0.15
19905,-0.39
19917,-1.03
19929,-1.72
19941,-2.37
19953,-2.93
19965,-3.37
19977,-3.7
19989,-3.93
20001,-4.08
20013,-4.16
20025,-4.16
20037,-4.08
20049,-3.96
20060,-3.82
20071,-3.7
20083,-3.68
20095,-3.82
20107,-4.17
20119,-4.72
20131,-5.42
20143,-6.13
20155,-6.77
20167,-7.3
20179,-7.78
20191,-8.34
20203,-9.08
20215,-9.95
20227,-10.79
20239,-11.31
20250,-11.26
20261,-10.45
20273,-8.83
20285,-6.45
20297,-3.42
20309,0.1
20321,3.87
20333,7.54
20345,10.69
20357,12.94
20369,14.04
20381,14.01
20393,13.13
20405,11.78
20417,10.32
20429,8.98
20440,7.83
20451,6.85
20463,6.07
20475,5.52
20487,5.31
20499,5.51
20511,6.09
20523,6.96
20535,8.0
20547,9.08
20559,10.13
20571,11.14
20583,12.09
20595,12.95
20607,13.65
20619,14.07
20630,14.1
20641,13.7
20653,12.82
20665,11.53
20677,9.9
20689,8.06
20701,6.14
20713,4.27
20725,2.49
20737,0.84
20749,-0.69
20761,-2.14
20773,-3.54
20785,-4.94
20797,-6.35
20809,-7.84
20820,-9.39
20831,-10.95
20843,-12.4
20855,-13.59
20867,-14.44
20879,-14.99
20891,-15.35
20903,-15.62
20915,-15.78
20927,-15.65
20939,-14.95
20951,-13.4
20963,-10.87
20975,-7.52
20987,-3.65
20999,0.3
