seconds,BVP
11,66.26
23,78.01
35,87.92
47,92.64
59,88.03
71,69.66
83,34.41
95,-14.59
107,-66.22
118,-106.22
129,-124.56
141,-120.27
153,-99.6
165,-71.01
177,-41.27
189,-12.83
201,14.87
213,43.07
225,70.98
237,95.91
249,114.59
261,124.72
273,128.7
285,127.11
297,121.21
308,111.69
319,98.19
331,78.81
343,50.9
355,12.21
367,-38.53
379,-99.88
391,-167.65
403,-234.65
415,-292.6
427,-334.37
439,-356.44
451,-359.88
463,-344.36
475,-314.29
487,-275.33
498,-232.92
509,-190.74
521,-151.2
533,-115.71
545,-84.78
557,-57.77
569,-32.52
581,-6.96
593,20.78
605,50.87
617,81.92
629,111.28
641,136.71
653,157.25
665,173.51
677,187.01
688,198.45
699,207.8
711,214.08
723,216.44
735,214.65
747,209.89
759,204.78
771,203.01
783,208.13
795,220.88
807,238.58
819,255.26
831,263.88
843,259.36
855,241.26
867,214.1
878,185.34
889,162.56
901,150.3
913,149.37
925,157.43
937,170.14
949,182.01
961,186.92
973,179.01
985,154.32
997,113.32
1009,62.02
1021,11.08
1033,-27.78
1045,-46.55
1057,-44.61
1068,-28.89
1079,-10.76
1091,-1.36
1103,-6.88
1115,-26.41
1127,-53.14
1139,-77.99
1151,-93.72
1163,-97.34
1175,-90.38
1187,-76.62
1199,-59.93
1211,-42.72
1223,-26.31
1235,-12.24
1247,-3.12
1258,-2.39
1269,-12.57
1281,-33.58
1293,-61.99
1305,-92.14
1317,-117.91
1329,-134.96
1341,-141.97
1353,-140.1
1365,-132.12
1377,-120.56
1389,-106.8
1401,-91.01
1413,-73.1
1425,-53.48
1437,-33.91
1448,-17.62
1459,-7.45
1471,-4.52
1483,-7.0
1495,-10.37
1507,-9.49
1519,-1.44
1531,12.98
1543,29.77
1555,43.87
1567,52.19
1579,54.82
1591,54.68
1603,55.23
1615,57.81
1627,60.25
1638,57.74
1649,45.37
1661,21.33
1673,-11.05
1685,-44.24
1697,-69.21
1709,-79.36
1721,-73.42
1733,-55.76
1745,-34.36
1757,-17.44
1769,-10.01
1781,-12.35
1793,-20.73
1805,-29.62
1817,-34.19
1828,-32.34
1839,-24.74
1851,-13.99
1863,-3.38
1875,4.65
1887,9.29
1899,11.28
1911,12.53
1923,15.13
1935,20.22
1947,27.48
1959,35.18
1971,41.12
1983,43.86
1995,43.19
2007,39.9
2018,34.74
2029,27.64
2041,17.76
2053,4.64
2065,-10.45
2077,-24.17
2089,-31.99
2101,-30.64
2113,-19.93
2125,-3.53
2137,12.42
2149,21.64
2161,20.24
2173,8.01
2185,-11.66
2197,-32.96
2208,-49.64
2219,-57.03
2231,-53.66
2243,-41.81
2255,-26.64
2267,-13.75
2279,-6.6
2291,-5.08
2303,-6.1
2315,-6.11
2327,-3.69
2339,-0.33
2351,1.08
2363,-1.17
2375,-5.95
2387,-10.16
2398,-11.75
2409,-11.82
2421,-14.97
2433,-26.55
2445,-48.76
2457,-78.48
2469,-107.97
2481,-128.76
2493,-135.72
2505,-129.72
2517,-116.77
2529,-105.25
2541,-102.55
2553,-112.88
2565,-136.64
2577,-170.39
2588,-207.58
2599,-239.21
2611,-256.24
2623,-252.04
2635,-225.34
2647,-181.17
2659,-129.34
2671,-81.05
2683,-44.1
2695,-20.22
2707,-4.47
2719,11.77
2731,36.83
2743,75.32
2755,127.03
2767,188.39
2778,254.45
2789,320.82
2801,383.76
2813,440.07
2825,486.13
2837,518.74
2849,536.76
2861,541.94
2873,538.42
2885,530.19
2897,518.15
2909,498.37
2921,465.09
2933,413.01
2945,341.33
2957,255.34
2968,164.31
2979,77.64
2991,1.44
3003,-62.78
3015,-117.62
3027,-164.43
3039,-203.93
3051,-235.34
3063,-257.22
3075,-269.4
3087,-273.97
3099,-274.88
3111,-276.87
3123,-285.48
3135,-301.88
3147,-326.49
3158,-357.16
3169,-388.76
3181,-413.81
3193,-423.95
3205,-412.29
3217,-376.13
3229,-320.13
3241,-250.28
3253,-176.88
3265,-108.94
3277,-51.2
3289,-3.57
3301,37.33
3313,75.22
3325,122.61
3337,162.48
3348,192.12
3359,206.44
3371,202.61
3383,181.19
3395,145.62
3407,101.0
3419,52.99
3431,6.84
3443,-34.57
3455,-65.74
3467,-85.34
3479,-94.93
3491,-98.66
3503,-101.62
3515,-107.3
3527,-115.56
3538,-123.31
3549,-128.12
3561,-127.46
3573,-124.4
3585,-124.42
3597,-131.3
3609,-143.55
3621,-154.05
3633,-153.29
3645,-135.02
3657,-100.71
3669,-56.99
3681,-14.49
3693,18.6
3705,40.3
3717,55.03
3728,70.01
3739,90.82
3751,118.33
3763,148.83
3775,178.03
3787,202.95
3799,223.97
3811,243.71
3823,264.57
3835,286.23
3847,305.39
3859,317.08
3871,317.51
3883,305.96
3895,284.32
3907,255.96
3918,223.82
3929,189.58
3941,153.73
3953,116.57
3965,78.72
3977,41.52
3989,7.31
4001,-20.38
4013,-36.42
4025,-35.5
4037,-14.3
4049,25.32
4061,74.79
4073,120.59
4085,148.82
4097,150.65
4108,126.21
4119,84.92
4131,41.37
4143,9.35
4155,-3.53
4167,2.0
4179,18.89
4191,37.65
4203,50.24
4215,52.27
4227,43.94
4239,28.64
4251,11.1
4263,-4.9
4275,-18.6
4287,-31.9
4298,-47.7
4309,-68.52
4321,-95.1
4333,-125.35
4345,-155.63
4357,-182.55
4369,-204.35
4381,-222.33
4393,-238.21
4405,-251.32
4417,-259.89
4429,-261.67
4441,-254.91
4453,-240.38
4465,-222.33
4477,-207.38
4488,-204.04
4499,-217.06
4511,-243.05
4523,-275.48
4535,-307.35
4547,-332.21
4559,-346.76
4571,-352.08
4583,-352.48
4595,-356.51
4607,-370.07
4619,-390.76
4631,-415.44
4643,-441.42
4655,-464.41
4667,-479.28
4678,-481.51
4689,-468.01
4701,-442.36
4713,-409.07
4725,-367.41
4737,-320.18
4749,-272.88
4761,-228.89
4773,-189.12
4785,-153.11
4797,-96.36
4809,-11.71
4821,60.02
4833,101.54
4845,115.99
4857,104.5
4868,73.42
4879,35.12
4891,4.43
4903,-6.94
4915,0.23
4927,17.06
4939,36.2
4951,48.84
4963,50.48
4975,46.27
4987,47.0
4999,61.81
5011,92.4
5023,129.45
5035,161.2
5047,183.99
5058,198.08
5069,207.0
5081,216.49
5093,230.18
5105,247.23
5117,263.08
5129,270.67
5141,266.39
5153,254.49
5165,241.09
5177,231.89
5189,231.04
5201,239.32
5213,253.95
5225,269.72
5237,280.6
5248,282.68
5259,276.99
5271,266.3
5283,253.64
5295,241.46
5307,231.0
5319,222.85
5331,217.56
5343,215.99
5355,218.71
5367,225.02
5379,230.99
5391,230.54
5403,218.43
5415,193.43
5427,159.52
5438,124.12
5449,94.78
5461,75.67
5473,66.68
5485,64.68
5497,65.96
5509,68.04
5521,69.54
5533,69.36
5545,65.67
5557,56.94
5569,43.3
5581,27.57
5593,14.57
5605,8.73
5617,12.17
5628,23.36
5639,38.41
5651,52.86
5663,63.42
5675,68.3
5687,67.54
5699,63.05
5711,58.28
5723,57.67
5735,64.84
5747,80.7
5759,102.26
5771,123.61
5783,138.56
5795,143.74
5807,140.56
5818,133.6
5829,127.7
5841,124.26
5853,120.37
5865,110.78
5877,91.61
5889,63.5
5901,31.57
5913,2.83
5925,-18.16
5937,-31.36
5949,-40.84
5961,-51.36
5973,-64.82
5985,-78.7
5997,-87.07
6008,-84.49
6019,-69.36
6031,-45.55
6043,-20.61
6055,-2.57
6067,3.35
6079,-3.89
6091,-21.93
6103,-46.53
6115,-72.94
6127,-96.4
6139,-112.71
6151,-118.92
6163,-114.54
6175,-102.33
6187,-87.28
6198,-74.9
6209,-68.39
6221,-67.46
6233,-68.62
6245,-67.26
6257,-60.19
6269,-47.07
6281,-30.31
6293,-13.17
6305,1.82
6317,13.8
6329,22.84
6341,28.8
6353,30.44
6365,25.9
6377,14.29
6388,-3.01
6399,-21.75
6411,-36.32
6423,-42.26
6435,-38.62
6447,-28.8
6459,-18.78
6471,-14.04
6483,-16.98
6495,-26.8
6507,-40.99
6519,-57.68
6531,-75.97
6543,-94.57
6555,-110.05
6567,-116.63
6578,-108.76
6589,-84.56
6601,-48.48
6613,-10.42
6625,18.2
6637,29.75
6649,23.97
6661,7.7
6673,-8.47
6685,-15.54
6697,-9.72
6709,6.81
6721,28.09
6733,48.08
6745,62.87
6757,71.63
6768,75.19
6779,74.79
6791,71.11
6803,64.56
6815,56.25
6827,48.38
6839,43.83
6851,44.42
6863,49.58
6875,55.68
6887,57.72
6899,51.61
6911,36.49
6923,15.29
6935,-7.16
6947,-26.61
6958,-41.6
6969,-53.57
6981,-65.46
6993,-79.44
7005,-95.33
7017,-110.63
7029,-121.63
7041,-125.72
7053,-122.41
7065,-113.47
7077,-101.62
7089,-89.27
7101,-77.94
7113,-68.34
7125,-60.85
7137,-55.28
7148,-50.5
7159,-44.04
7171,-32.79
7183,-14.51
7195,10.38
7207,38.39
7219,64.11
7231,82.6
7243,91.86
7255,93.32
7267,91.14
7279,89.67
7291,91.66
7303,97.83
7315,107.36
7327,118.72
7338,129.95
7349,138.78
7361,141.86
7373,135.9
7385,118.85
7397,91.66
7409,58.79
7421,26.6
7433,0.54
7445,-17.3
7457,-28.68
7469,-38.49
7481,-51.75
7493,-71.96
7505,-99.89
7517,-134.65
7528,-175.3
7539,-220.84
7551,-268.89
7563,-313.89
7575,-348.38
7587,-365.36
7599,-363.02
7611,-346.37
7623,-326.52
7635,-317.26
7647,-328.81
7659,-362.91
7671,-411.16
7683,-458.9
7695,-490.04
7707,-493.93
7718,-466.67
7729,-411.26
7741,-336.2
7753,-252.41
7765,-169.86
7777,-95.23
7789,-32.45
7801,18.34
7813,58.14
7825,90.92
7837,122.8
7849,160.22
7861,207.63
7873,266.68
7885,335.66
7897,408.6
7908,478.28
7919,523.11
7931,521.99
7943,466.92
7955,368.93
7967,249.57
7979,128.79
7991,24.02
8003,-65.75
8015,-143.0
8027,-210.0
8039,-266.72
8051,-312.5
8063,-344.96
8075,-364.54
8087,-373.3
8098,-373.24
8109,-366.2
8121,-351.84
8133,-329.95
8145,-299.62
8157,-260.1
8169,-212.15
8181,-158.83
8193,-103.94
8205,-50.29
8217,0.19
8229,47.75
8241,92.41
8253,134.22
8265,173.08
8277,208.07
8288,236.92
8299,257.63
8311,269.88
8323,275.33
8335,278.72
8347,285.48
8359,300.05
8371,323.52
8383,351.87
8395,376.36
8407,387.44
8419,379.73
8431,354.82
8443,322.44
8455,295.56
8467,284.76
8478,294.18
8489,319.69
8501,350.9
8513,375.66
8525,384.23
8537,370.67
8549,334.95
8561,281.42
8573,217.78
8585,155.78
8597,107.72
8609,81.9
8621,78.51
8633,88.63
8645,96.69
8657,90.4
8668,65.64
8679,28.53
8691,-5.45
8703,-21.25
8715,-12.1
8727,16.43
8739,49.89
8751,70.37
8763,69.32
8775,48.2
8787,15.75
8799,-13.78
8811,-28.5
8823,-22.14
8835,5.64
8847,52.37
8858,112.5
8869,185.26
8881,269.51
8893,339.82
8905,368.82
8917,337.27
8929,245.42
8941,110.79
8953,-28.32
8965,-164.29
8977,-293.58
8989,-412.3
9001,-517.35
9013,-601.62
9025,-657.51
9037,-680.75
9048,-672.13
9059,-627.96
9071,-553.23
9083,-455.96
9095,-348.47
9107,-244.61
9119,-152.42
9131,-74.92
9143,-12.22
9155,35.66
9167,68.7
9179,84.33
9191,84.28
9203,73.09
9215,56.08
9227,39.69
9238,28.57
9249,25.03
9261,27.73
9273,33.34
9285,36.16
9297,33.38
9309,25.71
9321,15.39
9333,6.01
9345,0.18
9357,-0.73
9369,2.22
9381,6.66
9393,11.04
9405,12.05
9417,9.85
9428,6.15
9439,3.19
9451,2.29
9463,3.28
9475,3.81
9487,0.36
9499,-10.84
9511,-32.27
9523,-62.84
9535,-99.78
9547,-139.26
9559,-177.41
9571,-209.65
9583,-232.47
9595,-243.57
9607,-242.32
9618,-231.07
9629,-212.12
9641,-188.98
9653,-164.15
9665,-138.43
9677,-109.27
9689,-74.99
9701,-35.26
9713,9.05
9725,47.47
9737,74.19
9749,86.91
9761,88.54
9773,85.97
9785,90.22
9797,108.8
9808,145.16
9819,197.96
9831,262.39
9843,333.3
9855,404.05
9867,467.22
9879,514.66
9891,542.03
9903,544.07
9915,518.73
9927,467.84
9939,397.58
9951,318.9
9963,243.58
9975,182.58
9987,122.69
9998,62.37
10009,6.2
10021,-37.37
10033,-64.22
10045,-76.28
10057,-77.27
10069,-70.9
10081,-58.25
10093,-40.81
10105,-12.87
10117,19.0
10129,46.94
10141,64.52
10153,69.04
10165,63.25
10177,53.06
10188,47.7
10199,54.15
10211,77.47
10223,109.48
10235,142.91
10247,170.83
10259,187.45
10271,189.57
10283,165.21
10295,113.66
10307,44.85
10319,-25.12
10331,-85.48
10343,-138.84
10355,-189.38
10367,-241.08
10378,-290.2
10389,-333.41
10401,-365.75
10413,-384.01
10425,-387.16
10437,-377.68
10449,-358.61
10461,-332.48
10473,-301.93
10485,-269.02
10497,-236.02
10509,-203.24
10521,-171.6
10533,-142.89
10545,-119.7
10557,-103.23
10568,-92.53
10579,-85.7
10591,-80.42
10603,-75.38
10615,-68.87
10627,-60.32
10639,-50.39
10651,-40.42
10663,-31.27
10675,-22.79
10687,-14.64
10699,-6.35
10711,1.79
10723,9.85
10735,17.43
10747,23.74
10758,28.05
10769,30.23
10781,31.2
10793,32.31
10805,34.65
10817,38.23
10829,42.26
10841,45.29
10853,45.83
10865,43.22
10877,37.93
10889,31.32
10901,24.86
10913,19.46
10925,15.25
10937,11.98
10948,9.4
10959,7.47
10971,6.24
10983,5.38
10995,3.86
11007,0.22
11019,-6.88
11031,-17.82
11043,-31.54
11055,-45.63
11067,-57.1
11079,-63.17
11091,-62.46
11103,-55.28
11115,-43.45
11127,-29.63
11138,-16.38
11149,-5.31
11161,3.19
11173,9.71
11185,15.41
11197,21.13
11209,27.17
11221,33.12
11233,38.24
11245,41.87
11257,43.82
11269,44.45
11281,44.65
11293,45.42
11305,47.48
11317,51.06
11328,55.7
11339,60.5
11351,64.61
11363,67.66
11375,70.03
11387,72.67
11399,76.72
11411,82.88
11423,91.24
11435,101.13
11447,111.37
11459,120.68
11471,127.87
11483,132.01
11495,132.51
11507,129.35
11518,123.02
11529,114.54
11541,104.96
11553,94.64
11565,82.94
11577,68.1
11589,48.02
11601,20.97
11613,-13.29
11625,-53.32
11637,-96.1
11649,-138.14
11661,-176.57
11673,-209.7
11685,-237.47
11697,-260.83
11708,-281.37
11719,-300.37
11731,-318.41
11743,-334.81
11755,-347.56
11767,-353.66
11779,-349.93
11791,-334.2
11803,-306.21
11815,-267.96
11827,-223.21
11839,-176.27
11851,-130.94
11863,-90.05
11875,-55.6
11887,-29.27
11898,-12.53
11909,-5.72
11921,-7.09
11933,-12.45
11945,-15.91
11957,-11.85
11969,3.01
11981,28.1
11993,59.42
12005,90.83
12017,116.07
12029,130.43
12041,131.6
12053,120.1
12065,99.01
12077,73.47
12088,49.25
12099,31.63
12111,23.84
12123,26.43
12135,37.52
12147,53.62
12159,70.95
12171,86.1
12183,96.51
12195,100.38
12207,96.87
12219,86.42
12231,71.22
12243,54.9
12255,41.7
12267,35.19
12278,36.78
12289,45.57
12301,58.83
12313,73.27
12325,86.35
12337,97.07
12349,105.79
12361,113.25
12373,119.59
12385,123.82
12397,124.17
12409,119.02
12421,107.81
12433,91.66
12445,72.96
12457,54.69
12468,39.4
12479,28.55
12491,22.49
12503,20.75
12515,22.54
12527,27.02
12539,33.59
12551,41.55
12563,49.99
12575,57.68
12587,63.14
12599,65.09
12611,62.88
12623,56.77
12635,47.87
12647,37.9
12658,28.36
12669,20.21
12681,13.53
12693,7.73
12705,2.03
12717,-3.98
12729,-10.19
12741,-15.91
12753,-20.22
12765,-22.32
12777,-21.94
12789,-19.34
12801,-15.3
12813,-10.81
12825,-6.83
12837,-3.99
12848,-2.47
12859,-2.11
12871,-2.51
12883,-3.23
12895,-3.94
12907,-4.5
12919,-4.9
12931,-5.27
12943,-5.71
12955,-6.25
12967,-6.85
12979,-7.44
12991,-7.88
13003,-8.11
13015,-8.23
13027,-8.42
13038,-8.98
13049,-10.08
13061,-11.68
13073,-13.46
13085,-15.08
13097,-16.22
13109,-16.74
13121,-16.82
13133,-16.66
13145,-16.41
13157,-16.02
13169,-15.37
13181,-14.38
13193,-13.18
13205,-12.04
13217,-11.24
13228,-10.85
13239,-10.7
13251,-10.34
13263,-9.34
13275,-7.52
13287,-5.05
13299,-2.39
13311,-0.09
13323,1.49
13335,2.48
13347,3.61
13359,5.87
13371,10.22
13383,16.86
13395,25.09
13407,33.33
13418,39.56
13429,42.12
13441,40.2
13453,34.36
13465,26.3
13477,18.57
13489,13.58
13501,12.89
13513,16.81
13525,24.25
13537,33.36
13549,42.12
13561,49.02
13573,53.38
13585,55.29
13597,55.39
13608,54.61
13619,54.14
13631,55.23
13643,59.09
13655,66.2
13667,75.9
13679,86.39
13691,95.05
13703,99.3
13715,97.26
13727,88.1
13739,71.69
13751,48.09
13763,17.2
13775,-21.1
13787,-66.41
13798,-117.52
13809,-172.6
13821,-229.71
13833,-287.12
13845,-343.31
13857,-396.26
13869,-442.97
13881,-479.19
13893,-500.03
13905,-501.2
13917,-480.13
13929,-436.64
13941,-372.89
13953,-292.68
13965,-201.07
13977,-104.38
13988,-10.28
13999,72.89
14011,137.91
14023,180.99
14035,203.37
14047,211.06
14059,212.66
14071,215.81
14083,224.06
14095,235.94
14107,246.48
14119,250.22
14131,243.45
14143,224.82
14155,194.44
14167,152.59
14178,99.31
14189,35.17
14201,-37.12
14213,-111.44
14225,-177.98
14237,-225.13
14249,-242.43
14261,-223.75
14273,-169.52
14285,-87.0
14297,11.24
14309,110.48
14321,196.85
14333,260.24
14345,295.69
14357,303.92
14368,290.53
14379,264.45
14391,235.87
14403,213.62
14415,203.11
14427,204.5
14439,213.16
14451,221.67
14463,223.02
14475,212.99
14487,190.77
14499,158.55
14511,119.73
14523,78.07
14535,36.91
14547,-0.78
14558,-32.49
14569,-56.49
14581,-72.49
14593,-82.1
14605,-88.19
14617,-93.97
14629,-101.74
14641,-112.13
14653,-124.15
14665,-135.86
14677,-145.17
14689,-150.47
14701,-151.06
14713,-147.0
14725,-139.11
14737,-128.85
14748,-117.93
14759,-107.71
14771,-98.7
14783,-90.27
14795,-81.07
14807,-69.74
14819,-55.51
14831,-38.5
14843,-19.54
14855,0.26
14867,19.84
14879,38.3
14891,54.65
14903,67.67
14915,76.1
14927,79.27
14938,77.5
14949,72.16
14961,65.19
14973,58.37
14985,52.73
14997,48.45
15009,45.09
15021,42.08
15033,39.18
15045,36.47
15057,34.4
15069,33.49
15081,34.06
15093,36.05
15105,39.09
15117,42.35
15128,44.59
15139,44.24
15151,39.58
15163,29.36
15175,13.2
15187,-7.8
15199,-31.01
15211,-52.4
15223,-67.25
15235,-71.54
15247,-63.3
15259,-43.84
15271,-17.76
15283,8.01
15295,26.2
15307,31.59
15318,22.48
15329,1.24
15341,-26.74
15353,-54.79
15365,-76.9
15377,-89.0
15389,-89.54
15401,-79.39
15413,-61.43
15425,-39.8
15437,-18.97
15449,-2.65
15461,7.14
15473,10.38
15485,8.71
15497,4.7
15508,0.81
15519,-1.18
15531,-0.46
15543,2.89
15555,8.16
15567,14.18
15579,19.63
15591,23.31
15603,24.63
15615,23.77
15627,21.71
15639,19.62
15651,18.24
15663,17.58
15675,16.81
15687,15.03
15698,11.71
15709,7.09
15721,2.03
15733,-2.4
15745,-5.42
15757,-6.74
15769,-6.41
15781,-4.81
15793,-2.36
15805,0.48
15817,3.2
15829,5.27
15841,6.23
15853,5.87
15865,4.25
15877,1.97
15888,-0.18
15899,-1.34
15911,-0.94
15923,1.03
15935,3.92
15947,6.59
15959,7.85
15971,6.87
15983,3.66
15995,-1.07
16007,-6.11
16019,-10.37
16031,-13.28
16043,-15.04
16055,-16.42
16067,-18.4
16078,-21.61
16089,-26.07
16101,-31.18
16113,-35.78
16125,-38.71
16137,-39.02
16149,-36.27
16161,-30.59
16173,-22.63
16185,-13.31
16197,-3.65
16209,5.51
16221,13.76
16233,21.07
16245,27.69
16257,33.88
16268,39.65
16279,44.71
16291,48.44
16303,50.26
16315,49.75
16327,46.93
16339,42.22
16351,36.34
16363,30.21
16375,24.76
16387,20.84
16399,18.92
16411,19.09
16423,20.89
16435,23.52
16447,25.98
16458,27.56
16469,28.09
16481,27.87
16493,27.71
16505,28.36
16517,30.27
16529,33.52
16541,37.75
16553,42.47
16565,47.31
16577,52.32
16589,57.71
16601,63.9
16613,71.15
16625,79.41
16637,88.47
16648,98.01
16659,107.95
16671,118.5
16683,130.19
16695,143.41
16707,158.17
16719,173.73
16731,188.84
16743,202.02
16755,211.96
16767,217.86
16779,219.43
16791,216.88
16803,210.53
16815,200.83
16827,188.26
16838,173.44
16849,157.24
16861,140.53
16873,124.05
16885,108.24
16897,93.37
16909,80.0
16921,69.26
16933,62.7
16945,61.86
16957,67.58
16969,79.18
16981,94.32
16993,109.36
17005,120.34
17017,124.1
17028,119.1
17039,105.49
17051,84.78
17063,59.2
17075,30.96
17087,1.76
17099,-27.61
17111,-57.08
17123,-86.96
17135,-117.31
17147,-147.57
17159,-176.59
17171,-202.69
17183,-224.24
17195,-239.94
17207,-249.14
17218,-251.84
17229,-248.55
17241,-239.98
17253,-226.82
17265,-210.43
17277,-192.06
17289,-172.96
17301,-154.55
17313,-138.58
17325,-127.03
17337,-121.27
17349,-121.42
17361,-126.45
17373,-135.81
17385,-149.51
17397,-168.14
17408,-191.73
17419,-218.77
17431,-245.31
17443,-265.16
17455,-271.73
17467,-260.6
17479,-232.71
17491,-191.85
17503,-142.13
17515,-86.38
17527,-26.81
17539,33.61
17551,90.25
17563,137.55
17575,171.12
17587,186.16
17598,184.83
17609,177.36
17621,177.6
17633,194.87
17645,229.1
17657,271.48
17669,308.95
17681,329.61
17693,318.23
17705,269.87
17717,193.44
17729,107.0
17741,27.1
17753,-38.12
17765,-88.87
17777,-130.16
17788,-167.59
17799,-218.89
17811,-294.08
17823,-388.72
17835,-487.48
17847,-576.55
17859,-650.5
17871,-710.7
17883,-760.52
17895,-802.23
17907,-855.07
17919,-931.51
17931,-1028.72
17943,-1131.67
17955,-1227.04
17967,-1310.13
17978,-1383.3
17989,-1450.07
18001,-1395.73
18013,-1163.26
18025,-790.52
18037,-384.26
18049,-32.74
18061,233.02
18073,421.16
18085,551.71
18097,644.71
18109,716.31
18121,759.31
18133,768.62
18145,751.95
18157,727.82
18168,712.15
18179,712.66
18191,727.03
18203,749.03
18215,772.44
18227,778.13
18239,753.35
18251,699.31
18263,628.98
18275,550.17
18287,474.27
18299,406.94
18311,350.3
18323,305.03
18335,262.14
18347,215.15
18358,164.96
18369,118.69
18381,83.09
18393,61.11
18405,50.59
18417,47.96
18429,50.01
18441,50.11
18453,44.0
18465,31.89
18477,17.63
18489,5.41
18501,-2.15
18513,-5.41
18525,-5.65
18537,-4.06
18548,-3.14
18559,-4.53
18571,-8.13
18583,-12.53
18595,-16.17
18607,-17.96
18619,-18.15
18631,-17.29
18643,-15.9
18655,-14.4
18667,-13.02
18679,-11.83
18691,-10.85
18703,-9.88
18715,-8.79
18727,-7.66
18738,-6.59
18749,-5.54
18761,-4.57
18773,-3.77
18785,-3.23
18797,-3.12
18809,-3.45
18821,-4.68
18833,-7.4
18845,-12.15
18857,-19.19
18869,-28.65
18881,-40.29
18893,-53.43
18905,-67.89
18917,-81.37
18928,-92.09
18939,-98.44
18951,-99.14
18963,-93.4
18975,-81.28
18987,-63.57
18999,-41.8
19011,-17.91
19023,6.09
19035,27.98
19047,45.86
19059,58.46
19071,65.44
19083,67.18
19095,64.7
19107,59.2
19118,51.79
19129,43.89
19141,36.3
19153,29.69
19165,24.31
19177,20.37
19189,18.04
19201,17.41
19213,18.34
19225,20.49
19237,23.73
19249,27.73
19261,32.03
19273,36.07
19285,39.64
19297,42.78
19308,45.59
19319,47.88
19331,49.42
19343,50.35
19355,50.9
19367,50.73
19379,49.78
19391,48.75
19403,48.94
19415,51.75
19427,57.25
19439,64.83
19451,73.82
19463,83.27
19475,90.77
19487,94.65
19498,94.7
19509,92.25
19521,89.57
19533,87.04
19545,84.35
19557,81.41
19569,77.72
19581,70.13
19593,56.19
19605,34.9
19617,10.49
19629,-12.67
19641,-34.5
19653,-56.66
19665,-80.83
19677,-108.9
19688,-145.26
19699,-191.98
19711,-247.19
19723,-305.54
19735,-358.52
19747,-401.81
19759,-432.59
19771,-448.32
19783,-425.56
19795,-353.66
19807,-239.81
19819,-106.32
19831,7.82
19843,99.89
19855,174.61
19867,237.86
19878,297.38
19889,355.12
19901,407.66
19913,451.81
19925,485.83
19937,507.83
19949,518.94
19961,516.94
19973,500.05
19985,469.03
19997,422.68
20009,357.69
20021,273.04
20033,170.64
20045,52.62
20057,-73.88
20068,-201.59
20079,-321.13
20091,-420.91
20103,-495.39
20115,-544.37
20127,-569.63
20139,-574.69
20151,-567.77
20163,-555.14
20175,-542.98
20187,-535.12
20199,-530.78
20211,-532.76
20223,-542.54
20235,-557.54
20247,-545.1
20258,-487.8
20269,-391.01
20281,-281.79
20293,-207.74
20305,-171.47
20317,-165.64
20329,-181.68
20341,-204.58
20353,-225.39
20365,-242.68
20377,-255.84
20389,-263.17
20401,-260.6
20413,-240.77
20425,-202.89
20437,-149.62
20448,-84.87
20459,-14.27
20471,53.46
20483,111.94
20495,158.94
20507,196.23
20519,229.36
20531,259.41
20543,285.12
20555,304.6
20567,315.04
20579,312.21
20591,294.01
20603,261.72
20615,219.96
20627,176.39
20638,136.16
20649,102.09
20661,75.91
20673,57.59
20685,45.07
20697,36.61
20709,31.66
20721,31.29
20733,38.19
20745,54.43
20757,78.82
20769,109.67
20781,143.89
20793,177.36
20805,207.14
20817,232.83
20828,257.15
20839,284.87
20851,321.43
20863,365.2
20875,412.76
20887,457.59
20899,492.41
20911,511.62
20923,512.53
20935,495.37
20947,462.54
20959,421.18
20971,373.72
20983,327.75
20995,291.36
