seconds,BVP
5,-38.48
16,-33.89
28,-27.19
40,-18.93
52,-9.89
64,-0.89
76,7.37
88,14.42
100,20.03
112,24.14
124,26.8
136,28.16
148,28.38
160,27.77
172,26.68
184,25.47
195,24.39
206,23.51
218,22.78
230,22.1
242,21.42
254,20.76
266,20.19
278,19.74
290,19.4
302,19.04
314,18.53
326,17.74
338,16.59
350,15.13
362,13.45
374,11.71
385,9.98
396,8.26
408,6.41
420,4.28
432,1.8
444,-0.93
456,-3.69
468,-6.25
480,-8.49
492,-10.5
504,-12.45
516,-14.48
528,-16.65
540,-18.89
552,-21.17
564,-23.53
575,-26.16
586,-29.23
598,-32.74
610,-36.41
622,-39.64
634,-41.72
646,-42.02
658,-40.21
670,-36.28
682,-30.51
694,-23.39
706,-15.47
718,-7.36
730,0.36
742,7.23
754,12.97
765,17.4
776,20.59
788,22.61
800,23.57
812,23.53
824,22.5
836,20.6
848,18.1
860,15.38
872,12.89
884,11.01
896,9.91
908,9.59
920,9.93
932,10.72
944,11.76
955,12.84
966,13.74
978,14.22
990,14.19
1002,13.62
1014,12.61
1026,11.28
1038,9.71
1050,7.91
1062,5.78
1074,3.27
1086,0.4
1098,-2.67
1110,-5.66
1122,-8.31
1134,-10.46
1145,-12.13
1156,-13.52
1168,-15.0
1180,-16.94
1192,-19.6
1204,-22.94
1216,-26.69
1228,-30.28
1240,-33.05
1252,-34.41
1264,-33.93
1276,-31.43
1288,-26.94
1300,-20.7
1312,-13.12
1324,-4.82
1335,3.48
1346,11.05
1358,17.29
1370,21.92
1382,24.94
1394,26.57
1406,27.13
1418,26.84
1430,25.9
1442,24.43
1454,22.59
1466,20.57
1478,18.56
1490,16.72
1502,15.18
1514,13.97
1525,13.11
1536,12.59
1548,12.38
1560,12.38
1572,12.45
1584,12.42
1596,12.14
1608,11.52
1620,10.47
1632,8.96
1644,6.91
1656,4.36
1668,1.4
1680,-1.79
1692,-4.92
1704,-7.76
1715,-10.17
1726,-12.21
1738,-14.07
1750,-16.03
1762,-18.27
1774,-20.91
1786,-23.91
1798,-27.25
1810,-30.84
1822,-34.6
1834,-38.37
1846,-41.81
1858,-44.42
1870,-45.56
1882,-44.73
1894,-41.63
1905,-36.32
1916,-29.16
1928,-20.74
1940,-11.76
1952,-2.89
1964,5.26
1976,12.31
1988,18.01
2000,22.35
2012,25.38
2024,27.2
2036,27.9
2048,27.61
2060,26.5
2072,24.85
2084,22.99
2095,21.26
2106,19.86
2118,18.86
2130,18.16
2142,17.66
2154,17.3
2166,17.06
2178,17.01
2190,17.15
2202,17.46
2214,17.8
2226,17.96
2238,17.63
2250,16.59
2262,14.71
2274,12.03
2285,8.77
2296,5.2
2308,1.54
2320,-2.09
2332,-5.71
2344,-9.27
2356,-12.69
2368,-15.73
2380,-18.19
2392,-20.03
2404,-21.46
2416,-22.93
2428,-24.98
2440,-28.0
2452,-32.06
2464,-36.86
2475,-41.75
2486,-45.9
2498,-48.51
2510,-48.97
2522,-46.94
2534,-42.46
2546,-35.86
2558,-27.69
2570,-18.58
2582,-9.16
2594,0.04
2606,8.55
2618,15.97
2630,21.98
2642,26.39
2654,29.11
2665,30.34
2676,30.41
2688,29.74
2700,28.76
2712,27.71
2724,26.65
2736,25.53
2748,24.31
2760,23.06
2772,21.97
2784,21.28
2796,21.13
2808,21.47
2820,22.07
2832,22.51
2844,22.41
2855,21.51
2866,19.83
2878,17.58
2890,15.13
2902,12.77
2914,10.71
2926,8.9
2938,7.14
2950,5.17
2962,2.81
2974,-0.02
2986,-3.23
2998,-6.61
3010,-9.95
3022,-13.08
3034,-15.98
3045,-18.66
3056,-21.24
3068,-23.81
3080,-26.44
3092,-29.19
3104,-31.96
3116,-34.54
3128,-36.5
3140,-37.26
3152,-36.22
3164,-32.97
3176,-27.49
3188,-20.14
3200,-11.63
3212,-2.73
3224,5.88
3235,13.69
3246,20.37
3258,25.71
3270,29.52
3282,31.7
3294,32.3
3306,31.53
3318,29.79
3330,27.49
3342,24.99
3354,22.56
3366,20.35
3378,18.48
3390,17.04
3402,16.11
3414,15.76
3425,15.92
3436,16.41
3448,16.92
3460,17.1
3472,16.64
3484,15.46
3496,13.6
3508,11.28
3520,8.78
3532,6.29
3544,3.9
3556,1.58
3568,-0.81
3580,-3.42
3592,-6.35
3604,-9.54
3615,-12.87
3626,-16.1
3638,-19.06
3650,-21.71
3662,-24.11
3674,-26.5
3686,-29.14
3698,-32.2
3710,-35.62
3722,-39.09
3734,-41.99
3746,-43.59
3758,-43.17
3770,-40.21
3782,-34.61
3794,-26.75
3805,-17.39
3816,-7.51
3828,1.98
3840,10.5
3852,17.78
3864,23.8
3876,28.61
3888,32.18
3900,34.4
3912,35.25
3924,34.85
3936,33.55
3948,31.79
3960,29.95
3972,28.28
3984,26.86
3995,25.69
4006,24.78
4018,24.2
4030,24.0
4042,24.12
4054,24.38
4066,24.49
4078,24.15
4090,23.14
4102,21.37
4114,18.89
4126,15.84
4138,12.4
4150,8.8
4162,5.29
4174,2.06
4185,-0.78
4196,-3.31
4208,-5.75
4220,-8.39
4232,-11.5
4244,-15.19
4256,-19.34
4268,-23.57
4280,-27.43
4292,-30.5
4304,-32.62
4316,-33.9
4328,-34.75
4340,-35.75
4352,-37.37
4364,-39.81
4375,-42.83
4386,-45.84
4398,-47.98
4410,-48.4
4422,-46.45
4434,-41.84
4446,-34.72
4458,-25.64
4470,-15.41
4482,-4.98
4494,4.81
4506,13.33
4518,20.21
4530,25.38
4542,28.93
4554,31.09
4565,32.03
4576,31.99
4588,31.2
4600,29.95
4612,28.58
4624,27.34
4636,26.36
4648,25.64
4660,25.07
4672,24.54
4684,23.98
4696,23.41
4708,22.89
4720,22.41
4732,21.93
4744,21.37
4755,20.71
4766,19.93
4778,19.05
4790,18.0
4802,16.67
4814,14.9
4826,12.66
4838,10.03
4850,7.22
4862,4.5
4874,1.99
4886,-0.32
4898,-2.57
4910,-4.95
4922,-7.54
4934,-10.33
4945,-13.2
4956,-16.01
4968,-18.56
4980,-20.79
4992,-22.68
5004,-24.33
5016,-25.99
5028,-27.9
5040,-30.2
5052,-32.89
5064,-35.75
5076,-38.37
5088,-40.28
5100,-40.98
5112,-40.05
5124,-37.17
5135,-32.23
5146,-25.34
5158,-16.94
5170,-7.71
5182,1.5
5194,9.91
5206,16.91
5218,22.22
5230,25.79
5242,27.79
5254,28.44
5266,28.0
5278,26.72
5290,24.87
5302,22.77
5314,20.73
5325,19.07
5336,17.98
5348,17.5
5360,17.48
5372,17.67
5384,17.78
5396,17.67
5408,17.37
5420,17.04
5432,16.81
5444,16.66
5456,16.39
5468,15.71
5480,14.43
5492,12.58
5504,10.43
5515,8.28
5526,6.28
5538,4.33
5550,2.17
5562,-0.43
5574,-3.48
5586,-6.79
5598,-9.97
5610,-12.7
5622,-14.89
5634,-16.7
5646,-18.48
5658,-20.63
5670,-23.43
5682,-26.97
5694,-31.09
5705,-35.47
5716,-39.56
5728,-42.73
5740,-44.39
5752,-44.08
5764,-41.6
5776,-37.08
5788,-30.85
5800,-23.42
5812,-15.34
5824,-7.1
5836,0.87
5848,8.21
5860,14.58
5872,19.76
5884,23.6
5895,26.11
5906,27.47
5918,27.94
5930,27.75
5942,27.13
5954,26.15
5966,24.94
5978,23.62
5990,22.42
6002,21.59
6014,21.3
6026,21.51
6038,22.02
6050,22.45
6062,22.46
6074,21.88
6085,20.77
6096,19.36
6108,17.83
6120,16.25
6132,14.51
6144,12.42
6156,9.88
6168,7.0
6180,4.09
6192,1.47
6204,-0.68
6216,-2.45
6228,-4.16
6240,-6.18
6252,-8.69
6264,-11.63
6275,-14.74
6286,-17.74
6298,-20.47
6310,-22.98
6322,-25.46
6334,-28.11
6346,-31.04
6358,-34.2
6370,-37.42
6382,-40.39
6394,-42.74
6406,-44.08
6418,-44.06
6430,-42.46
6442,-39.14
6454,-34.17
6465,-27.74
6476,-20.21
6488,-12.02
6500,-3.73
6512,4.09
6524,10.96
6536,16.6
6548,20.92
6560,24.04
6572,26.08
6584,27.15
6596,27.38
6608,26.9
6620,25.94
6632,24.86
6644,23.94
6655,23.33
6666,23.01
6678,22.81
6690,22.61
6702,22.36
6714,22.14
6726,21.99
6738,21.89
6750,21.7
6762,21.2
6774,20.28
6786,18.9
6798,17.15
6810,15.15
6822,12.98
6834,10.69
6845,8.34
6856,5.98
6868,3.7
6880,1.52
6892,-0.61
6904,-2.82
6916,-5.27
6928,-8.08
6940,-11.24
6952,-14.55
6964,-17.86
6976,-21.0
6988,-23.92
7000,-26.64
7012,-29.15
7024,-31.34
7035,-33.1
7046,-34.33
7058,-35.13
7070,-35.81
7082,-36.79
7094,-38.34
7106,-40.43
7118,-42.62
7130,-44.16
7142,-44.22
7154,-42.2
7166,-37.91
7178,-31.6
7190,-23.83
7202,-15.34
7214,-6.84
7225,1.11
7236,8.15
7248,14.13
7260,19.0
7272,22.75
7284,25.39
7296,26.94
7308,27.5
7320,27.24
7332,26.45
7344,25.44
7356,24.47
7368,23.68
7380,23.07
7392,22.63
7404,22.29
7415,22.07
7426,21.94
7438,21.86
7450,21.73
7462,21.32
7474,20.4
7486,18.79
7498,16.49
7510,13.63
7522,10.49
7534,7.29
7546,4.15
7558,1.04
7570,-2.16
7582,-5.54
7594,-9.09
7605,-12.69
7616,-16.16
7628,-19.35
7640,-22.22
7652,-24.85
7664,-27.39
7676,-30.01
7688,-32.77
7700,-35.68
7712,-38.61
7724,-41.45
7736,-44.18
7748,-46.87
7760,-49.7
7772,-52.77
7784,-55.94
7795,-58.82
7806,-60.84
7818,-61.39
7830,-60.11
7842,-56.9
7854,-51.99
7866,-45.76
7878,-38.61
7890,-31.0
7902,-23.35
7914,-16.22
7926,-10.11
7938,-5.49
7950,-2.52
7962,-0.99
7974,-0.42
7985,-0.25
7996,-0.04
8008,0.35
8020,0.86
8032,1.37
8044,1.79
8056,2.21
8068,2.86
8080,3.97
8092,5.76
8104,8.31
8116,11.57
8128,15.39
8140,19.49
8152,23.52
8164,27.09
8175,29.9
8186,31.79
8198,32.86
8210,33.36
8222,33.6
8234,33.84
8246,34.08
8258,34.15
8270,33.77
8282,32.71
8294,30.89
8306,28.45
8318,25.64
8330,22.62
8342,19.38
8354,15.69
8365,11.18
8376,5.52
8388,-1.38
8400,-9.32
8412,-17.7
8424,-25.61
8436,-31.97
8448,-35.73
8460,-36.14
8472,-32.91
8484,-26.27
8496,-16.94
8508,-5.93
8520,5.63
8532,16.71
8544,26.42
8555,34.18
8566,39.68
8578,42.95
8590,44.25
8602,44.05
8614,42.83
8626,41.06
8638,39.07
8650,37.02
8662,34.97
8674,32.89
8686,30.75
8698,28.58
8710,26.52
8722,24.76
8734,23.52
8745,22.91
8756,22.86
8768,23.15
8780,23.46
8792,23.42
8804,22.82
8816,21.57
8828,19.72
8840,17.43
8852,14.86
8864,12.07
8876,9.09
8888,5.82
8900,2.13
8912,-2.03
8924,-6.6
8935,-11.43
8946,-16.22
8958,-20.69
8970,-24.67
8982,-28.14
8994,-31.29
9006,-34.43
9018,-37.84
9030,-41.67
9042,-45.76
9054,-49.64
9066,-52.6
9078,-53.8
9090,-52.5
9102,-48.28
9114,-41.08
9125,-31.29
9136,-19.7
9148,-7.29
9160,4.92
9172,16.04
9184,25.43
9196,32.75
9208,37.94
9220,41.1
9232,42.45
9244,42.23
9256,40.71
9268,38.24
9280,35.24
9292,32.13
9304,29.28
9315,26.89
9326,24.99
9338,23.51
9350,22.35
9362,21.45
9374,20.88
9386,20.62
9398,20.61
9410,20.68
9422,20.57
9434,20.06
9446,19.03
9458,17.48
9470,15.45
9482,13.05
9494,10.39
9505,7.56
9516,4.71
9528,1.88
9540,-0.96
9552,-3.91
9564,-7.15
9576,-10.8
9588,-14.79
9600,-18.94
9612,-22.92
9624,-26.43
9636,-29.29
9648,-31.54
9660,-33.41
9672,-35.31
9684,-37.61
9695,-40.42
9706,-43.58
9718,-46.46
9730,-48.14
9742,-47.6
9754,-44.0
9766,-36.97
9778,-26.77
9790,-14.25
9802,-0.66
9814,12.65
9826,24.53
9838,34.24
9850,41.44
9862,46.19
9874,48.67
9885,49.05
9896,47.5
9908,44.21
9920,39.53
9932,34.05
9944,28.5
9956,23.57
9968,19.76
9980,17.25
9992,15.89
10004,15.41
10016,15.46
10028,15.8
10040,16.26
10052,16.76
10064,17.15
10075,17.34
10086,17.24
10098,16.75
10110,15.85
10122,14.54
10134,12.77
10146,10.51
10158,7.72
10170,4.41
10182,0.7
10194,-3.15
10206,-6.9
10218,-10.36
10230,-13.5
10242,-16.42
10254,-19.29
10265,-22.24
10276,-25.36
10288,-28.66
10300,-32.01
10312,-35.2
10324,-37.82
10336,-39.35
10348,-39.13
10360,-36.67
10372,-31.8
10384,-24.83
10396,-16.49
10408,-7.7
10420,0.72
10432,8.25
10444,14.67
10455,19.92
10466,23.94
10478,26.61
10490,27.8
10502,27.55
10514,26.2
10526,24.36
10538,22.79
10550,22.16
10562,22.89
10574,25.12
10586,28.72
10598,33.43
10610,38.92
10622,44.94
10634,51.19
10645,57.42
10656,63.32
10668,68.65
10680,73.27
10692,77.16
10704,80.45
10716,83.3
10728,85.89
10740,88.29
10752,90.57
10764,92.81
10776,95.11
10788,97.5
10800,99.75
10812,101.32
10824,101.42
10835,99.33
10846,94.54
10858,86.95
10870,76.64
10882,63.79
10894,48.52
10906,31.12
10918,12.28
10930,-6.83
10942,-24.66
10954,-39.82
10966,-51.64
10978,-60.52
10990,-67.77
11002,-75.11
11014,-84.02
11025,-95.11
11036,-108.07
11048,-121.91
11060,-135.4
11072,-147.46
11084,-157.38
11096,-164.78
11108,-169.43
11120,-171.28
11132,-170.42
11144,-167.17
11156,-161.91
11168,-154.9
11180,-145.91
11192,-134.3
11204,-119.25
11215,-100.35
11226,-78.07
11238,-53.9
11250,-29.97
11262,-8.41
11274,9.24
11286,22.16
11298,30.07
11310,32.94
11322,30.96
11334,24.65
11346,15.14
11358,4.04
11370,-6.77
11382,-15.69
11394,-21.69
11405,-24.4
11416,-24.02
11428,-21.07
11440,-16.38
11452,-11.03
11464,-6.32
11476,-3.49
11488,-3.25
11500,-5.56
11512,-9.54
11524,-13.8
11536,-16.94
11548,-17.93
11560,-16.3
11572,-12.1
11584,-5.69
11595,2.36
11606,11.34
11618,20.44
11630,28.91
11642,36.14
11654,41.79
11666,45.78
11678,48.17
11690,49.05
11702,48.51
11714,46.64
11726,43.72
11738,40.31
11750,37.19
11762,35.12
11774,34.5
11785,35.21
11796,36.6
11808,37.93
11820,38.68
11832,38.76
11844,38.3
11856,37.15
11868,34.66
11880,29.7
11892,21.2
11904,8.71
11916,-7.23
11928,-25.23
11940,-43.46
11952,-60.23
11964,-74.17
11975,-84.23
11986,-89.65
11998,-89.93
12010,-85.06
12022,-75.7
12034,-63.21
12046,-49.34
12058,-35.81
12070,-23.94
12082,-14.38
12094,-7.26
12106,-2.24
12118,1.25
12130,3.99
12142,6.73
12154,10.14
12165,14.63
12176,20.26
12188,26.79
12200,33.85
12212,40.96
12224,47.64
12236,53.33
12248,57.45
12260,59.45
12272,58.91
12284,55.77
12296,50.3
12308,43.11
12320,35.0
12332,26.82
12344,19.35
12355,13.16
12366,8.59
12378,5.68
12390,4.21
12402,3.73
12414,3.71
12426,3.6
12438,3.03
12450,1.8
12462,-0.06
12474,-2.42
12486,-5.11
12498,-8.05
12510,-11.27
12522,-14.92
12534,-19.15
12545,-23.92
12556,-28.95
12568,-33.68
12580,-37.5
12592,-40.08
12604,-41.54
12616,-42.52
12628,-43.94
12640,-46.56
12652,-50.65
12664,-55.69
12676,-60.53
12688,-63.67
12700,-63.8
12712,-60.14
12724,-52.71
12735,-42.2
12746,-29.7
12758,-16.34
12770,-3.11
12782,9.28
12794,20.33
12806,29.59
12818,36.61
12830,40.96
12842,42.42
12854,41.1
12866,37.55
12878,32.6
12890,27.24
12902,22.31
12914,18.4
12925,15.72
12936,14.17
12948,13.4
12960,12.95
12972,12.37
12984,11.37
12996,9.91
13008,8.1
13020,6.21
13032,4.43
13044,2.82
13056,1.28
13068,-0.38
13080,-2.27
13092,-4.3
13104,-6.27
13115,-7.9
13126,-8.98
13138,-9.55
13150,-9.98
13162,-10.96
13174,-13.41
13186,-18.25
13198,-26.19
13210,-37.37
13222,-51.13
13234,-65.86
13246,-79.14
13258,-88.2
13270,-90.64
13282,-85.24
13294,-72.5
13305,-54.47
13316,-34.13
13328,-14.31
13340,3.25
13352,18.1
13364,30.7
13376,41.6
13388,50.79
13400,57.61
13412,61.26
13424,61.46
13436,58.72
13448,54.16
13460,48.85
13472,43.23
13484,37.02
13495,29.54
13506,20.39
13518,9.87
13530,-0.94
13542,-10.56
13554,-17.79
13566,-22.15
13578,-23.92
13590,-23.96
13602,-23.07
13614,-21.77
13626,-20.04
13638,-17.53
13650,-13.88
13662,-9.02
13674,-3.33
13685,2.51
13696,7.72
13708,11.75
13720,14.38
13732,15.76
13744,16.16
13756,15.72
13768,14.34
13780,11.73
13792,7.63
13804,2.09
13816,-4.48
13828,-11.29
13840,-17.53
13852,-22.68
13864,-26.58
13875,-29.36
13886,-31.22
13898,-32.26
13910,-32.56
13922,-32.32
13934,-31.92
13946,-31.83
13958,-32.21
13970,-32.67
13982,-32.24
13994,-29.77
14006,-24.51
14018,-16.48
14030,-6.49
14042,4.2
14054,14.44
14065,23.51
14076,31.24
14088,37.8
14100,43.38
14112,47.96
14124,51.4
14136,53.47
14148,54.11
14160,53.53
14172,52.05
14184,50.08
14196,47.87
14208,45.55
14220,43.16
14232,40.82
14244,38.77
14255,37.41
14266,37.07
14278,37.83
14290,39.43
14302,41.23
14314,42.52
14326,42.63
14338,41.19
14350,38.17
14362,33.89
14374,28.88
14386,23.77
14398,19.11
14410,15.27
14422,12.33
14434,10.12
14445,8.32
14456,6.64
14468,4.91
14480,3.18
14492,1.57
14504,0.16
14516,-1.14
14528,-2.59
14540,-4.52
14552,-7.09
14564,-10.15
14576,-13.21
14588,-15.51
14600,-16.27
14612,-14.97
14624,-11.46
14635,-6.09
14646,0.51
14658,7.58
14670,14.49
14682,20.75
14694,26.06
14706,30.18
14718,32.96
14730,34.23
14742,33.99
14754,32.38
14766,29.71
14778,26.39
14790,22.76
14802,19.08
14814,15.47
14825,12.11
14836,9.16
14848,6.84
14860,5.25
14872,4.3
14884,3.73
14896,3.21
14908,2.54
14920,1.71
14932,0.89
14944,0.28
14956,-0.06
14968,-0.24
14980,-0.51
14992,-1.11
15004,-2.13
15015,-3.5
15026,-4.98
15038,-6.35
15050,-7.44
15062,-8.24
15074,-8.85
15086,-9.37
15098,-9.95
15110,-10.67
15122,-11.62
15134,-12.88
15146,-14.46
15158,-16.34
15170,-18.39
15182,-20.51
15194,-22.66
15205,-24.82
15216,-26.96
15228,-28.86
15240,-30.01
15252,-29.72
15264,-27.31
15276,-22.43
15288,-15.27
15300,-6.55
15312,2.72
15324,11.47
15336,18.86
15348,24.37
15360,27.79
15372,29.24
15384,29.1
15395,27.91
15406,26.34
15418,24.91
15430,23.85
15442,23.05
15454,22.23
15466,21.13
15478,19.74
15490,18.32
15502,17.2
15514,16.62
15526,16.51
15538,16.62
15550,16.65
15562,16.47
15574,16.16
15585,15.89
15596,15.73
15608,15.48
15620,14.76
15632,13.13
15644,10.45
15656,6.97
15668,3.28
15680,0.04
15692,-2.3
15704,-3.73
15716,-4.63
15728,-5.56
15740,-6.93
15752,-8.84
15764,-11.03
15775,-13.13
15786,-14.86
15798,-16.17
15810,-17.23
15822,-18.25
15834,-19.4
15846,-20.72
15858,-22.17
15870,-23.76
15882,-25.52
15894,-27.4
15906,-29.08
15918,-30.0
15930,-29.47
15942,-26.89
15954,-22.04
15965,-15.19
15976,-7.02
15988,1.53
16000,9.56
16012,16.31
16024,21.27
16036,24.26
16048,25.36
16060,24.92
16072,23.41
16084,21.36
16096,19.15
16108,17.04
16120,15.09
16132,13.26
16144,11.51
16155,9.83
16166,8.26
16178,6.86
16190,5.68
16202,4.77
16214,4.16
16226,3.84
16238,3.76
16250,3.81
16262,3.82
16274,3.59
16286,3.0
16298,2.02
16310,0.73
16322,-0.71
16334,-2.13
16345,-3.4
16356,-4.47
16368,-5.36
16380,-6.19
16392,-7.06
16404,-8.09
16416,-9.33
16428,-10.76
16440,-12.3
16452,-13.84
16464,-15.34
16476,-16.91
16488,-18.74
16500,-21.02
16512,-23.7
16524,-26.4
16535,-28.39
16546,-28.81
16558,-26.98
16570,-22.69
16582,-16.31
16594,-8.68
16606,-0.77
16618,6.59
16630,12.88
16642,17.85
16654,21.41
16666,23.51
16678,24.14
16690,23.39
16702,21.5
16714,18.86
16725,15.89
16736,12.9
16748,10.11
16760,7.61
16772,5.47
16784,3.77
16796,2.59
16808,2.03
16820,2.11
16832,2.76
16844,3.81
16856,4.99
16868,5.98
16880,6.48
16892,6.31
16904,5.42
16915,3.97
16926,2.22
16938,0.42
16950,-1.25
16962,-2.77
16974,-4.24
16986,-5.87
16998,-7.82
17010,-10.17
17022,-12.87
17034,-15.74
17046,-18.53
17058,-20.97
17070,-22.89
17082,-24.28
17094,-25.28
17105,-26.13
17116,-27.05
17128,-28.13
17140,-29.28
17152,-30.22
17164,-30.51
17176,-29.63
17188,-27.17
17200,-22.9
17212,-16.89
17224,-9.57
17236,-1.61
17248,6.24
17260,13.22
17272,18.75
17284,22.55
17295,24.55
17306,25.01
17318,24.33
17330,22.96
17342,21.27
17354,19.45
17366,17.52
17378,15.45
17390,13.25
17402,11.05
17414,9.14
17426,7.74
17438,6.98
17450,6.77
17462,6.93
17474,7.23
17485,7.53
17496,7.76
17508,7.91
17520,7.98
17532,7.88
17544,7.51
17556,6.72
17568,5.47
17580,3.79
17592,1.87
17604,-0.1
17616,-1.91
17628,-3.45
17640,-4.77
17652,-6.06
17664,-7.51
17675,-9.25
17686,-11.33
17698,-13.68
17710,-16.17
17722,-18.63
17734,-20.97
17746,-23.05
17758,-24.74
17770,-25.96
17782,-26.67
17794,-27.02
17806,-27.3
17818,-27.84
17830,-28.88
17842,-30.38
17854,-31.91
17865,-32.73
17876,-32.0
17888,-29.01
17900,-23.48
17912,-15.7
17924,-6.48
17936,3.06
17948,11.74
17960,18.7
17972,23.51
17984,26.19
17996,27.1
18008,26.71
18020,25.45
18032,23.59
18044,21.32
18055,18.81
18066,16.28
18078,13.99
18090,12.13
18102,10.81
18114,9.93
18126,9.32
18138,8.85
18150,8.51
18162,8.37
18174,8.53
18186,8.97
18198,9.51
18210,9.87
18222,9.8
18234,9.21
18245,8.21
18256,7.05
18268,5.92
18280,4.88
18292,3.84
18304,2.61
18316,1.14
18328,-0.53
18340,-2.23
18352,-3.79
18364,-5.13
18376,-6.31
18388,-7.47
18400,-8.71
18412,-10.09
18424,-11.51
18435,-12.83
18446,-13.9
18458,-14.73
18470,-15.42
18482,-16.17
18494,-17.17
18506,-18.5
18518,-20.19
18530,-22.11
18542,-24.08
18554,-25.82
18566,-27.05
18578,-27.44
18590,-26.65
18602,-24.39
18614,-20.47
18625,-14.93
18636,-8.1
18648,-0.57
18660,6.87
18672,13.43
18684,18.51
18696,21.79
18708,23.35
18720,23.49
18732,22.62
18744,21.05
18756,18.99
18768,16.59
18780,14.02
18792,11.55
18804,9.49
18815,8.15
18826,7.62
18838,7.82
18850,8.48
18862,9.3
18874,10.07
18886,10.71
18898,11.23
18910,11.66
18922,11.95
18934,12.02
18946,11.77
18958,11.18
18970,10.29
18982,9.17
18994,7.89
19005,6.43
19016,4.76
19028,2.81
19040,0.61
19052,-1.82
19064,-4.36
19076,-6.97
19088,-9.55
19100,-12.06
19112,-14.36
19124,-16.31
19136,-17.75
19148,-18.62
19160,-19.08
19172,-19.43
19184,-20.08
19195,-21.29
19206,-23.11
19218,-25.21
19230,-26.93
19242,-27.49
19254,-26.2
19266,-22.71
19278,-17.11
19290,-9.92
19302,-1.97
19314,5.8
19326,12.61
19338,17.9
19350,21.49
19362,23.48
19374,24.2
19385,24.04
19396,23.29
19408,22.14
19420,20.66
19432,18.87
19444,16.82
19456,14.68
19468,12.65
19480,10.92
19492,9.63
19504,8.77
19516,8.26
19528,8.02
19540,7.94
19552,7.98
19564,8.1
19575,8.3
19586,8.5
19598,8.6
19610,8.5
19622,8.16
19634,7.56
19646,6.73
19658,5.7
19670,4.47
19682,3.06
19694,1.45
19706,-0.36
19718,-2.36
19730,-4.52
19742,-6.84
19754,-9.3
19765,-11.85
19776,-14.38
19788,-16.77
19800,-18.84
19812,-20.43
19824,-21.54
19836,-22.2
19848,-22.58
19860,-22.88
19872,-23.24
19884,-23.74
19896,-24.44
19908,-25.3
19920,-26.2
19932,-26.89
19944,-26.92
19955,-25.69
19966,-22.68
19978,-17.64
19990,-10.82
20002,-2.93
20014,5.04
20026,12.16
20038,17.8
20050,21.72
20062,23.97
20074,24.72
20086,24.21
20098,22.6
20110,20.18
20122,17.33
20134,14.49
20145,12.1
20156,10.45
20168,9.58
20180,9.31
20192,9.42
20204,9.65
20216,9.92
20228,10.24
20240,10.68
20252,11.29
20264,12.0
20276,12.69
20288,13.14
20300,13.22
20312,12.82
20324,11.92
20335,10.55
20346,8.74
20358,6.53
20370,4.02
20382,1.38
20394,-1.21
20406,-3.52
20418,-5.39
20430,-6.76
20442,-7.68
20454,-8.32
20466,-8.92
20478,-9.73
20490,-10.91
20502,-12.48
20514,-14.35
20525,-16.35
20536,-18.25
20548,-19.96
20560,-21.45
20572,-22.81
20584,-24.14
20596,-25.52
20608,-26.94
20620,-28.28
20632,-29.3
20644,-29.63
20656,-28.76
20668,-26.2
20680,-21.63
20692,-15.11
20704,-7.19
20715,1.23
20726,9.1
20738,15.5
20750,19.95
20762,22.4
20774,23.16
20786,22.67
20798,21.36
20810,19.51
20822,17.3
20834,14.91
20846,12.49
20858,10.25
20870,8.33
20882,6.82
20894,5.76
20905,5.13
20916,4.92
20928,5.11
20940,5.67
20952,6.49
20964,7.44
20976,8.34
20988,9.08
