seconds,BVP
11,25.89
23,23.32
35,21.5
47,20.48
59,20.07
71,19.93
82,19.75
93,19.4
105,18.92
117,18.43
129,18.01
141,17.52
153,16.59
165,14.84
177,12.0
189,8.1
201,3.45
213,-1.52
225,-6.45
237,-11.19
249,-15.77
261,-20.34
272,-25.1
283,-30.23
295,-35.85
307,-41.94
319,-48.22
331,-54.09
343,-58.66
355,-60.98
367,-60.34
379,-56.56
391,-50.07
403,-41.78
415,-32.78
427,-24.04
439,-16.23
451,-9.66
462,-4.42
473,-0.5
485,2.21
497,3.84
509,4.68
521,5.09
533,5.49
545,6.19
557,7.31
569,8.76
581,10.37
593,11.97
605,13.51
617,15.01
629,16.49
641,17.91
652,19.07
663,19.76
675,19.73
687,18.84
699,17.06
711,14.48
723,11.25
735,7.62
747,3.81
759,0.02
771,-3.72
783,-7.52
795,-11.66
807,-16.43
819,-22.01
831,-28.22
842,-34.52
853,-40.02
865,-43.71
877,-44.7
889,-42.51
901,-37.14
913,-29.18
925,-19.55
937,-9.35
949,0.42
961,9.05
973,16.19
985,21.78
997,25.94
1009,28.8
1021,30.46
1032,30.97
1043,30.43
1055,29.02
1067,27.05
1079,24.85
1091,22.69
1103,20.73
1115,19.04
1127,17.65
1139,16.56
1151,15.75
1163,15.1
1175,14.38
1187,13.24
1199,11.36
1211,8.61
1222,5.1
1233,1.18
1245,-2.76
1257,-6.38
1269,-9.6
1281,-12.57
1293,-15.69
1305,-19.38
1317,-24.03
1329,-29.8
1341,-36.49
1353,-43.52
1365,-49.91
1377,-54.54
1389,-56.37
1401,-54.76
1412,-49.66
1423,-41.62
1435,-31.6
1447,-20.63
1459,-9.66
1471,0.67
1483,9.87
1495,17.64
1507,23.75
1519,28.08
1531,30.72
1543,31.93
1555,32.13
1567,31.65
1579,30.71
1591,29.35
1602,27.59
1613,25.54
1625,23.47
1637,21.75
1649,20.66
1661,20.23
1673,20.19
1685,20.1
1697,19.5
1709,18.03
1721,15.58
1733,12.2
1745,8.09
1757,3.52
1769,-1.25
1781,-6.0
1792,-10.67
1803,-15.38
1815,-20.37
1827,-25.94
1839,-32.21
1851,-39.0
1863,-45.7
1875,-51.38
1887,-54.98
1899,-55.59
1911,-52.73
1923,-46.47
1935,-37.42
1947,-26.56
1959,-14.98
1971,-3.68
1982,6.64
1993,15.57
2005,22.96
2017,28.74
2029,32.91
2041,35.51
2053,36.6
2065,36.38
2077,35.19
2089,33.42
2101,31.43
2113,29.52
2125,27.81
2137,26.36
2149,25.15
2161,24.2
2172,23.51
2183,22.98
2195,22.43
2207,21.58
2219,20.15
2231,18.03
2243,15.23
2255,11.93
2267,8.33
2279,4.56
2291,0.6
2303,-3.66
2315,-8.37
2327,-13.73
2339,-19.88
2351,-26.83
2362,-34.4
2373,-42.02
2385,-48.81
2397,-53.65
2409,-55.56
2421,-53.92
2433,-48.71
2445,-40.52
2457,-30.33
2469,-19.21
2481,-8.15
2493,2.13
2505,11.06
2517,18.28
2529,23.49
2541,26.59
2552,27.76
2563,27.42
2575,26.21
2587,24.82
2599,23.8
2611,23.52
2623,24.12
2635,25.64
2647,28.05
2659,31.35
2671,35.46
2683,40.23
2695,45.34
2707,50.3
2719,54.56
2731,57.58
2742,59.02
2753,58.8
2765,57.11
2777,54.37
2789,50.99
2801,47.21
2813,42.99
2825,38.07
2837,32.21
2849,25.41
2861,18.04
2873,10.86
2885,4.78
2897,0.57
2909,-1.35
2921,-1.05
2932,1.04
2943,4.28
2955,7.99
2967,11.67
2979,14.95
2991,17.64
3003,19.58
3015,20.62
3027,20.64
3039,19.56
3051,17.42
3063,14.41
3075,10.85
3087,7.13
3099,3.57
3111,0.46
3122,-2.06
3133,-3.9
3145,-5.13
3157,-5.88
3169,-6.36
3181,-6.85
3193,-7.58
3205,-8.74
3217,-10.38
3229,-12.44
3241,-14.77
3253,-17.21
3265,-19.68
3277,-22.18
3289,-24.81
3301,-27.71
3312,-31.0
3323,-34.68
3335,-38.62
3347,-42.5
3359,-45.89
3371,-48.27
3383,-49.18
3395,-48.27
3407,-45.4
3419,-40.67
3431,-34.39
3443,-27.08
3455,-19.32
3467,-11.68
3479,-4.63
3491,1.51
3502,6.52
3513,10.29
3525,12.74
3537,13.91
3549,13.92
3561,13.03
3573,11.61
3585,10.05
3597,8.7
3609,7.71
3621,7.09
3633,6.68
3645,6.34
3657,5.99
3669,5.62
3681,5.27
3692,4.94
3703,4.45
3715,3.62
3727,2.24
3739,0.23
3751,-2.34
3763,-5.35
3775,-8.62
3787,-12.09
3799,-15.82
3811,-19.85
3823,-24.17
3835,-28.6
3847,-32.81
3859,-36.35
3871,-38.73
3882,-39.49
3893,-38.34
3905,-35.18
3917,-30.25
3929,-24.03
3941,-17.15
3953,-10.19
3965,-3.59
3977,2.39
3989,7.62
4001,11.99
4013,15.39
4025,17.71
4037,18.9
4049,19.08
4061,18.49
4072,17.43
4083,16.18
4095,14.95
4107,13.87
4119,13.06
4131,12.57
4143,12.4
4155,12.4
4167,12.29
4179,11.75
4191,10.53
4203,8.59
4215,6.11
4227,3.38
4239,0.63
4251,-2.06
4262,-4.82
4273,-7.88
4285,-11.47
4297,-15.67
4309,-20.43
4321,-25.51
4333,-30.6
4345,-35.24
4357,-38.9
4369,-41.02
4381,-41.08
4393,-38.84
4405,-34.4
4417,-28.23
4429,-21.02
4441,-13.5
4452,-6.21
4463,0.47
4475,6.35
4487,11.29
4499,15.18
4511,17.91
4523,19.49
4535,20.03
4547,19.82
4559,19.19
4571,18.44
4583,17.8
4595,17.26
4607,16.77
4619,16.16
4631,15.38
4642,14.45
4653,13.43
4665,12.43
4677,11.42
4689,10.28
4701,8.79
4713,6.76
4725,4.1
4737,0.82
4749,-2.95
4761,-7.11
4773,-11.58
4785,-16.39
4797,-21.63
4809,-27.4
4821,-33.73
4832,-40.48
4843,-47.27
4855,-53.5
4867,-58.35
4879,-61.01
4891,-60.93
4903,-57.97
4915,-52.52
4927,-45.39
4939,-37.56
4951,-29.91
4963,-23.04
4975,-17.3
4987,-12.84
4999,-9.77
5011,-8.23
5022,-8.31
5033,-9.92
5045,-12.65
5057,-15.77
5069,-18.44
5081,-19.99
5093,-20.15
5105,-19.12
5117,-17.38
5129,-15.47
5141,-13.72
5153,-12.2
5165,-10.79
5177,-9.36
5189,-7.95
5201,-6.78
5212,-6.11
5223,-6.14
5235,-6.88
5247,-8.24
5259,-10.12
5271,-12.46
5283,-15.37
5295,-19.02
5307,-23.57
5319,-29.1
5331,-35.45
5343,-42.15
5355,-48.43
5367,-53.24
5379,-55.53
5391,-54.49
5402,-49.79
5413,-41.68
5425,-30.88
5437,-18.35
5449,-4.98
5461,8.45
5473,21.33
5485,33.07
5497,43.07
5509,50.73
5521,55.6
5533,57.6
5545,57.04
5557,54.63
5569,51.27
5581,47.76
5592,44.7
5603,42.35
5615,40.72
5627,39.65
5639,38.92
5651,38.29
5663,37.59
5675,36.69
5687,35.49
5699,33.97
5711,32.09
5723,29.82
5735,27.12
5747,23.98
5759,20.42
5771,16.57
5782,12.61
5793,8.67
5805,4.79
5817,0.79
5829,-3.64
5841,-8.79
5853,-14.63
5865,-20.65
5877,-25.74
5889,-28.45
5901,-27.38
5913,-21.66
5925,-11.3
5937,2.73
5949,18.83
5961,35.21
5972,50.36
5983,63.45
5995,74.37
6007,83.64
6019,92.09
6031,100.7
6043,110.3
6055,121.29
6067,133.22
6079,144.43
6091,152.2
6103,153.47
6115,146.07
6127,129.97
6139,107.6
6151,83.2
6162,61.23
6173,44.75
6185,34.46
6197,29.09
6209,26.42
6221,24.55
6233,22.53
6245,20.16
6257,17.42
6269,13.97
6281,9.15
6293,2.48
6305,-5.98
6317,-15.5
6329,-24.95
6341,-33.31
6352,-40.06
6363,-45.24
6375,-49.29
6387,-52.62
6399,-55.41
6411,-57.43
6423,-58.19
6435,-57.21
6447,-54.22
6459,-49.39
6471,-43.27
6483,-36.63
6495,-30.24
6507,-24.6
6519,-19.86
6531,-15.89
6542,-12.4
6553,-9.13
6565,-6.01
6577,-3.14
6589,-0.74
6601,0.98
6613,1.97
6625,2.32
6637,2.25
6649,1.99
6661,1.7
6673,1.45
6685,1.29
6697,1.26
6709,1.41
6721,1.76
6732,2.25
6743,2.73
6755,2.95
6767,2.69
6779,1.81
6791,0.3
6803,-1.74
6815,-4.17
6827,-6.78
6839,-9.49
6851,-12.19
6863,-14.84
6875,-17.44
6887,-20.02
6899,-22.65
6911,-25.47
6922,-28.59
6933,-32.09
6945,-35.85
6957,-39.5
6969,-42.45
6981,-44.06
6993,-43.79
7005,-41.42
7017,-37.11
7029,-31.32
7041,-24.66
7053,-17.69
7065,-10.83
7077,-4.29
7089,1.8
7101,7.37
7112,12.25
7123,16.25
7135,19.13
7147,20.77
7159,21.24
7171,20.85
7183,20.08
7195,19.39
7207,19.11
7219,19.33
7231,19.89
7243,20.55
7255,21.06
7267,21.3
7279,21.24
7291,20.92
7302,20.4
7313,19.69
7325,18.76
7337,17.56
7349,16.03
7361,14.15
7373,11.97
7385,9.59
7397,7.09
7409,4.57
7421,2.04
7433,-0.57
7445,-3.36
7457,-6.42
7469,-9.79
7481,-13.48
7492,-17.39
7503,-21.36
7515,-25.11
7527,-28.28
7539,-30.39
7551,-30.97
7563,-29.72
7575,-26.64
7587,-22.07
7599,-16.65
7611,-11.07
7623,-5.82
7635,-1.2
7647,2.76
7659,6.14
7671,8.98
7682,11.22
7693,12.78
7705,13.6
7717,13.69
7729,13.18
7741,12.3
7753,11.28
7765,10.35
7777,9.64
7789,9.16
7801,8.88
7813,8.71
7825,8.6
7837,8.54
7849,8.59
7861,8.77
7872,9.05
7883,9.25
7895,9.15
7907,8.52
7919,7.27
7931,5.49
7943,3.38
7955,1.21
7967,-0.85
7979,-2.76
7991,-4.61
8003,-6.54
8015,-8.7
8027,-11.19
8039,-13.96
8051,-16.95
8062,-19.97
8073,-22.82
8085,-25.23
8097,-26.86
8109,-27.34
8121,-26.4
8133,-23.93
8145,-20.15
8157,-15.54
8169,-10.69
8181,-6.18
8193,-2.36
8205,0.67
8217,2.95
8229,4.56
8241,5.54
8252,5.89
8263,5.69
8275,5.12
8287,4.49
8299,4.09
8311,4.0
8323,4.15
8335,4.32
8347,4.34
8359,4.2
8371,4.03
8383,3.99
8395,4.17
8407,4.48
8419,4.74
8431,4.72
8442,4.32
8453,3.59
8465,2.72
8477,1.87
8489,1.16
8501,0.54
8513,-0.12
8525,-0.99
8537,-2.17
8549,-3.64
8561,-5.34
8573,-7.19
8585,-9.17
8597,-11.33
8609,-13.67
8621,-16.02
8632,-18.03
8643,-19.25
8655,-19.31
8667,-18.13
8679,-15.9
8691,-13.05
8703,-9.97
8715,-6.88
8727,-3.85
8739,-0.83
8751,2.07
8763,4.67
8775,6.68
8787,7.89
8799,8.27
8811,7.98
8822,7.31
8833,6.46
8845,5.57
8857,4.66
8869,3.75
8881,2.9
8893,2.22
8905,1.79
8917,1.63
8929,1.68
8941,1.8
8953,1.88
8965,1.83
8977,1.61
8989,1.19
9001,0.58
9012,-0.26
9023,-1.28
9035,-2.36
9047,-3.38
9059,-4.19
9071,-4.77
9083,-5.25
9095,-5.86
9107,-6.85
9119,-8.34
9131,-10.26
9143,-12.39
9155,-14.43
9167,-16.1
9179,-17.19
9191,-17.6
9202,-17.24
9213,-16.07
9225,-14.09
9237,-11.39
9249,-8.18
9261,-4.83
9273,-1.68
9285,0.94
9297,2.88
9309,4.17
9321,4.91
9333,5.22
9345,5.17
9357,4.81
9369,4.18
9381,3.46
9392,2.78
9403,2.31
9415,2.13
9427,2.21
9439,2.5
9451,2.95
9463,3.52
9475,4.1
9487,4.53
9499,4.58
9511,4.08
9523,3.03
9535,1.6
9547,0.07
9559,-1.3
9571,-2.45
9582,-3.49
9593,-4.59
9605,-5.91
9617,-7.44
9629,-9.13
9641,-10.84
9653,-12.52
9665,-14.12
9677,-15.55
9689,-16.59
9701,-16.96
9713,-16.41
9725,-14.81
9737,-12.26
9749,-9.08
9761,-5.62
9772,-2.26
9783,0.73
9795,3.23
9807,5.22
9819,6.74
9831,7.82
9843,8.48
9855,8.69
9867,8.38
9879,7.55
9891,6.3
9903,4.85
9915,3.47
9927,2.36
9939,1.62
9951,1.22
9962,1.07
9973,1.1
9985,1.28
9997,1.59
10009,1.97
10021,2.3
10033,2.43
10045,2.2
10057,1.55
10069,0.51
10081,-0.79
10093,-2.2
10105,-3.61
10117,-5.02
10129,-6.46
10141,-8.04
10152,-9.8
10163,-11.65
10175,-13.45
10187,-14.92
10199,-15.76
10211,-15.76
10223,-14.83
10235,-13.01
10247,-10.49
10259,-7.53
10271,-4.47
10283,-1.57
10295,0.94
10307,2.99
10319,4.61
10331,5.84
10342,6.7
10353,7.12
10365,7.03
10377,6.45
10389,5.59
10401,4.7
10413,4.05
10425,3.75
10437,3.73
10449,3.83
10461,3.9
10473,3.93
10485,3.99
10497,4.14
10509,4.37
10521,4.55
10532,4.48
10543,4.07
10555,3.34
10567,2.44
10579,1.54
10591,0.74
10603,-0.01
10615,-0.84
10627,-1.86
10639,-3.1
10651,-4.52
10663,-6.02
10675,-7.53
10687,-9.02
10699,-10.56
10711,-12.15
10722,-13.75
10733,-15.19
10745,-16.25
10757,-16.63
10769,-16.12
10781,-14.62
10793,-12.16
10805,-8.96
10817,-5.33
10829,-1.64
10841,1.75
10853,4.6
10865,6.77
10877,8.25
10889,9.11
10901,9.45
10912,9.37
10923,8.94
10935,8.22
10947,7.29
10959,6.26
10971,5.23
10983,4.34
10995,3.71
11007,3.47
11019,3.65
11031,4.19
11043,4.95
11055,5.7
11067,6.25
11079,6.48
11091,6.33
11102,5.8
11113,4.89
11125,3.59
11137,1.98
11149,0.13
11161,-1.78
11173,-3.58
11185,-5.18
11197,-6.6
11209,-7.96
11221,-9.37
11233,-10.97
11245,-12.83
11257,-14.97
11269,-17.41
11281,-20.18
11292,-23.17
11303,-26.2
11315,-28.98
11327,-31.2
11339,-32.67
11351,-33.33
11363,-33.19
11375,-32.18
11387,-30.04
11399,-26.32
11411,-20.53
11423,-12.38
11435,-2.05
11447,9.75
11459,21.8
11471,32.53
11482,40.36
11493,44.0
11505,42.83
11517,37.08
11529,27.85
11541,16.74
11553,5.56
11565,-4.3
11577,-11.99
11589,-17.34
11601,-20.61
11613,-22.3
11625,-22.92
11637,-22.97
11649,-22.94
11661,-23.31
11672,-24.42
11683,-26.4
11695,-28.97
11707,-31.62
11719,-33.74
11731,-34.92
11743,-35.12
11755,-34.68
11767,-34.1
11779,-33.83
11791,-34.11
11803,-34.9
11815,-36.04
11827,-37.35
11839,-38.76
11851,-40.3
11862,-42.02
11873,-43.89
11885,-45.81
11897,-47.64
11909,-49.32
11921,-50.97
11933,-52.83
11945,-55.21
11957,-58.29
11969,-61.95
11981,-65.64
11993,-68.45
12005,-69.36
12017,-67.41
12029,-62.12
12041,-53.51
12052,-42.18
12063,-29.05
12075,-15.13
12087,-1.37
12099,11.49
12111,22.85
12123,32.28
12135,39.49
12147,44.34
12159,46.89
12171,47.47
12183,46.69
12195,45.24
12207,43.84
12219,42.95
12231,42.74
12242,43.12
12253,43.86
12265,44.82
12277,45.97
12289,47.4
12301,49.15
12313,50.99
12325,52.48
12337,53.04
12349,52.24
12361,49.98
12373,46.6
12385,42.67
12397,38.78
12409,35.25
12421,32.05
12432,28.83
12443,25.14
12455,20.66
12467,15.37
12479,9.54
12491,3.73
12503,-1.56
12515,-6.01
12527,-9.73
12539,-13.26
12551,-17.39
12563,-22.89
12575,-30.1
12587,-38.79
12599,-47.97
12611,-56.22
12622,-61.99
12633,-64.14
12645,-62.31
12657,-57.0
12669,-49.39
12681,-40.86
12693,-32.52
12705,-24.88
12717,-17.91
12729,-11.38
12741,-5.24
12753,0.11
12765,3.76
12777,4.66
12789,1.93
12801,-4.6
12812,-14.09
12823,-24.47
12835,-32.63
12847,-35.08
12859,-28.92
12871,-12.91
12883,11.66
12895,41.02
12907,69.88
12919,92.93
12931,106.6
12943,110.11
12955,105.51
12967,96.73
12979,87.93
12991,82.06
13002,80.02
13013,80.8
13025,82.28
13037,82.33
13049,79.65
13061,74.0
13073,66.07
13085,57.02
13097,48.1
13109,40.34
13121,34.58
13133,31.34
13145,30.83
13157,32.86
13169,36.74
13181,41.4
13192,45.52
13203,47.87
13215,47.63
13227,44.64
13239,39.42
13251,33.16
13263,27.23
13275,22.83
13287,20.57
13299,20.27
13311,21.18
13323,22.3
13335,22.78
13347,22.24
13359,20.77
13371,18.76
13382,16.63
13393,14.62
13405,12.79
13417,11.02
13429,9.17
13441,7.26
13453,5.39
13465,3.79
13477,2.6
13489,1.96
13501,1.87
13513,2.25
13525,2.96
13537,3.81
13549,4.56
13561,5.01
13572,5.01
13583,4.59
13595,3.88
13607,3.09
13619,2.38
13631,1.81
13643,1.25
13655,0.58
13667,-0.32
13679,-1.46
13691,-2.78
13703,-4.23
13715,-5.76
13727,-7.4
13739,-9.16
13751,-10.95
13762,-12.61
13773,-13.84
13785,-14.37
13797,-13.99
13809,-12.67
13821,-10.55
13833,-7.89
13845,-5.0
13857,-2.16
13869,0.35
13881,2.34
13893,3.63
13905,4.16
13917,3.99
13929,3.32
13941,2.43
13952,1.59
13963,1.01
13975,0.74
13987,0.73
13999,0.9
14011,1.17
14023,1.47
14035,1.76
14047,2.02
14059,2.18
14071,2.22
14083,2.15
14095,1.98
14107,1.69
14119,1.19
14131,0.38
14142,-0.83
14153,-2.38
14165,-4.08
14177,-5.64
14189,-6.79
14201,-7.43
14213,-7.68
14225,-7.85
14237,-8.31
14249,-9.26
14261,-10.68
14273,-12.34
14285,-13.9
14297,-15.08
14309,-15.71
14321,-15.73
14332,-15.09
14343,-13.79
14355,-11.8
14367,-9.18
14379,-6.16
14391,-3.13
14403,-0.5
14415,1.41
14427,2.53
14439,3.02
14451,3.13
14463,3.1
14475,3.03
14487,2.85
14499,2.46
14511,1.8
14522,0.96
14533,0.14
14545,-0.47
14557,-0.77
14569,-0.79
14581,-0.65
14593,-0.5
14605,-0.42
14617,-0.42
14629,-0.47
14641,-0.62
14653,-0.91
14665,-1.41
14677,-2.17
14689,-3.14
14701,-4.22
14712,-5.24
14723,-6.09
14735,-6.7
14747,-7.07
14759,-7.34
14771,-7.65
14783,-8.23
14795,-9.21
14807,-10.69
14819,-12.59
14831,-14.7
14843,-16.69
14855,-18.19
14867,-18.87
14879,-18.5
14891,-17.05
14902,-14.71
14913,-11.84
14925,-8.94
14937,-6.42
14949,-4.51
14961,-3.21
14973,-2.38
14985,-1.79
14997,-1.29
15009,-0.85
15021,-0.54
15033,-0.44
15045,-0.6
15057,-1.01
15069,-1.55
15081,-2.16
15092,-2.75
15103,-3.3
15115,-3.83
15127,-4.32
15139,-4.78
15151,-5.21
15163,-5.65
15175,-6.16
15187,-6.82
15199,-7.64
15211,-8.48
15223,-8.99
15235,-8.56
15247,-6.53
15259,-2.37
15271,3.96
15282,11.87
15293,20.1
15305,26.98
15317,30.86
15329,30.59
15341,25.72
15353,16.58
15365,4.11
15377,-10.38
15389,-25.47
15401,-39.81
15413,-52.15
15425,-61.49
15437,-67.16
15449,-68.96
15461,-67.16
15472,-62.38
15483,-55.53
15495,-47.5
15507,-39.09
15519,-30.91
15531,-23.34
15543,-16.58
15555,-10.75
15567,-5.9
15579,-2.1
15591,0.6
15603,2.22
15615,2.89
15627,2.85
15639,2.44
15651,2.07
15662,2.07
15673,2.65
15685,3.88
15697,5.65
15709,7.76
15721,9.93
15733,11.9
15745,13.42
15757,14.35
15769,14.58
15781,14.12
15793,13.01
15805,11.33
15817,9.15
15829,6.57
15841,3.65
15852,0.45
15863,-2.92
15875,-6.37
15887,-9.79
15899,-13.09
15911,-16.33
15923,-19.7
15935,-23.46
15947,-27.85
15959,-32.94
15971,-38.53
15983,-44.15
15995,-49.23
16007,-53.17
16019,-55.47
16031,-55.76
16042,-53.81
16053,-49.52
16065,-42.98
16077,-34.58
16089,-24.94
16101,-14.79
16113,-4.89
16125,4.15
16137,11.91
16149,18.16
16161,22.81
16173,25.84
16185,27.42
16197,27.82
16209,27.44
16221,26.7
16232,25.94
16243,25.33
16255,24.95
16267,24.78
16279,24.91
16291,25.47
16303,26.58
16315,28.2
16327,30.06
16339,31.75
16351,32.76
16363,32.74
16375,31.48
16387,29.05
16399,25.7
16411,21.79
16422,17.79
16433,14.12
16445,11.2
16457,9.25
16469,8.29
16481,8.02
16493,7.91
16505,7.3
16517,5.62
16529,2.46
16541,-2.27
16553,-8.39
16565,-15.41
16577,-22.56
16589,-28.93
16601,-33.59
16612,-35.82
16623,-35.23
16635,-31.8
16647,-25.86
16659,-17.98
16671,-8.86
16683,0.73
16695,10.05
16707,18.45
16719,25.41
16731,30.7
16743,34.3
16755,36.42
16767,37.4
16779,37.6
16791,37.37
16802,37.01
16813,36.77
16825,36.9
16837,37.57
16849,38.84
16861,40.66
16873,42.89
16885,45.42
16897,48.22
16909,51.37
16921,55.07
16933,59.4
16945,64.19
16957,68.87
16969,72.46
16981,73.91
16992,72.4
17003,67.71
17015,60.38
17027,51.5
17039,42.35
17051,33.96
17063,26.79
17075,20.74
17087,15.34
17099,10.06
17111,4.53
17123,-1.4
17135,-7.75
17147,-14.44
17159,-21.37
17171,-28.35
17182,-34.95
17193,-40.62
17205,-44.65
17217,-46.47
17229,-45.81
17241,-42.88
17253,-38.34
17265,-32.99
17277,-27.63
17289,-22.73
17301,-18.45
17313,-14.74
17325,-11.49
17337,-8.68
17349,-6.42
17361,-4.86
17372,-4.08
17383,-3.99
17395,-4.33
17407,-4.76
17419,-4.93
17431,-4.6
17443,-3.68
17455,-2.29
17467,-0.63
17479,0.99
17491,2.31
17503,3.17
17515,3.5
17527,3.38
17539,2.83
17551,1.9
17562,0.54
17573,-1.28
17585,-3.52
17597,-6.03
17609,-8.61
17621,-11.08
17633,-13.37
17645,-15.57
17657,-17.87
17669,-20.5
17681,-23.54
17693,-26.9
17705,-30.27
17717,-33.15
17729,-35.0
17741,-35.37
17752,-34.04
17763,-31.02
17775,-26.57
17787,-21.09
17799,-15.03
17811,-8.8
17823,-2.77
17835,2.76
17847,7.53
17859,11.35
17871,14.12
17883,15.87
17895,16.7
17907,16.83
17919,16.47
17931,15.82
17942,15.02
17953,14.23
17965,13.55
17977,13.06
17989,12.8
18001,12.77
18013,12.92
18025,13.19
18037,13.51
18049,13.78
18061,13.86
18073,13.6
18085,12.82
18097,11.45
18109,9.48
18121,7.04
18132,4.3
18143,1.46
18155,-1.35
18167,-4.01
18179,-6.51
18191,-8.9
18203,-11.33
18215,-14.01
18227,-17.19
18239,-21.02
18251,-25.44
18263,-30.09
18275,-34.4
18287,-37.65
18299,-39.23
18311,-38.79
18322,-36.3
18333,-32.04
18345,-26.48
18357,-20.12
18369,-13.44
18381,-6.84
18393,-0.63
18405,4.93
18417,9.59
18429,13.17
18441,15.54
18453,16.73
18465,16.92
18477,16.43
18489,15.56
18501,14.58
18512,13.62
18523,12.74
18535,11.98
18547,11.46
18559,11.33
18571,11.63
18583,12.27
18595,13.01
18607,13.55
18619,13.7
18631,13.38
18643,12.68
18655,11.66
18667,10.34
18679,8.61
18691,6.39
18702,3.74
18713,0.8
18725,-2.13
18737,-4.83
18749,-7.21
18761,-9.32
18773,-11.36
18785,-13.53
18797,-16.02
18809,-18.94
18821,-22.31
18833,-26.05
18845,-29.92
18857,-33.55
18869,-36.45
18881,-38.11
18892,-38.1
18903,-36.15
18915,-32.27
18927,-26.71
18939,-19.94
18951,-12.59
18963,-5.32
18975,1.29
18987,6.84
18999,11.13
19011,14.13
19023,15.99
19035,16.92
19047,17.14
19059,16.86
19071,16.29
19082,15.57
19093,14.9
19105,14.4
19117,14.22
19129,14.39
19141,14.83
19153,15.41
19165,15.98
19177,16.43
19189,16.67
19201,16.71
19213,16.48
19225,15.95
19237,15.05
19249,13.74
19261,12.08
19272,10.17
19283,8.15
19295,6.06
19307,3.93
19319,1.74
19331,-0.55
19343,-2.91
19355,-5.31
19367,-7.74
19379,-10.2
19391,-12.78
19403,-15.57
19415,-18.7
19427,-22.22
19439,-26.07
19451,-30.05
19462,-33.77
19473,-36.69
19485,-38.26
19497,-38.02
19509,-35.8
19521,-31.7
19533,-26.13
19545,-19.65
19557,-12.87
19569,-6.31
19581,-0.33
19593,4.86
19605,9.17
19617,12.57
19629,14.98
19641,16.37
19652,16.75
19663,16.28
19675,15.23
19687,14.05
19699,13.13
19711,12.75
19723,12.96
19735,13.6
19747,14.44
19759,15.27
19771,15.96
19783,16.5
19795,16.86
19807,16.96
19819,16.67
19831,15.89
19842,14.61
19853,12.95
19865,11.16
19877,9.41
19889,7.75
19901,6.08
19913,4.19
19925,1.93
19937,-0.72
19949,-3.62
19961,-6.57
19973,-9.41
19985,-12.08
19997,-14.65
20009,-17.27
20021,-20.12
20032,-23.3
20043,-26.86
20055,-30.65
20067,-34.33
20079,-37.39
20091,-39.22
20103,-39.29
20115,-37.31
20127,-33.37
20139,-27.84
20151,-21.35
20163,-14.55
20175,-8.02
20187,-2.24
20199,2.49
20211,5.99
20222,8.24
20233,9.36
20245,9.6
20257,9.24
20269,8.53
20281,7.67
20293,6.76
20305,5.82
20317,4.91
20329,4.1
20341,3.47
20353,3.12
20365,3.07
20377,3.23
20389,3.47
20401,3.59
20412,3.44
20423,2.98
20435,2.23
20447,1.29
20459,0.23
20471,-0.95
20483,-2.37
20495,-4.22
20507,-6.69
20519,-9.82
20531,-13.46
20543,-17.23
20555,-20.69
20567,-23.47
20579,-25.35
20591,-26.37
20602,-26.72
20613,-26.67
20625,-26.46
20637,-26.29
20649,-26.23
20661,-26.29
20673,-26.34
20685,-26.25
20697,-25.8
20709,-24.91
20721,-23.62
20733,-22.14
20745,-20.68
20757,-19.41
20769,-18.31
20781,-17.18
20792,-15.78
20803,-13.91
20815,-11.56
20827,-8.87
20839,-6.12
20851,-3.6
20863,-1.56
20875,-0.08
20887,0.92
20899,1.65
20911,2.41
20923,3.43
20935,4.84
20947,6.62
20959,8.6
20971,10.61
20982,12.49
20993,14.12
