seconds,BVP
1,-29.61
13,-31.9
25,-33.65
37,-34.27
49,-33.26
61,-30.48
73,-26.07
85,-20.47
97,-14.17
108,-7.61
119,-1.11
131,5.12
143,10.94
155,16.14
167,20.47
179,23.71
191,25.65
203,26.3
215,25.84
227,24.57
239,22.9
251,21.19
263,19.69
275,18.52
287,17.68
298,17.11
309,16.76
321,16.54
333,16.39
345,16.23
357,15.96
369,15.53
381,14.88
393,14.01
405,12.95
417,11.73
429,10.36
441,8.88
453,7.25
465,5.51
477,3.69
488,1.86
499,0.09
511,-1.58
523,-3.16
535,-4.65
547,-6.07
559,-7.41
571,-8.67
583,-9.87
595,-11.01
607,-12.17
619,-13.35
631,-14.53
643,-15.66
655,-16.7
667,-17.67
678,-18.63
689,-19.7
701,-20.99
713,-22.58
725,-24.47
737,-26.6
749,-28.83
761,-30.9
773,-32.46
785,-33.06
797,-32.32
809,-29.99
821,-26.1
833,-20.88
845,-14.69
857,-7.9
868,-0.85
879,6.19
891,12.89
903,18.89
915,23.78
927,27.26
939,29.18
951,29.67
963,29.07
975,27.82
987,26.32
999,24.89
1011,23.76
1023,23.02
1035,22.69
1047,22.64
1058,22.68
1069,22.6
1081,22.24
1093,21.59
1105,20.76
1117,19.89
1129,19.03
1141,18.03
1153,16.57
1165,14.24
1177,10.8
1189,6.33
1201,1.31
1213,-3.58
1225,-7.63
1237,-10.42
1248,-11.9
1259,-12.31
1271,-12.02
1283,-11.32
1295,-10.38
1307,-9.26
1319,-8.06
1331,-6.97
1343,-6.22
1355,-6.01
1367,-6.38
1379,-7.18
1391,-8.21
1403,-9.33
1415,-10.51
1427,-11.89
1438,-13.7
1449,-16.1
1461,-19.09
1473,-22.39
1485,-25.48
1497,-27.66
1509,-28.35
1521,-27.16
1533,-24.12
1545,-19.62
1557,-14.28
1569,-8.74
1581,-3.44
1593,1.43
1605,5.89
1617,9.98
1628,13.62
1639,16.53
1651,18.36
1663,18.84
1675,17.99
1687,16.15
1699,13.9
1711,11.85
1723,10.44
1735,9.84
1747,9.95
1759,10.55
1771,11.38
1783,12.21
1795,12.9
1807,13.3
1818,13.31
1829,12.89
1841,12.09
1853,11.05
1865,9.93
1877,8.88
1889,7.88
1901,6.89
1913,5.79
1925,4.53
1937,3.12
1949,1.61
1961,0.06
1973,-1.49
1985,-3.04
1997,-4.59
2008,-6.16
2019,-7.77
2031,-9.43
2043,-11.13
2055,-12.89
2067,-14.65
2079,-16.38
2091,-17.98
2103,-19.4
2115,-20.59
2127,-21.61
2139,-22.62
2151,-23.85
2163,-25.51
2175,-27.66
2187,-30.1
2198,-32.3
2209,-33.55
2221,-33.18
2233,-30.79
2245,-26.4
2257,-20.48
2269,-13.73
2281,-6.87
2293,-0.42
2305,5.38
2317,10.45
2329,14.77
2341,18.3
2353,20.99
2365,22.81
2377,23.78
2388,24.03
2399,23.75
2411,23.16
2423,22.46
2435,21.81
2447,21.35
2459,21.2
2471,21.38
2483,21.81
2495,22.27
2507,22.49
2519,22.18
2531,21.18
2543,19.54
2555,17.49
2567,15.35
2578,13.44
2589,11.91
2601,10.74
2613,9.78
2625,8.82
2637,7.72
2649,6.47
2661,5.16
2673,3.89
2685,2.72
2697,1.65
2709,0.59
2721,-0.58
2733,-1.9
2745,-3.35
2757,-4.9
2768,-6.51
2779,-8.21
2791,-10.09
2803,-12.17
2815,-14.42
2827,-16.68
2839,-18.79
2851,-20.64
2863,-22.23
2875,-23.73
2887,-25.31
2899,-27.11
2911,-29.04
2923,-30.85
2935,-32.06
2947,-32.15
2958,-30.63
2969,-27.26
2981,-22.11
2993,-15.61
3005,-8.38
3017,-1.13
3029,5.6
3041,11.46
3053,16.31
3065,20.09
3077,22.82
3089,24.48
3101,25.16
3113,25.02
3125,24.34
3137,23.4
3148,22.45
3159,21.6
3171,20.87
3183,20.22
3195,19.64
3207,19.13
3219,18.72
3231,18.4
3243,18.11
3255,17.77
3267,17.28
3279,16.6
3291,15.73
3303,14.73
3315,13.62
3327,12.47
3338,11.27
3349,10.03
3361,8.73
3373,7.34
3385,5.85
3397,4.28
3409,2.65
3421,1.01
3433,-0.57
3445,-2.05
3457,-3.43
3469,-4.75
3481,-6.09
3493,-7.49
3505,-8.95
3517,-10.44
3528,-11.88
3539,-13.23
3551,-14.5
3563,-15.73
3575,-16.98
3587,-18.29
3599,-19.7
3611,-21.24
3623,-22.98
3635,-24.94
3647,-27.09
3659,-29.31
3671,-31.31
3683,-32.7
3695,-33.04
3707,-32.0
3718,-29.39
3729,-25.24
3741,-19.8
3753,-13.44
3765,-6.65
3777,0.1
3789,6.34
3801,11.67
3813,15.87
3825,18.86
3837,20.69
3849,21.54
3861,21.61
3873,21.1
3885,20.23
3897,19.16
3908,18.03
3919,16.97
3931,16.06
3943,15.31
3955,14.7
3967,14.16
3979,13.64
3991,13.12
4003,12.66
4015,12.26
4027,12.0
4039,11.84
4051,11.7
4063,11.45
4075,11.0
4087,10.32
4098,9.49
4109,8.57
4121,7.63
4133,6.64
4145,5.47
4157,4.07
4169,2.43
4181,0.7
4193,-0.94
4205,-2.36
4217,-3.58
4229,-4.72
4241,-5.97
4253,-7.4
4265,-8.97
4277,-10.53
4288,-11.92
4299,-13.08
4311,-14.03
4323,-14.94
4335,-15.9
4347,-16.93
4359,-17.96
4371,-18.83
4383,-19.45
4395,-19.87
4407,-20.28
4419,-20.92
4431,-21.98
4443,-23.44
4455,-25.0
4467,-26.23
4478,-26.58
4489,-25.65
4501,-23.27
4513,-19.5
4525,-14.61
4537,-8.99
4549,-3.04
4561,2.86
4573,8.37
4585,13.23
4597,17.2
4609,20.09
4621,21.83
4633,22.44
4645,22.08
4657,21.06
4668,19.76
4679,18.52
4691,17.61
4703,17.09
4715,16.85
4727,16.71
4739,16.51
4751,16.14
4763,15.6
4775,14.97
4787,14.37
4799,13.91
4811,13.62
4823,13.48
4835,13.37
4847,13.11
4858,12.54
4869,11.57
4881,10.27
4893,8.79
4905,7.31
4917,5.95
4929,4.66
4941,3.39
4953,2.07
4965,0.75
4977,-0.45
4989,-1.46
5001,-2.3
5013,-3.08
5025,-3.91
5037,-4.83
5048,-5.83
5059,-6.86
5071,-7.94
5083,-9.09
5095,-10.37
5107,-11.75
5119,-13.13
5131,-14.33
5143,-15.27
5155,-15.97
5167,-16.58
5179,-17.33
5191,-18.36
5203,-19.64
5215,-20.97
5227,-21.99
5238,-22.28
5249,-21.49
5261,-19.43
5273,-16.12
5285,-11.85
5297,-7.02
5309,-2.06
5321,2.62
5333,6.81
5345,10.37
5357,13.24
5369,15.34
5381,16.63
5393,17.04
5405,16.64
5417,15.65
5428,14.4
5439,13.22
5451,12.35
5463,11.89
5475,11.76
5487,11.83
5499,11.94
5511,11.97
5523,11.82
5535,11.49
5547,11.02
5559,10.47
5571,9.93
5583,9.43
5595,8.97
5607,8.51
5618,7.98
5629,7.3
5641,6.44
5653,5.35
5665,4.03
5677,2.49
5689,0.8
5701,-0.9
5713,-2.45
5725,-3.71
5737,-4.64
5749,-5.33
5761,-5.93
5773,-6.59
5785,-7.43
5797,-8.5
5808,-9.81
5819,-11.36
5831,-13.04
5843,-14.72
5855,-16.17
5867,-17.18
5879,-17.72
5891,-17.93
5903,-18.08
5915,-18.53
5927,-19.47
5939,-20.92
5951,-22.7
5963,-24.52
5975,-26.02
5987,-26.86
5998,-26.72
6009,-25.39
6021,-22.76
6033,-18.88
6045,-14.0
6057,-8.52
6069,-2.83
6081,2.72
6093,7.85
6105,12.34
6117,16.0
6129,18.64
6141,20.18
6153,20.6
6165,20.08
6177,18.91
6188,17.44
6199,16.0
6211,14.81
6223,13.94
6235,13.33
6247,12.89
6259,12.55
6271,12.29
6283,12.17
6295,12.28
6307,12.64
6319,13.16
6331,13.66
6343,13.9
6355,13.7
6367,12.99
6378,11.83
6389,10.43
6401,8.99
6413,7.68
6425,6.54
6437,5.47
6449,4.32
6461,2.95
6473,1.33
6485,-0.46
6497,-2.22
6509,-3.78
6521,-5.05
6533,-6.08
6545,-7.0
6557,-7.96
6568,-9.01
6579,-10.16
6591,-11.32
6603,-12.43
6615,-13.46
6627,-14.47
6639,-15.53
6651,-16.66
6663,-17.87
6675,-19.1
6687,-20.33
6699,-21.55
6711,-22.73
6723,-23.8
6735,-24.59
6747,-24.78
6758,-24.07
6769,-22.2
6781,-19.13
6793,-14.99
6805,-10.1
6817,-4.8
6829,0.56
6841,5.72
6853,10.48
6865,14.63
6877,17.96
6889,20.31
6901,21.55
6913,21.75
6925,21.16
6937,20.11
6948,18.99
6959,18.08
6971,17.5
6983,17.21
6995,17.09
7007,17.03
7019,16.96
7031,16.81
7043,16.54
7055,16.09
7067,15.43
7079,14.57
7091,13.58
7103,12.62
7115,11.78
7127,11.13
7138,10.55
7149,9.94
7161,9.15
7173,8.1
7185,6.81
7197,5.31
7209,3.67
7221,1.98
7233,0.34
7245,-1.2
7257,-2.54
7269,-3.67
7281,-4.62
7293,-5.5
7305,-6.43
7317,-7.53
7328,-8.83
7339,-10.28
7351,-11.73
7363,-13.04
7375,-14.05
7387,-14.71
7399,-15.05
7411,-15.24
7423,-15.5
7435,-16.04
7447,-17.01
7459,-18.45
7471,-20.28
7483,-22.26
7495,-24.09
7507,-25.36
7518,-25.66
7529,-24.61
7541,-21.99
7553,-17.81
7565,-12.31
7577,-5.99
7589,0.62
7601,7.05
7613,13.02
7625,18.45
7637,23.36
7649,27.77
7661,31.62
7673,34.8
7685,37.19
7697,38.73
7708,39.44
7719,39.43
7731,38.87
7743,37.96
7755,36.92
7767,35.9
7779,35.0
7791,34.19
7803,33.39
7815,32.42
7827,31.15
7839,29.46
7851,27.28
7863,24.64
7875,21.65
7887,18.49
7898,15.42
7909,12.67
7921,10.39
7933,8.55
7945,6.93
7957,5.12
7969,2.77
7981,-0.37
7993,-4.27
8005,-8.67
8017,-13.21
8029,-17.52
8041,-21.39
8053,-24.7
8065,-27.52
8077,-29.96
8088,-32.17
8099,-34.38
8111,-36.82
8123,-39.68
8135,-42.99
8147,-46.55
8159,-49.97
8171,-52.79
8183,-54.65
8195,-55.51
8207,-55.59
8219,-55.35
8231,-55.29
8243,-55.72
8255,-56.7
8267,-57.97
8278,-59.04
8289,-59.29
8301,-58.12
8313,-55.06
8325,-49.9
8337,-42.78
8349,-34.11
8361,-24.56
8373,-14.91
8385,-5.88
8397,1.95
8409,8.29
8421,13.08
8433,16.54
8445,18.96
8457,20.68
8468,21.99
8479,23.09
8491,24.04
8503,24.79
8515,25.18
8527,24.95
8539,23.88
8551,21.86
8563,19.05
8575,15.84
8587,12.77
8599,10.33
8611,8.75
8623,8.0
8635,7.71
8647,7.47
8658,6.92
8669,5.95
8681,4.62
8693,3.18
8705,1.87
8717,0.84
8729,0.1
8741,-0.42
8753,-0.84
8765,-1.21
8777,-1.5
8789,-1.56
8801,-1.3
8813,-0.67
8825,0.22
8837,1.13
8848,1.81
8859,2.09
8871,2.04
8883,1.92
8895,2.12
8907,2.98
8919,4.56
8931,6.59
8943,8.58
8955,10.0
8967,10.48
8979,9.92
8991,8.48
9003,6.46
9015,4.22
9027,2.18
9038,0.73
9049,0.31
9061,1.3
9073,3.92
9085,8.1
9097,13.46
9109,19.37
9121,25.1
9133,29.99
9145,33.58
9157,35.68
9169,36.33
9181,35.73
9193,34.15
9205,31.84
9217,29.0
9228,25.84
9239,22.56
9251,19.42
9263,16.68
9275,14.54
9287,13.03
9299,12.06
9311,11.43
9323,10.93
9335,10.43
9347,9.84
9359,9.12
9371,8.22
9383,7.05
9395,5.6
9407,3.89
9418,2.01
9429,0.09
9441,-1.77
9453,-3.49
9465,-5.12
9477,-6.72
9489,-8.38
9501,-10.1
9513,-11.81
9525,-13.31
9537,-14.29
9549,-14.49
9561,-13.81
9573,-12.37
9585,-10.56
9597,-8.98
9608,-8.23
9619,-8.8
9631,-10.84
9643,-14.15
9655,-18.23
9667,-22.35
9679,-25.8
9691,-28.05
9703,-28.82
9715,-28.13
9727,-26.21
9739,-23.33
9751,-19.76
9763,-15.73
9775,-11.48
9787,-7.23
9798,-3.28
9809,0.13
9821,2.8
9833,4.65
9845,5.64
9857,5.83
9869,5.38
9881,4.48
9893,3.38
9905,2.36
9917,1.57
9929,1.14
9941,1.05
9953,1.21
9965,1.59
9977,2.11
9988,2.78
9999,3.57
10011,4.49
10023,5.52
10035,6.66
10047,7.84
10059,8.97
10071,9.86
10083,10.31
10095,10.15
10107,9.36
10119,8.06
10131,6.49
10143,4.91
10155,3.45
10167,2.14
10178,0.95
10189,-0.16
10201,-1.18
10213,-2.08
10225,-2.95
10237,-3.92
10249,-5.27
10261,-7.23
10273,-9.93
10285,-13.22
10297,-16.76
10309,-20.02
10321,-22.49
10333,-23.75
10345,-23.54
10357,-21.88
10368,-18.97
10379,-15.12
10391,-10.74
10403,-6.19
10415,-1.7
10427,2.63
10439,6.84
10451,10.96
10463,14.96
10475,18.64
10487,21.67
10499,23.7
10511,24.51
10523,24.14
10535,22.91
10547,21.28
10558,19.69
10569,18.35
10581,17.29
10593,16.4
10605,15.6
10617,14.93
10629,14.51
10641,14.48
10653,14.8
10665,15.25
10677,15.5
10689,15.24
10701,14.32
10713,12.79
10725,10.84
10737,8.74
10748,6.7
10759,4.81
10771,3.09
10783,1.51
10795,-0.06
10807,-1.74
10819,-3.69
10831,-6.03
10843,-8.76
10855,-11.74
10867,-14.73
10879,-17.5
10891,-19.95
10903,-22.16
10915,-24.32
10927,-26.62
10938,-29.03
10949,-31.23
10961,-32.64
10973,-32.64
10985,-30.8
10997,-27.04
11009,-21.68
11021,-15.33
11033,-8.67
11045,-2.27
11057,3.54
11069,8.67
11081,13.18
11093,17.12
11105,20.48
11117,23.1
11128,24.81
11139,25.47
11151,25.09
11163,23.92
11175,22.33
11187,20.73
11199,19.39
11211,18.32
11223,17.38
11235,16.32
11247,15.0
11259,13.42
11271,11.78
11283,10.29
11295,9.14
11307,8.3
11318,7.67
11329,7.08
11341,6.4
11353,5.6
11365,4.67
11377,3.61
11389,2.39
11401,0.95
11413,-0.73
11425,-2.65
11437,-4.76
11449,-7.01
11461,-9.33
11473,-11.68
11485,-13.94
11497,-15.99
11508,-17.74
11519,-19.18
11531,-20.42
11543,-21.66
11555,-23.12
11567,-24.89
11579,-26.84
11591,-28.59
11603,-29.68
11615,-29.64
11627,-28.17
11639,-25.26
11651,-21.09
11663,-16.08
11675,-10.64
11687,-5.13
11698,0.24
11709,5.39
11721,10.3
11733,14.92
11745,19.06
11757,22.42
11769,24.67
11781,25.65
11793,25.43
11805,24.36
11817,22.92
11829,21.59
11841,20.72
11853,20.36
11865,20.36
11877,20.44
11888,20.32
11899,19.83
11911,18.96
11923,17.83
11935,16.6
11947,15.48
11959,14.57
11971,13.89
11983,13.37
11995,12.83
12007,12.07
12019,10.92
12031,9.34
12043,7.41
12055,5.36
12067,3.43
12078,1.84
12089,0.67
12101,-0.19
12113,-0.94
12125,-1.87
12137,-3.17
12149,-4.91
12161,-7.05
12173,-9.43
12185,-11.87
12197,-14.23
12209,-16.38
12221,-18.28
12233,-19.96
12245,-21.49
12257,-23.0
12268,-24.63
12279,-26.47
12291,-28.44
12303,-30.25
12315,-31.38
12327,-31.22
12339,-29.31
12351,-25.54
12363,-20.19
12375,-13.82
12387,-7.08
12399,-0.51
12411,5.58
12423,11.01
12435,15.66
12447,19.36
12458,21.88
12469,23.12
12481,23.11
12493,22.18
12505,20.78
12517,19.37
12529,18.29
12541,17.63
12553,17.26
12565,16.94
12577,16.43
12589,15.6
12601,14.5
12613,13.26
12625,12.07
12637,11.02
12648,10.12
12659,9.35
12671,8.7
12683,8.13
12695,7.64
12707,7.2
12719,6.7
12731,6.01
12743,4.97
12755,3.52
12767,1.72
12779,-0.25
12791,-2.15
12803,-3.76
12815,-5.01
12827,-5.93
12838,-6.72
12849,-7.58
12861,-8.64
12873,-9.88
12885,-11.15
12897,-12.26
12909,-13.1
12921,-13.7
12933,-14.16
12945,-14.57
12957,-15.03
12969,-15.59
12981,-16.36
12993,-17.52
13005,-19.19
13017,-21.38
13028,-23.82
13039,-26.03
13051,-27.38
13063,-27.36
13075,-25.73
13087,-22.54
13099,-18.1
13111,-12.81
13123,-7.07
13135,-1.23
13147,4.39
13159,9.53
13171,13.92
13183,17.38
13195,19.78
13207,21.14
13218,21.51
13229,21.08
13241,20.04
13253,18.61
13265,17.04
13277,15.49
13289,14.08
13301,12.88
13313,11.92
13325,11.23
13337,10.83
13349,10.73
13361,10.86
13373,11.07
13385,11.13
13397,10.84
13408,10.11
13419,8.99
13431,7.61
13443,6.15
13455,4.73
13467,3.44
13479,2.27
13491,1.15
13503,0.03
13515,-1.14
13527,-2.4
13539,-3.78
13551,-5.28
13563,-6.85
13575,-8.48
13587,-10.11
13598,-11.67
13609,-13.05
13621,-14.15
13633,-14.89
13645,-15.31
13657,-15.53
13669,-15.76
13681,-16.22
13693,-17.05
13705,-18.29
13717,-19.87
13729,-21.66
13741,-23.44
13753,-24.96
13765,-25.88
13777,-25.9
13788,-24.82
13799,-22.58
13811,-19.3
13823,-15.23
13835,-10.66
13847,-5.84
13859,-0.97
13871,3.78
13883,8.26
13895,12.24
13907,15.48
13919,17.76
13931,18.96
13943,19.12
13955,18.39
13967,17.06
13978,15.45
13989,13.85
14001,12.48
14013,11.44
14025,10.72
14037,10.27
14049,9.96
14061,9.69
14073,9.37
14085,8.95
14097,8.43
14109,7.83
14121,7.16
14133,6.42
14145,5.58
14157,4.65
14168,3.68
14179,2.73
14191,1.88
14203,1.11
14215,0.33
14227,-0.62
14239,-1.81
14251,-3.24
14263,-4.74
14275,-6.08
14287,-7.08
14299,-7.74
14311,-8.18
14323,-8.65
14335,-9.38
14347,-10.45
14358,-11.79
14369,-13.21
14381,-14.54
14393,-15.68
14405,-16.71
14417,-17.78
14429,-19.08
14441,-20.66
14453,-22.44
14465,-24.23
14477,-25.74
14489,-26.7
14501,-26.91
14513,-26.25
14525,-24.65
14537,-22.12
14548,-18.73
14559,-14.6
14571,-9.97
14583,-5.08
14595,-0.16
14607,4.63
14619,9.22
14631,13.52
14643,17.4
14655,20.6
14667,22.89
14679,24.1
14691,24.26
14703,23.64
14715,22.61
14727,21.5
14738,20.48
14749,19.51
14761,18.44
14773,17.18
14785,15.75
14797,14.33
14809,13.13
14821,12.27
14833,11.79
14845,11.59
14857,11.53
14869,11.46
14881,11.27
14893,10.88
14905,10.25
14917,9.39
14928,8.28
14939,6.95
14951,5.44
14963,3.8
14975,2.09
14987,0.43
14999,-1.11
15011,-2.49
15023,-3.73
15035,-4.92
15047,-6.14
15059,-7.4
15071,-8.65
15083,-9.76
15095,-10.64
15107,-11.27
15118,-11.75
15129,-12.15
15141,-12.59
15153,-13.09
15165,-13.71
15177,-14.58
15189,-15.91
15201,-17.86
15213,-20.45
15225,-23.44
15237,-26.32
15249,-28.44
15261,-29.27
15273,-28.51
15285,-26.2
15297,-22.6
15308,-18.11
15319,-13.12
15331,-7.92
15343,-2.73
15355,2.29
15367,7.0
15379,11.2
15391,14.72
15403,17.4
15415,19.14
15427,19.92
15439,19.83
15451,19.03
15463,17.75
15475,16.29
15487,14.88
15498,13.73
15509,12.92
15521,12.42
15533,12.11
15545,11.85
15557,11.51
15569,11.02
15581,10.38
15593,9.69
15605,9.05
15617,8.55
15629,8.25
15641,8.1
15653,8.01
15665,7.79
15677,7.32
15688,6.53
15699,5.42
15711,4.11
15723,2.75
15735,1.52
15747,0.55
15759,-0.15
15771,-0.68
15783,-1.23
15795,-2.01
15807,-3.18
15819,-4.77
15831,-6.69
15843,-8.81
15855,-10.94
15867,-12.97
15878,-14.82
15889,-16.45
15901,-17.82
15913,-18.92
15925,-19.83
15937,-20.71
15949,-21.79
15961,-23.28
15973,-25.24
15985,-27.49
15997,-29.62
16009,-31.09
16021,-31.42
16033,-30.32
16045,-27.81
16057,-24.13
16068,-19.64
16079,-14.69
16091,-9.5
16103,-4.17
16115,1.26
16127,6.66
16139,11.82
16151,16.44
16163,20.16
16175,22.72
16187,24.0
16199,24.06
16211,23.16
16223,21.63
16235,19.91
16247,18.41
16258,17.42
16269,17.06
16281,17.26
16293,17.75
16305,18.21
16317,18.39
16329,18.15
16341,17.55
16353,16.73
16365,15.87
16377,15.08
16389,14.41
16401,13.82
16413,13.24
16425,12.6
16437,11.84
16448,10.94
16459,9.91
16471,8.81
16483,7.7
16495,6.64
16507,5.58
16519,4.46
16531,3.14
16543,1.56
16555,-0.25
16567,-2.19
16579,-4.08
16591,-5.81
16603,-7.34
16615,-8.72
16627,-10.06
16638,-11.42
16649,-12.82
16661,-14.18
16673,-15.43
16685,-16.58
16697,-17.69
16709,-18.92
16721,-20.4
16733,-22.19
16745,-24.19
16757,-26.16
16769,-27.78
16781,-28.67
16793,-28.54
16805,-27.21
16817,-24.6
16828,-20.77
16839,-15.92
16851,-10.31
16863,-4.3
16875,1.73
16887,7.42
16899,12.43
16911,16.48
16923,19.4
16935,21.07
16947,21.51
16959,20.91
16971,19.53
16983,17.76
16995,16.03
17007,14.7
17018,13.94
17029,13.7
17041,13.76
17053,13.84
17065,13.77
17077,13.53
17089,13.2
17101,12.94
17113,12.84
17125,12.87
17137,12.87
17149,12.67
17161,12.15
17173,11.26
17185,10.09
17197,8.76
17208,7.37
17219,5.97
17231,4.56
17243,3.11
17255,1.59
17267,0.04
17279,-1.44
17291,-2.72
17303,-3.78
17315,-4.65
17327,-5.54
17339,-6.56
17351,-7.82
17363,-9.26
17375,-10.78
17387,-12.31
17398,-13.8
17409,-15.24
17421,-16.61
17433,-17.87
17445,-18.99
17457,-20.05
17469,-21.18
17481,-22.6
17493,-24.38
17505,-26.37
17517,-28.2
17529,-29.37
17541,-29.42
17553,-28.06
17565,-25.26
17577,-21.15
17588,-16.01
17599,-10.12
17611,-3.8
17623,2.66
17635,8.92
17647,14.69
17659,19.64
17671,23.52
17683,26.14
17695,27.44
17707,27.53
17719,26.66
17731,25.19
17743,23.52
17755,21.97
17767,20.7
17778,19.74
17789,19.02
17801,18.46
17813,18.0
17825,17.68
17837,17.48
17849,17.38
17861,17.29
17873,17.07
17885,16.61
17897,15.85
17909,14.79
17921,13.47
17933,11.97
17945,10.42
17957,8.91
17968,7.51
17979,6.24
17991,4.98
18003,3.59
18015,1.98
18027,0.16
18039,-1.74
18051,-3.5
18063,-4.99
18075,-6.22
18087,-7.33
18099,-8.49
18111,-9.8
18123,-11.23
18135,-12.7
18147,-14.09
18158,-15.35
18169,-16.51
18181,-17.6
18193,-18.67
18205,-19.78
18217,-20.94
18229,-22.25
18241,-23.79
18253,-25.56
18265,-27.48
18277,-29.26
18289,-30.47
18301,-30.66
18313,-29.42
18325,-26.51
18337,-21.96
18348,-16.07
18359,-9.33
18371,-2.3
18383,4.51
18395,10.72
18407,16.11
18419,20.55
18431,23.95
18443,26.22
18455,27.33
18467,27.34
18479,26.43
18491,24.88
18503,23.02
18515,21.14
18527,19.43
18538,17.97
18549,16.79
18561,15.84
18573,15.09
18585,14.51
18597,14.05
18609,13.68
18621,13.35
18633,13.04
18645,12.7
18657,12.29
18669,11.74
18681,10.99
18693,9.98
18705,8.7
18717,7.19
18728,5.5
18739,3.7
18751,1.87
18763,0.11
18775,-1.52
18787,-2.97
18799,-4.27
18811,-5.47
18823,-6.66
18835,-7.91
18847,-9.24
18859,-10.63
18871,-12.07
18883,-13.52
18895,-14.96
18907,-16.36
18918,-17.62
18929,-18.67
18941,-19.43
18953,-19.98
18965,-20.47
18977,-21.14
18989,-22.22
19001,-23.84
19013,-25.89
19025,-28.08
19037,-29.97
19049,-31.03
19061,-30.8
19073,-29.03
19085,-25.68
19097,-20.93
19108,-15.15
19119,-8.74
19131,-2.07
19143,4.5
19155,10.67
19167,16.14
19179,20.62
19191,23.84
19203,25.67
19215,26.13
19227,25.42
19239,23.88
19251,21.93
19263,19.94
19275,18.21
19287,16.91
19298,16.07
19309,15.61
19321,15.4
19333,15.29
19345,15.16
19357,14.94
19369,14.59
19381,14.12
19393,13.52
19405,12.78
19417,11.93
19429,11.01
19441,10.09
19453,9.19
19465,8.3
19477,7.34
19488,6.21
19499,4.85
19511,3.29
19523,1.58
19535,-0.14
19547,-1.8
19559,-3.38
19571,-4.92
19583,-6.47
19595,-8.05
19607,-9.63
19619,-11.18
19631,-12.65
19643,-14.02
19655,-15.25
19667,-16.34
19678,-17.29
19689,-18.19
19701,-19.17
19713,-20.35
19725,-21.79
19737,-23.43
19749,-25.1
19761,-26.53
19773,-27.39
19785,-27.39
19797,-26.26
19809,-23.83
19821,-20.05
19833,-15.06
19845,-9.19
19857,-2.88
19868,3.41
19879,9.26
19891,14.41
19903,18.69
19915,21.98
19927,24.19
19939,25.22
19951,25.09
19963,23.92
19975,22.0
19987,19.75
19999,17.59
20011,15.86
20023,14.73
20035,14.1
20047,13.79
20058,13.6
20069,13.41
20081,13.22
20093,13.03
20105,12.86
20117,12.65
20129,12.34
20141,11.83
20153,11.15
20165,10.35
20177,9.54
20189,8.75
20201,7.95
20213,7.04
20225,5.88
20237,4.41
20248,2.65
20259,0.68
20271,-1.37
20283,-3.41
20295,-5.42
20307,-7.42
20319,-9.43
20331,-11.41
20343,-13.31
20355,-14.97
20367,-16.33
20379,-17.38
20391,-18.2
20403,-18.91
20415,-19.68
20427,-20.67
20438,-22.0
20449,-23.76
20461,-25.91
20473,-28.27
20485,-30.5
20497,-32.09
20509,-32.52
20521,-31.34
20533,-28.39
20545,-23.75
20557,-17.82
20569,-11.12
20581,-4.21
20593,2.45
20605,8.54
20617,13.87
20628,18.28
20639,21.67
20651,23.94
20663,25.03
20675,25.03
20687,24.13
20699,22.63
20711,20.91
20723,19.26
20735,17.9
20747,16.9
20759,16.21
20771,15.76
20783,15.42
20795,15.13
20807,14.86
20818,14.6
20829,14.3
20841,13.92
20853,13.36
20865,12.56
20877,11.54
20889,10.3
20901,8.93
20913,7.44
20925,5.85
20937,4.16
20949,2.35
20961,0.51
20973,-1.31
20985,-3.02
20997,-4.62
