seconds,BVP
11,-49.91
23,-51.81
35,-51.19
46,-47.76
57,-41.67
69,-33.51
81,-24.13
93,-14.4
105,-5.1
117,3.24
129,10.33
141,16.04
153,20.35
165,23.31
177,25.03
189,25.73
201,25.72
213,25.37
225,24.99
236,24.74
247,24.59
259,24.45
271,24.22
283,23.93
295,23.74
307,23.78
319,24.04
331,24.34
343,24.35
355,23.76
367,22.34
379,20.12
391,17.29
403,14.16
415,11.04
426,8.16
437,5.59
449,3.26
461,0.98
473,-1.42
485,-4.01
497,-6.76
509,-9.52
521,-12.2
533,-14.78
545,-17.43
557,-20.36
569,-23.76
581,-27.75
593,-32.26
605,-37.06
616,-41.64
627,-45.35
639,-47.44
651,-47.31
663,-44.65
675,-39.68
687,-32.99
699,-25.44
711,-17.84
723,-10.74
735,-4.38
747,1.15
759,5.88
771,9.77
783,12.77
795,14.89
806,16.25
817,17.07
829,17.61
841,18.04
853,18.43
865,18.74
877,18.92
889,18.99
901,18.98
913,18.92
925,18.78
937,18.45
949,17.83
961,16.84
973,15.52
985,13.95
996,12.26
1007,10.49
1019,8.66
1031,6.71
1043,4.64
1055,2.47
1067,0.28
1079,-1.87
1091,-3.93
1103,-5.94
1115,-7.97
1127,-10.07
1139,-12.3
1151,-14.65
1163,-17.19
1175,-19.96
1186,-23.02
1197,-26.42
1209,-30.07
1221,-33.75
1233,-36.98
1245,-39.15
1257,-39.61
1269,-37.92
1281,-33.96
1293,-28.11
1305,-21.03
1317,-13.54
1329,-6.32
1341,0.17
1353,5.71
1365,10.23
1376,13.68
1387,16.04
1399,17.32
1411,17.66
1423,17.27
1435,16.49
1447,15.62
1459,14.85
1471,14.23
1483,13.68
1495,13.08
1507,12.35
1519,11.48
1531,10.51
1543,9.52
1555,8.54
1566,7.53
1577,6.41
1589,5.12
1601,3.65
1613,2.03
1625,0.35
1637,-1.34
1649,-3.02
1661,-4.67
1673,-6.3
1685,-7.81
1697,-9.14
1709,-10.26
1721,-11.29
1733,-12.52
1745,-14.29
1756,-16.91
1767,-20.5
1779,-24.91
1791,-29.64
1803,-34.01
1815,-37.26
1827,-38.78
1839,-38.19
1851,-35.49
1863,-30.99
1875,-25.2
1887,-18.74
1899,-12.15
1911,-5.87
1923,-0.18
1935,4.77
1946,8.88
1957,12.12
1969,14.49
1981,16.08
1993,17.04
2005,17.6
2017,18.02
2029,18.5
2041,19.18
2053,20.02
2065,20.87
2077,21.47
2089,21.59
2101,21.05
2113,19.85
2125,18.13
2136,16.16
2147,14.17
2159,12.25
2171,10.31
2183,8.11
2195,5.4
2207,2.02
2219,-1.96
2231,-6.31
2243,-10.65
2255,-14.61
2267,-17.98
2279,-20.8
2291,-23.33
2303,-25.95
2315,-29.06
2326,-32.88
2337,-37.29
2349,-41.77
2361,-45.54
2373,-47.76
2385,-47.77
2397,-45.3
2409,-40.56
2421,-34.05
2433,-26.43
2445,-18.31
2457,-10.22
2469,-2.53
2481,4.44
2493,10.45
2505,15.35
2516,19.08
2527,21.74
2539,23.52
2551,24.68
2563,25.41
2575,25.84
2587,26.04
2599,26.05
2611,25.96
2623,25.82
2635,25.69
2647,25.5
2659,25.1
2671,24.27
2683,22.9
2695,20.98
2706,18.68
2717,16.22
2729,13.82
2741,11.57
2753,9.4
2765,7.17
2777,4.74
2789,2.07
2801,-0.78
2813,-3.68
2825,-6.51
2837,-9.21
2849,-11.85
2861,-14.65
2873,-17.9
2885,-21.87
2896,-26.71
2907,-32.36
2919,-38.49
2931,-44.53
2943,-49.73
2955,-53.28
2967,-54.46
2979,-52.8
2991,-48.21
3003,-40.98
3015,-31.78
3027,-21.52
3039,-11.15
3051,-1.56
3063,6.72
3075,13.42
3086,18.62
3097,22.55
3109,25.53
3121,27.77
3133,29.41
3145,30.5
3157,31.1
3169,31.33
3181,31.34
3193,31.3
3205,31.31
3217,31.37
3229,31.36
3241,31.14
3253,30.58
3265,29.63
3276,28.33
3287,26.72
3299,24.85
3311,22.68
3323,20.19
3335,17.37
3347,14.3
3359,11.16
3371,8.08
3383,5.14
3395,2.26
3407,-0.72
3419,-3.88
3431,-7.2
3443,-10.48
3455,-13.5
3466,-16.12
3477,-18.5
3489,-21.03
3501,-24.23
3513,-28.47
3525,-33.72
3537,-39.45
3549,-44.72
3561,-48.4
3573,-49.52
3585,-47.49
3597,-42.23
3609,-34.15
3621,-24.05
3633,-12.89
3645,-1.68
3656,8.72
3667,17.67
3679,24.9
3691,30.4
3703,34.4
3715,37.18
3727,38.91
3739,39.66
3751,39.48
3763,38.51
3775,37.07
3787,35.56
3799,34.36
3811,33.66
3823,33.36
3835,33.18
3846,32.79
3857,31.96
3869,30.68
3881,29.03
3893,27.1
3905,24.98
3917,22.67
3929,20.23
3941,17.76
3953,15.4
3965,13.26
3977,11.26
3989,9.18
4001,6.72
4013,3.64
4025,-0.06
4036,-4.17
4047,-8.31
4059,-12.17
4071,-15.62
4083,-18.93
4095,-22.58
4107,-27.04
4119,-32.52
4131,-38.72
4143,-44.89
4155,-49.9
4167,-52.7
4179,-52.6
4191,-49.43
4203,-43.56
4215,-35.75
4226,-26.84
4237,-17.63
4249,-8.73
4261,-0.6
4273,6.42
4285,12.04
4297,16.09
4309,18.53
4321,19.55
4333,19.51
4345,18.89
4357,18.13
4369,17.63
4381,17.55
4393,17.97
4405,18.88
4416,20.2
4427,21.78
4439,23.36
4451,24.58
4463,25.11
4475,24.71
4487,23.36
4499,21.22
4511,18.5
4523,15.35
4535,11.8
4547,7.8
4559,3.37
4571,-1.33
4583,-5.98
4595,-10.26
4606,-13.96
4617,-17.14
4629,-20.05
4641,-23.07
4653,-26.54
4665,-30.66
4677,-35.44
4689,-40.72
4701,-46.17
4713,-51.28
4725,-55.47
4737,-58.06
4749,-58.39
4761,-56.05
4773,-50.96
4785,-43.46
4796,-34.29
4807,-24.31
4819,-14.35
4831,-5.07
4843,3.19
4855,10.25
4867,16.09
4879,20.81
4891,24.65
4903,28.08
4915,31.74
4927,36.26
4939,42.05
4951,49.01
4963,56.53
4975,63.6
4986,69.1
4997,72.12
5009,72.21
5021,69.45
5033,64.31
5045,57.48
5057,49.7
5069,41.57
5081,33.55
5093,25.87
5105,18.6
5117,11.67
5129,5.04
5141,-1.25
5153,-7.03
5165,-12.08
5176,-16.19
5187,-19.34
5199,-21.77
5211,-23.92
5223,-26.35
5235,-29.53
5247,-33.81
5259,-39.24
5271,-45.56
5283,-52.2
5295,-58.3
5307,-62.93
5319,-65.14
5331,-64.31
5343,-60.25
5355,-53.3
5366,-44.19
5377,-33.92
5389,-23.42
5401,-13.49
5413,-4.59
5425,3.11
5437,9.72
5449,15.54
5461,20.9
5473,26.07
5485,31.21
5497,36.37
5509,41.58
5521,46.86
5533,52.3
5545,57.95
5556,63.76
5567,69.57
5579,75.11
5591,80.09
5603,84.35
5615,87.84
5627,90.52
5639,92.21
5651,92.49
5663,90.8
5675,86.56
5687,79.48
5699,69.7
5711,57.74
5723,44.34
5735,30.35
5746,16.41
5757,3.05
5769,-9.36
5781,-20.58
5793,-30.41
5805,-38.83
5817,-45.93
5829,-52.0
5841,-57.45
5853,-62.66
5865,-67.76
5877,-72.57
5889,-76.52
5901,-78.84
5913,-78.77
5925,-75.86
5936,-70.19
5947,-62.28
5959,-52.99
5971,-43.25
5983,-33.75
5995,-24.96
6007,-17.03
6019,-9.99
6031,-3.9
6043,1.15
6055,5.05
6067,7.68
6079,9.12
6091,9.58
6103,9.44
6115,9.09
6126,8.84
6137,8.78
6149,8.81
6161,8.71
6173,8.38
6185,7.81
6197,7.25
6209,6.93
6221,6.89
6233,6.94
6245,6.66
6257,5.71
6269,3.93
6281,1.52
6293,-1.15
6305,-3.67
6316,-5.9
6327,-7.97
6339,-10.13
6351,-12.63
6363,-15.52
6375,-18.66
6387,-21.81
6399,-24.8
6411,-27.7
6423,-30.71
6435,-34.11
6447,-38.09
6459,-42.61
6471,-47.34
6483,-51.68
6495,-54.85
6506,-56.06
6517,-54.69
6529,-50.51
6541,-43.71
6553,-34.83
6565,-24.64
6577,-13.95
6589,-3.51
6601,6.1
6613,14.39
6625,21.02
6637,25.77
6649,28.62
6661,29.76
6673,29.56
6685,28.49
6696,27.02
6707,25.53
6719,24.29
6731,23.45
6743,23.02
6755,22.89
6767,22.9
6779,22.87
6791,22.64
6803,22.15
6815,21.44
6827,20.52
6839,19.43
6851,18.03
6863,16.17
6875,13.66
6886,10.45
6897,6.7
6909,2.72
6921,-1.09
6933,-4.47
6945,-7.35
6957,-9.88
6969,-12.36
6981,-15.08
6993,-18.2
7005,-21.77
7017,-25.69
7029,-29.8
7041,-33.88
7053,-37.56
7065,-40.32
7076,-41.55
7087,-40.65
7099,-37.26
7111,-31.4
7123,-23.49
7135,-14.29
7147,-4.64
7159,4.7
7171,13.16
7183,20.44
7195,26.34
7207,30.73
7219,33.53
7231,34.74
7243,34.58
7255,33.48
7266,32.03
7277,30.78
7289,30.12
7301,30.06
7313,30.33
7325,30.46
7337,30.06
7349,28.95
7361,27.17
7373,24.99
7385,22.69
7397,20.48
7409,18.39
7421,16.29
7433,13.96
7445,11.18
7456,7.84
7467,3.99
7479,-0.17
7491,-4.41
7503,-8.49
7515,-12.34
7527,-15.99
7539,-19.62
7551,-23.4
7563,-27.47
7575,-31.89
7587,-36.55
7599,-41.24
7611,-45.54
7623,-48.85
7635,-50.53
7646,-49.93
7657,-46.73
7669,-40.95
7681,-33.07
7693,-23.85
7705,-14.12
7717,-4.6
7729,4.16
7741,11.84
7753,18.24
7765,23.26
7777,26.87
7789,29.13
7801,30.25
7813,30.47
7825,30.14
7836,29.59
7847,29.1
7859,28.85
7871,28.86
7883,29.06
7895,29.26
7907,29.31
7919,29.09
7931,28.52
7943,27.59
7955,26.26
7967,24.5
7979,22.28
7991,19.61
8003,16.6
8015,13.36
8026,9.99
8037,6.53
8049,2.99
8061,-0.69
8073,-4.51
8085,-8.43
8097,-12.3
8109,-16.01
8121,-19.49
8133,-22.81
8145,-26.15
8157,-29.76
8169,-33.86
8181,-38.51
8193,-43.46
8205,-48.15
8216,-51.73
8227,-53.29
8239,-52.05
8251,-47.66
8263,-40.31
8275,-30.71
8287,-19.88
8299,-8.87
8311,1.47
8323,10.63
8335,18.38
8347,24.62
8359,29.32
8371,32.46
8383,34.11
8395,34.47
8406,33.93
8417,32.96
8429,31.96
8441,31.25
8453,30.92
8465,30.9
8477,31.04
8489,31.19
8501,31.25
8513,31.17
8525,30.87
8537,30.23
8549,29.03
8561,27.06
8573,24.19
8585,20.54
8596,16.41
8607,12.22
8619,8.33
8631,4.91
8643,1.88
8655,-0.97
8667,-3.87
8679,-6.91
8691,-10.03
8703,-13.07
8715,-15.94
8727,-18.61
8739,-21.15
8751,-23.75
8763,-26.59
8775,-29.89
8786,-33.79
8797,-38.26
8809,-43.03
8821,-47.48
8833,-50.78
8845,-52.0
8857,-50.46
8869,-45.89
8881,-38.61
8893,-29.44
8905,-19.48
8917,-9.82
8929,-1.27
8941,5.77
8953,11.28
8965,15.46
8976,18.52
8987,20.56
8999,21.63
9011,21.83
9023,21.38
9035,20.75
9047,20.42
9059,20.79
9071,21.97
9083,23.73
9095,25.57
9107,27.0
9119,27.71
9131,27.67
9143,27.13
9155,26.44
9166,25.85
9177,25.42
9189,24.96
9201,24.12
9213,22.56
9225,20.16
9237,17.05
9249,13.63
9261,10.43
9273,7.86
9285,6.08
9297,4.95
9309,4.06
9321,2.92
9333,1.02
9345,-1.97
9356,-6.25
9367,-11.8
9379,-18.31
9391,-25.15
9403,-31.34
9415,-35.71
9427,-37.21
9439,-35.24
9451,-29.96
9463,-22.14
9475,-12.99
9487,-3.72
9499,4.82
9511,12.25
9523,18.6
9535,24.04
9546,28.71
9557,32.53
9569,35.36
9581,37.04
9593,37.61
9605,37.34
9617,36.74
9629,36.33
9641,36.56
9653,37.59
9665,39.36
9677,41.65
9689,44.27
9701,47.08
9713,50.07
9725,53.21
9736,56.32
9747,59.1
9759,61.16
9771,62.14
9783,61.73
9795,59.61
9807,55.44
9819,48.89
9831,39.79
9843,28.33
9855,15.13
9867,1.04
9879,-13.09
9891,-26.78
9903,-40.07
9915,-53.4
9926,-67.32
9937,-81.94
9949,-96.6
9961,-109.7
9973,-119.06
9985,-122.42
9997,-118.27
10009,-106.32
10021,-87.73
10033,-64.78
10045,-40.28
10057,-16.96
10069,3.07
10081,18.41
10093,28.35
10105,32.79
10116,32.01
10127,26.68
10139,17.72
10151,6.17
10163,-6.94
10175,-20.7
10187,-34.22
10199,-46.66
10211,-57.27
10223,-65.52
10235,-71.29
10247,-74.97
10259,-77.33
10271,-79.24
10283,-81.35
10295,-83.83
10306,-86.42
10317,-88.66
10329,-90.09
10341,-90.49
10353,-89.88
10365,-88.45
10377,-86.39
10389,-83.88
10401,-80.97
10413,-77.66
10425,-73.9
10437,-69.58
10449,-64.56
10461,-58.59
10473,-51.3
10485,-42.22
10496,-30.97
10507,-17.56
10519,-2.61
10531,12.61
10543,26.49
10555,37.52
10567,44.96
10579,49.04
10591,50.86
10603,51.97
10615,53.63
10627,56.39
10639,60.0
10651,63.66
10663,66.43
10675,67.61
10686,66.86
10697,64.15
10709,59.65
10721,53.66
10733,46.73
10745,39.78
10757,34.2
10769,31.72
10781,34.08
10793,42.39
10805,56.44
10817,74.33
10829,92.7
10841,107.59
10853,115.9
10865,116.57
10876,110.96
10887,102.38
10899,94.49
10911,89.91
10923,89.23
10935,91.23
10947,93.92
10959,95.81
10971,96.37
10983,95.8
10995,94.04
11007,89.91
11019,81.14
11031,65.33
11043,41.4
11055,10.58
11066,-23.66
11077,-56.75
11089,-84.63
11101,-104.99
11113,-117.42
11125,-122.76
11137,-122.25
11149,-117.51
11161,-111.05
11173,-106.92
11185,-110.27
11197,-125.63
11209,-154.37
11221,-192.85
11233,-232.4
11245,-261.69
11256,-270.7
11267,-254.28
11279,-213.99
11291,-157.23
11303,-94.38
11315,-35.44
11327,12.61
11339,46.67
11351,66.94
11363,75.64
11375,75.7
11387,70.11
11399,61.66
11411,52.92
11423,46.21
11435,43.16
11446,44.28
11457,48.65
11469,54.2
11481,58.44
11493,59.28
11505,55.91
11517,49.1
11529,40.86
11541,33.67
11553,29.48
11565,28.91
11577,31.18
11589,34.48
11601,36.87
11613,37.17
11625,35.39
11636,32.62
11647,30.38
11659,29.86
11671,31.36
11683,34.29
11695,37.44
11707,39.52
11719,39.71
11731,37.86
11743,34.47
11755,30.5
11767,26.99
11779,24.74
11791,24.18
11803,25.28
11815,27.65
11826,30.74
11837,34.04
11849,37.11
11861,39.66
11873,41.36
11885,41.79
11897,40.49
11909,37.12
11921,31.76
11933,25.04
11945,18.03
11957,11.91
11969,7.47
11981,4.86
11993,3.54
12005,2.64
12016,1.36
12027,-0.63
12039,-3.09
12051,-5.44
12063,-7.07
12075,-7.68
12087,-7.38
12099,-6.67
12111,-6.15
12123,-6.24
12135,-6.91
12147,-7.72
12159,-8.02
12171,-7.28
12183,-5.44
12195,-2.99
12206,-0.83
12217,0.09
12229,-0.84
12241,-3.75
12253,-8.24
12265,-13.58
12277,-18.93
12289,-23.5
12301,-26.58
12313,-27.66
12325,-26.35
12337,-22.56
12349,-16.57
12361,-8.96
12373,-0.56
12385,7.76
12396,15.34
12407,21.71
12419,26.62
12431,29.92
12443,31.57
12455,31.62
12467,30.3
12479,28.1
12491,25.64
12503,23.55
12515,22.18
12527,21.56
12539,21.39
12551,21.24
12563,20.77
12575,19.87
12586,18.64
12597,17.23
12609,15.8
12621,14.38
12633,12.93
12645,11.39
12657,9.69
12669,7.77
12681,5.6
12693,3.18
12705,0.61
12717,-1.97
12729,-4.36
12741,-6.53
12753,-8.63
12765,-11.06
12776,-14.25
12787,-18.5
12799,-23.78
12811,-29.67
12823,-35.36
12835,-39.89
12847,-42.28
12859,-41.82
12871,-38.23
12883,-31.76
12895,-23.19
12907,-13.63
12919,-4.19
12931,4.25
12943,11.26
12955,16.82
12966,21.11
12977,24.26
12989,26.26
13001,27.0
13013,26.46
13025,24.87
13037,22.83
13049,21.04
13061,20.04
13073,20.04
13085,20.73
13097,21.47
13109,21.52
13121,20.39
13133,17.96
13145,14.56
13156,10.76
13167,7.15
13179,4.1
13191,1.64
13203,-0.45
13215,-2.48
13227,-4.78
13239,-7.49
13251,-10.61
13263,-14.02
13275,-17.57
13287,-21.09
13299,-24.49
13311,-27.76
13323,-30.97
13335,-34.23
13346,-37.69
13357,-41.44
13369,-45.47
13381,-49.56
13393,-53.32
13405,-56.2
13417,-57.64
13429,-57.14
13441,-54.39
13453,-49.33
13465,-42.13
13477,-33.18
13489,-23.06
13501,-12.44
13513,-2.06
13525,7.42
13536,15.4
13547,21.47
13559,25.49
13571,27.58
13583,28.1
13595,27.49
13607,26.22
13619,24.7
13631,23.28
13643,22.2
13655,21.56
13667,21.32
13679,21.25
13691,21.08
13703,20.5
13715,19.36
13726,17.57
13737,15.17
13749,12.21
13761,8.75
13773,4.88
13785,0.7
13797,-3.56
13809,-7.62
13821,-11.21
13833,-14.21
13845,-16.65
13857,-18.74
13869,-20.77
13881,-23.03
13893,-25.79
13905,-29.24
13916,-33.46
13927,-38.33
13939,-43.32
13951,-47.55
13963,-49.88
13975,-49.3
13987,-45.19
13999,-37.66
14011,-27.46
14023,-15.75
14035,-3.75
14047,7.52
14059,17.3
14071,25.06
14083,30.41
14095,33.21
14106,33.6
14117,32.12
14129,29.56
14141,26.78
14153,24.42
14165,22.76
14177,21.67
14189,20.85
14201,19.96
14213,18.78
14225,17.27
14237,15.49
14249,13.56
14261,11.54
14273,9.44
14285,7.2
14296,4.68
14307,1.71
14319,-1.87
14331,-6.08
14343,-10.79
14355,-15.76
14367,-20.69
14379,-25.33
14391,-29.62
14403,-33.67
14415,-37.7
14427,-42.04
14439,-46.87
14451,-52.12
14463,-57.35
14475,-61.75
14486,-64.24
14497,-63.84
14509,-59.93
14521,-52.5
14533,-42.23
14545,-30.24
14557,-17.76
14569,-5.82
14581,4.95
14593,14.21
14605,21.8
14617,27.56
14629,31.28
14641,32.85
14653,32.37
14665,30.27
14676,27.25
14687,24.09
14699,21.48
14711,19.76
14723,18.91
14735,18.68
14747,18.69
14759,18.6
14771,18.23
14783,17.54
14795,16.54
14807,15.2
14819,13.47
14831,11.26
14843,8.52
14855,5.3
14866,1.81
14877,-1.66
14889,-4.83
14901,-7.56
14913,-9.87
14925,-12.0
14937,-14.32
14949,-17.27
14961,-21.19
14973,-26.28
14985,-32.46
14997,-39.26
15009,-45.83
15021,-51.02
15033,-53.62
15045,-52.69
15056,-47.92
15067,-39.69
15079,-29.02
15091,-17.25
15103,-5.57
15115,5.15
15127,14.55
15139,22.53
15151,29.1
15163,34.21
15175,37.7
15187,39.47
15199,39.55
15211,38.19
15223,35.86
15235,33.11
15246,30.42
15257,28.18
15269,26.59
15281,25.69
15293,25.36
15305,25.38
15317,25.47
15329,25.33
15341,24.79
15353,23.71
15365,22.09
15377,19.98
15389,17.45
15401,14.53
15413,11.23
15425,7.6
15436,3.73
15447,-0.18
15459,-3.92
15471,-7.37
15483,-10.51
15495,-13.52
15507,-16.67
15519,-20.23
15531,-24.43
15543,-29.34
15555,-34.87
15567,-40.72
15579,-46.27
15591,-50.7
15603,-52.98
15615,-52.27
15626,-48.1
15637,-40.59
15649,-30.43
15661,-18.63
15673,-6.28
15685,5.67
15697,16.55
15709,25.86
15721,33.27
15733,38.55
15745,41.64
15757,42.69
15769,42.01
15781,40.05
15793,37.3
15805,34.25
15816,31.36
15827,29.06
15839,27.67
15851,27.33
15863,27.98
15875,29.36
15887,31.04
15899,32.6
15911,33.64
15923,33.9
15935,33.21
15947,31.48
15959,28.74
15971,25.07
15983,20.68
15995,15.84
16006,10.83
16017,5.89
16029,1.21
16041,-3.11
16053,-7.03
16065,-10.61
16077,-13.97
16089,-17.36
16101,-21.01
16113,-25.25
16125,-30.3
16137,-36.19
16149,-42.62
16161,-48.92
16173,-54.09
16185,-57.02
16196,-56.85
16207,-53.18
16219,-46.29
16231,-37.01
16243,-26.5
16255,-15.91
16267,-6.12
16279,2.34
16291,9.22
16303,14.46
16315,18.03
16327,19.89
16339,20.12
16351,18.93
16363,16.71
16375,14.03
16386,11.53
16397,9.75
16409,9.05
16421,9.44
16433,10.64
16445,12.11
16457,13.3
16469,13.85
16481,13.68
16493,12.97
16505,11.97
16517,10.84
16529,9.53
16541,7.75
16553,5.26
16565,1.97
16576,-1.92
16587,-6.0
16599,-9.89
16611,-13.32
16623,-16.31
16635,-19.06
16647,-21.8
16659,-24.78
16671,-28.11
16683,-31.9
16695,-36.15
16707,-40.69
16719,-45.04
16731,-48.44
16743,-49.92
16755,-48.58
16766,-43.95
16777,-36.15
16789,-25.88
16801,-14.18
16813,-2.19
16825,9.18
16837,19.26
16849,27.64
16861,34.03
16873,38.16
16885,39.88
16897,39.2
16909,36.5
16921,32.45
16933,28.02
16945,24.21
16956,21.72
16967,20.83
16979,21.21
16991,22.1
17003,22.56
17015,21.8
17027,19.43
17039,15.58
17051,10.81
17063,5.89
17075,1.5
17087,-1.87
17099,-4.13
17111,-5.57
17123,-6.68
17135,-8.06
17146,-10.22
17157,-13.46
17169,-17.73
17181,-22.69
17193,-27.81
17205,-32.59
17217,-36.74
17229,-40.3
17241,-43.58
17253,-46.92
17265,-50.46
17277,-53.87
17289,-56.36
17301,-56.91
17313,-54.58
17325,-48.9
17336,-40.01
17347,-28.61
17359,-15.77
17371,-2.54
17383,10.13
17395,21.46
17407,30.85
17419,37.81
17431,42.08
17443,43.7
17455,43.11
17467,40.99
17479,38.18
17491,35.28
17503,32.71
17515,30.6
17526,29.05
17537,28.08
17549,27.71
17561,27.83
17573,28.16
17585,28.3
17597,27.87
17609,26.66
17621,24.7
17633,22.19
17645,19.45
17657,16.65
17669,13.84
17681,10.9
17693,7.69
17705,4.06
17716,0.05
17727,-4.21
17739,-8.51
17751,-12.65
17763,-16.48
17775,-20.06
17787,-23.53
17799,-27.17
17811,-31.27
17823,-36.13
17835,-41.91
17847,-48.58
17859,-55.71
17871,-62.46
17883,-67.61
17895,-69.78
17906,-67.86
17917,-61.39
17929,-50.73
17941,-37.02
17953,-21.81
17965,-6.62
17977,7.42
17989,19.69
18001,30.0
18013,38.33
18025,44.7
18037,49.14
18049,51.69
18061,52.52
18073,52.01
18085,50.69
18096,49.11
18107,47.72
18119,46.73
18131,46.16
18143,45.9
18155,45.8
18167,45.73
18179,45.68
18191,45.62
18203,45.48
18215,45.09
18227,44.13
18239,42.33
18251,39.49
18263,35.66
18275,31.15
18286,26.41
18297,21.9
18309,17.83
18321,14.18
18333,10.66
18345,6.95
18357,2.88
18369,-1.49
18381,-5.85
18393,-9.88
18405,-13.38
18417,-16.42
18429,-19.36
18441,-22.67
18453,-26.79
18465,-31.99
18476,-38.27
18487,-45.29
18499,-52.36
18511,-58.44
18523,-62.31
18535,-62.82
18547,-59.3
18559,-51.71
18571,-40.8
18583,-27.85
18595,-14.27
18607,-1.22
18619,10.53
18631,20.55
18643,28.6
18655,34.45
18666,37.96
18677,39.21
18689,38.63
18701,36.95
18713,35.03
18725,33.54
18737,32.76
18749,32.59
18761,32.7
18773,32.78
18785,32.66
18797,32.32
18809,31.8
18821,31.05
18833,29.95
18845,28.36
18856,26.25
18867,23.71
18879,20.93
18891,18.1
18903,15.27
18915,12.37
18927,9.22
18939,5.65
18951,1.66
18963,-2.63
18975,-7.03
18987,-11.36
18999,-15.52
19011,-19.57
19023,-23.58
19035,-27.59
19046,-31.6
19057,-35.62
19069,-39.74
19081,-44.12
19093,-48.82
19105,-53.61
19117,-57.82
19129,-60.41
19141,-60.27
19153,-56.62
19165,-49.4
19177,-39.22
19189,-27.25
19201,-14.74
19213,-2.75
19225,8.09
19236,17.43
19247,25.11
19259,30.98
19271,34.9
19283,36.82
19295,36.87
19307,35.48
19319,33.24
19331,30.84
19343,28.86
19355,27.64
19367,27.21
19379,27.34
19391,27.68
19403,27.88
19415,27.69
19426,26.99
19437,25.73
19449,23.91
19461,21.5
19473,18.53
19485,15.05
19497,11.23
19509,7.22
19521,3.18
19533,-0.83
19545,-4.85
19557,-9.0
19569,-13.34
19581,-17.94
19593,-22.75
19605,-27.69
19616,-32.69
19627,-37.7
19639,-42.77
19651,-48.07
19663,-53.8
19675,-60.12
19687,-66.88
19699,-73.44
19711,-78.73
19723,-81.46
19735,-80.49
19747,-75.29
19759,-66.13
19771,-53.96
19783,-40.07
19795,-25.73
19806,-11.91
19817,0.78
19829,11.9
19841,21.14
19853,28.27
19865,33.21
19877,36.16
19889,37.54
19901,37.94
19913,37.9
19925,37.75
19937,37.62
19949,37.52
19961,37.37
19973,37.15
19985,36.85
19996,36.45
20007,35.88
20019,35.02
20031,33.75
20043,31.95
20055,29.57
20067,26.62
20079,23.14
20091,19.27
20103,15.22
20115,11.21
20127,7.49
20139,4.22
20151,1.41
20163,-1.12
20175,-3.68
20186,-6.59
20197,-10.03
20209,-13.98
20221,-18.16
20233,-22.16
20245,-25.64
20257,-28.48
20269,-30.92
20281,-33.45
20293,-36.69
20305,-41.09
20317,-46.75
20329,-53.27
20341,-59.79
20353,-65.12
20365,-67.94
20376,-67.18
20387,-62.26
20399,-53.26
20411,-40.93
20423,-26.49
20435,-11.34
20447,3.26
20459,16.41
20471,27.54
20483,36.48
20495,43.23
20507,47.92
20519,50.73
20531,51.92
20543,51.79
20555,50.69
20566,49.0
20577,47.1
20589,45.35
20601,43.98
20613,43.14
20625,42.81
20637,42.81
20649,42.92
20661,42.92
20673,42.62
20685,41.94
20697,40.81
20709,39.21
20721,37.1
20733,34.48
20745,31.37
20756,27.78
20767,23.8
20779,19.51
20791,15.02
20803,10.53
20815,6.19
20827,2.2
20839,-1.33
20851,-4.45
20863,-7.31
20875,-10.14
20887,-13.12
20899,-16.33
20911,-19.69
20923,-23.04
20935,-26.2
20946,-29.11
20957,-31.75
20969,-34.29
20981,-36.97
20993,-40.18
