seconds,BVP
2,51.82
14,50.87
26,50.13
38,49.9
50,50.08
62,49.9
74,47.93
85,42.63
96,32.95
108,18.91
120,1.67
132,-16.86
144,-34.68
156,-50.29
168,-62.87
180,-72.12
192,-77.75
204,-79.33
216,-76.26
228,-68.31
240,-56.05
252,-40.99
264,-25.16
275,-10.37
286,2.44
298,13.43
310,23.5
322,33.35
334,42.66
346,49.98
358,53.25
370,50.94
382,42.88
394,30.53
406,16.32
418,2.68
430,-8.7
442,-17.28
454,-23.29
465,-27.22
476,-29.44
488,-30.14
500,-29.64
512,-28.62
524,-28.13
536,-29.21
548,-32.35
560,-37.22
572,-42.81
584,-47.95
596,-51.91
608,-54.78
620,-57.23
632,-60.02
644,-63.32
655,-66.47
666,-68.22
678,-67.35
690,-63.3
702,-56.41
714,-47.66
726,-38.1
738,-28.35
750,-18.47
762,-8.4
774,1.57
786,10.44
798,16.82
810,19.34
822,17.48
834,11.71
845,3.48
856,-5.44
868,-13.44
880,-19.34
892,-22.31
904,-21.76
916,-17.27
928,-8.87
940,2.64
952,15.59
964,27.78
976,37.21
988,42.85
1000,45.15
1012,45.71
1024,46.71
1035,49.85
1046,55.75
1058,63.62
1070,71.62
1082,77.41
1094,78.89
1106,74.75
1118,64.7
1130,49.53
1142,30.97
1154,11.17
1166,-7.69
1178,-23.91
1190,-36.65
1202,-45.85
1214,-52.1
1225,-56.43
1236,-59.88
1248,-63.36
1260,-67.57
1272,-72.95
1284,-79.61
1296,-87.33
1308,-95.55
1320,-103.4
1332,-110.07
1344,-115.02
1356,-118.21
1368,-120.17
1380,-121.74
1392,-123.85
1404,-127.19
1415,-131.98
1426,-137.86
1438,-143.83
1450,-148.58
1462,-150.89
1474,-150.06
1486,-146.17
1498,-140.06
1510,-133.13
1522,-126.92
1534,-122.82
1546,-121.79
1558,-124.1
1570,-129.14
1582,-135.19
1594,-139.3
1605,-137.84
1616,-127.57
1628,-106.98
1640,-76.97
1652,-40.37
1664,-0.65
1676,39.81
1688,80.5
1700,122.33
1712,166.3
1724,211.85
1736,256.3
1748,295.4
1760,324.72
1772,340.91
1784,342.25
1795,328.39
1806,299.76
1818,257.39
1830,202.92
1842,139.1
1854,69.87
1866,0.18
1878,-64.68
1890,-119.68
1902,-160.88
1914,-186.05
1926,-195.06
1938,-190.07
1950,-174.84
1962,-153.81
1974,-130.85
1985,-108.39
1996,-87.16
2008,-66.82
2020,-46.91
2032,-27.57
2044,-9.84
2056,4.86
2068,15.35
2080,21.13
2092,22.4
2104,19.81
2116,13.96
2128,5.35
2140,-5.35
2152,-17.18
2164,-28.76
2175,-38.61
2186,-45.58
2198,-49.2
2210,-49.79
2222,-48.3
2234,-45.87
2246,-43.19
2258,-40.36
2270,-36.73
2282,-31.34
2294,-23.09
2306,-11.05
2318,5.47
2330,26.87
2342,53.15
2354,84.14
2365,119.43
2376,158.48
2388,200.54
2400,244.56
2412,288.88
2424,331.02
2436,367.57
2448,394.42
2460,407.66
2472,404.45
2484,384.04
2496,348.1
2508,300.56
2520,247.07
2532,193.86
2544,146.82
2555,110.42
2566,87.17
2578,77.21
2590,78.66
2602,88.24
2614,102.12
2626,116.52
2638,128.09
2650,134.06
2662,132.22
2674,121.11
2686,100.3
2698,70.63
2710,34.37
2722,-5.39
2734,-45.53
2745,-83.48
2756,-117.46
2768,-146.45
2780,-169.83
2792,-187.16
2804,-198.1
2816,-202.52
2828,-200.72
2840,-193.5
2852,-182.16
2864,-168.17
2876,-153.01
2888,-137.93
2900,-123.84
2912,-111.3
2924,-100.46
2935,-91.3
2946,-83.62
2958,-77.22
2970,-71.92
2982,-67.57
2994,-64.08
3006,-61.32
3018,-59.12
3030,-57.26
3042,-55.55
3054,-53.77
3066,-51.75
3078,-49.51
3090,-47.08
3102,-44.44
3114,-41.38
3125,-37.61
3136,-32.99
3148,-27.83
3160,-22.89
3172,-19.2
3184,-17.45
3196,-17.49
3208,-17.99
3220,-16.82
3232,-11.9
3244,-2.12
3256,11.98
3268,28.25
3280,43.63
3292,55.25
3304,61.34
3315,61.77
3326,57.93
3338,52.23
3350,47.31
3362,45.38
3374,47.65
3386,54.09
3398,63.72
3410,74.85
3422,85.74
3434,95.11
3446,102.46
3458,108.08
3470,112.67
3482,116.85
3494,120.77
3505,124.21
3516,126.82
3528,128.57
3540,129.91
3552,131.6
3564,134.22
3576,137.67
3588,141.14
3600,143.47
3612,143.72
3624,141.71
3636,137.97
3648,133.2
3660,127.62
3672,120.51
3684,110.34
3695,95.52
3706,75.02
3718,48.75
3730,17.31
3742,-18.61
3754,-58.7
3766,-102.9
3778,-150.71
3790,-200.31
3802,-248.16
3814,-289.51
3826,-319.71
3838,-335.73
3850,-336.98
3862,-325.23
3874,-303.62
3885,-275.53
3896,-243.74
3908,-210.33
3920,-176.98
3932,-145.23
3944,-116.54
3956,-91.89
3968,-71.58
3980,-55.07
3992,-41.39
4004,-29.58
4016,-19.18
4028,-10.31
4040,-3.41
4052,1.07
4064,3.13
4075,3.24
4086,2.25
4098,1.17
4110,0.83
4122,1.74
4134,3.98
4146,7.38
4158,11.57
4170,16.22
4182,21.01
4194,25.69
4206,30.09
4218,34.0
4230,37.25
4242,39.67
4254,41.23
4265,42.05
4276,42.43
4288,42.6
4300,42.76
4312,43.0
4324,43.39
4336,44.05
4348,45.07
4360,46.36
4372,47.5
4384,47.78
4396,46.39
4408,42.85
4420,37.31
4432,30.46
4444,23.3
4455,16.7
4466,11.19
4478,7.01
4490,4.28
4502,3.16
4514,3.75
4526,5.98
4538,9.35
4550,13.19
4562,16.81
4574,19.84
4586,22.24
4598,24.16
4610,25.65
4622,26.58
4634,26.69
4645,25.81
4656,24.08
4668,21.95
4680,19.95
4692,18.49
4704,17.75
4716,17.75
4728,18.42
4740,19.67
4752,21.39
4764,23.33
4776,25.18
4788,26.67
4800,27.73
4812,28.5
4824,29.28
4835,30.29
4846,31.4
4858,32.23
4870,32.22
4882,31.06
4894,28.7
4906,25.29
4918,21.0
4930,15.69
4942,8.99
4954,0.52
4966,-9.91
4978,-22.18
4990,-35.79
5002,-50.03
5014,-64.06
5025,-76.65
5036,-86.35
5048,-91.43
5060,-90.48
5072,-82.93
5084,-69.57
5096,-52.46
5108,-34.25
5120,-17.49
5132,-3.77
5144,6.4
5156,13.3
5168,17.69
5180,20.43
5192,22.18
5204,23.52
5215,24.96
5226,26.81
5238,29.21
5250,32.08
5262,35.17
5274,38.4
5286,41.92
5298,46.03
5310,51.02
5322,56.98
5334,63.65
5346,70.68
5358,77.64
5370,84.15
5382,89.91
5394,94.62
5405,97.84
5416,99.0
5428,97.58
5440,93.19
5452,85.82
5464,75.9
5476,64.16
5488,51.59
5500,39.19
5512,27.7
5524,17.64
5536,9.07
5548,1.65
5560,-5.24
5572,-12.24
5584,-19.88
5595,-28.37
5606,-37.6
5618,-47.41
5630,-57.52
5642,-67.8
5654,-78.08
5666,-88.1
5678,-97.41
5690,-105.46
5702,-111.69
5714,-115.85
5726,-118.19
5738,-119.43
5750,-120.43
5762,-121.99
5774,-124.45
5785,-127.71
5796,-131.42
5808,-135.23
5820,-139.05
5832,-143.11
5844,-147.75
5856,-153.13
5868,-159.09
5880,-165.1
5892,-170.45
5904,-174.49
5916,-176.76
5928,-177.08
5940,-175.57
5952,-172.5
5964,-168.17
5975,-162.71
5986,-155.74
5998,-146.38
6010,-133.4
6022,-115.77
6034,-93.34
6046,-67.22
6058,-39.7
6070,-13.57
6082,8.95
6094,26.96
6106,41.12
6118,52.97
6130,64.08
6142,75.25
6154,86.29
6165,96.44
6176,104.99
6188,111.61
6200,116.5
6212,120.06
6224,122.47
6236,123.59
6248,123.1
6260,120.65
6272,116.14
6284,109.79
6296,102.16
6308,94.06
6320,86.36
6332,79.87
6344,75.06
6355,71.98
6366,70.27
6378,69.44
6390,68.97
6402,68.5
6414,67.66
6426,66.01
6438,62.75
6450,56.89
6462,47.37
6474,33.38
6486,14.38
6498,-10.06
6510,-40.43
6522,-77.02
6534,-119.22
6545,-164.63
6556,-208.56
6568,-244.43
6580,-265.29
6592,-265.76
6604,-243.62
6616,-200.51
6628,-141.22
6640,-72.04
6652,0.9
6664,72.59
6676,139.32
6688,198.13
6700,246.35
6712,281.6
6724,302.3
6735,308.43
6746,302.09
6758,287.3
6770,269.25
6782,252.77
6794,241.26
6806,235.95
6818,236.31
6830,241.04
6842,249.01
6854,259.68
6866,272.27
6878,284.86
6890,293.48
6902,292.55
6914,276.44
6925,241.68
6936,188.63
6948,121.71
6960,48.06
6972,-24.7
6984,-90.23
6996,-144.39
7008,-185.1
7020,-211.83
7032,-225.22
7044,-226.89
7056,-219.33
7068,-205.55
7080,-188.51
7092,-170.57
7104,-153.19
7115,-136.95
7126,-121.9
7138,-108.04
7150,-95.45
7162,-84.52
7174,-75.84
7186,-70.16
7198,-68.25
7210,-70.71
7222,-77.67
7234,-88.53
7246,-102.11
7258,-116.93
7270,-131.77
7282,-145.84
7294,-158.73
7305,-170.27
7316,-180.2
7328,-188.21
7340,-193.89
7352,-196.89
7364,-196.89
7376,-193.64
7388,-186.96
7400,-176.63
7412,-162.59
7424,-144.96
7436,-124.23
7448,-101.28
7460,-77.25
7472,-53.42
7484,-30.95
7495,-10.78
7506,6.54
7518,20.85
7530,32.3
7542,41.17
7554,47.8
7566,52.4
7578,55.19
7590,56.4
7602,56.35
7614,55.51
7626,54.37
7638,53.23
7650,52.22
7662,51.31
7674,50.35
7685,49.27
7696,48.06
7708,46.82
7720,45.71
7732,44.87
7744,44.48
7756,44.7
7768,45.7
7780,47.59
7792,50.24
7804,53.36
7816,56.51
7828,59.22
7840,61.18
7852,62.25
7864,62.46
7875,61.95
7886,60.9
7898,59.44
7910,57.58
7922,55.38
7934,52.92
7946,50.37
7958,48.03
7970,46.13
7982,44.73
7994,43.67
8006,42.64
8018,41.29
8030,39.43
8042,37.09
8054,34.53
8065,31.99
8076,29.62
8088,27.36
8100,25.0
8112,22.38
8124,19.42
8136,16.14
8148,12.67
8160,9.13
8172,5.61
8184,2.2
8196,-1.0
8208,-3.87
8220,-6.31
8232,-8.31
8244,-9.98
8255,-11.47
8266,-12.91
8278,-14.35
8290,-15.67
8302,-16.65
8314,-17.06
8326,-16.71
8338,-15.43
8350,-13.19
8362,-10.04
8374,-6.08
8386,-1.51
8398,3.45
8410,8.58
8422,13.58
8434,18.21
8445,22.26
8456,25.63
8468,28.24
8480,30.12
8492,31.31
8504,31.84
8516,31.79
8528,31.18
8540,30.14
8552,28.82
8564,27.39
8576,25.92
8588,24.42
8600,22.78
8612,20.89
8624,18.65
8635,16.05
8646,13.11
8658,9.91
8670,6.52
8682,2.93
8694,-0.75
8706,-4.4
8718,-7.73
8730,-10.39
8742,-12.07
8754,-12.65
8766,-12.31
8778,-11.41
8790,-10.41
8802,-9.74
8814,-9.57
8825,-9.88
8836,-10.42
8848,-10.86
8860,-10.91
8872,-10.35
8884,-9.01
8896,-6.78
8908,-3.69
8920,0.12
8932,4.43
8944,8.94
8956,13.43
8968,17.74
8980,21.78
8992,25.5
9004,28.89
9015,31.86
9026,34.31
9038,36.1
9050,37.16
9062,37.42
9074,36.84
9086,35.41
9098,33.19
9110,30.32
9122,27.05
9134,23.55
9146,19.96
9158,16.28
9170,12.49
9182,8.53
9194,4.47
9205,0.46
9216,-3.3
9228,-6.67
9240,-9.58
9252,-12.06
9264,-14.12
9276,-15.75
9288,-16.89
9300,-17.58
9312,-17.92
9324,-18.14
9336,-18.46
9348,-19.02
9360,-19.72
9372,-20.37
9384,-20.59
9395,-20.02
9406,-18.45
9418,-15.79
9430,-12.25
9442,-8.14
9454,-3.87
9466,0.22
9478,3.85
9490,6.92
9502,9.43
9514,11.39
9526,12.87
9538,13.88
9550,14.47
9562,14.66
9574,14.63
9585,14.5
9596,14.39
9608,14.37
9620,14.37
9632,14.31
9644,14.11
9656,13.71
9668,13.15
9680,12.51
9692,11.91
9704,11.44
9716,11.08
9728,10.7
9740,10.06
9752,8.96
9764,7.32
9775,5.27
9786,3.09
9798,1.09
9810,-0.54
9822,-1.82
9834,-3.01
9846,-4.43
9858,-6.27
9870,-8.45
9882,-10.74
9894,-12.76
9906,-14.22
9918,-14.91
9930,-14.74
9942,-13.66
9954,-11.71
9965,-8.92
9976,-5.45
9988,-1.56
10000,2.39
10012,5.98
10024,8.91
10036,11.03
10048,12.31
10060,12.87
10072,12.91
10084,12.59
10096,12.06
10108,11.38
10120,10.57
10132,9.69
10144,8.8
10155,7.99
10166,7.37
10178,7.02
10190,6.93
10202,7.08
10214,7.34
10226,7.61
10238,7.8
10250,7.84
10262,7.6
10274,6.99
10286,5.94
10298,4.38
10310,2.4
10322,0.1
10334,-2.35
10345,-4.79
10356,-7.04
10368,-9.03
10380,-10.7
10392,-12.06
10404,-13.22
10416,-14.3
10428,-15.43
10440,-16.66
10452,-17.9
10464,-18.92
10476,-19.47
10488,-19.31
10500,-18.29
10512,-16.44
10524,-13.82
10535,-10.67
10546,-7.23
10558,-3.79
10570,-0.58
10582,2.29
10594,4.74
10606,6.83
10618,8.58
10630,10.03
10642,11.13
10654,11.79
10666,11.97
10678,11.68
10690,11.08
10702,10.35
10714,9.65
10725,9.03
10736,8.5
10748,8.03
10760,7.54
10772,6.96
10784,6.2
10796,5.15
10808,3.77
10820,2.04
10832,0.06
10844,-2.01
10856,-4.0
10868,-5.8
10880,-7.33
10892,-8.59
10904,-9.59
10915,-10.36
10926,-10.96
10938,-11.54
10950,-12.27
10962,-13.3
10974,-14.64
10986,-16.07
10998,-17.23
11010,-17.78
11022,-17.35
11034,-15.81
11046,-13.25
11058,-9.93
11070,-6.22
11082,-2.54
11094,0.82
11105,3.71
11116,6.12
11128,8.16
11140,9.95
11152,11.46
11164,12.57
11176,13.09
11188,12.93
11200,12.17
11212,11.13
11224,10.09
11236,9.27
11248,8.65
11260,8.09
11272,7.43
11284,6.6
11295,5.66
11306,4.74
11318,3.97
11330,3.32
11342,2.69
11354,1.94
11366,0.96
11378,-0.22
11390,-1.57
11402,-2.96
11414,-4.34
11426,-5.68
11438,-6.98
11450,-8.22
11462,-9.39
11474,-10.55
11485,-11.73
11496,-13.07
11508,-14.6
11520,-16.29
11532,-18.02
11544,-19.59
11556,-20.81
11568,-21.47
11580,-21.4
11592,-20.4
11604,-18.38
11616,-15.32
11628,-11.45
11640,-7.13
11652,-2.81
11664,1.13
11675,4.46
11686,7.12
11698,9.15
11710,10.58
11722,11.38
11734,11.57
11746,11.19
11758,10.45
11770,9.56
11782,8.78
11794,8.22
11806,7.93
11818,7.87
11830,7.98
11842,8.25
11854,8.61
11865,8.94
11876,9.08
11888,8.86
11900,8.24
11912,7.26
11924,6.06
11936,4.73
11948,3.38
11960,2.0
11972,0.54
11984,-1.02
11996,-2.65
12008,-4.29
12020,-5.84
12032,-7.27
12044,-8.59
12055,-9.85
12066,-11.08
12078,-12.31
12090,-13.49
12102,-14.63
12114,-15.64
12126,-16.5
12138,-17.14
12150,-17.44
12162,-17.24
12174,-16.37
12186,-14.68
12198,-12.16
12210,-8.99
12222,-5.49
12234,-2.06
12245,0.99
12256,3.48
12268,5.4
12280,6.89
12292,8.12
12304,9.24
12316,10.28
12328,11.2
12340,11.87
12352,12.22
12364,12.21
12376,11.92
12388,11.46
12400,10.96
12412,10.51
12424,10.14
12435,9.78
12446,9.36
12458,8.8
12470,8.08
12482,7.2
12494,6.19
12506,5.04
12518,3.77
12530,2.43
12542,1.09
12554,-0.17
12566,-1.29
12578,-2.29
12590,-3.26
12602,-4.3
12614,-5.47
12625,-6.73
12636,-8.03
12648,-9.3
12660,-10.48
12672,-11.62
12684,-12.73
12696,-13.86
12708,-15.04
12720,-16.22
12732,-17.33
12744,-18.22
12756,-18.65
12768,-18.38
12780,-17.21
12792,-15.06
12804,-12.02
12815,-8.37
12826,-4.5
12838,-0.77
12850,2.52
12862,5.21
12874,7.29
12886,8.77
12898,9.72
12910,10.19
12922,10.24
12934,9.94
12946,9.38
12958,8.63
12970,7.76
12982,6.88
12994,6.09
13005,5.52
13016,5.28
13028,5.44
13040,5.91
13052,6.59
13064,7.23
13076,7.69
13088,7.86
13100,7.76
13112,7.47
13124,7.02
13136,6.37
13148,5.43
13160,4.09
13172,2.29
13184,0.12
13195,-2.29
13206,-4.79
13218,-7.22
13230,-9.5
13242,-11.61
13254,-13.49
13266,-15.14
13278,-16.47
13290,-17.48
13302,-18.2
13314,-18.73
13326,-19.21
13338,-19.7
13350,-20.12
13362,-20.22
13374,-19.63
13385,-18.05
13396,-15.36
13408,-11.69
13420,-7.44
13432,-3.1
13444,0.81
13456,3.97
13468,6.24
13480,7.75
13492,8.64
13504,9.17
13516,9.5
13528,9.71
13540,9.83
13552,9.78
13564,9.54
13575,9.11
13586,8.54
13598,7.91
13610,7.33
13622,6.89
13634,6.67
13646,6.68
13658,6.88
13670,7.16
13682,7.34
13694,7.24
13706,6.73
13718,5.79
13730,4.55
13742,3.21
13754,1.97
13765,0.91
13776,0.02
13788,-0.79
13800,-1.69
13812,-2.77
13824,-4.05
13836,-5.51
13848,-7.05
13860,-8.53
13872,-9.9
13884,-11.1
13896,-12.14
13908,-13.08
13920,-14.0
13932,-14.99
13944,-16.08
13955,-17.24
13966,-18.31
13978,-19.03
13990,-19.12
14002,-18.36
14014,-16.63
14026,-14.02
14038,-10.74
14050,-7.14
14062,-3.52
14074,-0.11
14086,2.97
14098,5.61
14110,7.76
14122,9.31
14134,10.25
14145,10.65
14156,10.63
14168,10.4
14180,10.16
14192,9.98
14204,9.84
14216,9.66
14228,9.39
14240,9.06
14252,8.8
14264,8.72
14276,8.87
14288,9.24
14300,9.64
14312,9.8
14324,9.56
14335,8.81
14346,7.58
14358,6.03
14370,4.34
14382,2.62
14394,0.95
14406,-0.69
14418,-2.34
14430,-3.98
14442,-5.58
14454,-7.12
14466,-8.56
14478,-9.92
14490,-11.23
14502,-12.44
14514,-13.57
14525,-14.6
14536,-15.55
14548,-16.49
14560,-17.49
14572,-18.48
14584,-19.32
14596,-19.7
14608,-19.25
14620,-17.73
14632,-15.06
14644,-11.5
14656,-7.53
14668,-3.66
14680,-0.25
14692,2.49
14704,4.65
14715,6.44
14726,8.1
14738,9.69
14750,11.12
14762,12.11
14774,12.5
14786,12.29
14798,11.68
14810,10.97
14822,10.44
14834,10.19
14846,10.12
14858,10.05
14870,9.77
14882,9.24
14894,8.56
14905,7.91
14916,7.4
14928,7.04
14940,6.68
14952,6.16
14964,5.37
14976,4.34
14988,3.15
15000,1.94
15012,0.79
15024,-0.3
15036,-1.42
15048,-2.7
15060,-4.18
15072,-5.83
15084,-7.51
15095,-9.08
15106,-10.43
15118,-11.55
15130,-12.48
15142,-13.26
15154,-13.96
15166,-14.6
15178,-15.21
15190,-15.85
15202,-16.53
15214,-17.19
15226,-17.6
15238,-17.42
15250,-16.33
15262,-14.19
15274,-11.11
15285,-7.43
15296,-3.67
15308,-0.26
15320,2.55
15332,4.81
15344,6.67
15356,8.36
15368,9.92
15380,11.3
15392,12.35
15404,12.96
15416,13.13
15428,12.98
15440,12.71
15452,12.43
15464,12.18
15475,11.89
15486,11.42
15498,10.73
15510,9.91
15522,9.09
15534,8.47
15546,8.07
15558,7.81
15570,7.5
15582,6.95
15594,6.04
15606,4.84
15618,3.45
15630,2.06
15642,0.74
15654,-0.51
15665,-1.76
15676,-3.12
15688,-4.57
15700,-6.1
15712,-7.63
15724,-9.12
15736,-10.55
15748,-11.91
15760,-13.16
15772,-14.26
15784,-15.12
15796,-15.69
15808,-16.06
15820,-16.35
15832,-16.67
15844,-17.08
15855,-17.45
15866,-17.49
15878,-16.9
15890,-15.45
15902,-13.1
15914,-10.08
15926,-6.75
15938,-3.46
15950,-0.52
15962,1.99
15974,4.12
15986,6.03
15998,7.82
16010,9.52
16022,11.01
16034,12.11
16045,12.73
16056,12.8
16068,12.49
16080,12.0
16092,11.55
16104,11.27
16116,11.16
16128,11.15
16140,11.13
16152,11.08
16164,10.93
16176,10.7
16188,10.34
16200,9.77
16212,8.93
16224,7.8
16235,6.38
16246,4.71
16258,2.9
16270,1.05
16282,-0.73
16294,-2.31
16306,-3.65
16318,-4.79
16330,-5.84
16342,-6.91
16354,-8.05
16366,-9.19
16378,-10.25
16390,-11.18
16402,-12.04
16414,-12.95
16425,-14.05
16436,-15.35
16448,-16.72
16460,-17.9
16472,-18.5
16484,-18.28
16496,-17.1
16508,-15.03
16520,-12.32
16532,-9.32
16544,-6.35
16556,-3.68
16568,-1.37
16580,0.65
16592,2.55
16604,4.44
16615,6.32
16626,8.13
16638,9.69
16650,10.92
16662,11.76
16674,12.24
16686,12.4
16698,12.29
16710,11.93
16722,11.37
16734,10.75
16746,10.25
16758,10.06
16770,10.23
16782,10.62
16794,11.0
16805,11.1
16816,10.71
16828,9.83
16840,8.61
16852,7.26
16864,5.95
16876,4.73
16888,3.51
16900,2.2
16912,0.69
16924,-1.06
16936,-3.0
16948,-5.01
16960,-6.89
16972,-8.48
16984,-9.69
16995,-10.52
17006,-11.06
17018,-11.48
17030,-11.97
17042,-12.64
17054,-13.54
17066,-14.62
17078,-15.72
17090,-16.66
17102,-17.23
17114,-17.22
17126,-16.52
17138,-15.09
17150,-12.97
17162,-10.36
17174,-7.52
17185,-4.71
17196,-2.15
17208,0.06
17220,1.94
17232,3.59
17244,5.08
17256,6.46
17268,7.71
17280,8.78
17292,9.63
17304,10.22
17316,10.56
17328,10.67
17340,10.58
17352,10.34
17364,10.05
17375,9.74
17386,9.45
17398,9.15
17410,8.81
17422,8.44
17434,8.05
17446,7.71
17458,7.4
17470,7.07
17482,6.57
17494,5.8
17506,4.72
17518,3.37
17530,1.9
17542,0.45
17554,-0.89
17565,-2.15
17576,-3.33
17588,-4.5
17600,-5.61
17612,-6.58
17624,-7.42
17636,-8.17
17648,-8.97
17660,-10.0
17672,-11.37
17684,-13.06
17696,-14.97
17708,-16.85
17720,-18.41
17732,-19.4
17744,-19.5
17755,-18.62
17766,-16.75
17778,-14.08
17790,-10.94
17802,-7.69
17814,-4.67
17826,-2.01
17838,0.32
17850,2.45
17862,4.47
17874,6.38
17886,8.08
17898,9.38
17910,10.13
17922,10.27
17934,9.89
17945,9.16
17956,8.38
17968,7.75
17980,7.42
17992,7.43
18004,7.73
18016,8.19
18028,8.69
18040,9.17
18052,9.53
18064,9.77
18076,9.82
18088,9.56
18100,8.91
18112,7.84
18124,6.38
18135,4.68
18146,2.94
18158,1.27
18170,-0.24
18182,-1.61
18194,-2.88
18206,-4.06
18218,-5.14
18230,-6.13
18242,-7.06
18254,-8.0
18266,-9.07
18278,-10.31
18290,-11.68
18302,-13.11
18314,-14.52
18325,-15.89
18336,-17.32
18348,-18.91
18360,-20.68
18372,-22.5
18384,-24.04
18396,-24.91
18408,-24.8
18420,-23.51
18432,-21.05
18444,-17.67
18456,-13.77
18468,-9.78
18480,-6.09
18492,-2.91
18504,-0.23
18515,2.06
18526,4.16
18538,6.21
18550,8.19
18562,9.94
18574,11.28
18586,12.09
18598,12.46
18610,12.6
18622,12.75
18634,13.04
18646,13.43
18658,13.7
18670,13.64
18682,13.13
18694,12.18
18705,10.97
18716,9.74
18728,8.6
18740,7.69
18752,7.06
18764,6.73
18776,6.67
18788,6.8
18800,6.88
18812,6.68
18824,6.01
18836,4.83
18848,3.28
18860,1.63
18872,0.11
18884,-1.17
18895,-2.25
18906,-3.29
18918,-4.4
18930,-5.58
18942,-6.7
18954,-7.57
18966,-7.97
18978,-7.75
18990,-6.73
19002,-4.9
19014,-2.27
19026,0.99
19038,4.63
19050,8.35
19062,11.84
19074,14.87
19085,17.26
19096,18.96
19108,19.94
19120,20.29
19132,20.1
19144,19.56
19156,18.87
19168,18.17
19180,17.54
19192,17.01
19204,16.59
19216,16.29
19228,16.11
19240,15.96
19252,15.7
19264,15.16
19275,14.27
19286,13.14
19298,11.99
19310,11.09
19322,10.55
19334,10.24
19346,9.85
19358,9.04
19370,7.67
19382,5.83
19394,3.85
19406,2.13
19418,0.88
19430,0.08
19442,-0.54
19454,-1.34
19465,-2.74
19476,-4.86
19488,-7.63
19500,-10.54
19512,-12.85
19524,-13.76
19536,-12.64
19548,-9.26
19560,-3.82
19572,3.11
19584,10.95
19596,19.25
19608,27.94
19620,37.25
19632,47.44
19644,58.72
19655,70.94
19666,83.72
19678,96.54
19690,109.04
19702,121.09
19714,132.85
19726,144.71
19738,157.05
19750,170.18
19762,184.3
19774,199.43
19786,215.21
19798,230.71
19810,244.3
19822,253.84
19834,257.45
19845,254.08
19856,244.17
19868,229.4
19880,211.82
19892,192.72
19904,171.87
19916,147.79
19928,118.87
19940,84.7
19952,46.76
19964,8.07
19976,-28.09
19988,-59.5
20000,-85.73
20012,-107.92
20024,-127.74
20035,-146.48
20046,-164.48
20058,-181.55
20070,-197.43
20082,-212.16
20094,-226.16
20106,-239.86
20118,-253.47
20130,-266.9
20142,-280.07
20154,-293.07
20166,-306.12
20178,-319.3
20190,-332.04
20202,-343.22
20214,-351.38
20225,-355.37
20236,-355.01
20248,-351.47
20260,-346.81
20272,-343.18
20284,-341.43
20296,-340.17
20308,-335.82
20320,-323.55
20332,-299.11
20344,-260.82
20356,-210.91
20368,-155.32
20380,-102.04
20392,-58.77
20404,-30.54
20415,-18.68
20426,-20.68
20438,-31.37
20450,-44.31
20462,-52.97
20474,-51.54
20486,-35.92
20498,-4.68
20510,40.35
20522,94.18
20534,150.2
20546,202.34
20558,247.18
20570,284.65
20582,317.1
20594,346.82
20605,373.97
20616,396.06
20628,409.17
20640,410.4
20652,399.69
20664,380.21
20676,357.03
20688,335.09
20700,317.49
20712,305.1
20724,297.33
20736,293.21
20748,292.17
20760,293.72
20772,296.5
20784,297.77
20795,293.69
20806,280.8
20818,257.73
20830,226.19
20842,190.49
20854,155.74
20866,125.71
20878,101.31
20890,80.66
20902,60.26
20914,36.97
20926,9.28
20938,-22.64
20950,-57.84
20962,-95.65
20974,-136.15
20985,-179.73
20996,-226.37
