seconds,BVP
3,3.02
15,1.85
27,0.9
39,0.26
51,-0.14
63,-0.45
75,-0.81
87,-1.32
99,-1.93
111,-2.55
123,-3.1
135,-3.59
147,-4.05
159,-4.51
170,-4.85
181,-4.78
193,-4.0
205,-2.31
217,0.23
229,3.2
241,6.02
253,8.14
265,9.25
277,9.38
289,8.77
301,7.75
313,6.6
325,5.45
337,4.35
349,3.31
360,2.36
371,1.57
383,0.98
395,0.63
407,0.45
419,0.32
431,0.12
443,-0.25
455,-0.82
467,-1.56
479,-2.41
491,-3.32
503,-4.31
515,-5.39
527,-6.51
539,-7.5
550,-8.03
561,-7.7
573,-6.19
585,-3.44
597,0.3
609,4.44
621,8.29
633,11.26
645,13.05
657,13.73
669,13.6
681,13.02
693,12.27
705,11.45
717,10.57
729,9.64
740,8.7
751,7.86
763,7.24
775,6.86
787,6.68
799,6.56
811,6.32
823,5.79
835,4.83
847,3.39
859,1.5
871,-0.7
883,-2.95
895,-4.95
907,-6.41
919,-7.12
930,-6.97
941,-6.0
953,-4.4
965,-2.44
977,-0.46
989,1.22
1001,2.41
1013,3.02
1025,3.11
1037,2.83
1049,2.35
1061,1.82
1073,1.34
1085,0.95
1097,0.6
1109,0.25
1120,-0.14
1131,-0.55
1143,-0.86
1155,-0.97
1167,-0.77
1179,-0.31
1191,0.26
1203,0.7
1215,0.8
1227,0.47
1239,-0.2
1251,-0.95
1263,-1.51
1275,-1.6
1287,-1.07
1299,0.09
1310,1.76
1321,3.76
1333,5.81
1345,7.62
1357,8.93
1369,9.58
1381,9.48
1393,8.67
1405,7.36
1417,5.78
1429,4.24
1441,2.94
1453,1.94
1465,1.16
1477,0.42
1489,-0.41
1500,-1.38
1511,-2.41
1523,-3.33
1535,-3.97
1547,-4.29
1559,-4.34
1571,-4.29
1583,-4.35
1595,-4.61
1607,-5.0
1619,-5.28
1631,-5.08
1643,-4.04
1655,-1.95
1667,1.15
1679,4.95
1690,9.03
1701,12.92
1713,16.34
1725,19.17
1737,21.43
1749,23.2
1761,24.51
1773,25.35
1785,25.67
1797,25.5
1809,24.98
1821,24.34
1833,23.83
1845,23.61
1857,23.67
1869,23.84
1880,23.79
1891,23.2
1903,21.8
1915,19.43
1927,16.04
1939,11.63
1951,6.34
1963,0.4
1975,-5.74
1987,-11.44
1999,-16.06
2011,-19.11
2023,-20.47
2035,-20.45
2047,-19.7
2059,-18.96
2070,-18.8
2081,-19.47
2093,-20.84
2105,-22.58
2117,-24.27
2129,-25.62
2141,-26.42
2153,-26.64
2165,-26.26
2177,-25.32
2189,-23.95
2201,-22.38
2213,-20.92
2225,-19.9
2237,-19.52
2249,-19.77
2260,-20.43
2271,-21.11
2283,-21.37
2295,-20.88
2307,-19.43
2319,-16.94
2331,-13.45
2343,-9.07
2355,-4.04
2367,1.29
2379,6.52
2391,11.22
2403,15.05
2415,17.79
2427,19.3
2439,19.5
2450,18.37
2461,15.9
2473,12.18
2485,7.45
2497,2.06
2509,-3.53
2521,-8.83
2533,-13.51
2545,-17.37
2557,-20.41
2569,-22.72
2581,-24.41
2593,-25.59
2605,-26.31
2617,-26.66
2629,-26.72
2640,-26.64
2651,-26.49
2663,-26.23
2675,-25.66
2687,-24.47
2699,-22.33
2711,-19.09
2723,-14.84
2735,-9.95
2747,-4.97
2759,-0.43
2771,3.26
2783,5.93
2795,7.63
2807,8.5
2819,8.69
2830,8.3
2841,7.36
2853,5.89
2865,3.94
2877,1.58
2889,-1.1
2901,-4.01
2913,-7.07
2925,-10.16
2937,-13.12
2949,-15.74
2961,-17.86
2973,-19.42
2985,-20.47
2997,-21.16
3009,-21.56
3020,-21.62
3031,-21.11
3043,-19.75
3055,-17.37
3067,-14.0
3079,-9.98
3091,-5.76
3103,-1.76
3115,1.8
3127,5.02
3139,8.13
3151,11.38
3163,14.79
3175,18.16
3187,21.15
3199,23.41
3210,24.76
3221,25.24
3233,24.97
3245,24.11
3257,22.7
3269,20.73
3281,18.22
3293,15.27
3305,12.15
3317,9.17
3329,6.66
3341,4.94
3353,4.33
3365,5.22
3377,7.99
3389,12.78
3400,19.27
3411,26.5
3423,33.02
3435,37.31
3447,38.23
3459,35.38
3471,29.2
3483,20.64
3495,10.93
3507,1.16
3519,-7.78
3531,-15.28
3543,-20.96
3555,-24.65
3567,-26.48
3579,-26.83
3590,-26.24
3601,-25.24
3613,-24.19
3625,-23.26
3637,-22.46
3649,-21.73
3661,-21.07
3673,-20.5
3685,-20.03
3697,-19.58
3709,-19.0
3721,-18.1
3733,-16.69
3745,-14.73
3757,-12.26
3769,-9.41
3780,-6.37
3791,-3.31
3803,-0.41
3815,2.15
3827,4.23
3839,5.74
3851,6.65
3863,6.99
3875,6.83
3887,6.25
3899,5.36
3911,4.31
3923,3.28
3935,2.51
3947,2.22
3959,2.55
3970,3.5
3981,4.85
3993,6.21
4005,7.11
4017,7.14
4029,6.11
4041,4.16
4053,1.79
4065,-0.26
4077,-1.27
4089,-0.84
4101,0.97
4113,3.59
4125,6.19
4137,7.98
4149,8.49
4160,7.7
4171,5.94
4183,3.8
4195,1.87
4207,0.58
4219,0.19
4231,0.73
4243,2.05
4255,3.92
4267,6.07
4279,8.22
4291,10.14
4303,11.7
4315,12.82
4327,13.5
4339,13.75
4350,13.54
4361,12.83
4373,11.61
4385,9.95
4397,8.05
4409,6.29
4421,5.09
4433,4.79
4445,5.51
4457,7.15
4469,9.43
4481,12.0
4493,14.57
4505,16.89
4517,18.71
4529,19.75
4540,19.7
4551,18.38
4563,15.8
4575,12.22
4587,8.12
4599,3.95
4611,0.11
4623,-3.2
4635,-5.9
4647,-7.98
4659,-9.43
4671,-10.26
4683,-10.53
4695,-10.36
4707,-10.01
4719,-9.74
4730,-9.74
4741,-10.04
4753,-10.45
4765,-10.63
4777,-10.26
4789,-9.07
4801,-7.06
4813,-4.44
4825,-1.55
4837,1.22
4849,3.65
4861,5.66
4873,7.29
4885,8.6
4897,9.56
4909,10.05
4920,9.94
4931,9.25
4943,8.12
4955,6.86
4967,5.75
4979,4.91
4991,4.2
5003,3.32
5015,1.87
5027,-0.38
5039,-3.45
5051,-7.09
5063,-10.9
5075,-14.4
5087,-17.21
5099,-19.08
5110,-19.92
5121,-19.72
5133,-18.52
5145,-16.39
5157,-13.39
5169,-9.66
5181,-5.44
5193,-1.05
5205,3.12
5217,6.73
5229,9.59
5241,11.63
5253,12.9
5265,13.53
5277,13.61
5289,13.3
5300,12.75
5311,12.16
5323,11.63
5335,11.18
5347,10.63
5359,9.7
5371,8.12
5383,5.72
5395,2.5
5407,-1.42
5419,-5.81
5431,-10.37
5443,-14.74
5455,-18.42
5467,-20.8
5479,-21.32
5490,-19.54
5501,-15.32
5513,-8.8
5525,-0.39
5537,9.24
5549,19.09
5561,27.87
5573,34.03
5585,36.2
5597,33.61
5609,26.56
5621,16.45
5633,5.42
5645,-4.43
5657,-11.7
5669,-16.1
5680,-18.27
5691,-19.29
5703,-20.11
5715,-21.22
5727,-22.65
5739,-24.28
5751,-25.99
5763,-27.82
5775,-29.86
5787,-32.07
5799,-34.13
5811,-35.5
5823,-35.55
5835,-33.82
5847,-30.2
5859,-24.98
5870,-18.8
5881,-12.41
5893,-6.42
5905,-1.18
5917,3.27
5929,7.1
5941,10.55
5953,13.75
5965,16.69
5977,19.21
5989,21.12
6001,22.29
6013,22.79
6025,22.77
6037,22.47
6049,22.03
6060,21.46
6071,20.6
6083,19.26
6095,17.33
6107,14.86
6119,12.05
6131,9.1
6143,6.12
6155,3.15
6167,0.19
6179,-2.59
6191,-4.88
6203,-6.35
6215,-6.83
6227,-6.41
6239,-5.43
6250,-4.33
6261,-3.37
6273,-2.65
6285,-2.04
6297,-1.38
6309,-0.62
6321,0.16
6333,0.84
6345,1.35
6357,1.74
6369,2.16
6381,2.79
6393,3.71
6405,4.91
6417,6.27
6429,7.63
6440,8.76
6451,9.52
6463,9.79
6475,9.54
6487,8.86
6499,7.88
6511,6.77
6523,5.74
6535,4.98
6547,4.67
6559,4.94
6571,5.89
6583,7.46
6595,9.54
6607,11.93
6619,14.49
6630,17.16
6641,19.95
6653,22.95
6665,26.2
6677,29.7
6689,33.35
6701,36.91
6713,40.06
6725,42.38
6737,43.55
6749,43.38
6761,41.94
6773,39.53
6785,36.54
6797,33.28
6809,29.96
6820,26.69
6831,23.72
6843,21.53
6855,20.79
6867,22.04
6879,25.19
6891,29.41
6903,33.2
6915,35.06
6927,34.14
6939,30.7
6951,26.01
6963,21.88
6975,19.84
6987,20.64
6999,24.06
7010,29.11
7021,34.47
7033,38.83
7045,41.1
7057,40.49
7069,36.58
7081,29.36
7093,19.36
7105,7.52
7117,-5.0
7129,-17.21
7141,-28.49
7153,-38.75
7165,-48.24
7177,-57.24
7189,-65.82
7200,-73.62
7211,-79.94
7223,-84.01
7235,-85.26
7247,-83.43
7259,-78.64
7271,-71.12
7283,-61.09
7295,-48.6
7307,-33.65
7319,-16.39
7331,2.5
7343,21.68
7355,39.26
7367,53.14
7379,61.74
7390,64.36
7401,61.43
7413,54.27
7425,44.49
7437,33.57
7449,22.49
7461,11.84
7473,2.0
7485,-6.68
7497,-13.85
7509,-19.43
7521,-23.69
7533,-27.35
7545,-31.21
7557,-35.82
7569,-41.13
7580,-46.51
7591,-50.95
7603,-53.44
7615,-53.26
7627,-50.15
7639,-44.38
7651,-36.69
7663,-28.19
7675,-20.13
7687,-13.68
7699,-9.59
7711,-7.97
7723,-8.31
7735,-9.68
7747,-11.13
7759,-12.09
7770,-12.59
7781,-13.07
7793,-14.21
7805,-16.52
7817,-20.15
7829,-24.86
7841,-30.13
7853,-35.41
7865,-40.28
7877,-44.59
7889,-48.38
7901,-51.8
7913,-54.95
7925,-57.78
7937,-60.15
7949,-61.81
7960,-62.51
7971,-61.97
7983,-59.91
7995,-56.12
8007,-50.6
8019,-43.73
8031,-36.32
8043,-29.49
8055,-24.28
8067,-21.25
8079,-20.29
8091,-20.68
8103,-21.54
8115,-22.14
8127,-22.23
8139,-21.9
8150,-21.32
8161,-20.45
8173,-19.0
8185,-16.58
8197,-12.99
8209,-8.45
8221,-3.56
8233,1.0
8245,4.72
8257,7.48
8269,9.5
8281,11.19
8293,12.99
8305,15.26
8317,18.24
8329,22.07
8340,26.74
8351,32.0
8363,37.33
8375,42.07
8387,45.6
8399,47.52
8411,47.69
8423,46.22
8435,43.36
8447,39.37
8459,34.59
8471,29.49
8483,24.66
8495,20.73
8507,18.12
8519,16.9
8530,16.77
8541,17.1
8553,17.22
8565,16.61
8577,15.03
8589,12.6
8601,9.85
8613,7.51
8625,6.43
8637,7.25
8649,10.17
8661,14.79
8673,20.19
8685,25.2
8697,28.81
8709,30.51
8720,30.45
8731,29.27
8743,27.78
8755,26.48
8767,25.32
8779,23.7
8791,20.8
8803,15.98
8815,9.21
8827,1.14
8839,-7.07
8851,-14.22
8863,-19.42
8875,-22.38
8887,-23.32
8899,-22.77
8910,-21.27
8921,-19.21
8933,-16.75
8945,-13.9
8957,-10.55
8969,-6.44
8981,-1.24
8993,5.45
9005,13.73
9017,23.15
9029,32.53
9041,39.98
9053,43.48
9065,41.54
9077,33.88
9089,21.6
9100,6.92
9111,-7.65
9123,-20.12
9135,-29.59
9147,-36.24
9159,-40.88
9171,-44.32
9183,-46.99
9195,-48.86
9207,-49.76
9219,-49.74
9231,-49.15
9243,-48.51
9255,-48.13
9267,-47.85
9279,-47.11
9290,-45.24
9301,-41.92
9313,-37.45
9325,-32.58
9337,-28.13
9349,-24.51
9361,-21.55
9373,-18.61
9385,-15.06
9397,-10.64
9409,-5.63
9421,-0.7
9433,3.47
9445,6.53
9457,8.63
9469,10.25
9480,11.93
9491,14.06
9503,16.63
9515,19.42
9527,22.08
9539,24.34
9551,26.08
9563,27.27
9575,27.91
9587,27.89
9599,27.11
9611,25.48
9623,23.12
9635,20.37
9647,17.8
9659,16.04
9670,15.64
9681,16.88
9693,19.68
9705,23.62
9717,28.03
9729,32.21
9741,35.67
9753,38.3
9765,40.23
9777,41.78
9789,43.16
9801,44.39
9813,45.33
9825,45.84
9837,45.95
9849,45.87
9860,45.92
9871,46.38
9883,47.55
9895,49.73
9907,53.41
9919,59.12
9931,67.08
9943,76.74
9955,86.58
9967,94.34
9979,97.74
9991,95.38
10003,87.28
10015,74.86
10027,60.24
10039,45.45
10050,31.69
10061,19.24
10073,7.64
10085,-3.83
10097,-15.76
10109,-28.46
10121,-41.92
10133,-55.88
10145,-69.8
10157,-82.86
10169,-94.1
10181,-102.68
10193,-108.13
10205,-110.53
10217,-110.47
10229,-108.86
10240,-106.58
10251,-104.3
10263,-102.32
10275,-100.66
10287,-99.09
10299,-97.27
10311,-94.85
10323,-91.45
10335,-86.85
10347,-80.99
10359,-74.17
10371,-67.01
10383,-60.35
10395,-55.02
10407,-51.48
10419,-49.69
10430,-49.08
10441,-48.83
10453,-48.26
10465,-47.16
10477,-45.71
10489,-44.33
10501,-43.23
10513,-42.13
10525,-40.33
10537,-36.98
10549,-31.52
10561,-23.99
10573,-14.93
10585,-5.21
10597,4.36
10609,13.21
10620,21.02
10631,27.67
10643,33.08
10655,37.23
10667,40.2
10679,42.13
10691,43.28
10703,43.93
10715,44.37
10727,44.88
10739,45.65
10751,46.81
10763,48.28
10775,49.8
10787,50.9
10799,51.01
10810,49.63
10821,46.45
10833,41.44
10845,34.88
10857,27.32
10869,19.46
10881,12.1
10893,5.91
10905,1.25
10917,-1.83
10929,-3.61
10941,-4.52
10953,-4.98
10965,-5.36
10977,-5.91
10989,-6.92
11000,-8.67
11011,-11.39
11023,-15.12
11035,-19.7
11047,-24.74
11059,-29.72
11071,-34.13
11083,-37.45
11095,-39.16
11107,-38.87
11119,-36.38
11131,-31.89
11143,-26.01
11155,-19.64
11167,-13.72
11179,-8.91
11190,-5.37
11201,-2.87
11213,-0.92
11225,0.96
11237,3.1
11249,5.65
11261,8.62
11273,11.91
11285,15.31
11297,18.57
11309,21.41
11321,23.56
11333,24.85
11345,25.23
11357,24.7
11369,23.39
11380,21.45
11391,19.13
11403,16.67
11415,14.29
11427,12.1
11439,10.03
11451,7.94
11463,5.7
11475,3.32
11487,1.02
11499,-0.9
11511,-2.18
11523,-2.82
11535,-3.05
11547,-3.25
11559,-3.76
11570,-4.63
11581,-5.63
11593,-6.3
11605,-6.09
11617,-4.48
11629,-1.1
11641,4.24
11653,11.45
11665,20.13
11677,29.49
11689,38.5
11701,46.05
11713,51.24
11725,53.54
11737,52.91
11749,49.74
11760,44.69
11771,38.53
11783,32.01
11795,25.7
11807,20.06
11819,15.37
11831,11.76
11843,9.27
11855,7.82
11867,7.22
11879,7.13
11891,7.05
11903,6.38
11915,4.54
11927,1.26
11939,-3.3
11950,-8.46
11961,-13.17
11973,-16.31
11985,-16.98
11997,-14.74
12009,-9.7
12021,-2.31
12033,6.76
12045,16.84
12057,27.32
12069,37.6
12081,47.09
12093,55.22
12105,61.5
12117,65.62
12129,67.41
12140,66.92
12151,64.34
12163,60.06
12175,54.6
12187,48.7
12199,43.11
12211,38.51
12223,35.24
12235,33.14
12247,31.55
12259,29.45
12271,25.82
12283,20.05
12295,12.19
12307,2.92
12319,-6.72
12330,-15.82
12341,-23.97
12353,-31.31
12365,-38.38
12377,-45.66
12389,-53.3
12401,-61.02
12413,-68.27
12425,-74.61
12437,-79.88
12449,-84.18
12461,-87.71
12473,-90.47
12485,-92.19
12497,-92.4
12509,-90.69
12520,-86.84
12531,-80.95
12543,-73.35
12555,-64.56
12567,-55.12
12579,-45.61
12591,-36.5
12603,-28.09
12615,-20.49
12627,-13.53
12639,-6.96
12651,-0.54
12663,5.74
12675,11.67
12687,16.93
12699,21.24
12710,24.52
12721,26.89
12733,28.53
12745,29.56
12757,29.97
12769,29.73
12781,28.86
12793,27.52
12805,25.98
12817,24.53
12829,23.39
12841,22.64
12853,22.22
12865,21.97
12877,21.78
12889,21.6
12900,21.43
12911,21.34
12923,21.34
12935,21.36
12947,21.21
12959,20.66
12971,19.54
12983,17.89
12995,16.02
13007,14.47
13019,13.87
13031,14.68
13043,17.03
13055,20.58
13067,24.65
13079,28.44
13090,31.23
13101,32.57
13113,32.38
13125,30.83
13137,28.23
13149,24.94
13161,21.27
13173,17.53
13185,14.0
13197,10.95
13209,8.61
13221,7.08
13233,6.31
13245,6.17
13257,6.44
13269,6.97
13280,7.59
13291,8.18
13303,8.57
13315,8.57
13327,8.03
13339,6.95
13351,5.5
13363,4.06
13375,2.99
13387,2.5
13399,2.52
13411,2.71
13423,2.62
13435,1.89
13447,0.37
13459,-1.86
13470,-4.68
13481,-8.02
13493,-11.92
13505,-16.37
13517,-21.17
13529,-25.9
13541,-29.96
13553,-32.87
13565,-34.42
13577,-34.73
13589,-34.13
13601,-32.92
13613,-31.21
13625,-28.95
13637,-26.08
13649,-22.66
13660,-19.01
13671,-15.65
13683,-13.1
13695,-11.76
13707,-11.8
13719,-13.06
13731,-15.1
13743,-17.32
13755,-19.05
13767,-19.78
13779,-19.31
13791,-17.75
13803,-15.54
13815,-13.2
13827,-11.18
13839,-9.69
13850,-8.68
13861,-7.92
13873,-7.18
13885,-6.34
13897,-5.42
13909,-4.47
13921,-3.57
13933,-2.66
13945,-1.61
13957,-0.29
13969,1.36
13981,3.27
13993,5.27
14005,7.21
14017,9.0
14029,10.66
14040,12.24
14051,13.78
14063,15.16
14075,16.12
14087,16.29
14099,15.32
14111,13.03
14123,9.52
14135,5.17
14147,0.64
14159,-3.42
14171,-6.53
14183,-8.55
14195,-9.7
14207,-10.41
14219,-11.13
14230,-12.11
14241,-13.31
14253,-14.51
14265,-15.39
14277,-15.7
14289,-15.4
14301,-14.61
14313,-13.64
14325,-12.82
14337,-12.41
14349,-12.51
14361,-13.04
14373,-13.9
14385,-15.03
14397,-16.52
14409,-18.63
14420,-21.61
14431,-25.58
14443,-30.36
14455,-35.54
14467,-40.48
14479,-44.39
14491,-46.5
14503,-46.13
14515,-42.84
14527,-36.58
14539,-27.77
14551,-17.24
14563,-5.98
14575,5.13
14587,15.53
14599,24.97
14610,33.37
14621,40.68
14633,46.77
14645,51.58
14657,55.15
14669,57.75
14681,59.76
14693,61.46
14705,62.89
14717,63.84
14729,63.99
14741,63.09
14753,61.11
14765,58.2
14777,54.56
14789,50.34
14800,45.62
14811,40.54
14823,35.39
14835,30.68
14847,27.02
14859,24.85
14871,24.24
14883,24.88
14895,26.17
14907,27.46
14919,28.25
14931,28.17
14943,27.04
14955,24.76
14967,21.43
14979,17.37
14990,13.09
15001,9.11
15013,5.79
15025,3.08
15037,0.62
15049,-1.96
15061,-4.68
15073,-7.07
15085,-8.22
15097,-7.24
15109,-3.61
15121,2.47
15133,10.12
15145,18.05
15157,24.88
15169,29.52
15180,31.38
15191,30.53
15203,27.66
15215,23.88
15227,20.45
15239,18.31
15251,17.85
15263,18.71
15275,20.05
15287,20.9
15299,20.58
15311,18.95
15323,16.41
15335,13.62
15347,11.13
15359,9.17
15370,7.5
15381,5.6
15393,2.9
15405,-1.01
15417,-6.22
15429,-12.56
15441,-19.65
15453,-27.06
15465,-34.35
15477,-41.11
15489,-46.97
15501,-51.62
15513,-54.89
15525,-56.66
15537,-56.9
15549,-55.64
15560,-52.98
15571,-49.21
15583,-44.75
15595,-40.14
15607,-35.8
15619,-31.85
15631,-28.12
15643,-24.27
15655,-20.05
15667,-15.52
15679,-10.99
15691,-6.73
15703,-2.75
15715,1.38
15727,6.34
15739,12.7
15750,20.54
15761,29.25
15773,37.69
15785,44.57
15797,48.92
15809,50.34
15821,49.02
15833,45.54
15845,40.48
15857,34.28
15869,27.18
15881,19.4
15893,11.38
15905,3.89
15917,-2.16
15929,-6.05
15940,-7.59
15951,-7.22
15963,-5.81
15975,-4.28
15987,-3.29
15999,-3.03
16011,-3.36
16023,-4.01
16035,-4.76
16047,-5.45
16059,-6.02
16071,-6.39
16083,-6.53
16095,-6.55
16107,-6.71
16119,-7.33
16130,-8.56
16141,-10.21
16153,-11.76
16165,-12.56
16177,-12.11
16189,-10.38
16201,-7.75
16213,-4.88
16225,-2.42
16237,-0.81
16249,-0.14
16261,-0.24
16273,-0.83
16285,-1.67
16297,-2.6
16309,-3.66
16320,-4.98
16331,-6.74
16343,-9.0
16355,-11.66
16367,-14.43
16379,-16.91
16391,-18.78
16403,-19.92
16415,-20.46
16427,-20.63
16439,-20.66
16451,-20.63
16463,-20.45
16475,-19.98
16487,-19.12
16499,-17.94
16510,-16.64
16521,-15.47
16533,-14.62
16545,-14.07
16557,-13.65
16569,-13.11
16581,-12.31
16593,-11.36
16605,-10.51
16617,-10.01
16629,-9.88
16641,-9.81
16653,-9.26
16665,-7.72
16677,-5.04
16689,-1.47
16700,2.46
16711,6.19
16723,9.42
16735,12.06
16747,14.18
16759,15.83
16771,17.06
16783,18.01
16795,19.0
16807,20.45
16819,22.65
16831,25.45
16843,28.31
16855,30.43
16867,31.26
16879,30.79
16890,29.57
16901,28.35
16913,27.59
16925,27.2
16937,26.54
16949,24.84
16961,21.65
16973,17.17
16985,12.14
16997,7.5
17009,4.01
17021,1.92
17033,0.97
17045,0.57
17057,0.08
17069,-0.89
17080,-2.41
17091,-4.23
17103,-5.93
17115,-7.17
17127,-7.74
17139,-7.72
17151,-7.33
17163,-6.83
17175,-6.38
17187,-5.99
17199,-5.53
17211,-4.94
17223,-4.28
17235,-3.8
17247,-3.81
17259,-4.47
17270,-5.79
17281,-7.49
17293,-9.28
17305,-10.91
17317,-12.29
17329,-13.48
17341,-14.54
17353,-15.45
17365,-16.05
17377,-16.09
17389,-15.38
17401,-13.86
17413,-11.69
17425,-9.18
17437,-6.71
17449,-4.65
17460,-3.22
17471,-2.5
17483,-2.42
17495,-2.82
17507,-3.47
17519,-4.18
17531,-4.86
17543,-5.48
17555,-6.04
17567,-6.56
17579,-7.04
17591,-7.44
17603,-7.7
17615,-7.83
17627,-7.83
17639,-7.77
17650,-7.73
17661,-7.8
17673,-8.13
17685,-8.8
17697,-9.83
17709,-11.08
17721,-12.21
17733,-12.7
17745,-12.05
17757,-10.01
17769,-6.69
17781,-2.66
17793,1.24
17805,4.21
17817,5.71
17829,5.69
17840,4.5
17851,2.77
17863,1.15
17875,0.12
17887,-0.15
17899,0.16
17911,0.67
17923,0.89
17935,0.42
17947,-0.92
17959,-2.94
17971,-5.19
17983,-7.01
17995,-7.75
18007,-7.01
18019,-4.76
18030,-1.47
18041,2.12
18053,5.15
18065,7.0
18077,7.47
18089,6.83
18101,5.63
18113,4.45
18125,3.71
18137,3.54
18149,3.84
18161,4.44
18173,5.19
18185,5.94
18197,6.53
18209,6.71
18220,6.15
18231,4.62
18243,2.06
18255,-1.29
18267,-4.94
18279,-8.26
18291,-10.65
18303,-11.72
18315,-11.41
18327,-10.01
18339,-8.1
18351,-6.44
18363,-5.66
18375,-6.01
18387,-7.23
18399,-8.59
18410,-9.29
18421,-8.76
18433,-7.01
18445,-4.63
18457,-2.44
18469,-1.12
18481,-0.83
18493,-1.25
18505,-1.73
18517,-1.74
18529,-1.09
18541,-0.01
18553,1.07
18565,1.75
18577,1.9
18589,1.66
18600,1.38
18611,1.33
18623,1.6
18635,2.02
18647,2.29
18659,2.12
18671,1.4
18683,0.24
18695,-1.1
18707,-2.41
18719,-3.55
18731,-4.5
18743,-5.23
18755,-5.66
18767,-5.75
18779,-5.59
18790,-5.58
18801,-6.27
18813,-8.07
18825,-10.97
18837,-14.31
18849,-17.03
18861,-18.02
18873,-16.7
18885,-13.16
18897,-8.19
18909,-2.88
18921,1.76
18933,5.03
18945,6.66
18957,6.72
18969,5.5
18980,3.44
18991,1.12
19003,-0.93
19015,-2.25
19027,-2.57
19039,-1.88
19051,-0.4
19063,1.51
19075,3.44
19087,4.98
19099,5.91
19111,6.16
19123,5.85
19135,5.23
19147,4.55
19159,3.96
19170,3.51
19181,3.14
19193,2.81
19205,2.56
19217,2.51
19229,2.78
19241,3.41
19253,4.33
19265,5.36
19277,6.31
19289,7.03
19301,7.49
19313,7.68
19325,7.64
19337,7.34
19349,6.76
19360,5.91
19371,4.87
19383,3.79
19395,2.85
19407,2.19
19419,1.8
19431,1.6
19443,1.42
19455,1.14
19467,0.72
19479,0.2
19491,-0.33
19503,-0.81
19515,-1.26
19527,-1.74
19539,-2.28
19550,-2.86
19561,-3.3
19573,-3.4
19585,-2.99
19597,-2.04
19609,-0.7
19621,0.79
19633,2.17
19645,3.3
19657,4.12
19669,4.66
19681,4.93
19693,4.9
19705,4.56
19717,3.89
19729,2.97
19740,1.93
19751,0.92
19763,0.05
19775,-0.62
19787,-1.11
19799,-1.43
19811,-1.64
19823,-1.79
19835,-1.98
19847,-2.26
19859,-2.69
19871,-3.29
19883,-3.98
19895,-4.66
19907,-5.13
19919,-5.22
19930,-4.78
19941,-3.73
19953,-2.11
19965,-0.1
19977,2.08
19989,4.14
20001,5.85
20013,7.04
20025,7.63
20037,7.68
20049,7.33
20061,6.78
20073,6.23
20085,5.76
20097,5.38
20109,5.04
20120,4.67
20131,4.25
20143,3.8
20155,3.36
20167,2.91
20179,2.38
20191,1.64
20203,0.6
20215,-0.75
20227,-2.31
20239,-3.9
20251,-5.26
20263,-6.1
20275,-6.17
20287,-5.35
20299,-3.68
20310,-1.4
20321,1.14
20333,3.59
20345,5.68
20357,7.28
20369,8.37
20381,8.93
20393,8.98
20405,8.52
20417,7.58
20429,6.3
20441,4.86
20453,3.44
20465,2.22
20477,1.3
20489,0.72
20500,0.48
20511,0.55
20523,0.85
20535,1.27
20547,1.63
20559,1.77
20571,1.53
20583,0.87
20595,-0.13
20607,-1.26
20619,-2.18
20631,-2.56
20643,-2.16
20655,-0.87
20667,1.17
20679,3.69
20690,6.35
20701,8.8
20713,10.79
20725,12.17
20737,12.91
20749,13.07
20761,12.79
20773,12.23
20785,11.58
20797,10.94
20809,10.34
20821,9.71
20833,8.92
20845,7.89
20857,6.63
20869,5.24
20880,3.86
20891,2.6
20903,1.47
20915,0.38
20927,-0.81
20939,-2.26
20951,-4.03
20963,-6.06
20975,-8.14
20987,-10.01
20999,-11.36
