seconds,BVP
11,5.91
23,4.71
35,3.73
47,3.15
59,2.98
71,3.1
83,3.34
95,3.53
106,3.57
117,3.42
129,3.05
141,2.41
153,1.42
165,-0.0
177,-1.86
189,-4.02
201,-6.29
213,-8.44
225,-10.29
237,-11.8
249,-12.97
261,-13.84
273,-14.39
285,-14.57
296,-14.28
307,-13.46
319,-12.06
331,-10.15
343,-7.89
355,-5.44
367,-3.02
379,-0.81
391,1.1
403,2.65
415,3.84
427,4.66
439,5.15
451,5.33
463,5.23
475,4.88
486,4.33
497,3.63
509,2.88
521,2.11
533,1.41
545,0.81
557,0.34
569,0.01
581,-0.18
593,-0.25
605,-0.18
617,0.07
629,0.52
641,1.17
653,1.95
665,2.75
676,3.46
687,4.0
699,4.36
711,4.6
723,4.77
735,4.94
747,5.12
759,5.29
771,5.45
783,5.58
795,5.7
807,5.83
819,5.94
831,5.98
843,5.91
855,5.72
866,5.43
877,5.09
889,4.72
901,4.28
913,3.72
925,2.97
937,2.04
949,0.99
961,-0.1
973,-1.15
985,-2.17
997,-3.18
1009,-4.21
1021,-5.22
1033,-6.1
1045,-6.71
1056,-6.94
1067,-6.81
1079,-6.43
1091,-6.01
1103,-5.7
1115,-5.53
1127,-5.41
1139,-5.18
1151,-4.73
1163,-4.03
1175,-3.23
1187,-2.49
1199,-1.96
1211,-1.67
1223,-1.52
1235,-1.39
1246,-1.22
1257,-1.0
1269,-0.79
1281,-0.65
1293,-0.55
1305,-0.42
1317,-0.2
1329,0.17
1341,0.66
1353,1.22
1365,1.79
1377,2.3
1389,2.7
1401,2.9
1413,2.84
1425,2.45
1436,1.78
1447,0.97
1459,0.24
1471,-0.23
1483,-0.34
1495,-0.09
1507,0.41
1519,1.09
1531,1.86
1543,2.65
1555,3.39
1567,3.96
1579,4.22
1591,4.14
1603,3.77
1615,3.31
1626,2.95
1637,2.82
1649,2.91
1661,3.09
1673,3.25
1685,3.36
1697,3.49
1709,3.79
1721,4.34
1733,5.11
1745,5.96
1757,6.72
1769,7.27
1781,7.58
1793,7.66
1805,7.55
1816,7.25
1827,6.72
1839,5.91
1851,4.82
1863,3.56
1875,2.31
1887,1.23
1899,0.45
1911,-0.03
1923,-0.29
1935,-0.45
1947,-0.56
1959,-0.64
1971,-0.65
1983,-0.58
1995,-0.47
2006,-0.42
2017,-0.56
2029,-0.92
2041,-1.49
2053,-2.17
2065,-2.89
2077,-3.57
2089,-4.14
2101,-4.57
2113,-4.81
2125,-4.85
2137,-4.75
2149,-4.6
2161,-4.51
2173,-4.52
2185,-4.63
2196,-4.76
2207,-4.86
2219,-4.89
2231,-4.86
2243,-4.78
2255,-4.64
2267,-4.39
2279,-4.01
2291,-3.54
2303,-3.06
2315,-2.68
2327,-2.44
2339,-2.29
2351,-2.13
2363,-1.85
2375,-1.43
2386,-0.9
2397,-0.34
2409,0.24
2421,0.87
2433,1.62
2445,2.54
2457,3.55
2469,4.47
2481,5.14
2493,5.45
2505,5.45
2517,5.32
2529,5.24
2541,5.3
2553,5.49
2565,5.66
2576,5.71
2587,5.55
2599,5.19
2611,4.67
2623,3.97
2635,3.07
2647,1.95
2659,0.69
2671,-0.52
2683,-1.45
2695,-1.94
2707,-1.99
2719,-1.74
2731,-1.41
2743,-1.19
2755,-1.17
2766,-1.28
2777,-1.4
2789,-1.38
2801,-1.15
2813,-0.71
2825,-0.13
2837,0.47
2849,0.98
2861,1.3
2873,1.37
2885,1.18
2897,0.75
2909,0.15
2921,-0.53
2933,-1.21
2945,-1.8
2956,-2.24
2967,-2.5
2979,-2.63
2991,-2.69
3003,-2.77
3015,-2.89
3027,-3.04
3039,-3.11
3051,-3.06
3063,-2.84
3075,-2.47
3087,-1.98
3099,-1.39
3111,-0.76
3123,-0.15
3135,0.35
3146,0.66
3157,0.76
3169,0.77
3181,0.85
3193,1.15
3205,1.71
3217,2.42
3229,3.07
3241,3.49
3253,3.64
3265,3.62
3277,3.59
3289,3.66
3301,3.85
3313,4.06
3325,4.17
3336,4.12
3347,3.93
3359,3.72
3371,3.56
3383,3.48
3395,3.43
3407,3.31
3419,3.05
3431,2.64
3443,2.14
3455,1.6
3467,1.09
3479,0.67
3491,0.35
3503,0.16
3515,0.12
3526,0.23
3537,0.47
3549,0.73
3561,0.93
3573,1.01
3585,1.0
3597,0.97
3609,1.02
3621,1.16
3633,1.36
3645,1.55
3657,1.7
3669,1.8
3681,1.9
3693,1.97
3705,1.89
3716,1.55
3727,0.85
3739,-0.13
3751,-1.17
3763,-2.01
3775,-2.45
3787,-2.48
3799,-2.22
3811,-1.85
3823,-1.53
3835,-1.31
3847,-1.2
3859,-1.13
3871,-1.07
3883,-1.02
3895,-0.96
3906,-0.88
3917,-0.75
3929,-0.52
3941,-0.18
3953,0.26
3965,0.74
3977,1.18
3989,1.48
4001,1.56
4013,1.4
4025,1.04
4037,0.57
4049,0.08
4061,-0.38
4073,-0.75
4085,-1.01
4096,-1.07
4107,-0.86
4119,-0.36
4131,0.34
4143,1.03
4155,1.5
4167,1.63
4179,1.49
4191,1.29
4203,1.23
4215,1.48
4227,2.02
4239,2.73
4251,3.5
4263,4.2
4275,4.79
4286,5.24
4297,5.5
4309,5.54
4321,5.36
4333,5.03
4345,4.69
4357,4.48
4369,4.45
4381,4.58
4393,4.79
4405,5.01
4417,5.21
4429,5.39
4441,5.55
4453,5.63
4465,5.53
4476,5.24
4487,4.84
4499,4.5
4511,4.42
4523,4.69
4535,5.23
4547,5.84
4559,6.3
4571,6.41
4583,6.12
4595,5.47
4607,4.55
4619,3.43
4631,2.16
4643,0.8
4655,-0.59
4666,-1.91
4677,-3.12
4689,-4.17
4701,-5.11
4713,-5.96
4725,-6.73
4737,-7.43
4749,-8.07
4761,-8.7
4773,-9.41
4785,-10.24
4797,-11.16
4809,-12.06
4821,-12.75
4833,-13.09
4845,-13.0
4856,-12.52
4867,-11.72
4879,-10.74
4891,-9.67
4903,-8.62
4915,-7.67
4927,-6.91
4939,-6.43
4951,-6.23
4963,-6.23
4975,-6.28
4987,-6.17
4999,-5.76
5011,-5.02
5023,-4.07
5035,-3.14
5046,-2.47
5057,-2.26
5069,-2.51
5081,-3.11
5093,-3.83
5105,-4.44
5117,-4.8
5129,-4.9
5141,-4.75
5153,-4.4
5165,-3.89
5177,-3.28
5189,-2.65
5201,-2.15
5213,-1.88
5225,-1.9
5236,-2.11
5247,-2.32
5259,-2.31
5271,-1.96
5283,-1.29
5295,-0.47
5307,0.32
5319,0.93
5331,1.32
5343,1.55
5355,1.7
5367,1.86
5379,2.07
5391,2.33
5403,2.59
5415,2.79
5426,2.84
5437,2.71
5449,2.4
5461,1.99
5473,1.57
5485,1.22
5497,1.0
5509,0.92
5521,1.02
5533,1.33
5545,1.84
5557,2.5
5569,3.14
5581,3.59
5593,3.69
5605,3.41
5616,2.85
5627,2.23
5639,1.75
5651,1.53
5663,1.55
5675,1.73
5687,1.92
5699,2.06
5711,2.09
5723,2.0
5735,1.79
5747,1.44
5759,0.91
5771,0.17
5783,-0.77
5795,-1.82
5806,-2.8
5817,-3.51
5829,-3.75
5841,-3.48
5853,-2.81
5865,-2.0
5877,-1.35
5889,-1.04
5901,-1.1
5913,-1.4
5925,-1.77
5937,-2.06
5949,-2.22
5961,-2.27
5973,-2.24
5985,-2.17
5996,-2.06
6007,-1.93
6019,-1.8
6031,-1.69
6043,-1.57
6055,-1.35
6067,-0.91
6079,-0.15
6091,0.9
6103,2.11
6115,3.23
6127,4.04
6139,4.42
6151,4.44
6163,4.28
6175,4.22
6186,4.45
6197,4.99
6209,5.73
6221,6.45
6233,6.94
6245,7.13
6257,7.13
6269,7.17
6281,7.45
6293,8.05
6305,8.85
6317,9.61
6329,10.12
6341,10.23
6353,9.97
6365,9.48
6376,8.92
6387,8.38
6399,7.91
6411,7.5
6423,7.15
6435,6.86
6447,6.63
6459,6.46
6471,6.31
6483,6.12
6495,5.83
6507,5.36
6519,4.68
6531,3.78
6543,2.72
6555,1.62
6566,0.6
6577,-0.27
6589,-0.97
6601,-1.62
6613,-2.35
6625,-3.24
6637,-4.31
6649,-5.42
6661,-6.44
6673,-7.25
6685,-7.88
6697,-8.4
6709,-8.9
6721,-9.42
6733,-9.91
6745,-10.27
6756,-10.44
6767,-10.44
6779,-10.42
6791,-10.58
6803,-11.06
6815,-11.9
6827,-12.97
6839,-13.99
6851,-14.68
6863,-14.86
6875,-14.54
6887,-13.94
6899,-13.37
6911,-13.09
6923,-13.2
6935,-13.54
6946,-13.79
6957,-13.64
6969,-12.89
6981,-11.55
6993,-9.78
7005,-7.79
7017,-5.75
7029,-3.75
7041,-1.86
7053,-0.18
7065,1.14
7077,1.99
7089,2.34
7101,2.35
7113,2.26
7125,2.32
7136,2.68
7147,3.27
7159,3.9
7171,4.31
7183,4.33
7195,3.96
7207,3.38
7219,2.82
7231,2.51
7243,2.55
7255,2.91
7267,3.45
7279,4.02
7291,4.52
7303,4.87
7315,5.04
7326,5.03
7337,4.87
7349,4.62
7361,4.35
7373,4.18
7385,4.17
7397,4.33
7409,4.59
7421,4.8
7433,4.82
7445,4.56
7457,4.02
7469,3.31
7481,2.59
7493,2.0
7505,1.62
7516,1.43
7527,1.34
7539,1.26
7551,1.18
7563,1.21
7575,1.47
7587,2.06
7599,2.93
7611,3.95
7623,4.93
7635,5.75
7647,6.4
7659,6.93
7671,7.45
7683,7.99
7695,8.49
7706,8.82
7717,8.81
7729,8.39
7741,7.57
7753,6.46
7765,5.22
7777,4.02
7789,2.97
7801,2.12
7813,1.43
7825,0.81
7837,0.18
7849,-0.51
7861,-1.26
7873,-1.99
7885,-2.64
7896,-3.19
7907,-3.66
7919,-4.07
7931,-4.42
7943,-4.64
7955,-4.69
7967,-4.55
7979,-4.29
7991,-4.0
8003,-3.77
8015,-3.61
8027,-3.45
8039,-3.26
8051,-3.06
8063,-2.92
8075,-2.95
8086,-3.17
8097,-3.45
8109,-3.66
8121,-3.68
8133,-3.52
8145,-3.25
8157,-3.02
8169,-2.89
8181,-2.9
8193,-3.0
8205,-3.16
8217,-3.36
8229,-3.55
8241,-3.69
8253,-3.74
8265,-3.69
8276,-3.57
8287,-3.42
8299,-3.26
8311,-3.1
8323,-2.89
8335,-2.6
8347,-2.21
8359,-1.76
8371,-1.26
8383,-0.75
8395,-0.26
8407,0.15
8419,0.41
8431,0.46
8443,0.28
8455,-0.08
8466,-0.54
8477,-0.97
8489,-1.3
8501,-1.5
8513,-1.55
8525,-1.47
8537,-1.32
8549,-1.14
8561,-1.0
8573,-0.96
8585,-1.04
8597,-1.17
8609,-1.27
8621,-1.24
8633,-1.08
8645,-0.83
8656,-0.55
8667,-0.2
8679,0.29
8691,1.0
8703,1.95
8715,3.0
8727,3.94
8739,4.59
8751,4.91
8763,5.03
8775,5.19
8787,5.56
8799,6.17
8811,6.91
8823,7.58
8835,8.01
8846,8.15
8857,8.1
8869,8.01
8881,7.98
8893,8.09
8905,8.28
8917,8.46
8929,8.54
8941,8.46
8953,8.2
8965,7.8
8977,7.3
8989,6.71
9001,6.1
9013,5.51
9025,5.02
9036,4.67
9047,4.46
9059,4.25
9071,3.84
9083,3.03
9095,1.72
9107,-0.01
9119,-1.96
9131,-3.86
9143,-5.52
9155,-6.86
9167,-7.92
9179,-8.78
9191,-9.49
9203,-10.01
9215,-10.21
9226,-10.04
9237,-9.52
9249,-8.81
9261,-8.14
9273,-7.75
9285,-7.74
9297,-8.09
9309,-8.64
9321,-9.2
9333,-9.6
9345,-9.77
9357,-9.74
9369,-9.58
9381,-9.34
9393,-9.06
9405,-8.75
9416,-8.34
9427,-7.8
9439,-7.06
9451,-6.12
9463,-5.05
9475,-3.95
9487,-2.99
9499,-2.3
9511,-1.91
9523,-1.74
9535,-1.64
9547,-1.45
9559,-1.06
9571,-0.46
9583,0.24
9595,0.93
9606,1.49
9617,1.86
9629,2.02
9641,2.01
9653,1.9
9665,1.79
9677,1.82
9689,2.1
9701,2.7
9713,3.58
9725,4.62
9737,5.64
9749,6.47
9761,7.06
9773,7.46
9785,7.79
9796,8.16
9807,8.64
9819,9.17
9831,9.65
9843,10.0
9855,10.19
9867,10.35
9879,10.59
9891,10.99
9903,11.5
9915,11.92
9927,12.01
9939,11.58
9951,10.61
9963,9.27
9975,7.85
9986,6.64
9997,5.84
10009,5.47
10021,5.46
10033,5.63
10045,5.82
10057,5.93
10069,5.94
10081,5.89
10093,5.84
10105,5.83
10117,5.86
10129,5.93
10141,6.0
10153,6.08
10165,6.14
10176,6.2
10187,6.19
10199,6.07
10211,5.73
10223,5.12
10235,4.27
10247,3.3
10259,2.43
10271,1.86
10283,1.68
10295,1.85
10307,2.18
10319,2.44
10331,2.44
10343,2.11
10355,1.49
10366,0.73
10377,-0.03
10389,-0.64
10401,-1.05
10413,-1.27
10425,-1.37
10437,-1.4
10449,-1.43
10461,-1.45
10473,-1.45
10485,-1.38
10497,-1.28
10509,-1.17
10521,-1.13
10533,-1.23
10545,-1.51
10556,-1.94
10567,-2.49
10579,-3.12
10591,-3.8
10603,-4.53
10615,-5.24
10627,-5.87
10639,-6.35
10651,-6.65
10663,-6.79
10675,-6.88
10687,-6.97
10699,-7.13
10711,-7.35
10723,-7.58
10735,-7.73
10746,-7.77
10757,-7.69
10769,-7.53
10781,-7.35
10793,-7.19
10805,-7.05
10817,-6.91
10829,-6.73
10841,-6.48
10853,-6.14
10865,-5.72
10877,-5.23
10889,-4.7
10901,-4.14
10913,-3.57
10925,-2.97
10936,-2.34
10947,-1.76
10959,-1.3
10971,-1.08
10983,-1.16
10995,-1.49
11007,-1.96
11019,-2.42
11031,-2.77
11043,-3.01
11055,-3.21
11067,-3.49
11079,-3.9
11091,-4.41
11103,-4.92
11115,-5.32
11126,-5.53
11137,-5.54
11149,-5.39
11161,-5.16
11173,-4.92
11185,-4.71
11197,-4.57
11209,-4.49
11221,-4.42
11233,-4.27
11245,-4.0
11257,-3.59
11269,-3.12
11281,-2.66
11293,-2.26
11305,-1.91
11316,-1.57
11327,-1.15
11339,-0.69
11351,-0.28
11363,-0.05
11375,-0.09
11387,-0.37
11399,-0.81
11411,-1.27
11423,-1.63
11435,-1.81
11447,-1.78
11459,-1.5
11471,-1.0
11483,-0.35
11495,0.33
11506,0.89
11517,1.28
11529,1.57
11541,1.9
11553,2.39
11565,3.03
11577,3.69
11589,4.16
11601,4.29
11613,4.08
11625,3.64
11637,3.14
11649,2.7
11661,2.36
11673,2.14
11685,2.1
11696,2.26
11707,2.64
11719,3.17
11731,3.67
11743,3.97
11755,3.92
11767,3.51
11779,2.84
11791,2.05
11803,1.31
11815,0.77
11827,0.51
11839,0.54
11851,0.83
11863,1.25
11875,1.66
11886,1.94
11897,2.06
11909,2.05
11921,1.99
11933,1.9
11945,1.77
11957,1.55
11969,1.23
11981,0.86
11993,0.61
12005,0.6
12017,0.9
12029,1.4
12041,1.87
12053,2.08
12065,1.91
12076,1.44
12087,0.87
12099,0.45
12111,0.31
12123,0.42
12135,0.62
12147,0.76
12159,0.78
12171,0.75
12183,0.83
12195,1.13
12207,1.65
12219,2.27
12231,2.79
12243,3.08
12255,3.1
12266,2.91
12277,2.61
12289,2.27
12301,1.87
12313,1.36
12325,0.68
12337,-0.17
12349,-1.11
12361,-1.96
12373,-2.57
12385,-2.89
12397,-2.95
12409,-2.94
12421,-3.02
12433,-3.32
12445,-3.78
12456,-4.26
12467,-4.57
12479,-4.6
12491,-4.36
12503,-3.96
12515,-3.57
12527,-3.23
12539,-2.94
12551,-2.6
12563,-2.13
12575,-1.52
12587,-0.84
12599,-0.22
12611,0.25
12623,0.51
12635,0.63
12646,0.65
12657,0.64
12669,0.6
12681,0.48
12693,0.2
12705,-0.28
12717,-0.9
12729,-1.59
12741,-2.22
12753,-2.7
12765,-3.04
12777,-3.3
12789,-3.58
12801,-3.91
12813,-4.26
12825,-4.51
12836,-4.57
12847,-4.39
12859,-4.03
12871,-3.62
12883,-3.27
12895,-3.04
12907,-2.84
12919,-2.53
12931,-2.02
12943,-1.28
12955,-0.43
12967,0.35
12979,0.93
12991,1.29
13003,1.5
13015,1.67
13026,1.87
13037,2.11
13049,2.36
13061,2.6
13073,2.85
13085,3.11
13097,3.4
13109,3.71
13121,4.0
13133,4.23
13145,4.37
13157,4.37
13169,4.17
13181,3.74
13193,3.11
13205,2.39
13216,1.74
13227,1.32
13239,1.17
13251,1.22
13263,1.31
13275,1.27
13287,1.03
13299,0.65
13311,0.23
13323,-0.09
13335,-0.28
13347,-0.36
13359,-0.42
13371,-0.52
13383,-0.69
13395,-0.87
13406,-0.98
13417,-1.01
13429,-1.02
13441,-1.17
13453,-1.57
13465,-2.25
13477,-3.08
13489,-3.85
13501,-4.35
13513,-4.54
13525,-4.54
13537,-4.59
13549,-4.91
13561,-5.55
13573,-6.42
13585,-7.31
13596,-7.98
13607,-8.24
13619,-8.07
13631,-7.54
13643,-6.79
13655,-5.93
13667,-5.03
13679,-4.08
13691,-3.09
13703,-2.09
13715,-1.17
13727,-0.46
13739,-0.07
13751,-0.04
13763,-0.31
13775,-0.74
13786,-1.18
13797,-1.51
13809,-1.65
13821,-1.6
13833,-1.39
13845,-1.1
13857,-0.83
13869,-0.71
13881,-0.77
13893,-0.97
13905,-1.21
13917,-1.37
13929,-1.37
13941,-1.26
13953,-1.13
13965,-1.1
13976,-1.17
13987,-1.26
13999,-1.19
14011,-0.83
14023,-0.13
14035,0.84
14047,1.9
14059,2.9
14071,3.76
14083,4.47
14095,5.06
14107,5.5
14119,5.71
14131,5.62
14143,5.17
14155,4.48
14166,3.79
14177,3.37
14189,3.36
14201,3.73
14213,4.27
14225,4.72
14237,4.89
14249,4.72
14261,4.31
14273,3.76
14285,3.14
14297,2.45
14309,1.69
14321,0.84
14333,-0.06
14345,-0.94
14356,-1.75
14367,-2.44
14379,-2.97
14391,-3.34
14403,-3.54
14415,-3.6
14427,-3.58
14439,-3.55
14451,-3.52
14463,-3.49
14475,-3.44
14487,-3.34
14499,-3.18
14511,-2.96
14523,-2.7
14535,-2.42
14546,-2.09
14557,-1.73
14569,-1.34
14581,-0.97
14593,-0.66
14605,-0.43
14617,-0.26
14629,-0.1
14641,0.13
14653,0.46
14665,0.89
14677,1.32
14689,1.63
14701,1.72
14713,1.54
14725,1.14
14736,0.66
14747,0.23
14759,-0.04
14771,-0.13
14783,-0.14
14795,-0.2
14807,-0.4
14819,-0.76
14831,-1.18
14843,-1.47
14855,-1.5
14867,-1.23
14879,-0.75
14891,-0.23
14903,0.19
14915,0.49
14926,0.73
14937,1.08
14949,1.62
14961,2.32
14973,2.98
14985,3.4
14997,3.41
15009,3.04
15021,2.46
15033,1.91
15045,1.61
15057,1.62
15069,1.84
15081,2.09
15093,2.19
15105,2.04
15116,1.7
15127,1.31
15139,1.04
15151,1.0
15163,1.2
15175,1.57
15187,2.03
15199,2.55
15211,3.12
15223,3.78
15235,4.49
15247,5.17
15259,5.65
15271,5.77
15283,5.45
15295,4.72
15306,3.73
15317,2.68
15329,1.76
15341,1.07
15353,0.63
15365,0.45
15377,0.51
15389,0.75
15401,1.13
15413,1.49
15425,1.67
15437,1.48
15449,0.77
15461,-0.41
15473,-1.91
15485,-3.42
15496,-4.62
15507,-5.31
15519,-5.46
15531,-5.26
15543,-4.95
15555,-4.78
15567,-4.83
15579,-5.08
15591,-5.34
15603,-5.42
15615,-5.23
15627,-4.76
15639,-4.12
15651,-3.48
15663,-2.96
15675,-2.66
15686,-2.56
15697,-2.59
15709,-2.7
15721,-2.84
15733,-2.99
15745,-3.11
15757,-3.12
15769,-2.9
15781,-2.37
15793,-1.6
15805,-0.76
15817,-0.11
15829,0.13
15841,-0.1
15853,-0.65
15865,-1.27
15876,-1.69
15887,-1.76
15899,-1.5
15911,-1.01
15923,-0.4
15935,0.27
15947,1.01
15959,1.84
15971,2.73
15983,3.58
15995,4.32
16007,4.85
16019,5.2
16031,5.41
16043,5.56
16055,5.7
16066,5.83
16077,5.95
16089,6.07
16101,6.23
16113,6.49
16125,6.84
16137,7.24
16149,7.6
16161,7.86
16173,8.0
16185,8.04
16197,8.01
16209,7.91
16221,7.66
16233,7.2
16245,6.56
16256,5.88
16267,5.35
16279,5.19
16291,5.47
16303,6.14
16315,6.97
16327,7.66
16339,7.93
16351,7.61
16363,6.73
16375,5.51
16387,4.26
16399,3.31
16411,2.81
16423,2.75
16435,2.95
16446,3.16
16457,3.22
16469,3.05
16481,2.73
16493,2.28
16505,1.73
16517,1.07
16529,0.31
16541,-0.49
16553,-1.24
16565,-1.9
16577,-2.52
16589,-3.21
16601,-4.07
16613,-5.11
16625,-6.23
16636,-7.3
16647,-8.2
16659,-8.89
16671,-9.34
16683,-9.53
16695,-9.38
16707,-8.8
16719,-7.77
16731,-6.39
16743,-4.87
16755,-3.51
16767,-2.58
16779,-2.17
16791,-2.23
16803,-2.6
16815,-3.05
16826,-3.39
16837,-3.52
16849,-3.44
16861,-3.2
16873,-2.89
16885,-2.61
16897,-2.41
16909,-2.28
16921,-2.19
16933,-2.06
16945,-1.81
16957,-1.43
16969,-0.94
16981,-0.4
16993,0.08
17005,0.43
17016,0.6
17027,0.6
17039,0.49
17051,0.41
17063,0.47
17075,0.81
17087,1.45
17099,2.33
17111,3.23
17123,3.95
17135,4.3
17147,4.27
17159,3.97
17171,3.6
17183,3.29
17195,3.09
17206,2.99
17217,2.9
17229,2.79
17241,2.64
17253,2.45
17265,2.23
17277,1.91
17289,1.44
17301,0.79
17313,-0.01
17325,-0.86
17337,-1.62
17349,-2.15
17361,-2.4
17373,-2.37
17385,-2.19
17396,-1.99
17407,-1.85
17419,-1.79
17431,-1.72
17443,-1.5
17455,-1.07
17467,-0.45
17479,0.25
17491,0.91
17503,1.46
17515,1.96
17527,2.5
17539,3.12
17551,3.8
17563,4.43
17575,4.87
17586,5.1
17597,5.2
17609,5.26
17621,5.38
17633,5.56
17645,5.73
17657,5.8
17669,5.72
17681,5.49
17693,5.11
17705,4.59
17717,3.97
17729,3.26
17741,2.54
17753,1.95
17765,1.59
17776,1.54
17787,1.78
17799,2.23
17811,2.81
17823,3.49
17835,4.24
17847,5.06
17859,5.91
17871,6.67
17883,7.26
17895,7.66
17907,7.95
17919,8.26
17931,8.67
17943,9.19
17955,9.71
17966,10.15
17977,10.51
17989,10.88
18001,11.4
18013,12.15
18025,13.04
18037,13.92
18049,14.67
18061,15.27
18073,15.85
18085,16.56
18097,17.46
18109,18.45
18121,19.37
18133,20.06
18145,20.54
18156,20.88
18167,21.19
18179,21.46
18191,21.53
18203,21.17
18215,20.09
18227,18.03
18239,14.72
18251,9.99
18263,3.74
18275,-3.91
18287,-12.55
18299,-21.53
18311,-30.08
18323,-37.51
18335,-43.4
18346,-47.69
18357,-50.64
18369,-52.66
18381,-54.11
18393,-55.07
18405,-55.41
18417,-54.81
18429,-52.95
18441,-49.69
18453,-45.1
18465,-39.47
18477,-33.17
18489,-26.58
18501,-20.0
18513,-13.75
18525,-8.13
18536,-3.44
18547,0.14
18559,2.63
18571,4.22
18583,5.22
18595,5.91
18607,6.48
18619,7.01
18631,7.45
18643,7.72
18655,7.72
18667,7.35
18679,6.53
18691,5.25
18703,3.61
18715,1.81
18726,0.11
18737,-1.27
18749,-2.21
18761,-2.8
18773,-3.2
18785,-3.59
18797,-4.05
18809,-4.52
18821,-4.94
18833,-5.24
18845,-5.51
18857,-5.89
18869,-6.52
18881,-7.45
18893,-8.62
18905,-9.86
18916,-11.02
18927,-11.98
18939,-12.7
18951,-13.23
18963,-13.61
18975,-13.91
18987,-14.24
18999,-14.68
19011,-15.26
19023,-15.93
19035,-16.56
19047,-16.94
19059,-16.91
19071,-16.36
19083,-15.26
19095,-13.62
19106,-11.47
19117,-8.89
19129,-5.97
19141,-2.87
19153,0.22
19165,3.09
19177,5.61
19189,7.68
19201,9.3
19213,10.44
19225,11.1
19237,11.25
19249,10.89
19261,10.09
19273,9.0
19285,7.83
19296,6.78
19307,5.96
19319,5.4
19331,4.99
19343,4.6
19355,4.12
19367,3.5
19379,2.77
19391,2.01
19403,1.33
19415,0.83
19427,0.59
19439,0.62
19451,0.86
19463,1.2
19475,1.53
19486,1.78
19497,1.99
19509,2.25
19521,2.64
19533,3.21
19545,3.9
19557,4.59
19569,5.15
19581,5.51
19593,5.66
19605,5.65
19617,5.52
19629,5.34
19641,5.15
19653,5.01
19665,4.95
19676,5.01
19687,5.16
19699,5.36
19711,5.51
19723,5.57
19735,5.48
19747,5.24
19759,4.87
19771,4.38
19783,3.82
19795,3.22
19807,2.68
19819,2.24
19831,1.98
19843,1.92
19855,2.06
19866,2.39
19877,2.91
19889,3.61
19901,4.43
19913,5.3
19925,6.1
19937,6.72
19949,7.07
19961,7.12
19973,6.87
19985,6.44
19997,5.91
20009,5.36
20021,4.86
20033,4.39
20045,3.95
20056,3.52
20067,3.12
20079,2.83
20091,2.69
20103,2.78
20115,3.08
20127,3.54
20139,4.08
20151,4.64
20163,5.21
20175,5.86
20187,6.66
20199,7.7
20211,9.0
20223,10.51
20235,12.11
20246,13.62
20257,14.89
20269,15.79
20281,16.28
20293,16.42
20305,16.29
20317,16.03
20329,15.79
20341,15.65
20353,15.63
20365,15.62
20377,15.42
20389,14.8
20401,13.54
20413,11.57
20425,8.9
20436,5.73
20447,2.3
20459,-1.16
20471,-4.44
20483,-7.41
20495,-10.02
20507,-12.27
20519,-14.19
20531,-15.8
20543,-17.11
20555,-18.1
20567,-18.69
20579,-18.82
20591,-18.42
20603,-17.53
20615,-16.23
20626,-14.65
20637,-12.93
20649,-11.15
20661,-9.38
20673,-7.69
20685,-6.17
20697,-4.91
20709,-4.02
20721,-3.48
20733,-3.19
20745,-2.94
20757,-2.52
20769,-1.83
20781,-0.9
20793,0.1
20805,0.96
20816,1.55
20827,1.88
20839,2.05
20851,2.24
20863,2.5
20875,2.81
20887,3.1
20899,3.3
20911,3.43
20923,3.62
20935,3.99
20947,4.6
20959,5.35
20971,6.07
20983,6.58
20995,6.75
