seconds,BVP
4,7.31
16,7.05
28,6.53
40,5.83
51,5.03
62,4.2
74,3.37
86,2.57
98,1.82
110,1.08
122,0.32
134,-0.52
146,-1.48
158,-2.5
170,-3.51
182,-4.39
194,-5.04
206,-5.47
218,-5.82
230,-6.26
241,-6.98
252,-8.07
264,-9.46
276,-10.96
288,-12.26
300,-13.01
312,-12.97
324,-12.03
336,-10.26
348,-7.87
360,-5.13
372,-2.27
384,0.49
396,3.0
408,5.14
420,6.81
431,7.96
442,8.62
454,8.86
466,8.78
478,8.47
490,7.98
502,7.37
514,6.7
526,6.08
538,5.64
550,5.43
562,5.44
574,5.52
586,5.54
598,5.41
610,5.12
621,4.75
632,4.36
644,3.96
656,3.48
668,2.85
680,2.03
692,1.08
704,0.08
716,-0.88
728,-1.72
740,-2.47
752,-3.13
764,-3.7
776,-4.14
788,-4.44
800,-4.62
811,-4.71
822,-4.81
834,-4.95
846,-5.13
858,-5.32
870,-5.42
882,-5.43
894,-5.38
906,-5.34
918,-5.41
930,-5.58
942,-5.79
954,-5.99
966,-6.11
978,-6.2
990,-6.32
1001,-6.53
1012,-6.86
1024,-7.27
1036,-7.72
1048,-8.16
1060,-8.6
1072,-9.01
1084,-9.42
1096,-9.86
1108,-10.37
1120,-10.94
1132,-11.48
1144,-11.81
1156,-11.61
1168,-10.6
1180,-8.64
1191,-5.86
1202,-2.63
1214,0.6
1226,3.38
1238,5.49
1250,6.89
1262,7.71
1274,8.11
1286,8.26
1298,8.28
1310,8.23
1322,8.14
1334,8.06
1346,8.01
1358,8.0
1370,8.05
1381,8.17
1392,8.35
1404,8.56
1416,8.75
1428,8.92
1440,9.06
1452,9.17
1464,9.25
1476,9.27
1488,9.22
1500,9.07
1512,8.86
1524,8.64
1536,8.41
1548,8.11
1560,7.65
1571,7.0
1582,6.19
1594,5.4
1606,4.83
1618,4.53
1630,4.46
1642,4.41
1654,4.18
1666,3.68
1678,2.98
1690,2.22
1702,1.57
1714,1.09
1726,0.74
1738,0.45
1750,0.17
1761,-0.07
1772,-0.24
1784,-0.3
1796,-0.28
1808,-0.27
1820,-0.39
1832,-0.74
1844,-1.34
1856,-2.17
1868,-3.17
1880,-4.25
1892,-5.32
1904,-6.32
1916,-7.21
1928,-7.99
1940,-8.67
1951,-9.27
1962,-9.81
1974,-10.3
1986,-10.78
1998,-11.26
2010,-11.74
2022,-12.2
2034,-12.54
2046,-12.62
2058,-12.26
2070,-11.31
2082,-9.73
2094,-7.6
2106,-5.15
2118,-2.67
2130,-0.41
2141,1.47
2152,2.91
2164,3.92
2176,4.55
2188,4.81
2200,4.78
2212,4.53
2224,4.19
2236,3.93
2248,3.84
2260,3.96
2272,4.2
2284,4.45
2296,4.66
2308,4.8
2320,4.94
2331,5.15
2342,5.44
2354,5.76
2366,6.01
2378,6.08
2390,5.95
2402,5.64
2414,5.2
2426,4.73
2438,4.28
2450,3.89
2462,3.55
2474,3.25
2486,2.91
2498,2.53
2510,2.11
2521,1.68
2532,1.3
2544,0.98
2556,0.73
2568,0.46
2580,0.14
2592,-0.21
2604,-0.55
2616,-0.79
2628,-0.91
2640,-0.94
2652,-0.98
2664,-1.11
2676,-1.39
2688,-1.77
2700,-2.18
2711,-2.57
2722,-2.92
2734,-3.28
2746,-3.71
2758,-4.27
2770,-4.93
2782,-5.65
2794,-6.36
2806,-7.02
2818,-7.64
2830,-8.3
2842,-9.05
2854,-9.93
2866,-10.88
2878,-11.74
2890,-12.29
2901,-12.31
2912,-11.62
2924,-10.17
2936,-8.09
2948,-5.63
2960,-3.09
2972,-0.75
2984,1.24
2996,2.82
3008,4.01
3020,4.88
3032,5.41
3044,5.63
3056,5.56
3068,5.3
3080,4.95
3091,4.64
3102,4.41
3114,4.25
3126,4.12
3138,3.99
3150,3.87
3162,3.85
3174,3.96
3186,4.2
3198,4.54
3210,4.92
3222,5.27
3234,5.55
3246,5.68
3258,5.64
3270,5.41
3281,5.02
3292,4.55
3304,4.08
3316,3.69
3328,3.38
3340,3.12
3352,2.84
3364,2.51
3376,2.12
3388,1.71
3400,1.3
3412,0.92
3424,0.58
3436,0.27
3448,0.0
3460,-0.2
3471,-0.33
3482,-0.42
3494,-0.52
3506,-0.72
3518,-1.04
3530,-1.48
3542,-1.99
3554,-2.48
3566,-2.94
3578,-3.37
3590,-3.84
3602,-4.39
3614,-5.04
3626,-5.76
3638,-6.48
3650,-7.12
3661,-7.69
3672,-8.22
3684,-8.8
3696,-9.51
3708,-10.33
3720,-11.18
3732,-11.84
3744,-12.07
3756,-11.67
3768,-10.59
3780,-8.89
3792,-6.77
3804,-4.5
3816,-2.3
3828,-0.38
3840,1.17
3851,2.33
3862,3.16
3874,3.76
3886,4.26
3898,4.74
3910,5.23
3922,5.68
3934,6.02
3946,6.17
3958,6.12
3970,5.92
3982,5.62
3994,5.32
4006,5.1
4018,5.03
4030,5.14
4041,5.46
4052,5.93
4064,6.41
4076,6.77
4088,6.89
4100,6.72
4112,6.31
4124,5.76
4136,5.12
4148,4.45
4160,3.79
4172,3.17
4184,2.68
4196,2.39
4208,2.33
4220,2.45
4231,2.61
4242,2.68
4254,2.59
4266,2.34
4278,2.01
4290,1.67
4302,1.32
4314,0.92
4326,0.4
4338,-0.23
4350,-0.93
4362,-1.6
4374,-2.18
4386,-2.67
4398,-3.12
4410,-3.61
4421,-4.18
4432,-4.82
4444,-5.49
4456,-6.1
4468,-6.63
4480,-7.04
4492,-7.34
4504,-7.55
4516,-7.73
4528,-7.96
4540,-8.37
4552,-9.03
4564,-9.92
4576,-10.86
4588,-11.57
4600,-11.74
4611,-11.2
4622,-9.91
4634,-8.04
4646,-5.87
4658,-3.67
4670,-1.64
4682,0.12
4694,1.54
4706,2.62
4718,3.38
4730,3.85
4742,4.13
4754,4.28
4766,4.38
4778,4.46
4790,4.51
4801,4.5
4812,4.42
4824,4.3
4836,4.18
4848,4.15
4860,4.26
4872,4.5
4884,4.78
4896,5.0
4908,5.04
4920,4.82
4932,4.37
4944,3.8
4956,3.29
4968,3.01
4980,3.03
4991,3.32
5002,3.73
5014,4.07
5026,4.18
5038,4.02
5050,3.65
5062,3.15
5074,2.58
5086,1.97
5098,1.31
5110,0.64
5122,0.04
5134,-0.38
5146,-0.54
5158,-0.49
5170,-0.39
5181,-0.43
5192,-0.75
5204,-1.35
5216,-2.12
5228,-2.91
5240,-3.6
5252,-4.15
5264,-4.6
5276,-5.03
5288,-5.51
5300,-6.13
5312,-6.99
5324,-8.16
5336,-9.64
5348,-11.27
5360,-12.75
5371,-13.68
5382,-13.73
5394,-12.73
5406,-10.77
5418,-8.11
5430,-5.11
5442,-2.15
5454,0.48
5466,2.61
5478,4.16
5490,5.18
5502,5.79
5514,6.15
5526,6.4
5538,6.66
5550,6.93
5561,7.18
5572,7.37
5584,7.46
5596,7.48
5608,7.47
5620,7.48
5632,7.54
5644,7.68
5656,7.88
5668,8.15
5680,8.44
5692,8.67
5704,8.76
5716,8.6
5728,8.14
5740,7.44
5751,6.59
5762,5.74
5774,4.99
5786,4.33
5798,3.7
5810,3.02
5822,2.26
5834,1.5
5846,0.82
5858,0.32
5870,0.03
5882,-0.11
5894,-0.18
5906,-0.29
5918,-0.49
5930,-0.79
5941,-1.19
5952,-1.68
5964,-2.23
5976,-2.77
5988,-3.24
6000,-3.61
6012,-3.88
6024,-4.13
6036,-4.45
6048,-4.89
6060,-5.39
6072,-5.88
6084,-6.26
6096,-6.48
6108,-6.57
6120,-6.64
6131,-6.87
6142,-7.41
6154,-8.34
6166,-9.59
6178,-10.99
6190,-12.24
6202,-12.98
6214,-12.95
6226,-11.99
6238,-10.16
6250,-7.64
6262,-4.75
6274,-1.81
6286,0.89
6298,3.14
6310,4.83
6321,5.95
6332,6.6
6344,6.95
6356,7.14
6368,7.29
6380,7.42
6392,7.48
6404,7.44
6416,7.27
6428,7.02
6440,6.77
6452,6.63
6464,6.65
6476,6.87
6488,7.2
6500,7.55
6511,7.79
6522,7.81
6534,7.6
6546,7.2
6558,6.76
6570,6.41
6582,6.21
6594,6.11
6606,5.97
6618,5.63
6630,4.97
6642,4.06
6654,3.05
6666,2.14
6678,1.47
6690,1.06
6701,0.79
6712,0.53
6724,0.18
6736,-0.16
6748,-0.35
6760,-0.28
6772,0.05
6784,0.45
6796,0.72
6808,0.69
6820,0.35
6832,-0.18
6844,-0.75
6856,-1.23
6868,-1.62
6880,-1.93
6891,-2.2
6902,-2.43
6914,-2.64
6926,-2.86
6938,-3.16
6950,-3.63
6962,-4.28
6974,-5.04
6986,-5.8
6998,-6.42
7010,-6.86
7022,-7.13
7034,-7.32
7046,-7.58
7058,-8.04
7070,-8.76
7081,-9.67
7092,-10.58
7104,-11.18
7116,-11.15
7128,-10.26
7140,-8.48
7152,-6.03
7164,-3.27
7176,-0.67
7188,1.46
7200,2.97
7212,3.89
7224,4.4
7236,4.69
7248,4.9
7260,5.1
7271,5.3
7282,5.49
7294,5.62
7306,5.65
7318,5.55
7330,5.31
7342,4.96
7354,4.57
7366,4.26
7378,4.11
7390,4.17
7402,4.4
7414,4.7
7426,4.93
7438,4.98
7450,4.83
7461,4.5
7472,4.07
7484,3.61
7496,3.16
7508,2.74
7520,2.39
7532,2.11
7544,1.92
7556,1.79
7568,1.62
7580,1.3
7592,0.78
7604,0.08
7616,-0.66
7628,-1.3
7640,-1.7
7651,-1.83
7662,-1.74
7674,-1.59
7686,-1.48
7698,-1.51
7710,-1.72
7722,-2.11
7734,-2.64
7746,-3.28
7758,-3.99
7770,-4.69
7782,-5.32
7794,-5.82
7806,-6.19
7818,-6.45
7830,-6.65
7841,-6.9
7852,-7.24
7864,-7.73
7876,-8.34
7888,-9.0
7900,-9.58
7912,-9.91
7924,-9.8
7936,-9.1
7948,-7.76
7960,-5.84
7972,-3.54
7984,-1.12
7996,1.12
8008,2.96
8020,4.29
8031,5.15
8042,5.66
8054,5.96
8066,6.16
8078,6.3
8090,6.34
8102,6.24
8114,6.0
8126,5.65
8138,5.26
8150,4.89
8162,4.62
8174,4.54
8186,4.69
8198,5.1
8210,5.71
8221,6.36
8232,6.83
8244,6.96
8256,6.66
8268,6.02
8280,5.2
8292,4.39
8304,3.71
8316,3.17
8328,2.75
8340,2.42
8352,2.15
8364,1.92
8376,1.7
8388,1.41
8400,1.03
8411,0.59
8422,0.15
8434,-0.18
8446,-0.34
8458,-0.38
8470,-0.42
8482,-0.56
8494,-0.88
8506,-1.34
8518,-1.87
8530,-2.42
8542,-2.96
8554,-3.51
8566,-4.09
8578,-4.64
8590,-5.07
8601,-5.3
8612,-5.35
8624,-5.31
8636,-5.33
8648,-5.5
8660,-5.84
8672,-6.22
8684,-6.55
8696,-6.79
8708,-7.05
8720,-7.5
8732,-8.27
8744,-9.32
8756,-10.43
8768,-11.22
8780,-11.33
8791,-10.54
8802,-8.88
8814,-6.59
8826,-4.0
8838,-1.44
8850,0.83
8862,2.67
8874,4.0
8886,4.82
8898,5.22
8910,5.32
8922,5.31
8934,5.4
8946,5.7
8958,6.18
8970,6.71
8981,7.08
8992,7.13
9004,6.86
9016,6.4
9028,5.98
9040,5.76
9052,5.82
9064,6.09
9076,6.43
9088,6.69
9100,6.76
9112,6.63
9124,6.35
9136,5.95
9148,5.51
9160,5.06
9171,4.64
9182,4.3
9194,4.07
9206,3.89
9218,3.67
9230,3.32
9242,2.79
9254,2.13
9266,1.46
9278,0.92
9290,0.62
9302,0.58
9314,0.69
9326,0.87
9338,0.98
9350,0.99
9361,0.9
9372,0.72
9384,0.46
9396,0.09
9408,-0.41
9420,-1.1
9432,-1.96
9444,-2.96
9456,-4.03
9468,-5.1
9480,-6.06
9492,-6.86
9504,-7.45
9516,-7.88
9528,-8.24
9540,-8.65
9551,-9.25
9562,-10.15
9574,-11.32
9586,-12.64
9598,-13.87
9610,-14.71
9622,-14.92
9634,-14.36
9646,-13.05
9658,-11.18
9670,-8.98
9682,-6.68
9694,-4.43
9706,-2.32
9718,-0.33
9730,1.52
9741,3.22
9752,4.74
9764,5.98
9776,6.86
9788,7.32
9800,7.35
9812,7.02
9824,6.43
9836,5.8
9848,5.29
9860,5.07
9872,5.19
9884,5.59
9896,6.15
9908,6.7
9920,7.13
9931,7.37
9942,7.46
9954,7.42
9966,7.3
9978,7.1
9990,6.81
10002,6.41
10014,5.91
10026,5.36
10038,4.77
10050,4.17
10062,3.55
10074,2.88
10086,2.14
10098,1.29
10110,0.34
10121,-0.68
10132,-1.73
10144,-2.72
10156,-3.58
10168,-4.23
10180,-4.66
10192,-4.87
10204,-4.97
10216,-5.06
10228,-5.25
10240,-5.59
10252,-6.06
10264,-6.58
10276,-7.05
10288,-7.43
10300,-7.72
10311,-8.03
10322,-8.51
10334,-9.27
10346,-10.38
10358,-11.77
10370,-13.21
10382,-14.43
10394,-15.1
10406,-14.97
10418,-13.95
10430,-12.08
10442,-9.51
10454,-6.47
10466,-3.21
10478,0.02
10490,2.98
10501,5.48
10512,7.36
10524,8.55
10536,9.09
10548,9.12
10560,8.81
10572,8.37
10584,7.96
10596,7.66
10608,7.51
10620,7.48
10632,7.52
10644,7.56
10656,7.58
10668,7.61
10680,7.71
10691,7.95
10702,8.38
10714,8.96
10726,9.57
10738,10.06
10750,10.29
10762,10.19
10774,9.78
10786,9.12
10798,8.27
10810,7.32
10822,6.32
10834,5.31
10846,4.32
10858,3.39
10870,2.53
10881,1.7
10892,0.88
10904,0.08
10916,-0.67
10928,-1.26
10940,-1.62
10952,-1.77
10964,-1.8
10976,-1.85
10988,-2.09
11000,-2.55
11012,-3.18
11024,-3.81
11036,-4.26
11048,-4.42
11060,-4.34
11071,-4.17
11082,-4.16
11094,-4.46
11106,-5.1
11118,-6.0
11130,-6.97
11142,-7.84
11154,-8.55
11166,-9.18
11178,-9.87
11190,-10.81
11202,-12.06
11214,-13.56
11226,-15.07
11238,-16.27
11250,-16.78
11261,-16.31
11272,-14.74
11284,-12.13
11296,-8.75
11308,-4.99
11320,-1.23
11332,2.16
11344,4.98
11356,7.1
11368,8.55
11380,9.44
11392,9.94
11404,10.23
11416,10.43
11428,10.59
11440,10.62
11451,10.47
11462,10.09
11474,9.54
11486,8.94
11498,8.41
11510,8.04
11522,7.81
11534,7.7
11546,7.64
11558,7.62
11570,7.67
11582,7.77
11594,7.83
11606,7.68
11618,7.18
11630,6.28
11641,5.08
11652,3.78
11664,2.62
11676,1.75
11688,1.19
11700,0.83
11712,0.53
11724,0.18
11736,-0.27
11748,-0.79
11760,-1.35
11772,-1.91
11784,-2.45
11796,-2.96
11808,-3.41
11820,-3.79
11831,-4.1
11842,-4.39
11854,-4.69
11866,-5.04
11878,-5.46
11890,-5.95
11902,-6.52
11914,-7.17
11926,-7.92
11938,-8.82
11950,-9.89
11962,-11.11
11974,-12.41
11986,-13.74
11998,-15.02
12010,-16.17
12021,-17.08
12032,-17.57
12044,-17.36
12056,-16.22
12068,-14.03
12080,-10.88
12092,-7.09
12104,-3.12
12116,0.6
12128,3.76
12140,6.25
12152,8.11
12164,9.43
12176,10.3
12188,10.74
12200,10.82
12211,10.67
12222,10.45
12234,10.3
12246,10.28
12258,10.3
12270,10.26
12282,10.05
12294,9.68
12306,9.26
12318,8.94
12330,8.84
12342,8.95
12354,9.16
12366,9.37
12378,9.46
12390,9.42
12401,9.24
12412,8.91
12424,8.46
12436,7.86
12448,7.16
12460,6.42
12472,5.7
12484,5.03
12496,4.42
12508,3.83
12520,3.21
12532,2.55
12544,1.82
12556,1.06
12568,0.31
12580,-0.36
12591,-0.9
12602,-1.33
12614,-1.68
12626,-2.03
12638,-2.45
12650,-2.96
12662,-3.53
12674,-4.13
12686,-4.74
12698,-5.43
12710,-6.24
12722,-7.23
12734,-8.33
12746,-9.44
12758,-10.41
12770,-11.16
12781,-11.69
12792,-12.12
12804,-12.62
12816,-13.37
12828,-14.42
12840,-15.68
12852,-16.9
12864,-17.7
12876,-17.72
12888,-16.67
12900,-14.51
12912,-11.4
12924,-7.7
12936,-3.84
12948,-0.18
12960,3.09
12971,5.84
12982,8.08
12994,9.8
13006,10.99
13018,11.63
13030,11.76
13042,11.5
13054,10.99
13066,10.41
13078,9.86
13090,9.4
13102,9.02
13114,8.71
13126,8.47
13138,8.36
13150,8.42
13161,8.68
13172,9.11
13184,9.63
13196,10.13
13208,10.48
13220,10.57
13232,10.37
13244,9.91
13256,9.27
13268,8.51
13280,7.64
13292,6.67
13304,5.62
13316,4.53
13328,3.54
13340,2.76
13351,2.25
13362,1.96
13374,1.74
13386,1.47
13398,1.05
13410,0.51
13422,-0.07
13434,-0.6
13446,-1.06
13458,-1.53
13470,-2.08
13482,-2.74
13494,-3.48
13506,-4.25
13518,-4.95
13530,-5.55
13541,-6.05
13552,-6.49
13564,-6.92
13576,-7.38
13588,-7.91
13600,-8.55
13612,-9.3
13624,-10.15
13636,-11.04
13648,-11.87
13660,-12.57
13672,-13.13
13684,-13.64
13696,-14.23
13708,-15.04
13720,-16.06
13731,-17.08
13742,-17.72
13754,-17.57
13766,-16.31
13778,-13.87
13790,-10.43
13802,-6.34
13814,-2.02
13826,2.17
13838,5.98
13850,9.21
13862,11.73
13874,13.45
13886,14.33
13898,14.45
13910,13.95
13921,12.99
13932,11.73
13944,10.32
13956,8.91
13968,7.65
13980,6.69
13992,6.1
14004,5.84
14016,5.81
14028,5.88
14040,6.0
14052,6.22
14064,6.63
14076,7.31
14088,8.21
14100,9.13
14111,9.81
14122,10.01
14134,9.67
14146,8.87
14158,7.8
14170,6.63
14182,5.45
14194,4.28
14206,3.1
14218,1.92
14230,0.82
14242,-0.1
14254,-0.76
14266,-1.14
14278,-1.29
14290,-1.25
14301,-1.08
14312,-0.82
14324,-0.55
14336,-0.38
14348,-0.43
14360,-0.79
14372,-1.43
14384,-2.17
14396,-2.84
14408,-3.27
14420,-3.46
14432,-3.55
14444,-3.74
14456,-4.18
14468,-4.92
14480,-5.93
14491,-7.14
14502,-8.48
14514,-9.9
14526,-11.3
14538,-12.45
14550,-13.0
14562,-12.56
14574,-10.87
14586,-7.98
14598,-4.22
14610,-0.15
14622,3.64
14634,6.72
14646,8.93
14658,10.32
14670,11.06
14681,11.36
14692,11.37
14704,11.17
14716,10.8
14728,10.29
14740,9.64
14752,8.86
14764,7.97
14776,7.07
14788,6.26
14800,5.62
14812,5.21
14824,5.0
14836,4.91
14848,4.85
14860,4.78
14871,4.66
14882,4.48
14894,4.2
14906,3.75
14918,3.08
14930,2.16
14942,1.04
14954,-0.15
14966,-1.3
14978,-2.31
14990,-3.15
15002,-3.85
15014,-4.5
15026,-5.15
15038,-5.85
15050,-6.58
15061,-7.34
15072,-8.07
15084,-8.75
15096,-9.35
15108,-9.83
15120,-10.17
15132,-10.37
15144,-10.5
15156,-10.69
15168,-11.1
15180,-11.84
15192,-12.94
15204,-14.24
15216,-15.43
15228,-16.13
15240,-15.97
15251,-14.75
15262,-12.5
15274,-9.49
15286,-6.14
15298,-2.88
15310,-0.01
15322,2.38
15334,4.38
15346,6.15
15358,7.77
15370,9.25
15382,10.46
15394,11.3
15406,11.73
15418,11.77
15430,11.49
15441,10.95
15452,10.22
15464,9.38
15476,8.57
15488,7.99
15500,7.8
15512,8.01
15524,8.45
15536,8.83
15548,8.89
15560,8.51
15572,7.78
15584,6.87
15596,5.95
15608,5.06
15620,4.12
15631,3.04
15642,1.8
15654,0.49
15666,-0.76
15678,-1.84
15690,-2.74
15702,-3.55
15714,-4.36
15726,-5.25
15738,-6.27
15750,-7.4
15762,-8.64
15774,-9.96
15786,-11.25
15798,-12.33
15810,-12.93
15821,-12.8
15832,-11.81
15844,-9.96
15856,-7.44
15868,-4.54
15880,-1.52
15892,1.39
15904,4.01
15916,6.25
15928,8.01
15940,9.27
15952,10.05
15964,10.41
15976,10.48
15988,10.4
16000,10.24
16011,10.02
16022,9.69
16034,9.22
16046,8.62
16058,7.94
16070,7.28
16082,6.74
16094,6.39
16106,6.21
16118,6.19
16130,6.27
16142,6.42
16154,6.6
16166,6.76
16178,6.84
16190,6.77
16201,6.51
16212,6.08
16224,5.53
16236,4.94
16248,4.36
16260,3.82
16272,3.28
16284,2.68
16296,1.98
16308,1.16
16320,0.26
16332,-0.65
16344,-1.45
16356,-2.06
16368,-2.41
16380,-2.5
16391,-2.42
16402,-2.28
16414,-2.23
16426,-2.38
16438,-2.76
16450,-3.38
16462,-4.17
16474,-5.04
16486,-5.88
16498,-6.61
16510,-7.17
16522,-7.56
16534,-7.8
16546,-7.94
16558,-7.97
16570,-7.94
16581,-7.86
16592,-7.79
16604,-7.83
16616,-8.03
16628,-8.47
16640,-9.22
16652,-10.26
16664,-11.54
16676,-12.85
16688,-13.87
16700,-14.19
16712,-13.45
16724,-11.52
16736,-8.56
16748,-5.02
16760,-1.43
16771,1.74
16782,4.24
16794,6.05
16806,7.27
16818,8.06
16830,8.53
16842,8.76
16854,8.82
16866,8.81
16878,8.77
16890,8.71
16902,8.56
16914,8.25
16926,7.73
16938,7.02
16950,6.28
16961,5.68
16972,5.41
16984,5.54
16996,6.02
17008,6.66
17020,7.18
17032,7.38
17044,7.12
17056,6.43
17068,5.5
17080,4.58
17092,3.92
17104,3.63
17116,3.65
17128,3.78
17140,3.75
17151,3.34
17162,2.52
17174,1.43
17186,0.33
17198,-0.54
17210,-1.08
17222,-1.37
17234,-1.6
17246,-1.97
17258,-2.56
17270,-3.28
17282,-3.96
17294,-4.47
17306,-4.75
17318,-4.92
17330,-5.14
17341,-5.58
17352,-6.27
17364,-7.14
17376,-8.03
17388,-8.78
17400,-9.29
17412,-9.6
17424,-9.82
17436,-10.1
17448,-10.56
17460,-11.24
17472,-12.08
17484,-12.95
17496,-13.61
17508,-13.83
17520,-13.38
17531,-12.18
17542,-10.26
17554,-7.83
17566,-5.18
17578,-2.63
17590,-0.4
17602,1.39
17614,2.73
17626,3.7
17638,4.36
17650,4.77
17662,4.95
17674,4.98
17686,4.94
17698,4.9
17710,4.91
17721,4.95
17732,4.98
17744,4.97
17756,4.9
17768,4.78
17780,4.66
17792,4.62
17804,4.69
17816,4.88
17828,5.19
17840,5.59
17852,6.02
17864,6.38
17876,6.56
17888,6.44
17900,5.98
17911,5.22
17922,4.29
17934,3.34
17946,2.46
17958,1.68
17970,0.93
17982,0.16
17994,-0.66
18006,-1.48
18018,-2.2
18030,-2.72
18042,-3.05
18054,-3.25
18066,-3.43
18078,-3.65
18090,-3.93
18101,-4.21
18112,-4.4
18124,-4.51
18136,-4.55
18148,-4.62
18160,-4.78
18172,-5.07
18184,-5.45
18196,-5.87
18208,-6.29
18220,-6.75
18232,-7.33
18244,-8.13
18256,-9.12
18268,-10.16
18280,-10.94
18291,-11.13
18302,-10.53
18314,-9.08
18326,-7.0
18338,-4.59
18350,-2.19
18362,-0.01
18374,1.84
18386,3.41
18398,4.7
18410,5.74
18422,6.48
18434,6.88
18446,6.96
18458,6.81
18470,6.54
18481,6.29
18492,6.11
18504,6.04
18516,6.02
18528,6.05
18540,6.06
18552,6.05
18564,6.01
18576,5.94
18588,5.88
18600,5.85
18612,5.84
18624,5.83
18636,5.77
18648,5.63
18660,5.34
18671,4.95
18682,4.49
18694,4.03
18706,3.6
18718,3.2
18730,2.79
18742,2.35
18754,1.85
18766,1.3
18778,0.7
18790,0.06
18802,-0.58
18814,-1.19
18826,-1.69
18838,-2.05
18850,-2.28
18861,-2.41
18872,-2.52
18884,-2.67
18896,-2.9
18908,-3.21
18920,-3.61
18932,-4.11
18944,-4.7
18956,-5.37
18968,-6.04
18980,-6.65
18992,-7.14
19004,-7.53
19016,-7.87
19028,-8.22
19040,-8.64
19051,-9.12
19062,-9.64
19074,-10.17
19086,-10.65
19098,-10.98
19110,-11.01
19122,-10.56
19134,-9.5
19146,-7.76
19158,-5.5
19170,-2.96
19182,-0.46
19194,1.74
19206,3.5
19218,4.79
19230,5.64
19241,6.12
19252,6.27
19264,6.12
19276,5.73
19288,5.21
19300,4.71
19312,4.32
19324,4.14
19336,4.14
19348,4.3
19360,4.58
19372,4.97
19384,5.47
19396,6.02
19408,6.55
19420,6.91
19431,7.01
19442,6.79
19454,6.28
19466,5.54
19478,4.68
19490,3.73
19502,2.74
19514,1.73
19526,0.78
19538,-0.02
19550,-0.57
19562,-0.86
19574,-0.93
19586,-0.88
19598,-0.85
19610,-0.95
19621,-1.28
19632,-1.81
19644,-2.45
19656,-3.08
19668,-3.56
19680,-3.8
19692,-3.82
19704,-3.71
19716,-3.61
19728,-3.64
19740,-3.88
19752,-4.33
19764,-4.95
19776,-5.66
19788,-6.39
19800,-7.05
19811,-7.57
19822,-7.92
19834,-8.13
19846,-8.28
19858,-8.49
19870,-8.88
19882,-9.51
19894,-10.36
19906,-11.27
19918,-12.02
19930,-12.39
19942,-12.18
19954,-11.27
19966,-9.72
19978,-7.64
19990,-5.27
20001,-2.82
20012,-0.5
20024,1.55
20036,3.2
20048,4.38
20060,5.06
20072,5.24
20084,5.0
20096,4.47
20108,3.81
20120,3.16
20132,2.62
20144,2.22
20156,1.99
20168,1.96
20180,2.13
20191,2.5
20202,3.02
20214,3.58
20226,4.07
20238,4.46
20250,4.72
20262,4.89
20274,5.01
20286,5.06
20298,5.0
20310,4.8
20322,4.47
20334,4.07
20346,3.68
20358,3.3
20370,2.88
20381,2.34
20392,1.64
20404,0.87
20416,0.17
20428,-0.32
20440,-0.56
20452,-0.66
20464,-0.78
20476,-1.08
20488,-1.54
20500,-2.08
20512,-2.54
20524,-2.85
20536,-3.06
20548,-3.31
20560,-3.74
20571,-4.38
20582,-5.2
20594,-6.07
20606,-6.91
20618,-7.73
20630,-8.56
20642,-9.48
20654,-10.46
20666,-11.37
20678,-11.99
20690,-12.05
20702,-11.3
20714,-9.65
20726,-7.18
20738,-4.18
20750,-1.05
20761,1.79
20772,4.07
20784,5.73
20796,6.88
20808,7.71
20820,8.37
20832,8.9
20844,9.24
20856,9.33
20868,9.19
20880,8.87
20892,8.55
20904,8.34
20916,8.27
20928,8.31
20940,8.37
20951,8.39
20962,8.4
20974,8.48
20986,8.69
20998,8.98
