seconds,BVP
6,29.73
18,27.65
30,25.29
42,22.87
54,20.52
66,18.16
78,15.61
90,12.59
101,8.97
112,4.77
124,0.23
136,-4.27
148,-8.38
160,-11.94
172,-15.04
184,-18.07
196,-21.61
208,-26.23
220,-32.24
232,-39.55
244,-47.47
256,-54.85
268,-60.3
280,-62.59
291,-61.0
302,-55.56
314,-47.01
326,-36.58
338,-25.6
350,-15.11
362,-5.68
374,2.57
386,9.83
398,16.32
410,22.14
422,27.16
434,31.2
446,34.09
458,35.87
470,36.76
481,37.11
492,37.25
504,37.43
516,37.75
528,38.2
540,38.72
552,39.23
564,39.67
576,39.99
588,40.11
600,39.9
612,39.19
624,37.79
636,35.64
648,32.83
660,29.64
671,26.44
682,23.59
694,21.19
706,19.09
718,16.9
730,14.22
742,10.8
754,6.69
766,2.21
778,-2.24
790,-6.31
802,-9.91
814,-13.21
826,-16.53
838,-20.31
850,-24.88
861,-30.43
872,-36.9
884,-43.89
896,-50.62
908,-56.03
920,-59.01
932,-58.69
944,-54.74
956,-47.55
968,-38.11
980,-27.74
992,-17.6
1004,-8.47
1016,-0.57
1028,6.26
1040,12.33
1051,17.88
1062,22.94
1074,27.39
1086,31.03
1098,33.76
1110,35.65
1122,36.92
1134,37.85
1146,38.7
1158,39.56
1170,40.4
1182,41.07
1194,41.45
1206,41.53
1218,41.44
1230,41.33
1241,41.24
1252,41.08
1264,40.59
1276,39.47
1288,37.54
1300,34.85
1312,31.59
1324,28.08
1336,24.59
1348,21.26
1360,18.13
1372,15.15
1384,12.19
1396,9.17
1408,6.0
1420,2.64
1431,-0.86
1442,-4.39
1454,-7.8
1466,-10.97
1478,-13.91
1490,-16.81
1502,-19.92
1514,-23.51
1526,-27.79
1538,-32.82
1550,-38.52
1562,-44.65
1574,-50.69
1586,-55.86
1598,-59.19
1610,-59.7
1621,-56.79
1632,-50.46
1644,-41.41
1656,-30.85
1668,-20.1
1680,-10.22
1692,-1.76
1704,5.26
1716,11.08
1728,16.01
1740,20.19
1752,23.61
1764,26.2
1776,27.93
1788,28.93
1800,29.44
1811,29.8
1822,30.25
1834,30.92
1846,31.73
1858,32.47
1870,32.93
1882,32.99
1894,32.64
1906,32.03
1918,31.33
1930,30.62
1942,29.89
1954,28.98
1966,27.68
1978,25.85
1990,23.5
2001,20.81
2012,18.06
2024,15.54
2036,13.37
2048,11.47
2060,9.6
2072,7.52
2084,5.05
2096,2.19
2108,-0.9
2120,-4.04
2132,-7.11
2144,-10.11
2156,-13.12
2168,-16.25
2180,-19.57
2191,-23.08
2202,-26.78
2214,-30.73
2226,-35.06
2238,-39.86
2250,-44.96
2262,-49.79
2274,-53.43
2286,-54.82
2298,-53.12
2310,-48.08
2322,-40.18
2334,-30.51
2346,-20.42
2358,-11.0
2370,-2.9
2381,3.77
2392,9.2
2404,13.6
2416,17.1
2428,19.67
2440,21.28
2452,22.04
2464,22.2
2476,22.11
2488,22.06
2500,22.22
2512,22.57
2524,22.95
2536,23.26
2548,23.43
2560,23.51
2571,23.6
2582,23.74
2594,23.89
2606,23.9
2618,23.55
2630,22.66
2642,21.11
2654,18.94
2666,16.32
2678,13.49
2690,10.7
2702,8.11
2714,5.75
2726,3.49
2738,1.12
2750,-1.58
2761,-4.69
2772,-8.13
2784,-11.64
2796,-14.87
2808,-17.58
2820,-19.81
2832,-21.79
2844,-23.99
2856,-26.84
2868,-30.65
2880,-35.43
2892,-40.86
2904,-46.24
2916,-50.6
2928,-52.9
2940,-52.31
2951,-48.52
2962,-41.89
2974,-33.35
2986,-24.12
2998,-15.28
3010,-7.51
3022,-1.01
3034,4.31
3046,8.63
3058,12.06
3070,14.62
3082,16.34
3094,17.36
3106,17.92
3118,18.26
3130,18.58
3141,18.94
3152,19.31
3164,19.62
3176,19.8
3188,19.84
3200,19.81
3212,19.81
3224,19.95
3236,20.23
3248,20.53
3260,20.6
3272,20.12
3284,18.87
3296,16.82
3308,14.11
3320,11.08
3331,8.1
3342,5.44
3354,3.2
3366,1.28
3378,-0.59
3390,-2.73
3402,-5.4
3414,-8.66
3426,-12.36
3438,-16.15
3450,-19.67
3462,-22.67
3474,-25.17
3486,-27.46
3498,-30.0
3510,-33.25
3521,-37.5
3532,-42.72
3544,-48.5
3556,-54.04
3568,-58.36
3580,-60.39
3592,-59.39
3604,-55.15
3616,-48.09
3628,-39.24
3640,-29.81
3652,-20.9
3664,-13.2
3676,-6.86
3688,-1.68
3700,2.62
3711,6.23
3722,9.16
3734,11.31
3746,12.68
3758,13.39
3770,13.68
3782,13.79
3794,13.89
3806,13.99
3818,14.0
3830,13.87
3842,13.63
3854,13.41
3866,13.4
3878,13.71
3890,14.33
3901,15.05
3912,15.55
3924,15.47
3936,14.62
3948,13.01
3960,10.89
3972,8.66
3984,6.68
3996,5.12
4008,3.92
4020,2.79
4032,1.4
4044,-0.5
4056,-2.95
4068,-5.79
4080,-8.75
4091,-11.57
4102,-14.13
4114,-16.46
4126,-18.73
4138,-21.23
4150,-24.31
4162,-28.28
4174,-33.27
4186,-39.11
4198,-45.23
4210,-50.65
4222,-54.22
4234,-54.96
4246,-52.38
4258,-46.69
4270,-38.68
4281,-29.48
4292,-20.19
4304,-11.55
4316,-3.9
4328,2.75
4340,8.52
4352,13.51
4364,17.75
4376,21.21
4388,23.81
4400,25.58
4412,26.62
4424,27.09
4436,27.17
4448,26.98
4460,26.58
4471,26.01
4482,25.32
4494,24.62
4506,24.07
4518,23.82
4530,23.9
4542,24.19
4554,24.42
4566,24.26
4578,23.5
4590,22.07
4602,20.13
4614,17.9
4626,15.67
4638,13.57
4650,11.58
4661,9.52
4672,7.15
4684,4.34
4696,1.07
4708,-2.43
4720,-5.85
4732,-8.91
4744,-11.48
4756,-13.7
4768,-15.91
4780,-18.54
4792,-21.94
4804,-26.29
4816,-31.52
4828,-37.23
4840,-42.78
4851,-47.29
4862,-49.82
4874,-49.65
4886,-46.45
4898,-40.5
4910,-32.58
4922,-23.75
4934,-15.01
4946,-7.06
4958,-0.18
4970,5.69
4982,10.7
4994,15.01
5006,18.61
5018,21.44
5030,23.43
5041,24.64
5052,25.23
5064,25.42
5076,25.41
5088,25.32
5100,25.17
5112,24.92
5124,24.58
5136,24.24
5148,23.99
5160,23.97
5172,24.16
5184,24.41
5196,24.4
5208,23.84
5220,22.5
5231,20.44
5242,17.89
5254,15.22
5266,12.73
5278,10.57
5290,8.63
5302,6.7
5314,4.53
5326,2.03
5338,-0.74
5350,-3.62
5362,-6.42
5374,-9.07
5386,-11.6
5398,-14.19
5410,-17.01
5421,-20.26
5432,-24.02
5444,-28.3
5456,-32.97
5468,-37.7
5480,-41.9
5492,-44.8
5504,-45.66
5516,-43.95
5528,-39.59
5540,-32.97
5552,-24.94
5564,-16.43
5576,-8.3
5588,-1.07
5600,5.02
5611,10.0
5622,13.94
5634,16.92
5646,18.97
5658,20.15
5670,20.63
5682,20.62
5694,20.41
5706,20.24
5718,20.22
5730,20.39
5742,20.68
5754,20.99
5766,21.24
5778,21.38
5790,21.38
5801,21.19
5812,20.77
5824,20.05
5836,18.95
5848,17.42
5860,15.5
5872,13.3
5884,11.01
5896,8.77
5908,6.63
5920,4.48
5932,2.18
5944,-0.41
5956,-3.27
5968,-6.22
5980,-9.06
5991,-11.68
6002,-14.18
6014,-16.82
6026,-19.94
6038,-23.82
6050,-28.55
6062,-33.92
6074,-39.4
6086,-44.17
6098,-47.33
6110,-48.06
6122,-45.91
6134,-40.94
6146,-33.75
6158,-25.28
6170,-16.56
6181,-8.38
6192,-1.16
6204,5.0
6216,10.27
6228,14.82
6240,18.73
6252,21.96
6264,24.43
6276,26.07
6288,26.94
6300,27.21
6312,27.13
6324,26.94
6336,26.77
6348,26.7
6360,26.72
6371,26.8
6382,26.94
6394,27.11
6406,27.22
6418,27.12
6430,26.61
6442,25.48
6454,23.66
6466,21.2
6478,18.33
6490,15.36
6502,12.6
6514,10.24
6526,8.32
6538,6.65
6550,4.92
6561,2.81
6572,0.12
6584,-3.16
6596,-6.85
6608,-10.63
6620,-14.18
6632,-17.3
6644,-19.95
6656,-22.32
6668,-24.75
6680,-27.67
6692,-31.47
6704,-36.35
6716,-42.16
6728,-48.32
6740,-53.84
6751,-57.56
6762,-58.5
6774,-56.14
6786,-50.63
6798,-42.73
6810,-33.51
6822,-24.06
6834,-15.13
6846,-7.08
6858,0.06
6870,6.43
6882,12.13
6894,17.16
6906,21.42
6918,24.79
6930,27.23
6941,28.8
6952,29.68
6964,30.1
6976,30.29
6988,30.45
7000,30.69
7012,31.03
7024,31.42
7036,31.78
7048,32.08
7060,32.26
7072,32.29
7084,32.09
7096,31.55
7108,30.57
7120,29.08
7131,27.15
7142,24.91
7154,22.53
7166,20.17
7178,17.88
7190,15.67
7202,13.46
7214,11.15
7226,8.67
7238,5.94
7250,2.94
7262,-0.31
7274,-3.74
7286,-7.21
7298,-10.59
7310,-13.82
7321,-16.9
7332,-19.91
7344,-22.98
7356,-26.26
7368,-29.92
7380,-34.11
7392,-38.92
7404,-44.25
7416,-49.69
7428,-54.49
7440,-57.68
7452,-58.34
7464,-55.94
7476,-50.55
7488,-42.81
7500,-33.72
7511,-24.31
7522,-15.38
7534,-7.33
7546,-0.28
7558,5.85
7570,11.14
7582,15.65
7594,19.37
7606,22.33
7618,24.55
7630,26.11
7642,27.07
7654,27.49
7666,27.47
7678,27.14
7690,26.72
7701,26.44
7712,26.52
7724,27.08
7736,28.05
7748,29.23
7760,30.32
7772,31.05
7784,31.22
7796,30.76
7808,29.67
7820,28.07
7832,26.12
7844,23.99
7856,21.84
7868,19.78
7880,17.87
7891,16.06
7902,14.28
7914,12.47
7926,10.58
7938,8.63
7950,6.61
7962,4.5
7974,2.21
7986,-0.28
7998,-3.0
8010,-5.91
8022,-8.92
8034,-11.95
8046,-14.96
8058,-17.96
8070,-21.0
8081,-24.23
8092,-27.82
8104,-31.97
8116,-36.78
8128,-42.01
8140,-47.02
8152,-50.84
8164,-52.4
8176,-50.94
8188,-46.29
8200,-38.97
8212,-29.97
8224,-20.4
8236,-11.21
8248,-2.96
8260,4.17
8271,10.17
8282,15.12
8294,19.1
8306,22.16
8318,24.43
8330,26.02
8342,27.1
8354,27.79
8366,28.18
8378,28.34
8390,28.36
8402,28.32
8414,28.33
8426,28.48
8438,28.77
8450,29.13
8461,29.44
8472,29.5
8484,29.12
8496,28.21
8508,26.77
8520,24.91
8532,22.79
8544,20.57
8556,18.33
8568,16.07
8580,13.72
8592,11.23
8604,8.58
8616,5.88
8628,3.26
8640,0.84
8651,-1.34
8662,-3.35
8674,-5.36
8686,-7.54
8698,-10.0
8710,-12.76
8722,-15.68
8734,-18.56
8746,-21.22
8758,-23.59
8770,-25.78
8782,-28.05
8794,-30.74
8806,-34.14
8818,-38.4
8830,-43.41
8841,-48.77
8852,-53.76
8864,-57.49
8876,-59.04
8888,-57.73
8900,-53.39
8912,-46.39
8924,-37.64
8936,-28.25
8948,-19.2
8960,-11.07
8972,-4.03
8984,2.03
8996,7.29
9008,11.82
9020,15.58
9031,18.46
9042,20.42
9054,21.54
9066,22.0
9078,22.1
9090,22.12
9102,22.26
9114,22.66
9126,23.28
9138,24.02
9150,24.73
9162,25.29
9174,25.63
9186,25.78
9198,25.8
9210,25.66
9221,25.28
9232,24.53
9244,23.33
9256,21.68
9268,19.75
9280,17.75
9292,15.87
9304,14.18
9316,12.59
9328,10.9
9340,8.93
9352,6.62
9364,4.02
9376,1.34
9388,-1.29
9400,-3.74
9411,-6.07
9422,-8.35
9434,-10.7
9446,-13.18
9458,-15.81
9470,-18.62
9482,-21.67
9494,-25.05
9506,-28.85
9518,-33.08
9530,-37.51
9542,-41.62
9554,-44.69
9566,-45.9
9578,-44.68
9590,-40.87
9601,-34.87
9612,-27.41
9624,-19.43
9636,-11.7
9648,-4.68
9660,1.46
9672,6.74
9684,11.16
9696,14.62
9708,16.99
9720,18.21
9732,18.42
9744,17.95
9756,17.27
9768,16.76
9780,16.61
9791,16.77
9802,17.04
9814,17.2
9826,17.15
9838,16.93
9850,16.7
9862,16.57
9874,16.51
9886,16.35
9898,15.85
9910,14.85
9922,13.34
9934,11.44
9946,9.4
9958,7.37
9970,5.45
9981,3.57
9992,1.58
10004,-0.7
10016,-3.39
10028,-6.48
10040,-9.82
10052,-13.17
10064,-16.32
10076,-19.15
10088,-21.72
10100,-24.21
10112,-26.9
10124,-30.03
10136,-33.81
10148,-38.26
10160,-43.19
10171,-48.09
10182,-52.14
10194,-54.42
10206,-54.09
10218,-50.76
10230,-44.69
10242,-36.66
10254,-27.75
10266,-18.95
10278,-10.91
10290,-3.85
10302,2.22
10314,7.38
10326,11.65
10338,14.99
10350,17.37
10361,18.86
10372,19.6
10384,19.78
10396,19.6
10408,19.23
10420,18.8
10432,18.44
10444,18.21
10456,18.11
10468,18.08
10480,18.03
10492,17.9
10504,17.71
10516,17.49
10528,17.26
10540,16.93
10551,16.29
10562,15.14
10574,13.38
10586,11.1
10598,8.57
10610,6.14
10622,4.01
10634,2.18
10646,0.42
10658,-1.61
10670,-4.16
10682,-7.28
10694,-10.79
10706,-14.35
10718,-17.62
10730,-20.41
10741,-22.79
10752,-25.07
10764,-27.67
10776,-31.01
10788,-35.3
10800,-40.48
10812,-46.15
10824,-51.63
10836,-56.05
10848,-58.49
10860,-58.19
10872,-54.77
10884,-48.36
10896,-39.62
10908,-29.59
10920,-19.37
10931,-9.89
10942,-1.64
10954,5.26
10966,10.95
10978,15.6
10990,19.35
11002,22.21
11014,24.21
11026,25.44
11038,26.08
11050,26.36
11062,26.45
11074,26.47
11086,26.45
11098,26.4
11110,26.31
11121,26.24
11132,26.19
11144,26.21
11156,26.28
11168,26.36
11180,26.33
11192,26.04
11204,25.32
11216,24.02
11228,22.12
11240,19.74
11252,17.1
11264,14.47
11276,12.03
11288,9.75
11300,7.48
11311,4.92
11322,1.87
11334,-1.71
11346,-5.65
11358,-9.62
11370,-13.29
11382,-16.46
11394,-19.18
11406,-21.73
11418,-24.55
11430,-28.09
11442,-32.65
11454,-38.25
11466,-44.44
11478,-50.4
11490,-54.98
11501,-57.07
11512,-55.9
11524,-51.32
11536,-43.86
11548,-34.56
11560,-24.6
11572,-14.96
11584,-6.21
11596,1.47
11608,8.14
11620,13.91
11632,18.77
11644,22.63
11656,25.45
11668,27.29
11680,28.36
11691,28.96
11702,29.4
11714,29.84
11726,30.33
11738,30.8
11750,31.16
11762,31.41
11774,31.59
11786,31.79
11798,32.04
11810,32.24
11822,32.2
11834,31.69
11846,30.54
11858,28.7
11870,26.3
11881,23.56
11892,20.78
11904,18.18
11916,15.88
11928,13.77
11940,11.59
11952,9.04
11964,5.92
11976,2.27
11988,-1.62
12000,-5.34
12012,-8.59
12024,-11.31
12036,-13.76
12048,-16.38
12060,-19.66
12071,-23.92
12082,-29.26
12094,-35.42
12106,-41.83
12118,-47.62
12130,-51.78
12142,-53.36
12154,-51.75
12166,-46.89
12178,-39.34
12190,-30.12
12202,-20.36
12214,-11.02
12226,-2.62
12238,4.7
12250,11.04
12261,16.46
12272,20.9
12284,24.16
12296,26.14
12308,26.92
12320,26.85
12332,26.44
12344,26.18
12356,26.32
12368,26.88
12380,27.62
12392,28.33
12404,28.82
12416,29.13
12428,29.35
12440,29.58
12451,29.81
12462,29.84
12474,29.42
12486,28.31
12498,26.45
12510,23.94
12522,21.07
12534,18.16
12546,15.42
12558,12.87
12570,10.36
12582,7.64
12594,4.54
12606,1.06
12618,-2.65
12630,-6.28
12641,-9.61
12652,-12.57
12664,-15.23
12676,-17.84
12688,-20.66
12700,-23.95
12712,-27.91
12724,-32.64
12736,-38.1
12748,-43.94
12760,-49.49
12772,-53.74
12784,-55.63
12796,-54.36
12808,-49.75
12820,-42.25
12831,-32.85
12842,-22.71
12854,-12.82
12866,-3.85
12878,3.96
12890,10.56
12902,15.99
12914,20.31
12926,23.57
12938,25.84
12950,27.3
12962,28.18
12974,28.69
12986,29.07
12998,29.43
13010,29.81
13021,30.17
13032,30.49
13044,30.76
13056,31.03
13068,31.35
13080,31.7
13092,31.96
13104,31.9
13116,31.28
13128,29.94
13140,27.9
13152,25.37
13164,22.61
13176,19.87
13188,17.24
13200,14.76
13211,12.35
13222,9.89
13234,7.33
13246,4.58
13258,1.61
13270,-1.53
13282,-4.75
13294,-7.96
13306,-11.01
13318,-13.88
13330,-16.69
13342,-19.66
13354,-23.13
13366,-27.34
13378,-32.34
13390,-37.81
13401,-43.01
13412,-46.92
13424,-48.53
13436,-47.17
13448,-42.73
13460,-35.73
13472,-27.13
13484,-17.97
13496,-9.13
13508,-1.1
13520,5.91
13532,11.88
13544,16.76
13556,20.46
13568,22.89
13580,24.12
13591,24.37
13602,24.03
13614,23.5
13626,23.08
13638,22.89
13650,22.92
13662,23.07
13674,23.29
13686,23.55
13698,23.87
13710,24.19
13722,24.4
13734,24.32
13746,23.75
13758,22.58
13770,20.86
13781,18.75
13792,16.48
13804,14.28
13816,12.24
13828,10.33
13840,8.37
13852,6.14
13864,3.43
13876,0.18
13888,-3.51
13900,-7.45
13912,-11.39
13924,-15.19
13936,-18.78
13948,-22.25
13960,-25.79
13971,-29.64
13982,-33.97
13994,-38.74
14006,-43.62
14018,-47.93
14030,-50.75
14042,-51.17
14054,-48.62
14066,-43.1
14078,-35.18
14090,-25.87
14102,-16.26
14114,-7.2
14126,0.87
14138,7.85
14150,13.83
14161,18.87
14172,22.92
14184,25.86
14196,27.66
14208,28.42
14220,28.47
14232,28.26
14244,28.2
14256,28.54
14268,29.23
14280,30.07
14292,30.76
14304,31.07
14316,30.95
14328,30.52
14340,29.94
14351,29.31
14362,28.58
14374,27.54
14386,25.92
14398,23.58
14410,20.55
14422,17.1
14434,13.65
14446,10.57
14458,8.05
14470,5.94
14482,3.91
14494,1.52
14506,-1.51
14518,-5.16
14530,-9.17
14541,-13.11
14552,-16.63
14564,-19.63
14576,-22.28
14588,-24.91
14600,-27.95
14612,-31.75
14624,-36.51
14636,-42.18
14648,-48.42
14660,-54.52
14672,-59.49
14684,-62.25
14696,-61.91
14708,-58.11
14720,-51.17
14731,-42.0
14742,-31.82
14754,-21.76
14766,-12.56
14778,-4.46
14790,2.64
14802,8.96
14814,14.62
14826,19.54
14838,23.53
14850,26.43
14862,28.27
14874,29.31
14886,29.92
14898,30.48
14910,31.23
14921,32.14
14932,33.1
14944,33.91
14956,34.46
14968,34.77
14980,34.98
14992,35.21
15004,35.49
15016,35.67
15028,35.47
15040,34.59
15052,32.82
15064,30.17
15076,26.92
15088,23.45
15100,20.19
15111,17.41
15122,15.1
15134,13.05
15146,10.92
15158,8.41
15170,5.38
15182,1.88
15194,-1.89
15206,-5.65
15218,-9.2
15230,-12.48
15242,-15.53
15254,-18.54
15266,-21.74
15278,-25.34
15290,-29.52
15301,-34.4
15312,-39.95
15324,-45.89
15336,-51.58
15348,-56.05
15360,-58.22
15372,-57.24
15384,-52.8
15396,-45.36
15408,-35.94
15420,-25.85
15432,-16.18
15444,-7.61
15456,-0.28
15468,6.0
15480,11.51
15491,16.39
15502,20.65
15514,24.16
15526,26.84
15538,28.71
15550,29.9
15562,30.6
15574,31.02
15586,31.31
15598,31.55
15610,31.79
15622,32.04
15634,32.32
15646,32.65
15658,32.99
15670,33.22
15681,33.2
15692,32.77
15704,31.85
15716,30.43
15728,28.59
15740,26.4
15752,23.96
15764,21.32
15776,18.54
15788,15.71
15800,12.94
15812,10.32
15824,7.87
15836,5.51
15848,3.09
15860,0.45
15871,-2.48
15882,-5.68
15894,-9.0
15906,-12.31
15918,-15.52
15930,-18.6
15942,-21.61
15954,-24.65
15966,-27.88
15978,-31.52
15990,-35.79
16002,-40.84
16014,-46.54
16026,-52.45
16038,-57.68
16050,-61.14
16061,-61.81
16072,-59.09
16084,-53.05
16096,-44.42
16108,-34.39
16120,-24.2
16132,-14.79
16144,-6.63
16156,0.25
16168,6.08
16180,11.09
16192,15.4
16204,18.99
16216,21.82
16228,23.92
16240,25.39
16251,26.42
16262,27.2
16274,27.84
16286,28.35
16298,28.73
16310,29.0
16322,29.2
16334,29.43
16346,29.78
16358,30.24
16370,30.72
16382,31.0
16394,30.86
16406,30.12
16418,28.73
16430,26.8
16441,24.51
16452,22.11
16464,19.75
16476,17.51
16488,15.39
16500,13.33
16512,11.28
16524,9.2
16536,7.02
16548,4.67
16560,2.07
16572,-0.84
16584,-4.05
16596,-7.43
16608,-10.74
16620,-13.76
16631,-16.33
16642,-18.52
16654,-20.61
16666,-22.98
16678,-26.0
16690,-29.9
16702,-34.69
16714,-40.14
16726,-45.77
16738,-50.85
16750,-54.46
16762,-55.71
16774,-53.93
16786,-49.02
16798,-41.45
16810,-32.2
16821,-22.49
16832,-13.37
16844,-5.47
16856,1.08
16868,6.48
16880,11.01
16892,14.91
16904,18.2
16916,20.85
16928,22.79
16940,24.07
16952,24.86
16964,25.35
16976,25.73
16988,26.1
17000,26.48
17011,26.85
17022,27.16
17034,27.42
17046,27.62
17058,27.73
17070,27.66
17082,27.33
17094,26.64
17106,25.57
17118,24.14
17130,22.42
17142,20.49
17154,18.45
17166,16.38
17178,14.37
17190,12.47
17201,10.68
17212,8.93
17224,7.1
17236,5.12
17248,2.95
17260,0.61
17272,-1.86
17284,-4.43
17296,-7.05
17308,-9.72
17320,-12.46
17332,-15.29
17344,-18.29
17356,-21.6
17368,-25.36
17380,-29.68
17391,-34.5
17402,-39.54
17414,-44.18
17426,-47.59
17438,-48.93
17450,-47.57
17462,-43.39
17474,-36.83
17486,-28.78
17498,-20.28
17510,-12.23
17522,-5.14
17534,0.84
17546,5.79
17558,9.81
17570,12.95
17581,15.15
17592,16.39
17604,16.81
17616,16.7
17628,16.47
17640,16.45
17652,16.82
17664,17.49
17676,18.25
17688,18.83
17700,19.1
17712,19.09
17724,18.98
17736,18.96
17748,19.12
17760,19.36
17771,19.43
17782,19.04
17794,17.98
17806,16.22
17818,13.93
17830,11.37
17842,8.86
17854,6.62
17866,4.72
17878,3.05
17890,1.4
17902,-0.5
17914,-2.85
17926,-5.71
17938,-8.94
17950,-12.27
17961,-15.38
17972,-18.07
17984,-20.33
17996,-22.38
18008,-24.6
18020,-27.39
18032,-31.08
18044,-35.77
18056,-41.25
18068,-46.92
18080,-51.88
18092,-55.03
18104,-55.43
18116,-52.58
18128,-46.65
18140,-38.44
18151,-29.12
18162,-19.85
18174,-11.51
18186,-4.46
18198,1.35
18210,6.14
18222,10.17
18234,13.54
18246,16.25
18258,18.27
18270,19.67
18282,20.56
18294,21.16
18306,21.66
18318,22.14
18330,22.6
18341,22.97
18352,23.15
18364,23.11
18376,22.89
18388,22.61
18400,22.4
18412,22.36
18424,22.45
18436,22.49
18448,22.21
18460,21.35
18472,19.75
18484,17.43
18496,14.66
18508,11.82
18520,9.21
18531,7.0
18542,5.1
18554,3.26
18566,1.2
18578,-1.3
18590,-4.27
18602,-7.59
18614,-11.03
18626,-14.35
18638,-17.37
18650,-20.04
18662,-22.45
18674,-24.84
18686,-27.52
18698,-30.82
18710,-34.96
18721,-39.9
18732,-45.29
18744,-50.37
18756,-54.12
18768,-55.53
18780,-53.93
18792,-49.23
18804,-42.0
18816,-33.29
18828,-24.24
18840,-15.81
18852,-8.49
18864,-2.32
18876,2.88
18888,7.38
18900,11.27
18911,14.5
18922,16.94
18934,18.5
18946,19.28
18958,19.51
18970,19.56
18982,19.72
18994,20.15
19006,20.84
19018,21.61
19030,22.29
19042,22.77
19054,23.04
19066,23.22
19078,23.4
19090,23.58
19101,23.6
19112,23.26
19124,22.34
19136,20.73
19148,18.49
19160,15.88
19172,13.27
19184,10.99
19196,9.26
19208,8.0
19220,6.93
19232,5.64
19244,3.77
19256,1.14
19268,-2.19
19280,-5.95
19291,-9.8
19302,-13.4
19314,-16.6
19326,-19.41
19338,-21.98
19350,-24.65
19362,-27.77
19374,-31.69
19386,-36.55
19398,-42.18
19410,-47.9
19422,-52.66
19434,-55.27
19446,-54.77
19458,-50.85
19470,-43.96
19481,-35.17
19492,-25.81
19504,-16.98
19516,-9.28
19528,-2.76
19540,2.83
19552,7.77
19564,12.13
19576,15.82
19588,18.63
19600,20.52
19612,21.62
19624,22.24
19636,22.75
19648,23.37
19660,24.17
19671,25.01
19682,25.67
19694,25.98
19706,25.89
19718,25.53
19730,25.12
19742,24.89
19754,24.89
19766,24.98
19778,24.84
19790,24.13
19802,22.65
19814,20.43
19826,17.75
19838,14.98
19850,12.45
19861,10.25
19872,8.3
19884,6.34
19896,4.13
19908,1.53
19920,-1.44
19932,-4.63
19944,-7.81
19956,-10.79
19968,-13.47
19980,-15.9
19992,-18.29
20004,-20.95
20016,-24.22
20028,-28.34
20040,-33.33
20051,-38.93
20062,-44.53
20074,-49.3
20086,-52.26
20098,-52.61
20110,-49.93
20122,-44.33
20134,-36.49
20146,-27.45
20158,-18.32
20170,-9.94
20182,-2.72
20194,3.35
20206,8.46
20218,12.8
20230,16.35
20241,19.02
20252,20.73
20264,21.56
20276,21.79
20288,21.81
20300,21.93
20312,22.26
20324,22.71
20336,23.13
20348,23.38
20360,23.48
20372,23.58
20384,23.81
20396,24.16
20408,24.44
20420,24.32
20431,23.52
20442,21.94
20454,19.72
20466,17.2
20478,14.74
20490,12.54
20502,10.59
20514,8.68
20526,6.53
20538,3.93
20550,0.88
20562,-2.43
20574,-5.73
20586,-8.7
20598,-11.18
20610,-13.19
20621,-14.97
20632,-16.89
20644,-19.44
20656,-23.0
20668,-27.71
20680,-33.32
20692,-39.1
20704,-44.0
20716,-46.89
20728,-46.96
20740,-43.94
20752,-38.25
20764,-30.8
20776,-22.65
20788,-14.75
20800,-7.64
20811,-1.53
20822,3.65
20834,7.99
20846,11.51
20858,14.17
20870,15.89
20882,16.7
20894,16.73
20906,16.23
20918,15.51
20930,14.88
20942,14.64
20954,14.98
20966,16.01
20978,17.7
20990,19.91
