seconds,BVP
5,15.49
16,5.44
27,-3.59
39,-10.32
51,-13.66
63,-12.91
75,-7.99
87,0.55
99,11.7
111,24.19
123,36.81
135,48.63
147,59.1
159,68.04
171,75.46
183,81.41
195,85.92
206,88.91
217,90.34
229,90.34
241,89.28
253,87.69
265,86.2
277,85.26
289,85.04
301,85.34
313,85.69
325,85.6
337,84.67
349,82.74
361,79.88
373,76.26
385,72.02
396,67.22
407,61.88
419,56.03
431,49.82
443,43.52
455,37.38
467,31.63
479,26.28
491,21.23
503,16.27
515,11.19
527,5.76
539,-0.23
551,-6.97
563,-14.46
575,-22.4
586,-30.02
597,-36.21
609,-39.79
621,-39.79
633,-35.83
645,-28.16
657,-17.66
669,-5.48
681,7.2
693,19.37
705,30.33
717,39.64
729,47.04
741,52.42
753,55.8
765,57.35
776,57.39
787,56.47
799,55.11
811,53.79
823,52.79
835,52.16
847,51.75
859,51.39
871,50.95
883,50.4
895,49.77
907,49.09
919,48.32
931,47.26
943,45.71
955,43.47
966,40.42
977,36.57
989,32.01
1001,26.84
1013,21.23
1025,15.38
1037,9.55
1049,4.0
1061,-1.06
1073,-5.61
1085,-9.83
1097,-14.06
1109,-18.66
1121,-23.92
1133,-29.85
1145,-36.19
1156,-42.4
1167,-47.65
1179,-51.0
1191,-51.56
1203,-48.7
1215,-42.31
1227,-32.91
1239,-21.51
1251,-9.41
1263,2.25
1275,12.63
1287,21.39
1299,28.41
1311,33.71
1323,37.22
1335,38.91
1346,38.81
1357,37.2
1369,34.63
1381,31.79
1393,29.34
1405,27.71
1417,26.98
1429,26.97
1441,27.32
1453,27.65
1465,27.72
1477,27.41
1489,26.67
1501,25.5
1513,23.86
1525,21.66
1536,18.79
1547,15.17
1559,10.81
1571,5.88
1583,0.67
1595,-4.47
1607,-9.27
1619,-13.58
1631,-17.46
1643,-21.09
1655,-24.76
1667,-28.7
1679,-33.12
1691,-38.08
1703,-43.46
1715,-48.89
1726,-53.74
1737,-57.19
1749,-58.37
1761,-56.63
1773,-51.75
1785,-44.01
1797,-34.1
1809,-23.01
1821,-11.72
1833,-1.06
1845,8.39
1857,16.27
1869,22.33
1881,26.5
1893,28.78
1905,29.42
1916,28.81
1927,27.53
1939,26.12
1951,25.02
1963,24.43
1975,24.32
1987,24.47
1999,24.6
2011,24.51
2023,24.09
2035,23.35
2047,22.39
2059,21.24
2071,19.85
2083,18.04
2095,15.59
2106,12.3
2117,8.12
2129,3.18
2141,-2.18
2153,-7.55
2165,-12.53
2177,-16.86
2189,-20.46
2201,-23.45
2213,-26.1
2225,-28.77
2237,-31.88
2249,-35.82
2261,-40.79
2273,-46.63
2285,-52.78
2296,-58.25
2307,-61.86
2319,-62.52
2331,-59.61
2343,-53.15
2355,-43.79
2367,-32.67
2379,-21.01
2391,-9.88
2403,0.04
2415,8.43
2427,15.27
2439,20.72
2451,24.94
2463,28.03
2475,30.01
2486,30.86
2497,30.62
2509,29.5
2521,27.87
2533,26.23
2545,25.05
2557,24.55
2569,24.72
2581,25.26
2593,25.81
2605,25.97
2617,25.44
2629,24.08
2641,21.9
2653,18.98
2665,15.52
2676,11.71
2687,7.73
2699,3.69
2711,-0.34
2723,-4.29
2735,-8.05
2747,-11.49
2759,-14.54
2771,-17.2
2783,-19.67
2795,-22.19
2807,-25.06
2819,-28.44
2831,-32.39
2843,-36.86
2855,-41.67
2866,-46.57
2877,-51.09
2889,-54.56
2901,-56.15
2913,-55.13
2925,-51.1
2937,-44.19
2949,-35.1
2961,-24.86
2973,-14.54
2985,-4.99
2997,3.28
3009,10.09
3021,15.45
3033,19.47
3045,22.29
3056,24.05
3067,24.92
3079,25.14
3091,24.95
3103,24.61
3115,24.38
3127,24.38
3139,24.61
3151,24.96
3163,25.2
3175,25.13
3187,24.64
3199,23.75
3211,22.57
3223,21.19
3235,19.64
3246,17.82
3257,15.63
3269,12.95
3281,9.8
3293,6.29
3305,2.57
3317,-1.14
3329,-4.66
3341,-7.83
3353,-10.57
3365,-12.91
3377,-15.01
3389,-17.15
3401,-19.67
3413,-22.86
3425,-26.86
3436,-31.58
3447,-36.72
3459,-41.73
3471,-45.91
3483,-48.5
3495,-48.8
3507,-46.43
3519,-41.35
3531,-34.04
3543,-25.33
3555,-16.19
3567,-7.5
3579,0.18
3591,6.57
3603,11.62
3615,15.32
3626,17.67
3637,18.65
3649,18.33
3661,16.97
3673,15.0
3685,12.94
3697,11.25
3709,10.18
3721,9.74
3733,9.71
3745,9.81
3757,9.86
3769,9.76
3781,9.57
3793,9.31
3805,8.98
3816,8.46
3827,7.55
3839,6.09
3851,4.02
3863,1.39
3875,-1.65
3887,-4.9
3899,-8.16
3911,-11.26
3923,-14.1
3935,-16.59
3947,-18.72
3959,-20.53
3971,-22.14
3983,-23.81
3995,-25.81
4006,-28.39
4017,-31.67
4029,-35.51
4041,-39.48
4053,-42.91
4065,-44.94
4077,-44.77
4089,-41.91
4101,-36.32
4113,-28.53
4125,-19.49
4137,-10.31
4149,-1.97
4161,4.95
4173,10.27
4185,14.16
4196,16.88
4207,18.61
4219,19.44
4231,19.38
4243,18.56
4255,17.25
4267,15.89
4279,14.94
4291,14.71
4303,15.29
4315,16.49
4327,17.97
4339,19.35
4351,20.3
4363,20.64
4375,20.32
4386,19.39
4397,17.96
4409,16.11
4421,13.89
4433,11.31
4445,8.36
4457,5.05
4469,1.47
4481,-2.23
4493,-5.87
4505,-9.29
4517,-12.45
4529,-15.41
4541,-18.32
4553,-21.36
4565,-24.68
4576,-28.37
4587,-32.39
4599,-36.58
4611,-40.56
4623,-43.78
4635,-45.56
4647,-45.29
4659,-42.64
4671,-37.66
4683,-30.83
4695,-22.9
4707,-14.65
4719,-6.71
4731,0.56
4743,7.05
4755,12.71
4766,17.44
4777,21.04
4789,23.26
4801,24.01
4813,23.44
4825,22.03
4837,20.47
4849,19.48
4861,19.55
4873,20.85
4885,23.2
4897,26.25
4909,29.66
4921,33.2
4933,36.8
4945,40.42
4956,44.03
4967,47.57
4979,50.99
4991,54.33
5003,57.65
5015,60.97
5027,64.15
5039,66.78
5051,68.25
5063,67.91
5075,65.25
5087,60.07
5099,52.54
5111,43.17
5123,32.67
5135,21.83
5146,11.5
5157,2.42
5169,-4.76
5181,-9.63
5193,-12.07
5205,-12.3
5217,-10.85
5229,-8.47
5241,-5.99
5253,-4.23
5265,-3.89
5277,-5.38
5289,-8.82
5301,-13.97
5313,-20.31
5325,-27.17
5336,-33.95
5347,-40.19
5359,-45.63
5371,-50.17
5383,-53.79
5395,-56.5
5407,-58.31
5419,-59.32
5431,-59.65
5443,-59.53
5455,-59.12
5467,-58.51
5479,-57.69
5491,-56.59
5503,-55.2
5515,-53.66
5526,-52.23
5537,-51.21
5549,-50.85
5561,-51.2
5573,-52.15
5585,-53.41
5597,-54.69
5609,-55.79
5621,-56.69
5633,-57.62
5645,-58.88
5657,-60.77
5669,-63.3
5681,-66.12
5693,-68.54
5705,-69.59
5716,-68.42
5727,-64.51
5739,-57.84
5751,-48.93
5763,-38.64
5775,-27.96
5787,-17.69
5799,-8.42
5811,-0.43
5823,6.16
5835,11.3
5847,14.96
5859,17.18
5871,18.11
5883,18.04
5895,17.44
5906,16.76
5917,16.35
5929,16.33
5941,16.58
5953,16.81
5965,16.79
5977,16.43
5989,15.8
6001,15.09
6013,14.4
6025,13.67
6037,12.6
6049,10.83
6061,8.15
6073,4.55
6085,0.35
6096,-4.04
6107,-8.21
6119,-11.99
6131,-15.46
6143,-18.82
6155,-22.29
6167,-26.02
6179,-30.09
6191,-34.44
6203,-38.99
6215,-43.44
6227,-47.26
6239,-49.66
6251,-49.81
6263,-47.07
6275,-41.27
6286,-32.89
6297,-22.86
6309,-12.34
6321,-2.37
6333,6.32
6345,13.36
6357,18.68
6369,22.41
6381,24.77
6393,26.02
6405,26.52
6417,26.54
6429,26.33
6441,26.01
6453,25.62
6465,25.15
6476,24.58
6487,23.95
6499,23.28
6511,22.55
6523,21.76
6535,20.85
6547,19.79
6559,18.52
6571,16.95
6583,15.0
6595,12.53
6607,9.55
6619,6.15
6631,2.55
6643,-1.02
6655,-4.4
6666,-7.61
6677,-10.8
6689,-14.24
6701,-18.16
6713,-22.65
6725,-27.59
6737,-32.52
6749,-36.73
6761,-39.32
6773,-39.49
6785,-36.7
6797,-30.93
6809,-22.72
6821,-13.02
6833,-2.97
6845,6.44
6856,14.45
6867,20.68
6879,24.97
6891,27.38
6903,28.09
6915,27.39
6927,25.71
6939,23.54
6951,21.32
6963,19.44
6975,18.09
6987,17.3
6999,16.98
7011,17.03
7023,17.29
7035,17.68
7046,18.1
7057,18.43
7069,18.46
7081,18.03
7093,16.98
7105,15.26
7117,12.98
7129,10.35
7141,7.64
7153,5.04
7165,2.55
7177,0.04
7189,-2.82
7201,-6.29
7213,-10.55
7225,-15.52
7236,-20.78
7247,-25.61
7259,-29.07
7271,-30.28
7283,-28.62
7295,-23.99
7307,-16.84
7319,-8.08
7331,1.2
7343,9.98
7355,17.54
7367,23.44
7379,27.5
7391,29.67
7403,30.03
7415,28.76
7426,26.26
7437,23.04
7449,19.66
7461,16.63
7473,14.28
7485,12.76
7497,12.09
7509,12.19
7521,12.91
7533,14.01
7545,15.21
7557,16.2
7569,16.74
7581,16.71
7593,16.09
7605,14.95
7616,13.35
7627,11.32
7639,8.83
7651,5.93
7663,2.72
7675,-0.69
7687,-4.22
7699,-7.93
7711,-11.97
7723,-16.48
7735,-21.39
7747,-26.25
7759,-30.26
7771,-32.46
7783,-32.04
7795,-28.61
7806,-22.4
7817,-14.19
7829,-5.16
7841,3.52
7853,10.91
7865,16.52
7877,20.3
7889,22.51
7901,23.52
7913,23.62
7925,22.92
7937,21.5
7949,19.48
7961,17.14
7973,14.89
7985,13.13
7996,12.12
8007,11.88
8019,12.24
8031,12.92
8043,13.65
8055,14.19
8067,14.32
8079,13.84
8091,12.67
8103,10.8
8115,8.4
8127,5.7
8139,2.94
8151,0.24
8163,-2.44
8175,-5.24
8186,-8.35
8197,-11.92
8209,-15.98
8221,-20.4
8233,-24.86
8245,-28.78
8257,-31.39
8269,-31.94
8281,-29.89
8293,-25.15
8305,-18.2
8317,-9.96
8329,-1.55
8341,6.06
8353,12.2
8365,16.64
8376,19.4
8387,20.69
8399,20.73
8411,19.73
8423,17.93
8435,15.62
8447,13.16
8459,10.86
8471,8.99
8483,7.62
8495,6.79
8507,6.42
8519,6.38
8531,6.52
8543,6.63
8555,6.5
8566,5.94
8577,4.86
8589,3.29
8601,1.33
8613,-0.84
8625,-3.09
8637,-5.31
8649,-7.46
8661,-9.65
8673,-12.05
8685,-14.98
8697,-18.69
8709,-23.19
8721,-28.12
8733,-32.65
8745,-35.74
8756,-36.42
8767,-34.24
8779,-29.37
8791,-22.55
8803,-14.77
8815,-6.95
8827,0.23
8839,6.44
8851,11.47
8863,15.2
8875,17.5
8887,18.31
8899,17.76
8911,16.2
8923,14.14
8935,12.14
8946,10.6
8957,9.71
8969,9.4
8981,9.45
8993,9.6
9005,9.7
9017,9.67
9029,9.58
9041,9.46
9053,9.26
9065,8.75
9077,7.64
9089,5.67
9101,2.78
9113,-0.87
9125,-4.88
9136,-8.8
9147,-12.34
9159,-15.39
9171,-18.12
9183,-20.83
9195,-23.89
9207,-27.54
9219,-31.85
9231,-36.58
9243,-41.23
9255,-45.02
9267,-47.14
9279,-46.91
9291,-43.98
9303,-38.43
9315,-30.79
9326,-21.87
9337,-12.53
9349,-3.57
9361,4.41
9373,11.06
9385,16.25
9397,19.98
9409,22.35
9421,23.58
9433,23.94
9445,23.68
9457,23.08
9469,22.42
9481,21.94
9493,21.82
9505,22.13
9516,22.81
9527,23.69
9539,24.51
9551,25.1
9563,25.32
9575,25.13
9587,24.51
9599,23.48
9611,22.04
9623,20.18
9635,17.94
9647,15.45
9659,12.88
9671,10.38
9683,8.04
9695,5.83
9706,3.56
9717,1.04
9729,-1.9
9741,-5.27
9753,-8.97
9765,-12.73
9777,-16.26
9789,-19.28
9801,-21.69
9813,-23.65
9825,-25.48
9837,-27.73
9849,-30.83
9861,-34.93
9873,-39.72
9885,-44.38
9896,-47.82
9907,-48.96
9919,-47.14
9931,-42.25
9943,-34.79
9955,-25.65
9967,-15.85
9979,-6.37
9991,2.1
10003,9.11
10015,14.47
10027,18.21
10039,20.49
10051,21.54
10063,21.65
10075,21.08
10086,20.17
10097,19.24
10109,18.58
10121,18.41
10133,18.74
10145,19.41
10157,20.17
10169,20.76
10181,21.1
10193,21.19
10205,21.07
10217,20.76
10229,20.17
10241,19.14
10253,17.54
10265,15.47
10276,13.12
10287,10.8
10299,8.73
10311,6.95
10323,5.34
10335,3.74
10347,2.01
10359,0.14
10371,-1.81
10383,-3.77
10395,-5.74
10407,-7.77
10419,-9.91
10431,-12.2
10443,-14.57
10455,-16.92
10466,-19.2
10477,-21.52
10489,-24.12
10501,-27.32
10513,-31.3
10525,-35.9
10537,-40.56
10549,-44.37
10561,-46.34
10573,-45.64
10585,-41.95
10597,-35.53
10609,-27.12
10621,-17.7
10633,-8.3
10645,0.32
10656,7.7
10667,13.65
10679,18.22
10691,21.56
10703,23.8
10715,25.1
10727,25.56
10739,25.36
10751,24.69
10763,23.8
10775,22.91
10787,22.23
10799,21.87
10811,21.87
10823,22.22
10835,22.88
10846,23.75
10857,24.71
10869,25.57
10881,26.08
10893,25.99
10905,25.14
10917,23.49
10929,21.21
10941,18.57
10953,15.87
10965,13.29
10977,10.85
10989,8.45
11001,5.92
11013,3.18
11025,0.23
11036,-2.79
11047,-5.73
11059,-8.53
11071,-11.22
11083,-13.97
11095,-16.95
11107,-20.34
11119,-24.21
11131,-28.44
11143,-32.73
11155,-36.51
11167,-39.05
11179,-39.58
11191,-37.54
11203,-32.78
11215,-25.68
11226,-17.05
11237,-7.97
11249,0.64
11261,8.12
11273,14.16
11285,18.67
11297,21.62
11309,22.99
11321,22.83
11333,21.37
11345,19.04
11357,16.43
11369,14.14
11381,12.61
11393,12.06
11405,12.45
11416,13.59
11427,15.18
11439,16.91
11451,18.52
11463,19.77
11475,20.54
11487,20.79
11499,20.48
11511,19.58
11523,18.02
11535,15.71
11547,12.6
11559,8.79
11571,4.49
11583,0.07
11595,-4.13
11606,-7.84
11617,-10.95
11629,-13.54
11641,-15.75
11653,-17.77
11665,-19.82
11677,-22.08
11689,-24.74
11701,-27.79
11713,-31.03
11725,-33.88
11737,-35.52
11749,-35.09
11761,-32.05
11773,-26.33
11785,-18.5
11796,-9.47
11807,-0.29
11819,8.18
11831,15.43
11843,21.21
11855,25.41
11867,27.99
11879,28.92
11891,28.28
11903,26.35
11915,23.65
11927,20.8
11939,18.36
11951,16.66
11963,15.73
11975,15.37
11986,15.33
11997,15.45
12009,15.67
12021,16.01
12033,16.42
12045,16.79
12057,16.89
12069,16.52
12081,15.53
12093,13.89
12105,11.6
12117,8.76
12129,5.44
12141,1.8
12153,-1.97
12165,-5.68
12176,-9.16
12187,-12.34
12199,-15.29
12211,-18.2
12223,-21.3
12235,-24.81
12247,-28.82
12259,-33.15
12271,-37.31
12283,-40.53
12295,-41.87
12307,-40.55
12319,-36.2
12331,-29.04
12343,-19.85
12355,-9.71
12366,0.29
12377,9.28
12389,16.8
12401,22.7
12413,26.99
12425,29.78
12437,31.2
12449,31.38
12461,30.51
12473,28.87
12485,26.79
12497,24.64
12509,22.69
12521,21.08
12533,19.88
12545,19.01
12556,18.39
12567,17.93
12579,17.55
12591,17.21
12603,16.85
12615,16.38
12627,15.73
12639,14.75
12651,13.37
12663,11.51
12675,9.16
12687,6.39
12699,3.37
12711,0.29
12723,-2.66
12735,-5.39
12746,-7.93
12757,-10.5
12769,-13.41
12781,-16.98
12793,-21.33
12805,-26.25
12817,-31.17
12829,-35.25
12841,-37.54
12853,-37.27
12865,-34.08
12877,-28.16
12889,-20.13
12901,-10.96
12913,-1.64
12925,6.98
12936,14.34
12947,20.13
12959,24.3
12971,26.97
12983,28.36
12995,28.71
13007,28.26
13019,27.26
13031,25.94
13043,24.58
13055,23.43
13067,22.7
13079,22.44
13091,22.55
13103,22.75
13115,22.77
13126,22.37
13137,21.49
13149,20.19
13161,18.58
13173,16.79
13185,14.83
13197,12.67
13209,10.32
13221,7.77
13233,5.09
13245,2.32
13257,-0.48
13269,-3.23
13281,-5.87
13293,-8.26
13305,-10.33
13316,-12.08
13327,-13.64
13339,-15.28
13351,-17.31
13363,-20.0
13375,-23.42
13387,-27.37
13399,-31.33
13411,-34.49
13423,-35.96
13435,-35.0
13447,-31.28
13459,-25.0
13471,-16.83
13483,-7.77
13495,1.19
13506,9.27
13517,15.97
13529,21.08
13541,24.55
13553,26.41
13565,26.73
13577,25.67
13589,23.52
13601,20.69
13613,17.67
13625,14.94
13637,12.87
13649,11.71
13661,11.5
13673,12.11
13685,13.26
13696,14.62
13707,15.89
13719,16.81
13731,17.31
13743,17.34
13755,16.94
13767,16.08
13779,14.69
13791,12.7
13803,10.07
13815,6.93
13827,3.54
13839,0.24
13851,-2.69
13863,-5.12
13875,-7.12
13886,-8.86
13897,-10.6
13909,-12.5
13921,-14.66
13933,-17.09
13945,-19.74
13957,-22.52
13969,-25.12
13981,-27.08
13993,-27.79
14005,-26.62
14017,-23.22
14029,-17.65
14041,-10.45
14053,-2.47
14065,5.32
14076,12.12
14087,17.43
14099,21.08
14111,23.11
14123,23.66
14135,22.93
14147,21.12
14159,18.51
14171,15.47
14183,12.47
14195,9.95
14207,8.26
14219,7.54
14231,7.67
14243,8.37
14255,9.27
14266,10.07
14277,10.63
14289,10.92
14301,11.0
14313,10.8
14325,10.23
14337,9.09
14349,7.28
14361,4.83
14373,1.94
14385,-1.07
14397,-3.9
14409,-6.39
14421,-8.52
14433,-10.39
14445,-12.18
14456,-14.13
14467,-16.47
14479,-19.31
14491,-22.59
14503,-25.9
14515,-28.55
14527,-29.73
14539,-28.78
14551,-25.48
14563,-20.16
14575,-13.53
14587,-6.44
14599,0.39
14611,6.54
14623,11.8
14635,16.08
14646,19.24
14657,21.13
14669,21.65
14681,20.9
14693,19.23
14705,17.19
14717,15.32
14729,14.0
14741,13.37
14753,13.27
14765,13.41
14777,13.52
14789,13.42
14801,13.11
14813,12.68
14825,12.24
14836,11.86
14847,11.46
14859,10.84
14871,9.8
14883,8.18
14895,5.92
14907,3.13
14919,0.01
14931,-3.16
14943,-6.15
14955,-8.79
14967,-11.11
14979,-13.24
14991,-15.46
15003,-18.02
15015,-21.09
15026,-24.61
15037,-28.28
15049,-31.54
15061,-33.71
15073,-34.13
15085,-32.39
15097,-28.47
15109,-22.75
15121,-15.88
15133,-8.62
15145,-1.65
15157,4.54
15169,9.69
15181,13.7
15193,16.52
15205,18.21
15216,18.86
15227,18.6
15239,17.58
15251,16.02
15263,14.19
15275,12.33
15287,10.68
15299,9.43
15311,8.64
15323,8.3
15335,8.28
15347,8.39
15359,8.48
15371,8.43
15383,8.24
15395,7.93
15406,7.52
15417,7.01
15429,6.32
15441,5.36
15453,4.04
15465,2.43
15477,0.68
15489,-0.97
15501,-2.3
15513,-3.19
15525,-3.68
15537,-3.96
15549,-4.3
15561,-4.93
15573,-6.05
15585,-7.69
15596,-9.82
15607,-12.23
15619,-14.63
15631,-16.61
15643,-17.68
15655,-17.44
15667,-15.6
15679,-12.17
15691,-7.44
15703,-1.96
15715,3.59
15727,8.55
15739,12.41
15751,14.95
15763,16.21
15775,16.4
15786,15.83
15797,14.75
15809,13.38
15821,11.86
15833,10.28
15845,8.74
15857,7.4
15869,6.42
15881,5.97
15893,6.16
15905,6.94
15917,8.15
15929,9.53
15941,10.77
15953,11.58
15965,11.77
15976,11.21
15987,9.9
15999,7.94
16011,5.52
16023,2.86
16035,0.22
16047,-2.24
16059,-4.44
16071,-6.39
16083,-8.19
16095,-9.88
16107,-11.48
16119,-12.93
16131,-14.19
16143,-15.24
16155,-16.08
16166,-16.8
16177,-17.57
16189,-18.6
16201,-20.07
16213,-22.04
16225,-24.3
16237,-26.38
16249,-27.58
16261,-27.27
16273,-25.12
16285,-21.23
16297,-16.09
16309,-10.44
16321,-4.96
16333,-0.09
16345,3.97
16356,7.21
16367,9.64
16379,11.25
16391,11.99
16403,11.81
16415,10.83
16427,9.29
16439,7.56
16451,6.01
16463,4.93
16475,4.43
16487,4.43
16499,4.75
16511,5.14
16523,5.42
16535,5.46
16546,5.22
16557,4.75
16569,4.08
16581,3.23
16593,2.17
16605,0.87
16617,-0.74
16629,-2.62
16641,-4.72
16653,-6.88
16665,-8.95
16677,-10.8
16689,-12.33
16701,-13.56
16713,-14.51
16725,-15.22
16736,-15.7
16747,-15.98
16759,-16.08
16771,-16.13
16783,-16.3
16795,-16.73
16807,-17.45
16819,-18.27
16831,-18.83
16843,-18.67
16855,-17.38
16867,-14.76
16879,-10.89
16891,-6.11
16903,-0.9
16915,4.2
16926,8.74
16937,12.42
16949,15.05
16961,16.58
16973,17.08
16985,16.7
16997,15.66
17009,14.24
17021,12.71
17033,11.33
17045,10.3
17057,9.75
17069,9.67
17081,9.97
17093,10.47
17105,10.96
17116,11.24
17127,11.18
17139,10.73
17151,9.93
17163,8.85
17175,7.55
17187,6.08
17199,4.38
17211,2.4
17223,0.11
17235,-2.47
17247,-5.17
17259,-7.78
17271,-10.07
17283,-11.89
17295,-13.25
17306,-14.32
17317,-15.37
17329,-16.63
17341,-18.25
17353,-20.3
17365,-22.72
17377,-25.39
17389,-28.06
17401,-30.3
17413,-31.59
17425,-31.4
17437,-29.45
17449,-25.77
17461,-20.81
17473,-15.22
17485,-9.71
17496,-4.79
17507,-0.7
17519,2.49
17531,4.82
17543,6.34
17555,7.11
17567,7.2
17579,6.76
17591,5.97
17603,5.05
17615,4.2
17627,3.59
17639,3.32
17651,3.44
17663,3.93
17675,4.66
17686,5.52
17697,6.38
17709,7.18
17721,7.89
17733,8.47
17745,8.84
17757,8.82
17769,8.25
17781,7.1
17793,5.51
17805,3.73
17817,2.03
17829,0.57
17841,-0.7
17853,-1.97
17865,-3.41
17876,-5.09
17887,-6.93
17899,-8.77
17911,-10.45
17923,-11.84
17935,-12.86
17947,-13.5
17959,-13.8
17971,-13.97
17983,-14.39
17995,-15.49
18007,-17.59
18019,-20.59
18031,-23.99
18043,-26.88
18055,-28.33
18066,-27.66
18077,-24.7
18089,-19.82
18101,-13.77
18113,-7.46
18125,-1.6
18137,3.36
18149,7.32
18161,10.43
18173,12.85
18185,14.72
18197,16.04
18209,16.78
18221,16.98
18233,16.75
18245,16.33
18256,15.94
18267,15.69
18279,15.59
18291,15.51
18303,15.39
18315,15.22
18327,15.1
18339,15.14
18351,15.36
18363,15.69
18375,15.92
18387,15.83
18399,15.26
18411,14.11
18423,12.46
18435,10.47
18446,8.36
18457,6.29
18469,4.36
18481,2.61
18493,1.05
18505,-0.32
18517,-1.52
18529,-2.63
18541,-3.74
18553,-4.97
18565,-6.35
18577,-7.79
18589,-9.12
18601,-10.18
18613,-10.95
18625,-11.61
18636,-12.46
18647,-13.83
18659,-15.9
18671,-18.62
18683,-21.73
18695,-24.76
18707,-27.13
18719,-28.3
18731,-27.78
18743,-25.37
18755,-21.19
18767,-15.64
18779,-9.34
18791,-2.88
18803,3.27
18815,8.81
18826,13.58
18837,17.49
18849,20.51
18861,22.67
18873,24.08
18885,24.89
18897,25.21
18909,25.09
18921,24.53
18933,23.62
18945,22.55
18957,21.58
18969,20.98
18981,20.85
18993,21.06
19005,21.35
19016,21.4
19027,21.07
19039,20.39
19051,19.52
19063,18.6
19075,17.63
19087,16.52
19099,15.14
19111,13.46
19123,11.56
19135,9.61
19147,7.76
19159,6.08
19171,4.51
19183,2.89
19195,1.08
19206,-0.97
19217,-3.25
19229,-5.61
19241,-7.89
19253,-9.99
19265,-11.92
19277,-13.76
19289,-15.64
19301,-17.62
19313,-19.58
19325,-21.19
19337,-22.03
19349,-21.7
19361,-19.95
19373,-16.83
19385,-12.67
19396,-7.95
19407,-3.14
19419,1.37
19431,5.33
19443,8.62
19455,11.11
19467,12.68
19479,13.2
19491,12.65
19503,11.15
19515,9.04
19527,6.81
19539,4.94
19551,3.82
19563,3.62
19575,4.27
19586,5.42
19597,6.69
19609,7.69
19621,8.21
19633,8.24
19645,7.91
19657,7.42
19669,6.91
19681,6.35
19693,5.62
19705,4.57
19717,3.08
19729,1.2
19741,-0.95
19753,-3.19
19765,-5.4
19776,-7.52
19787,-9.51
19799,-11.38
19811,-13.1
19823,-14.7
19835,-16.27
19847,-17.92
19859,-19.73
19871,-21.66
19883,-23.45
19895,-24.7
19907,-24.91
19919,-23.67
19931,-20.84
19943,-16.56
19955,-11.24
19966,-5.43
19977,0.33
19989,5.59
20001,10.05
20013,13.56
20025,16.08
20037,17.63
20049,18.36
20061,18.43
20073,18.05
20085,17.42
20097,16.67
20109,15.87
20121,15.01
20133,14.08
20145,13.09
20156,12.1
20167,11.2
20179,10.43
20191,9.74
20203,9.04
20215,8.2
20227,7.13
20239,5.8
20251,4.19
20263,2.25
20275,-0.08
20287,-2.8
20299,-5.85
20311,-9.04
20323,-12.12
20335,-14.89
20346,-17.21
20357,-19.07
20369,-20.55
20381,-21.79
20393,-22.97
20405,-24.25
20417,-25.78
20429,-27.66
20441,-29.83
20453,-32.1
20465,-34.08
20477,-35.3
20489,-35.32
20501,-33.82
20513,-30.75
20525,-26.28
20536,-20.79
20547,-14.82
20559,-8.91
20571,-3.52
20583,1.13
20595,5.0
20607,8.17
20619,10.75
20631,12.78
20643,14.26
20655,15.14
20667,15.43
20679,15.22
20691,14.68
20703,13.99
20715,13.35
20726,12.91
20737,12.77
20749,13.0
20761,13.56
20773,14.35
20785,15.18
20797,15.87
20809,16.22
20821,16.15
20833,15.66
20845,14.81
20857,13.68
20869,12.33
20881,10.78
20893,9.05
20905,7.14
20916,5.14
20927,3.16
20939,1.34
20951,-0.26
20963,-1.66
20975,-2.99
20987,-4.39
20999,-5.92
