seconds,BVP
4,24.04
15,14.06
26,4.67
38,-4.72
50,-13.99
62,-22.01
74,-28.48
86,-32.67
98,-33.63
110,-31.03
122,-25.7
134,-18.89
146,-11.02
158,-1.84
170,9.39
182,19.91
194,27.32
205,30.73
216,30.05
228,24.7
240,14.1
252,-1.08
264,-19.46
276,-38.84
288,-61.63
300,-88.41
312,-116.54
324,-142.58
336,-165.8
348,-188.15
360,-211.83
372,-238.83
384,-269.16
395,-307.32
406,-353.72
418,-403.07
430,-447.48
442,-481.23
454,-501.77
466,-508.21
478,-502.84
490,-451.84
502,-350.38
514,-225.57
526,-112.63
538,-27.83
550,30.42
562,65.4
574,86.85
585,98.24
596,101.59
608,94.19
620,78.35
632,61.76
644,53.58
656,58.04
668,73.63
680,96.67
692,122.43
704,148.08
716,167.83
728,179.1
740,183.48
752,184.32
764,183.13
775,179.63
786,173.83
798,165.6
810,155.94
822,143.47
834,128.24
846,112.58
858,99.48
870,90.33
882,84.72
894,81.91
906,80.78
918,80.82
930,80.51
942,79.16
954,77.22
965,75.54
976,74.29
988,72.99
1000,71.21
1012,68.59
1024,65.25
1036,61.17
1048,56.77
1060,52.88
1072,50.27
1084,49.13
1096,48.96
1108,48.95
1120,48.25
1132,46.42
1144,43.67
1155,40.66
1166,38.24
1178,37.04
1190,37.08
1202,37.75
1214,38.09
1226,37.21
1238,34.71
1250,30.92
1262,26.71
1274,23.21
1286,21.45
1298,22.14
1310,25.59
1322,31.46
1334,38.56
1345,44.89
1356,48.02
1368,46.03
1380,38.55
1392,27.4
1404,16.23
1416,9.1
1428,8.65
1440,14.68
1452,24.16
1464,32.56
1476,35.93
1488,32.68
1500,24.12
1512,13.66
1524,5.25
1535,1.8
1546,4.32
1558,11.98
1570,22.69
1582,33.91
1594,43.5
1606,50.2
1618,53.78
1630,54.94
1642,55.05
1654,55.59
1666,57.42
1678,60.2
1690,62.22
1702,60.91
1714,53.64
1725,38.83
1736,16.67
1748,-10.65
1760,-39.47
1772,-65.72
1784,-86.17
1796,-99.39
1808,-105.87
1820,-107.42
1832,-105.93
1844,-102.14
1856,-95.28
1868,-83.49
1880,-64.94
1892,-39.04
1904,-7.15
1915,27.49
1926,60.3
1938,86.54
1950,102.7
1962,107.85
1974,104.62
1986,99.06
1998,99.2
2010,112.12
2022,140.93
2034,182.84
2046,229.64
2058,270.63
2070,296.48
2082,302.26
2094,288.28
2105,258.54
2116,218.25
2128,171.74
2140,122.0
2152,71.18
2164,21.59
2176,-24.05
2188,-63.22
2200,-94.49
2212,-118.09
2224,-135.59
2236,-149.16
2248,-160.49
2260,-170.39
2272,-178.87
2284,-185.52
2295,-189.92
2306,-191.82
2318,-191.23
2330,-188.45
2342,-183.99
2354,-178.38
2366,-171.81
2378,-163.77
2390,-153.04
2402,-138.28
2414,-119.11
2426,-97.11
2438,-76.15
2450,-61.53
2462,-58.11
2474,-68.52
2485,-91.99
2496,-124.82
2508,-161.97
2520,-198.88
2532,-232.59
2544,-261.42
2556,-283.81
2568,-297.41
2580,-299.37
2592,-288.01
2604,-264.64
2616,-234.37
2628,-204.7
2640,-182.62
2652,-171.44
2664,-169.36
2675,-170.52
2686,-168.01
2698,-157.05
2710,-136.76
2722,-109.62
2734,-79.49
2746,-49.5
2758,-20.99
2770,5.97
2782,31.5
2794,55.1
2806,75.61
2818,92.06
2830,104.36
2842,113.53
2854,121.04
2865,127.94
2876,134.41
2888,140.05
2900,144.78
2912,149.61
2924,156.66
2936,168.31
2948,185.8
2960,208.18
2972,232.09
2984,252.62
2996,264.75
3008,264.91
3020,252.06
3032,228.0
3044,196.99
3055,164.85
3066,137.44
3078,119.16
3090,111.85
3102,114.38
3114,123.31
3126,134.27
3138,143.53
3150,148.88
3162,149.89
3174,147.31
3186,142.35
3198,136.19
3210,129.71
3222,123.46
3234,117.53
3245,111.22
3256,102.83
3268,89.8
3280,69.41
3292,39.84
3304,1.23
3316,-44.0
3328,-91.52
3340,-136.18
3352,-173.34
3364,-199.87
3376,-214.73
3388,-218.74
3400,-214.11
3412,-203.69
3424,-190.27
3435,-176.09
3446,-162.61
3458,-150.56
3470,-140.18
3482,-131.41
3494,-124.11
3506,-118.2
3518,-113.68
3530,-110.67
3542,-109.32
3554,-109.57
3566,-110.89
3578,-112.05
3590,-111.09
3602,-105.57
3614,-93.27
3625,-72.91
3636,-44.83
3648,-11.03
3660,25.29
3672,60.67
3684,92.43
3696,119.42
3708,142.24
3720,162.92
3732,184.18
3744,208.41
3756,236.56
3768,267.31
3780,297.03
3792,320.55
3804,332.97
3815,331.54
3826,316.91
3838,293.09
3850,265.91
3862,240.82
3874,221.03
3886,206.83
3898,196.19
3910,186.23
3922,174.49
3934,159.45
3946,140.32
3958,116.45
3970,87.1
3982,51.7
3994,10.45
4005,-35.09
4016,-82.07
4028,-127.02
4040,-166.76
4052,-199.44
4064,-224.82
4076,-244.14
4088,-259.38
4100,-272.52
4112,-285.07
4124,-297.92
4136,-311.59
4148,-326.34
4160,-342.24
4172,-358.86
4184,-374.91
4195,-388.2
4206,-396.06
4218,-396.19
4230,-387.61
4242,-371.21
4254,-349.57
4266,-326.15
4278,-304.05
4290,-284.92
4302,-268.43
4314,-252.59
4326,-234.59
4338,-211.94
4350,-183.36
4362,-149.13
4374,-110.86
4385,-70.86
4396,-31.47
4408,5.4
4420,38.45
4432,66.9
4444,90.43
4456,109.08
4468,123.29
4480,133.9
4492,141.98
4504,148.53
4516,154.07
4528,158.48
4540,161.05
4552,160.88
4564,157.34
4575,150.56
4586,141.53
4598,131.95
4610,123.77
4622,118.59
4634,117.15
4646,119.09
4658,123.12
4670,127.42
4682,130.51
4694,131.78
4706,131.78
4718,131.91
4730,133.62
4742,137.61
4754,143.34
4765,149.21
4776,153.24
4788,154.09
4800,151.72
4812,147.54
4824,143.73
4836,142.24
4848,144.08
4860,148.9
4872,155.27
4884,161.07
4896,163.93
4908,161.4
4920,151.03
4932,130.92
4944,100.48
4955,61.21
4966,16.92
4978,-27.01
4990,-65.48
5002,-95.64
5014,-117.7
5026,-134.03
5038,-146.91
5050,-156.38
5062,-159.72
5074,-153.01
5086,-134.14
5098,-105.44
5110,-74.32
5122,-51.21
5134,-45.51
5145,-61.26
5156,-94.89
5168,-135.96
5180,-170.84
5192,-187.59
5204,-180.05
5216,-149.27
5228,-101.65
5240,-45.54
5252,11.7
5264,64.45
5276,107.96
5288,137.13
5300,146.71
5312,133.69
5324,100.06
5335,53.77
5346,6.5
5358,-31.0
5370,-53.43
5382,-62.59
5394,-65.38
5406,-69.41
5418,-79.2
5430,-94.76
5442,-112.94
5454,-130.06
5466,-143.85
5478,-153.88
5490,-160.69
5502,-164.99
5514,-167.23
5525,-167.41
5536,-165.18
5548,-159.73
5560,-149.95
5572,-134.66
5584,-113.35
5596,-86.67
5608,-56.59
5620,-25.9
5632,2.78
5644,27.69
5656,48.19
5668,64.38
5680,76.65
5692,85.34
5704,90.71
5715,93.21
5726,93.51
5738,92.49
5750,90.86
5762,89.0
5774,86.85
5786,84.17
5798,80.75
5810,76.58
5822,71.87
5834,66.95
5846,62.17
5858,57.78
5870,53.91
5882,50.52
5894,47.5
5905,44.61
5916,41.55
5928,37.97
5940,33.63
5952,28.52
5964,22.88
5976,17.18
5988,11.89
6000,7.35
6012,3.7
6024,0.92
6036,-0.97
6048,-1.85
6060,-1.47
6072,0.41
6084,3.83
6095,8.53
6106,13.93
6118,19.32
6130,24.01
6142,27.53
6154,29.72
6166,30.75
6178,30.93
6190,30.6
6202,30.04
6214,29.38
6226,28.7
6238,28.09
6250,27.67
6262,27.6
6274,27.93
6285,28.52
6296,29.07
6308,29.23
6320,28.84
6332,28.0
6344,27.03
6356,26.23
6368,25.76
6380,25.44
6392,24.84
6404,23.42
6416,20.75
6428,16.67
6440,11.37
6452,5.35
6464,-0.67
6475,-5.99
6486,-10.03
6498,-12.44
6510,-13.17
6522,-12.39
6534,-10.47
6546,-7.85
6558,-4.91
6570,-1.89
6582,1.12
6594,4.2
6606,7.44
6618,10.88
6630,14.4
6642,17.77
6654,20.79
6665,23.49
6676,26.14
6688,29.2
6700,33.04
6712,37.73
6724,42.96
6736,48.16
6748,52.75
6760,56.42
6772,59.17
6784,61.25
6796,62.94
6808,64.4
6820,65.54
6832,66.09
6844,65.7
6855,64.14
6866,61.44
6878,57.98
6890,54.45
6902,51.59
6914,49.91
6926,49.34
6938,49.19
6950,48.37
6962,45.78
6974,40.83
6986,33.53
6998,24.42
7010,14.24
7022,3.7
7034,-6.57
7045,-15.93
7056,-23.7
7068,-29.24
7080,-32.27
7092,-33.07
7104,-32.59
7116,-32.15
7128,-32.88
7140,-35.2
7152,-38.53
7164,-41.45
7176,-42.28
7188,-39.76
7200,-33.54
7212,-24.37
7224,-13.84
7235,-3.83
7246,3.96
7258,8.31
7270,8.57
7282,4.65
7294,-2.84
7306,-12.47
7318,-22.03
7330,-28.86
7342,-30.7
7354,-26.47
7366,-16.77
7378,-3.66
7390,10.18
7402,22.45
7414,31.93
7425,38.69
7436,43.59
7448,47.73
7460,51.84
7472,56.04
7484,59.93
7496,62.84
7508,64.09
7520,63.24
7532,60.13
7544,54.92
7556,48.0
7568,39.78
7580,30.63
7592,20.73
7604,10.14
7615,-1.16
7626,-13.07
7638,-25.35
7650,-37.58
7662,-49.3
7674,-60.13
7686,-69.83
7698,-78.27
7710,-85.35
7722,-90.9
7734,-94.68
7746,-96.54
7758,-96.55
7770,-95.1
7782,-92.78
7794,-90.12
7805,-87.34
7816,-84.19
7828,-80.08
7840,-74.34
7852,-66.56
7864,-56.82
7876,-45.74
7888,-34.23
7900,-23.32
7912,-13.84
7924,-6.25
7936,-0.63
7948,3.33
7960,6.19
7972,8.65
7984,11.39
7995,14.86
8006,19.18
8018,24.03
8030,28.84
8042,32.97
8054,35.99
8066,37.83
8078,38.76
8090,39.12
8102,39.12
8114,38.62
8126,37.25
8138,34.6
8150,30.52
8162,25.35
8174,19.88
8185,15.05
8196,11.5
8208,9.19
8220,7.35
8232,4.66
8244,-0.22
8256,-8.03
8268,-18.52
8280,-30.38
8292,-41.69
8304,-50.48
8316,-55.3
8328,-55.68
8340,-52.2
8352,-46.28
8364,-39.79
8375,-34.53
8386,-31.72
8398,-31.66
8410,-33.6
8422,-35.88
8434,-36.44
8446,-33.52
8458,-26.37
8470,-15.54
8482,-2.75
8494,9.73
8506,19.94
8518,26.99
8530,31.26
8542,34.1
8554,37.1
8565,41.22
8576,46.3
8588,51.02
8600,53.58
8612,52.62
8624,48.0
8636,40.97
8648,33.79
8660,28.72
8672,27.23
8684,29.44
8696,34.31
8708,40.21
8720,45.57
8732,49.3
8744,50.75
8755,49.61
8766,45.81
8778,39.59
8790,31.7
8802,23.31
8814,15.79
8826,10.1
8838,6.49
8850,4.25
8862,2.04
8874,-1.72
8886,-8.19
8898,-17.72
8910,-29.66
8922,-42.52
8934,-54.45
8945,-63.81
8956,-69.66
8968,-71.91
8980,-71.19
8992,-68.37
9004,-64.18
9016,-58.96
9028,-52.75
9040,-45.61
9052,-37.81
9064,-29.9
9076,-22.55
9088,-16.22
9100,-11.08
9112,-6.97
9124,-3.66
9135,-0.94
9146,1.22
9158,2.76
9170,3.67
9182,4.1
9194,4.36
9206,4.81
9218,5.76
9230,7.21
9242,8.97
9254,10.67
9266,11.95
9278,12.57
9290,12.5
9302,11.86
9314,10.89
9325,9.83
9336,8.92
9348,8.4
9360,8.53
9372,9.46
9384,11.23
9396,13.63
9408,16.34
9420,19.02
9432,21.42
9444,23.5
9456,25.31
9468,26.94
9480,28.35
9492,29.42
9504,30.06
9515,30.29
9526,30.28
9538,30.22
9550,30.21
9562,30.09
9574,29.51
9586,28.08
9598,25.66
9610,22.53
9622,19.34
9634,16.94
9646,16.0
9658,16.81
9670,19.08
9682,22.15
9694,25.18
9705,27.53
9716,28.88
9728,29.37
9740,29.66
9752,30.69
9764,33.46
9776,38.67
9788,46.36
9800,55.78
9812,65.52
9824,73.93
9836,79.53
9848,81.48
9860,79.67
9872,74.58
9884,66.86
9895,56.96
9906,44.94
9918,30.62
9930,13.83
9942,-5.08
9954,-25.15
9966,-44.87
9978,-62.54
9990,-76.64
10002,-86.21
10014,-90.91
10026,-90.91
10038,-86.76
10050,-79.22
10062,-69.28
10074,-58.09
10085,-46.91
10096,-36.83
10108,-28.55
10120,-22.19
10132,-17.38
10144,-13.4
10156,-9.53
10168,-5.3
10180,-0.69
10192,3.93
10204,7.91
10216,10.6
10228,11.55
10240,10.7
10252,8.32
10264,4.8
10275,0.53
10286,-4.3
10298,-9.65
10310,-15.5
10322,-21.7
10334,-27.95
10346,-33.86
10358,-39.14
10370,-43.67
10382,-47.51
10394,-50.82
10406,-53.68
10418,-56.08
10430,-57.91
10442,-58.99
10454,-59.18
10465,-58.4
10476,-56.67
10488,-54.11
10500,-50.89
10512,-47.26
10524,-43.43
10536,-39.57
10548,-35.8
10560,-32.18
10572,-28.76
10584,-25.58
10596,-22.69
10608,-20.12
10620,-17.85
10632,-15.9
10644,-14.27
10655,-13.04
10666,-12.19
10678,-11.59
10690,-10.84
10702,-9.32
10714,-6.31
10726,-1.21
10738,6.37
10750,16.43
10762,28.58
10774,42.07
10786,55.87
10798,68.76
10810,79.56
10822,87.29
10834,91.4
10845,91.76
10856,88.63
10868,82.41
10880,73.48
10892,62.16
10904,48.8
10916,33.95
10928,18.31
10940,2.65
10952,-12.36
10964,-26.24
10976,-38.69
10988,-49.51
11000,-58.52
11012,-65.57
11024,-70.6
11035,-73.71
11046,-75.05
11058,-74.73
11070,-72.78
11082,-69.18
11094,-64.09
11106,-57.91
11118,-51.29
11130,-44.92
11142,-39.26
11154,-34.44
11166,-30.26
11178,-26.44
11190,-22.71
11202,-18.82
11214,-14.53
11225,-9.6
11236,-3.82
11248,2.78
11260,9.85
11272,16.73
11284,22.67
11296,27.02
11308,29.52
11320,30.22
11332,29.44
11344,27.56
11356,24.91
11368,21.67
11380,18.03
11392,14.13
11404,10.22
11415,6.59
11426,3.55
11438,1.33
11450,0.04
11462,-0.37
11474,-0.07
11486,0.72
11498,1.82
11510,3.11
11522,4.62
11534,6.36
11546,8.27
11558,10.22
11570,11.94
11582,13.22
11594,13.93
11605,14.12
11616,13.97
11628,13.71
11640,13.52
11652,13.42
11664,13.36
11676,13.21
11688,12.87
11700,12.35
11712,11.7
11724,11.01
11736,10.31
11748,9.57
11760,8.71
11772,7.63
11784,6.26
11795,4.57
11806,2.59
11818,0.39
11830,-1.92
11842,-4.27
11854,-6.62
11866,-9.0
11878,-11.45
11890,-13.98
11902,-16.53
11914,-18.85
11926,-20.59
11938,-21.35
11950,-20.87
11962,-19.11
11974,-16.27
11985,-12.71
11996,-8.85
12008,-5.01
12020,-1.33
12032,2.15
12044,5.49
12056,8.68
12068,11.64
12080,14.18
12092,16.1
12104,17.24
12116,17.59
12128,17.3
12140,16.62
12152,15.77
12164,14.91
12175,14.08
12186,13.25
12198,12.35
12210,11.41
12222,10.51
12234,9.72
12246,8.95
12258,8.02
12270,6.68
12282,4.76
12294,2.26
12306,-0.59
12318,-3.49
12330,-6.19
12342,-8.55
12354,-10.59
12365,-12.36
12376,-13.95
12388,-15.48
12400,-17.15
12412,-19.17
12424,-21.65
12436,-24.45
12448,-27.09
12460,-28.88
12472,-29.16
12484,-27.61
12496,-24.4
12508,-20.06
12520,-15.29
12532,-10.6
12544,-6.24
12555,-2.14
12566,1.89
12578,6.02
12590,10.32
12602,14.73
12614,19.06
12626,23.09
12638,26.62
12650,29.46
12662,31.6
12674,33.09
12686,34.08
12698,34.67
12710,34.89
12722,34.66
12734,33.85
12745,32.35
12756,30.17
12768,27.39
12780,24.13
12792,20.51
12804,16.58
12816,12.4
12828,8.06
12840,3.71
12852,-0.41
12864,-4.09
12876,-7.18
12888,-9.69
12900,-11.8
12912,-13.84
12924,-16.16
12935,-18.99
12946,-22.32
12958,-25.83
12970,-28.99
12982,-31.2
12994,-31.98
13006,-31.06
13018,-28.47
13030,-24.5
13042,-19.62
13054,-14.34
13066,-9.12
13078,-4.25
13090,0.1
13102,3.93
13114,7.24
13125,10.06
13136,12.35
13148,14.09
13160,15.29
13172,15.99
13184,16.31
13196,16.35
13208,16.26
13220,16.15
13232,16.1
13244,16.17
13256,16.34
13268,16.54
13280,16.66
13292,16.6
13304,16.3
13315,15.71
13326,14.79
13338,13.42
13350,11.45
13362,8.82
13374,5.6
13386,2.07
13398,-1.38
13410,-4.37
13422,-6.72
13434,-8.49
13446,-9.96
13458,-11.48
13470,-13.35
13482,-15.74
13494,-18.65
13505,-21.93
13516,-25.26
13528,-28.17
13540,-30.14
13552,-30.68
13564,-29.5
13576,-26.62
13588,-22.4
13600,-17.43
13612,-12.38
13624,-7.76
13636,-3.85
13648,-0.72
13660,1.78
13672,3.8
13684,5.49
13695,6.88
13706,7.96
13718,8.7
13730,9.11
13742,9.26
13754,9.22
13766,9.06
13778,8.78
13790,8.37
13802,7.85
13814,7.32
13826,6.89
13838,6.68
13850,6.71
13862,6.86
13874,6.89
13885,6.56
13896,5.67
13908,4.2
13920,2.23
13932,-0.04
13944,-2.4
13956,-4.68
13968,-6.8
13980,-8.75
13992,-10.58
14004,-12.37
14016,-14.2
14028,-16.1
14040,-18.06
14052,-19.9
14064,-21.34
14075,-22.02
14086,-21.58
14098,-19.83
14110,-16.8
14122,-12.79
14134,-8.24
14146,-3.6
14158,0.83
14170,4.91
14182,8.6
14194,11.87
14206,14.64
14218,16.82
14230,18.35
14242,19.29
14254,19.82
14265,20.18
14276,20.53
14288,20.91
14300,21.23
14312,21.4
14324,21.32
14336,21.01
14348,20.53
14360,19.95
14372,19.29
14384,18.48
14396,17.42
14408,16.0
14420,14.09
14432,11.67
14444,8.78
14455,5.55
14466,2.18
14478,-1.13
14490,-4.22
14502,-7.03
14514,-9.6
14526,-12.1
14538,-14.74
14550,-17.7
14562,-20.97
14574,-24.35
14586,-27.43
14598,-29.7
14610,-30.74
14622,-30.35
14634,-28.62
14645,-25.88
14656,-22.52
14668,-18.87
14680,-15.09
14692,-11.21
14704,-7.2
14716,-3.07
14728,1.02
14740,4.84
14752,8.09
14764,10.5
14776,11.87
14788,12.24
14800,11.82
14812,10.97
14824,10.06
14835,9.38
14846,9.09
14858,9.16
14870,9.48
14882,9.88
14894,10.2
14906,10.3
14918,10.06
14930,9.38
14942,8.28
14954,6.79
14966,4.99
14978,3.0
14990,0.94
15002,-1.11
15014,-3.14
15025,-5.17
15036,-7.31
15048,-9.7
15060,-12.48
15072,-15.68
15084,-19.21
15096,-22.75
15108,-25.81
15120,-27.81
15132,-28.28
15144,-26.96
15156,-23.9
15168,-19.51
15180,-14.41
15192,-9.29
15204,-4.64
15215,-0.7
15226,2.55
15238,5.23
15250,7.45
15262,9.22
15274,10.44
15286,11.09
15298,11.22
15310,11.02
15322,10.68
15334,10.3
15346,9.85
15358,9.19
15370,8.22
15382,6.97
15394,5.62
15405,4.48
15416,3.81
15428,3.7
15440,4.05
15452,4.52
15464,4.76
15476,4.47
15488,3.58
15500,2.26
15512,0.87
15524,-0.21
15536,-0.68
15548,-0.46
15560,0.33
15572,1.5
15584,2.87
15595,4.29
15606,5.68
15618,6.94
15630,8.03
15642,9.03
15654,10.22
15666,12.11
15678,15.22
15690,19.9
15702,26.06
15714,33.1
15726,40.07
15738,45.94
15750,49.95
15762,51.68
15774,51.1
15785,48.46
15796,44.11
15808,38.45
15820,31.97
15832,25.14
15844,18.46
15856,12.3
15868,6.86
15880,2.14
15892,-1.95
15904,-5.52
15916,-8.64
15928,-11.29
15940,-13.43
15952,-15.08
15964,-16.32
15975,-17.31
15986,-18.21
15998,-19.18
16010,-20.33
16022,-21.7
16034,-23.31
16046,-25.08
16058,-26.88
16070,-28.56
16082,-29.98
16094,-31.08
16106,-31.94
16118,-32.66
16130,-33.4
16142,-34.21
16154,-35.0
16165,-35.52
16176,-35.39
16188,-34.25
16200,-31.9
16212,-28.34
16224,-23.76
16236,-18.52
16248,-12.98
16260,-7.48
16272,-2.29
16284,2.32
16296,6.11
16308,8.87
16320,10.49
16332,11.05
16344,10.79
16355,10.07
16366,9.26
16378,8.6
16390,8.23
16402,8.17
16414,8.38
16426,8.76
16438,9.18
16450,9.5
16462,9.53
16474,9.14
16486,8.27
16498,6.92
16510,5.17
16522,3.12
16534,0.87
16545,-1.51
16556,-3.96
16568,-6.45
16580,-8.97
16592,-11.53
16604,-14.17
16616,-16.86
16628,-19.44
16640,-21.61
16652,-22.96
16664,-23.13
16676,-21.89
16688,-19.28
16700,-15.56
16712,-11.12
16724,-6.35
16735,-1.53
16746,3.11
16758,7.42
16770,11.28
16782,14.54
16794,17.07
16806,18.79
16818,19.69
16830,19.83
16842,19.28
16854,18.13
16866,16.49
16878,14.47
16890,12.28
16902,10.13
16914,8.21
16925,6.6
16936,5.28
16948,4.14
16960,3.02
16972,1.79
16984,0.37
16996,-1.24
17008,-2.99
17020,-4.81
17032,-6.59
17044,-8.24
17056,-9.7
17068,-11.0
17080,-12.25
17092,-13.63
17104,-15.28
17115,-17.24
17126,-19.38
17138,-21.41
17150,-22.94
17162,-23.54
17174,-22.86
17186,-20.64
17198,-16.84
17210,-11.62
17222,-5.4
17234,1.23
17246,7.64
17258,13.29
17270,17.88
17282,21.38
17294,24.01
17305,26.06
17316,27.76
17328,29.23
17340,30.4
17352,31.1
17364,31.18
17376,30.68
17388,29.83
17400,29.05
17412,28.8
17424,29.38
17436,30.83
17448,32.86
17460,34.98
17472,36.67
17484,37.59
17495,37.61
17506,36.9
17518,35.81
17530,34.77
17542,34.22
17554,34.45
17566,35.52
17578,37.05
17590,38.2
17602,37.7
17614,34.17
17626,26.63
17638,14.85
17650,-0.52
17662,-18.13
17674,-36.31
17685,-53.58
17696,-68.92
17708,-81.9
17720,-92.49
17732,-100.79
17744,-106.72
17756,-109.91
17768,-109.79
17780,-105.93
17792,-98.49
17804,-88.42
17816,-77.44
17828,-67.46
17840,-60.01
17852,-55.67
17864,-53.95
17875,-53.54
17886,-52.93
17898,-50.84
17910,-46.46
17922,-39.34
17934,-29.24
17946,-16.11
17958,-0.16
17970,17.98
17982,37.26
17994,56.29
18006,73.76
18018,88.73
18030,100.79
18042,110.03
18054,116.78
18065,121.36
18076,123.91
18088,124.43
18100,122.96
18112,119.7
18124,115.1
18136,109.71
18148,104.01
18160,98.23
18172,92.37
18184,86.26
18196,79.65
18208,72.27
18220,63.89
18232,54.31
18244,43.46
18255,31.67
18266,19.68
18278,8.61
18290,-0.4
18302,-6.6
18314,-9.97
18326,-11.15
18338,-11.18
18350,-11.0
18362,-11.16
18374,-11.79
18386,-12.82
18398,-14.28
18410,-16.38
18422,-19.46
18434,-23.64
18445,-28.71
18456,-34.04
18468,-38.82
18480,-42.29
18492,-43.98
18504,-43.8
18516,-42.07
18528,-39.28
18540,-36.06
18552,-32.95
18564,-30.37
18576,-28.51
18588,-27.47
18600,-27.25
18612,-27.77
18624,-28.81
18635,-29.86
18646,-30.1
18658,-28.55
18670,-24.32
18682,-17.01
18694,-6.93
18706,4.92
18718,17.07
18730,28.09
18742,37.04
18754,43.69
18766,48.52
18778,52.33
18790,55.88
18802,59.42
18814,62.73
18825,65.09
18836,65.91
18848,65.17
18860,63.47
18872,61.68
18884,60.51
18896,60.03
18908,59.78
18920,59.04
18932,57.02
18944,53.5
18956,49.14
18968,45.17
18980,42.82
18992,42.76
19004,44.65
19015,47.39
19026,49.63
19038,49.96
19050,47.85
19062,44.06
19074,40.18
19086,37.58
19098,36.85
19110,37.21
19122,37.18
19134,35.13
19146,28.68
19158,16.42
19170,-0.97
19182,-21.12
19194,-41.46
19205,-59.92
19216,-76.36
19228,-91.88
19240,-108.6
19252,-131.74
19264,-165.84
19276,-211.48
19288,-264.62
19300,-318.4
19312,-364.14
19324,-395.04
19336,-405.94
19348,-394.83
19360,-367.38
19372,-331.87
19384,-294.21
19395,-256.67
19406,-220.06
19418,-183.68
19430,-148.75
19442,-115.44
19454,-83.29
19466,-57.32
19478,-43.07
19490,-42.38
19502,-53.63
19514,-75.17
19526,-104.7
19538,-142.49
19550,-186.73
19562,-201.99
19574,-166.33
19585,-88.93
19596,-0.97
19608,72.88
19620,114.18
19632,135.49
19644,144.64
19656,144.73
19668,135.52
19680,115.53
19692,82.2
19704,39.12
19716,-4.55
19728,-39.73
19740,-59.67
19752,-65.36
19764,-60.85
19775,-51.25
19786,-44.44
19798,-45.32
19810,-51.43
19822,-54.88
19834,-48.14
19846,-26.73
19858,6.9
19870,47.67
19882,90.09
19894,127.28
19906,154.11
19918,169.67
19930,176.33
19942,177.05
19954,174.83
19965,170.63
19976,165.46
19988,160.41
20000,155.14
20012,148.81
20024,141.53
20036,134.17
20048,127.37
20060,121.49
20072,115.67
20084,109.29
20096,102.23
20108,94.54
20120,86.47
20132,78.67
20144,71.75
20155,65.77
20166,60.37
20178,54.78
20190,48.55
20202,41.79
20214,35.01
20226,28.81
20238,23.6
20250,19.44
20262,16.04
20274,12.91
20286,9.66
20298,6.1
20310,2.35
20322,-1.19
20334,-3.98
20345,-5.53
20356,-5.64
20368,-4.48
20380,-2.63
20392,-0.82
20404,0.34
20416,0.63
20428,0.4
20440,0.5
20452,2.01
20464,5.84
20476,12.38
20488,21.17
20500,30.95
20512,40.14
20524,47.64
20535,53.49
20546,59.09
20558,66.67
20570,78.13
20582,93.91
20594,112.53
20606,131.03
20618,145.88
20630,153.87
20642,152.58
20654,140.69
20666,118.3
20678,87.28
20690,51.35
20702,15.41
20714,-15.82
20725,-39.51
20736,-55.63
20748,-66.57
20760,-75.52
20772,-84.54
20784,-93.5
20796,-100.28
20808,-102.04
20820,-96.57
20832,-83.16
20844,-62.7
20856,-37.17
20868,-9.33
20880,17.7
20892,40.83
20904,57.62
20915,66.85
20926,68.69
20938,64.53
20950,56.48
20962,46.72
20974,37.11
20986,28.84
20998,22.18
