seconds,BVP
7,4.68
19,2.08
31,-0.69
43,-3.59
55,-6.56
67,-9.49
78,-12.31
89,-14.97
101,-17.44
113,-19.77
125,-22.05
137,-24.34
149,-26.67
161,-28.99
173,-31.22
185,-33.26
197,-35.02
209,-36.5
221,-37.73
233,-38.92
245,-40.31
257,-42.2
268,-44.76
279,-47.87
291,-51.04
303,-53.45
315,-54.16
327,-52.37
339,-47.72
351,-40.38
363,-30.99
375,-20.43
387,-9.63
399,0.63
411,9.83
423,17.65
435,23.96
447,28.72
458,31.95
469,33.68
481,33.99
493,33.06
505,31.21
517,28.88
529,26.49
541,24.45
553,22.96
565,22.04
577,21.54
589,21.31
601,21.23
613,21.22
625,21.2
637,21.04
648,20.54
659,19.5
671,17.87
683,15.78
695,13.55
707,11.47
719,9.75
731,8.32
743,6.95
755,5.31
767,3.19
779,0.56
791,-2.37
803,-5.32
815,-8.06
827,-10.49
838,-12.64
849,-14.62
861,-16.53
873,-18.46
885,-20.44
897,-22.49
909,-24.66
921,-26.93
933,-29.2
945,-31.3
957,-33.06
969,-34.43
981,-35.58
993,-36.86
1005,-38.73
1017,-41.44
1028,-44.89
1039,-48.46
1051,-51.18
1063,-51.95
1075,-49.92
1087,-44.75
1099,-36.72
1111,-26.63
1123,-15.56
1135,-4.57
1147,5.51
1159,14.17
1171,21.21
1183,26.61
1195,30.46
1207,32.86
1218,33.91
1229,33.79
1241,32.74
1253,31.11
1265,29.24
1277,27.48
1289,26.02
1301,24.89
1313,24.02
1325,23.27
1337,22.61
1349,22.07
1361,21.75
1373,21.7
1385,21.85
1397,21.98
1408,21.8
1419,21.04
1431,19.57
1443,17.47
1455,14.95
1467,12.32
1479,9.82
1491,7.62
1503,5.75
1515,4.12
1527,2.64
1539,1.21
1551,-0.22
1563,-1.65
1575,-3.11
1587,-4.66
1598,-6.44
1609,-8.61
1621,-11.24
1633,-14.27
1645,-17.54
1657,-20.81
1669,-23.86
1681,-26.59
1693,-29.02
1705,-31.31
1717,-33.69
1729,-36.43
1741,-39.73
1753,-43.72
1765,-48.21
1777,-52.77
1788,-56.65
1799,-59.0
1811,-59.09
1823,-56.48
1835,-51.2
1847,-43.64
1859,-34.46
1871,-24.41
1883,-14.23
1895,-4.54
1907,4.16
1919,11.49
1931,17.25
1943,21.36
1955,23.92
1967,25.12
1978,25.18
1989,24.39
2001,23.05
2013,21.45
2025,19.82
2037,18.33
2049,17.06
2061,16.03
2073,15.26
2085,14.78
2097,14.69
2109,15.07
2121,15.87
2133,16.9
2145,17.88
2157,18.44
2168,18.36
2179,17.57
2191,16.17
2203,14.37
2215,12.41
2227,10.41
2239,8.44
2251,6.48
2263,4.51
2275,2.54
2287,0.59
2299,-1.3
2311,-3.06
2323,-4.62
2335,-5.94
2347,-6.99
2358,-7.79
2369,-8.45
2381,-9.08
2393,-9.78
2405,-10.56
2417,-11.28
2429,-11.82
2441,-12.08
2453,-12.17
2465,-12.37
2477,-13.11
2489,-14.74
2501,-17.4
2513,-20.88
2525,-24.61
2537,-27.78
2548,-29.52
2559,-29.14
2571,-26.25
2583,-20.94
2595,-13.65
2607,-5.09
2619,3.99
2631,12.93
2643,21.25
2655,28.62
2667,34.77
2679,39.49
2691,42.53
2703,43.86
2715,43.6
2727,42.09
2738,39.85
2749,37.45
2761,35.34
2773,33.87
2785,33.21
2797,33.42
2809,34.38
2821,35.86
2833,37.5
2845,38.85
2857,39.47
2869,39.04
2881,37.4
2893,34.65
2905,31.06
2917,26.99
2928,22.76
2939,18.55
2951,14.38
2963,10.16
2975,5.82
2987,1.31
2999,-3.3
3011,-7.86
3023,-12.2
3035,-16.17
3047,-19.63
3059,-22.44
3071,-24.42
3083,-25.42
3095,-25.44
3107,-24.65
3118,-23.47
3129,-22.37
3141,-21.85
3153,-22.16
3165,-23.33
3177,-25.18
3189,-27.48
3201,-30.02
3213,-32.55
3225,-34.79
3237,-36.25
3249,-36.34
3261,-34.44
3273,-30.2
3285,-23.68
3297,-15.4
3308,-6.24
3319,2.9
3331,11.3
3343,18.58
3355,24.65
3367,29.54
3379,33.17
3391,35.37
3403,35.93
3415,34.84
3427,32.43
3439,29.28
3451,26.07
3463,23.37
3475,21.37
3487,19.99
3498,19.04
3509,18.37
3521,17.97
3533,17.87
3545,18.06
3557,18.3
3569,18.3
3581,17.84
3593,16.92
3605,15.81
3617,14.81
3629,14.06
3641,13.46
3653,12.67
3665,11.37
3677,9.38
3688,6.77
3699,3.77
3711,0.61
3723,-2.56
3735,-5.65
3747,-8.62
3759,-11.39
3771,-13.89
3783,-16.14
3795,-18.28
3807,-20.47
3819,-22.77
3831,-25.09
3843,-27.18
3855,-28.86
3867,-30.18
3878,-31.44
3889,-33.11
3901,-35.58
3913,-38.91
3925,-42.71
3937,-46.27
3949,-48.72
3961,-49.33
3973,-47.68
3985,-43.71
3997,-37.64
4009,-29.88
4021,-20.89
4033,-11.17
4045,-1.27
4057,8.24
4068,16.76
4079,23.78
4091,29.0
4103,32.33
4115,33.92
4127,34.04
4139,33.07
4151,31.34
4163,29.24
4175,27.12
4187,25.3
4199,24.01
4211,23.29
4223,23.02
4235,23.01
4247,23.04
4258,22.97
4269,22.75
4281,22.38
4293,21.86
4305,21.21
4317,20.37
4329,19.27
4341,17.83
4353,15.94
4365,13.56
4377,10.71
4389,7.53
4401,4.23
4413,1.06
4425,-1.81
4437,-4.34
4448,-6.62
4459,-8.83
4471,-11.12
4483,-13.56
4495,-16.08
4507,-18.58
4519,-20.95
4531,-23.19
4543,-25.32
4555,-27.4
4567,-29.39
4579,-31.28
4591,-33.1
4603,-34.99
4615,-37.21
4627,-39.98
4638,-43.3
4649,-46.85
4661,-49.98
4673,-51.87
4685,-51.73
4697,-49.16
4709,-44.16
4721,-37.19
4733,-28.95
4745,-20.13
4757,-11.34
4769,-3.02
4781,4.52
4793,10.98
4805,16.12
4817,19.74
4828,21.78
4839,22.4
4851,21.94
4863,20.81
4875,19.39
4887,17.95
4899,16.6
4911,15.35
4923,14.17
4935,13.03
4947,12.01
4959,11.23
4971,10.8
4983,10.8
4995,11.22
5007,11.88
5018,12.54
5029,12.91
5041,12.81
5053,12.21
5065,11.2
5077,9.98
5089,8.78
5101,7.7
5113,6.67
5125,5.51
5137,3.96
5149,1.91
5161,-0.57
5173,-3.17
5185,-5.49
5197,-7.25
5208,-8.35
5219,-9.03
5231,-9.6
5243,-10.3
5255,-11.22
5267,-12.23
5279,-13.11
5291,-13.76
5303,-14.17
5315,-14.52
5327,-14.96
5339,-15.61
5351,-16.52
5363,-17.72
5375,-19.2
5387,-21.0
5398,-23.06
5409,-25.15
5421,-26.82
5433,-27.47
5445,-26.43
5457,-23.24
5469,-17.79
5481,-10.31
5493,-1.42
5505,8.14
5517,17.66
5529,26.59
5541,34.57
5553,41.41
5565,46.92
5577,50.95
5588,53.4
5599,54.3
5611,53.86
5623,52.44
5635,50.5
5647,48.45
5659,46.6
5671,44.98
5683,43.5
5695,41.98
5707,40.22
5719,38.13
5731,35.82
5743,33.54
5755,31.61
5767,30.31
5778,29.62
5789,29.3
5801,28.84
5813,27.63
5825,25.19
5837,21.33
5849,16.21
5861,10.3
5873,4.22
5885,-1.47
5897,-6.37
5909,-10.34
5921,-13.46
5933,-15.92
5945,-17.98
5957,-19.83
5968,-21.6
5979,-23.33
5991,-25.0
6003,-26.6
6015,-28.12
6027,-29.63
6039,-31.26
6051,-33.17
6063,-35.54
6075,-38.41
6087,-41.6
6099,-44.74
6111,-47.25
6123,-48.52
6135,-48.09
6147,-45.7
6158,-41.39
6169,-35.47
6181,-28.4
6193,-20.75
6205,-13.05
6217,-5.81
6229,0.57
6241,5.76
6253,9.51
6265,11.67
6277,12.26
6289,11.42
6301,9.47
6313,6.81
6325,3.89
6337,1.11
6348,-1.26
6359,-3.09
6371,-4.37
6383,-5.15
6395,-5.49
6407,-5.47
6419,-5.11
6431,-4.41
6443,-3.32
6455,-1.78
6467,0.25
6479,2.69
6491,5.37
6503,7.96
6515,10.1
6527,11.48
6538,11.98
6549,11.71
6561,10.99
6573,10.27
6585,9.99
6597,10.4
6609,11.52
6621,13.08
6633,14.65
6645,15.69
6657,15.77
6669,14.54
6681,11.89
6693,7.89
6705,2.82
6717,-2.89
6728,-8.76
6739,-14.39
6751,-19.61
6763,-24.45
6775,-29.13
6787,-33.83
6799,-38.41
6811,-42.44
6823,-45.19
6835,-45.94
6847,-44.28
6859,-40.18
6871,-34.03
6883,-26.37
6895,-17.74
6907,-8.54
6918,0.93
6929,10.34
6941,19.3
6953,27.34
6965,33.98
6977,38.89
6989,41.98
7001,43.44
7013,43.71
7025,43.35
7037,42.9
7049,42.71
7061,42.86
7073,43.11
7085,43.03
7097,42.14
7108,40.17
7119,37.13
7131,33.33
7143,29.23
7155,25.27
7167,21.65
7179,18.39
7191,15.33
7203,12.36
7215,9.41
7227,6.56
7239,3.87
7251,1.38
7263,-0.97
7275,-3.26
7287,-5.49
7298,-7.58
7309,-9.4
7321,-10.87
7333,-12.12
7345,-13.44
7357,-15.11
7369,-17.37
7381,-20.19
7393,-23.35
7405,-26.53
7417,-29.42
7429,-31.81
7441,-33.64
7453,-35.0
7465,-36.09
7477,-37.18
7488,-38.62
7499,-40.67
7511,-43.46
7523,-46.76
7535,-49.95
7547,-52.13
7559,-52.31
7571,-49.75
7583,-44.18
7595,-35.92
7607,-25.76
7619,-14.73
7631,-3.81
7643,6.27
7655,15.03
7667,22.28
7678,27.96
7689,32.09
7701,34.72
7713,35.96
7725,35.95
7737,34.9
7749,33.05
7761,30.61
7773,27.83
7785,24.92
7797,22.06
7809,19.39
7821,17.0
7833,14.97
7845,13.36
7857,12.21
7868,11.5
7879,11.09
7891,10.76
7903,10.26
7915,9.38
7927,8.04
7939,6.27
7951,4.23
7963,2.05
7975,-0.14
7987,-2.28
7999,-4.42
8011,-6.64
8023,-9.04
8035,-11.68
8047,-14.51
8058,-17.34
8069,-19.97
8081,-22.15
8093,-23.77
8105,-24.88
8117,-25.71
8129,-26.57
8141,-27.74
8153,-29.35
8165,-31.3
8177,-33.36
8189,-35.2
8201,-36.61
8213,-37.57
8225,-38.28
8237,-39.11
8248,-40.4
8259,-42.27
8271,-44.47
8283,-46.36
8295,-47.1
8307,-45.88
8319,-42.22
8331,-36.1
8343,-27.94
8355,-18.47
8367,-8.49
8379,1.29
8391,10.36
8403,18.46
8415,25.48
8427,31.36
8438,36.13
8449,39.79
8461,42.37
8473,43.91
8485,44.53
8497,44.41
8509,43.8
8521,42.97
8533,42.21
8545,41.68
8557,41.44
8569,41.36
8581,41.25
8593,40.91
8605,40.27
8617,39.39
8628,38.4
8639,37.41
8651,36.39
8663,35.2
8675,33.65
8687,31.67
8699,29.37
8711,26.99
8723,24.74
8735,22.7
8747,20.77
8759,18.75
8771,16.5
8783,14.01
8795,11.43
8807,8.92
8818,6.57
8829,4.33
8841,2.06
8853,-0.38
8865,-2.99
8877,-5.68
8889,-8.33
8901,-10.86
8913,-13.32
8925,-15.85
8937,-18.59
8949,-21.62
8961,-24.87
8973,-28.1
8985,-30.98
8997,-33.06
9008,-33.88
9019,-33.08
9031,-30.38
9043,-25.8
9055,-19.61
9067,-12.4
9079,-4.85
9091,2.36
9103,8.77
9115,14.17
9127,18.53
9139,21.86
9151,24.11
9163,25.16
9175,24.93
9187,23.47
9198,21.08
9209,18.29
9221,15.62
9233,13.51
9245,12.16
9257,11.54
9269,11.48
9281,11.81
9293,12.33
9305,12.86
9317,13.27
9329,13.45
9341,13.35
9353,13.0
9365,12.47
9377,11.83
9388,11.13
9399,10.28
9411,9.16
9423,7.64
9435,5.66
9447,3.27
9459,0.6
9471,-2.19
9483,-4.94
9495,-7.5
9507,-9.83
9519,-11.88
9531,-13.67
9543,-15.24
9555,-16.68
9567,-18.1
9578,-19.69
9589,-21.55
9601,-23.69
9613,-25.97
9625,-28.14
9637,-30.02
9649,-31.6
9661,-33.17
9673,-35.07
9685,-37.57
9697,-40.53
9709,-43.43
9721,-45.38
9733,-45.57
9745,-43.42
9757,-38.89
9768,-32.34
9779,-24.43
9791,-15.86
9803,-7.24
9815,0.96
9827,8.41
9839,14.83
9851,20.06
9863,23.98
9875,26.6
9887,28.03
9899,28.52
9911,28.31
9923,27.56
9935,26.35
9947,24.7
9958,22.65
9969,20.4
9981,18.29
9993,16.72
10005,15.94
10017,15.94
10029,16.41
10041,16.84
10053,16.82
10065,16.16
10077,15.0
10089,13.63
10101,12.33
10113,11.18
10125,10.07
10137,8.79
10148,7.16
10159,5.1
10171,2.69
10183,0.08
10195,-2.57
10207,-5.11
10219,-7.46
10231,-9.56
10243,-11.4
10255,-12.98
10267,-14.36
10279,-15.63
10291,-16.94
10303,-18.41
10315,-20.1
10327,-21.94
10338,-23.77
10349,-25.36
10361,-26.53
10373,-27.25
10385,-27.64
10397,-28.0
10409,-28.66
10421,-29.86
10433,-31.61
10445,-33.57
10457,-35.18
10469,-35.67
10481,-34.41
10493,-30.99
10505,-25.44
10517,-18.18
10528,-9.88
10539,-1.26
10551,7.1
10563,14.84
10575,21.74
10587,27.57
10599,32.12
10611,35.18
10623,36.67
10635,36.74
10647,35.79
10659,34.32
10671,32.76
10683,31.39
10695,30.27
10707,29.33
10718,28.44
10729,27.57
10741,26.71
10753,25.94
10765,25.27
10777,24.71
10789,24.23
10801,23.73
10813,23.15
10825,22.4
10837,21.35
10849,19.91
10861,18.08
10873,15.91
10885,13.58
10897,11.28
10908,9.12
10919,7.08
10931,5.05
10943,2.87
10955,0.44
10967,-2.21
10979,-4.91
10991,-7.51
11003,-9.88
11015,-12.04
11027,-14.13
11039,-16.32
11051,-18.75
11063,-21.46
11075,-24.34
11087,-27.19
11098,-29.83
11109,-32.16
11121,-34.22
11133,-36.19
11145,-38.31
11157,-40.81
11169,-43.81
11181,-47.25
11193,-50.86
11205,-54.13
11217,-56.4
11229,-56.99
11241,-55.37
11253,-51.37
11265,-45.23
11277,-37.5
11288,-28.87
11299,-19.94
11311,-11.18
11323,-2.91
11335,4.59
11347,10.96
11359,15.89
11371,19.15
11383,20.74
11395,20.93
11407,20.18
11419,18.95
11431,17.59
11443,16.34
11455,15.3
11467,14.53
11478,14.04
11489,13.83
11501,13.91
11513,14.24
11525,14.8
11537,15.57
11549,16.54
11561,17.64
11573,18.73
11585,19.6
11597,20.02
11609,19.87
11621,19.17
11633,18.06
11645,16.74
11657,15.36
11668,13.97
11679,12.55
11691,11.05
11703,9.48
11715,7.91
11727,6.43
11739,5.09
11751,3.91
11763,2.86
11775,1.91
11787,1.02
11799,0.16
11811,-0.78
11823,-1.91
11835,-3.33
11847,-4.98
11858,-6.68
11869,-8.14
11881,-9.12
11893,-9.55
11905,-9.66
11917,-9.85
11929,-10.58
11941,-12.09
11953,-14.22
11965,-16.44
11977,-17.97
11989,-18.03
12001,-16.11
12013,-12.16
12025,-6.56
12037,0.01
12048,6.87
12059,13.48
12071,19.56
12083,25.02
12095,29.81
12107,33.82
12119,36.86
12131,38.71
12143,39.21
12155,38.39
12167,36.51
12179,33.98
12191,31.29
12203,28.81
12215,26.75
12227,25.14
12238,23.89
12249,22.9
12261,22.07
12273,21.38
12285,20.82
12297,20.35
12309,19.82
12321,19.08
12333,17.95
12345,16.34
12357,14.27
12369,11.87
12381,9.33
12393,6.82
12405,4.47
12417,2.24
12428,0.08
12439,-2.13
12451,-4.46
12463,-6.88
12475,-9.29
12487,-11.55
12499,-13.54
12511,-15.24
12523,-16.78
12535,-18.32
12547,-20.03
12559,-22.0
12571,-24.19
12583,-26.41
12595,-28.39
12607,-29.96
12618,-31.1
12629,-32.02
12641,-33.02
12653,-34.41
12665,-36.33
12677,-38.7
12689,-41.2
12701,-43.39
12713,-44.77
12725,-44.91
12737,-43.44
12749,-40.13
12761,-34.97
12773,-28.13
12785,-20.0
12797,-11.17
12808,-2.31
12819,5.96
12831,13.19
12843,19.07
12855,23.51
12867,26.46
12879,27.97
12891,28.13
12903,27.13
12915,25.29
12927,23.04
12939,20.85
12951,19.05
12963,17.83
12975,17.18
12987,16.96
12998,17.01
13009,17.16
13021,17.33
13033,17.44
13045,17.47
13057,17.35
13069,17.07
13081,16.6
13093,15.92
13105,14.98
13117,13.72
13129,12.13
13141,10.29
13153,8.32
13165,6.4
13177,4.61
13188,2.93
13199,1.26
13211,-0.52
13223,-2.46
13235,-4.46
13247,-6.42
13259,-8.19
13271,-9.74
13283,-11.16
13295,-12.6
13307,-14.19
13319,-15.94
13331,-17.78
13343,-19.55
13355,-21.15
13367,-22.59
13378,-23.94
13389,-25.34
13401,-26.95
13413,-28.9
13425,-31.22
13437,-33.84
13449,-36.52
13461,-38.82
13473,-40.15
13485,-39.94
13497,-37.77
13509,-33.51
13521,-27.34
13533,-19.79
13545,-11.47
13557,-2.99
13568,5.09
13579,12.39
13591,18.58
13603,23.52
13615,27.16
13627,29.58
13639,30.98
13651,31.58
13663,31.53
13675,30.91
13687,29.73
13699,28.04
13711,25.99
13723,23.82
13735,21.83
13747,20.27
13758,19.26
13769,18.76
13781,18.6
13793,18.59
13805,18.51
13817,18.18
13829,17.51
13841,16.42
13853,14.93
13865,13.14
13877,11.21
13889,9.28
13901,7.49
13913,5.84
13925,4.22
13937,2.48
13948,0.5
13959,-1.75
13971,-4.12
13983,-6.37
13995,-8.27
14007,-9.7
14019,-10.73
14031,-11.63
14043,-12.69
14055,-14.15
14067,-16.06
14079,-18.25
14091,-20.43
14103,-22.35
14115,-23.83
14127,-24.89
14138,-25.71
14149,-26.51
14161,-27.57
14173,-29.09
14185,-31.18
14197,-33.79
14209,-36.76
14221,-39.76
14233,-42.3
14245,-43.8
14257,-43.68
14269,-41.5
14281,-37.05
14293,-30.54
14305,-22.5
14317,-13.67
14328,-4.86
14339,3.26
14351,10.27
14363,16.01
14375,20.44
14387,23.61
14399,25.57
14411,26.38
14423,26.18
14435,25.18
14447,23.63
14459,21.81
14471,19.96
14483,18.24
14495,16.8
14507,15.67
14518,14.83
14529,14.23
14541,13.74
14553,13.2
14565,12.49
14577,11.52
14589,10.29
14601,8.88
14613,7.37
14625,5.83
14637,4.32
14649,2.87
14661,1.52
14673,0.3
14685,-0.84
14697,-2.02
14708,-3.37
14719,-5.04
14731,-7.02
14743,-9.14
14755,-11.14
14767,-12.68
14779,-13.54
14791,-13.74
14803,-13.48
14815,-13.17
14827,-13.19
14839,-13.77
14851,-14.93
14863,-16.46
14875,-18.02
14887,-19.28
14898,-20.04
14909,-20.31
14921,-20.27
14933,-20.23
14945,-20.48
14957,-21.31
14969,-22.8
14981,-24.9
14993,-27.25
15005,-29.29
15017,-30.3
15029,-29.57
15041,-26.58
15053,-21.16
15065,-13.57
15077,-4.42
15088,5.49
15099,15.33
15111,24.42
15123,32.25
15135,38.52
15147,43.1
15159,46.05
15171,47.57
15183,47.99
15195,47.7
15207,47.01
15219,46.13
15231,45.14
15243,44.04
15255,42.8
15267,41.45
15278,40.04
15289,38.62
15301,37.22
15313,35.78
15325,34.22
15337,32.47
15349,30.5
15361,28.33
15373,26.01
15385,23.63
15397,21.28
15409,19.04
15421,16.94
15433,14.95
15445,12.91
15457,10.64
15468,7.95
15479,4.83
15491,1.43
15503,-1.94
15515,-4.9
15527,-7.21
15539,-8.87
15551,-10.09
15563,-11.23
15575,-12.62
15587,-14.43
15599,-16.61
15611,-18.99
15623,-21.31
15635,-23.38
15647,-25.12
15658,-26.56
15669,-27.86
15681,-29.23
15693,-30.84
15705,-32.7
15717,-34.59
15729,-36.01
15741,-36.33
15753,-35.01
15765,-31.74
15777,-26.62
15789,-20.07
15801,-12.65
15813,-4.96
15825,2.51
15837,9.37
15848,15.35
15859,20.21
15871,23.78
15883,26.0
15895,26.91
15907,26.75
15919,25.8
15931,24.43
15943,22.93
15955,21.53
15967,20.32
15979,19.29
15991,18.4
16003,17.63
16015,17.02
16027,16.65
16038,16.52
16049,16.6
16061,16.69
16073,16.57
16085,16.02
16097,14.96
16109,13.47
16121,11.75
16133,9.99
16145,8.32
16157,6.76
16169,5.23
16181,3.63
16193,1.9
16205,-0.01
16217,-2.09
16228,-4.35
16239,-6.73
16251,-9.16
16263,-11.45
16275,-13.46
16287,-15.11
16299,-16.5
16311,-17.84
16323,-19.35
16335,-21.14
16347,-23.07
16359,-24.89
16371,-26.28
16383,-27.16
16395,-27.75
16407,-28.45
16418,-29.72
16429,-31.81
16441,-34.59
16453,-37.63
16465,-40.31
16477,-42.0
16489,-42.21
16501,-40.62
16513,-37.14
16525,-31.83
16537,-24.91
16549,-16.79
16561,-8.05
16573,0.65
16585,8.68
16597,15.62
16608,21.26
16619,25.61
16631,28.75
16643,30.75
16655,31.66
16667,31.57
16679,30.64
16691,29.15
16703,27.45
16715,25.84
16727,24.51
16739,23.53
16751,22.84
16763,22.39
16775,22.11
16787,21.96
16798,21.86
16809,21.74
16821,21.5
16833,21.07
16845,20.42
16857,19.54
16869,18.41
16881,17.05
16893,15.47
16905,13.72
16917,11.87
16929,9.89
16941,7.75
16953,5.37
16965,2.72
16977,-0.14
16988,-3.05
16999,-5.77
17011,-8.06
17023,-9.8
17035,-10.98
17047,-11.71
17059,-12.2
17071,-12.7
17083,-13.41
17095,-14.5
17107,-16.05
17119,-18.02
17131,-20.28
17143,-22.64
17155,-24.9
17167,-26.99
17178,-28.93
17189,-30.87
17201,-33.02
17213,-35.56
17225,-38.52
17237,-41.78
17249,-45.0
17261,-47.66
17273,-49.12
17285,-48.81
17297,-46.26
17309,-41.36
17321,-34.39
17333,-26.02
17345,-17.1
17357,-8.43
17368,-0.54
17379,6.31
17391,12.15
17403,17.08
17415,21.11
17427,24.18
17439,26.15
17451,27.0
17463,26.84
17475,25.93
17487,24.53
17499,22.87
17511,21.07
17523,19.24
17535,17.48
17547,15.97
17558,14.91
17569,14.38
17581,14.32
17593,14.52
17605,14.66
17617,14.46
17629,13.74
17641,12.52
17653,10.94
17665,9.19
17677,7.47
17689,5.88
17701,4.4
17713,3.01
17725,1.66
17737,0.33
17748,-0.96
17759,-2.21
17771,-3.45
17783,-4.75
17795,-6.18
17807,-7.68
17819,-9.09
17831,-10.21
17843,-10.87
17855,-11.06
17867,-10.9
17879,-10.58
17891,-10.25
17903,-9.93
17915,-9.6
17927,-9.24
17938,-8.93
17949,-8.86
17961,-9.22
17973,-10.08
17985,-11.37
17997,-12.88
18009,-14.4
18021,-15.86
18033,-17.32
18045,-19.0
18057,-21.04
18069,-23.39
18081,-25.72
18093,-27.49
18105,-28.05
18117,-26.95
18128,-23.97
18139,-19.24
18151,-13.21
18163,-6.45
18175,0.46
18187,7.05
18199,12.95
18211,17.93
18223,21.86
18235,24.63
18247,26.26
18259,26.81
18271,26.4
18283,25.28
18295,23.69
18307,21.86
18318,20.01
18329,18.26
18341,16.71
18353,15.44
18365,14.53
18377,14.01
18389,13.9
18401,14.12
18413,14.51
18425,14.88
18437,15.08
18449,14.95
18461,14.37
18473,13.2
18485,11.3
18497,8.54
18508,4.9
18519,0.57
18531,-4.1
18543,-8.68
18555,-12.79
18567,-16.26
18579,-19.15
18591,-21.71
18603,-24.2
18615,-26.82
18627,-29.53
18639,-32.1
18651,-34.1
18663,-34.98
18675,-34.21
18687,-31.39
18698,-26.48
18709,-19.81
18721,-12.14
18733,-4.46
18745,2.2
18757,6.98
18769,9.47
18781,9.66
18793,7.91
18805,4.77
18817,0.73
18829,-3.85
18841,-8.81
18853,-14.2
18865,-20.09
18877,-26.42
18888,-32.87
18899,-38.81
18911,-43.45
18923,-45.98
18935,-45.82
18947,-42.78
18959,-37.18
18971,-29.65
18983,-20.96
18995,-11.82
19007,-2.72
19019,6.01
19031,14.07
19043,21.18
19055,27.12
19067,31.65
19078,34.81
19089,37.21
19101,39.91
19113,43.97
19125,50.25
19137,58.85
19149,69.37
19161,80.96
19173,92.37
19185,102.55
19197,111.15
19209,118.74
19221,126.1
19233,134.06
19245,142.5
19257,150.85
19268,158.18
19279,162.92
19291,163.62
19303,159.63
19315,151.44
19327,140.06
19339,127.25
19351,114.36
19363,102.8
19375,93.45
19387,85.26
19399,75.58
19411,61.16
19423,39.6
19435,9.59
19447,-27.72
19458,-70.34
19469,-113.84
19481,-148.68
19493,-166.73
19505,-167.07
19517,-154.97
19529,-135.87
19541,-117.74
19553,-99.98
19565,-82.27
19577,-65.67
19589,-52.18
19601,-44.52
19613,-42.15
19625,-43.73
19637,-46.48
19648,-48.68
19659,-49.45
19671,-50.06
19683,-52.25
19695,-56.91
19707,-64.29
19719,-73.46
19731,-82.6
19743,-89.31
19755,-92.63
19767,-91.71
19779,-86.72
19791,-78.41
19803,-67.93
19815,-57.56
19827,-49.68
19838,-46.18
19849,-42.13
19861,-34.8
19873,-23.73
19885,-11.04
19897,0.91
19909,11.15
19921,19.33
19933,25.53
19945,29.64
19957,31.71
19969,31.41
19981,29.44
19993,27.55
20005,25.66
20017,25.27
20028,26.91
20039,30.53
20051,35.01
20063,39.1
20075,41.42
20087,41.67
20099,41.24
20111,40.61
20123,40.24
20135,40.39
20147,41.39
20159,43.96
20171,47.69
20183,51.56
20195,54.68
20207,57.73
20218,59.22
20229,57.63
20241,52.14
20253,42.71
20265,28.61
20277,8.67
20289,-17.96
20301,-51.0
20313,-87.18
20325,-125.79
20337,-166.75
20349,-210.07
20361,-243.24
20373,-252.91
20385,-230.69
20397,-176.7
20408,-108.85
20419,-26.78
20431,70.0
20443,178.19
20455,291.05
20467,394.62
20479,472.68
20491,512.49
20503,508.77
20515,465.0
20527,393.46
20539,306.74
20551,216.13
20563,130.03
20575,53.09
20587,-13.98
20598,-72.28
20609,-122.86
20621,-165.74
20633,-199.32
20645,-224.63
20657,-244.1
20669,-260.18
20681,-274.67
20693,-289.11
20705,-305.15
20717,-325.09
20729,-351.75
20741,-386.39
20753,-428.79
20765,-474.55
20777,-514.72
20788,-538.23
20799,-536.05
20811,-504.6
20823,-446.84
20835,-370.92
20847,-287.09
20859,-206.59
20871,-139.54
20883,-93.73
20895,-73.25
20907,-77.0
20919,-97.93
20931,-124.35
20943,-143.49
20955,-145.91
20967,-129.0
20978,-96.88
20989,-57.24
