seconds,BVP
8,-17.17
20,-13.15
31,-7.25
42,-1.22
54,3.58
66,6.64
78,8.24
90,9.05
102,9.56
114,10.04
126,10.45
138,10.52
150,10.04
162,8.95
174,7.33
186,5.33
198,3.13
210,0.75
221,-1.62
232,-3.86
244,-6.05
256,-8.42
268,-11.29
280,-14.78
292,-18.78
304,-22.94
316,-27.03
328,-30.78
340,-34.0
352,-36.76
364,-39.27
376,-41.93
388,-45.27
400,-50.03
411,-55.51
422,-61.6
434,-67.66
446,-72.26
458,-73.41
470,-69.14
482,-58.36
494,-41.37
506,-19.74
518,3.92
530,26.59
542,46.12
554,61.54
566,72.84
578,80.49
590,85.01
601,86.86
612,86.73
624,85.15
636,82.39
648,78.83
660,74.96
672,71.2
684,67.74
696,64.44
708,60.86
720,56.82
732,51.84
744,45.45
756,37.71
768,29.3
780,20.98
791,13.22
802,5.99
814,-2.87
826,-12.69
838,-20.99
850,-25.6
862,-26.19
874,-24.04
886,-21.25
898,-19.78
910,-20.81
922,-24.37
934,-29.11
946,-33.86
958,-38.02
970,-41.52
981,-44.42
992,-46.65
1004,-47.89
1016,-47.68
1028,-46.16
1040,-42.92
1052,-38.6
1064,-34.5
1076,-31.87
1088,-31.22
1100,-32.1
1112,-33.33
1124,-33.51
1136,-31.63
1148,-27.1
1160,-20.51
1171,-13.25
1182,-6.7
1194,-1.8
1206,1.31
1218,3.11
1230,4.44
1242,5.17
1254,5.7
1266,6.19
1278,6.73
1290,7.41
1302,8.47
1314,10.1
1326,12.34
1338,14.92
1350,17.28
1361,19.03
1372,19.78
1384,19.47
1396,18.43
1408,17.25
1420,16.52
1432,16.54
1444,17.17
1456,17.9
1468,18.17
1480,17.48
1492,15.62
1504,12.74
1516,9.26
1528,5.67
1540,2.37
1551,-0.52
1562,-3.04
1574,-5.27
1586,-7.33
1598,-9.3
1610,-11.22
1622,-13.14
1634,-15.1
1646,-17.09
1658,-19.04
1670,-20.86
1682,-22.41
1694,-23.7
1706,-24.91
1718,-26.29
1730,-28.02
1741,-30.02
1752,-31.87
1764,-32.91
1776,-32.43
1788,-29.96
1800,-25.45
1812,-19.33
1824,-12.36
1836,-5.4
1848,0.81
1860,5.84
1872,9.65
1884,12.45
1896,14.69
1908,16.8
1920,19.09
1931,21.67
1942,24.39
1954,26.92
1966,28.93
1978,30.21
1990,30.78
2002,30.84
2014,30.72
2026,30.64
2038,30.7
2050,30.82
2062,30.86
2074,30.66
2086,30.07
2098,28.93
2110,27.15
2121,24.81
2132,22.18
2144,19.72
2156,17.93
2168,17.08
2180,17.02
2192,17.2
2204,16.85
2216,15.38
2228,12.57
2240,8.7
2252,4.35
2264,0.16
2276,-3.44
2288,-6.32
2300,-8.58
2311,-10.41
2322,-11.99
2334,-13.46
2346,-14.96
2358,-16.63
2370,-18.64
2382,-21.0
2394,-23.51
2406,-25.66
2418,-26.75
2430,-26.13
2442,-23.46
2454,-18.91
2466,-13.09
2478,-6.84
2490,-0.94
2501,4.15
2512,8.31
2524,11.73
2536,14.73
2548,17.64
2560,20.66
2572,23.9
2584,27.3
2596,30.67
2608,33.69
2620,36.09
2632,37.7
2644,38.58
2656,39.01
2668,39.29
2680,39.6
2691,39.88
2702,39.79
2714,38.94
2726,37.05
2738,34.02
2750,29.94
2762,25.03
2774,19.51
2786,13.71
2798,8.01
2810,2.89
2822,-1.22
2834,-4.13
2846,-6.02
2858,-7.44
2870,-9.08
2881,-11.54
2892,-15.05
2904,-19.45
2916,-24.28
2928,-28.93
2940,-32.85
2952,-35.64
2964,-37.19
2976,-37.74
2988,-37.79
3000,-38.06
3012,-39.23
3024,-41.77
3036,-45.76
3048,-50.81
3060,-56.19
3071,-60.99
3082,-64.4
3094,-65.98
3106,-65.78
3118,-64.33
3130,-62.48
3142,-61.02
3154,-60.44
3166,-60.68
3178,-61.27
3190,-61.5
3202,-60.73
3214,-58.56
3226,-54.89
3238,-49.8
3250,-43.52
3261,-36.45
3272,-29.17
3284,-22.48
3296,-17.19
3308,-13.83
3320,-12.38
3332,-12.16
3344,-11.84
3356,-9.88
3368,-4.89
3380,3.96
3392,16.74
3404,32.78
3416,50.91
3428,69.74
3440,87.99
3451,104.62
3462,118.91
3474,130.37
3486,138.74
3498,143.98
3510,146.4
3522,146.63
3534,145.43
3546,143.39
3558,140.65
3570,136.84
3582,131.35
3594,123.83
3606,114.52
3618,104.35
3630,94.52
3641,85.99
3652,79.12
3664,73.64
3676,69.03
3688,64.97
3700,61.51
3712,58.93
3724,57.33
3736,56.39
3748,55.41
3760,53.81
3772,51.81
3784,50.96
3796,53.98
3808,63.89
3820,82.54
3831,109.25
3842,140.25
3854,169.33
3866,189.82
3878,197.15
3890,190.78
3902,174.6
3914,155.43
3926,140.35
3938,133.58
3950,134.6
3962,138.36
3974,137.22
3986,123.89
3998,93.98
4010,47.44
4021,-11.17
4032,-73.52
4044,-129.62
4056,-170.61
4068,-191.76
4080,-194.5
4092,-186.43
4104,-178.85
4116,-182.59
4128,-203.42
4140,-239.28
4152,-281.2
4164,-317.26
4176,-337.91
4188,-339.87
4200,-327.17
4211,-309.05
4222,-296.26
4234,-296.29
4246,-310.3
4258,-333.2
4270,-356.57
4282,-372.49
4294,-376.37
4306,-367.53
4318,-347.9
4330,-320.92
4342,-288.61
4354,-250.34
4366,-203.69
4378,-147.07
4390,-81.74
4401,-11.88
4412,56.62
4424,117.55
4436,163.62
4448,189.16
4460,192.58
4472,177.53
4484,151.39
4496,122.92
4508,100.09
4520,87.87
4532,86.76
4544,90.52
4556,90.0
4568,77.93
4580,51.78
4591,12.94
4602,-35.38
4614,-89.38
4626,-145.99
4638,-186.51
4650,-195.12
4662,-170.65
4674,-127.9
4686,-83.63
4698,-46.65
4710,-18.42
4722,2.75
4734,18.78
4746,31.54
4758,41.81
4770,50.9
4781,61.43
4792,76.37
4804,96.11
4816,119.46
4828,142.7
4840,161.13
4852,171.34
4864,171.6
4876,162.52
4888,147.19
4900,130.47
4912,116.82
4924,104.35
4936,94.69
4948,93.28
4960,98.44
4971,106.05
4982,111.18
4994,110.11
5006,101.99
5018,83.75
5030,57.31
5042,27.59
5054,-0.09
5066,-21.92
5078,-36.04
5090,-43.14
5102,-45.4
5114,-45.06
5126,-43.67
5138,-41.23
5150,-37.04
5161,-30.99
5172,-23.92
5184,-16.33
5196,-8.55
5208,-0.66
5220,7.15
5232,14.0
5244,18.87
5256,20.77
5268,19.09
5280,14.07
5292,7.38
5304,0.77
5316,-4.99
5328,-10.66
5340,-17.97
5351,-28.09
5362,-40.89
5374,-54.8
5386,-67.15
5398,-74.69
5410,-74.75
5422,-66.02
5434,-48.84
5446,-25.13
5458,2.28
5470,30.15
5482,55.31
5494,75.24
5506,88.58
5518,95.09
5530,95.6
5541,91.69
5552,85.38
5564,78.75
5576,73.4
5588,70.06
5600,68.47
5612,67.67
5624,66.46
5636,64.07
5648,60.45
5660,56.28
5672,52.53
5684,49.96
5696,48.77
5708,48.62
5720,48.92
5731,49.07
5742,48.65
5754,47.41
5766,45.21
5778,41.99
5790,37.74
5802,32.57
5814,26.8
5826,21.0
5838,15.69
5850,11.37
5862,8.47
5874,7.27
5886,7.86
5898,9.91
5910,12.63
5921,15.06
5932,16.54
5944,16.73
5956,15.88
5968,14.65
5980,13.82
5992,13.93
6004,14.86
6016,15.87
6028,15.96
6040,14.58
6052,11.16
6064,5.66
6076,-1.41
6088,-9.03
6100,-15.67
6111,-20.09
6122,-21.78
6134,-21.02
6146,-18.36
6158,-15.25
6170,-12.77
6182,-11.24
6194,-10.21
6206,-8.88
6218,-7.43
6230,-7.41
6242,-12.8
6254,-25.59
6266,-45.46
6278,-69.41
6290,-93.72
6301,-117.16
6312,-138.37
6324,-155.81
6336,-168.07
6348,-174.51
6360,-170.17
6372,-154.35
6384,-129.71
6396,-101.11
6408,-73.44
6420,-49.28
6432,-28.69
6444,-10.38
6456,6.52
6468,21.4
6480,31.28
6491,33.47
6502,27.79
6514,17.32
6526,7.5
6538,3.31
6550,6.9
6562,16.8
6574,29.22
6586,39.39
6598,44.41
6610,44.58
6622,42.44
6634,41.04
6646,41.97
6658,44.45
6670,45.83
6681,43.22
6692,34.74
6704,21.01
6716,5.49
6728,-7.48
6740,-14.6
6752,-14.88
6764,-9.58
6776,-1.26
6788,7.42
6800,14.45
6812,19.05
6824,22.11
6836,24.62
6848,26.67
6860,27.53
6871,26.34
6882,22.97
6894,18.3
6906,14.02
6918,12.15
6930,15.19
6942,24.17
6954,37.81
6966,53.11
6978,66.8
6990,76.39
7002,80.76
7014,80.11
7026,70.2
7038,50.76
7050,26.58
7061,4.74
7072,-10.18
7084,-17.71
7096,-19.87
7108,-19.25
7120,-17.94
7132,-17.05
7144,-15.91
7156,-13.39
7168,-9.68
7180,-5.82
7192,-2.88
7204,-1.52
7216,-1.84
7228,-3.43
7240,-5.44
7251,-6.32
7262,-5.16
7274,-2.24
7286,1.36
7298,4.57
7310,6.44
7322,6.46
7334,4.71
7346,1.85
7358,-0.86
7370,-2.54
7382,-3.08
7394,-2.9
7406,-2.48
7418,-2.72
7430,-4.35
7441,-7.39
7452,-10.9
7464,-13.35
7476,-13.58
7488,-11.3
7500,-6.95
7512,-1.38
7524,3.49
7536,5.83
7548,5.02
7560,2.11
7572,-1.0
7584,-2.73
7596,-2.18
7608,0.93
7620,6.41
7631,12.22
7642,15.4
7654,13.35
7666,4.73
7678,-10.92
7690,-33.57
7702,-62.51
7714,-96.26
7726,-124.59
7738,-137.22
7750,-130.95
7762,-111.82
7774,-88.41
7786,-66.05
7798,-46.48
7810,-29.61
7821,-14.91
7832,-1.89
7844,8.41
7856,14.68
7868,16.78
7880,16.18
7892,14.99
7904,14.76
7916,16.15
7928,19.07
7940,23.21
7952,27.12
7964,29.27
7976,29.16
7988,27.67
8000,26.19
8011,25.69
8022,26.4
8034,27.95
8046,30.03
8058,31.69
8070,32.08
8082,31.09
8094,29.43
8106,27.92
8118,26.85
8130,25.84
8142,23.62
8154,20.0
8166,14.57
8178,7.39
8190,-0.82
8201,-8.97
8212,-16.18
8224,-22.35
8236,-27.1
8248,-32.0
8260,-37.7
8272,-44.31
8284,-51.13
8296,-56.94
8308,-60.73
8320,-62.03
8332,-61.36
8344,-59.87
8356,-59.0
8368,-59.62
8380,-62.38
8391,-67.61
8402,-75.06
8414,-83.33
8426,-89.48
8438,-89.45
8450,-79.57
8462,-58.67
8474,-29.05
8486,3.65
8498,32.66
8510,52.86
8522,62.75
8534,64.39
8546,61.74
8558,58.2
8570,55.17
8581,52.26
8592,48.49
8604,43.61
8616,38.61
8628,35.04
8640,33.95
8652,35.11
8664,37.13
8676,38.32
8688,37.27
8700,33.88
8712,29.17
8724,24.81
8736,22.27
8748,22.2
8760,24.14
8771,26.76
8782,28.57
8794,28.62
8806,27.01
8818,24.66
8830,22.95
8842,22.98
8854,25.16
8866,29.2
8878,34.58
8890,40.74
8902,47.19
8914,53.22
8926,57.59
8938,58.68
8950,55.28
8961,47.29
8972,36.09
8984,24.04
8996,13.48
9008,5.57
9020,0.01
9032,-4.42
9044,-8.8
9056,-13.18
9068,-16.71
9080,-18.37
9092,-18.08
9104,-16.97
9116,-17.05
9128,-20.28
9140,-27.62
9151,-38.3
9162,-49.69
9174,-57.98
9186,-59.46
9198,-52.5
9210,-38.09
9222,-20.12
9234,-3.99
9246,5.79
9258,6.6
9270,-0.99
9282,-14.17
9294,-29.52
9306,-43.97
9318,-54.1
9330,-55.95
9341,-45.4
9352,-19.86
9364,19.19
9376,65.01
9388,106.5
9400,132.08
9412,134.0
9424,112.43
9436,74.92
9448,32.9
9460,-3.01
9472,-26.9
9484,-38.37
9496,-40.99
9508,-39.17
9520,-36.52
9531,-34.05
9542,-31.43
9554,-28.39
9566,-25.44
9578,-23.97
9590,-24.99
9602,-28.64
9614,-30.38
9626,-29.07
9638,-24.07
9650,-15.51
9662,-4.61
9674,6.78
9686,16.81
9698,24.41
9710,29.24
9721,32.26
9732,34.14
9744,35.85
9756,37.89
9768,40.16
9780,42.16
9792,43.31
9804,43.25
9816,40.93
9828,36.63
9840,30.03
9852,21.23
9864,10.62
9876,-1.1
9888,-12.96
9900,-23.98
9911,-31.37
9922,-36.22
9934,-39.47
9946,-42.64
9958,-46.55
9970,-51.21
9982,-55.96
9994,-59.94
10006,-62.52
10018,-63.13
10030,-61.54
10042,-56.95
10054,-49.27
10066,-39.42
10078,-29.65
10090,-23.01
10101,-21.78
10112,-26.47
10124,-35.11
10136,-44.66
10148,-52.1
10160,-56.32
10172,-58.37
10184,-60.77
10196,-65.91
10208,-74.4
10220,-84.34
10232,-91.58
10244,-91.43
10256,-80.3
10268,-57.72
10280,-26.94
10291,6.01
10302,34.35
10314,53.62
10326,62.88
10338,64.56
10350,62.42
10362,59.51
10374,56.81
10386,53.51
10398,48.55
10410,41.93
10422,35.14
10434,30.14
10446,28.17
10458,28.85
10470,30.51
10481,31.09
10492,29.05
10504,24.28
10516,17.91
10528,11.74
10540,7.33
10552,5.28
10564,5.07
10576,5.46
10588,5.05
10600,2.97
10612,-0.7
10624,-5.16
10636,-9.24
10648,-12.01
10660,-13.15
10671,-13.01
10682,-12.32
10694,-11.78
10706,-11.67
10718,-11.77
10730,-11.5
10742,-10.24
10754,-7.74
10766,-4.18
10778,-0.24
10790,3.34
10802,6.07
10814,7.98
10826,9.57
10838,11.59
10850,14.58
10861,18.59
10872,23.07
10884,27.13
10896,29.97
10908,31.36
10920,31.79
10932,32.34
10944,34.18
10956,37.96
10968,43.38
10980,49.22
10992,53.84
11004,55.9
11016,55.01
11028,52.0
11040,48.57
11051,46.66
11062,47.68
11074,51.99
11086,58.82
11098,66.32
11110,71.98
11122,73.2
11134,67.84
11146,55.07
11158,35.92
11170,13.36
11182,-8.34
11194,-24.93
11206,-33.77
11218,-34.83
11230,-30.55
11241,-24.59
11252,-20.08
11264,-18.07
11276,-17.29
11288,-15.14
11300,-9.4
11312,0.17
11324,11.43
11336,20.63
11348,24.04
11360,19.5
11372,7.49
11384,-9.22
11396,-26.64
11408,-41.02
11420,-50.06
11431,-53.23
11442,-51.02
11454,-44.03
11466,-32.34
11478,-15.66
11490,5.9
11502,31.15
11514,57.62
11526,82.46
11538,102.71
11550,116.83
11562,125.47
11574,131.17
11586,137.29
11598,146.58
11610,160.06
11621,176.45
11632,192.33
11644,202.99
11656,204.07
11668,193.37
11680,172.11
11692,145.04
11704,119.03
11716,100.57
11728,93.29
11740,96.83
11752,107.47
11764,120.26
11776,131.02
11788,137.39
11800,138.5
11811,133.63
11822,121.88
11834,102.46
11846,75.72
11858,43.83
11870,10.42
11882,-20.67
11894,-46.92
11906,-68.26
11918,-86.94
11930,-106.18
11942,-128.9
11954,-156.84
11966,-190.36
11978,-228.05
11990,-266.59
12001,-300.53
12012,-323.64
12024,-331.6
12036,-323.48
12048,-302.47
12060,-274.45
12072,-245.01
12084,-216.47
12096,-186.83
12108,-150.97
12120,-104.4
12132,-47.8
12144,13.95
12156,74.09
12168,127.24
12180,171.19
12191,206.5
12202,234.57
12214,255.97
12226,268.95
12238,267.35
12250,246.6
12262,206.82
12274,153.42
12286,94.58
12298,37.38
12310,-14.16
12322,-57.94
12334,-94.23
12346,-128.46
12358,-164.34
12370,-202.59
12381,-241.27
12392,-278.15
12404,-313.1
12416,-347.64
12428,-381.92
12440,-416.75
12452,-458.5
12464,-511.26
12476,-574.6
12488,-642.68
12500,-706.68
12512,-759.13
12524,-796.09
12536,-815.51
12548,-778.69
12560,-666.74
12571,-488.04
12582,-277.82
12594,-76.76
12606,90.34
12618,216.79
12630,297.44
12642,347.28
12654,375.26
12666,378.75
12678,354.29
12690,301.99
12702,226.46
12714,139.25
12726,55.73
12738,-11.6
12750,-51.18
12761,-57.9
12772,-37.03
12784,1.76
12796,47.37
12808,90.52
12820,125.71
12832,150.08
12844,163.56
12856,170.16
12868,172.96
12880,171.23
12892,163.67
12904,150.28
12916,133.88
12928,120.51
12940,115.13
12951,119.76
12962,134.31
12974,155.21
12986,176.93
12998,195.04
13010,208.0
13022,212.79
13034,211.67
13046,207.66
13058,202.68
13070,197.64
13082,191.41
13094,182.26
13106,169.0
13118,151.74
13130,131.92
13141,112.45
13152,95.45
13164,81.77
13176,71.28
13188,62.49
13200,54.06
13212,44.98
13224,34.74
13236,23.36
13248,11.82
13260,0.82
13272,-9.4
13284,-17.3
13296,-24.61
13308,-32.41
13320,-41.03
13331,-50.52
13342,-60.63
13354,-70.59
13366,-79.82
13378,-88.02
13390,-95.19
13402,-101.9
13414,-108.54
13426,-115.01
13438,-121.33
13450,-127.45
13462,-133.07
13474,-137.96
13486,-142.05
13498,-145.5
13510,-148.89
13521,-152.72
13532,-156.72
13544,-160.63
13556,-163.97
13568,-165.9
13580,-165.43
13592,-161.56
13604,-153.31
13616,-139.55
13628,-123.78
13640,-107.26
13652,-90.62
13664,-73.85
13676,-56.42
13688,-37.66
13700,-17.14
13711,4.99
13722,27.89
13734,50.42
13746,72.17
13758,92.92
13770,112.95
13782,132.94
13794,153.82
13806,176.58
13818,202.14
13830,230.92
13842,262.33
13854,294.81
13866,324.9
13878,348.03
13890,359.86
13901,357.92
13912,342.62
13924,317.14
13936,286.11
13948,253.89
13960,223.62
13972,196.47
13984,172.34
13996,150.87
14008,132.05
14020,116.23
14032,103.55
14044,93.46
14056,84.6
14068,75.52
14080,65.08
14091,53.0
14102,39.89
14114,26.91
14126,15.15
14138,5.1
14150,-3.45
14162,-11.26
14174,-19.09
14186,-27.29
14198,-35.65
14210,-43.39
14222,-49.6
14234,-53.6
14246,-55.24
14258,-54.93
14270,-53.49
14281,-51.84
14292,-50.71
14304,-50.49
14316,-51.11
14328,-52.22
14340,-53.31
14352,-53.96
14364,-53.95
14376,-53.39
14388,-52.59
14400,-51.97
14412,-51.76
14424,-51.93
14436,-52.21
14448,-52.2
14460,-51.65
14471,-50.58
14482,-49.27
14494,-48.15
14506,-47.63
14518,-47.95
14530,-49.16
14542,-51.07
14554,-53.3
14566,-55.25
14578,-56.12
14590,-55.13
14602,-51.64
14614,-45.48
14626,-36.99
14638,-26.96
14650,-16.47
14661,-6.65
14672,1.5
14684,7.26
14696,10.32
14708,10.83
14720,9.42
14732,7.03
14744,4.68
14756,3.08
14768,2.5
14780,2.69
14792,3.15
14804,3.39
14816,3.22
14828,2.74
14840,2.25
14851,2.09
14862,2.48
14874,3.49
14886,5.07
14898,7.13
14910,9.49
14922,11.9
14934,14.02
14946,15.42
14958,15.73
14970,14.8
14982,12.77
14994,10.01
15006,7.03
15018,4.18
15030,1.62
15041,-0.73
15052,-3.01
15064,-5.24
15076,-7.3
15088,-8.97
15100,-10.04
15112,-10.45
15124,-10.31
15136,-9.8
15148,-9.11
15160,-8.38
15172,-7.76
15184,-7.42
15196,-7.53
15208,-8.24
15220,-9.52
15231,-11.19
15242,-12.96
15254,-14.57
15266,-15.86
15278,-16.82
15290,-17.49
15302,-17.97
15314,-18.29
15326,-18.51
15338,-18.68
15350,-18.89
15362,-19.26
15374,-19.82
15386,-20.52
15398,-21.3
15410,-22.13
15421,-23.11
15432,-24.51
15444,-26.62
15456,-29.58
15468,-33.18
15480,-36.68
15492,-38.98
15504,-38.83
15516,-35.42
15528,-28.67
15540,-19.43
15552,-9.22
15564,0.29
15576,7.78
15588,12.69
15600,15.18
15611,15.86
15622,15.49
15634,14.75
15646,14.18
15658,14.2
15670,15.07
15682,16.84
15694,19.19
15706,21.51
15718,23.1
15730,23.45
15742,22.48
15754,20.63
15766,18.56
15778,16.88
15790,15.89
15801,15.53
15812,15.53
15824,15.59
15836,15.57
15848,15.48
15860,15.44
15872,15.47
15884,15.51
15896,15.4
15908,14.93
15920,14.05
15932,12.76
15944,11.21
15956,9.54
15968,7.88
15980,6.3
15991,4.84
16002,3.5
16014,2.27
16026,1.15
16038,0.18
16050,-0.62
16062,-1.2
16074,-1.51
16086,-1.49
16098,-1.09
16110,-0.33
16122,0.6
16134,1.42
16146,1.74
16158,1.3
16170,0.06
16181,-1.76
16192,-3.73
16204,-5.42
16216,-6.58
16228,-7.28
16240,-7.79
16252,-8.54
16264,-9.75
16276,-11.42
16288,-13.25
16300,-14.88
16312,-16.04
16324,-16.71
16336,-17.11
16348,-17.6
16360,-18.51
16371,-20.1
16382,-22.5
16394,-25.67
16406,-29.36
16418,-33.0
16430,-35.68
16442,-36.33
16454,-34.0
16466,-28.36
16478,-19.89
16490,-9.91
16502,-0.1
16514,8.01
16526,13.56
16538,16.47
16550,17.28
16561,16.76
16572,15.63
16584,14.38
16596,13.34
16608,12.67
16620,12.48
16632,12.72
16644,13.2
16656,13.6
16668,13.59
16680,13.04
16692,12.06
16704,10.99
16716,10.23
16728,10.05
16740,10.48
16751,11.3
16762,12.21
16774,12.94
16786,13.35
16798,13.42
16810,13.22
16822,12.83
16834,12.3
16846,11.68
16858,10.99
16870,10.28
16882,9.63
16894,9.06
16906,8.53
16918,7.93
16930,7.16
16941,6.15
16952,4.93
16964,3.57
16976,2.23
16988,1.03
17000,0.12
17012,-0.45
17024,-0.66
17036,-0.58
17048,-0.37
17060,-0.2
17072,-0.29
17084,-0.81
17096,-1.86
17108,-3.38
17120,-5.2
17131,-6.99
17142,-8.45
17154,-9.41
17166,-9.94
17178,-10.32
17190,-10.9
17202,-11.87
17214,-13.16
17226,-14.46
17238,-15.45
17250,-15.97
17262,-16.18
17274,-16.46
17286,-17.23
17298,-18.79
17310,-21.19
17321,-24.24
17332,-27.51
17344,-30.37
17356,-32.01
17368,-31.63
17380,-28.56
17392,-22.68
17404,-14.57
17416,-5.47
17428,3.09
17440,9.77
17452,13.9
17464,15.6
17476,15.59
17488,14.75
17500,13.69
17511,12.64
17522,11.56
17534,10.34
17546,9.09
17558,8.04
17570,7.43
17582,7.27
17594,7.3
17606,7.19
17618,6.74
17630,6.1
17642,5.67
17654,5.86
17666,6.87
17678,8.51
17690,10.31
17701,11.74
17712,12.39
17724,12.15
17736,11.15
17748,9.66
17760,7.97
17772,6.33
17784,4.94
17796,3.89
17808,3.23
17820,2.92
17832,2.9
17844,3.07
17856,3.34
17868,3.61
17880,3.77
17891,3.69
17902,3.28
17914,2.5
17926,1.39
17938,0.1
17950,-1.21
17962,-2.39
17974,-3.38
17986,-4.2
17998,-4.94
18010,-5.69
18022,-6.57
18034,-7.66
18046,-9.03
18058,-10.7
18070,-12.58
18081,-14.47
18092,-16.14
18104,-17.43
18116,-18.31
18128,-18.98
18140,-19.8
18152,-21.21
18164,-23.54
18176,-26.79
18188,-30.56
18200,-34.01
18212,-36.04
18224,-35.65
18236,-32.32
18248,-26.25
18260,-18.41
18271,-10.23
18282,-3.17
18294,1.76
18306,4.19
18318,4.42
18330,3.13
18342,1.06
18354,-1.21
18366,-3.35
18378,-5.27
18390,-7.04
18402,-8.77
18414,-10.47
18426,-12.07
18438,-13.31
18450,-13.86
18461,-13.44
18472,-11.91
18484,-9.35
18496,-5.95
18508,-1.97
18520,2.42
18532,7.16
18544,12.26
18556,17.64
18568,23.06
18580,28.04
18592,32.02
18604,34.53
18616,35.38
18628,34.7
18640,32.94
18651,30.62
18662,28.2
18674,25.98
18686,24.0
18698,22.19
18710,20.41
18722,18.54
18734,16.44
18746,13.94
18758,10.93
18770,7.44
18782,3.74
18794,0.29
18806,-2.4
18818,-4.02
18830,-4.62
18841,-4.63
18852,-4.63
18864,-5.05
18876,-6.03
18888,-7.32
18900,-8.56
18912,-9.49
18924,-10.06
18936,-10.52
18948,-11.13
18960,-12.08
18972,-13.35
18984,-14.74
18996,-16.01
19008,-16.98
19020,-17.57
19031,-17.75
19042,-17.54
19054,-17.0
19066,-16.29
19078,-15.75
19090,-15.73
19102,-16.43
19114,-17.67
19126,-18.79
19138,-18.79
19150,-16.73
19162,-12.14
19174,-5.29
19186,2.86
19198,10.99
19210,17.89
19221,22.84
19232,25.69
19244,26.77
19256,26.59
19268,25.6
19280,24.12
19292,22.4
19304,20.71
19316,19.31
19328,18.37
19340,17.83
19352,17.38
19364,16.55
19376,14.99
19388,12.66
19400,9.85
19411,7.14
19422,5.09
19434,4.01
19446,3.88
19458,4.44
19470,5.28
19482,6.14
19494,6.89
19506,7.55
19518,8.19
19530,8.78
19542,9.23
19554,9.37
19566,9.13
19578,8.53
19590,7.72
19601,6.89
19612,6.1
19624,5.29
19636,4.27
19648,2.88
19660,1.11
19672,-0.82
19684,-2.48
19696,-3.43
19708,-3.36
19720,-2.26
19732,-0.39
19744,1.74
19756,3.58
19768,4.7
19780,4.88
19791,4.19
19802,2.92
19814,1.41
19826,-0.01
19838,-1.17
19850,-2.05
19862,-2.78
19874,-3.59
19886,-4.67
19898,-6.16
19910,-8.0
19922,-9.94
19934,-11.59
19946,-12.53
19958,-12.53
19970,-11.7
19981,-10.53
19992,-9.84
20004,-10.44
20016,-12.83
20028,-16.85
20040,-21.59
20052,-25.5
20064,-26.95
20076,-24.73
20088,-18.72
20100,-10.04
20112,-0.84
20124,6.38
20136,9.57
20148,7.82
20160,1.58
20171,-7.55
20182,-17.43
20194,-26.0
20206,-31.74
20218,-33.96
20230,-32.77
20242,-28.93
20254,-23.6
20266,-17.98
20278,-13.05
20290,-9.34
20302,-6.89
20314,-5.35
20326,-4.27
20338,-3.35
20350,-2.52
20361,-1.74
20372,-0.68
20384,1.45
20396,5.78
20408,13.23
20420,24.02
20432,37.23
20444,51.04
20456,63.41
20468,72.79
20480,78.62
20492,81.25
20504,81.56
20516,80.31
20528,77.85
20540,74.15
20551,68.99
20562,62.21
20574,53.78
20586,43.7
20598,32.01
20610,18.81
20622,4.4
20634,-10.57
20646,-25.19
20658,-38.47
20670,-49.55
20682,-57.92
20694,-63.41
20706,-66.2
20718,-66.78
20730,-65.87
20741,-64.38
20752,-63.19
20764,-62.95
20776,-63.89
20788,-65.71
20800,-67.76
20812,-69.31
20824,-69.87
20836,-69.28
20848,-67.53
20860,-64.54
20872,-59.9
20884,-53.0
20896,-43.44
20908,-31.43
20920,-17.94
20931,-4.34
20942,8.25
20954,19.41
20966,29.53
20978,39.3
20990,49.11
