seconds,BVP
7,34.95
19,34.77
31,33.98
43,32.38
55,30.01
66,27.09
77,23.87
89,20.63
101,17.47
113,14.37
125,11.23
137,7.85
149,4.11
161,-0.08
173,-4.68
185,-9.49
197,-14.24
209,-18.66
221,-22.59
233,-26.08
245,-29.42
256,-33.04
267,-37.38
279,-42.71
291,-49.02
303,-55.93
315,-62.65
327,-68.05
339,-70.92
351,-70.2
363,-65.35
375,-56.54
387,-44.58
399,-30.78
411,-16.56
423,-3.16
435,8.58
446,18.2
457,25.57
469,30.73
481,33.85
493,35.21
505,35.2
517,34.28
529,32.97
541,31.68
553,30.68
565,30.08
577,29.88
589,30.0
601,30.37
613,30.94
625,31.63
636,32.36
647,32.96
659,33.15
671,32.6
683,31.03
695,28.25
707,24.29
719,19.44
731,14.19
743,9.1
755,4.57
767,0.74
779,-2.51
791,-5.49
803,-8.55
815,-11.88
826,-15.54
837,-19.42
849,-23.37
861,-27.27
873,-31.11
885,-35.03
897,-39.25
909,-44.01
921,-49.49
933,-55.61
945,-61.92
957,-67.57
969,-71.4
981,-72.21
993,-69.12
1005,-61.85
1016,-50.88
1027,-37.32
1039,-22.62
1051,-8.21
1063,4.87
1075,16.02
1087,25.04
1099,31.96
1111,36.87
1123,39.86
1135,41.09
1147,40.82
1159,39.53
1171,37.73
1183,35.94
1195,34.47
1206,33.47
1217,32.87
1229,32.55
1241,32.35
1253,32.19
1265,32.02
1277,31.83
1289,31.54
1301,30.99
1313,29.96
1325,28.24
1337,25.75
1349,22.52
1361,18.75
1373,14.65
1385,10.37
1396,5.97
1407,1.45
1419,-3.16
1431,-7.77
1443,-12.21
1455,-16.4
1467,-20.42
1479,-24.52
1491,-29.01
1503,-34.19
1515,-40.12
1527,-46.57
1539,-52.97
1551,-58.35
1563,-61.62
1575,-61.72
1586,-58.0
1597,-50.46
1609,-39.86
1621,-27.5
1633,-14.83
1645,-3.01
1657,7.32
1669,15.98
1681,23.03
1693,28.54
1705,32.46
1717,34.69
1729,35.3
1741,34.56
1753,33.05
1765,31.38
1776,30.05
1787,29.34
1799,29.21
1811,29.49
1823,29.97
1835,30.5
1847,30.96
1859,31.3
1871,31.36
1883,30.9
1895,29.64
1907,27.39
1919,24.13
1931,20.03
1943,15.47
1955,10.83
1966,6.36
1977,2.14
1989,-1.92
2001,-6.02
2013,-10.28
2025,-14.76
2037,-19.31
2049,-23.76
2061,-27.97
2073,-31.91
2085,-35.74
2097,-39.8
2109,-44.5
2121,-50.21
2133,-56.96
2145,-64.41
2156,-71.65
2167,-77.44
2179,-80.36
2191,-79.3
2203,-73.71
2215,-63.85
2227,-50.72
2239,-35.81
2251,-20.64
2263,-6.46
2275,5.99
2287,16.43
2299,24.89
2311,31.46
2323,36.19
2335,39.13
2346,40.4
2357,40.38
2369,39.58
2381,38.6
2393,37.97
2405,37.92
2417,38.44
2429,39.27
2441,40.14
2453,40.86
2465,41.39
2477,41.88
2489,42.41
2501,43.03
2513,43.5
2525,43.5
2536,42.62
2547,40.59
2559,37.37
2571,33.16
2583,28.36
2595,23.4
2607,18.59
2619,14.0
2631,9.55
2643,5.09
2655,0.51
2667,-4.14
2679,-8.71
2691,-13.06
2703,-17.08
2715,-20.78
2726,-24.25
2737,-27.59
2749,-30.94
2761,-34.48
2773,-38.5
2785,-43.41
2797,-49.55
2809,-56.93
2821,-64.95
2833,-72.4
2845,-77.66
2857,-79.16
2869,-75.96
2881,-67.98
2893,-56.08
2905,-41.72
2916,-26.5
2927,-11.79
2939,1.47
2951,12.75
2963,21.85
2975,28.69
2987,33.36
2999,36.02
3011,37.02
3023,36.85
3035,36.1
3047,35.34
3059,34.99
3071,35.23
3083,36.03
3095,37.19
3106,38.48
3117,39.75
3129,40.95
3141,42.06
3153,43.05
3165,43.78
3177,44.0
3189,43.46
3201,41.97
3213,39.46
3225,36.05
3237,31.98
3249,27.53
3261,23.03
3273,18.75
3285,14.89
3296,11.48
3307,8.38
3319,5.3
3331,1.93
3343,-1.92
3355,-6.22
3367,-10.73
3379,-15.12
3391,-19.1
3403,-22.62
3415,-25.81
3427,-28.95
3439,-32.42
3451,-36.55
3463,-41.63
3475,-47.79
3486,-54.86
3497,-62.18
3509,-68.57
3521,-72.53
3533,-72.65
3545,-68.14
3557,-59.07
3569,-46.43
3581,-31.79
3593,-16.82
3605,-2.89
3617,9.1
3629,18.74
3641,25.93
3653,30.77
3665,33.47
3676,34.35
3687,33.87
3699,32.58
3711,31.05
3723,29.74
3735,28.96
3747,28.78
3759,29.13
3771,29.86
3783,30.81
3795,31.84
3807,32.83
3819,33.63
3831,34.03
3843,33.81
3855,32.77
3866,30.83
3877,28.01
3889,24.53
3901,20.64
3913,16.61
3925,12.59
3937,8.6
3949,4.57
3961,0.34
3973,-4.17
3985,-8.94
3997,-13.77
4009,-18.38
4021,-22.48
4033,-25.92
4045,-28.79
4056,-31.37
4067,-34.15
4079,-37.58
4091,-42.03
4103,-47.51
4115,-53.55
4127,-59.23
4139,-63.27
4151,-64.37
4163,-61.53
4175,-54.52
4187,-43.85
4199,-30.76
4211,-16.79
4223,-3.38
4235,8.47
4246,18.27
4257,25.92
4269,31.48
4281,35.05
4293,36.71
4305,36.62
4317,35.12
4329,32.74
4341,30.08
4353,27.65
4365,25.73
4377,24.42
4389,23.68
4401,23.52
4413,23.91
4425,24.77
4436,25.86
4447,26.77
4459,26.98
4471,26.14
4483,24.12
4495,21.11
4507,17.55
4519,13.88
4531,10.4
4543,7.14
4555,3.95
4567,0.58
4579,-3.17
4591,-7.35
4603,-11.85
4615,-16.41
4626,-20.78
4637,-24.76
4649,-28.37
4661,-31.82
4673,-35.55
4685,-40.06
4697,-45.81
4709,-52.86
4721,-60.79
4733,-68.5
4745,-74.47
4757,-77.05
4769,-75.04
4781,-68.04
4793,-56.64
4805,-42.24
4816,-26.57
4827,-11.23
4839,2.7
4851,14.69
4863,24.64
4875,32.61
4887,38.58
4899,42.53
4911,44.5
4923,44.7
4935,43.59
4947,41.8
4959,39.96
4971,38.48
4983,37.5
4995,36.94
5006,36.62
5017,36.39
5029,36.18
5041,36.01
5053,35.82
5065,35.46
5077,34.66
5089,33.13
5101,30.67
5113,27.31
5125,23.33
5137,19.15
5149,15.16
5161,11.63
5173,8.52
5185,5.59
5196,2.48
5207,-1.1
5219,-5.29
5231,-10.02
5243,-15.01
5255,-19.89
5267,-24.37
5279,-28.27
5291,-31.72
5303,-35.04
5315,-38.8
5327,-43.54
5339,-49.64
5351,-57.05
5363,-65.15
5375,-72.74
5386,-78.28
5397,-80.23
5409,-77.55
5421,-70.05
5433,-58.46
5445,-44.23
5457,-29.07
5469,-14.45
5481,-1.33
5493,9.94
5505,19.34
5517,27.01
5529,32.94
5541,37.06
5553,39.3
5565,39.83
5576,39.13
5587,37.9
5599,36.88
5611,36.61
5623,37.32
5635,38.9
5647,41.06
5659,43.44
5671,45.79
5683,47.93
5695,49.79
5707,51.24
5719,52.14
5731,52.27
5743,51.49
5755,49.71
5766,46.97
5777,43.35
5789,39.03
5801,34.22
5813,29.15
5825,24.11
5837,19.34
5849,14.98
5861,11.01
5873,7.22
5885,3.31
5897,-1.01
5909,-5.79
5921,-10.87
5933,-15.89
5945,-20.48
5956,-24.42
5967,-27.77
5979,-30.91
5991,-34.34
6003,-38.59
6015,-44.05
6027,-50.77
6039,-58.42
6051,-66.15
6063,-72.65
6075,-76.45
6087,-76.24
6099,-71.3
6111,-61.78
6123,-48.73
6135,-33.79
6146,-18.7
6157,-4.86
6169,6.91
6181,16.38
6193,23.64
6205,28.81
6217,32.03
6229,33.42
6241,33.28
6253,32.17
6265,30.8
6277,29.82
6289,29.65
6301,30.28
6313,31.39
6325,32.53
6336,33.34
6347,33.7
6359,33.71
6371,33.55
6383,33.32
6395,32.97
6407,32.3
6419,31.06
6431,29.07
6443,26.27
6455,22.79
6467,18.93
6479,14.99
6491,11.25
6503,7.82
6515,4.63
6526,1.5
6537,-1.8
6549,-5.39
6561,-9.21
6573,-13.07
6585,-16.74
6597,-20.11
6609,-23.2
6621,-26.24
6633,-29.54
6645,-33.43
6657,-38.14
6669,-43.68
6681,-49.79
6693,-55.8
6705,-60.66
6716,-63.19
6727,-62.36
6739,-57.62
6751,-49.13
6763,-37.82
6775,-25.04
6787,-12.25
6799,-0.59
6811,9.29
6823,17.18
6835,23.15
6847,27.33
6859,29.83
6871,30.77
6883,30.41
6895,29.15
6906,27.55
6917,26.15
6929,25.34
6941,25.26
6953,25.82
6965,26.82
6977,28.0
6989,29.07
7001,29.84
7013,30.06
7025,29.55
7037,28.19
7049,25.92
7061,22.82
7073,19.04
7085,14.81
7096,10.41
7107,6.11
7119,2.1
7131,-1.57
7143,-5.01
7155,-8.38
7167,-11.79
7179,-15.23
7191,-18.56
7203,-21.62
7215,-24.35
7227,-26.94
7239,-29.76
7251,-33.34
7263,-38.03
7275,-43.85
7286,-50.31
7297,-56.34
7309,-60.62
7321,-61.79
7333,-58.91
7345,-51.79
7357,-41.01
7369,-27.85
7381,-13.86
7393,-0.51
7405,11.2
7417,20.79
7429,28.18
7441,33.53
7453,36.99
7465,38.73
7476,38.91
7487,37.81
7499,35.84
7511,33.56
7523,31.48
7535,29.98
7547,29.21
7559,29.0
7571,29.06
7583,29.05
7595,28.74
7607,28.03
7619,26.92
7631,25.4
7643,23.4
7655,20.79
7666,17.46
7677,13.47
7689,9.04
7701,4.46
7713,0.02
7725,-4.24
7737,-8.43
7749,-12.76
7761,-17.31
7773,-21.95
7785,-26.35
7797,-30.19
7809,-33.33
7821,-35.92
7833,-38.38
7845,-41.22
7856,-44.9
7867,-49.7
7879,-55.56
7891,-62.04
7903,-68.26
7915,-72.97
7927,-74.8
7939,-72.66
7951,-66.15
7963,-55.71
7975,-42.59
7987,-28.39
7999,-14.55
8011,-2.07
8023,8.64
8035,17.54
8046,24.72
8057,30.22
8069,34.03
8081,36.19
8093,36.91
8105,36.57
8117,35.7
8129,34.81
8141,34.28
8153,34.23
8165,34.57
8177,35.08
8189,35.52
8201,35.78
8213,35.89
8225,35.93
8236,35.92
8247,35.69
8259,34.92
8271,33.31
8283,30.72
8295,27.31
8307,23.52
8319,19.79
8331,16.49
8343,13.64
8355,10.98
8367,8.12
8379,4.72
8391,0.7
8403,-3.76
8415,-8.24
8426,-12.31
8437,-15.72
8449,-18.55
8461,-21.19
8473,-24.23
8485,-28.24
8497,-33.52
8509,-40.0
8521,-47.17
8533,-54.15
8545,-59.81
8557,-62.99
8569,-62.76
8581,-58.68
8593,-50.94
8605,-40.38
8616,-28.29
8627,-16.03
8639,-4.71
8651,5.03
8663,12.94
8675,19.07
8687,23.5
8699,26.32
8711,27.67
8723,27.8
8735,27.19
8747,26.44
8759,26.1
8771,26.49
8783,27.59
8795,29.11
8806,30.7
8817,32.07
8829,33.21
8841,34.21
8853,35.16
8865,36.01
8877,36.44
8889,36.04
8901,34.46
8913,31.63
8925,27.74
8937,23.27
8949,18.76
8961,14.56
8973,10.78
8985,7.28
8996,3.8
9007,0.12
9019,-3.79
9031,-7.83
9043,-11.82
9055,-15.64
9067,-19.33
9079,-23.01
9091,-26.9
9103,-31.18
9115,-36.04
9127,-41.68
9139,-48.15
9151,-55.26
9163,-62.4
9175,-68.46
9186,-72.09
9197,-72.09
9209,-67.83
9221,-59.54
9233,-48.26
9245,-35.47
9257,-22.63
9269,-10.8
9281,-0.53
9293,8.05
9305,14.99
9317,20.23
9329,23.72
9341,25.43
9353,25.63
9365,24.84
9376,23.78
9387,23.06
9399,23.01
9411,23.54
9423,24.36
9435,25.15
9447,25.84
9459,26.48
9471,27.25
9483,28.18
9495,29.13
9507,29.89
9519,30.24
9531,30.08
9543,29.42
9555,28.29
9566,26.71
9577,24.68
9589,22.25
9601,19.58
9613,16.95
9625,14.63
9637,12.81
9649,11.54
9661,10.75
9673,10.3
9685,10.05
9697,9.84
9709,9.52
9721,9.05
9733,8.58
9745,8.63
9756,10.0
9767,13.69
9779,20.57
9791,31.1
9803,45.24
9815,62.44
9827,81.85
9839,102.63
9851,124.05
9863,145.52
9875,166.39
9887,185.85
9899,202.97
9911,216.95
9923,227.56
9935,235.41
9946,241.83
9957,248.37
9969,256.15
9981,265.35
9993,275.04
10005,283.49
10017,288.56
10029,288.32
10041,281.38
10053,267.1
10065,245.7
10077,218.19
10089,186.16
10101,151.56
10113,116.35
10125,82.22
10136,50.36
10147,21.45
10159,-4.28
10171,-26.99
10183,-47.11
10195,-65.24
10207,-81.95
10219,-97.58
10231,-112.11
10243,-125.16
10255,-136.22
10267,-144.96
10279,-151.35
10291,-155.75
10303,-158.76
10315,-161.02
10326,-163.19
10337,-165.96
10349,-170.01
10361,-175.89
10373,-183.69
10385,-192.81
10397,-201.86
10409,-209.04
10421,-212.73
10433,-212.12
10445,-207.58
10457,-200.49
10469,-192.75
10481,-186.11
10493,-181.76
10505,-180.13
10516,-180.93
10527,-183.22
10539,-185.55
10551,-186.23
10563,-183.71
10575,-177.03
10587,-166.17
10599,-152.09
10611,-136.41
10623,-121.0
10635,-107.49
10647,-97.19
10659,-91.0
10671,-89.36
10683,-91.98
10695,-97.58
10706,-103.89
10717,-108.07
10729,-107.54
10741,-100.92
10753,-88.57
10765,-72.45
10777,-55.36
10789,-39.96
10801,-28.03
10813,-20.19
10825,-16.11
10837,-14.86
10849,-15.32
10861,-16.42
10873,-17.26
10885,-17.23
10896,-16.07
10907,-13.99
10919,-11.52
10931,-9.36
10943,-8.17
10955,-8.24
10967,-9.29
10979,-10.53
10991,-10.92
11003,-9.74
11015,-6.99
11027,-3.73
11039,-1.86
11051,-3.55
11063,-10.44
11075,-22.93
11086,-40.12
11097,-60.12
11109,-80.93
11121,-101.07
11133,-120.04
11145,-138.02
11157,-155.33
11169,-171.95
11181,-187.29
11193,-200.49
11205,-210.77
11217,-217.76
11229,-221.45
11241,-221.86
11253,-218.68
11265,-211.29
11276,-199.0
11287,-181.61
11299,-159.79
11311,-135.07
11323,-109.48
11335,-84.9
11347,-62.53
11359,-42.77
11371,-25.46
11383,-10.26
11395,3.03
11407,14.3
11419,23.37
11431,30.2
11443,35.15
11455,38.97
11466,42.64
11477,46.98
11489,52.38
11501,58.62
11513,64.74
11525,69.27
11537,70.68
11549,67.8
11561,60.3
11573,48.94
11585,35.53
11597,22.51
11609,12.4
11621,7.15
11633,7.71
11645,13.83
11656,24.23
11667,37.06
11679,50.45
11691,62.87
11703,73.4
11715,81.47
11727,86.65
11739,88.46
11751,86.53
11763,80.9
11775,72.4
11787,62.54
11799,53.12
11811,45.59
11823,40.61
11835,38.12
11846,37.68
11857,38.92
11869,41.81
11881,46.49
11893,53.02
11905,61.11
11917,70.03
11929,78.76
11941,86.26
11953,91.66
11965,94.44
11977,94.36
11989,91.49
12001,86.08
12013,78.5
12025,69.24
12036,58.88
12047,48.21
12059,38.19
12071,29.72
12083,23.28
12095,18.64
12107,14.77
12119,10.29
12131,4.1
12143,-3.91
12155,-12.41
12167,-18.76
12179,-19.58
12191,-11.82
12203,6.1
12215,33.58
12226,67.79
12237,104.59
12249,139.94
12261,171.37
12273,198.62
12285,223.25
12297,247.44
12309,272.47
12321,297.8
12333,321.11
12345,339.14
12357,348.98
12369,349.05
12381,339.38
12393,321.5
12405,297.74
12416,270.61
12427,242.26
12439,214.19
12451,187.29
12463,161.89
12475,137.97
12487,115.29
12499,93.54
12511,72.28
12523,51.0
12535,29.28
12547,6.97
12559,-15.46
12571,-36.94
12583,-56.07
12595,-71.61
12606,-82.98
12617,-90.52
12629,-95.29
12641,-98.51
12653,-101.05
12665,-103.02
12677,-104.07
12689,-104.04
12701,-103.42
12713,-103.54
12725,-106.12
12737,-112.47
12749,-122.77
12761,-135.8
12773,-148.75
12785,-158.37
12796,-162.04
12807,-158.5
12819,-148.05
12831,-132.36
12843,-113.62
12855,-94.15
12867,-75.92
12879,-59.57
12891,-45.05
12903,-32.24
12915,-21.33
12927,-12.82
12939,-7.71
12951,-6.7
12963,-10.47
12975,-19.39
12986,-32.11
12997,-46.5
13009,-60.32
13021,-71.54
13033,-78.38
13045,-79.91
13057,-75.18
13069,-64.34
13081,-48.64
13093,-28.88
13105,-6.35
13117,16.8
13129,38.11
13141,55.89
13153,69.28
13165,79.72
13176,89.14
13187,90.82
13199,80.46
13211,58.62
13223,30.34
13235,1.06
13247,-22.05
13259,-40.68
13271,-56.1
13283,-68.82
13295,-79.1
13307,-86.33
13319,-89.15
13331,-86.72
13343,-78.77
13355,-65.27
13366,-46.87
13377,-23.83
13389,2.72
13401,30.74
13413,58.94
13425,86.3
13437,111.78
13449,134.44
13461,153.79
13473,169.51
13485,182.48
13497,193.78
13509,204.3
13521,215.01
13533,226.07
13545,236.07
13556,242.29
13567,241.69
13579,231.73
13591,211.98
13603,183.84
13615,150.01
13627,114.03
13639,79.01
13651,46.72
13663,17.65
13675,-8.47
13687,-32.07
13699,-53.0
13711,-70.83
13723,-85.18
13735,-95.91
13746,-103.28
13757,-107.88
13769,-110.35
13781,-111.07
13793,-110.17
13805,-107.55
13817,-103.25
13829,-97.62
13841,-91.56
13853,-86.32
13865,-83.33
13877,-83.83
13889,-88.39
13901,-96.65
13913,-107.23
13925,-118.01
13936,-126.63
13947,-130.98
13959,-129.9
13971,-123.36
13983,-112.51
13995,-99.22
14007,-85.52
14019,-72.95
14031,-62.12
14043,-52.75
14055,-44.0
14067,-35.06
14079,-25.57
14091,-15.72
14103,-6.03
14115,3.1
14126,11.74
14137,20.4
14149,29.79
14161,40.35
14173,52.05
14185,64.26
14197,76.07
14209,86.5
14221,94.73
14233,100.2
14245,102.55
14257,101.65
14269,97.56
14281,90.52
14293,80.92
14305,69.23
14316,55.8
14327,40.94
14339,24.9
14351,8.0
14363,-9.18
14375,-25.89
14387,-41.28
14399,-54.66
14411,-65.65
14423,-74.32
14435,-81.09
14447,-86.57
14459,-91.23
14471,-95.17
14483,-97.94
14495,-98.69
14506,-96.44
14517,-90.5
14529,-80.83
14541,-68.12
14553,-53.63
14565,-38.89
14577,-25.4
14589,-14.26
14601,-6.15
14613,-1.29
14625,0.51
14637,-0.31
14649,-3.09
14661,-7.13
14673,-11.77
14685,-16.43
14696,-20.72
14707,-24.46
14719,-27.72
14731,-30.76
14743,-33.92
14755,-37.41
14767,-41.13
14779,-44.65
14791,-47.46
14803,-49.29
14815,-50.43
14827,-51.73
14839,-54.19
14851,-58.56
14863,-64.86
14875,-72.43
14886,-80.25
14897,-87.36
14909,-93.27
14921,-98.0
14933,-101.84
14945,-105.08
14957,-107.84
14969,-109.92
14981,-110.85
14993,-109.92
15005,-106.14
15017,-98.54
15029,-86.38
15041,-69.57
15053,-48.87
15065,-25.74
15076,-1.83
15087,21.57
15099,43.89
15111,65.15
15123,85.58
15135,105.06
15147,123.05
15159,138.75
15171,151.62
15183,161.86
15195,170.43
15207,178.79
15219,188.32
15231,199.94
15243,213.87
15255,229.66
15266,246.14
15277,261.52
15289,273.31
15301,278.67
15313,274.96
15325,260.53
15337,235.34
15349,201.07
15361,160.6
15373,117.28
15385,74.15
15397,33.67
15409,-2.23
15421,-32.03
15433,-54.71
15445,-70.05
15456,-79.09
15467,-84.03
15479,-87.82
15491,-93.18
15503,-101.8
15515,-113.82
15527,-128.0
15539,-142.21
15551,-154.24
15563,-162.41
15575,-165.99
15587,-165.24
15599,-161.15
15611,-155.13
15623,-148.5
15635,-142.17
15646,-136.75
15657,-132.58
15669,-130.06
15681,-129.7
15693,-131.88
15705,-136.49
15717,-142.66
15729,-148.88
15741,-153.49
15753,-155.26
15765,-153.91
15777,-150.13
15789,-145.13
15801,-140.04
15813,-135.43
15825,-131.09
15836,-126.3
15847,-120.26
15859,-112.48
15871,-102.99
15883,-92.27
15895,-81.06
15907,-70.1
15919,-60.02
15931,-51.29
15943,-44.14
15955,-38.62
15967,-34.6
15979,-31.83
15991,-30.11
16003,-29.39
16015,-29.91
16026,-32.11
16037,-36.44
16049,-43.0
16061,-51.27
16073,-59.88
16085,-66.84
16097,-69.94
16109,-67.33
16121,-58.11
16133,-42.54
16145,-21.95
16157,1.64
16169,26.08
16181,49.46
16193,70.31
16205,87.62
16216,100.74
16227,109.38
16239,113.61
16251,113.93
16263,111.28
16275,106.86
16287,101.94
16299,97.61
16311,94.66
16323,93.42
16335,93.74
16347,95.11
16359,96.78
16371,98.02
16383,98.33
16395,97.52
16406,95.65
16417,92.83
16429,89.05
16441,84.08
16453,77.62
16465,69.54
16477,60.05
16489,49.76
16501,39.43
16513,29.75
16525,21.01
16537,13.02
16549,5.23
16561,-3.03
16573,-12.36
16585,-23.0
16596,-34.7
16607,-46.62
16619,-57.41
16631,-65.45
16643,-69.23
16655,-67.73
16667,-60.77
16679,-49.02
16691,-33.83
16703,-16.85
16715,0.32
16727,16.4
16739,30.47
16751,41.94
16763,50.48
16775,55.93
16786,58.36
16797,58.14
16809,55.89
16821,52.45
16833,48.69
16845,45.34
16857,42.89
16869,41.41
16881,40.72
16893,40.45
16905,40.32
16917,40.16
16929,39.97
16941,39.75
16953,39.41
16965,38.64
16976,37.04
16987,34.27
16999,30.23
17011,25.13
17023,19.42
17035,13.55
17047,7.82
17059,2.31
17071,-3.19
17083,-9.04
17095,-15.63
17107,-23.23
17119,-31.88
17131,-41.21
17143,-50.39
17155,-58.11
17166,-62.9
17177,-63.46
17189,-59.05
17201,-49.79
17213,-36.57
17225,-20.85
17237,-4.19
17249,12.06
17261,26.87
17273,39.57
17285,49.67
17297,56.78
17309,60.7
17321,61.52
17333,59.81
17345,56.55
17356,52.92
17367,49.94
17379,48.11
17391,47.38
17403,47.29
17415,47.33
17427,47.21
17439,46.98
17451,46.85
17463,46.98
17475,47.21
17487,47.01
17499,45.72
17511,42.79
17523,38.12
17535,32.22
17546,26.06
17557,20.75
17569,17.13
17581,15.35
17593,14.82
17605,14.37
17617,12.67
17629,8.86
17641,2.89
17653,-4.18
17665,-10.47
17677,-13.76
17689,-12.15
17701,-4.75
17713,8.07
17725,24.87
17736,43.67
17747,62.69
17759,80.97
17771,98.57
17783,116.38
17795,135.51
17807,156.59
17819,179.24
17831,201.68
17843,220.9
17855,233.2
17867,235.15
17879,224.77
17891,202.4
17903,171.0
17915,135.45
17926,101.17
17937,72.48
17949,51.44
17961,37.54
17973,28.54
17985,21.62
17997,14.6
18009,6.57
18021,-2.39
18033,-11.67
18045,-20.7
18057,-29.21
18069,-36.94
18081,-43.38
18093,-47.68
18105,-49.01
18116,-47.01
18127,-42.27
18139,-36.29
18151,-31.07
18163,-28.41
18175,-29.34
18187,-33.93
18199,-41.42
18211,-50.65
18223,-60.28
18235,-69.0
18247,-75.67
18259,-79.37
18271,-79.44
18283,-75.5
18295,-67.28
18306,-54.63
18317,-37.53
18329,-16.5
18341,7.01
18353,30.41
18365,50.38
18377,63.71
18389,68.5
18401,64.87
18413,54.99
18425,42.35
18437,30.41
18449,21.66
18461,17.04
18473,16.14
18485,17.78
18496,20.59
18507,23.46
18519,25.58
18531,26.29
18543,24.89
18555,20.66
18567,13.01
18579,1.74
18591,-12.81
18603,-29.81
18615,-48.22
18627,-67.07
18639,-85.7
18651,-103.69
18663,-120.71
18675,-136.23
18686,-149.51
18697,-159.71
18709,-166.26
18721,-169.13
18733,-168.97
18745,-166.95
18757,-164.34
18769,-161.92
18781,-159.58
18793,-156.25
18805,-150.27
18817,-140.03
18829,-124.7
18841,-104.69
18853,-81.56
18865,-57.52
18876,-34.74
18887,-14.7
18899,1.99
18911,15.5
18923,26.28
18935,34.77
18947,41.2
18959,45.62
18971,48.12
18983,48.95
18995,48.56
19007,47.44
19019,46.08
19031,44.83
19043,43.9
19055,43.36
19066,43.16
19077,43.18
19089,43.27
19101,43.19
19113,42.69
19125,41.49
19137,39.39
19149,36.2
19161,31.96
19173,26.86
19185,21.26
19197,15.58
19209,10.21
19221,5.3
19233,0.73
19245,-3.8
19256,-8.64
19267,-13.98
19279,-19.72
19291,-25.53
19303,-30.96
19315,-35.63
19327,-39.37
19339,-42.26
19351,-44.69
19363,-47.29
19375,-50.69
19387,-55.5
19399,-61.93
19411,-69.62
19423,-77.58
19435,-84.36
19446,-88.34
19457,-88.3
19469,-83.72
19481,-74.98
19493,-63.21
19505,-49.95
19517,-36.71
19529,-24.71
19541,-14.74
19553,-7.16
19565,-2.01
19577,0.9
19589,1.91
19601,1.41
19613,-0.17
19625,-2.36
19636,-4.62
19647,-6.32
19659,-6.81
19671,-5.63
19683,-2.69
19695,1.57
19707,6.36
19719,10.75
19731,14.04
19743,15.87
19755,16.35
19767,15.78
19779,14.45
19791,12.51
19803,9.92
19815,6.62
19826,2.59
19837,-2.05
19849,-7.0
19861,-11.88
19873,-16.24
19885,-19.66
19897,-21.86
19909,-22.83
19921,-22.91
19933,-22.69
19945,-22.89
19957,-24.14
19969,-26.75
19981,-30.62
19993,-35.23
20005,-39.68
20016,-42.93
20027,-43.97
20039,-42.07
20051,-36.94
20063,-28.8
20075,-18.35
20087,-6.61
20099,5.28
20111,16.29
20123,25.71
20135,33.18
20147,38.73
20159,42.56
20171,45.0
20183,46.34
20195,46.81
20206,46.6
20217,45.87
20229,44.79
20241,43.53
20253,42.23
20265,41.01
20277,39.92
20289,38.95
20301,38.06
20313,37.14
20325,36.01
20337,34.48
20349,32.38
20361,29.67
20373,26.36
20385,22.5
20396,18.21
20407,13.6
20419,8.69
20431,3.53
20443,-1.88
20455,-7.59
20467,-13.59
20479,-19.77
20491,-25.88
20503,-31.46
20515,-36.07
20527,-39.4
20539,-41.52
20551,-42.88
20563,-44.13
20575,-45.81
20586,-48.04
20597,-50.38
20609,-51.9
20621,-51.52
20633,-48.44
20645,-42.41
20657,-33.89
20669,-23.86
20681,-13.47
20693,-3.7
20705,4.88
20717,12.12
20729,18.12
20741,23.0
20753,26.72
20765,29.13
20776,30.11
20787,29.83
20799,28.76
20811,27.6
20823,27.0
20835,27.31
20847,28.44
20859,29.97
20871,31.47
20883,32.67
20895,33.65
20907,34.62
20919,35.81
20931,37.19
20943,38.46
20955,39.27
20966,39.29
20977,38.42
20989,36.72
