seconds,BVP
10,25.3
21,25.8
33,24.35
45,21.49
57,17.83
69,13.85
81,9.92
93,6.15
105,2.54
117,-0.92
129,-4.21
141,-7.22
153,-9.73
165,-11.5
177,-12.31
189,-12.04
200,-10.74
211,-8.6
223,-5.91
235,-2.99
247,-0.07
259,2.75
271,5.45
283,8.06
295,10.5
307,12.62
319,14.17
331,15.0
343,15.05
355,14.41
367,13.26
379,11.76
390,10.03
401,8.12
413,6.04
425,3.84
437,1.67
449,-0.32
461,-1.92
473,-3.01
485,-3.57
497,-3.72
509,-3.65
521,-3.6
533,-3.79
545,-4.43
557,-5.63
569,-7.4
580,-9.58
591,-11.76
603,-13.41
615,-13.98
627,-13.12
639,-10.77
651,-7.21
663,-2.95
675,1.46
687,5.57
699,9.1
711,11.94
723,14.01
735,15.26
747,15.66
759,15.21
770,14.0
781,12.2
793,10.01
805,7.57
817,5.02
829,2.39
841,-0.29
853,-3.09
865,-6.11
877,-9.47
889,-13.29
901,-17.55
913,-22.01
925,-26.16
937,-29.27
949,-30.57
960,-29.53
971,-25.99
983,-20.29
995,-13.17
1007,-5.57
1019,1.65
1031,7.82
1043,12.61
1055,15.94
1067,17.86
1079,18.44
1091,17.74
1103,15.85
1115,12.95
1127,9.33
1139,5.44
1150,1.72
1161,-1.48
1173,-3.97
1185,-5.82
1197,-7.28
1209,-8.66
1221,-10.22
1233,-12.06
1245,-14.09
1257,-15.99
1269,-17.37
1281,-17.78
1293,-16.9
1305,-14.59
1317,-10.92
1329,-6.19
1340,-0.83
1351,4.65
1363,9.75
1375,14.05
1387,17.27
1399,19.3
1411,20.17
1423,19.99
1435,18.88
1447,16.97
1459,14.36
1471,11.26
1483,7.98
1495,4.9
1507,2.37
1519,0.58
1530,-0.56
1541,-1.38
1553,-2.34
1565,-3.91
1577,-6.32
1589,-9.47
1601,-12.88
1613,-15.79
1625,-17.34
1637,-16.8
1649,-13.9
1661,-8.86
1673,-2.41
1685,4.47
1697,10.8
1709,15.83
1720,19.1
1731,20.38
1743,19.58
1755,16.74
1767,12.09
1779,6.16
1791,-0.28
1803,-6.3
1815,-11.09
1827,-14.12
1839,-15.35
1851,-15.14
1863,-14.11
1875,-12.92
1887,-12.07
1899,-11.8
1910,-12.14
1921,-12.93
1933,-13.94
1945,-14.91
1957,-15.46
1969,-15.2
1981,-13.7
1993,-10.7
2005,-6.21
2017,-0.63
2029,5.34
2041,10.87
2053,15.33
2065,18.34
2077,19.89
2089,20.14
2100,19.31
2111,17.54
2123,14.97
2135,11.83
2147,8.47
2159,5.29
2171,2.67
2183,0.79
2195,-0.41
2207,-1.14
2219,-1.69
2231,-2.3
2243,-3.16
2255,-4.37
2267,-5.97
2279,-7.89
2290,-9.87
2301,-11.51
2313,-12.29
2325,-11.79
2337,-9.84
2349,-6.62
2361,-2.6
2373,1.65
2385,5.58
2397,8.86
2409,11.31
2421,12.88
2433,13.51
2445,13.17
2457,11.86
2469,9.67
2480,6.92
2491,4.04
2503,1.54
2515,-0.26
2527,-1.25
2539,-1.6
2551,-1.67
2563,-1.85
2575,-2.44
2587,-3.53
2599,-5.08
2611,-6.94
2623,-8.9
2635,-10.71
2647,-12.09
2659,-12.7
2670,-12.29
2681,-10.74
2693,-8.11
2705,-4.66
2717,-0.8
2729,3.06
2741,6.48
2753,9.07
2765,10.39
2777,10.17
2789,8.32
2801,5.15
2813,1.32
2825,-2.32
2837,-4.96
2849,-6.18
2860,-6.0
2871,-4.8
2883,-3.06
2895,-1.15
2907,0.92
2919,3.52
2931,7.3
2943,13.05
2955,21.49
2967,32.98
2979,47.22
2991,62.98
3003,78.14
3015,90.07
3027,96.24
3039,95.18
3050,86.93
3061,73.13
3073,56.55
3085,40.11
3097,26.09
3109,15.6
3121,8.66
3133,4.68
3145,2.95
3157,2.92
3169,4.23
3181,6.4
3193,8.71
3205,10.28
3217,10.35
3229,8.62
3240,5.49
3251,1.95
3263,-0.75
3275,-1.63
3287,-0.33
3299,2.72
3311,6.52
3323,9.95
3335,12.23
3347,13.24
3359,13.58
3371,14.27
3383,16.3
3395,20.13
3407,25.41
3419,30.99
3430,35.35
3441,37.19
3453,36.04
3465,32.52
3477,28.16
3489,24.93
3501,24.41
3513,27.3
3525,33.23
3537,40.7
3549,47.26
3561,49.81
3573,45.34
3585,32.29
3597,11.73
3609,-12.18
3620,-33.2
3631,-45.39
3643,-45.87
3655,-36.28
3667,-22.35
3679,-11.42
3691,-9.37
3703,-18.33
3715,-36.24
3727,-58.04
3739,-77.76
3751,-90.37
3763,-92.83
3775,-84.33
3787,-66.26
3799,-41.74
3810,-15.05
3821,9.32
3833,27.71
3845,38.07
3857,40.07
3869,34.96
3881,24.86
3893,12.22
3905,-0.74
3917,-12.25
3929,-21.3
3941,-27.68
3953,-31.91
3965,-34.94
3977,-37.68
3989,-40.58
4000,-43.39
4011,-45.19
4023,-44.83
4035,-41.49
4047,-35.15
4059,-26.78
4071,-18.0
4083,-10.53
4095,-5.52
4107,-3.21
4119,-2.88
4131,-3.23
4143,-3.04
4155,-1.55
4167,1.19
4179,4.43
4190,6.99
4201,7.68
4213,5.65
4225,0.65
4237,-6.9
4249,-16.08
4261,-25.66
4273,-34.43
4285,-41.45
4297,-46.26
4309,-48.79
4321,-49.29
4333,-48.1
4345,-45.46
4357,-41.51
4369,-36.32
4380,-29.97
4391,-22.7
4403,-14.86
4415,-6.89
4427,0.73
4439,7.54
4451,13.05
4463,16.78
4475,18.31
4487,17.44
4499,14.31
4511,9.46
4523,3.76
4535,-1.75
4547,-6.21
4559,-9.17
4570,-10.68
4581,-11.31
4593,-11.88
4605,-13.2
4617,-15.71
4629,-19.38
4641,-23.71
4653,-27.83
4665,-30.87
4677,-32.07
4689,-30.95
4701,-27.42
4713,-21.67
4725,-14.32
4737,-6.33
4749,1.1
4760,6.75
4771,9.84
4783,10.36
4795,9.01
4807,6.87
4819,4.91
4831,3.67
4843,3.17
4855,3.19
4867,3.56
4879,4.29
4891,5.4
4903,6.77
4915,8.07
4927,9.08
4939,9.97
4950,11.51
4961,14.82
4973,20.66
4985,28.84
4997,37.92
5009,45.66
5021,49.87
5033,49.48
5045,44.78
5057,37.24
5069,28.8
5081,20.98
5093,14.59
5105,9.79
5117,6.49
5129,4.45
5140,3.01
5151,0.99
5163,-2.9
5175,-9.06
5187,-16.04
5199,-20.42
5211,-18.12
5223,-6.61
5235,13.36
5247,37.48
5259,59.56
5271,74.17
5283,78.83
5295,74.33
5307,63.53
5319,49.28
5330,33.1
5341,15.25
5353,-4.13
5365,-23.86
5377,-41.43
5389,-53.83
5401,-58.96
5413,-56.55
5425,-48.36
5437,-37.43
5449,-26.84
5461,-18.64
5473,-13.4
5485,-10.56
5497,-9.11
5509,-8.29
5520,-8.03
5531,-8.75
5543,-10.96
5555,-14.77
5567,-19.65
5579,-24.57
5591,-28.41
5603,-30.38
5615,-30.3
5627,-28.7
5639,-26.43
5651,-24.43
5663,-23.29
5675,-23.19
5687,-23.94
5699,-25.13
5710,-26.34
5721,-27.17
5733,-27.29
5745,-26.45
5757,-24.48
5769,-21.4
5781,-17.42
5793,-12.97
5805,-8.56
5817,-4.69
5829,-1.66
5841,0.34
5853,1.33
5865,1.4
5877,0.74
5889,-0.39
5900,-1.68
5911,-2.83
5923,-3.62
5935,-3.95
5947,-3.86
5959,-3.56
5971,-3.33
5983,-3.52
5995,-4.48
6007,-6.51
6019,-9.76
6031,-14.17
6043,-19.37
6055,-24.74
6067,-29.48
6079,-32.79
6090,-34.0
6101,-32.7
6113,-28.89
6125,-22.88
6137,-15.36
6149,-7.23
6161,0.56
6173,7.15
6185,11.99
6197,14.82
6209,15.74
6221,15.05
6233,13.1
6245,10.24
6257,6.74
6269,2.86
6280,-1.11
6291,-4.89
6303,-8.25
6315,-11.06
6327,-13.31
6339,-15.12
6351,-16.67
6363,-18.15
6375,-19.64
6387,-21.1
6399,-22.3
6411,-22.81
6423,-22.18
6435,-20.08
6447,-16.45
6459,-11.63
6470,-6.24
6481,-1.04
6493,3.28
6505,6.29
6517,7.87
6529,8.18
6541,7.5
6553,6.16
6565,4.42
6577,2.54
6589,0.68
6601,-1.04
6613,-2.58
6625,-3.93
6637,-5.14
6649,-6.33
6660,-7.6
6671,-9.02
6683,-10.64
6695,-12.39
6707,-14.16
6719,-15.78
6731,-17.03
6743,-17.63
6755,-17.31
6767,-15.81
6779,-13.01
6791,-8.94
6803,-3.95
6815,1.43
6827,6.56
6839,10.85
6850,13.97
6861,15.88
6873,16.79
6885,17.05
6897,17.08
6909,17.21
6921,17.68
6933,18.53
6945,19.63
6957,20.71
6969,21.43
6981,21.55
6993,20.98
7005,19.9
7017,18.62
7029,17.42
7040,16.39
7051,15.4
7063,14.1
7075,12.2
7087,9.63
7099,6.65
7111,3.84
7123,1.84
7135,1.14
7147,1.86
7159,3.72
7171,6.17
7183,8.65
7195,10.82
7207,12.61
7219,14.22
7230,15.9
7241,17.81
7253,19.86
7265,21.76
7277,23.13
7289,23.64
7301,23.12
7313,21.5
7325,18.85
7337,15.31
7349,11.04
7361,6.33
7373,1.47
7385,-3.17
7397,-7.33
7409,-10.84
7420,-13.73
7431,-16.16
7443,-18.35
7455,-20.41
7467,-22.28
7479,-23.68
7491,-24.25
7503,-23.65
7515,-21.73
7527,-18.64
7539,-14.85
7551,-11.03
7563,-7.9
7575,-6.09
7587,-5.87
7599,-7.19
7610,-9.69
7621,-12.86
7633,-16.22
7645,-19.55
7657,-22.85
7669,-26.34
7681,-30.23
7693,-34.58
7705,-39.19
7717,-43.7
7729,-47.78
7741,-51.31
7753,-54.42
7765,-57.42
7777,-60.56
7789,-63.79
7800,-66.75
7811,-68.82
7823,-69.25
7835,-67.19
7847,-61.56
7859,-51.04
7871,-34.48
7883,-11.47
7895,16.88
7907,47.74
7919,77.08
7931,100.86
7943,116.46
7955,123.7
7967,124.8
7979,123.54
7990,123.69
8001,127.71
8013,136.0
8025,147.03
8037,158.11
8049,166.46
8061,170.1
8073,168.47
8085,162.42
8097,153.81
8109,144.9
8121,137.67
8133,133.32
8145,131.99
8157,132.49
8169,132.29
8180,127.7
8191,114.67
8203,90.17
8215,53.62
8227,7.84
8239,-41.07
8251,-85.41
8263,-118.38
8275,-136.37
8287,-140.13
8299,-134.01
8311,-123.87
8323,-114.7
8335,-108.97
8347,-106.62
8359,-106.07
8370,-105.73
8381,-104.92
8393,-103.94
8405,-103.35
8417,-103.32
8429,-103.3
8441,-102.44
8453,-100.13
8465,-96.51
8477,-92.35
8489,-88.61
8501,-85.78
8513,-83.61
8525,-81.18
8537,-77.43
8549,-71.69
8560,-64.07
8571,-55.46
8583,-47.2
8595,-40.62
8607,-36.59
8619,-35.28
8631,-36.23
8643,-38.56
8655,-41.37
8667,-43.99
8679,-46.17
8691,-48.06
8703,-50.05
8715,-52.52
8727,-55.73
8739,-59.7
8750,-64.33
8761,-69.44
8773,-74.92
8785,-80.66
8797,-86.51
8809,-92.14
8821,-97.03
8833,-100.54
8845,-102.11
8857,-101.45
8869,-98.41
8881,-92.71
8893,-83.43
8905,-68.88
8917,-46.87
8929,-15.65
8940,24.89
8951,72.37
8963,121.93
8975,167.47
8987,203.54
8999,227.11
9011,238.51
9023,241.02
9035,239.37
9047,238.12
9059,240.34
9071,247.19
9083,257.93
9095,270.27
9107,280.5
9119,283.91
9130,275.47
9141,251.42
9153,210.93
9165,157.26
9177,97.38
9189,40.03
9201,-7.28
9213,-40.67
9225,-60.63
9237,-70.82
9249,-75.62
9261,-77.94
9273,-78.37
9285,-75.94
9297,-69.8
9309,-60.54
9320,-50.42
9331,-42.41
9343,-38.74
9355,-39.87
9367,-44.36
9379,-49.85
9391,-54.2
9403,-56.45
9415,-56.95
9427,-56.85
9439,-57.23
9451,-58.43
9463,-59.93
9475,-60.71
9487,-60.01
9499,-57.84
9510,-55.12
9521,-53.27
9533,-53.46
9545,-55.89
9557,-59.62
9569,-62.78
9581,-63.39
9593,-60.11
9605,-52.8
9617,-42.47
9629,-30.89
9641,-19.77
9653,-10.26
9665,-2.67
9677,3.29
9689,8.11
9700,12.03
9711,14.94
9723,16.52
9735,16.49
9747,14.88
9759,12.13
9771,8.89
9783,5.8
9795,3.24
9807,1.26
9819,-0.33
9831,-1.85
9843,-3.52
9855,-5.36
9867,-7.24
9879,-8.95
9890,-10.39
9901,-11.62
9913,-12.95
9925,-14.77
9937,-17.37
9949,-20.68
9961,-24.17
9973,-26.97
9985,-28.1
9997,-26.85
10009,-23.05
10021,-17.1
10033,-9.88
10045,-2.4
10057,4.45
10069,10.11
10080,14.33
10091,17.04
10103,18.3
10115,18.15
10127,16.76
10139,14.43
10151,11.66
10163,9.01
10175,6.99
10187,5.82
10199,5.44
10211,5.48
10223,5.5
10235,5.16
10247,4.39
10259,3.35
10270,2.3
10281,1.42
10293,0.71
10305,-0.07
10317,-1.23
10329,-3.05
10341,-5.7
10353,-9.14
10365,-13.2
10377,-17.51
10389,-21.6
10401,-24.87
10413,-26.74
10425,-26.76
10437,-24.79
10449,-21.02
10460,-15.97
10471,-10.31
10483,-4.67
10495,0.46
10507,4.78
10519,8.11
10531,10.36
10543,11.47
10555,11.49
10567,10.59
10579,9.08
10591,7.32
10603,5.63
10615,4.23
10627,3.16
10639,2.39
10650,1.77
10661,1.17
10673,0.41
10685,-0.72
10697,-2.38
10709,-4.69
10721,-7.62
10733,-11.01
10745,-14.57
10757,-18.03
10769,-21.17
10781,-23.89
10793,-26.23
10805,-28.2
10817,-29.7
10829,-30.47
10840,-30.11
10851,-28.19
10863,-24.51
10875,-19.09
10887,-12.3
10899,-4.68
10911,3.12
10923,10.55
10935,17.16
10947,22.6
10959,26.59
10971,28.95
10983,29.66
10995,28.87
11007,27.0
11019,24.61
11030,22.25
11041,20.25
11053,18.67
11065,17.29
11077,15.77
11089,13.85
11101,11.51
11113,8.96
11125,6.52
11137,4.5
11149,3.04
11161,2.12
11173,1.56
11185,1.17
11197,0.72
11209,0.03
11220,-1.05
11231,-2.57
11243,-4.5
11255,-6.59
11267,-8.48
11279,-9.74
11291,-10.02
11303,-9.16
11315,-7.22
11327,-4.47
11339,-1.25
11351,2.05
11363,5.08
11375,7.58
11387,9.38
11399,10.47
11410,10.97
11421,11.1
11433,11.11
11445,11.17
11457,11.34
11469,11.57
11481,11.79
11493,11.85
11505,11.63
11517,11.0
11529,9.88
11541,8.24
11553,6.24
11565,4.15
11577,2.3
11589,0.93
11600,0.03
11611,-0.56
11623,-1.2
11635,-2.14
11647,-3.48
11659,-5.12
11671,-6.7
11683,-7.83
11695,-8.08
11707,-7.08
11719,-4.61
11731,-0.59
11743,4.84
11755,11.37
11767,18.5
11779,25.72
11790,32.53
11801,38.61
11813,43.78
11825,48.04
11837,51.44
11849,54.06
11861,55.92
11873,57.01
11885,57.26
11897,56.67
11909,55.34
11921,53.45
11933,51.24
11945,48.97
11957,46.87
11969,45.02
11980,43.42
11991,41.93
12003,40.31
12015,38.28
12027,35.59
12039,32.14
12051,28.05
12063,23.71
12075,19.61
12087,16.3
12099,14.09
12111,13.07
12123,13.09
12135,13.84
12147,15.04
12159,16.49
12170,18.08
12181,19.72
12193,21.3
12205,22.6
12217,23.38
12229,23.38
12241,22.5
12253,20.81
12265,18.53
12277,15.95
12289,13.35
12301,10.89
12313,8.59
12325,6.38
12337,4.06
12349,1.4
12360,-1.85
12371,-5.86
12383,-10.67
12395,-16.16
12407,-22.03
12419,-27.88
12431,-33.22
12443,-37.56
12455,-40.47
12467,-41.57
12479,-40.69
12491,-37.82
12503,-33.1
12515,-26.71
12527,-18.71
12539,-9.07
12550,2.23
12561,14.93
12573,28.24
12585,40.88
12597,51.27
12609,57.98
12621,60.07
12633,57.35
12645,50.34
12657,40.04
12669,27.73
12681,14.72
12693,2.18
12705,-9.04
12717,-18.57
12729,-26.69
12740,-34.31
12751,-42.86
12763,-53.82
12775,-68.11
12787,-85.57
12799,-104.64
12811,-122.59
12823,-136.11
12835,-142.23
12847,-139.04
12859,-126.09
12871,-104.44
12883,-76.38
12895,-45.1
12907,-14.29
12919,12.35
12930,31.79
12941,42.34
12953,44.06
12965,38.75
12977,29.22
12989,18.4
13001,8.5
13013,0.63
13025,-5.04
13037,-8.77
13049,-10.86
13061,-11.49
13073,-10.71
13085,-8.63
13097,-5.32
13109,-0.83
13120,4.82
13131,11.43
13143,18.36
13155,24.48
13167,28.34
13179,28.72
13191,25.28
13203,18.86
13215,11.29
13227,4.81
13239,1.25
13251,1.5
13263,5.33
13275,11.57
13287,18.54
13299,24.38
13310,27.42
13321,26.49
13333,21.26
13345,12.6
13357,2.58
13369,-5.88
13381,-9.92
13393,-7.79
13405,0.48
13417,12.91
13429,26.24
13441,36.98
13453,42.44
13465,41.35
13477,33.87
13489,21.22
13500,5.17
13511,-12.34
13523,-29.43
13535,-44.31
13547,-55.54
13559,-62.2
13571,-64.1
13583,-61.92
13595,-56.97
13607,-50.91
13619,-45.2
13631,-40.81
13643,-38.08
13655,-36.78
13667,-36.36
13679,-36.21
13690,-35.94
13701,-35.41
13713,-34.67
13725,-33.83
13737,-32.86
13749,-31.49
13761,-29.26
13773,-25.75
13785,-20.84
13797,-14.9
13809,-8.81
13821,-3.67
13833,-0.4
13845,0.67
13857,-0.03
13869,-1.5
13880,-2.54
13891,-2.26
13903,-0.31
13915,3.09
13927,7.39
13939,12.02
13951,16.58
13963,20.83
13975,24.64
13987,27.72
13999,29.74
14011,30.38
14023,29.52
14035,27.31
14047,24.17
14059,20.62
14070,17.1
14081,13.86
14093,10.94
14105,8.27
14117,5.75
14129,3.34
14141,1.0
14153,-1.33
14165,-3.73
14177,-6.31
14189,-9.06
14201,-11.77
14213,-14.0
14225,-15.17
14237,-14.74
14249,-12.44
14260,-8.44
14271,-3.27
14283,2.22
14295,7.25
14307,11.21
14319,13.87
14331,15.32
14343,15.83
14355,15.75
14367,15.35
14379,14.78
14391,14.05
14403,13.1
14415,11.82
14427,10.16
14439,8.19
14450,6.1
14461,4.15
14473,2.51
14485,1.15
14497,-0.25
14509,-2.23
14521,-5.42
14533,-10.17
14545,-16.38
14557,-23.43
14569,-30.35
14581,-36.18
14593,-40.37
14605,-43.01
14617,-44.74
14629,-46.47
14640,-48.91
14651,-52.33
14663,-56.49
14675,-60.76
14687,-64.47
14699,-67.1
14711,-68.43
14723,-68.51
14735,-67.63
14747,-66.21
14759,-64.63
14771,-62.85
14783,-59.88
14795,-53.56
14807,-40.63
14819,-17.75
14830,17.06
14841,62.8
14853,114.86
14865,165.73
14877,207.33
14889,233.86
14901,243.9
14913,240.85
14925,231.33
14937,222.43
14949,219.24
14961,223.61
14973,234.52
14985,249.24
14997,264.57
15009,277.26
15020,283.85
15031,280.8
15043,265.18
15055,236.01
15067,195.33
15079,147.99
15091,100.01
15103,56.28
15115,18.73
15127,-13.68
15139,-43.51
15151,-72.61
15163,-100.69
15175,-125.45
15187,-144.09
15199,-155.13
15210,-159.4
15221,-159.64
15233,-159.1
15245,-160.03
15257,-162.89
15269,-166.56
15281,-169.28
15293,-169.64
15305,-167.0
15317,-161.59
15329,-154.09
15341,-145.18
15353,-135.3
15365,-124.64
15377,-113.33
15389,-101.56
15400,-89.72
15411,-78.33
15423,-67.88
15435,-58.63
15447,-50.53
15459,-43.21
15471,-36.25
15483,-29.37
15495,-22.69
15507,-16.67
15519,-12.02
15531,-9.3
15543,-8.73
15555,-10.07
15567,-12.79
15579,-16.3
15590,-20.28
15601,-24.67
15613,-29.61
15625,-35.03
15637,-40.47
15649,-44.93
15661,-47.18
15673,-46.07
15685,-41.04
15697,-32.38
15709,-21.15
15721,-8.98
15733,2.42
15745,11.66
15757,17.92
15769,21.0
15780,21.2
15791,19.12
15803,15.44
15815,10.79
15827,5.77
15839,0.83
15851,-3.65
15863,-7.37
15875,-10.1
15887,-11.75
15899,-12.35
15911,-12.04
15923,-11.13
15935,-10.01
15947,-9.07
15959,-8.63
15970,-8.83
15981,-9.54
15993,-10.43
16005,-10.95
16017,-10.57
16029,-8.89
16041,-5.83
16053,-1.66
16065,3.09
16077,7.71
16089,11.56
16101,14.16
16113,15.26
16125,14.88
16137,13.25
16149,10.77
16160,7.92
16171,5.18
16183,2.94
16195,1.44
16207,0.74
16219,0.73
16231,1.19
16243,1.87
16255,2.56
16267,3.13
16279,3.46
16291,3.45
16303,2.94
16315,1.74
16327,-0.31
16339,-3.13
16350,-6.39
16361,-9.43
16373,-11.44
16385,-11.75
16397,-10.05
16409,-6.52
16421,-1.74
16433,3.5
16445,8.42
16457,12.45
16469,15.26
16481,16.71
16493,16.9
16505,16.08
16517,14.67
16529,13.18
16540,12.1
16551,11.72
16563,12.0
16575,12.48
16587,12.45
16599,11.17
16611,8.19
16623,3.56
16635,-2.12
16647,-7.89
16659,-12.83
16671,-16.35
16683,-18.47
16695,-19.66
16707,-20.6
16719,-21.75
16730,-23.16
16741,-24.36
16753,-24.53
16765,-22.83
16777,-18.59
16789,-11.54
16801,-1.9
16813,9.68
16825,22.23
16837,34.56
16849,45.55
16861,54.31
16873,60.32
16885,63.53
16897,64.31
16909,63.39
16920,61.55
16931,59.44
16943,57.34
16955,55.08
16967,52.16
16979,47.97
16991,42.1
17003,34.49
17015,25.47
17027,15.61
17039,5.6
17051,-3.86
17063,-12.11
17075,-18.55
17087,-22.74
17099,-24.43
17110,-23.76
17121,-21.21
17133,-17.5
17145,-13.43
17157,-9.63
17169,-6.48
17181,-4.11
17193,-2.46
17205,-1.42
17217,-0.86
17229,-0.66
17241,-0.71
17253,-0.84
17265,-0.89
17277,-0.65
17289,0.02
17300,1.13
17311,2.6
17323,4.22
17335,5.74
17347,6.89
17359,7.43
17371,7.13
17383,5.73
17395,3.01
17407,-1.16
17419,-6.68
17431,-13.13
17443,-19.81
17455,-25.88
17467,-30.53
17479,-33.2
17490,-33.68
17501,-32.17
17513,-29.16
17525,-25.26
17537,-21.15
17549,-17.37
17561,-14.32
17573,-12.17
17585,-10.88
17597,-10.24
17609,-9.9
17621,-9.53
17633,-8.92
17645,-8.04
17657,-7.06
17669,-6.23
17680,-5.77
17691,-5.8
17703,-6.26
17715,-7.05
17727,-7.97
17739,-8.86
17751,-9.46
17763,-9.47
17775,-8.48
17787,-6.13
17799,-2.31
17811,2.69
17823,8.2
17835,13.38
17847,17.48
17859,20.15
17870,21.46
17881,21.78
17893,21.55
17905,21.04
17917,20.33
17929,19.42
17941,18.39
17953,17.48
17965,16.99
17977,17.19
17989,18.1
18001,19.51
18013,21.06
18025,22.38
18037,23.34
18049,24.04
18060,24.81
18071,26.05
18083,28.13
18095,31.27
18107,35.54
18119,40.77
18131,46.62
18143,52.55
18155,57.99
18167,62.37
18179,65.34
18191,66.77
18203,66.76
18215,65.52
18227,63.32
18239,60.36
18250,56.83
18261,52.88
18273,48.71
18285,44.54
18297,40.61
18309,37.11
18321,34.17
18333,31.83
18345,30.03
18357,28.47
18369,26.6
18381,23.65
18393,18.78
18405,11.4
18417,1.49
18429,-10.25
18440,-22.52
18451,-33.72
18463,-42.45
18475,-47.86
18487,-49.89
18499,-49.23
18511,-47.0
18523,-44.43
18535,-42.51
18547,-41.73
18559,-42.14
18571,-43.44
18583,-45.2
18595,-46.96
18607,-48.31
18619,-48.94
18630,-48.59
18641,-47.1
18653,-44.47
18665,-40.89
18677,-36.71
18689,-32.35
18701,-28.2
18713,-24.54
18725,-21.55
18737,-19.36
18749,-18.09
18761,-17.81
18773,-18.52
18785,-20.09
18797,-22.22
18809,-24.49
18820,-26.41
18831,-27.52
18843,-27.46
18855,-26.08
18867,-23.47
18879,-19.94
18891,-15.96
18903,-12.09
18915,-8.78
18927,-6.27
18939,-4.59
18951,-3.62
18963,-3.15
18975,-3.03
18987,-3.16
18999,-3.51
19010,-4.05
19021,-4.71
19033,-5.39
19045,-5.98
19057,-6.42
19069,-6.75
19081,-7.13
19093,-7.78
19105,-8.87
19117,-10.41
19129,-12.13
19141,-13.56
19153,-14.15
19165,-13.47
19177,-11.41
19189,-8.17
19200,-4.2
19211,0.01
19223,4.06
19235,7.67
19247,10.66
19259,12.79
19271,13.9
19283,13.89
19295,12.93
19307,11.39
19319,9.81
19331,8.62
19343,8.06
19355,8.02
19367,8.19
19379,8.2
19390,7.79
19401,6.81
19413,5.26
19425,3.19
19437,0.7
19449,-2.08
19461,-4.91
19473,-7.45
19485,-9.26
19497,-9.96
19509,-9.31
19521,-7.38
19533,-4.53
19545,-1.35
19557,1.51
19569,3.58
19580,4.71
19591,5.07
19603,5.05
19615,4.93
19627,4.83
19639,4.52
19651,3.66
19663,1.94
19675,-0.66
19687,-3.87
19699,-7.19
19711,-10.09
19723,-12.19
19735,-13.35
19747,-13.63
19759,-13.27
19770,-12.6
19781,-11.96
19793,-11.73
19805,-12.25
19817,-13.76
19829,-16.31
19841,-19.6
19853,-23.02
19865,-25.75
19877,-26.98
19889,-26.19
19901,-23.34
19913,-18.89
19925,-13.61
19937,-8.29
19949,-3.57
19960,0.22
19971,2.96
19983,4.71
19995,5.51
20007,5.46
20019,4.75
20031,3.63
20043,2.47
20055,1.59
20067,1.15
20079,1.08
20091,1.16
20103,1.06
20115,0.56
20127,-0.45
20139,-1.93
20150,-3.82
20161,-6.02
20173,-8.54
20185,-11.34
20197,-14.34
20209,-17.26
20221,-19.66
20233,-21.03
20245,-20.91
20257,-19.1
20269,-15.7
20281,-11.08
20293,-5.78
20305,-0.33
20317,4.85
20329,9.38
20340,13.01
20351,15.5
20363,16.7
20375,16.63
20387,15.51
20399,13.72
20411,11.75
20423,10.03
20435,8.8
20447,8.09
20459,7.71
20471,7.44
20483,7.08
20495,6.54
20507,5.85
20519,5.05
20530,4.2
20541,3.28
20553,2.21
20565,0.85
20577,-0.92
20589,-3.14
20601,-5.71
20613,-8.28
20625,-10.41
20637,-11.58
20649,-11.4
20661,-9.74
20673,-6.76
20685,-2.89
20697,1.34
20709,5.37
20720,8.77
20731,11.26
20743,12.67
20755,13.01
20767,12.45
20779,11.31
20791,10.03
20803,9.11
20815,8.9
20827,9.5
20839,10.71
20851,12.09
20863,13.08
20875,13.18
20887,12.11
20899,9.85
20910,6.63
20921,2.84
20933,-1.06
20945,-4.72
20957,-7.91
20969,-10.55
20981,-12.68
20993,-14.38
