seconds,BVP
9,128.94
21,100.23
33,61.73
45,15.21
57,-36.03
69,-88.13
81,-137.85
93,-183.36
105,-224.22
117,-260.84
129,-293.75
141,-323.27
153,-349.7
165,-373.46
177,-395.01
188,-414.33
199,-430.58
211,-442.16
223,-447.53
235,-446.25
247,-439.47
259,-429.55
271,-418.71
283,-407.87
295,-396.21
307,-381.93
319,-363.36
331,-339.97
343,-312.35
355,-281.43
367,-247.71
378,-211.01
389,-171.02
401,-128.15
413,-84.19
425,-41.87
437,-3.97
449,27.68
461,52.81
473,72.58
485,88.82
497,103.19
509,116.54
521,128.74
533,138.99
545,146.49
557,150.85
568,152.43
579,152.02
591,150.39
603,147.9
615,144.17
627,138.42
639,129.95
651,118.69
663,105.42
675,91.76
687,79.61
699,70.71
711,66.1
723,65.92
735,69.28
747,74.44
758,79.03
769,80.47
781,76.62
793,66.3
805,49.96
817,29.77
829,9.26
841,-7.66
853,-17.82
865,-19.74
877,-13.92
889,-2.42
901,11.69
913,25.17
925,35.23
937,40.05
948,38.93
959,32.16
971,20.7
983,6.17
995,-9.1
1007,-21.87
1019,-27.92
1031,-22.38
1043,-0.71
1055,40.0
1067,99.63
1079,174.31
1091,256.6
1103,336.74
1115,404.67
1127,452.14
1138,474.53
1149,471.42
1161,446.15
1173,404.14
1185,350.9
1197,290.24
1209,223.85
1221,152.16
1233,76.52
1245,1.25
1257,-65.67
1269,-113.8
1281,-133.32
1293,-118.7
1305,-71.38
1317,-0.23
1328,80.81
1339,156.72
1351,215.73
1363,252.0
1375,265.86
1387,261.7
1399,245.07
1411,220.41
1423,190.36
1435,156.48
1447,120.41
1459,84.47
1471,51.31
1483,23.0
1495,-0.12
1507,-19.72
1518,-38.69
1529,-59.89
1541,-84.76
1553,-112.8
1565,-141.82
1577,-169.03
1589,-192.16
1601,-210.5
1613,-225.03
1625,-237.97
1637,-251.82
1649,-268.39
1661,-288.33
1673,-311.3
1685,-336.85
1697,-365.02
1708,-396.38
1719,-431.32
1731,-468.94
1743,-506.64
1755,-540.67
1767,-567.53
1779,-585.44
1791,-594.72
1803,-596.91
1815,-592.96
1827,-582.13
1839,-562.06
1851,-530.34
1863,-486.59
1875,-433.64
1887,-377.15
1898,-323.74
1909,-278.58
1921,-243.58
1933,-217.17
1945,-195.43
1957,-173.99
1969,-149.62
1981,-120.96
1993,-88.06
2005,-51.8
2017,-13.18
2029,26.62
2041,66.12
2053,103.61
2065,137.71
2077,168.46
2088,197.91
2099,230.08
2111,269.52
2123,319.15
2135,378.26
2147,441.92
2159,502.15
2171,550.33
2183,579.62
2195,586.46
2207,570.74
2219,534.85
2231,482.94
2243,420.12
2255,352.04
2267,284.16
2278,220.83
2289,164.19
2301,113.58
2313,66.19
2325,18.47
2337,-32.03
2349,-85.68
2361,-141.01
2373,-195.67
2385,-247.39
2397,-293.9
2409,-332.74
2421,-361.03
2433,-376.54
2445,-379.22
2457,-372.18
2468,-360.99
2479,-350.98
2491,-344.51
2503,-339.7
2515,-331.66
2527,-315.46
2539,-289.67
2551,-257.7
2563,-226.93
2575,-205.99
2587,-201.47
2599,-216.04
2611,-247.81
2623,-291.14
2635,-337.84
2647,-378.78
2658,-405.59
2669,-412.3
2681,-396.9
2693,-361.33
2705,-310.83
2717,-251.85
2729,-190.26
2741,-130.07
2753,-73.4
2765,-20.85
2777,27.91
2789,73.76
2801,117.9
2813,161.33
2825,204.33
2837,245.83
2848,283.18
2859,312.96
2871,332.18
2883,339.61
2895,336.13
2907,324.51
2919,308.32
2931,290.86
2943,274.42
2955,259.87
2967,246.76
2979,233.53
2991,218.04
3003,198.4
3015,173.97
3027,145.86
3038,116.96
3049,91.02
3061,71.36
3073,59.73
3085,56.09
3097,58.86
3109,65.53
3121,73.25
3133,79.08
3145,80.58
3157,76.53
3169,67.84
3181,57.85
3193,51.71
3205,54.53
3217,69.17
3228,94.76
3239,126.69
3251,158.28
3263,183.21
3275,197.62
3287,200.77
3299,194.55
3311,181.99
3323,165.91
3335,148.24
3347,130.06
3359,112.18
3371,95.43
3383,80.84
3395,69.3
3407,61.23
3418,56.44
3429,54.45
3441,55.07
3453,58.87
3465,67.3
3477,82.15
3489,104.64
3501,134.58
3513,169.81
3525,206.58
3537,240.3
3549,266.74
3561,282.73
3573,286.52
3585,277.52
3597,255.94
3608,222.43
3619,178.16
3631,124.81
3643,64.8
3655,1.11
3667,-63.31
3679,-125.95
3691,-185.35
3703,-241.16
3715,-293.99
3727,-345.23
3739,-396.82
3751,-451.02
3763,-509.66
3775,-572.89
3787,-637.86
3798,-698.22
3809,-745.16
3821,-769.96
3833,-767.24
3845,-737.11
3857,-685.2
3869,-620.44
3881,-551.8
3893,-485.58
3905,-424.46
3917,-368.37
3929,-316.29
3941,-267.54
3953,-222.1
3965,-180.03
3977,-140.81
3988,-103.16
3999,-65.67
4011,-27.51
4023,11.19
4035,49.48
4047,86.13
4059,120.51
4071,153.08
4083,185.27
4095,218.73
4107,254.19
4119,290.6
4131,324.89
4143,352.83
4155,370.51
4167,375.9
4178,369.73
4189,355.24
4201,336.87
4213,318.63
4225,302.87
4237,289.71
4249,277.78
4261,265.18
4273,250.62
4285,233.9
4297,215.83
4309,197.59
4321,180.28
4333,164.66
4345,151.02
4357,139.34
4368,129.38
4379,120.75
4391,112.97
4403,105.6
4415,98.56
4427,92.22
4439,87.17
4451,83.9
4463,82.36
4475,81.88
4487,81.42
4499,80.19
4511,77.83
4523,74.49
4535,70.47
4547,65.85
4558,60.42
4569,53.97
4581,46.69
4593,39.3
4605,32.99
4617,28.81
4629,27.27
4641,28.07
4653,30.21
4665,32.41
4677,33.46
4689,32.51
4701,29.04
4713,22.95
4725,14.5
4737,4.34
4748,-6.64
4759,-17.51
4771,-27.53
4783,-36.36
4795,-44.0
4807,-50.57
4819,-56.08
4831,-60.31
4843,-62.81
4855,-63.15
4867,-61.12
4879,-56.7
4891,-50.17
4903,-41.97
4915,-32.82
4927,-23.7
4938,-15.72
4949,-9.81
4961,-6.31
4973,-4.77
4985,-4.07
4997,-2.92
5009,-0.42
5021,3.54
5033,8.4
5045,13.28
5057,17.48
5069,20.83
5081,23.5
5093,25.69
5105,27.38
5117,28.18
5128,27.76
5139,26.12
5151,23.85
5163,21.89
5175,21.22
5187,22.26
5199,24.68
5211,27.58
5223,29.86
5235,30.86
5247,30.44
5259,29.04
5271,27.19
5283,25.25
5295,23.17
5307,20.61
5318,17.25
5329,12.92
5341,7.9
5353,2.72
5365,-1.98
5377,-5.78
5389,-8.61
5401,-10.78
5413,-12.77
5425,-15.01
5437,-17.74
5449,-20.91
5461,-24.33
5473,-27.79
5485,-31.04
5497,-33.78
5508,-35.64
5519,-36.06
5531,-34.43
5543,-30.35
5555,-23.82
5567,-15.36
5579,-5.92
5591,3.41
5603,11.74
5615,18.57
5627,23.96
5639,28.3
5651,32.11
5663,35.81
5675,39.47
5687,42.86
5698,45.59
5709,47.31
5721,47.94
5733,47.74
5745,47.21
5757,46.9
5769,47.17
5781,47.99
5793,48.81
5805,48.82
5817,47.17
5829,43.28
5841,37.17
5853,29.36
5865,20.78
5877,12.45
5888,5.27
5899,-0.25
5911,-3.94
5923,-5.97
5935,-6.69
5947,-6.53
5959,-6.01
5971,-5.62
5983,-5.67
5995,-6.22
6007,-7.14
6019,-8.06
6031,-8.71
6043,-9.05
6055,-9.25
6067,-9.75
6078,-10.99
6089,-13.26
6101,-16.53
6113,-20.54
6125,-24.9
6137,-29.3
6149,-33.74
6161,-38.37
6173,-43.43
6185,-48.94
6197,-54.48
6209,-59.15
6221,-61.89
6233,-61.8
6245,-58.47
6257,-52.3
6268,-44.25
6279,-35.54
6291,-27.19
6303,-19.74
6315,-13.16
6327,-7.16
6339,-1.5
6351,3.82
6363,8.46
6375,12.07
6387,14.43
6399,15.74
6411,16.6
6423,17.75
6435,19.85
6447,23.15
6458,27.49
6469,32.28
6481,36.79
6493,40.31
6505,42.32
6517,42.67
6529,41.54
6541,39.42
6553,37.05
6565,35.16
6577,34.22
6589,34.25
6601,34.76
6613,34.89
6625,33.79
6637,30.95
6648,26.55
6659,21.32
6671,16.23
6683,12.06
6695,8.94
6707,6.43
6719,3.66
6731,-0.13
6743,-5.24
6755,-11.21
6767,-17.23
6779,-22.35
6791,-25.97
6803,-28.06
6815,-29.15
6827,-30.11
6838,-31.94
6849,-35.76
6861,-42.43
6873,-52.3
6885,-64.29
6897,-75.07
6909,-79.04
6921,-69.55
6933,-41.56
6945,5.6
6957,66.42
6969,130.1
6981,183.9
6993,217.62
7005,226.65
7017,212.59
7028,181.22
7039,139.5
7051,93.47
7063,47.95
7075,7.56
7087,-22.71
7099,-38.28
7111,-37.18
7123,-21.96
7135,0.01
7147,18.51
7159,23.97
7171,10.73
7183,-21.33
7195,-67.35
7207,-119.57
7218,-169.76
7229,-211.29
7241,-239.9
7253,-254.05
7265,-254.43
7277,-243.4
7289,-224.5
7301,-202.1
7313,-180.97
7325,-165.43
7337,-158.34
7349,-160.24
7361,-168.95
7373,-180.11
7385,-188.42
7397,-189.23
7408,-179.82
7419,-159.76
7431,-130.43
7443,-94.24
7455,-53.97
7467,-12.34
7479,27.92
7491,64.1
7503,93.72
7515,114.98
7527,127.36
7539,132.03
7551,131.71
7563,130.1
7575,130.82
7587,136.19
7598,146.34
7609,159.13
7621,171.1
7633,178.86
7645,180.58
7657,176.57
7669,168.91
7681,160.23
7693,152.45
7705,146.04
7717,140.1
7729,133.1
7741,123.94
7753,112.47
7765,99.68
7777,87.14
7788,76.32
7799,68.01
7811,62.23
7823,58.42
7835,56.0
7847,54.94
7859,55.83
7871,59.67
7883,67.36
7895,79.15
7907,94.57
7919,112.71
7931,132.71
7943,154.19
7955,177.06
7967,200.86
7978,223.99
7989,243.32
8001,254.52
8013,253.35
8025,237.08
8037,205.53
8049,161.35
8061,108.93
8073,53.04
8085,-2.25
8097,-54.04
8109,-100.23
8121,-138.96
8133,-168.51
8145,-187.86
8157,-197.27
8168,-198.66
8179,-195.11
8191,-189.62
8203,-183.98
8215,-178.27
8227,-171.33
8239,-161.85
8251,-149.54
8263,-135.35
8275,-121.03
8287,-108.32
8299,-97.96
8311,-89.61
8323,-82.3
8335,-75.13
8347,-67.91
8358,-61.23
8369,-56.07
8381,-53.14
8393,-52.42
8405,-52.92
8417,-53.24
8429,-52.11
8441,-48.94
8453,-43.98
8465,-38.0
8477,-31.81
8489,-25.92
8501,-20.6
8513,-15.84
8525,-11.7
8537,-8.23
8548,-5.43
8559,-3.14
8571,-1.14
8583,0.71
8595,2.4
8607,3.69
8619,4.32
8631,4.13
8643,3.19
8655,1.74
8667,0.05
8679,-1.63
8691,-3.14
8703,-4.21
8715,-4.56
8727,-3.84
8738,-1.92
8749,0.92
8761,4.05
8773,6.58
8785,7.7
8797,7.06
8809,4.9
8821,1.98
8833,-0.66
8845,-2.18
8857,-2.23
8869,-1.03
8881,0.75
8893,2.29
8905,2.98
8917,2.53
8928,1.07
8939,-1.0
8951,-3.23
8963,-5.27
8975,-6.96
8987,-8.34
8999,-9.52
9011,-10.69
9023,-12.03
9035,-13.72
9047,-15.87
9059,-18.57
9071,-21.82
9083,-25.56
9095,-29.68
9107,-33.93
9118,-38.04
9129,-41.57
9141,-44.05
9153,-45.0
9165,-44.05
9177,-41.09
9189,-36.32
9201,-30.27
9213,-23.64
9225,-17.17
9237,-11.43
9249,-6.75
9261,-3.1
9273,-0.19
9285,2.39
9297,5.06
9308,8.0
9319,11.16
9331,14.27
9343,17.03
9355,19.25
9367,20.85
9379,21.99
9391,22.82
9403,23.46
9415,23.95
9427,24.26
9439,24.36
9451,24.3
9463,24.15
9475,23.94
9487,23.7
9498,23.35
9509,22.74
9521,21.72
9533,20.21
9545,18.22
9557,15.91
9569,13.59
9581,11.53
9593,9.98
9605,9.02
9617,8.59
9629,8.5
9641,8.57
9653,8.66
9665,8.73
9677,8.81
9688,8.86
9699,8.75
9711,8.29
9723,7.23
9735,5.44
9747,2.98
9759,0.13
9771,-2.75
9783,-5.38
9795,-7.75
9807,-10.11
9819,-12.95
9831,-16.74
9843,-21.7
9855,-27.62
9867,-33.89
9878,-39.57
9889,-43.63
9901,-45.27
9913,-44.1
9925,-40.27
9937,-34.32
9949,-27.07
9961,-19.31
9973,-11.65
9985,-4.55
9997,1.71
10009,6.85
10021,10.64
10033,12.89
10045,13.63
10057,13.11
10068,11.86
10079,10.5
10091,9.63
10103,9.56
10115,10.31
10127,11.55
10139,12.77
10151,13.55
10163,13.69
10175,13.28
10187,12.66
10199,12.24
10211,12.23
10223,12.44
10235,12.42
10247,11.6
10258,9.63
10269,6.58
10281,2.93
10293,-0.61
10305,-3.35
10317,-4.91
10329,-5.38
10341,-5.14
10353,-4.83
10365,-4.95
10377,-5.81
10389,-7.35
10401,-9.24
10413,-10.95
10425,-12.0
10437,-12.13
10448,-11.41
10459,-10.3
10471,-9.35
10483,-9.09
10495,-9.79
10507,-11.43
10519,-13.83
10531,-16.69
10543,-19.71
10555,-22.66
10567,-25.52
10579,-28.28
10591,-31.16
10603,-34.46
10615,-38.32
10627,-42.63
10638,-46.93
10649,-50.53
10661,-52.95
10673,-54.31
10685,-55.3
10697,-56.98
10709,-60.36
10721,-66.05
10733,-74.35
10745,-85.17
10757,-97.86
10769,-110.97
10781,-122.06
10793,-127.97
10805,-125.69
10817,-113.3
10828,-90.44
10839,-58.16
10851,-18.16
10863,27.68
10875,77.2
10887,127.26
10899,173.41
10911,210.37
10923,233.75
10935,241.87
10947,236.41
10959,221.6
10971,201.96
10983,180.27
10995,156.91
11007,130.91
11018,101.75
11029,70.8
11041,41.17
11053,16.24
11065,-2.03
11077,-14.09
11089,-22.28
11101,-29.3
11113,-36.6
11125,-43.7
11137,-48.57
11149,-48.8
11161,-42.98
11173,-31.22
11185,-15.2
11197,2.58
11208,19.48
11219,33.53
11231,43.8
11243,50.61
11255,55.15
11267,58.69
11279,61.85
11291,64.11
11303,63.98
11315,59.6
11327,49.65
11339,33.87
11351,13.12
11363,-11.0
11375,-36.76
11387,-62.44
11398,-86.05
11409,-104.85
11421,-115.64
11433,-115.44
11445,-102.56
11457,-77.22
11469,-41.73
11481,-0.18
11493,42.66
11505,82.46
11517,116.49
11529,143.51
11541,163.61
11553,177.76
11565,187.73
11577,195.67
11588,202.9
11599,209.45
11611,213.94
11623,214.98
11635,211.17
11647,201.86
11659,187.09
11671,167.9
11683,145.67
11695,120.41
11707,90.9
11719,55.79
11731,16.58
11743,-22.98
11755,-57.66
11767,-83.46
11778,-98.55
11789,-103.77
11801,-103.41
11813,-103.69
11825,-110.43
11837,-125.82
11849,-149.9
11861,-180.97
11873,-217.56
11885,-257.01
11897,-291.14
11909,-309.34
11921,-303.22
11933,-280.36
11945,-249.35
11957,-217.42
11968,-185.06
11979,-152.07
11991,-115.12
12003,-68.55
12015,-9.23
12027,60.5
12039,132.89
12051,197.4
12063,242.63
12075,268.98
12087,281.67
12099,283.59
12111,277.56
12123,263.65
12135,240.29
12147,207.26
12158,168.67
12169,130.81
12181,98.74
12193,71.59
12205,44.23
12217,11.73
12229,-26.88
12241,-65.5
12253,-91.95
12265,-93.13
12277,-62.47
12289,-4.24
12301,66.48
12313,131.09
12325,175.86
12337,196.09
12348,196.31
12359,186.32
12371,175.69
12383,169.74
12395,168.6
12407,168.51
12419,165.54
12431,158.14
12443,146.65
12455,131.95
12467,114.06
12479,91.42
12491,61.65
12503,23.07
12515,-24.45
12527,-78.5
12538,-134.54
12549,-187.48
12561,-233.69
12573,-271.9
12585,-303.54
12597,-331.72
12609,-359.67
12621,-389.48
12633,-421.48
12645,-454.89
12657,-488.65
12669,-521.86
12681,-553.32
12693,-580.24
12705,-597.65
12717,-599.35
12728,-580.15
12739,-538.2
12751,-476.32
12763,-401.06
12775,-320.42
12787,-241.47
12799,-168.47
12811,-102.75
12823,-43.56
12835,10.78
12847,62.3
12859,113.36
12871,167.06
12883,227.12
12895,296.1
12907,374.04
12918,456.98
12929,536.67
12941,602.02
12953,642.39
12965,651.42
12977,629.48
12989,583.83
13001,524.27
13013,460.73
13025,400.67
13037,348.13
13049,304.41
13061,269.41
13073,242.8
13085,224.29
13097,213.15
13108,204.38
13119,191.79
13131,170.37
13143,138.21
13155,96.63
13167,48.72
13179,-2.08
13191,-53.13
13203,-102.81
13215,-155.18
13227,-214.86
13239,-283.5
13251,-358.31
13263,-433.37
13275,-502.56
13287,-561.97
13298,-610.59
13309,-649.66
13321,-687.65
13333,-733.42
13345,-791.02
13357,-858.14
13369,-928.07
13381,-993.33
13393,-1048.8
13405,-1092.57
13417,-1084.39
13429,-997.72
13441,-829.89
13453,-605.79
13465,-365.33
13477,-142.68
13488,45.2
13499,195.53
13511,312.46
13523,397.12
13535,451.76
13547,474.43
13559,466.51
13571,435.94
13583,396.9
13595,366.58
13607,359.13
13619,381.68
13631,432.7
13643,498.35
13655,558.87
13667,599.73
13678,614.98
13689,600.22
13701,558.82
13713,499.92
13725,435.21
13737,375.0
13749,328.72
13761,292.47
13773,262.59
13785,236.67
13797,212.96
13809,188.15
13821,158.69
13833,122.28
13845,80.89
13857,40.41
13868,8.36
13879,-6.69
13891,-0.98
13903,23.59
13915,61.59
13927,107.01
13939,156.11
13951,208.22
13963,263.56
13975,316.99
13987,366.36
13999,403.49
14011,420.53
14023,413.63
14035,384.69
14047,340.73
14058,291.05
14069,243.84
14081,202.91
14093,168.94
14105,139.08
14117,110.86
14129,83.89
14141,59.95
14153,41.21
14165,28.31
14177,19.67
14189,11.68
14201,1.37
14213,-13.41
14225,-32.2
14237,-52.3
14248,-70.09
14259,-82.67
14271,-89.02
14283,-89.96
14295,-87.89
14307,-85.03
14319,-83.67
14331,-84.43
14343,-86.36
14355,-87.55
14367,-86.31
14379,-82.17
14391,-75.75
14403,-69.01
14415,-63.94
14427,-63.86
14438,-70.51
14449,-83.4
14461,-99.96
14473,-116.97
14485,-132.13
14497,-144.08
14509,-153.77
14521,-162.65
14533,-175.63
14545,-195.99
14557,-223.63
14569,-254.99
14581,-285.17
14593,-310.56
14605,-328.99
14617,-342.3
14628,-353.19
14639,-369.75
14651,-397.38
14663,-436.0
14675,-479.91
14687,-520.95
14699,-552.91
14711,-571.63
14723,-579.61
14735,-581.2
14747,-588.86
14759,-613.04
14771,-658.52
14783,-722.97
14795,-798.82
14807,-876.81
14818,-945.33
14829,-997.59
14841,-979.53
14853,-861.62
14865,-650.66
14877,-390.5
14889,-136.03
14901,75.32
14913,215.79
14925,304.31
14937,360.6
14949,398.3
14961,417.03
14973,414.13
14985,392.72
14997,359.79
15008,325.17
15019,296.87
15031,281.25
15043,278.42
15055,286.59
15067,297.37
15079,303.22
15091,300.45
15103,290.36
15115,277.91
15127,267.93
15139,265.25
15151,272.07
15163,289.47
15175,313.45
15187,338.53
15198,359.9
15209,375.53
15221,386.39
15233,394.85
15245,404.37
15257,419.26
15269,443.37
15281,477.23
15293,519.24
15305,566.93
15317,618.14
15329,670.88
15341,721.49
15353,743.27
15365,712.76
15377,620.15
15388,477.45
15399,313.57
15411,159.04
15423,33.75
15435,-56.37
15447,-115.99
15459,-154.31
15471,-176.87
15483,-186.0
15495,-182.47
15507,-168.61
15519,-149.5
15531,-131.27
15543,-118.65
15555,-113.5
15567,-114.78
15578,-117.07
15589,-114.42
15601,-103.17
15613,-83.47
15625,-58.95
15637,-34.35
15649,-13.42
15661,1.97
15673,11.77
15685,19.24
15697,26.8
15709,35.4
15721,43.92
15733,49.75
15745,50.23
15757,44.06
15768,31.9
15779,16.02
15791,0.36
15803,-11.1
15815,-15.94
15827,-13.44
15839,-4.5
15851,9.08
15863,25.3
15875,42.47
15887,59.46
15899,75.74
15911,91.12
15923,104.73
15935,115.73
15947,123.35
15958,127.08
15969,126.6
15981,121.9
15993,112.92
16005,98.89
16017,84.3
16029,71.28
16041,61.22
16053,54.91
16065,52.57
16077,53.79
16089,57.82
16101,63.63
16113,70.1
16125,76.37
16137,80.92
16148,82.82
16159,81.61
16171,77.31
16183,70.26
16195,61.2
16207,51.1
16219,40.99
16231,32.04
16243,24.56
16255,18.73
16267,14.51
16279,11.66
16291,9.77
16303,8.46
16315,7.53
16327,6.94
16338,6.93
16349,7.33
16361,7.97
16373,8.51
16385,8.44
16397,7.09
16409,3.87
16421,-1.39
16433,-8.45
16445,-16.62
16457,-25.35
16469,-34.26
16481,-43.4
16493,-53.28
16505,-64.66
16517,-78.22
16528,-94.01
16539,-111.43
16551,-129.29
16563,-146.38
16575,-162.06
16587,-176.64
16599,-191.37
16611,-208.01
16623,-228.11
16635,-252.18
16647,-279.55
16659,-308.64
16671,-337.46
16683,-364.5
16695,-389.17
16707,-411.86
16718,-433.75
16729,-456.59
16741,-482.5
16753,-513.62
16765,-550.89
16777,-592.73
16789,-634.26
16801,-667.75
16813,-684.89
16825,-679.88
16837,-651.91
16849,-605.59
16861,-549.25
16873,-491.46
16885,-438.3
16897,-392.25
16908,-352.9
16919,-318.93
16931,-289.6
16943,-265.01
16955,-245.33
16967,-229.92
16979,-216.94
16991,-203.96
17003,-189.06
17015,-171.46
17027,-151.67
17039,-131.06
17051,-110.87
17063,-91.52
17075,-72.46
17087,-52.31
17098,-29.7
17109,-3.91
17121,24.75
17133,54.91
17145,84.63
17157,111.98
17169,135.6
17181,154.86
17193,169.83
17205,180.8
17217,188.06
17229,191.62
17241,191.17
17253,186.38
17265,177.19
17277,163.98
17288,147.54
17299,129.06
17311,109.77
17323,90.74
17335,72.79
17347,56.39
17359,41.78
17371,29.05
17383,18.25
17395,9.38
17407,2.45
17419,-2.56
17431,-5.73
17443,-7.12
17455,-6.82
17467,-4.93
17478,-1.51
17489,3.4
17501,9.85
17513,17.92
17525,27.71
17537,39.3
17549,52.71
17561,67.81
17573,84.41
17585,102.24
17597,120.97
17609,140.35
17621,160.11
17633,179.84
17645,199.08
17657,217.37
17668,234.51
17679,250.78
17691,266.92
17703,283.84
17715,302.05
17727,320.95
17739,338.54
17751,351.62
17763,356.69
17775,351.34
17787,335.26
17799,310.98
17811,283.29
17823,258.01
17835,240.26
17847,233.32
17858,238.13
17869,253.36
17881,275.78
17893,300.31
17905,320.56
17917,329.69
17929,322.27
17941,296.04
17953,253.03
17965,198.85
17977,140.55
17989,83.94
18001,31.77
18013,-16.09
18025,-60.86
18037,-102.48
18048,-138.4
18059,-164.18
18071,-175.53
18083,-170.52
18095,-150.59
18107,-119.96
18119,-83.73
18131,-46.37
18143,-10.63
18155,22.23
18167,51.53
18179,76.64
18191,97.07
18203,113.38
18215,127.41
18227,141.85
18238,158.22
18249,175.14
18261,187.84
18273,189.75
18285,175.45
18297,143.1
18309,95.18
18321,36.86
18333,-26.09
18345,-88.9
18357,-147.23
18369,-196.24
18381,-230.1
18393,-243.73
18405,-235.51
18417,-209.19
18428,-173.13
18439,-136.76
18451,-106.13
18463,-81.51
18475,-58.3
18487,-30.78
18499,3.99
18511,44.11
18523,84.19
18535,118.41
18547,143.54
18559,160.21
18571,171.69
18583,181.8
18595,193.19
18607,206.97
18618,223.03
18629,240.56
18641,257.92
18653,272.34
18665,279.93
18677,276.57
18689,259.53
18701,229.01
18713,188.45
18725,143.45
18737,99.65
18749,60.47
18761,26.24
18773,-5.28
18785,-36.65
18797,-68.47
18808,-97.93
18819,-119.59
18831,-127.92
18843,-120.32
18855,-98.83
18867,-69.28
18879,-38.78
18891,-12.38
18903,8.4
18915,25.09
18927,39.96
18939,53.7
18951,64.65
18963,69.6
18975,65.93
18987,53.37
18998,34.5
19009,14.01
19021,-3.13
19033,-13.28
19045,-15.31
19057,-11.13
19069,-5.3
19081,-3.25
19093,-8.72
19105,-21.49
19117,-37.29
19129,-49.41
19141,-52.16
19153,-43.93
19165,-27.91
19177,-10.63
19188,1.55
19199,5.35
19211,1.82
19223,-4.84
19235,-9.95
19247,-10.85
19259,-8.01
19271,-4.3
19283,-3.46
19295,-8.25
19307,-19.63
19319,-36.91
19331,-58.51
19343,-82.47
19355,-106.85
19367,-129.42
19378,-147.35
19389,-157.49
19401,-157.45
19413,-147.25
19425,-130.08
19437,-111.78
19449,-98.52
19461,-94.12
19473,-98.04
19485,-105.24
19497,-108.71
19509,-102.65
19521,-85.28
19533,-59.34
19545,-30.26
19557,-3.25
19568,19.11
19579,37.15
19591,53.01
19603,68.52
19615,83.9
19627,97.68
19639,107.76
19651,112.51
19663,111.62
19675,105.82
19687,96.07
19699,82.87
19711,65.75
19723,44.17
19735,18.49
19747,-8.88
19758,-33.42
19769,-49.96
19781,-55.0
19793,-49.0
19805,-36.65
19817,-25.25
19829,-21.44
19841,-28.27
19853,-44.12
19865,-63.95
19877,-82.32
19889,-95.98
19901,-104.97
19913,-111.25
19925,-116.97
19937,-122.57
19948,-126.66
19959,-126.96
19971,-121.53
19983,-109.41
19995,-90.64
20007,-66.13
20019,-37.44
20031,-7.5
20043,19.72
20055,40.12
20067,51.13
20079,53.07
20091,49.25
20103,44.71
20115,43.66
20127,47.73
20138,55.11
20149,62.02
20161,65.15
20173,63.26
20185,57.79
20197,51.69
20209,47.79
20221,47.65
20233,51.22
20245,57.51
20257,65.38
20269,73.97
20281,82.61
20293,90.65
20305,97.26
20317,101.79
20328,104.18
20339,105.15
20351,106.06
20363,108.31
20375,113.05
20387,120.58
20399,130.6
20411,141.95
20423,152.61
20435,159.95
20447,161.49
20459,155.8
20471,143.29
20483,126.16
20495,107.57
20507,90.34
20518,75.96
20529,64.3
20541,54.56
20553,46.22
20565,39.63
20577,35.48
20589,33.79
20601,33.32
20613,31.69
20625,26.16
20637,14.87
20649,-2.39
20661,-24.05
20673,-47.13
20685,-68.23
20697,-84.98
20708,-96.96
20719,-105.85
20731,-114.56
20743,-125.52
20755,-139.15
20767,-153.52
20779,-165.51
20791,-172.64
20803,-174.89
20815,-174.51
20827,-174.41
20839,-176.15
20851,-178.86
20863,-179.83
20875,-176.13
20887,-166.03
20898,-149.56
20909,-128.11
20921,-103.77
20933,-78.57
20945,-54.33
20957,-32.58
20969,-14.6
20981,-1.25
20993,7.03
