seconds,BVP
7,-33.34
19,-42.41
31,-47.58
43,-46.76
55,-39.91
67,-29.03
79,-16.96
91,-6.3
103,1.89
115,8.25
127,14.69
138,23.01
149,33.78
161,45.8
173,56.35
185,62.5
197,62.43
209,56.36
221,46.67
233,36.94
245,30.46
257,29.07
269,32.62
281,39.31
293,46.78
305,52.91
317,56.5
328,57.02
339,54.27
351,48.09
363,38.54
375,26.34
387,13.18
399,1.52
411,-6.54
423,-10.2
435,-10.72
447,-10.94
459,-13.71
471,-20.33
483,-29.61
495,-38.62
507,-44.13
518,-44.55
529,-40.72
541,-35.44
553,-31.95
565,-32.06
577,-35.29
589,-39.23
601,-41.03
613,-39.02
625,-33.6
637,-26.88
649,-21.28
661,-18.41
673,-18.22
685,-19.48
697,-20.8
708,-21.67
719,-22.63
731,-24.81
743,-29.02
755,-34.91
767,-41.26
779,-46.29
791,-48.65
803,-47.76
815,-43.97
827,-38.14
839,-31.11
851,-23.69
863,-16.29
875,-9.46
887,-3.69
898,0.45
909,2.67
921,3.29
933,3.3
945,4.54
957,8.65
969,16.53
981,27.24
993,38.12
1005,45.58
1017,46.65
1029,40.56
1041,29.1
1053,16.09
1065,5.57
1077,0.26
1088,0.4
1099,4.28
1111,9.31
1123,13.56
1135,16.51
1147,18.68
1159,20.8
1171,22.93
1183,24.33
1195,23.98
1207,21.28
1219,16.63
1231,11.27
1243,6.61
1255,3.42
1267,1.59
1278,0.25
1289,-1.68
1301,-4.83
1313,-9.19
1325,-14.13
1337,-18.68
1349,-21.81
1361,-22.75
1373,-21.11
1385,-17.32
1397,-12.55
1409,-8.44
1421,-6.26
1433,-6.29
1445,-7.44
1457,-7.8
1468,-5.75
1479,-0.98
1491,5.03
1503,9.8
1515,11.08
1527,8.29
1539,2.77
1551,-2.81
1563,-5.87
1575,-5.08
1587,-0.72
1599,5.68
1611,12.44
1623,18.49
1635,23.74
1647,28.77
1658,34.17
1669,40.05
1681,45.78
1693,50.62
1705,53.96
1717,55.96
1729,56.95
1741,57.06
1753,56.1
1765,53.69
1777,49.9
1789,45.42
1801,41.7
1813,39.94
1825,40.58
1837,42.31
1848,42.93
1859,40.76
1871,35.67
1883,29.34
1895,24.12
1907,21.98
1919,23.71
1931,29.04
1943,35.92
1955,41.73
1967,44.39
1979,43.06
1991,38.38
2003,31.75
2015,24.9
2027,19.55
2038,17.13
2049,16.78
2061,16.38
2073,14.05
2085,9.1
2097,2.71
2109,-3.42
2121,-8.11
2133,-11.27
2145,-13.75
2157,-19.24
2169,-32.23
2181,-55.92
2193,-91.51
2205,-137.92
2217,-193.51
2228,-256.9
2239,-326.59
2251,-384.85
2263,-411.27
2275,-392.32
2287,-330.81
2299,-243.35
2311,-147.12
2323,-53.05
2335,34.36
2347,114.22
2359,186.66
2371,249.3
2383,298.01
2395,331.98
2407,349.17
2418,351.56
2429,344.18
2441,332.66
2453,320.52
2465,308.56
2477,293.86
2489,272.02
2501,239.75
2513,193.78
2525,136.07
2537,71.76
2549,8.07
2561,-50.63
2573,-103.62
2585,-153.67
2597,-204.75
2608,-259.86
2619,-323.22
2631,-393.28
2643,-462.83
2655,-521.25
2667,-558.22
2679,-565.71
2691,-539.86
2703,-482.14
2715,-378.7
2727,-241.08
2739,-100.05
2751,11.03
2763,75.0
2775,93.49
2787,78.33
2798,43.02
2809,-1.59
2821,-47.55
2833,-95.27
2845,-141.07
2857,-176.7
2869,-193.31
2881,-186.43
2893,-157.41
2905,-111.35
2917,-54.42
2929,7.86
2941,68.9
2953,125.61
2965,177.01
2977,223.78
2988,265.6
2999,300.67
3011,326.38
3023,341.54
3035,345.69
3047,336.5
3059,312.81
3071,274.92
3083,224.08
3095,161.25
3107,87.35
3119,4.23
3131,-82.77
3143,-165.81
3155,-237.82
3167,-292.37
3178,-323.95
3189,-326.5
3201,-298.14
3213,-245.39
3225,-182.76
3237,-122.98
3249,-72.87
3261,-34.69
3273,-7.77
3285,9.8
3297,20.64
3309,26.18
3321,34.91
3333,44.16
3345,52.04
3357,57.96
3368,60.31
3379,57.17
3391,46.34
3403,27.17
3415,0.14
3427,-32.4
3439,-66.78
3451,-106.64
3463,-147.8
3475,-185.35
3487,-215.08
3499,-234.24
3511,-241.5
3523,-237.5
3535,-224.11
3547,-204.9
3558,-182.6
3569,-158.32
3581,-134.28
3593,-112.56
3605,-95.12
3617,-82.73
3629,-75.65
3641,-73.28
3653,-74.83
3665,-78.65
3677,-81.78
3689,-82.7
3701,-80.64
3713,-75.98
3725,-69.21
3737,-61.23
3748,-53.08
3759,-45.71
3771,-39.7
3783,-34.45
3795,-29.66
3807,-25.08
3819,-20.66
3831,-16.31
3843,-12.09
3855,-8.06
3867,-4.48
3879,-1.58
3891,0.87
3903,2.83
3915,4.21
3927,4.81
3938,4.6
3949,3.51
3961,1.64
3973,-0.88
3985,-3.86
3997,-6.92
4009,-9.7
4021,-11.99
4033,-13.62
4045,-14.49
4057,-14.65
4069,-14.14
4081,-13.12
4093,-11.78
4105,-10.26
4117,-8.67
4128,-7.12
4139,-5.65
4151,-4.35
4163,-3.25
4175,-2.33
4187,-1.62
4199,-1.18
4211,-0.99
4223,-1.0
4235,-1.05
4247,-1.03
4259,-0.75
4271,-0.01
4283,1.32
4295,3.31
4307,5.87
4318,8.86
4329,12.1
4341,15.34
4353,18.37
4365,21.01
4377,23.18
4389,24.91
4401,26.22
4413,27.28
4425,28.28
4437,29.44
4449,30.89
4461,32.82
4473,35.24
4485,37.98
4497,40.77
4508,43.18
4519,44.82
4531,45.36
4543,44.7
4555,42.94
4567,40.42
4579,37.66
4591,35.12
4603,33.13
4615,31.89
4627,31.39
4639,31.59
4651,32.71
4663,35.08
4675,39.1
4687,45.17
4698,53.43
4709,63.68
4721,75.31
4733,87.47
4745,99.44
4757,110.95
4769,122.26
4781,133.95
4793,146.76
4805,161.19
4817,177.24
4829,194.39
4841,211.79
4853,228.75
4865,244.88
4877,260.31
4888,275.53
4899,291.32
4911,308.45
4923,327.74
4935,349.5
4947,373.08
4959,396.36
4971,415.83
4983,427.32
4995,427.47
5007,415.04
5019,391.39
5031,360.24
5043,326.32
5055,293.58
5067,264.22
5078,238.59
5089,215.86
5101,195.24
5113,176.34
5125,159.25
5137,144.28
5149,131.28
5161,119.49
5173,107.95
5185,95.86
5197,82.98
5209,69.82
5221,57.15
5233,45.66
5245,35.61
5257,26.63
5268,18.11
5279,9.63
5291,1.18
5303,-6.69
5315,-13.13
5327,-17.61
5339,-19.98
5351,-20.69
5363,-20.58
5375,-20.45
5387,-20.92
5399,-22.28
5411,-24.6
5423,-27.65
5435,-31.08
5447,-34.26
5458,-36.59
5469,-37.65
5481,-37.34
5493,-36.06
5505,-34.5
5517,-33.42
5529,-33.18
5541,-33.64
5553,-34.22
5565,-34.17
5577,-33.11
5589,-31.02
5601,-28.26
5613,-25.4
5625,-22.95
5637,-21.03
5648,-19.66
5659,-18.71
5671,-18.03
5683,-17.7
5695,-17.72
5707,-18.05
5719,-18.44
5731,-18.74
5743,-18.85
5755,-19.02
5767,-19.68
5779,-21.23
5791,-23.87
5803,-27.41
5815,-31.29
5827,-34.68
5838,-36.93
5849,-37.63
5861,-36.83
5873,-34.83
5885,-31.97
5897,-28.48
5909,-24.54
5921,-20.32
5933,-16.13
5945,-12.63
5957,-10.29
5969,-9.48
5981,-10.0
5993,-11.16
6005,-12.15
6017,-12.4
6028,-11.9
6039,-11.21
6051,-11.26
6063,-12.67
6075,-15.53
6087,-19.31
6099,-23.0
6111,-25.58
6123,-26.3
6135,-24.99
6147,-21.97
6159,-17.93
6171,-13.47
6183,-9.16
6195,-5.48
6207,-2.74
6218,-1.25
6229,-1.18
6241,-2.56
6253,-5.3
6265,-9.09
6277,-13.32
6289,-17.39
6301,-20.71
6313,-22.7
6325,-23.29
6337,-22.59
6349,-20.97
6361,-18.89
6373,-16.79
6385,-14.93
6397,-13.52
6408,-12.77
6419,-12.71
6431,-13.46
6443,-15.11
6455,-17.54
6467,-20.4
6479,-23.25
6491,-25.56
6503,-27.01
6515,-27.57
6527,-27.48
6539,-27.14
6551,-26.96
6563,-26.98
6575,-26.9
6587,-26.4
6598,-25.22
6609,-23.48
6621,-21.53
6633,-19.68
6645,-18.09
6657,-16.55
6669,-14.57
6681,-11.55
6693,-7.37
6705,-2.3
6717,2.87
6729,7.15
6741,9.89
6753,10.91
6765,10.48
6777,9.19
6788,7.59
6799,5.71
6811,3.53
6823,0.67
6835,-3.14
6847,-7.79
6859,-13.01
6871,-18.5
6883,-24.17
6895,-29.98
6907,-35.91
6919,-41.33
6931,-45.35
6943,-46.93
6955,-45.41
6967,-40.94
6978,-34.49
6989,-27.44
7001,-20.83
7013,-15.14
7025,-9.97
7037,-4.75
7049,0.74
7061,6.3
7073,11.23
7085,14.99
7097,17.5
7109,19.13
7121,20.02
7133,19.97
7145,18.28
7157,14.1
7168,7.44
7179,-0.73
7191,-8.31
7203,-12.97
7215,-13.05
7227,-8.58
7239,-1.09
7251,6.92
7263,13.05
7275,16.01
7287,15.73
7299,13.36
7311,10.28
7323,7.6
7335,5.65
7347,4.03
7358,2.15
7369,-0.4
7381,-3.47
7393,-6.6
7405,-9.11
7417,-10.51
7429,-10.83
7441,-10.33
7453,-9.47
7465,-8.74
7477,-8.4
7489,-8.51
7501,-8.99
7513,-9.76
7525,-10.67
7537,-11.9
7548,-13.48
7559,-15.48
7571,-17.79
7583,-19.98
7595,-21.53
7607,-21.86
7619,-20.69
7631,-18.2
7643,-15.14
7655,-12.31
7667,-10.51
7679,-9.85
7691,-9.89
7703,-9.83
7715,-8.87
7727,-6.73
7738,-3.67
7749,-0.46
7761,2.23
7773,3.85
7785,4.39
7797,4.29
7809,4.05
7821,4.04
7833,4.35
7845,4.66
7857,4.51
7869,3.61
7881,1.73
7893,-1.08
7905,-4.49
7917,-8.08
7928,-11.31
7939,-13.74
7951,-15.16
7963,-15.66
7975,-15.57
7987,-15.36
7999,-15.39
8011,-15.64
8023,-16.07
8035,-16.34
8047,-16.38
8059,-16.25
8071,-16.17
8083,-16.14
8095,-15.83
8107,-14.72
8118,-12.24
8129,-8.45
8141,-3.87
8153,0.45
8165,3.44
8177,4.3
8189,2.89
8201,-0.41
8213,-4.79
8225,-9.35
8237,-13.46
8249,-16.55
8261,-18.33
8273,-18.6
8285,-17.47
8297,-15.38
8308,-13.1
8319,-11.47
8331,-11.06
8343,-12.01
8355,-13.8
8367,-15.59
8379,-16.29
8391,-15.04
8403,-11.54
8415,-6.01
8427,0.92
8439,8.36
8451,15.42
8463,21.39
8475,25.73
8487,28.3
8498,29.46
8509,29.5
8521,28.78
8533,27.38
8545,25.13
8557,21.69
8569,16.82
8581,10.28
8593,2.01
8605,-7.72
8617,-18.62
8629,-30.02
8641,-41.14
8653,-51.02
8665,-58.76
8677,-63.77
8688,-66.15
8699,-66.66
8711,-66.42
8723,-66.38
8735,-66.61
8747,-66.44
8759,-64.64
8771,-59.82
8783,-51.24
8795,-39.16
8807,-24.68
8819,-9.34
8831,5.5
8843,19.15
8855,31.29
8867,41.61
8878,49.9
8889,55.68
8901,58.55
8913,58.41
8925,55.54
8937,50.39
8949,43.44
8961,34.92
8973,24.75
8985,13.26
8997,1.26
9009,-9.61
9021,-17.46
9033,-20.89
9045,-19.69
9057,-15.13
9068,-9.61
9079,-5.77
9091,-5.41
9103,-8.89
9115,-14.66
9127,-20.08
9139,-22.43
9151,-19.91
9163,-12.47
9175,-1.66
9187,10.03
9199,20.21
9211,27.11
9223,30.23
9235,29.96
9247,27.07
9258,22.55
9269,17.13
9281,11.5
9293,6.15
9305,1.6
9317,-2.0
9329,-4.7
9341,-6.8
9353,-8.77
9365,-10.84
9377,-13.29
9389,-15.86
9401,-18.31
9413,-20.31
9425,-21.67
9437,-22.26
9448,-22.05
9459,-20.93
9471,-18.79
9483,-15.69
9495,-11.79
9507,-7.48
9519,-3.36
9531,0.03
9543,2.39
9555,3.8
9567,4.62
9579,5.37
9591,6.29
9603,7.27
9615,7.94
9627,7.66
9638,5.97
9649,2.73
9661,-1.64
9673,-6.43
9685,-10.75
9697,-14.05
9709,-16.17
9721,-17.37
9733,-18.19
9745,-19.14
9757,-20.5
9769,-22.15
9781,-23.5
9793,-24.01
9805,-23.29
9817,-21.29
9828,-18.43
9839,-15.21
9851,-12.06
9863,-9.01
9875,-5.89
9887,-2.25
9899,1.96
9911,6.42
9923,10.45
9935,13.35
9947,14.79
9959,15.08
9971,15.0
9983,15.41
9995,16.88
10007,19.32
10018,22.11
10029,24.19
10041,24.47
10053,22.2
10065,17.18
10077,9.96
10089,1.54
10101,-6.85
10113,-14.11
10125,-19.61
10137,-23.42
10149,-26.21
10161,-28.73
10173,-31.65
10185,-35.01
10197,-38.48
10208,-41.32
10219,-42.8
10231,-42.35
10243,-39.81
10255,-35.41
10267,-29.47
10279,-22.47
10291,-14.77
10303,-6.8
10315,1.02
10327,8.2
10339,14.41
10351,19.36
10363,22.97
10375,25.3
10387,26.28
10398,25.95
10409,24.38
10421,21.71
10433,18.16
10445,14.16
10457,10.0
10469,6.11
10481,2.72
10493,-0.09
10505,-2.16
10517,-3.5
10529,-4.19
10541,-4.44
10553,-4.67
10565,-5.34
10577,-6.81
10588,-9.28
10599,-12.55
10611,-15.92
10623,-18.47
10635,-19.31
10647,-17.99
10659,-14.74
10671,-10.43
10683,-6.23
10695,-3.19
10707,-1.95
10719,-2.33
10731,-3.79
10743,-5.78
10755,-7.87
10767,-9.93
10778,-11.97
10789,-13.88
10801,-15.28
10813,-15.8
10825,-14.98
10837,-12.76
10849,-9.45
10861,-5.57
10873,-1.68
10885,2.03
10897,5.61
10909,9.45
10921,13.87
10933,18.9
10945,24.09
10957,28.65
10968,31.65
10979,32.4
10991,30.68
11003,26.77
11015,21.22
11027,14.78
11039,8.0
11051,1.33
11063,-4.8
11075,-9.91
11087,-13.66
11099,-15.89
11111,-16.66
11123,-16.38
11135,-15.5
11147,-14.53
11158,-13.65
11169,-12.7
11181,-11.33
11193,-9.3
11205,-6.62
11217,-3.56
11229,-0.67
11241,1.48
11253,2.48
11265,2.29
11277,1.32
11289,0.12
11301,-0.78
11313,-1.2
11325,-1.35
11337,-1.77
11348,-2.94
11359,-5.1
11371,-7.89
11383,-10.36
11395,-11.63
11407,-11.11
11419,-9.03
11431,-6.34
11443,-4.28
11455,-3.67
11467,-4.54
11479,-6.19
11491,-7.37
11503,-7.17
11515,-5.26
11527,-1.96
11538,1.9
11549,5.56
11561,8.62
11573,10.87
11585,12.32
11597,12.78
11609,11.95
11621,9.79
11633,6.62
11645,3.03
11657,-0.18
11669,-2.41
11681,-3.61
11693,-4.14
11705,-4.56
11717,-5.52
11728,-7.08
11739,-8.89
11751,-10.46
11763,-11.35
11775,-11.51
11787,-11.27
11799,-11.26
11811,-11.85
11823,-13.15
11835,-14.9
11847,-16.53
11859,-17.54
11871,-17.78
11883,-17.42
11895,-17.01
11907,-17.08
11918,-17.9
11929,-19.35
11941,-21.0
11953,-22.24
11965,-22.28
11977,-20.45
11989,-16.45
12001,-10.56
12013,-3.53
12025,3.74
12037,10.31
12049,15.6
12061,19.38
12073,21.67
12085,22.84
12097,23.31
12108,23.38
12119,23.33
12131,23.39
12143,23.57
12155,23.72
12167,23.65
12179,23.0
12191,21.63
12203,19.66
12215,17.36
12227,15.03
12239,12.9
12251,10.97
12263,9.13
12275,7.39
12287,5.62
12298,3.79
12309,1.77
12321,-0.75
12333,-4.36
12345,-9.59
12357,-16.7
12369,-25.37
12381,-34.47
12393,-42.68
12405,-48.52
12417,-50.93
12429,-49.46
12441,-44.49
12453,-36.92
12465,-28.1
12477,-19.41
12488,-12.08
12499,-7.1
12511,-4.94
12523,-5.54
12535,-8.09
12547,-11.23
12559,-13.29
12571,-12.84
12583,-9.2
12595,-2.95
12607,4.27
12619,10.35
12631,13.67
12643,13.82
12655,11.77
12667,9.37
12678,8.43
12689,9.85
12701,13.2
12713,17.05
12725,19.66
12737,19.86
12749,17.47
12761,13.34
12773,8.81
12785,5.24
12797,3.48
12809,3.95
12821,6.51
12833,10.59
12845,15.48
12857,20.34
12868,24.46
12879,27.25
12891,28.46
12903,27.95
12915,25.91
12927,22.75
12939,19.02
12951,15.32
12963,12.14
12975,9.78
12987,8.17
12999,6.96
13011,5.62
13023,3.9
13035,1.84
13047,0.02
13058,-0.99
13069,-0.75
13081,0.83
13093,3.38
13105,6.36
13117,9.15
13129,11.46
13141,13.26
13153,14.91
13165,16.94
13177,19.69
13189,23.07
13201,26.39
13213,28.45
13225,27.99
13237,24.01
13248,16.24
13259,5.37
13271,-7.02
13283,-18.9
13295,-28.55
13307,-35.21
13319,-39.37
13331,-42.43
13343,-46.0
13355,-50.56
13367,-54.68
13379,-55.01
13391,-47.65
13403,-30.04
13415,-2.91
13427,29.08
13438,58.33
13449,76.48
13461,77.53
13473,59.69
13485,26.45
13497,-14.75
13509,-54.47
13521,-84.21
13533,-98.41
13545,-95.91
13557,-79.81
13569,-56.06
13581,-31.82
13593,-13.23
13605,-4.0
13617,-4.75
13628,-13.34
13639,-25.87
13651,-38.08
13663,-46.55
13675,-49.61
13687,-47.54
13699,-42.35
13711,-36.97
13723,-34.26
13735,-36.01
13747,-42.57
13759,-52.7
13771,-63.93
13783,-73.59
13795,-79.44
13807,-80.52
13818,-77.17
13829,-70.69
13841,-62.4
13853,-53.08
13865,-42.5
13877,-29.49
13889,-12.87
13901,8.01
13913,32.66
13925,59.86
13937,87.85
13949,115.13
13961,140.34
13973,162.38
13985,179.88
13997,191.13
14008,194.02
14019,186.68
14031,168.03
14043,138.24
14055,98.94
14067,52.85
14079,3.76
14091,-44.19
14103,-86.71
14115,-119.83
14127,-140.37
14139,-146.61
14151,-138.77
14163,-119.08
14175,-91.53
14187,-60.92
14198,-32.12
14209,-8.99
14221,6.13
14233,12.71
14245,11.8
14257,5.72
14269,-2.48
14281,-9.72
14293,-13.54
14305,-12.75
14317,-7.44
14329,1.22
14341,11.42
14353,21.36
14365,29.74
14377,36.0
14388,40.19
14399,42.74
14411,44.16
14423,44.89
14435,45.32
14447,45.66
14459,46.02
14471,46.22
14483,45.87
14495,44.37
14507,41.23
14519,36.33
14531,30.16
14543,23.59
14555,17.8
14567,13.86
14578,12.18
14589,12.43
14601,13.61
14613,14.48
14625,13.93
14637,11.63
14649,7.74
14661,3.02
14673,-1.43
14685,-4.87
14697,-7.02
14709,-8.24
14721,-9.13
14733,-10.41
14745,-12.37
14757,-15.0
14768,-18.03
14779,-20.95
14791,-23.4
14803,-25.16
14815,-26.28
14827,-27.12
14839,-28.31
14851,-30.47
14863,-34.03
14875,-38.91
14887,-44.33
14899,-48.99
14911,-51.41
14923,-50.63
14935,-46.57
14947,-40.17
14958,-32.89
14969,-26.36
14981,-21.75
14993,-19.44
15005,-19.03
15017,-19.5
15029,-19.68
15041,-18.81
15053,-16.66
15065,-13.63
15077,-10.57
15089,-8.17
15101,-6.72
15113,-5.98
15125,-5.39
15137,-4.34
15148,-2.72
15159,-0.82
15171,0.73
15183,1.29
15195,0.63
15207,-1.06
15219,-3.28
15231,-5.44
15243,-6.99
15255,-7.59
15267,-7.11
15279,-5.53
15291,-3.09
15303,0.03
15315,3.34
15327,6.34
15338,8.69
15349,10.29
15361,11.46
15373,12.76
15385,14.75
15397,17.55
15409,20.97
15421,24.13
15433,26.02
15445,25.95
15457,23.68
15469,19.62
15481,14.56
15493,9.42
15505,4.82
15517,1.1
15528,-1.81
15539,-4.21
15551,-6.25
15563,-8.06
15575,-9.35
15587,-9.92
15599,-9.72
15611,-9.24
15623,-9.29
15635,-10.74
15647,-14.18
15659,-19.34
15671,-25.43
15683,-31.2
15695,-35.62
15707,-38.05
15718,-38.51
15729,-37.16
15741,-34.01
15753,-28.92
15765,-21.45
15777,-11.72
15789,-0.28
15801,11.85
15813,23.7
15825,34.53
15837,44.12
15849,52.49
15861,59.47
15873,64.74
15885,67.66
15897,67.69
15908,64.72
15919,59.18
15931,51.9
15943,43.69
15955,35.11
15967,26.23
15979,16.96
15991,7.12
16003,-3.24
16015,-13.64
16027,-23.21
16039,-30.69
16051,-34.78
16063,-34.56
16075,-29.96
16087,-21.65
16098,-11.18
16109,-0.52
16121,8.63
16133,15.15
16145,18.76
16157,19.98
16169,19.82
16181,19.22
16193,19.07
16205,19.73
16217,21.12
16229,22.93
16241,24.44
16253,24.85
16265,23.4
16277,19.75
16288,13.91
16299,6.54
16311,-1.35
16323,-8.55
16335,-13.9
16347,-16.71
16359,-17.12
16371,-16.09
16383,-15.13
16395,-15.91
16407,-19.36
16419,-25.34
16431,-32.52
16443,-38.76
16455,-42.06
16467,-41.24
16478,-36.6
16489,-29.35
16501,-21.45
16513,-14.42
16525,-9.06
16537,-5.34
16549,-2.46
16561,0.63
16573,4.96
16585,10.9
16597,18.39
16609,26.67
16621,34.79
16633,41.82
16645,47.11
16657,50.32
16668,51.41
16679,50.39
16691,47.08
16703,41.25
16715,32.6
16727,21.17
16739,7.33
16751,-8.11
16763,-24.11
16775,-39.6
16787,-53.62
16799,-65.48
16811,-74.78
16823,-81.57
16835,-86.23
16847,-89.22
16858,-90.75
16869,-90.35
16881,-86.94
16893,-79.08
16905,-65.74
16917,-46.89
16929,-23.96
16941,0.23
16953,22.57
16965,40.21
16977,51.59
16989,56.54
17001,56.11
17013,51.82
17025,45.35
17037,37.9
17048,30.27
17059,23.01
17071,16.49
17083,11.02
17095,6.8
17107,3.84
17119,1.72
17131,-0.4
17143,-3.72
17155,-9.46
17167,-18.35
17179,-30.21
17191,-43.51
17203,-55.34
17215,-61.93
17227,-59.74
17238,-46.49
17249,-22.27
17261,10.27
17273,46.53
17285,80.81
17297,107.86
17309,123.99
17321,127.56
17333,119.0
17345,100.33
17357,74.36
17369,44.23
17381,13.03
17393,-16.53
17405,-42.31
17417,-62.74
17428,-77.03
17439,-85.25
17451,-88.33
17463,-87.92
17475,-86.07
17487,-84.72
17499,-85.19
17511,-87.83
17523,-91.88
17535,-95.55
17547,-96.67
17559,-93.21
17571,-83.83
17583,-68.27
17595,-47.2
17607,-22.24
17618,4.62
17629,31.35
17641,56.22
17653,77.88
17665,95.46
17677,108.39
17689,116.4
17701,119.64
17713,118.6
17725,114.32
17737,108.12
17749,101.24
17761,94.54
17773,88.32
17785,82.23
17797,75.53
17808,67.53
17819,57.89
17831,46.84
17843,35.06
17855,23.5
17867,13.03
17879,4.39
17891,-2.06
17903,-6.25
17915,-8.35
17927,-8.75
17939,-8.06
17951,-6.9
17963,-5.8
17975,-5.04
17987,-4.54
17998,-4.04
18009,-3.27
18021,-2.11
18033,-0.74
18045,0.4
18057,0.9
18069,0.48
18081,-0.73
18093,-2.47
18105,-4.34
18117,-6.17
18129,-7.92
18141,-9.76
18153,-11.81
18165,-14.0
18177,-16.25
18188,-18.4
18199,-20.48
18211,-22.53
18223,-24.66
18235,-26.94
18247,-29.4
18259,-32.02
18271,-34.85
18283,-38.03
18295,-41.72
18307,-45.73
18319,-49.47
18331,-52.05
18343,-52.59
18355,-50.59
18367,-46.07
18378,-39.59
18389,-31.94
18401,-23.83
18413,-15.73
18425,-7.75
18437,0.17
18449,7.97
18461,15.44
18473,21.96
18485,26.89
18497,29.57
18509,29.7
18521,27.35
18533,23.06
18545,17.83
18557,12.61
18568,8.34
18579,5.36
18591,3.43
18603,1.94
18615,0.16
18627,-2.4
18639,-5.77
18651,-9.37
18663,-12.44
18675,-14.29
18687,-14.62
18699,-13.77
18711,-12.3
18723,-10.88
18735,-9.96
18747,-9.68
18758,-9.79
18769,-9.97
18781,-9.82
18793,-9.13
18805,-7.94
18817,-6.51
18829,-5.39
18841,-4.93
18853,-5.38
18865,-6.51
18877,-7.73
18889,-8.38
18901,-8.04
18913,-6.74
18925,-4.92
18937,-3.35
18948,-2.45
18959,-2.27
18971,-2.38
18983,-2.17
18995,-1.37
19007,-0.2
19019,0.69
19031,0.71
19043,-0.41
19055,-2.45
19067,-4.73
19079,-6.56
19091,-7.49
19103,-7.42
19115,-6.6
19127,-5.25
19138,-3.63
19149,-1.78
19161,0.26
19173,2.42
19185,4.73
19197,7.2
19209,9.92
19221,12.89
19233,15.99
19245,18.84
19257,21.04
19269,22.23
19281,22.35
19293,21.67
19305,20.59
19317,19.51
19328,18.45
19339,17.25
19351,15.55
19363,13.17
19375,10.23
19387,7.04
19399,3.91
19411,1.04
19423,-1.48
19435,-3.72
19447,-5.53
19459,-6.72
19471,-7.03
19483,-6.35
19495,-4.91
19507,-3.2
19518,-1.61
19529,-0.36
19541,0.66
19553,1.84
19565,3.46
19577,5.5
19589,7.76
19601,9.75
19613,11.1
19625,11.66
19637,11.49
19649,10.71
19661,9.4
19673,7.6
19685,5.4
19697,3.31
19708,1.96
19719,1.94
19731,3.39
19743,5.84
19755,8.37
19767,9.96
19779,10.08
19791,8.9
19803,7.12
19815,5.38
19827,3.95
19839,2.47
19851,0.17
19863,-3.8
19875,-10.01
19887,-18.51
19898,-28.84
19909,-40.1
19921,-50.96
19933,-59.66
19945,-64.36
19957,-63.7
19969,-57.31
19981,-46.28
19993,-32.94
20005,-20.24
20017,-10.94
20029,-6.64
20041,-7.35
20053,-11.65
20065,-17.32
20077,-21.87
20088,-23.34
20099,-20.53
20111,-13.1
20123,-1.61
20135,12.77
20147,28.5
20159,43.85
20171,57.25
20183,67.75
20195,74.9
20207,78.88
20219,80.24
20231,79.6
20243,77.5
20255,74.18
20267,69.64
20278,63.98
20289,57.56
20301,50.91
20313,44.66
20325,39.18
20337,34.47
20349,30.28
20361,26.14
20373,21.62
20385,16.47
20397,10.79
20409,4.56
20421,-2.16
20433,-9.23
20445,-16.71
20457,-24.24
20468,-31.42
20479,-37.8
20491,-43.19
20503,-47.64
20515,-51.69
20527,-55.95
20539,-60.56
20551,-65.27
20563,-69.16
20575,-71.17
20587,-70.52
20599,-67.19
20611,-61.69
20623,-55.05
20635,-48.28
20647,-41.98
20658,-36.61
20669,-32.39
20681,-29.53
20693,-28.28
20705,-28.61
20717,-30.05
20729,-31.7
20741,-32.49
20753,-31.54
20765,-28.73
20777,-24.28
20789,-18.71
20801,-12.43
20813,-5.35
20825,2.73
20837,11.8
20848,21.4
20859,30.56
20871,37.89
20883,42.36
20895,43.5
20907,41.34
20919,36.46
20931,29.65
20943,21.6
20955,13.07
20967,4.9
20979,-2.2
20991,-7.58
