seconds,BVP
10,68.68
22,39.29
33,12.19
44,-8.24
56,-18.35
68,-15.87
80,-0.76
92,24.39
104,54.77
116,84.45
128,107.87
140,121.13
152,122.49
164,112.47
176,93.32
188,68.38
200,41.39
212,15.64
223,-6.65
234,-24.7
246,-39.03
258,-50.9
270,-61.65
282,-72.03
294,-82.11
306,-91.44
318,-99.38
330,-105.46
342,-109.54
354,-111.75
366,-112.49
378,-112.18
390,-111.26
402,-109.99
413,-108.53
424,-106.88
436,-105.0
448,-102.87
460,-100.48
472,-97.85
484,-94.99
496,-91.95
508,-88.86
520,-85.94
532,-83.4
544,-81.23
556,-79.13
568,-76.4
580,-72.28
592,-66.2
603,-58.09
614,-48.42
626,-38.06
638,-27.93
650,-18.79
662,-11.01
674,-4.75
686,-0.05
698,3.1
710,4.71
722,4.99
734,4.28
746,3.09
758,1.91
770,1.09
782,0.8
793,1.06
804,1.79
816,2.9
828,4.32
840,5.92
852,7.52
864,8.85
876,9.65
888,9.7
900,8.9
912,7.28
924,4.92
936,2.01
948,-1.25
960,-4.66
972,-8.03
983,-11.18
994,-14.03
1006,-16.54
1018,-18.73
1030,-20.72
1042,-22.61
1054,-24.4
1066,-25.85
1078,-26.49
1090,-25.61
1102,-22.59
1114,-17.14
1126,-9.47
1138,-0.41
1150,8.89
1162,17.26
1173,23.83
1184,28.18
1196,30.29
1208,30.42
1220,28.93
1232,26.17
1244,22.51
1256,18.4
1268,14.34
1280,10.81
1292,8.22
1304,6.7
1316,6.15
1328,6.29
1340,6.75
1352,7.22
1363,7.5
1374,7.53
1386,7.23
1398,6.6
1410,5.6
1422,4.22
1434,2.51
1446,0.62
1458,-1.27
1470,-2.98
1482,-4.33
1494,-5.24
1506,-5.68
1518,-5.72
1530,-5.55
1542,-5.45
1553,-5.83
1564,-7.15
1576,-9.72
1588,-13.58
1600,-18.34
1612,-23.18
1624,-27.07
1636,-29.02
1648,-28.41
1660,-25.19
1672,-19.89
1684,-13.34
1696,-6.41
1708,0.31
1720,6.52
1732,12.13
1743,17.04
1754,21.09
1766,24.06
1778,25.85
1790,26.55
1802,26.49
1814,26.19
1826,26.15
1838,26.65
1850,27.71
1862,29.15
1874,30.73
1886,32.2
1898,33.38
1910,34.14
1922,34.39
1933,34.06
1944,33.04
1956,31.23
1968,28.82
1980,26.14
1992,23.62
2004,21.58
2016,20.24
2028,19.71
2040,20.0
2052,20.99
2064,22.52
2076,24.68
2088,27.56
2100,31.01
2112,34.49
2123,37.28
2134,38.88
2146,39.3
2158,39.11
2170,39.28
2182,41.35
2194,46.47
2206,54.73
2218,64.83
2230,74.42
2242,80.99
2254,82.65
2266,78.52
2278,68.88
2290,55.87
2302,42.2
2313,30.52
2324,22.82
2336,20.28
2348,23.28
2360,31.28
2372,42.31
2384,49.42
2396,46.04
2408,29.0
2420,1.67
2432,-28.42
2444,-53.85
2456,-69.82
2468,-74.82
2480,-70.43
2492,-60.21
2503,-46.81
2514,-32.41
2526,-18.19
2538,-4.93
2550,6.85
2562,15.89
2574,20.6
2586,19.39
2598,11.08
2610,-3.54
2622,-24.06
2634,-50.38
2646,-80.76
2658,-112.79
2670,-143.03
2682,-166.78
2693,-178.9
2704,-180.98
2716,-170.46
2728,-147.98
2740,-117.5
2752,-84.84
2764,-55.71
2776,-33.87
2788,-20.34
2800,-14.21
2812,-13.13
2824,-14.36
2836,-16.35
2848,-18.17
2860,-19.12
2872,-18.81
2883,-17.05
2894,-13.91
2906,-9.85
2918,-5.62
2930,-1.41
2942,2.34
2954,5.56
2966,8.66
2978,12.03
2990,15.86
3002,19.93
3014,23.53
3026,25.68
3038,25.83
3050,23.49
3062,18.7
3073,12.12
3084,4.72
3096,-2.55
3108,-9.07
3120,-14.66
3132,-19.63
3144,-24.28
3156,-29.04
3168,-34.12
3180,-39.37
3192,-44.4
3204,-48.72
3216,-51.75
3228,-53.03
3240,-52.17
3252,-48.9
3263,-43.25
3274,-35.55
3286,-26.34
3298,-16.27
3310,-5.9
3322,4.33
3334,14.22
3346,23.73
3358,32.83
3370,41.36
3382,49.12
3394,56.0
3406,62.24
3418,68.39
3430,75.2
3442,83.16
3453,92.16
3464,101.32
3476,109.08
3488,113.58
3500,113.19
3512,106.8
3524,94.05
3536,75.39
3548,52.04
3560,25.94
3572,-0.36
3584,-24.11
3596,-42.82
3608,-54.82
3620,-59.63
3632,-58.03
3643,-51.78
3654,-43.16
3666,-34.41
3678,-27.26
3690,-22.54
3702,-20.15
3714,-19.19
3726,-18.35
3738,-16.35
3750,-12.39
3762,-6.35
3774,1.14
3786,9.03
3798,16.18
3810,21.7
3822,25.1
3833,26.42
3844,26.01
3856,24.38
3868,22.03
3880,19.33
3892,16.55
3904,13.88
3916,11.45
3928,9.38
3940,7.72
3952,6.44
3964,5.53
3976,4.92
3988,4.58
4000,4.49
4012,4.61
4023,4.87
4034,5.14
4046,5.3
4058,5.17
4070,4.67
4082,3.79
4094,2.61
4106,1.2
4118,-0.37
4130,-2.13
4142,-4.26
4154,-6.98
4166,-10.48
4178,-14.67
4190,-19.11
4202,-22.95
4213,-25.19
4224,-24.97
4236,-21.89
4248,-16.19
4260,-8.63
4272,-0.31
4284,7.76
4296,14.88
4308,20.72
4320,25.31
4332,28.77
4344,31.15
4356,32.46
4368,32.68
4380,31.9
4392,30.35
4403,28.35
4414,26.15
4426,23.87
4438,21.38
4450,18.48
4462,14.97
4474,10.81
4486,6.12
4498,1.1
4510,-4.07
4522,-9.37
4534,-14.83
4546,-20.52
4558,-26.36
4570,-32.11
4582,-37.41
4593,-42.02
4604,-45.99
4616,-49.72
4628,-53.88
4640,-59.06
4652,-65.54
4664,-73.11
4676,-81.11
4688,-88.54
4700,-94.3
4712,-97.29
4724,-96.54
4736,-91.47
4748,-82.04
4760,-68.9
4772,-53.35
4783,-36.94
4794,-21.0
4806,-6.25
4818,7.27
4830,19.93
4842,31.98
4854,43.26
4866,53.3
4878,61.61
4890,68.15
4902,73.46
4914,78.46
4926,83.99
4938,90.39
4950,97.31
4962,104.0
4973,109.62
4984,113.65
4996,115.93
5008,116.6
5020,115.87
5032,113.96
5044,110.96
5056,106.98
5068,102.21
5080,96.91
5092,91.24
5104,85.19
5116,78.46
5128,70.47
5140,60.62
5152,48.48
5163,34.14
5174,18.32
5186,2.23
5198,-12.75
5210,-25.44
5222,-35.18
5234,-41.84
5246,-45.58
5258,-46.68
5270,-45.34
5282,-41.69
5294,-36.05
5306,-29.04
5318,-21.54
5330,-14.58
5342,-9.03
5353,-5.28
5364,-3.25
5376,-2.43
5388,-2.16
5400,-1.82
5412,-1.12
5424,-0.02
5436,1.33
5448,2.76
5460,4.29
5472,6.03
5484,8.19
5496,10.77
5508,13.48
5520,15.78
5532,17.11
5543,17.12
5554,15.86
5566,13.74
5578,11.44
5590,9.62
5602,8.72
5614,8.85
5626,9.79
5638,11.1
5650,12.26
5662,12.78
5674,12.28
5686,10.57
5698,7.68
5710,3.83
5722,-0.59
5733,-5.05
5744,-9.08
5756,-12.28
5768,-14.58
5780,-16.14
5792,-17.41
5804,-18.83
5816,-20.62
5828,-22.59
5840,-24.17
5852,-24.64
5864,-23.44
5876,-20.46
5888,-16.18
5900,-11.53
5912,-7.67
5923,-5.66
5934,-6.17
5946,-9.37
5958,-14.92
5970,-22.06
5982,-29.8
5994,-37.12
6006,-43.05
6018,-46.81
6030,-47.83
6042,-45.88
6054,-41.1
6066,-34.05
6078,-25.65
6090,-16.98
6102,-9.06
6113,-2.58
6124,2.25
6136,5.52
6148,7.54
6160,8.56
6172,8.73
6184,8.08
6196,6.68
6208,4.66
6220,2.25
6232,-0.32
6244,-2.89
6256,-5.35
6268,-7.62
6280,-9.6
6292,-11.11
6303,-12.01
6314,-12.19
6326,-11.73
6338,-10.84
6350,-9.91
6362,-9.32
6374,-9.36
6386,-10.13
6398,-11.38
6410,-12.57
6422,-13.0
6434,-12.03
6446,-9.3
6458,-4.95
6470,0.38
6482,5.87
6493,10.64
6504,14.16
6516,16.32
6528,17.36
6540,17.69
6552,17.66
6564,17.47
6576,17.14
6588,16.57
6600,15.7
6612,14.52
6624,13.1
6636,11.57
6648,10.03
6660,8.54
6672,7.16
6683,5.91
6694,4.86
6706,4.06
6718,3.52
6730,3.19
6742,2.92
6754,2.52
6766,1.83
6778,0.78
6790,-0.61
6802,-2.26
6814,-4.06
6826,-5.89
6838,-7.69
6850,-9.48
6862,-11.26
6873,-13.08
6884,-14.94
6896,-16.79
6908,-18.56
6920,-20.2
6932,-21.66
6944,-23.0
6956,-24.28
6968,-25.59
6980,-26.89
6992,-27.97
7004,-28.39
7016,-27.6
7028,-25.08
7040,-20.55
7052,-14.2
7063,-6.65
7074,1.14
7086,8.17
7098,13.68
7110,17.29
7122,19.08
7134,19.41
7146,18.76
7158,17.5
7170,15.85
7182,13.92
7194,11.78
7206,9.62
7218,7.71
7230,6.35
7242,5.74
7253,5.9
7264,6.59
7276,7.49
7288,8.24
7300,8.62
7312,8.6
7324,8.24
7336,7.63
7348,6.85
7360,5.91
7372,4.81
7384,3.59
7396,2.32
7408,1.06
7420,-0.11
7432,-1.19
7443,-2.17
7454,-3.06
7466,-3.83
7478,-4.45
7490,-4.9
7502,-5.15
7514,-5.29
7526,-5.48
7538,-5.93
7550,-6.88
7562,-8.41
7574,-10.36
7586,-12.25
7598,-13.37
7610,-13.01
7622,-10.67
7633,-6.34
7644,-0.47
7656,6.15
7668,12.68
7680,18.47
7692,23.23
7704,26.98
7716,29.88
7728,32.07
7740,33.59
7752,34.41
7764,34.51
7776,33.97
7788,32.94
7800,31.63
7812,30.23
7823,28.87
7834,27.65
7846,26.69
7858,26.07
7870,25.81
7882,25.81
7894,25.87
7906,25.69
7918,25.02
7930,23.7
7942,21.72
7954,19.15
7966,16.17
7978,12.92
7990,9.5
8002,5.94
8013,2.2
8024,-1.75
8036,-6.0
8048,-10.48
8060,-15.05
8072,-19.48
8084,-23.58
8096,-27.29
8108,-30.71
8120,-34.07
8132,-37.56
8144,-41.28
8156,-45.04
8168,-48.44
8180,-50.85
8192,-51.53
8203,-49.88
8214,-45.65
8226,-39.11
8238,-30.96
8250,-22.22
8262,-13.86
8274,-6.57
8286,-0.62
8298,4.02
8310,7.49
8322,9.88
8334,11.2
8346,11.48
8358,10.87
8370,9.72
8382,8.49
8393,7.55
8404,7.16
8416,7.29
8428,7.8
8440,8.47
8452,9.13
8464,9.67
8476,10.08
8488,10.35
8500,10.53
8512,10.63
8524,10.69
8536,10.72
8548,10.73
8560,10.69
8572,10.58
8583,10.43
8594,10.2
8606,9.86
8618,9.32
8630,8.47
8642,7.2
8654,5.43
8666,3.16
8678,0.35
8690,-2.98
8702,-6.79
8714,-10.86
8726,-14.78
8738,-18.01
8750,-20.01
8762,-20.55
8773,-19.81
8784,-18.37
8796,-16.97
8808,-16.25
8820,-16.44
8832,-17.41
8844,-18.82
8856,-20.38
8868,-21.99
8880,-23.75
8892,-25.8
8904,-28.11
8916,-30.48
8928,-32.56
8940,-34.07
8952,-34.89
8963,-35.11
8974,-34.93
8986,-34.44
8998,-33.67
9010,-32.52
9022,-30.92
9034,-28.84
9046,-26.29
9058,-23.35
9070,-20.05
9082,-16.52
9094,-12.94
9106,-9.63
9118,-6.85
9130,-4.74
9142,-3.13
9153,-1.75
9164,-0.3
9176,1.29
9188,2.8
9200,3.79
9212,3.89
9224,3.09
9236,1.78
9248,0.78
9260,0.93
9272,2.89
9284,6.75
9296,12.02
9308,17.8
9320,22.99
9332,26.73
9343,28.58
9354,28.65
9366,27.42
9378,25.65
9390,24.09
9402,23.29
9414,23.54
9426,24.77
9438,26.65
9450,28.7
9462,30.46
9474,31.63
9486,32.15
9498,32.16
9510,31.82
9522,31.17
9533,30.08
9544,28.27
9556,25.41
9568,21.31
9580,15.95
9592,9.59
9604,2.76
9616,-3.88
9628,-9.61
9640,-13.8
9652,-16.13
9664,-16.54
9676,-15.32
9688,-12.92
9700,-9.83
9712,-6.54
9723,-3.43
9734,-0.82
9746,1.05
9758,2.12
9770,2.56
9782,2.77
9794,3.33
9806,4.83
9818,7.55
9830,11.45
9842,16.11
9854,20.85
9866,25.0
9878,28.1
9890,29.89
9902,30.27
9913,29.18
9924,26.44
9936,21.94
9948,15.69
9960,8.01
9972,-0.38
9984,-8.55
9996,-15.56
10008,-20.74
10020,-23.81
10032,-24.86
10044,-24.19
10056,-22.15
10068,-19.13
10080,-15.51
10092,-11.7
10103,-8.18
10114,-5.4
10126,-3.7
10138,-3.2
10150,-3.75
10162,-5.01
10174,-6.55
10186,-7.96
10198,-8.98
10210,-9.55
10222,-9.86
10234,-10.27
10246,-11.23
10258,-13.05
10270,-15.66
10282,-18.58
10293,-21.05
10304,-22.27
10316,-21.73
10328,-19.38
10340,-15.65
10352,-11.2
10364,-6.63
10376,-2.33
10388,1.58
10400,5.11
10412,8.31
10424,11.13
10436,13.54
10448,15.53
10460,17.11
10472,18.35
10483,19.35
10494,20.13
10506,20.72
10518,21.11
10530,21.3
10542,21.31
10554,21.16
10566,20.87
10578,20.44
10590,19.88
10602,19.25
10614,18.62
10626,18.12
10638,17.81
10650,17.72
10662,17.8
10673,17.95
10684,18.13
10696,18.34
10708,18.61
10720,18.9
10732,18.96
10744,18.39
10756,16.79
10768,13.98
10780,10.08
10792,5.54
10804,0.87
10816,-3.51
10828,-7.41
10840,-10.72
10852,-13.31
10863,-14.97
10874,-15.37
10886,-14.31
10898,-11.86
10910,-8.43
10922,-4.64
10934,-1.15
10946,1.51
10958,3.07
10970,3.44
10982,2.7
10994,0.97
11006,-1.55
11018,-4.58
11030,-7.71
11042,-10.51
11053,-12.58
11064,-13.63
11076,-13.6
11088,-12.61
11100,-11.0
11112,-9.22
11124,-7.67
11136,-6.63
11148,-6.16
11160,-6.2
11172,-6.58
11184,-7.15
11196,-7.86
11208,-8.72
11220,-9.81
11232,-11.16
11243,-12.75
11254,-14.52
11266,-16.42
11278,-18.39
11290,-20.37
11302,-22.24
11314,-23.88
11326,-25.18
11338,-26.16
11350,-26.97
11362,-27.85
11374,-28.95
11386,-30.33
11398,-31.8
11410,-32.96
11422,-33.32
11433,-32.35
11444,-29.71
11456,-25.33
11468,-19.53
11480,-12.96
11492,-6.42
11504,-0.64
11516,3.97
11528,7.38
11540,9.87
11552,11.77
11564,13.36
11576,14.7
11588,15.77
11600,16.56
11612,17.11
11623,17.54
11634,17.97
11646,18.41
11658,18.82
11670,19.08
11682,19.17
11694,19.12
11706,19.04
11718,18.95
11730,18.85
11742,18.6
11754,18.05
11766,17.08
11778,15.68
11790,13.9
11802,11.88
11813,9.75
11824,7.55
11836,5.34
11848,3.06
11860,0.69
11872,-1.81
11884,-4.54
11896,-7.59
11908,-11.1
11920,-15.26
11932,-20.15
11944,-25.79
11956,-32.03
11968,-38.56
11980,-44.8
11992,-50.07
12003,-53.56
12014,-54.5
12026,-52.38
12038,-47.13
12050,-39.21
12062,-29.53
12074,-19.25
12086,-9.48
12098,-1.07
12110,5.59
12122,10.53
12134,14.16
12146,17.01
12158,19.58
12170,22.14
12182,24.69
12193,26.87
12204,28.1
12216,27.77
12228,25.55
12240,21.67
12252,16.91
12264,12.46
12276,9.36
12288,8.03
12300,8.05
12312,8.33
12324,7.71
12336,5.55
12348,2.1
12360,-1.78
12372,-5.13
12383,-7.47
12394,-9.02
12406,-10.4
12418,-12.1
12430,-14.05
12442,-15.65
12454,-16.15
12466,-15.23
12478,-13.31
12490,-11.34
12502,-10.39
12514,-11.03
12526,-13.14
12538,-16.03
12550,-18.84
12562,-20.91
12573,-21.94
12584,-21.78
12596,-20.35
12608,-17.4
12620,-12.73
12632,-6.42
12644,0.92
12656,8.23
12668,14.37
12680,18.53
12692,20.61
12704,21.11
12716,20.83
12728,20.43
12740,20.15
12752,19.84
12763,19.14
12774,17.88
12786,16.12
12798,14.19
12810,12.45
12822,11.12
12834,10.17
12846,9.46
12858,8.81
12870,8.06
12882,7.22
12894,6.34
12906,5.53
12918,4.85
12930,4.25
12942,3.55
12953,2.41
12964,0.46
12976,-2.67
12988,-7.13
13000,-12.8
13012,-19.11
13024,-25.14
13036,-29.8
13048,-32.1
13060,-31.53
13072,-28.21
13084,-22.92
13096,-16.83
13108,-11.13
13120,-6.66
13132,-3.77
13143,-2.22
13154,-1.51
13166,-1.02
13178,-0.2
13190,1.33
13202,3.77
13214,7.13
13226,11.19
13238,15.55
13250,19.65
13262,22.97
13274,25.2
13286,26.21
13298,26.11
13310,25.14
13322,23.49
13333,21.36
13344,18.88
13356,16.14
13368,13.22
13380,10.15
13392,6.96
13404,3.72
13416,0.56
13428,-2.22
13440,-4.26
13452,-5.22
13464,-4.87
13476,-3.18
13488,-0.31
13500,3.46
13512,7.75
13523,12.25
13534,16.56
13546,20.26
13558,22.99
13570,24.4
13582,24.31
13594,22.73
13606,19.93
13618,16.45
13630,12.91
13642,9.94
13654,7.88
13666,6.75
13678,6.22
13690,5.81
13702,5.02
13713,3.5
13724,1.18
13736,-1.91
13748,-5.56
13760,-9.49
13772,-13.25
13784,-16.21
13796,-17.75
13808,-17.37
13820,-15.03
13832,-11.12
13844,-6.41
13856,-1.67
13868,2.53
13880,6.04
13892,8.98
13903,11.57
13914,13.84
13926,15.61
13938,16.54
13950,16.33
13962,14.93
13974,12.54
13986,9.59
13998,6.56
14010,3.79
14022,1.43
14034,-0.63
14046,-2.63
14058,-4.87
14070,-7.55
14082,-10.74
14093,-14.32
14104,-18.09
14116,-21.78
14128,-25.16
14140,-27.95
14152,-29.88
14164,-30.68
14176,-30.08
14188,-28.02
14200,-24.65
14212,-20.4
14224,-15.89
14236,-11.77
14248,-8.56
14260,-6.47
14272,-5.47
14283,-5.26
14294,-5.51
14306,-5.93
14318,-6.33
14330,-6.64
14342,-6.9
14354,-7.25
14366,-7.89
14378,-8.95
14390,-10.4
14402,-11.92
14414,-12.9
14426,-12.69
14438,-10.74
14450,-7.01
14462,-1.95
14473,3.59
14484,8.73
14496,12.87
14508,15.87
14520,17.9
14532,19.28
14544,20.18
14556,20.59
14568,20.38
14580,19.48
14592,17.98
14604,16.08
14616,14.02
14628,11.92
14640,9.77
14652,7.48
14663,5.02
14674,2.45
14686,-0.08
14698,-2.38
14710,-4.28
14722,-5.75
14734,-6.81
14746,-7.56
14758,-8.13
14770,-8.69
14782,-9.35
14794,-10.17
14806,-11.14
14818,-12.2
14830,-13.28
14842,-14.34
14853,-15.39
14864,-16.49
14876,-17.67
14888,-18.91
14900,-20.0
14912,-20.6
14924,-20.24
14936,-18.51
14948,-15.21
14960,-10.5
14972,-4.92
14984,0.8
14996,5.91
15008,9.92
15020,12.7
15032,14.42
15043,15.4
15054,16.08
15066,16.89
15078,18.3
15090,20.68
15102,24.14
15114,28.33
15126,32.47
15138,35.5
15150,36.48
15162,34.92
15174,30.99
15186,25.35
15198,18.84
15210,12.14
15222,5.62
15233,-0.58
15244,-6.42
15256,-11.74
15268,-16.24
15280,-19.59
15292,-21.59
15304,-22.3
15316,-22.02
15328,-21.16
15340,-20.08
15352,-18.92
15364,-17.65
15376,-16.12
15388,-14.31
15400,-12.42
15412,-10.87
15423,-10.06
15434,-10.21
15446,-11.23
15458,-12.67
15470,-13.98
15482,-14.65
15494,-14.46
15506,-13.52
15518,-12.22
15530,-11.08
15542,-10.47
15554,-10.52
15566,-11.02
15578,-11.51
15590,-11.5
15602,-10.67
15613,-8.97
15624,-6.68
15636,-4.32
15648,-2.46
15660,-1.62
15672,-2.08
15684,-3.86
15696,-6.56
15708,-9.35
15720,-11.18
15732,-11.05
15744,-8.36
15756,-3.16
15768,3.88
15780,11.66
15792,18.88
15803,24.37
15814,27.28
15826,27.14
15838,24.0
15850,18.44
15862,11.5
15874,4.55
15886,-1.15
15898,-4.73
15910,-5.96
15922,-5.12
15934,-2.73
15946,0.69
15958,4.81
15970,9.39
15982,14.16
15993,18.74
16004,22.64
16016,25.47
16028,27.08
16040,27.61
16052,27.46
16064,27.02
16076,26.54
16088,26.04
16100,25.35
16112,24.32
16124,23.0
16136,21.67
16148,20.72
16160,20.39
16172,20.6
16183,20.94
16194,20.88
16206,20.1
16218,18.67
16230,17.07
16242,15.93
16254,15.65
16266,16.2
16278,17.11
16290,17.66
16302,17.15
16314,15.07
16326,11.19
16338,5.54
16350,-1.55
16362,-9.4
16373,-17.05
16384,-23.45
16396,-27.71
16408,-29.43
16420,-28.79
16432,-26.45
16444,-23.32
16456,-20.22
16468,-17.7
16480,-15.97
16492,-15.04
16504,-14.82
16516,-15.18
16528,-16.05
16540,-17.31
16552,-18.84
16563,-20.39
16574,-21.6
16586,-21.97
16598,-21.06
16610,-18.69
16622,-15.05
16634,-10.74
16646,-6.56
16658,-3.19
16670,-0.96
16682,0.18
16694,0.53
16706,0.42
16718,0.01
16730,-0.69
16742,-1.67
16753,-2.9
16764,-4.18
16776,-5.35
16788,-6.32
16800,-7.2
16812,-8.26
16824,-9.86
16836,-12.32
16848,-15.74
16860,-19.92
16872,-24.33
16884,-28.24
16896,-30.96
16908,-32.11
16920,-31.77
16932,-30.54
16943,-29.25
16954,-28.69
16966,-29.32
16978,-31.18
16990,-33.89
17002,-36.85
17014,-39.21
17026,-40.07
17038,-38.64
17050,-34.48
17062,-27.67
17074,-18.95
17086,-9.41
17098,-0.26
17110,7.69
17122,14.15
17133,19.36
17144,23.75
17156,27.66
17168,31.18
17180,34.2
17192,36.61
17204,38.45
17216,39.9
17228,41.21
17240,42.48
17252,43.55
17264,44.01
17276,43.34
17288,41.07
17300,37.06
17312,31.53
17323,25.12
17334,18.63
17346,12.83
17358,8.2
17370,4.85
17382,2.61
17394,1.17
17406,0.22
17418,-0.44
17430,-1.05
17442,-1.81
17454,-2.99
17466,-4.79
17478,-7.25
17490,-10.24
17502,-13.53
17513,-16.94
17524,-20.46
17536,-24.35
17548,-28.94
17560,-34.39
17572,-40.56
17584,-46.93
17596,-52.89
17608,-57.8
17620,-61.26
17632,-62.99
17644,-62.71
17656,-59.95
17668,-54.12
17680,-44.67
17692,-31.44
17703,-14.92
17714,3.81
17726,23.22
17738,41.82
17750,58.45
17762,72.4
17774,83.35
17786,91.14
17798,95.63
17810,96.63
17822,94.03
17834,88.03
17846,79.16
17858,68.28
17870,56.38
17882,44.34
17893,32.75
17904,21.9
17916,11.87
17928,2.69
17940,-5.57
17952,-12.7
17964,-18.43
17976,-22.54
17988,-24.97
18000,-25.81
18012,-25.35
18024,-23.97
18036,-22.05
18048,-19.92
18060,-17.8
18072,-15.72
18083,-13.57
18094,-11.12
18106,-8.16
18118,-4.64
18130,-0.64
18142,3.56
18154,7.58
18166,11.08
18178,13.78
18190,15.45
18202,15.92
18214,15.0
18226,12.47
18238,8.22
18250,2.29
18262,-4.99
18273,-12.89
18284,-20.43
18296,-26.59
18308,-30.47
18320,-31.6
18332,-29.97
18344,-25.96
18356,-20.23
18368,-13.49
18380,-6.3
18392,0.9
18404,7.71
18416,13.83
18428,18.92
18440,22.8
18452,25.43
18463,26.95
18474,27.59
18486,27.6
18498,27.14
18510,26.23
18522,24.87
18534,23.09
18546,21.02
18558,18.91
18570,16.96
18582,15.25
18594,13.68
18606,11.99
18618,9.92
18630,7.29
18642,4.11
18653,0.54
18664,-3.18
18676,-6.82
18688,-10.18
18700,-13.14
18712,-15.63
18724,-17.56
18736,-18.91
18748,-19.78
18760,-20.45
18772,-21.33
18784,-22.89
18796,-25.45
18808,-29.05
18820,-33.46
18832,-38.25
18843,-43.1
18854,-47.86
18866,-52.5
18878,-56.76
18890,-59.98
18902,-61.04
18914,-58.77
18926,-52.54
18938,-42.67
18950,-30.55
18962,-18.16
18974,-7.38
18986,0.6
18998,5.57
19010,8.02
19022,8.78
19033,8.56
19044,7.78
19056,6.58
19068,5.06
19080,3.42
19092,1.96
19104,1.02
19116,0.76
19128,1.09
19140,1.71
19152,2.18
19164,2.08
19176,1.23
19188,-0.29
19200,-2.19
19212,-4.09
19223,-5.63
19234,-6.62
19246,-7.03
19258,-7.05
19270,-7.0
19282,-7.23
19294,-8.07
19306,-9.68
19318,-11.97
19330,-14.6
19342,-17.05
19354,-18.76
19366,-19.29
19378,-18.44
19390,-16.23
19402,-13.06
19413,-9.63
19424,-6.9
19436,-5.91
19448,-7.37
19460,-11.33
19472,-16.97
19484,-22.71
19496,-26.66
19508,-27.3
19520,-24.08
19532,-17.49
19544,-8.87
19556,0.18
19568,8.34
19580,14.92
19592,19.81
19603,23.25
19614,25.56
19626,26.91
19638,27.34
19650,26.84
19662,25.45
19674,23.31
19686,20.63
19698,17.63
19710,14.44
19722,11.12
19734,7.62
19746,3.94
19758,0.17
19770,-3.48
19782,-6.7
19793,-9.26
19804,-11.14
19816,-12.57
19828,-13.99
19840,-15.81
19852,-18.14
19864,-20.64
19876,-22.63
19888,-23.3
19900,-22.18
19912,-19.41
19924,-15.72
19936,-12.17
19948,-9.66
19960,-8.63
19972,-8.88
19983,-9.89
19994,-11.01
20006,-11.76
20018,-11.82
20030,-10.98
20042,-9.24
20054,-7.02
20066,-5.37
20078,-5.87
20090,-9.84
20102,-17.52
20114,-27.56
20126,-37.23
20138,-43.58
20150,-44.78
20162,-40.95
20173,-33.79
20184,-25.64
20196,-18.04
20208,-11.16
20220,-4.12
20232,4.09
20244,13.73
20256,24.01
20268,33.52
20280,40.98
20292,45.76
20304,48.03
20316,48.52
20328,48.12
20340,47.69
20352,47.87
20363,49.09
20374,51.52
20386,55.08
20398,59.46
20410,64.21
20422,68.79
20434,72.65
20446,75.34
20458,76.44
20470,75.74
20482,73.28
20494,69.44
20506,64.91
20518,60.54
20530,57.02
20542,54.67
20553,53.39
20564,52.75
20576,52.32
20588,51.84
20600,51.31
20612,50.84
20624,50.35
20636,49.39
20648,47.08
20660,42.43
20672,34.64
20684,23.48
20696,9.46
20708,-6.16
20720,-21.64
20732,-35.02
20743,-44.64
20754,-49.46
20766,-49.39
20778,-45.35
20790,-39.02
20802,-32.36
20814,-27.01
20826,-23.87
20838,-22.96
20850,-23.65
20862,-25.07
20874,-26.45
20886,-27.38
20898,-27.74
20910,-27.55
20922,-26.9
20933,-25.83
20944,-24.44
20956,-22.87
20968,-21.34
20980,-20.01
20992,-18.97
