seconds,BVP
10,30.25
21,31.49
33,32.13
45,32.1
57,31.57
69,30.7
81,29.56
93,27.95
105,25.54
117,22.08
129,17.59
141,12.44
153,7.18
165,2.33
177,-1.86
189,-5.36
200,-8.25
211,-10.52
223,-11.96
235,-12.29
247,-11.4
259,-9.43
271,-6.88
283,-4.36
295,-2.4
307,-1.28
319,-1.04
331,-1.54
343,-2.69
355,-4.46
367,-6.83
379,-9.71
390,-12.79
401,-15.62
413,-17.75
425,-18.9
437,-19.06
449,-18.43
461,-17.41
473,-16.42
485,-15.78
497,-15.73
509,-16.34
521,-17.54
533,-19.14
545,-20.8
557,-22.14
569,-22.78
580,-22.48
591,-21.15
603,-18.95
615,-16.16
627,-13.11
639,-10.08
651,-7.14
663,-4.23
675,-1.16
687,2.21
699,5.85
711,9.6
723,13.21
735,16.45
747,19.28
759,21.72
770,23.88
781,25.73
793,27.11
805,27.74
817,27.35
829,25.85
841,23.39
853,20.26
865,16.85
877,13.51
889,10.49
901,7.93
913,5.91
925,4.41
937,3.23
949,2.07
960,0.53
971,-1.68
983,-4.56
995,-7.72
1007,-10.55
1019,-12.39
1031,-12.81
1043,-11.71
1055,-9.27
1067,-5.76
1079,-1.45
1091,3.45
1103,8.66
1115,13.79
1127,18.5
1139,22.57
1150,26.1
1161,29.43
1173,32.87
1185,36.48
1197,39.83
1209,42.14
1221,42.65
1233,40.96
1245,37.2
1257,32.07
1269,26.44
1281,21.14
1293,16.68
1305,13.29
1317,10.93
1329,9.47
1340,8.65
1351,8.13
1363,7.53
1375,6.49
1387,4.8
1399,2.49
1411,-0.17
1423,-2.76
1435,-4.96
1447,-6.67
1459,-8.14
1471,-9.81
1483,-12.08
1495,-15.16
1507,-18.84
1519,-22.6
1530,-25.78
1541,-27.71
1553,-28.02
1565,-26.66
1577,-23.99
1589,-20.61
1601,-17.24
1613,-14.44
1625,-12.5
1637,-11.43
1649,-10.92
1661,-10.53
1673,-9.87
1685,-8.72
1697,-7.08
1709,-5.06
1720,-2.82
1731,-0.51
1743,1.83
1755,4.16
1767,6.45
1779,8.57
1791,10.27
1803,11.32
1815,11.5
1827,10.79
1839,9.37
1851,7.56
1863,5.77
1875,4.3
1887,3.33
1899,2.87
1910,2.89
1921,3.41
1933,4.47
1945,6.11
1957,8.21
1969,10.51
1981,12.64
1993,14.28
2005,15.27
2017,15.6
2029,15.35
2041,14.56
2053,13.15
2065,10.99
2077,7.9
2089,3.88
2100,-0.83
2111,-5.85
2123,-10.7
2135,-14.98
2147,-18.45
2159,-21.1
2171,-23.11
2183,-24.79
2195,-26.47
2207,-28.3
2219,-30.28
2231,-32.23
2243,-33.9
2255,-35.14
2267,-35.95
2279,-36.57
2290,-37.29
2301,-38.34
2313,-39.71
2325,-41.12
2337,-42.15
2349,-42.37
2361,-41.57
2373,-39.78
2385,-37.28
2397,-34.38
2409,-31.27
2421,-27.98
2433,-24.43
2445,-20.54
2457,-16.32
2469,-11.94
2480,-7.6
2491,-3.48
2503,0.32
2515,3.79
2527,7.0
2539,9.99
2551,12.84
2563,15.64
2575,18.47
2587,21.38
2599,24.31
2611,27.04
2623,29.31
2635,30.86
2647,31.64
2659,31.8
2670,31.71
2681,31.77
2693,32.26
2705,33.21
2717,34.37
2729,35.4
2741,36.09
2753,36.56
2765,37.28
2777,38.88
2789,41.84
2801,46.13
2813,51.21
2825,56.18
2837,60.23
2849,62.93
2860,64.39
2871,65.03
2883,65.33
2895,65.55
2907,65.63
2919,65.29
2931,64.2
2943,62.14
2955,58.98
2967,54.69
2979,49.36
2991,43.16
3003,36.38
3015,29.36
3027,22.39
3039,15.52
3050,8.61
3061,1.39
3073,-6.31
3085,-14.44
3097,-22.61
3109,-30.2
3121,-36.58
3133,-41.26
3145,-44.12
3157,-45.36
3169,-45.41
3181,-44.77
3193,-43.89
3205,-43.08
3217,-42.52
3229,-42.32
3240,-42.56
3251,-43.27
3263,-44.45
3275,-45.94
3287,-47.47
3299,-48.68
3311,-49.25
3323,-49.05
3335,-48.16
3347,-46.91
3359,-45.76
3371,-45.16
3383,-45.42
3395,-46.61
3407,-48.53
3419,-50.84
3430,-53.18
3441,-55.29
3453,-56.99
3465,-58.18
3477,-58.7
3489,-58.23
3501,-56.39
3513,-52.79
3525,-47.22
3537,-39.8
3549,-31.01
3561,-21.6
3573,-12.42
3585,-4.29
3597,2.24
3609,7.05
3620,10.44
3631,13.03
3643,15.47
3655,18.15
3667,21.1
3679,23.98
3691,26.32
3703,27.74
3715,28.16
3727,27.77
3739,26.95
3751,26.04
3763,25.19
3775,24.42
3787,23.6
3799,22.68
3810,21.67
3821,20.69
3833,19.89
3845,19.44
3857,19.42
3869,19.73
3881,20.19
3893,20.37
3905,19.86
3917,18.33
3929,15.68
3941,12.11
3953,8.11
3965,4.24
3977,0.86
3989,-1.86
4000,-4.1
4011,-6.15
4023,-8.23
4035,-10.5
4047,-13.01
4059,-15.77
4071,-18.83
4083,-22.16
4095,-25.54
4107,-28.52
4119,-30.44
4131,-30.7
4143,-29.0
4155,-25.5
4167,-20.82
4179,-15.82
4190,-11.27
4201,-7.66
4213,-5.04
4225,-3.2
4237,-1.73
4249,-0.29
4261,1.3
4273,2.92
4285,4.27
4297,4.92
4309,4.54
4321,3.06
4333,0.75
4345,-1.83
4357,-4.1
4369,-5.59
4380,-6.18
4391,-6.02
4403,-5.34
4415,-4.38
4427,-3.34
4439,-2.48
4451,-2.15
4463,-2.8
4475,-4.75
4487,-7.93
4499,-11.84
4511,-15.68
4523,-18.81
4535,-21.02
4547,-22.74
4559,-24.71
4570,-27.49
4581,-31.13
4593,-35.05
4605,-38.42
4617,-40.63
4629,-41.58
4641,-41.61
4653,-41.22
4665,-40.64
4677,-39.77
4689,-38.24
4701,-35.8
4713,-32.48
4725,-28.6
4737,-24.52
4749,-20.35
4760,-15.87
4771,-10.69
4783,-4.52
4795,2.52
4807,9.93
4819,16.96
4831,22.95
4843,27.55
4855,30.84
4867,33.21
4879,35.1
4891,36.74
4903,37.98
4915,38.32
4927,37.15
4939,33.95
4950,28.47
4961,20.95
4973,12.21
4985,3.74
4997,-2.62
5009,-5.03
5021,-2.37
5033,5.14
5045,15.8
5057,26.83
5069,35.28
5081,39.12
5093,37.91
5105,32.88
5117,26.21
5129,20.19
5140,16.33
5151,15.15
5163,16.25
5175,18.81
5187,22.1
5199,25.74
5211,29.7
5223,34.1
5235,38.98
5247,44.08
5259,48.89
5271,52.88
5283,55.72
5295,57.46
5307,58.36
5319,58.76
5330,58.76
5341,58.19
5353,56.73
5365,54.24
5377,50.96
5389,47.52
5401,44.73
5413,43.14
5425,42.8
5437,43.19
5449,43.44
5461,42.63
5473,40.23
5485,36.3
5497,31.38
5509,26.29
5520,21.76
5531,18.15
5543,15.4
5555,13.1
5567,10.86
5579,8.51
5591,6.23
5603,4.39
5615,3.28
5627,2.89
5639,2.85
5651,2.69
5663,2.09
5675,1.19
5687,0.45
5699,0.38
5710,1.14
5721,2.36
5733,3.19
5745,2.69
5757,0.32
5769,-3.84
5781,-9.07
5793,-14.38
5805,-18.88
5817,-22.1
5829,-24.03
5841,-25.05
5853,-25.64
5865,-26.14
5877,-26.71
5889,-27.31
5900,-27.92
5911,-28.54
5923,-29.23
5935,-30.05
5947,-31.02
5959,-32.07
5971,-33.11
5983,-34.07
5995,-34.93
6007,-35.71
6019,-36.37
6031,-36.78
6043,-36.81
6055,-36.44
6067,-35.74
6079,-34.97
6090,-34.42
6101,-34.19
6113,-34.12
6125,-33.74
6137,-32.4
6149,-29.5
6161,-24.81
6173,-18.58
6185,-11.63
6197,-5.1
6209,0.01
6221,3.19
6233,4.59
6245,4.91
6257,4.99
6269,5.4
6280,6.22
6291,7.09
6303,7.55
6315,7.36
6327,6.64
6339,5.72
6351,4.88
6363,4.17
6375,3.33
6387,2.09
6399,0.34
6411,-1.66
6423,-3.31
6435,-3.94
6447,-3.07
6459,-0.57
6470,3.25
6481,7.83
6493,12.54
6505,16.81
6517,20.17
6529,22.26
6541,22.86
6553,22.04
6565,20.3
6577,18.46
6589,17.52
6601,18.29
6613,21.07
6625,25.64
6637,31.3
6649,37.21
6660,42.65
6671,47.19
6683,50.6
6695,52.78
6707,53.75
6719,53.63
6731,52.79
6743,51.7
6755,50.73
6767,50.09
6779,49.66
6791,49.08
6803,47.84
6815,45.44
6827,41.64
6839,36.56
6850,30.54
6861,24.08
6873,17.77
6885,12.12
6897,7.44
6909,3.69
6921,0.39
6933,-2.99
6945,-6.62
6957,-10.62
6969,-15.13
6981,-20.13
6993,-25.55
7005,-31.28
7017,-37.09
7029,-43.1
7040,-49.34
7051,-55.38
7063,-61.21
7075,-67.21
7087,-73.46
7099,-79.51
7111,-84.5
7123,-87.52
7135,-88.67
7147,-88.64
7159,-87.71
7171,-86.65
7183,-86.29
7195,-86.49
7207,-86.21
7219,-84.08
7230,-79.06
7241,-71.74
7253,-63.38
7265,-54.5
7277,-46.21
7289,-39.79
7301,-35.61
7313,-33.2
7325,-31.46
7337,-24.97
7349,-11.34
7361,2.53
7373,13.69
7385,22.57
7397,28.52
7409,31.21
7420,30.84
7431,28.06
7443,23.79
7455,18.18
7467,11.39
7479,4.72
7491,-1.2
7503,-6.42
7515,-10.79
7527,-14.01
7539,-15.85
7551,-16.24
7563,-15.94
7575,-15.84
7587,-15.85
7599,-16.22
7610,-17.34
7621,-19.02
7633,-20.53
7645,-20.83
7657,-19.0
7669,-14.89
7681,-8.85
7693,-1.08
7705,7.75
7717,16.68
7729,25.03
7741,32.29
7753,38.05
7765,41.95
7777,43.67
7789,43.29
7800,41.69
7811,39.94
7823,38.88
7835,38.99
7847,40.23
7859,42.2
7871,44.34
7883,46.2
7895,47.53
7907,48.36
7919,48.79
7931,48.94
7943,49.14
7955,49.86
7967,51.55
7979,54.45
7990,58.34
8001,62.55
8013,66.22
8025,68.58
8037,69.21
8049,68.06
8061,65.35
8073,61.43
8085,56.65
8097,51.39
8109,46.04
8121,40.93
8133,36.21
8145,31.75
8157,27.1
8169,21.8
8180,15.57
8191,8.6
8203,1.46
8215,-5.12
8227,-10.65
8239,-15.09
8251,-18.92
8263,-22.82
8275,-27.32
8287,-32.49
8299,-37.97
8311,-43.21
8323,-47.76
8335,-51.59
8347,-54.92
8359,-58.05
8370,-61.01
8381,-63.45
8393,-64.85
8405,-64.86
8417,-63.58
8429,-61.52
8441,-59.28
8453,-57.05
8465,-54.38
8477,-50.43
8489,-44.54
8501,-36.83
8513,-28.41
8525,-20.94
8537,-15.93
8549,-14.07
8560,-14.99
8571,-17.62
8583,-20.86
8595,-24.11
8607,-27.3
8619,-30.64
8631,-34.16
8643,-37.48
8655,-39.97
8667,-41.09
8679,-40.66
8691,-38.94
8703,-36.38
8715,-33.36
8727,-30.01
8739,-26.26
8750,-22.01
8761,-17.24
8773,-12.12
8785,-6.88
8797,-1.81
8809,2.95
8821,7.32
8833,11.45
8845,15.63
8857,20.26
8869,25.66
8881,31.82
8893,38.36
8905,44.5
8917,49.37
8929,52.39
8940,53.49
8951,53.32
8963,53.04
8975,53.88
8987,56.69
8999,61.57
9011,67.8
9023,74.15
9035,79.33
9047,82.5
9059,83.54
9071,82.93
9083,81.43
9095,79.62
9107,77.66
9119,75.41
9130,72.58
9141,69.07
9153,65.0
9165,60.69
9177,56.39
9189,52.22
9201,48.09
9213,43.83
9225,39.27
9237,34.33
9249,29.05
9261,23.48
9273,17.76
9285,11.97
9297,6.21
9309,0.54
9320,-4.94
9331,-10.12
9343,-14.83
9355,-18.91
9367,-22.26
9379,-24.91
9391,-27.04
9403,-28.91
9415,-30.81
9427,-32.92
9439,-35.38
9451,-38.26
9463,-41.64
9475,-45.57
9487,-49.98
9499,-54.65
9510,-59.12
9521,-62.88
9533,-65.5
9545,-66.79
9557,-66.88
9569,-66.12
9581,-64.96
9593,-63.79
9605,-62.92
9617,-62.43
9629,-62.32
9641,-62.47
9653,-62.68
9665,-62.82
9677,-62.83
9689,-62.9
9700,-63.4
9711,-64.8
9723,-67.36
9735,-70.9
9747,-74.78
9759,-77.93
9771,-79.31
9783,-78.25
9795,-74.69
9807,-69.29
9819,-63.1
9831,-57.19
9843,-52.32
9855,-48.75
9867,-46.34
9879,-44.78
9890,-43.74
9901,-42.98
9913,-42.28
9925,-41.44
9937,-40.18
9949,-38.22
9961,-35.35
9973,-31.4
9985,-26.38
9997,-20.42
10009,-13.83
10021,-7.05
10033,-0.47
10045,5.68
10057,11.61
10069,17.94
10080,25.52
10091,35.06
10103,46.8
10115,60.37
10127,74.84
10139,89.05
10151,101.82
10163,112.18
10175,119.53
10187,123.72
10199,125.09
10211,124.44
10223,122.79
10235,121.0
10247,119.45
10259,117.91
10270,115.74
10281,112.27
10293,107.23
10305,100.84
10317,93.77
10329,86.76
10341,80.32
10353,74.6
10365,69.42
10377,64.53
10389,59.64
10401,54.55
10413,49.13
10425,43.34
10437,37.23
10449,30.97
10460,24.82
10471,19.09
10483,14.06
10495,9.91
10507,6.68
10519,4.22
10531,2.26
10543,0.42
10555,-1.77
10567,-4.71
10579,-8.64
10591,-13.51
10603,-19.0
10615,-24.62
10627,-29.93
10639,-34.73
10650,-39.06
10661,-43.17
10673,-47.33
10685,-51.64
10697,-56.0
10709,-60.17
10721,-63.8
10733,-66.64
10745,-68.51
10757,-69.37
10769,-69.31
10781,-68.66
10793,-67.95
10805,-67.84
10817,-68.85
10829,-71.09
10840,-74.11
10851,-77.06
10863,-78.95
10875,-79.11
10887,-77.47
10899,-74.53
10911,-71.1
10923,-68.01
10935,-65.9
10947,-65.14
10959,-65.88
10971,-68.05
10983,-71.22
10995,-74.48
11007,-76.54
11019,-75.91
11030,-71.42
11041,-62.54
11053,-49.65
11065,-33.86
11077,-16.72
11089,0.23
11101,15.87
11113,29.57
11125,41.19
11137,50.86
11149,58.79
11161,65.09
11173,69.79
11185,72.9
11197,74.56
11209,75.09
11220,74.87
11231,74.23
11243,73.23
11255,71.72
11267,69.42
11279,66.18
11291,62.13
11303,57.64
11315,53.19
11327,49.13
11339,45.52
11351,42.2
11363,38.8
11375,35.0
11387,30.64
11399,25.75
11410,20.54
11421,15.28
11433,10.19
11445,5.42
11457,1.08
11469,-2.77
11481,-6.07
11493,-8.8
11505,-10.98
11517,-12.61
11529,-13.71
11541,-14.24
11553,-14.13
11565,-13.21
11577,-11.4
11589,-8.72
11600,-5.33
11611,-1.54
11623,2.33
11635,5.99
11647,9.18
11659,11.67
11671,13.23
11683,13.67
11695,12.9
11707,11.06
11719,8.5
11731,5.76
11743,3.36
11755,1.66
11767,0.69
11779,0.28
11790,0.1
11801,-0.09
11813,-0.31
11825,-0.45
11837,-0.32
11849,0.21
11861,1.06
11873,2.0
11885,2.72
11897,2.85
11909,2.17
11921,0.6
11933,-1.8
11945,-4.79
11957,-8.08
11969,-11.34
11980,-14.3
11991,-16.83
12003,-18.91
12015,-20.61
12027,-22.03
12039,-23.25
12051,-24.31
12063,-25.2
12075,-25.94
12087,-26.57
12099,-27.21
12111,-28.02
12123,-29.12
12135,-30.5
12147,-31.99
12159,-33.21
12170,-33.65
12181,-32.83
12193,-30.43
12205,-26.45
12217,-21.23
12229,-15.3
12241,-9.25
12253,-3.61
12265,1.32
12277,5.37
12289,8.52
12301,10.76
12313,12.19
12325,12.89
12337,13.01
12349,12.68
12360,12.03
12371,11.14
12383,10.08
12395,8.95
12407,7.93
12419,7.22
12431,6.96
12443,7.21
12455,7.85
12467,8.62
12479,9.23
12491,9.44
12503,9.13
12515,8.34
12527,7.16
12539,5.71
12550,4.14
12561,2.53
12573,0.88
12585,-0.83
12597,-2.65
12609,-4.58
12621,-6.59
12633,-8.57
12645,-10.45
12657,-12.19
12669,-13.8
12681,-15.35
12693,-16.93
12705,-18.64
12717,-20.57
12729,-22.8
12740,-25.32
12751,-28.07
12763,-30.91
12775,-33.7
12787,-36.36
12799,-38.95
12811,-41.6
12823,-44.38
12835,-47.21
12847,-49.71
12859,-51.29
12871,-51.34
12883,-49.43
12895,-45.52
12907,-39.93
12919,-33.26
12930,-26.33
12941,-19.96
12953,-14.91
12965,-11.76
12977,-10.78
12989,-11.88
13001,-14.52
13013,-17.79
13025,-20.62
13037,-22.12
13049,-21.94
13061,-20.29
13073,-17.77
13085,-15.1
13097,-12.69
13109,-10.49
13120,-8.21
13131,-5.56
13143,-2.6
13155,0.2
13167,2.27
13179,3.31
13191,3.51
13203,3.55
13215,4.3
13227,6.44
13239,10.25
13251,15.66
13263,22.35
13275,29.96
13287,38.12
13299,46.33
13310,53.95
13321,60.17
13333,64.23
13345,65.59
13357,64.2
13369,60.52
13381,55.46
13393,50.18
13405,45.79
13417,43.11
13429,42.47
13441,43.63
13453,45.95
13465,48.65
13477,51.05
13489,52.81
13500,53.94
13511,54.66
13523,55.26
13535,55.82
13547,56.26
13559,56.29
13571,55.6
13583,53.87
13595,50.96
13607,46.98
13619,42.26
13631,37.37
13643,32.85
13655,29.14
13667,26.33
13679,24.23
13690,22.45
13701,20.63
13713,18.61
13725,16.45
13737,14.36
13749,12.57
13761,11.16
13773,10.13
13785,9.35
13797,8.72
13809,8.13
13821,7.48
13833,6.56
13845,5.15
13857,3.03
13869,0.14
13880,-3.4
13891,-7.3
13903,-11.15
13915,-14.54
13927,-17.22
13939,-19.06
13951,-20.14
13963,-20.7
13975,-21.06
13987,-21.47
13999,-22.05
14011,-22.67
14023,-22.96
14035,-22.48
14047,-20.84
14059,-17.85
14070,-13.64
14081,-8.58
14093,-3.15
14105,2.12
14117,6.76
14129,10.49
14141,13.1
14153,14.54
14165,14.86
14177,14.2
14189,12.77
14201,10.78
14213,8.39
14225,5.7
14237,2.84
14249,-0.04
14260,-2.74
14271,-5.0
14283,-6.67
14295,-7.73
14307,-8.34
14319,-8.77
14331,-9.26
14343,-10.0
14355,-10.96
14367,-12.02
14379,-13.06
14391,-13.98
14403,-14.81
14415,-15.58
14427,-16.37
14439,-17.12
14450,-17.73
14461,-18.14
14473,-18.26
14485,-18.15
14497,-17.92
14509,-17.66
14521,-17.39
14533,-17.1
14545,-16.8
14557,-16.61
14569,-16.71
14581,-17.21
14593,-18.04
14605,-18.88
14617,-19.22
14629,-18.58
14640,-16.75
14651,-13.87
14663,-10.45
14675,-7.06
14687,-4.21
14699,-2.19
14711,-1.0
14723,-0.58
14735,-0.88
14747,-1.9
14759,-3.73
14771,-6.32
14783,-9.49
14795,-12.79
14807,-15.68
14819,-17.59
14830,-18.12
14841,-17.08
14853,-14.42
14865,-10.25
14877,-4.74
14889,1.81
14901,9.0
14913,16.29
14925,23.19
14937,29.36
14949,34.73
14961,39.55
14973,44.15
14985,48.8
14997,53.46
15009,57.77
15020,61.16
15031,63.18
15043,63.62
15055,62.62
15067,60.58
15079,57.82
15091,54.53
15103,50.73
15115,46.27
15127,41.1
15139,35.28
15151,29.08
15163,22.87
15175,17.05
15187,11.89
15199,7.53
15210,4.03
15221,1.31
15233,-0.78
15245,-2.55
15257,-4.33
15269,-6.45
15281,-9.18
15293,-12.58
15305,-16.58
15317,-20.92
15329,-25.34
15341,-29.64
15353,-33.77
15365,-37.83
15377,-42.03
15389,-46.53
15400,-51.43
15411,-56.66
15423,-61.97
15435,-66.99
15447,-71.26
15459,-74.2
15471,-75.26
15483,-73.87
15495,-69.59
15507,-62.17
15519,-51.86
15531,-39.44
15543,-26.26
15555,-13.95
15567,-3.94
15579,2.92
15590,6.65
15601,7.94
15613,7.8
15625,7.04
15637,5.97
15649,4.32
15661,1.46
15673,-3.2
15685,-9.95
15697,-18.6
15709,-28.51
15721,-38.75
15733,-48.23
15745,-55.9
15757,-60.85
15769,-62.51
15780,-60.72
15791,-55.81
15803,-48.57
15815,-40.0
15827,-31.05
15839,-22.23
15851,-13.41
15863,-3.85
15875,7.34
15887,20.7
15899,35.88
15911,51.52
15923,65.64
15935,76.35
15947,82.55
15959,84.28
15970,82.55
15981,78.76
15993,74.15
16005,69.4
16017,64.72
16029,60.12
16041,55.71
16053,51.79
16065,48.73
16077,46.69
16089,45.45
16101,44.53
16113,43.35
16125,41.47
16137,38.77
16149,35.35
16160,31.52
16171,27.55
16183,23.69
16195,20.02
16207,16.54
16219,13.18
16231,9.8
16243,6.3
16255,2.63
16267,-1.22
16279,-5.25
16291,-9.44
16303,-13.67
16315,-17.67
16327,-20.94
16339,-22.89
16350,-23.0
16361,-21.13
16373,-17.62
16385,-13.22
16397,-8.88
16409,-5.38
16421,-3.11
16433,-2.04
16445,-1.73
16457,-1.57
16469,-1.02
16481,0.3
16493,2.49
16505,5.34
16517,8.42
16529,11.13
16540,12.96
16551,13.59
16563,13.11
16575,11.95
16587,10.72
16599,9.98
16611,9.96
16623,10.47
16635,10.91
16647,10.53
16659,8.66
16671,4.98
16683,-0.52
16695,-7.49
16707,-15.44
16719,-23.77
16730,-31.87
16741,-39.16
16753,-45.17
16765,-49.57
16777,-52.2
16789,-53.01
16801,-52.07
16813,-49.56
16825,-45.82
16837,-41.35
16849,-36.78
16861,-32.53
16873,-28.59
16885,-24.38
16897,-18.98
16909,-11.64
16920,-2.41
16931,7.62
16943,16.66
16955,22.88
16967,25.16
16979,23.55
16991,19.07
17003,13.26
17015,7.47
17027,2.51
17039,-1.46
17051,-4.72
17063,-7.79
17075,-11.24
17087,-15.48
17099,-20.72
17110,-26.83
17121,-33.37
17133,-39.64
17145,-44.87
17157,-48.41
17169,-49.81
17181,-48.83
17193,-45.36
17205,-39.4
17217,-31.03
17229,-20.76
17241,-9.39
17253,1.99
17265,12.26
17277,20.47
17289,26.04
17300,28.91
17311,29.47
17323,28.54
17335,26.84
17347,25.04
17359,23.65
17371,22.93
17383,22.82
17395,22.9
17407,22.55
17419,21.13
17431,18.3
17443,13.74
17455,7.64
17467,0.74
17479,-5.83
17490,-11.06
17501,-14.42
17513,-15.92
17525,-15.97
17537,-15.12
17549,-14.29
17561,-14.22
17573,-15.26
17585,-17.38
17597,-20.31
17609,-23.7
17621,-26.93
17633,-29.09
17645,-26.81
17657,-18.18
17669,-4.38
17680,10.88
17691,23.8
17703,32.24
17715,35.67
17727,35.3
17739,32.2
17751,27.19
17763,20.56
17775,12.61
17787,3.89
17799,-4.73
17811,-12.08
17823,-17.24
17835,-19.84
17847,-20.14
17859,-18.78
17870,-16.79
17881,-14.95
17893,-13.51
17905,-12.01
17917,-9.77
17929,-6.31
17941,-1.53
17953,4.21
17965,10.31
17977,15.95
17989,20.47
18001,23.55
18013,25.29
18025,25.96
18037,25.77
18049,24.82
18060,23.13
18071,20.74
18083,17.72
18095,14.2
18107,10.41
18119,6.66
18131,3.27
18143,0.4
18155,-1.91
18167,-3.78
18179,-5.41
18191,-7.02
18203,-8.76
18215,-10.65
18227,-12.6
18239,-14.41
18250,-15.96
18261,-17.22
18273,-18.26
18285,-19.28
18297,-20.47
18309,-21.92
18321,-23.67
18333,-25.62
18345,-27.65
18357,-29.59
18369,-31.25
18381,-32.35
18393,-32.62
18405,-31.83
18417,-29.9
18429,-27.03
18440,-23.63
18451,-20.21
18463,-17.15
18475,-14.6
18487,-12.36
18499,-10.13
18511,-7.61
18523,-4.77
18535,-1.78
18547,1.06
18559,3.5
18571,5.41
18583,6.83
18595,7.89
18607,8.76
18619,9.64
18630,10.74
18641,12.28
18653,14.37
18665,16.94
18677,19.58
18689,21.79
18701,23.09
18713,23.37
18725,23.02
18737,22.82
18749,23.58
18761,25.78
18773,29.29
18785,33.47
18797,37.47
18809,40.58
18820,42.49
18831,43.29
18843,43.25
18855,42.54
18867,41.18
18879,38.98
18891,35.82
18903,31.71
18915,26.87
18927,21.62
18939,16.25
18951,11.0
18963,5.97
18975,1.21
18987,-3.26
18999,-7.39
19010,-11.09
19021,-14.23
19033,-16.67
19045,-18.29
19057,-19.02
19069,-18.82
19081,-17.75
19093,-15.89
19105,-13.31
19117,-10.1
19129,-6.45
19141,-2.68
19153,0.75
19165,3.38
19177,4.94
19189,5.54
19200,5.65
19211,6.03
19223,7.33
19235,9.79
19247,13.11
19259,16.42
19271,18.67
19283,19.0
19295,17.18
19307,13.67
19319,9.41
19331,5.44
19343,2.34
19355,0.12
19367,-1.81
19379,-4.32
19390,-8.14
19401,-13.52
19413,-20.17
19425,-27.38
19437,-34.39
19449,-40.59
19461,-45.59
19473,-49.3
19485,-51.88
19497,-53.22
19509,-53.16
19521,-51.7
19533,-48.84
19545,-44.32
19557,-37.98
19569,-29.77
19580,-20.0
19591,-8.98
19603,2.18
19615,12.77
19627,22.58
19639,31.75
19651,40.48
19663,48.79
19675,56.68
19687,63.72
19699,69.11
19711,71.97
19723,71.76
19735,68.35
19747,61.96
19759,53.04
19770,42.2
19781,30.68
19793,19.58
19805,9.64
19817,1.21
19829,-5.39
19841,-9.91
19853,-12.16
19865,-12.09
19877,-9.64
19889,-4.26
19901,4.01
19913,14.29
19925,25.01
19937,34.52
19949,41.52
19960,45.2
19971,45.28
19983,38.89
19995,26.14
20007,10.25
20019,-4.71
20031,-17.03
20043,-27.48
20055,-37.53
20067,-47.6
20079,-56.41
20091,-61.26
20103,-58.78
20115,-47.69
20127,-29.79
20139,-9.77
20150,6.61
20161,14.87
20173,13.69
20185,4.42
20197,-9.49
20209,-23.54
20221,-34.62
20233,-41.69
20245,-45.46
20257,-47.3
20269,-48.35
20281,-49.21
20293,-50.38
20305,-52.99
20317,-56.81
20329,-63.54
20340,-73.92
20351,-86.13
20363,-95.95
20375,-98.65
20387,-91.14
20399,-73.34
20411,-47.63
20423,-17.14
20435,15.52
20447,49.16
20459,82.99
20471,116.61
20483,147.02
20495,169.85
20507,181.18
20519,179.37
20530,165.87
20541,144.2
20553,118.64
20565,92.52
20577,67.66
20589,44.49
20601,23.18
20613,4.12
20625,-12.06
20637,-24.91
20649,-34.0
20661,-39.52
20673,-42.64
20685,-44.83
20697,-47.26
20709,-50.22
20720,-53.07
20731,-54.9
20743,-54.73
20755,-52.04
20767,-46.95
20779,-40.29
20791,-32.97
20803,-25.65
20815,-18.55
20827,-11.45
20839,-4.25
20851,3.31
20863,11.44
20875,20.63
20887,29.64
20899,36.0
20910,37.3
20921,32.64
20933,23.04
20945,10.54
20957,-2.86
20969,-15.74
20981,-27.37
20993,-37.81
