seconds,BVP
2,15.05
14,15.0
26,14.65
38,13.85
50,12.63
61,11.12
72,9.49
84,7.86
96,6.27
108,4.67
120,3.0
132,1.21
144,-0.65
156,-2.51
168,-4.31
180,-6.03
192,-7.75
204,-9.54
216,-11.5
228,-13.65
240,-15.92
251,-18.23
262,-20.49
274,-22.65
286,-24.71
298,-26.64
310,-28.42
322,-30.04
334,-31.57
346,-33.11
358,-34.84
370,-36.79
382,-38.74
394,-40.2
406,-40.44
418,-38.82
430,-35.02
441,-29.18
452,-21.93
464,-14.11
476,-6.49
488,0.37
500,6.21
512,10.97
524,14.65
536,17.29
548,18.97
560,19.84
572,20.21
584,20.4
596,20.72
608,21.32
620,22.22
631,23.28
642,24.28
654,25.04
666,25.44
678,25.49
690,25.3
702,25.06
714,24.93
726,24.97
738,25.14
750,25.3
762,25.27
774,24.92
786,24.25
798,23.3
810,22.2
821,21.02
832,19.81
844,18.52
856,17.11
868,15.55
880,13.9
892,12.24
904,10.64
916,9.1
928,7.54
940,5.8
952,3.74
964,1.35
976,-1.27
988,-3.9
1000,-6.29
1011,-8.36
1022,-10.19
1034,-12.03
1046,-14.2
1058,-16.92
1070,-20.26
1082,-24.06
1094,-28.0
1106,-31.64
1118,-34.44
1130,-35.9
1142,-35.57
1154,-33.2
1166,-28.86
1178,-23.0
1190,-16.33
1201,-9.67
1212,-3.67
1224,1.32
1236,5.24
1248,8.23
1260,10.45
1272,11.99
1284,12.92
1296,13.38
1308,13.57
1320,13.8
1332,14.33
1344,15.26
1356,16.53
1368,17.91
1380,19.19
1391,20.21
1402,20.91
1414,21.34
1426,21.55
1438,21.59
1450,21.46
1462,21.1
1474,20.45
1486,19.45
1498,18.13
1510,16.55
1522,14.81
1534,12.98
1546,11.04
1558,8.92
1570,6.53
1581,3.92
1592,1.27
1604,-1.17
1616,-3.19
1628,-4.82
1640,-6.27
1652,-7.85
1664,-9.76
1676,-12.0
1688,-14.38
1700,-16.67
1712,-18.76
1724,-20.64
1736,-22.4
1748,-24.11
1760,-25.79
1771,-27.47
1782,-29.3
1794,-31.44
1806,-34.04
1818,-36.96
1830,-39.71
1842,-41.56
1854,-41.77
1866,-39.89
1878,-35.98
1890,-30.55
1902,-24.35
1914,-18.11
1926,-12.33
1938,-7.25
1950,-2.99
1961,0.37
1972,2.77
1984,4.19
1996,4.77
2008,4.82
2020,4.68
2032,4.65
2044,4.88
2056,5.34
2068,5.92
2080,6.48
2092,6.94
2104,7.29
2116,7.57
2128,7.81
2140,8.03
2151,8.2
2162,8.26
2174,8.1
2186,7.62
2198,6.77
2210,5.55
2222,4.11
2234,2.62
2246,1.31
2258,0.31
2270,-0.34
2282,-0.67
2294,-0.8
2306,-0.87
2318,-0.96
2330,-1.12
2341,-1.37
2352,-1.74
2364,-2.27
2376,-3.08
2388,-4.37
2400,-6.36
2412,-9.17
2424,-12.7
2436,-16.56
2448,-20.07
2460,-22.43
2472,-22.99
2484,-21.47
2496,-18.08
2508,-13.46
2520,-8.39
2531,-3.55
2542,0.64
2554,4.04
2566,6.67
2578,8.51
2590,9.48
2602,9.48
2614,8.52
2626,6.82
2638,4.83
2650,3.01
2662,1.74
2674,1.13
2686,1.05
2698,1.21
2710,1.29
2721,1.14
2732,0.73
2744,0.18
2756,-0.35
2768,-0.74
2780,-0.96
2792,-1.08
2804,-1.16
2816,-1.27
2828,-1.45
2840,-1.71
2852,-2.05
2864,-2.48
2876,-2.98
2888,-3.56
2900,-4.26
2911,-5.18
2922,-6.48
2934,-8.34
2946,-10.83
2958,-13.88
2970,-17.15
2982,-20.15
2994,-22.27
3006,-22.99
3018,-22.01
3030,-19.39
3042,-15.49
3054,-10.87
3066,-6.14
3078,-1.75
3090,2.08
3101,5.3
3112,7.98
3124,10.17
3136,11.86
3148,12.98
3160,13.51
3172,13.57
3184,13.38
3196,13.22
3208,13.24
3220,13.44
3232,13.64
3244,13.57
3256,13.1
3268,12.2
3280,11.04
3291,9.78
3302,8.55
3314,7.3
3326,5.87
3338,4.09
3350,1.83
3362,-0.88
3374,-3.87
3386,-6.91
3398,-9.71
3410,-12.05
3422,-13.76
3434,-14.83
3446,-15.38
3458,-15.73
3470,-16.28
3481,-17.43
3492,-19.26
3504,-21.55
3516,-23.7
3528,-24.94
3540,-24.6
3552,-22.4
3564,-18.45
3576,-13.26
3588,-7.52
3600,-1.87
3612,3.19
3624,7.41
3636,10.69
3648,13.08
3660,14.67
3671,15.59
3682,15.97
3694,15.93
3706,15.57
3718,15.01
3730,14.43
3742,14.07
3754,14.22
3766,15.12
3778,16.85
3790,19.28
3802,22.07
3814,24.88
3826,27.37
3838,29.4
3850,30.99
3861,32.15
3872,32.85
3884,32.93
3896,32.18
3908,30.47
3920,27.84
3932,24.52
3944,20.83
3956,17.03
3968,13.26
3980,9.47
3992,5.51
4004,1.29
4016,-3.21
4028,-7.89
4040,-12.63
4051,-17.23
4062,-21.4
4074,-24.71
4086,-26.54
4098,-26.26
4110,-23.44
4122,-18.06
4134,-10.6
4146,-1.94
4158,6.97
4170,15.36
4182,22.83
4194,29.33
4206,35.0
4218,39.91
4230,44.01
4241,47.15
4252,49.17
4264,50.1
4276,50.18
4288,49.77
4300,49.25
4312,48.87
4324,48.69
4336,48.62
4348,48.59
4360,48.64
4372,48.87
4384,49.4
4396,50.23
4408,51.2
4420,51.96
4431,52.19
4442,51.65
4454,50.26
4466,48.11
4478,45.3
4490,41.9
4502,37.9
4514,33.22
4526,27.78
4538,21.5
4550,14.33
4562,6.28
4574,-2.57
4586,-12.0
4598,-21.65
4610,-31.14
4621,-40.11
4632,-48.38
4644,-55.95
4656,-62.94
4668,-69.53
4680,-75.86
4692,-81.91
4704,-87.45
4716,-92.03
4728,-94.95
4740,-95.47
4752,-92.97
4764,-87.24
4776,-78.59
4788,-67.84
4800,-56.06
4811,-44.29
4822,-33.22
4834,-23.26
4846,-14.54
4858,-7.14
4870,-1.12
4882,3.53
4894,7.02
4906,9.84
4918,12.6
4930,15.79
4942,19.64
4954,23.93
4966,28.25
4978,32.14
4990,35.37
5001,37.95
5012,40.1
5024,42.04
5036,43.86
5048,45.53
5060,46.9
5072,47.79
5084,48.07
5096,47.74
5108,46.87
5120,45.66
5132,44.3
5144,42.96
5156,41.65
5168,40.21
5180,38.26
5191,35.36
5202,31.14
5214,25.44
5226,18.41
5238,10.42
5250,1.93
5262,-6.72
5274,-15.36
5286,-24.02
5298,-32.82
5310,-41.8
5322,-50.89
5334,-59.82
5346,-68.12
5358,-75.2
5370,-80.31
5381,-82.71
5392,-81.8
5404,-77.3
5416,-69.47
5428,-59.05
5440,-47.15
5452,-34.93
5464,-23.39
5476,-13.21
5488,-4.79
5500,1.63
5512,5.92
5524,8.04
5536,8.15
5548,6.67
5560,4.2
5571,1.42
5582,-1.09
5594,-3.0
5606,-4.22
5618,-4.8
5630,-4.83
5642,-4.35
5654,-3.26
5666,-1.48
5678,1.03
5690,4.17
5702,7.73
5714,11.37
5726,14.79
5738,17.79
5750,20.29
5761,22.26
5772,23.72
5784,24.66
5796,25.06
5808,24.92
5820,24.24
5832,23.0
5844,21.17
5856,18.75
5868,15.82
5880,12.57
5892,9.29
5904,6.23
5916,3.49
5928,0.93
5940,-1.76
5951,-4.89
5962,-8.67
5974,-13.09
5986,-17.89
5998,-22.64
6010,-26.8
6022,-29.74
6034,-30.89
6046,-29.87
6058,-26.69
6070,-21.77
6082,-15.88
6094,-9.87
6106,-4.44
6118,0.05
6130,3.49
6141,5.95
6152,7.45
6164,8.03
6176,7.69
6188,6.6
6200,5.07
6212,3.49
6224,2.2
6236,1.38
6248,0.98
6260,0.82
6272,0.64
6284,0.27
6296,-0.36
6308,-1.24
6320,-2.28
6331,-3.38
6342,-4.4
6354,-5.24
6366,-5.85
6378,-6.2
6390,-6.37
6402,-6.45
6414,-6.52
6426,-6.59
6438,-6.62
6450,-6.56
6462,-6.36
6474,-6.04
6486,-5.68
6498,-5.38
6510,-5.22
6521,-5.35
6532,-5.9
6544,-7.02
6556,-8.72
6568,-10.85
6580,-12.98
6592,-14.55
6604,-14.98
6616,-13.97
6628,-11.6
6640,-8.3
6652,-4.74
6664,-1.47
6676,1.12
6688,2.94
6700,4.07
6711,4.65
6722,4.81
6734,4.69
6746,4.5
6758,4.48
6770,4.96
6782,6.25
6794,8.52
6806,11.76
6818,15.71
6830,19.99
6842,24.19
6854,27.99
6866,31.24
6878,33.93
6890,36.06
6901,37.56
6912,38.23
6924,37.79
6936,36.04
6948,32.91
6960,28.54
6972,23.19
6984,17.16
6996,10.66
7008,3.86
7020,-3.16
7032,-10.23
7044,-17.12
7056,-23.45
7068,-28.72
7080,-32.39
7091,-34.02
7102,-33.33
7114,-30.36
7126,-25.49
7138,-19.36
7150,-12.66
7162,-6.02
7174,0.13
7186,5.53
7198,10.01
7210,13.41
7222,15.56
7234,16.29
7246,15.55
7258,13.46
7270,10.35
7281,6.62
7292,2.76
7304,-0.82
7316,-3.84
7328,-6.16
7340,-7.77
7352,-8.82
7364,-9.46
7376,-9.87
7388,-10.16
7400,-10.39
7412,-10.57
7424,-10.67
7436,-10.68
7448,-10.57
7460,-10.33
7471,-9.97
7482,-9.58
7494,-9.37
7506,-9.72
7518,-11.03
7530,-13.53
7542,-17.09
7554,-21.1
7566,-24.58
7578,-26.58
7590,-26.48
7602,-24.27
7614,-20.53
7626,-16.13
7638,-11.91
7650,-8.43
7661,-5.92
7672,-4.38
7684,-3.75
7696,-3.95
7708,-4.91
7720,-6.47
7732,-8.41
7744,-10.46
7756,-12.39
7768,-14.03
7780,-15.26
7792,-16.07
7804,-16.44
7816,-16.41
7828,-16.04
7840,-15.42
7851,-14.62
7862,-13.68
7874,-12.57
7886,-11.21
7898,-9.49
7910,-7.36
7922,-4.84
7934,-2.03
7946,0.88
7958,3.62
7970,5.88
7982,7.3
7994,7.57
8006,6.39
8018,3.57
8030,-0.84
8041,-6.49
8052,-12.66
8064,-18.39
8076,-22.68
8088,-24.81
8100,-24.57
8112,-22.29
8124,-18.71
8136,-14.6
8148,-10.55
8160,-6.77
8172,-3.19
8184,0.37
8196,4.0
8208,7.63
8220,11.1
8231,14.27
8242,17.17
8254,19.96
8266,22.88
8278,26.08
8290,29.59
8302,33.28
8314,36.94
8326,40.36
8338,43.48
8350,46.27
8362,48.76
8374,50.96
8386,52.8
8398,54.14
8410,54.78
8421,54.48
8432,53.06
8444,50.42
8456,46.59
8468,41.76
8480,36.17
8492,30.1
8504,23.77
8516,17.27
8528,10.62
8540,3.75
8552,-3.44
8564,-11.04
8576,-19.16
8588,-27.87
8600,-37.08
8611,-46.43
8622,-55.27
8634,-62.7
8646,-67.84
8658,-70.11
8670,-69.43
8682,-66.27
8694,-61.45
8706,-55.86
8718,-50.16
8730,-44.72
8742,-39.61
8754,-34.84
8766,-30.47
8778,-26.65
8790,-23.49
8801,-20.92
8812,-18.63
8824,-16.11
8836,-12.85
8848,-8.53
8860,-3.13
8872,3.1
8884,9.77
8896,16.51
8908,23.09
8920,29.4
8932,35.36
8944,40.82
8956,45.56
8968,49.31
8980,51.81
8991,52.91
9002,52.58
9014,50.94
9026,48.2
9038,44.67
9050,40.67
9062,36.51
9074,32.36
9086,28.27
9098,24.2
9110,20.07
9122,15.9
9134,11.85
9146,8.19
9158,5.2
9170,3.04
9181,1.73
9192,1.11
9204,0.99
9216,1.16
9228,1.43
9240,1.64
9252,1.59
9264,1.06
9276,-0.08
9288,-1.71
9300,-3.42
9312,-4.54
9324,-4.39
9336,-2.55
9348,0.94
9360,5.49
9371,10.19
9382,14.08
9394,16.47
9406,17.11
9418,16.13
9430,13.89
9442,10.74
9454,6.94
9466,2.63
9478,-2.06
9490,-6.89
9502,-11.5
9514,-15.53
9526,-18.62
9538,-20.63
9550,-21.59
9561,-21.7
9572,-21.18
9584,-20.21
9596,-18.86
9608,-17.13
9620,-14.98
9632,-12.44
9644,-9.63
9656,-6.73
9668,-3.96
9680,-1.55
9692,0.32
9704,1.56
9716,2.14
9728,2.16
9740,1.73
9751,0.93
9762,-0.21
9774,-1.74
9786,-3.78
9798,-6.39
9810,-9.54
9822,-13.1
9834,-16.82
9846,-20.4
9858,-23.6
9870,-26.21
9882,-28.07
9894,-29.03
9906,-29.0
9918,-28.0
9930,-26.16
9941,-23.63
9952,-20.44
9964,-16.36
9976,-10.88
9988,-3.34
10000,6.69
10012,19.23
10024,33.64
10036,48.77
10048,63.22
10060,75.75
10072,85.59
10084,92.53
10096,96.82
10108,98.89
10120,99.16
10131,97.9
10142,95.3
10154,91.57
10166,87.06
10178,82.2
10190,77.4
10202,72.9
10214,68.72
10226,64.71
10238,60.67
10250,56.5
10262,52.22
10274,47.89
10286,43.58
10298,39.29
10310,35.05
10321,30.87
10332,26.88
10344,23.19
10356,19.94
10368,17.13
10380,14.72
10392,12.58
10404,10.65
10416,8.89
10428,7.3
10440,5.9
10452,4.67
10464,3.59
10476,2.64
10488,1.91
10500,1.5
10511,1.43
10522,1.59
10534,1.71
10546,1.44
10558,0.52
10570,-1.14
10582,-3.41
10594,-6.01
10606,-8.62
10618,-10.95
10630,-12.84
10642,-14.15
10654,-14.85
10666,-14.95
10678,-14.63
10690,-14.22
10701,-14.16
10712,-14.91
10724,-16.74
10736,-19.71
10748,-23.66
10760,-28.33
10772,-33.5
10784,-39.02
10796,-44.77
10808,-50.6
10820,-56.33
10832,-61.74
10844,-66.65
10856,-71.03
10868,-74.9
10880,-78.4
10891,-81.67
10902,-84.78
10914,-87.8
10926,-90.74
10938,-93.61
10950,-96.42
10962,-99.22
10974,-102.1
10986,-105.17
10998,-108.47
11010,-111.87
11022,-114.85
11034,-116.55
11046,-115.9
11058,-112.04
11070,-104.68
11081,-94.3
11092,-82.07
11104,-69.44
11116,-57.72
11128,-47.68
11140,-39.46
11152,-32.79
11164,-27.29
11176,-22.62
11188,-18.54
11200,-14.77
11212,-10.93
11224,-6.47
11236,-0.92
11248,5.86
11260,13.54
11271,21.41
11282,28.62
11294,34.51
11306,38.8
11318,41.66
11330,43.48
11342,44.68
11354,45.49
11366,45.97
11378,46.05
11390,45.72
11402,45.06
11414,44.25
11426,43.54
11438,43.04
11450,42.72
11461,42.41
11472,41.84
11484,40.83
11496,39.38
11508,37.62
11520,35.77
11532,34.01
11544,32.33
11556,30.55
11568,28.46
11580,25.95
11592,23.09
11604,20.13
11616,17.33
11628,14.8
11640,12.48
11651,10.21
11662,7.84
11674,5.33
11686,2.76
11698,0.25
11710,-2.18
11722,-4.53
11734,-6.82
11746,-8.86
11758,-10.33
11770,-10.81
11782,-10.04
11794,-8.07
11806,-5.29
11818,-2.23
11830,0.61
11841,3.0
11852,4.93
11864,6.52
11876,7.82
11888,8.69
11900,8.92
11912,8.31
11924,6.87
11936,4.87
11948,2.74
11960,0.92
11972,-0.33
11984,-0.95
11996,-1.11
12008,-1.09
12020,-1.16
12031,-1.54
12042,-2.29
12054,-3.37
12066,-4.62
12078,-5.9
12090,-7.07
12102,-8.14
12114,-9.18
12126,-10.24
12138,-11.36
12150,-12.45
12162,-13.32
12174,-13.83
12186,-13.89
12198,-13.6
12210,-13.24
12221,-13.15
12232,-13.63
12244,-14.73
12256,-16.25
12268,-17.66
12280,-18.32
12292,-17.67
12304,-15.45
12316,-11.85
12328,-7.33
12340,-2.49
12352,2.17
12364,6.39
12376,10.12
12388,13.42
12400,16.31
12411,18.77
12422,20.68
12434,21.95
12446,22.58
12458,22.67
12470,22.46
12482,22.22
12494,22.16
12506,22.35
12518,22.72
12530,23.09
12542,23.29
12554,23.2
12566,22.82
12578,22.24
12590,21.56
12601,20.82
12612,20.01
12624,19.08
12636,17.96
12648,16.63
12660,15.1
12672,13.39
12684,11.55
12696,9.66
12708,7.81
12720,6.07
12732,4.46
12744,2.92
12756,1.31
12768,-0.52
12780,-2.67
12791,-5.11
12802,-7.76
12814,-10.44
12826,-12.96
12838,-15.09
12850,-16.56
12862,-17.07
12874,-16.42
12886,-14.62
12898,-11.89
12910,-8.68
12922,-5.48
12934,-2.63
12946,-0.28
12958,1.6
12970,3.12
12981,4.31
12992,5.12
13004,5.5
13016,5.42
13028,5.03
13040,4.54
13052,4.17
13064,4.04
13076,4.14
13088,4.37
13100,4.65
13112,4.92
13124,5.17
13136,5.35
13148,5.43
13160,5.32
13171,4.99
13182,4.46
13194,3.83
13206,3.21
13218,2.68
13230,2.21
13242,1.75
13254,1.2
13266,0.51
13278,-0.3
13290,-1.23
13302,-2.28
13314,-3.5
13326,-4.9
13338,-6.47
13350,-8.09
13361,-9.56
13372,-10.72
13384,-11.51
13396,-12.0
13408,-12.42
13420,-13.08
13432,-14.27
13444,-16.15
13456,-18.61
13468,-21.26
13480,-23.52
13492,-24.74
13504,-24.41
13516,-22.4
13528,-18.9
13540,-14.45
13551,-9.68
13562,-5.21
13574,-1.45
13586,1.43
13598,3.45
13610,4.76
13622,5.6
13634,6.15
13646,6.6
13658,7.04
13670,7.55
13682,8.2
13694,9.03
13706,10.05
13718,11.18
13730,12.26
13741,13.07
13752,13.48
13764,13.44
13776,13.06
13788,12.53
13800,12.02
13812,11.62
13824,11.31
13836,10.97
13848,10.45
13860,9.68
13872,8.66
13884,7.51
13896,6.43
13908,5.58
13920,5.04
13931,4.73
13942,4.43
13954,3.85
13966,2.78
13978,1.18
13990,-0.79
14002,-2.85
14014,-4.71
14026,-6.23
14038,-7.42
14050,-8.45
14062,-9.54
14074,-10.89
14086,-12.67
14098,-14.91
14110,-17.55
14121,-20.36
14132,-22.98
14144,-24.92
14156,-25.71
14168,-25.06
14180,-22.92
14192,-19.62
14204,-15.68
14216,-11.73
14228,-8.24
14240,-5.45
14252,-3.34
14264,-1.73
14276,-0.45
14288,0.6
14300,1.4
14311,1.94
14322,2.23
14334,2.42
14346,2.7
14358,3.26
14370,4.15
14382,5.3
14394,6.52
14406,7.6
14418,8.38
14430,8.81
14442,8.96
14454,8.99
14466,9.01
14478,9.04
14490,8.98
14501,8.66
14512,7.95
14524,6.88
14536,5.63
14548,4.46
14560,3.53
14572,2.86
14584,2.32
14596,1.72
14608,0.92
14620,-0.07
14632,-1.18
14644,-2.33
14656,-3.53
14668,-4.82
14680,-6.22
14691,-7.74
14702,-9.31
14714,-10.92
14726,-12.58
14738,-14.31
14750,-15.99
14762,-17.32
14774,-17.87
14786,-17.23
14798,-15.23
14810,-12.04
14822,-8.14
14834,-4.1
14846,-0.34
14858,2.95
14870,5.78
14881,8.2
14892,10.21
14904,11.68
14916,12.48
14928,12.6
14940,12.22
14952,11.67
14964,11.29
14976,11.29
14988,11.68
15000,12.28
15012,12.83
15024,13.12
15036,13.07
15048,12.69
15060,12.07
15071,11.35
15082,10.64
15094,10.0
15106,9.41
15118,8.79
15130,8.01
15142,6.94
15154,5.58
15166,4.03
15178,2.49
15190,1.16
15202,0.11
15214,-0.75
15226,-1.55
15238,-2.43
15250,-3.41
15261,-4.39
15272,-5.26
15284,-6.0
15296,-6.7
15308,-7.62
15320,-8.98
15332,-10.92
15344,-13.33
15356,-15.91
15368,-18.19
15380,-19.65
15392,-19.89
15404,-18.71
15416,-16.18
15428,-12.6
15440,-8.42
15451,-4.12
15462,-0.06
15474,3.48
15486,6.37
15498,8.54
15510,9.97
15522,10.71
15534,10.9
15546,10.75
15558,10.53
15570,10.44
15582,10.63
15594,11.05
15606,11.59
15618,12.07
15630,12.36
15641,12.44
15652,12.34
15664,12.17
15676,12.04
15688,11.95
15700,11.86
15712,11.61
15724,11.08
15736,10.17
15748,8.92
15760,7.48
15772,6.01
15784,4.6
15796,3.22
15808,1.75
15820,0.05
15831,-1.95
15842,-4.14
15854,-6.34
15866,-8.37
15878,-10.12
15890,-11.6
15902,-12.91
15914,-14.16
15926,-15.47
15938,-16.96
15950,-18.72
15962,-20.75
15974,-22.87
15986,-24.72
15998,-25.79
16010,-25.63
16021,-24.05
16032,-21.21
16044,-17.6
16056,-13.82
16068,-10.35
16080,-7.45
16092,-5.12
16104,-3.24
16116,-1.77
16128,-0.79
16140,-0.47
16152,-0.94
16164,-2.06
16176,-3.48
16188,-4.63
16200,-4.95
16211,-4.13
16222,-2.24
16234,0.39
16246,3.25
16258,5.97
16270,8.38
16282,10.6
16294,12.84
16306,15.25
16318,17.75
16330,20.04
16342,21.72
16354,22.51
16366,22.39
16378,21.65
16390,20.67
16401,19.79
16412,19.12
16424,18.5
16436,17.7
16448,16.54
16460,15.01
16472,13.26
16484,11.45
16496,9.59
16508,7.5
16520,4.92
16532,1.74
16544,-1.83
16556,-5.29
16568,-7.97
16580,-9.35
16591,-9.27
16602,-7.95
16614,-5.88
16626,-3.56
16638,-1.34
16650,0.65
16662,2.41
16674,3.93
16686,5.13
16698,5.92
16710,6.27
16722,6.3
16734,6.28
16746,6.49
16758,7.08
16770,8.0
16781,9.09
16792,10.17
16804,11.12
16816,11.94
16828,12.64
16840,13.2
16852,13.54
16864,13.53
16876,13.13
16888,12.44
16900,11.6
16912,10.8
16924,10.12
16936,9.49
16948,8.7
16960,7.62
16971,6.21
16982,4.63
16994,3.14
17006,1.97
17018,1.18
17030,0.63
17042,0.03
17054,-0.88
17066,-2.24
17078,-4.01
17090,-6.01
17102,-8.02
17114,-9.77
17126,-10.98
17138,-11.32
17150,-10.49
17161,-8.3
17172,-4.77
17184,-0.23
17196,4.75
17208,9.53
17220,13.51
17232,16.31
17244,17.76
17256,17.93
17268,17.04
17280,15.43
17292,13.51
17304,11.65
17316,10.14
17328,9.1
17340,8.49
17351,8.17
17362,7.97
17374,7.79
17386,7.56
17398,7.25
17410,6.78
17422,6.01
17434,4.72
17446,2.75
17458,0.08
17470,-3.09
17482,-6.39
17494,-9.45
17506,-12.0
17518,-14.07
17530,-15.94
17541,-18.0
17552,-20.57
17564,-23.72
17576,-27.32
17588,-31.09
17600,-34.79
17612,-38.36
17624,-41.93
17636,-45.74
17648,-50.0
17660,-54.85
17672,-60.16
17684,-65.63
17696,-70.72
17708,-74.81
17720,-77.35
17731,-77.92
17742,-76.42
17754,-73.08
17766,-68.41
17778,-62.97
17790,-57.29
17802,-51.65
17814,-46.13
17826,-40.61
17838,-34.98
17850,-29.22
17862,-23.51
17874,-18.27
17886,-13.98
17898,-11.1
17910,-9.83
17921,-9.97
17932,-10.95
17944,-11.94
17956,-12.15
17968,-11.03
17980,-8.46
17992,-4.77
18004,-0.46
18016,3.96
18028,8.27
18040,12.48
18052,16.66
18064,20.73
18076,24.23
18088,26.5
18100,26.86
18111,25.0
18122,21.1
18134,15.77
18146,9.87
18158,4.19
18170,-0.66
18182,-4.21
18194,-6.1
18206,-5.98
18218,-3.62
18230,0.92
18242,7.11
18254,13.96
18266,20.2
18278,24.6
18290,26.36
18301,25.3
18312,21.96
18324,17.47
18336,13.17
18348,10.25
18360,9.3
18372,10.22
18384,12.24
18396,14.26
18408,15.21
18420,14.43
18432,11.78
18444,7.64
18456,2.75
18468,-1.99
18480,-5.8
18491,-8.2
18502,-9.18
18514,-9.23
18526,-9.12
18538,-9.56
18550,-10.88
18562,-12.87
18574,-14.87
18586,-16.09
18598,-15.99
18610,-14.42
18622,-11.68
18634,-8.2
18646,-4.39
18658,-0.45
18670,3.53
18681,7.44
18692,11.09
18704,14.18
18716,16.44
18728,17.76
18740,18.23
18752,18.1
18764,17.69
18776,17.15
18788,16.48
18800,15.55
18812,14.24
18824,12.56
18836,10.69
18848,8.91
18860,7.44
18871,6.3
18882,5.3
18894,4.04
18906,2.16
18918,-0.51
18930,-3.73
18942,-6.88
18954,-9.12
18966,-9.62
18978,-7.97
18990,-4.28
19002,0.81
19014,6.37
19026,11.52
19038,15.72
19050,18.87
19061,21.19
19072,23.01
19084,24.5
19096,25.66
19108,26.32
19120,26.32
19132,25.66
19144,24.54
19156,23.26
19168,22.14
19180,21.38
19192,21.07
19204,21.24
19216,21.92
19228,23.12
19240,24.86
19251,27.06
19262,29.44
19274,31.63
19286,33.18
19298,33.78
19310,33.33
19322,32.01
19334,30.17
19346,28.24
19358,26.61
19370,25.5
19382,24.97
19394,24.97
19406,25.38
19418,26.03
19430,26.71
19441,27.15
19452,26.98
19464,25.81
19476,23.29
19488,19.19
19500,13.49
19512,6.41
19524,-1.61
19536,-9.86
19548,-17.38
19560,-23.08
19572,-25.99
19584,-25.61
19596,-22.12
19608,-16.43
19620,-9.88
19631,-3.74
19642,1.18
19654,4.74
19666,7.2
19678,8.93
19690,10.12
19702,10.72
19714,10.68
19726,10.2
19738,9.73
19750,9.87
19762,10.97
19774,12.95
19786,15.3
19798,17.33
19810,18.53
19821,18.79
19832,18.38
19844,17.78
19856,17.4
19868,17.42
19880,17.75
19892,18.19
19904,18.5
19916,18.51
19928,18.13
19940,17.4
19952,16.39
19964,15.21
19976,13.97
19988,12.74
20000,11.54
20011,10.24
20022,8.66
20034,6.64
20046,4.09
20058,1.12
20070,-2.01
20082,-4.88
20094,-7.1
20106,-8.36
20118,-8.54
20130,-7.77
20142,-6.3
20154,-4.48
20166,-2.66
20178,-1.1
20190,0.04
20201,0.66
20212,0.7
20224,0.1
20236,-1.17
20248,-3.05
20260,-5.39
20272,-7.95
20284,-10.44
20296,-12.59
20308,-14.21
20320,-15.24
20332,-15.7
20344,-15.71
20356,-15.4
20368,-14.91
20380,-14.34
20391,-13.72
20402,-13.07
20414,-12.35
20426,-11.52
20438,-10.61
20450,-9.71
20462,-8.99
20474,-8.64
20486,-8.73
20498,-9.18
20510,-9.73
20522,-10.08
20534,-9.99
20546,-9.44
20558,-8.65
20570,-7.94
20581,-7.66
20592,-7.97
20604,-8.86
20616,-10.12
20628,-11.41
20640,-12.4
20652,-12.74
20664,-12.15
20676,-10.49
20688,-7.75
20700,-4.11
20712,0.1
20724,4.47
20736,8.6
20748,12.18
20760,15.01
20771,17.03
20782,18.28
20794,18.84
20806,18.84
20818,18.48
20830,17.97
20842,17.55
20854,17.37
20866,17.44
20878,17.63
20890,17.72
20902,17.51
20914,16.89
20926,15.95
20938,14.81
20950,13.63
20961,12.48
20972,11.36
20984,10.23
20996,9.08
