seconds,BVP
7,-1.57
19,-34.53
31,-62.79
43,-82.53
55,-92.58
67,-94.79
79,-89.51
90,-78.23
101,-63.16
113,-46.89
125,-31.75
137,-19.55
149,-11.36
161,-7.4
173,-7.2
185,-9.26
197,-11.64
209,-12.8
221,-12.25
233,-10.54
245,-8.84
257,-8.38
269,-10.02
280,-13.96
291,-19.38
303,-24.71
315,-28.11
327,-28.11
339,-23.99
351,-16.01
363,-5.24
375,6.81
387,18.64
399,29.16
411,37.85
423,44.71
435,49.88
447,53.47
459,55.4
470,55.5
481,53.71
493,50.21
505,45.42
517,39.8
529,33.87
541,28.05
553,22.68
565,17.98
577,14.15
589,11.3
601,9.4
613,8.25
625,7.42
637,6.43
649,4.91
660,2.7
671,-0.11
683,-3.27
695,-6.5
707,-9.66
719,-12.75
731,-15.93
743,-19.4
755,-23.29
767,-27.57
779,-31.87
791,-35.48
803,-37.44
815,-36.75
827,-32.71
839,-25.19
850,-14.74
861,-2.49
873,10.2
885,22.1
897,32.37
909,40.64
921,46.83
933,51.0
945,53.22
957,53.6
969,52.41
981,50.17
993,47.61
1005,45.47
1017,44.32
1029,44.3
1040,45.21
1051,46.67
1063,48.31
1075,50.04
1087,52.0
1099,54.43
1111,57.51
1123,61.17
1135,65.11
1147,69.0
1159,72.56
1171,75.66
1183,78.15
1195,79.77
1207,80.0
1219,78.3
1230,74.32
1241,68.12
1253,60.11
1265,50.68
1277,39.78
1289,26.86
1301,11.2
1313,-7.5
1325,-28.52
1337,-50.17
1349,-70.32
1361,-87.18
1373,-99.99
1385,-109.06
1397,-115.38
1409,-119.87
1420,-122.96
1431,-124.46
1443,-124.01
1455,-121.4
1467,-116.85
1479,-110.91
1491,-104.13
1503,-96.84
1515,-88.98
1527,-80.3
1539,-70.54
1551,-59.73
1563,-48.25
1575,-36.7
1587,-25.71
1599,-15.71
1610,-6.74
1621,1.42
1633,9.15
1645,16.79
1657,24.41
1669,31.87
1681,38.76
1693,44.6
1705,48.92
1717,51.31
1729,51.53
1741,49.45
1753,45.22
1765,39.33
1777,32.62
1789,26.27
1800,21.41
1811,18.97
1823,19.3
1835,22.13
1847,26.76
1859,32.25
1871,37.76
1883,42.68
1895,46.6
1907,49.2
1919,50.23
1931,49.48
1943,46.89
1955,42.73
1967,37.52
1979,31.99
1990,26.85
2001,22.63
2013,19.52
2025,17.47
2037,16.24
2049,15.55
2061,15.2
2073,15.04
2085,15.05
2097,15.18
2109,15.4
2121,15.56
2133,15.51
2145,15.04
2157,13.97
2169,12.21
2180,9.78
2191,6.88
2203,3.8
2215,0.9
2227,-1.55
2239,-3.47
2251,-4.99
2263,-6.41
2275,-8.15
2287,-10.52
2299,-13.6
2311,-17.12
2323,-20.51
2335,-22.97
2347,-23.57
2359,-21.64
2370,-17.0
2381,-10.02
2393,-1.44
2405,7.77
2417,16.71
2429,24.58
2441,30.89
2453,35.54
2465,38.6
2477,40.15
2489,40.19
2501,38.81
2513,36.2
2525,32.83
2537,29.28
2549,26.17
2560,24.3
2571,24.01
2583,25.05
2595,26.72
2607,28.35
2619,29.59
2631,30.57
2643,31.51
2655,32.56
2667,34.61
2679,37.93
2691,41.8
2703,44.87
2715,46.22
2727,45.58
2739,43.75
2750,41.55
2761,39.56
2773,39.94
2785,43.69
2797,49.78
2809,55.84
2821,59.97
2833,61.33
2845,61.01
2857,60.16
2869,59.59
2881,62.76
2893,71.33
2905,83.65
2917,95.74
2929,104.23
2940,107.36
2951,106.65
2963,104.15
2975,101.98
2987,106.03
2999,119.92
3011,142.54
3023,168.89
3035,193.55
3047,212.12
3059,223.59
3071,227.52
3083,198.68
3095,127.97
3107,29.46
3119,-68.95
3130,-146.85
3141,-194.34
3153,-222.73
3165,-240.16
3177,-251.42
3189,-259.17
3201,-260.4
3213,-253.35
3225,-240.26
3237,-226.59
3249,-217.28
3261,-215.39
3273,-219.61
3285,-227.33
3297,-235.24
3309,-236.58
3320,-226.31
3331,-203.52
3343,-171.15
3355,-133.33
3367,-94.24
3379,-55.97
3391,-20.48
3403,10.36
3415,37.01
3427,59.57
3439,76.84
3451,86.96
3463,89.13
3475,84.11
3487,74.71
3499,63.63
3510,52.65
3521,43.41
3533,36.32
3545,30.46
3557,24.39
3569,17.11
3581,8.39
3593,-0.96
3605,-10.0
3617,-17.9
3629,-23.61
3641,-26.53
3653,-26.86
3665,-25.53
3677,-23.81
3689,-22.8
3700,-22.92
3711,-23.93
3723,-25.08
3735,-25.43
3747,-24.25
3759,-21.25
3771,-16.61
3783,-10.89
3795,-4.86
3807,0.67
3819,4.96
3831,7.51
3843,8.13
3855,7.07
3867,4.9
3879,2.29
3890,-0.22
3901,-2.34
3913,-4.04
3925,-5.38
3937,-6.38
3949,-6.99
3961,-7.14
3973,-6.85
3985,-6.26
3997,-5.56
4009,-4.84
4021,-4.01
4033,-2.82
4045,-0.97
4057,1.66
4069,4.91
4080,8.4
4091,11.58
4103,14.02
4115,15.49
4127,15.96
4139,15.53
4151,14.34
4163,12.44
4175,9.85
4187,6.61
4199,2.88
4211,-1.02
4223,-4.71
4235,-7.83
4247,-10.23
4259,-11.97
4270,-13.3
4281,-14.51
4293,-15.81
4305,-17.26
4317,-18.75
4329,-20.16
4341,-21.43
4353,-22.63
4365,-23.93
4377,-25.51
4389,-27.41
4401,-29.43
4413,-31.15
4425,-31.96
4437,-31.23
4449,-28.44
4460,-23.44
4471,-16.42
4483,-7.99
4495,1.02
4507,9.75
4519,17.5
4531,23.84
4543,28.59
4555,31.74
4567,33.34
4579,33.45
4591,32.18
4603,29.79
4615,26.65
4627,23.19
4639,19.9
4650,17.15
4661,15.17
4673,14.08
4685,13.83
4697,14.28
4709,15.24
4721,16.41
4733,17.5
4745,18.25
4757,18.5
4769,18.24
4781,17.52
4793,16.49
4805,15.39
4817,14.5
4829,14.04
4840,14.08
4851,14.52
4863,15.17
4875,15.78
4887,16.17
4899,16.35
4911,16.58
4923,17.22
4935,18.55
4947,20.49
4959,22.68
4971,24.64
4983,26.0
4995,26.6
5007,26.53
5019,26.15
5030,25.83
5041,25.64
5053,25.33
5065,24.52
5077,22.99
5089,20.72
5101,17.73
5113,13.98
5125,9.45
5137,4.23
5149,-1.52
5161,-7.38
5173,-12.68
5185,-16.76
5197,-19.13
5209,-19.93
5220,-20.79
5231,-23.69
5243,-28.93
5255,-34.8
5267,-38.89
5279,-39.86
5291,-38.29
5303,-36.32
5315,-36.47
5327,-39.85
5339,-45.41
5351,-50.58
5363,-52.94
5375,-51.75
5387,-48.25
5399,-44.81
5410,-43.31
5421,-44.32
5433,-46.68
5445,-48.29
5457,-47.26
5469,-42.95
5481,-36.2
5493,-28.83
5505,-23.37
5517,-20.58
5529,-20.57
5541,-22.26
5553,-23.68
5565,-22.43
5577,-16.41
5589,-4.47
5600,13.01
5611,33.87
5623,54.43
5635,69.91
5647,77.16
5659,75.93
5671,68.99
5683,60.8
5695,55.55
5707,55.01
5719,57.65
5731,59.49
5743,55.89
5755,43.92
5767,23.64
5779,-1.79
5790,-28.45
5801,-52.01
5813,-69.19
5825,-78.36
5837,-79.38
5849,-73.22
5861,-61.37
5873,-45.53
5885,-27.55
5897,-9.28
5909,7.7
5921,22.09
5933,33.13
5945,40.88
5957,46.03
5969,49.73
5980,52.97
5991,56.05
6003,58.34
6015,58.71
6027,55.94
6039,49.59
6051,40.35
6063,29.72
6075,19.36
6087,10.18
6099,2.05
6111,-6.15
6123,-14.98
6135,-24.71
6147,-34.77
6159,-43.9
6170,-50.62
6181,-53.78
6193,-52.93
6205,-48.27
6217,-40.42
6229,-30.2
6241,-18.6
6253,-6.69
6265,4.38
6277,13.49
6289,19.64
6301,22.13
6313,20.61
6325,15.22
6337,6.61
6349,-4.16
6360,-15.85
6371,-27.27
6383,-37.63
6395,-46.6
6407,-54.23
6419,-60.74
6431,-66.44
6443,-71.53
6455,-76.2
6467,-80.58
6479,-84.78
6491,-88.89
6503,-92.96
6515,-96.89
6527,-100.52
6539,-103.63
6550,-105.82
6561,-106.46
6573,-104.73
6585,-99.82
6597,-91.0
6609,-77.69
6621,-59.26
6633,-35.49
6645,-6.9
6657,25.08
6669,58.23
6681,89.69
6693,116.46
6705,135.97
6717,146.73
6729,149.24
6740,145.06
6751,136.07
6763,124.06
6775,110.8
6787,97.95
6799,86.95
6811,78.92
6823,74.48
6835,74.5
6847,78.68
6859,85.27
6871,91.8
6883,96.24
6895,97.77
6907,96.65
6919,93.74
6930,90.05
6941,87.47
6953,86.9
6965,87.8
6977,88.83
6989,88.75
7001,86.82
7013,82.28
7025,73.99
7037,54.06
7049,20.31
7061,-21.66
7073,-62.12
7085,-93.89
7097,-114.73
7109,-125.63
7120,-128.88
7131,-127.1
7143,-122.55
7155,-115.66
7167,-106.89
7179,-97.57
7191,-89.57
7203,-84.64
7215,-83.45
7227,-85.21
7239,-87.94
7251,-88.86
7263,-84.37
7275,-72.46
7287,-54.58
7299,-33.31
7310,-12.77
7321,3.12
7333,12.01
7345,13.48
7357,9.06
7369,2.07
7381,-4.28
7393,-8.06
7405,-8.87
7417,-7.45
7429,-4.87
7441,-1.76
7453,1.42
7465,4.45
7477,7.5
7489,10.48
7500,13.06
7511,15.01
7523,16.51
7535,16.71
7547,16.06
7559,15.27
7571,14.89
7583,15.3
7595,16.45
7607,17.98
7619,19.57
7631,21.08
7643,22.63
7655,24.82
7667,27.97
7679,31.91
7690,35.9
7701,38.88
7713,39.94
7725,38.76
7737,35.83
7749,32.28
7761,29.57
7773,28.63
7785,29.34
7797,30.56
7809,30.46
7821,27.22
7833,19.76
7845,8.14
7857,-6.39
7869,-21.64
7880,-35.25
7891,-45.21
7903,-50.27
7915,-50.01
7927,-44.74
7939,-35.17
7951,-22.28
7963,-7.1
7975,9.32
7987,25.84
7999,41.26
8011,54.41
8023,64.25
8035,70.09
8047,71.78
8059,69.61
8070,64.18
8081,56.23
8093,46.38
8105,35.26
8117,23.55
8129,12.21
8141,2.46
8153,-4.5
8165,-7.92
8177,-7.77
8189,-4.92
8201,-0.81
8213,2.95
8225,5.17
8237,5.4
8249,3.99
8260,1.78
8271,-0.35
8283,-1.84
8295,-2.66
8307,-3.19
8319,-3.94
8331,-5.28
8343,-7.21
8355,-9.49
8367,-11.78
8379,-13.86
8391,-15.78
8403,-17.7
8415,-19.8
8427,-22.11
8439,-24.48
8450,-26.65
8461,-28.36
8473,-29.51
8485,-30.09
8497,-30.28
8509,-30.33
8521,-30.56
8533,-31.25
8545,-32.56
8557,-34.36
8569,-36.21
8581,-37.35
8593,-36.9
8605,-34.07
8617,-28.46
8629,-20.17
8640,-9.81
8651,1.68
8663,13.27
8675,24.04
8687,33.36
8699,40.9
8711,46.57
8723,50.41
8735,52.48
8747,52.85
8759,51.63
8771,49.11
8783,45.8
8795,42.39
8807,39.53
8819,37.68
8830,36.92
8841,36.98
8853,37.44
8865,37.9
8877,38.09
8889,37.96
8901,37.49
8913,36.62
8925,35.25
8937,33.19
8949,30.3
8961,26.52
8973,21.95
8985,16.74
8997,11.14
9009,5.43
9020,-0.09
9031,-5.14
9043,-9.56
9055,-13.29
9067,-16.38
9079,-18.87
9091,-20.82
9103,-22.3
9115,-23.41
9127,-24.37
9139,-25.46
9151,-26.92
9163,-28.79
9175,-30.87
9187,-32.72
9199,-33.84
9210,-33.99
9221,-33.24
9233,-32.03
9245,-30.91
9257,-30.35
9269,-30.52
9281,-31.25
9293,-32.13
9305,-32.64
9317,-32.31
9329,-30.78
9341,-27.85
9353,-23.51
9365,-17.93
9377,-11.55
9389,-5.05
9400,0.75
9411,5.08
9423,7.4
9435,7.55
9447,5.7
9459,2.26
9471,-2.28
9483,-7.42
9495,-12.7
9507,-17.66
9519,-21.89
9531,-25.04
9543,-26.98
9555,-27.82
9567,-27.94
9579,-27.84
9590,-27.93
9601,-28.43
9613,-29.21
9625,-29.91
9637,-30.05
9649,-29.21
9661,-27.16
9673,-23.91
9685,-19.81
9697,-15.36
9709,-11.19
9721,-7.85
9733,-5.66
9745,-4.72
9757,-4.87
9769,-5.87
9780,-7.43
9791,-9.34
9803,-11.47
9815,-13.7
9827,-15.89
9839,-17.84
9851,-19.39
9863,-20.43
9875,-20.97
9887,-21.12
9899,-21.01
9911,-20.74
9923,-20.34
9935,-19.8
9947,-19.11
9959,-18.35
9970,-17.67
9981,-17.28
9993,-17.37
10005,-18.05
10017,-19.39
10029,-21.4
10041,-24.03
10053,-27.05
10065,-30.0
10077,-32.11
10089,-32.48
10101,-30.39
10113,-25.5
10125,-18.11
10137,-9.01
10149,0.67
10160,9.84
10171,17.66
10183,23.7
10195,27.86
10207,30.26
10219,31.14
10231,30.75
10243,29.35
10255,27.2
10267,24.59
10279,21.8
10291,19.13
10303,16.84
10315,15.15
10327,14.15
10339,13.82
10350,14.06
10361,14.69
10373,15.57
10385,16.55
10397,17.49
10409,18.2
10421,18.52
10433,18.29
10445,17.47
10457,16.14
10469,14.47
10481,12.66
10493,10.82
10505,8.98
10517,7.13
10529,5.29
10540,3.51
10551,1.9
10563,0.52
10575,-0.63
10587,-1.68
10599,-2.78
10611,-4.11
10623,-5.76
10635,-7.72
10647,-9.94
10659,-12.29
10671,-14.66
10683,-16.93
10695,-19.08
10707,-21.18
10719,-23.41
10730,-25.98
10741,-29.03
10753,-32.45
10765,-35.82
10777,-38.48
10789,-39.62
10801,-38.58
10813,-35.0
10825,-28.94
10837,-20.88
10849,-11.56
10861,-1.86
10873,7.41
10885,15.55
10897,22.07
10909,26.69
10920,29.31
10931,30.04
10943,29.15
10955,27.04
10967,24.2
10979,21.17
10991,18.39
11003,16.22
11015,14.84
11027,14.27
11039,14.38
11051,15.02
11063,16.06
11075,17.35
11087,18.74
11099,19.99
11110,20.87
11121,21.18
11133,20.9
11145,20.16
11157,19.19
11169,18.16
11181,17.12
11193,15.9
11205,14.31
11217,12.24
11229,9.77
11241,7.16
11253,4.72
11265,2.65
11277,0.99
11289,-0.33
11300,-1.5
11311,-2.67
11323,-3.99
11335,-5.55
11347,-7.38
11359,-9.42
11371,-11.48
11383,-13.31
11395,-14.73
11407,-15.71
11419,-16.51
11431,-17.58
11443,-19.42
11455,-22.32
11467,-26.14
11479,-30.25
11490,-33.61
11501,-35.11
11513,-33.83
11525,-29.45
11537,-22.25
11549,-13.1
11561,-3.14
11573,6.49
11585,14.91
11597,21.61
11609,26.41
11621,29.38
11633,30.73
11645,30.73
11657,29.68
11669,27.93
11680,25.82
11691,23.63
11703,21.57
11715,19.79
11727,18.38
11739,17.45
11751,17.09
11763,17.35
11775,18.19
11787,19.44
11799,20.82
11811,21.96
11823,22.54
11835,22.35
11847,21.36
11859,19.71
11870,17.69
11881,15.65
11893,13.92
11905,12.64
11917,11.74
11929,10.97
11941,10.04
11953,8.76
11965,7.06
11977,5.01
11989,2.71
12001,0.22
12013,-2.43
12025,-5.16
12037,-7.81
12049,-10.17
12060,-12.01
12071,-13.26
12083,-14.05
12095,-14.65
12107,-15.28
12119,-16.09
12131,-17.01
12143,-17.92
12155,-18.74
12167,-19.45
12179,-20.15
12191,-20.95
12203,-21.93
12215,-23.1
12227,-24.49
12239,-26.22
12250,-28.5
12261,-31.56
12273,-35.41
12285,-39.75
12297,-43.84
12309,-46.68
12321,-47.26
12333,-44.91
12345,-39.49
12357,-31.46
12369,-21.75
12381,-11.45
12393,-1.58
12405,7.1
12417,14.15
12429,19.39
12440,22.82
12451,24.52
12463,24.64
12475,23.45
12487,21.36
12499,18.87
12511,16.58
12523,15.0
12535,14.42
12547,14.89
12559,16.2
12571,17.99
12583,19.88
12595,21.62
12607,23.1
12619,24.31
12630,25.31
12641,26.09
12653,26.58
12665,26.66
12677,26.22
12689,25.22
12701,23.75
12713,21.94
12725,19.97
12737,17.99
12749,16.08
12761,14.27
12773,12.55
12785,10.96
12797,9.53
12809,8.29
12820,7.23
12831,6.3
12843,5.37
12855,4.35
12867,3.19
12879,1.94
12891,0.69
12903,-0.5
12915,-1.65
12927,-2.85
12939,-4.25
12951,-5.93
12963,-7.82
12975,-9.78
12987,-11.57
12999,-13.06
13010,-14.25
13021,-15.26
13033,-16.31
13045,-17.64
13057,-19.41
13069,-21.69
13081,-24.42
13093,-27.35
13105,-30.02
13117,-31.79
13129,-32.01
13141,-30.11
13153,-25.93
13165,-19.75
13177,-12.26
13189,-4.43
13200,2.86
13211,9.03
13223,13.87
13235,17.51
13247,20.23
13259,22.25
13271,23.67
13283,24.45
13295,24.5
13307,23.81
13319,22.47
13331,20.66
13343,18.63
13355,16.64
13367,14.95
13379,13.76
13390,13.27
13401,13.55
13413,14.54
13425,16.02
13437,17.67
13449,19.12
13461,20.1
13473,20.44
13485,20.2
13497,19.57
13509,18.79
13521,18.08
13533,17.5
13545,16.93
13557,16.16
13569,14.94
13580,13.15
13591,10.83
13603,8.23
13615,5.69
13627,3.5
13639,1.74
13651,0.29
13663,-1.15
13675,-2.81
13687,-4.86
13699,-7.24
13711,-9.78
13723,-12.24
13735,-14.46
13747,-16.34
13759,-17.9
13770,-19.24
13781,-20.52
13793,-21.92
13805,-23.61
13817,-25.67
13829,-27.98
13841,-30.11
13853,-31.35
13865,-30.93
13877,-28.27
13889,-23.19
13901,-16.09
13913,-7.82
13925,0.56
13937,8.11
13949,14.19
13960,18.6
13971,21.42
13983,22.93
13995,23.42
14007,23.11
14019,22.23
14031,20.98
14043,19.56
14055,18.15
14067,16.87
14079,15.73
14091,14.66
14103,13.55
14115,12.3
14127,10.91
14139,9.46
14150,8.11
14161,7.04
14173,6.4
14185,6.23
14197,6.44
14209,6.89
14221,7.38
14233,7.82
14245,8.16
14257,8.48
14269,8.88
14281,9.39
14293,10.0
14305,10.57
14317,11.03
14329,11.24
14340,11.15
14351,10.73
14363,9.94
14375,8.78
14387,7.27
14399,5.48
14411,3.48
14423,1.31
14435,-1.11
14447,-3.89
14459,-7.09
14471,-10.66
14483,-14.38
14495,-17.94
14507,-21.06
14519,-23.63
14530,-25.75
14541,-27.66
14553,-29.67
14565,-31.98
14577,-34.67
14589,-37.57
14601,-40.27
14613,-42.13
14625,-42.5
14637,-40.78
14649,-36.73
14661,-30.54
14673,-22.75
14685,-14.15
14697,-5.53
14709,2.45
14720,9.37
14731,14.9
14743,18.85
14755,21.11
14767,21.7
14779,20.9
14791,19.15
14803,17.05
14815,15.13
14827,13.76
14839,13.08
14851,13.05
14863,13.49
14875,14.15
14887,14.82
14899,15.29
14910,15.45
14921,15.25
14933,14.68
14945,13.77
14957,12.54
14969,10.98
14981,9.04
14993,6.72
15005,4.1
15017,1.36
15029,-1.23
15041,-3.44
15053,-5.07
15065,-6.07
15077,-6.55
15089,-6.68
15100,-6.7
15111,-6.8
15123,-7.1
15135,-7.61
15147,-8.27
15159,-8.95
15171,-9.54
15183,-9.95
15195,-10.19
15207,-10.38
15219,-10.71
15231,-11.34
15243,-12.34
15255,-13.63
15267,-15.0
15279,-16.24
15290,-17.25
15301,-18.09
15313,-18.97
15325,-20.15
15337,-21.86
15349,-24.16
15361,-26.95
15373,-29.88
15385,-32.46
15397,-34.02
15409,-33.92
15421,-31.64
15433,-27.01
15445,-20.31
15457,-12.2
15469,-3.58
15480,4.64
15491,11.77
15503,17.4
15515,21.37
15527,23.74
15539,24.6
15551,24.16
15563,22.7
15575,20.6
15587,18.28
15599,16.18
15611,14.59
15623,13.62
15635,13.23
15647,13.27
15659,13.63
15670,14.27
15681,15.19
15693,16.39
15705,17.77
15717,19.08
15729,20.01
15741,20.29
15753,19.8
15765,18.58
15777,16.85
15789,14.8
15801,12.57
15813,10.23
15825,7.77
15837,5.29
15849,2.97
15860,1.07
15871,-0.19
15883,-0.72
15895,-0.67
15907,-0.29
15919,0.1
15931,0.32
15943,0.31
15955,0.16
15967,-0.06
15979,-0.34
15991,-0.81
16003,-1.64
16015,-2.92
16027,-4.67
16039,-6.79
16050,-9.11
16061,-11.43
16073,-13.67
16085,-15.79
16097,-17.81
16109,-19.78
16121,-21.8
16133,-24.04
16145,-26.65
16157,-29.72
16169,-33.07
16181,-36.23
16193,-38.43
16205,-38.84
16217,-36.84
16229,-32.24
16240,-25.36
16251,-16.97
16263,-8.05
16275,0.49
16287,8.0
16299,14.05
16311,18.47
16323,21.21
16335,22.3
16347,21.91
16359,20.31
16371,17.93
16383,15.27
16395,12.78
16407,10.77
16419,9.32
16430,8.35
16441,7.7
16453,7.3
16465,7.15
16477,7.33
16489,7.88
16501,8.73
16513,9.75
16525,10.73
16537,11.45
16549,11.72
16561,11.38
16573,10.31
16585,8.5
16597,6.06
16609,3.28
16620,0.55
16631,-1.81
16643,-3.71
16655,-5.28
16667,-6.84
16679,-8.7
16691,-10.95
16703,-13.42
16715,-15.72
16727,-17.47
16739,-18.39
16751,-18.49
16763,-18.02
16775,-17.39
16787,-16.92
16799,-16.76
16810,-16.81
16821,-16.73
16833,-16.09
16845,-14.49
16857,-11.78
16869,-8.07
16881,-3.89
16893,-0.06
16905,2.49
16917,3.06
16929,1.47
16941,-1.76
16953,-5.49
16965,-8.34
16977,-9.11
16989,-7.21
17000,-2.75
17011,3.59
17023,10.9
17035,18.29
17047,25.12
17059,31.01
17071,35.77
17083,39.25
17095,41.33
17107,41.9
17119,40.94
17131,38.64
17143,35.42
17155,31.86
17167,28.6
17179,26.15
17190,24.75
17201,24.38
17213,24.81
17225,25.76
17237,26.95
17249,28.15
17261,29.1
17273,29.55
17285,29.31
17297,28.32
17309,26.73
17321,24.79
17333,22.76
17345,20.75
17357,18.71
17369,16.5
17380,14.01
17391,11.26
17403,8.41
17415,5.66
17427,3.17
17439,0.94
17451,-1.15
17463,-3.29
17475,-5.6
17487,-8.14
17499,-10.85
17511,-13.62
17523,-16.43
17535,-19.31
17547,-22.39
17559,-25.79
17570,-29.51
17581,-33.41
17593,-37.3
17605,-40.97
17617,-44.15
17629,-46.47
17641,-47.36
17653,-46.02
17665,-41.71
17677,-34.05
17689,-23.29
17701,-10.44
17713,3.15
17725,16.15
17737,27.57
17749,36.85
17760,43.63
17771,47.56
17783,48.26
17795,45.48
17807,39.33
17819,30.48
17831,20.02
17843,9.09
17855,-1.37
17867,-10.85
17879,-19.19
17891,-26.41
17903,-32.51
17915,-37.4
17927,-40.96
17939,-43.14
17950,-44.08
17961,-44.09
17973,-43.58
17985,-42.99
17997,-42.63
18009,-42.67
18021,-43.1
18033,-43.77
18045,-44.46
18057,-44.94
18069,-45.07
18081,-44.83
18093,-44.36
18105,-43.86
18117,-43.54
18129,-43.46
18140,-43.55
18151,-43.6
18163,-43.4
18175,-42.82
18187,-41.98
18199,-41.16
18211,-40.7
18223,-40.95
18235,-42.12
18247,-44.28
18259,-47.44
18271,-51.48
18283,-56.17
18295,-61.08
18307,-65.66
18319,-69.31
18330,-71.59
18341,-72.3
18353,-71.48
18365,-69.24
18377,-65.56
18389,-60.18
18401,-52.7
18413,-42.77
18425,-30.38
18437,-15.97
18449,-0.4
18461,15.17
18473,29.59
18485,41.91
18497,51.53
18509,58.21
18520,62.03
18531,63.29
18543,62.43
18555,60.01
18567,56.72
18579,53.37
18591,50.75
18603,49.5
18615,49.87
18627,51.63
18639,54.15
18651,56.6
18663,58.2
18675,58.49
18687,57.41
18699,55.22
18710,52.31
18721,49.07
18733,45.71
18745,42.22
18757,38.5
18769,34.37
18781,29.78
18793,24.79
18805,19.59
18817,14.39
18829,9.34
18841,4.49
18853,-0.2
18865,-4.71
18877,-9.02
18889,-12.98
18900,-16.5
18911,-19.53
18923,-22.14
18935,-24.45
18947,-26.53
18959,-28.41
18971,-30.06
18983,-31.45
18995,-32.76
19007,-34.34
19019,-36.68
19031,-40.15
19043,-44.74
19055,-49.86
19067,-54.43
19079,-57.1
19090,-56.7
19101,-52.61
19113,-44.96
19125,-34.54
19137,-22.58
19149,-10.37
19161,0.96
19173,10.7
19185,18.49
19197,24.27
19209,28.09
19221,30.05
19233,30.26
19245,28.91
19257,26.32
19269,23.02
19280,19.62
19291,16.73
19303,14.81
19315,14.07
19327,14.56
19339,16.19
19351,18.83
19363,22.34
19375,26.45
19387,30.74
19399,34.68
19411,37.71
19423,39.42
19435,39.63
19447,38.47
19459,36.29
19470,33.53
19481,30.59
19493,27.74
19505,25.07
19517,22.52
19529,19.93
19541,17.08
19553,13.78
19565,9.93
19577,5.62
19589,1.09
19601,-3.33
19613,-7.38
19625,-10.98
19637,-14.3
19649,-17.7
19660,-21.51
19671,-25.84
19683,-30.3
19695,-34.13
19707,-36.27
19719,-35.75
19731,-32.02
19743,-25.12
19755,-15.68
19767,-4.77
19779,6.37
19791,16.6
19803,25.02
19815,31.01
19827,34.25
19839,34.73
19850,32.67
19861,28.58
19873,23.15
19885,17.16
19897,11.32
19909,6.19
19921,2.1
19933,-0.8
19945,-2.55
19957,-3.32
19969,-3.37
19981,-3.05
19993,-2.71
20005,-2.69
20017,-3.25
20029,-4.52
20040,-6.49
20051,-9.04
20063,-11.96
20075,-15.03
20087,-18.13
20099,-21.24
20111,-24.42
20123,-27.71
20135,-31.09
20147,-34.35
20159,-37.22
20171,-39.4
20183,-40.71
20195,-41.2
20207,-41.08
20219,-40.65
20230,-40.24
20241,-40.22
20253,-40.85
20265,-42.29
20277,-44.35
20289,-46.47
20301,-47.68
20313,-46.93
20325,-43.32
20337,-36.5
20349,-26.8
20361,-15.11
20373,-2.58
20385,9.63
20397,20.64
20409,29.84
20420,36.91
20431,41.74
20443,44.45
20455,45.31
20467,44.75
20479,43.31
20491,41.48
20503,39.62
20515,38.0
20527,36.68
20539,35.67
20551,34.92
20563,34.39
20575,34.0
20587,33.67
20599,33.23
20610,32.47
20621,31.19
20633,29.16
20645,26.26
20657,22.54
20669,18.24
20681,13.8
20693,9.74
20705,6.53
20717,4.44
20729,3.48
20741,3.41
20753,3.81
20765,4.22
20777,4.18
20789,3.29
20800,1.29
20811,-1.88
20823,-6.01
20835,-10.67
20847,-15.32
20859,-19.53
20871,-23.1
20883,-26.14
20895,-28.91
20907,-31.58
20919,-34.05
20931,-35.91
20943,-36.48
20955,-35.08
20967,-31.19
20979,-24.55
20990,-15.18
