seconds,BVP
8,24.92
20,25.18
32,25.45
44,25.42
56,24.93
68,23.98
80,22.71
92,21.26
104,19.76
116,18.24
128,16.62
139,14.74
150,12.41
162,9.54
174,6.19
186,2.6
198,-0.89
210,-4.01
222,-6.61
234,-8.84
246,-11.01
258,-13.52
270,-16.66
282,-20.55
294,-25.06
306,-29.8
318,-34.18
329,-37.51
340,-39.11
352,-38.47
364,-35.41
376,-30.16
388,-23.33
400,-15.74
412,-8.23
424,-1.48
436,4.07
448,8.21
460,10.93
472,12.28
484,12.48
496,11.77
508,10.57
519,9.25
530,8.19
542,7.64
554,7.64
566,8.07
578,8.7
590,9.27
602,9.61
614,9.69
626,9.56
638,9.31
650,8.98
662,8.55
674,7.9
686,6.92
698,5.53
709,3.72
720,1.55
732,-0.84
744,-3.3
756,-5.66
768,-7.8
780,-9.76
792,-11.65
804,-13.7
816,-16.15
828,-19.11
840,-22.47
852,-25.81
864,-28.48
876,-29.74
888,-29.06
899,-26.23
910,-21.55
922,-15.68
934,-9.38
946,-3.35
958,1.98
970,6.43
982,9.94
994,12.45
1006,13.86
1018,14.04
1030,13.12
1042,11.44
1054,9.59
1066,8.17
1078,7.53
1089,7.7
1100,8.38
1112,9.11
1124,9.52
1136,9.39
1148,8.75
1160,7.75
1172,6.6
1184,5.43
1196,4.28
1208,3.05
1220,1.61
1232,-0.19
1244,-2.43
1256,-5.11
1268,-8.05
1279,-11.03
1290,-13.83
1302,-16.29
1314,-18.4
1326,-20.34
1338,-22.39
1350,-24.79
1362,-27.72
1374,-31.05
1386,-34.41
1398,-37.15
1410,-38.53
1422,-37.89
1434,-34.96
1446,-29.88
1458,-23.24
1469,-15.85
1480,-8.53
1492,-1.83
1504,3.94
1516,8.68
1528,12.32
1540,14.77
1552,15.96
1564,15.91
1576,14.89
1588,13.34
1600,11.82
1612,10.75
1624,10.32
1636,10.39
1648,10.69
1659,10.88
1670,10.82
1682,10.51
1694,10.08
1706,9.64
1718,9.25
1730,8.82
1742,8.23
1754,7.32
1766,6.0
1778,4.24
1790,2.08
1802,-0.37
1814,-2.99
1826,-5.65
1838,-8.24
1849,-10.77
1860,-13.36
1872,-16.31
1884,-19.88
1896,-24.23
1908,-29.15
1920,-34.06
1932,-38.03
1944,-40.12
1956,-39.67
1968,-36.52
1980,-31.1
1992,-24.23
2004,-16.8
2016,-9.52
2028,-2.81
2039,3.21
2050,8.48
2062,12.91
2074,16.29
2086,18.42
2098,19.24
2110,18.96
2122,18.0
2134,16.91
2146,16.17
2158,16.01
2170,16.41
2182,17.15
2194,17.94
2206,18.58
2218,18.99
2229,19.22
2240,19.33
2252,19.34
2264,19.16
2276,18.58
2288,17.37
2300,15.42
2312,12.74
2324,9.58
2336,6.29
2348,3.23
2360,0.61
2372,-1.6
2384,-3.65
2396,-5.86
2408,-8.57
2419,-11.9
2430,-15.87
2442,-20.32
2454,-25.01
2466,-29.56
2478,-33.4
2490,-35.83
2502,-36.19
2514,-34.01
2526,-29.33
2538,-22.64
2550,-14.81
2562,-6.76
2574,0.77
2586,7.33
2598,12.73
2609,16.85
2620,19.61
2632,20.93
2644,20.9
2656,19.84
2668,18.3
2680,16.9
2692,16.13
2704,16.14
2716,16.8
2728,17.74
2740,18.56
2752,19.02
2764,19.0
2776,18.57
2788,17.86
2799,16.95
2810,15.89
2822,14.65
2834,13.17
2846,11.38
2858,9.27
2870,6.82
2882,4.13
2894,1.28
2906,-1.59
2918,-4.41
2930,-7.13
2942,-9.84
2954,-12.65
2966,-15.73
2978,-19.19
2989,-22.99
3000,-26.87
3012,-30.29
3024,-32.57
3036,-33.02
3048,-31.21
3060,-27.07
3072,-21.01
3084,-13.75
3096,-6.12
3108,1.1
3120,7.38
3132,12.37
3144,15.88
3156,17.88
3168,18.47
3179,17.92
3190,16.69
3202,15.29
3214,14.16
3226,13.51
3238,13.29
3250,13.3
3262,13.29
3274,13.13
3286,12.85
3298,12.55
3310,12.3
3322,12.08
3334,11.77
3346,11.16
3358,10.09
3369,8.52
3380,6.48
3392,4.1
3404,1.54
3416,-1.07
3428,-3.67
3440,-6.27
3452,-8.97
3464,-11.92
3476,-15.28
3488,-19.07
3500,-23.09
3512,-26.84
3524,-29.62
3536,-30.69
3548,-29.59
3559,-26.26
3570,-21.11
3582,-14.89
3594,-8.38
3606,-2.2
3618,3.24
3630,7.77
3642,11.27
3654,13.62
3666,14.7
3678,14.52
3690,13.28
3702,11.36
3714,9.23
3726,7.29
3738,5.74
3749,4.64
3760,3.9
3772,3.45
3784,3.18
3796,3.04
3808,2.92
3820,2.65
3832,2.06
3844,1.03
3856,-0.44
3868,-2.27
3880,-4.32
3892,-6.48
3904,-8.71
3916,-11.08
3928,-13.61
3939,-16.37
3950,-19.43
3962,-22.88
3974,-26.8
3986,-31.11
3998,-35.44
4010,-39.06
4022,-41.03
4034,-40.5
4046,-37.11
4058,-31.13
4070,-23.41
4082,-15.08
4094,-7.09
4106,-0.03
4118,5.93
4129,10.81
4140,14.64
4152,17.34
4164,18.81
4176,19.08
4188,18.42
4200,17.3
4212,16.2
4224,15.49
4236,15.26
4248,15.42
4260,15.74
4272,16.02
4284,16.11
4296,15.94
4308,15.49
4319,14.73
4330,13.61
4342,12.09
4354,10.14
4366,7.78
4378,5.09
4390,2.21
4402,-0.72
4414,-3.69
4426,-6.79
4438,-10.25
4450,-14.34
4462,-19.13
4474,-24.37
4486,-29.41
4498,-33.36
4509,-35.31
4520,-34.62
4532,-31.11
4544,-25.12
4556,-17.4
4568,-8.86
4580,-0.41
4592,7.25
4604,13.66
4616,18.63
4628,22.14
4640,24.25
4652,25.12
4664,24.96
4676,24.03
4688,22.64
4699,21.11
4710,19.72
4722,18.65
4734,17.99
4746,17.75
4758,17.84
4770,18.15
4782,18.5
4794,18.68
4806,18.49
4818,17.71
4830,16.26
4842,14.2
4854,11.67
4866,8.9
4878,6.06
4889,3.24
4900,0.42
4912,-2.46
4924,-5.58
4936,-9.13
4948,-13.25
4960,-17.95
4972,-22.88
4984,-27.34
4996,-30.32
5008,-30.84
5020,-28.31
5032,-22.81
5044,-15.1
5056,-6.35
5068,2.28
5079,9.93
5090,16.2
5102,20.97
5114,24.28
5126,26.17
5138,26.66
5150,25.94
5162,24.38
5174,22.49
5186,20.77
5198,19.52
5210,18.78
5222,18.34
5234,17.99
5246,17.59
5258,17.19
5269,16.88
5280,16.71
5292,16.58
5304,16.24
5316,15.43
5328,14.01
5340,12.01
5352,9.6
5364,6.95
5376,4.23
5388,1.48
5400,-1.35
5412,-4.33
5424,-7.63
5436,-11.37
5448,-15.58
5459,-20.01
5470,-24.13
5482,-27.18
5494,-28.36
5506,-27.17
5518,-23.55
5530,-17.94
5542,-11.14
5554,-4.02
5566,2.6
5578,8.13
5590,12.22
5602,14.74
5614,15.78
5626,15.63
5638,14.66
5649,13.28
5660,11.82
5672,10.48
5684,9.36
5696,8.48
5708,7.88
5720,7.56
5732,7.5
5744,7.58
5756,7.62
5768,7.44
5780,6.91
5792,5.99
5804,4.75
5816,3.27
5828,1.6
5839,-0.25
5850,-2.35
5862,-4.77
5874,-7.54
5886,-10.65
5898,-14.07
5910,-17.75
5922,-21.59
5934,-25.33
5946,-28.53
5958,-30.59
5970,-30.91
5982,-29.1
5994,-25.19
6006,-19.6
6018,-13.04
6029,-6.29
6040,0.02
6052,5.44
6064,9.73
6076,12.75
6088,14.45
6100,14.87
6112,14.18
6124,12.72
6136,10.9
6148,9.16
6160,7.81
6172,7.05
6184,6.85
6196,7.11
6208,7.57
6219,7.93
6230,7.93
6242,7.35
6254,6.13
6266,4.38
6278,2.29
6290,0.11
6302,-2.01
6314,-4.1
6326,-6.25
6338,-8.69
6350,-11.55
6362,-14.93
6374,-18.82
6386,-23.14
6398,-27.69
6409,-32.11
6420,-35.82
6432,-38.12
6444,-38.34
6456,-36.09
6468,-31.37
6480,-24.66
6492,-16.71
6504,-8.28
6516,-0.07
6528,7.4
6540,13.7
6552,18.45
6564,21.4
6576,22.52
6588,22.01
6599,20.4
6610,18.31
6622,16.31
6634,14.8
6646,13.9
6658,13.57
6670,13.65
6682,13.94
6694,14.3
6706,14.62
6718,14.78
6730,14.67
6742,14.12
6754,12.99
6766,11.23
6778,8.87
6789,6.09
6800,3.06
6812,-0.03
6824,-3.09
6836,-6.1
6848,-9.14
6860,-12.31
6872,-15.71
6884,-19.44
6896,-23.38
6908,-27.21
6920,-30.28
6932,-31.75
6944,-30.88
6956,-27.3
6968,-21.23
6979,-13.44
6990,-4.94
7002,3.32
7014,10.68
7026,16.82
7038,21.58
7050,24.91
7062,26.73
7074,27.07
7086,26.17
7098,24.5
7110,22.66
7122,21.16
7134,20.29
7146,20.04
7158,20.18
7169,20.43
7180,20.57
7192,20.49
7204,20.15
7216,19.6
7228,18.84
7240,17.89
7252,16.71
7264,15.23
7276,13.35
7288,11.06
7300,8.42
7312,5.62
7324,2.87
7336,0.31
7348,-2.08
7359,-4.44
7370,-7.04
7382,-10.11
7394,-13.76
7406,-17.91
7418,-22.25
7430,-26.23
7442,-29.17
7454,-30.34
7466,-29.23
7478,-25.68
7490,-20.01
7502,-12.89
7514,-5.19
7526,2.24
7538,8.76
7549,13.93
7560,17.53
7572,19.49
7584,19.88
7596,18.96
7608,17.17
7620,15.06
7632,13.21
7644,12.05
7656,11.8
7668,12.42
7680,13.65
7692,15.11
7704,16.4
7716,17.25
7728,17.52
7739,17.28
7750,16.68
7762,15.87
7774,14.92
7786,13.75
7798,12.22
7810,10.23
7822,7.77
7834,5.0
7846,2.1
7858,-0.74
7870,-3.47
7882,-6.16
7894,-8.97
7906,-12.05
7918,-15.51
7929,-19.28
7940,-23.08
7952,-26.4
7964,-28.68
7976,-29.35
7988,-28.1
8000,-24.86
8012,-19.91
8024,-13.73
8036,-6.96
8048,-0.25
8060,5.76
8072,10.55
8084,13.77
8096,15.34
8108,15.48
8119,14.65
8130,13.39
8142,12.14
8154,11.15
8166,10.46
8178,10.02
8190,9.77
8202,9.68
8214,9.75
8226,9.94
8238,10.17
8250,10.28
8262,10.09
8274,9.49
8286,8.44
8298,6.99
8309,5.27
8320,3.42
8332,1.55
8344,-0.25
8356,-2.02
8368,-3.86
8380,-5.87
8392,-8.15
8404,-10.72
8416,-13.6
8428,-16.79
8440,-20.22
8452,-23.71
8464,-26.89
8476,-29.2
8488,-29.99
8499,-28.75
8510,-25.33
8522,-20.02
8534,-13.5
8546,-6.67
8558,-0.32
8570,5.03
8582,9.2
8594,12.27
8606,14.33
8618,15.47
8630,15.7
8642,15.09
8654,13.81
8666,12.21
8678,10.67
8689,9.52
8700,8.88
8712,8.65
8724,8.63
8736,8.6
8748,8.44
8760,8.15
8772,7.73
8784,7.15
8796,6.33
8808,5.09
8820,3.34
8832,1.08
8844,-1.56
8856,-4.34
8868,-7.06
8879,-9.57
8890,-11.94
8902,-14.36
8914,-17.12
8926,-20.45
8938,-24.4
8950,-28.7
8962,-32.76
8974,-35.8
8986,-37.02
8998,-35.92
9010,-32.43
9022,-26.95
9034,-20.18
9046,-12.9
9058,-5.77
9069,0.77
9080,6.44
9092,11.04
9104,14.43
9116,16.53
9128,17.37
9140,17.19
9152,16.33
9164,15.22
9176,14.2
9188,13.45
9200,13.0
9212,12.79
9224,12.72
9236,12.71
9248,12.72
9259,12.72
9270,12.65
9282,12.35
9294,11.69
9306,10.52
9318,8.79
9330,6.58
9342,4.02
9354,1.32
9366,-1.36
9378,-3.96
9390,-6.52
9402,-9.15
9414,-11.99
9426,-15.21
9438,-18.9
9449,-23.04
9460,-27.35
9472,-31.27
9484,-34.03
9496,-34.81
9508,-33.1
9520,-28.89
9532,-22.67
9544,-15.28
9556,-7.63
9568,-0.42
9580,5.91
9592,11.17
9604,15.25
9616,18.04
9628,19.47
9639,19.54
9650,18.51
9662,16.83
9674,15.05
9686,13.61
9698,12.75
9710,12.4
9722,12.38
9734,12.44
9746,12.48
9758,12.44
9770,12.35
9782,12.19
9794,11.83
9806,11.08
9818,9.8
9829,7.94
9840,5.61
9852,3.05
9864,0.48
9876,-1.96
9888,-4.29
9900,-6.64
9912,-9.13
9924,-11.9
9936,-15.04
9948,-18.61
9960,-22.55
9972,-26.65
9984,-30.43
9996,-33.23
10008,-34.3
10019,-33.08
10030,-29.41
10042,-23.65
10054,-16.58
10066,-9.13
10078,-2.14
10090,3.84
10102,8.59
10114,12.1
10126,14.44
10138,15.68
10150,15.94
10162,15.39
10174,14.27
10186,12.89
10198,11.55
10209,10.44
10220,9.65
10232,9.14
10244,8.85
10256,8.69
10268,8.61
10280,8.58
10292,8.56
10304,8.47
10316,8.23
10328,7.73
10340,6.87
10352,5.61
10364,3.94
10376,1.89
10388,-0.47
10399,-3.1
10410,-6.0
10422,-9.2
10434,-12.76
10446,-16.57
10458,-20.35
10470,-23.59
10482,-25.61
10494,-25.82
10506,-23.92
10518,-19.98
10530,-14.5
10542,-8.19
10554,-1.74
10566,4.3
10578,9.57
10589,13.85
10600,17.02
10612,18.96
10624,19.67
10636,19.28
10648,18.04
10660,16.32
10672,14.48
10684,12.78
10696,11.37
10708,10.31
10720,9.56
10732,9.09
10744,8.83
10756,8.69
10768,8.53
10779,8.19
10790,7.51
10802,6.39
10814,4.79
10826,2.83
10838,0.66
10850,-1.53
10862,-3.63
10874,-5.65
10886,-7.69
10898,-9.95
10910,-12.63
10922,-15.86
10934,-19.67
10946,-23.87
10958,-28.02
10969,-31.4
10980,-33.16
10992,-32.57
11004,-29.31
11016,-23.64
11028,-16.34
11040,-8.45
11052,-0.94
11064,5.54
11076,10.71
11088,14.58
11100,17.25
11112,18.8
11124,19.32
11136,18.93
11148,17.91
11159,16.58
11170,15.33
11182,14.4
11194,13.9
11206,13.79
11218,13.98
11230,14.34
11242,14.78
11254,15.18
11266,15.42
11278,15.35
11290,14.88
11302,13.91
11314,12.45
11326,10.56
11338,8.31
11349,5.8
11360,3.12
11372,0.26
11384,-2.78
11396,-6.08
11408,-9.71
11420,-13.72
11432,-18.0
11444,-22.2
11456,-25.73
11468,-27.85
11480,-27.89
11492,-25.53
11504,-20.91
11516,-14.66
11528,-7.63
11539,-0.67
11550,5.58
11562,10.81
11574,14.86
11586,17.65
11598,19.14
11610,19.33
11622,18.43
11634,16.83
11646,15.04
11658,13.49
11670,12.37
11682,11.66
11694,11.18
11706,10.76
11718,10.29
11729,9.73
11740,9.0
11752,8.04
11764,6.75
11776,5.1
11788,3.2
11800,1.22
11812,-0.64
11824,-2.28
11836,-3.78
11848,-5.35
11860,-7.25
11872,-9.7
11884,-12.8
11896,-16.57
11908,-20.86
11919,-25.44
11930,-29.93
11942,-33.8
11954,-36.42
11966,-37.21
11978,-35.84
11990,-32.37
12002,-27.3
12014,-21.41
12026,-15.58
12038,-10.49
12050,-6.53
12062,-3.76
12074,-2.05
12086,-1.23
12098,-1.18
12109,-1.8
12120,-2.96
12132,-4.43
12144,-5.9
12156,-7.05
12168,-7.63
12180,-7.61
12192,-7.11
12204,-6.42
12216,-5.83
12228,-5.55
12240,-5.65
12252,-6.03
12264,-6.53
12276,-7.03
12288,-7.5
12299,-7.99
12310,-8.62
12322,-9.44
12334,-10.44
12346,-11.57
12358,-12.84
12370,-14.32
12382,-16.15
12394,-18.4
12406,-20.98
12418,-23.55
12430,-25.58
12442,-26.5
12454,-25.9
12466,-23.71
12478,-20.2
12489,-15.96
12500,-11.66
12512,-7.88
12524,-5.0
12536,-3.21
12548,-2.57
12560,-3.01
12572,-4.38
12584,-6.35
12596,-8.52
12608,-10.47
12620,-11.84
12632,-12.5
12644,-12.49
12656,-11.97
12668,-11.09
12679,-9.97
12690,-8.69
12702,-7.32
12714,-5.98
12726,-4.78
12738,-3.72
12750,-2.72
12762,-1.6
12774,-0.22
12786,1.45
12798,3.28
12810,5.02
12822,6.37
12834,7.13
12846,7.27
12858,6.99
12869,6.73
12880,7.11
12892,8.69
12904,11.83
12916,16.51
12928,22.3
12940,28.49
12952,34.3
12964,39.08
12976,42.42
12988,44.14
13000,44.25
13012,42.82
13024,40.01
13036,36.0
13048,31.06
13059,25.55
13070,19.87
13082,14.44
13094,9.51
13106,5.25
13118,1.65
13130,-1.35
13142,-3.82
13154,-5.87
13166,-7.67
13178,-9.52
13190,-11.85
13202,-15.05
13214,-19.36
13226,-24.63
13238,-30.29
13249,-35.42
13260,-39.07
13272,-40.59
13284,-39.91
13296,-37.53
13308,-34.3
13320,-30.97
13332,-27.78
13344,-24.35
13356,-19.82
13368,-13.35
13380,-4.6
13392,6.11
13404,17.87
13416,29.63
13428,40.65
13439,50.79
13450,60.31
13462,69.58
13474,78.74
13486,87.54
13498,95.49
13510,102.19
13522,107.62
13534,112.15
13546,116.52
13558,121.65
13570,128.55
13582,138.09
13594,150.77
13606,166.19
13618,182.67
13629,197.22
13640,206.1
13652,205.96
13664,195.02
13676,173.85
13688,145.37
13700,113.96
13712,84.16
13724,59.53
13736,42.02
13748,31.92
13760,28.3
13772,29.54
13784,33.79
13796,39.16
13808,43.9
13819,46.42
13830,45.46
13842,40.32
13854,30.96
13866,18.21
13878,3.6
13890,-10.84
13902,-23.04
13914,-31.49
13926,-35.63
13938,-36.16
13950,-34.91
13962,-34.36
13974,-36.91
13986,-44.04
13998,-55.82
14009,-70.88
14020,-86.96
14032,-101.71
14044,-113.46
14056,-121.69
14068,-126.94
14080,-130.52
14092,-133.92
14104,-138.36
14116,-144.49
14128,-152.3
14140,-161.16
14152,-169.83
14164,-176.68
14176,-179.76
14188,-177.04
14199,-166.78
14210,-148.04
14222,-121.18
14234,-88.12
14246,-52.11
14258,-17.05
14270,13.57
14282,37.44
14294,53.89
14306,63.66
14318,68.25
14330,69.24
14342,68.07
14354,65.96
14366,64.1
14378,63.74
14389,65.82
14400,70.6
14412,77.32
14424,84.18
14436,88.91
14448,89.48
14460,84.74
14472,74.6
14484,59.89
14496,41.92
14508,22.15
14520,1.99
14532,-17.29
14544,-34.65
14556,-49.36
14568,-61.19
14579,-70.36
14590,-77.32
14602,-82.37
14614,-85.38
14626,-85.75
14638,-82.66
14650,-75.48
14662,-64.21
14674,-49.55
14686,-32.88
14698,-15.98
14710,-0.76
14722,11.01
14734,18.0
14746,19.55
14758,15.83
14769,7.8
14780,-3.03
14792,-14.89
14804,-26.26
14816,-36.13
14828,-44.15
14840,-50.51
14852,-55.71
14864,-60.2
14876,-64.22
14888,-67.67
14900,-70.26
14912,-71.77
14924,-72.13
14936,-71.47
14948,-70.05
14959,-68.01
14970,-65.38
14982,-62.01
14994,-57.81
15006,-52.77
15018,-47.13
15030,-41.18
15042,-35.23
15054,-29.5
15066,-24.15
15078,-19.31
15090,-15.13
15102,-11.77
15114,-9.3
15126,-7.68
15138,-6.72
15149,-6.18
15160,-5.82
15172,-5.43
15184,-4.93
15196,-4.34
15208,-3.82
15220,-3.6
15232,-3.99
15244,-5.27
15256,-7.54
15268,-10.62
15280,-14.05
15292,-17.22
15304,-19.54
15316,-20.64
15328,-20.41
15339,-18.95
15350,-16.5
15362,-13.26
15374,-9.44
15386,-5.28
15398,-1.09
15410,2.81
15422,6.15
15434,8.88
15446,11.15
15458,13.22
15470,15.33
15482,17.57
15494,19.89
15506,22.12
15518,24.1
15529,25.83
15540,27.44
15552,29.11
15564,30.98
15576,33.0
15588,34.92
15600,36.35
15612,36.92
15624,36.42
15636,34.85
15648,32.41
15660,29.34
15672,25.9
15684,22.18
15696,18.2
15708,13.87
15719,9.18
15730,4.2
15742,-0.88
15754,-5.76
15766,-10.09
15778,-13.52
15790,-15.79
15802,-16.7
15814,-16.21
15826,-14.34
15838,-11.19
15850,-6.93
15862,-1.84
15874,3.68
15886,9.09
15898,13.86
15909,17.51
15920,19.79
15932,20.74
15944,20.59
15956,19.71
15968,18.45
15980,17.1
15992,15.84
16004,14.8
16016,14.05
16028,13.6
16040,13.39
16052,13.28
16064,13.09
16076,12.68
16088,11.97
16099,11.02
16110,9.91
16122,8.72
16134,7.44
16146,5.99
16158,4.25
16170,2.18
16182,-0.2
16194,-2.82
16206,-5.54
16218,-8.21
16230,-10.64
16242,-12.57
16254,-13.73
16266,-13.94
16278,-13.14
16289,-11.46
16300,-9.17
16312,-6.54
16324,-3.73
16336,-0.86
16348,2.09
16360,5.04
16372,7.85
16384,10.28
16396,12.07
16408,13.03
16420,13.12
16432,12.47
16444,11.31
16456,9.9
16468,8.47
16479,7.16
16490,5.99
16502,4.96
16514,4.02
16526,3.13
16538,2.29
16550,1.5
16562,0.73
16574,-0.07
16586,-0.91
16598,-1.8
16610,-2.7
16622,-3.59
16634,-4.53
16646,-5.58
16658,-6.86
16669,-8.4
16680,-10.21
16692,-12.19
16704,-14.2
16716,-16.05
16728,-17.54
16740,-18.41
16752,-18.42
16764,-17.33
16776,-15.12
16788,-11.93
16800,-8.17
16812,-4.39
16824,-1.1
16836,1.34
16848,2.87
16859,3.63
16870,3.95
16882,4.13
16894,4.36
16906,4.68
16918,5.03
16930,5.34
16942,5.52
16954,5.54
16966,5.42
16978,5.19
16990,4.89
17002,4.61
17014,4.42
17026,4.35
17038,4.43
17049,4.62
17060,4.87
17072,5.1
17084,5.28
17096,5.38
17108,5.43
17120,5.5
17132,5.61
17144,5.78
17156,5.97
17168,6.19
17180,6.47
17192,6.92
17204,7.7
17216,8.98
17228,10.85
17239,13.29
17250,16.13
17262,19.06
17274,21.72
17286,23.78
17298,25.0
17310,25.28
17322,24.69
17334,23.37
17346,21.57
17358,19.47
17370,17.24
17382,14.96
17394,12.66
17406,10.36
17418,8.04
17429,5.67
17440,3.26
17452,0.83
17464,-1.57
17476,-3.87
17488,-5.98
17500,-7.86
17512,-9.56
17524,-11.17
17536,-12.85
17548,-14.75
17560,-16.93
17572,-19.4
17584,-21.98
17596,-24.42
17608,-26.35
17619,-27.41
17630,-27.32
17642,-25.99
17654,-23.49
17666,-20.04
17678,-15.93
17690,-11.46
17702,-6.94
17714,-2.7
17726,0.94
17738,3.73
17750,5.52
17762,6.32
17774,6.27
17786,5.6
17798,4.49
17809,3.1
17820,1.52
17832,-0.17
17844,-1.85
17856,-3.42
17868,-4.78
17880,-5.92
17892,-6.89
17904,-7.72
17916,-8.49
17928,-9.22
17940,-9.96
17952,-10.78
17964,-11.79
17976,-13.14
17988,-14.98
17999,-17.42
18010,-20.46
18022,-23.95
18034,-27.52
18046,-30.61
18058,-32.54
18070,-32.67
18082,-30.58
18094,-26.26
18106,-20.04
18118,-12.54
18130,-4.49
18142,3.39
18154,10.52
18166,16.5
18178,21.1
18189,24.26
18200,26.1
18212,26.84
18224,26.78
18236,26.25
18248,25.49
18260,24.71
18272,23.99
18284,23.32
18296,22.58
18308,21.62
18320,20.27
18332,18.43
18344,16.16
18356,13.63
18368,11.11
18379,8.76
18390,6.63
18402,4.56
18414,2.3
18426,-0.35
18438,-3.45
18450,-6.83
18462,-10.13
18474,-12.89
18486,-14.65
18498,-14.99
18510,-13.61
18522,-10.44
18534,-5.62
18546,0.42
18558,7.08
18569,13.69
18580,19.7
18592,24.68
18604,28.4
18616,30.73
18628,31.61
18640,31.11
18652,29.46
18664,27.04
18676,24.36
18688,21.86
18700,19.83
18712,18.31
18724,17.17
18736,16.16
18748,15.12
18759,13.94
18770,12.62
18782,11.19
18794,9.7
18806,8.16
18818,6.62
18830,5.08
18842,3.5
18854,1.79
18866,-0.24
18878,-2.8
18890,-5.96
18902,-9.59
18914,-13.27
18926,-16.33
18938,-18.11
18949,-18.09
18960,-16.08
18972,-12.31
18984,-7.24
18996,-1.46
19008,4.45
19020,10.02
19032,14.87
19044,18.73
19056,21.41
19068,22.78
19080,22.86
19092,21.78
19104,19.88
19116,17.53
19128,15.14
19139,13.05
19150,11.43
19162,10.31
19174,9.6
19186,9.1
19198,8.65
19210,8.07
19222,7.32
19234,6.45
19246,5.56
19258,4.74
19270,3.98
19282,3.2
19294,2.22
19306,0.91
19318,-0.81
19329,-2.95
19340,-5.45
19352,-8.23
19364,-11.19
19376,-14.15
19388,-16.86
19400,-18.89
19412,-19.82
19424,-19.29
19436,-17.18
19448,-13.68
19460,-9.18
19472,-4.22
19484,0.68
19496,5.09
19508,8.71
19519,11.33
19530,12.85
19542,13.3
19554,12.83
19566,11.7
19578,10.26
19590,8.81
19602,7.55
19614,6.58
19626,5.9
19638,5.44
19650,5.15
19662,5.01
19674,4.94
19686,4.8
19698,4.47
19709,3.8
19720,2.76
19732,1.44
19744,0.01
19756,-1.31
19768,-2.41
19780,-3.28
19792,-4.0
19804,-4.72
19816,-5.56
19828,-6.63
19840,-8.0
19852,-9.65
19864,-11.47
19876,-13.22
19888,-14.56
19899,-15.08
19910,-14.44
19922,-12.5
19934,-9.36
19946,-5.4
19958,-1.11
19970,2.99
19982,6.47
19994,9.07
20006,10.68
20018,11.33
20030,11.15
20042,10.36
20054,9.17
20066,7.78
20078,6.36
20089,4.99
20100,3.76
20112,2.75
20124,2.01
20136,1.57
20148,1.43
20160,1.49
20172,1.65
20184,1.78
20196,1.78
20208,1.56
20220,1.09
20232,0.33
20244,-0.73
20256,-2.06
20268,-3.6
20279,-5.21
20290,-6.76
20302,-8.17
20314,-9.42
20326,-10.59
20338,-11.76
20350,-12.95
20362,-14.03
20374,-14.75
20386,-14.75
20398,-13.73
20410,-11.58
20422,-8.4
20434,-4.54
20446,-0.48
20458,3.32
20469,6.51
20480,8.84
20492,10.26
20504,10.78
20516,10.46
20528,9.41
20540,7.78
20552,5.8
20564,3.77
20576,1.95
20588,0.55
20600,-0.31
20612,-0.68
20624,-0.7
20636,-0.53
20648,-0.35
20659,-0.27
20670,-0.35
20682,-0.6
20694,-0.99
20706,-1.5
20718,-2.12
20730,-2.83
20742,-3.65
20754,-4.59
20766,-5.63
20778,-6.76
20790,-8.01
20802,-9.43
20814,-11.09
20826,-12.92
20838,-14.7
20849,-16.0
20860,-16.37
20872,-15.44
20884,-13.16
20896,-9.82
20908,-5.91
20920,-1.98
20932,1.56
20944,4.5
20956,6.78
20968,8.37
20980,9.17
20992,9.09
