seconds,BVP
10,-18.18
22,-21.75
34,-24.93
46,-27.79
58,-30.59
70,-33.69
81,-37.47
92,-42.18
104,-47.8
116,-53.87
128,-59.56
140,-63.75
152,-65.31
164,-63.45
176,-57.96
188,-49.3
200,-38.47
212,-26.74
224,-15.24
236,-4.79
248,4.26
260,11.86
271,18.11
282,23.11
294,26.91
306,29.56
318,31.14
330,31.87
342,32.07
354,32.05
366,32.08
378,32.29
390,32.68
402,33.18
414,33.75
426,34.34
438,34.94
450,35.53
461,36.01
472,36.24
484,36.03
496,35.21
508,33.64
520,31.32
532,28.33
544,24.85
556,21.12
568,17.32
580,13.57
592,9.8
604,5.86
616,1.58
628,-3.11
640,-8.14
651,-13.27
662,-18.28
674,-23.01
686,-27.42
698,-31.66
710,-35.99
722,-40.75
734,-46.24
746,-52.64
758,-59.76
770,-66.91
782,-72.92
794,-76.39
806,-76.07
818,-71.33
830,-62.44
841,-50.43
852,-36.82
864,-23.07
876,-10.29
888,0.97
900,10.51
912,18.37
924,24.61
936,29.27
948,32.43
960,34.29
972,35.16
984,35.44
996,35.51
1008,35.63
1020,35.92
1031,36.37
1042,36.97
1054,37.67
1066,38.46
1078,39.28
1090,40.0
1102,40.42
1114,40.32
1126,39.49
1138,37.82
1150,35.34
1162,32.23
1174,28.73
1186,25.1
1198,21.53
1210,18.05
1221,14.55
1232,10.84
1244,6.77
1256,2.3
1268,-2.41
1280,-7.05
1292,-11.31
1304,-15.02
1316,-18.26
1328,-21.37
1340,-24.9
1352,-29.38
1364,-35.17
1376,-42.23
1388,-49.96
1400,-57.23
1411,-62.57
1422,-64.53
1434,-62.15
1446,-55.28
1458,-44.63
1470,-31.52
1482,-17.53
1494,-4.05
1506,7.94
1518,17.98
1530,26.0
1542,32.16
1554,36.75
1566,40.07
1578,42.39
1590,43.93
1601,44.89
1612,45.43
1624,45.72
1636,45.92
1648,46.16
1660,46.49
1672,46.84
1684,47.07
1696,47.04
1708,46.71
1720,46.1
1732,45.27
1744,44.19
1756,42.7
1768,40.59
1780,37.69
1791,34.03
1802,29.83
1814,25.49
1826,21.39
1838,17.7
1850,14.35
1862,11.03
1874,7.38
1886,3.09
1898,-1.86
1910,-7.26
1922,-12.72
1934,-17.83
1946,-22.37
1958,-26.34
1970,-29.98
1981,-33.73
1992,-38.08
2004,-43.42
2016,-49.98
2028,-57.59
2040,-65.6
2052,-72.89
2064,-78.02
2076,-79.57
2088,-76.62
2100,-69.06
2112,-57.69
2124,-44.01
2136,-29.72
2148,-16.23
2160,-4.36
2171,5.71
2182,14.18
2194,21.29
2206,27.16
2218,31.7
2230,34.75
2242,36.32
2254,36.67
2266,36.3
2278,35.77
2290,35.5
2302,35.67
2314,36.19
2326,36.85
2338,37.44
2350,37.89
2361,38.22
2372,38.51
2384,38.77
2396,38.91
2408,38.69
2420,37.84
2432,36.11
2444,33.38
2456,29.79
2468,25.68
2480,21.49
2492,17.64
2504,14.31
2516,11.38
2528,8.48
2540,5.13
2551,1.05
2562,-3.8
2574,-9.12
2586,-14.47
2598,-19.42
2610,-23.74
2622,-27.48
2634,-30.92
2646,-34.49
2658,-38.64
2670,-43.75
2682,-50.01
2694,-57.29
2706,-64.92
2718,-71.72
2730,-76.15
2741,-76.71
2752,-72.45
2764,-63.36
2776,-50.41
2788,-35.26
2800,-19.71
2812,-5.15
2824,7.7
2836,18.71
2848,28.02
2860,35.75
2872,41.84
2884,46.16
2896,48.68
2908,49.7
2920,49.72
2931,49.4
2942,49.2
2954,49.33
2966,49.7
2978,50.08
2990,50.31
3002,50.34
3014,50.29
3026,50.34
3038,50.64
3050,51.19
3062,51.87
3074,52.4
3086,52.46
3098,51.71
3110,49.95
3121,47.18
3132,43.69
3144,39.96
3156,36.5
3168,33.58
3180,31.13
3192,28.78
3204,25.98
3216,22.31
3228,17.7
3240,12.38
3252,6.77
3264,1.24
3276,-4.12
3288,-9.42
3300,-14.98
3311,-21.13
3322,-28.1
3334,-35.96
3346,-44.59
3358,-53.64
3370,-62.38
3382,-69.74
3394,-74.42
3406,-75.22
3418,-71.4
3430,-63.01
3442,-51.0
3454,-36.91
3466,-22.49
3478,-9.15
3490,2.28
3501,11.62
3512,19.07
3524,24.89
3536,29.22
3548,32.04
3560,33.36
3572,33.4
3584,32.65
3596,31.76
3608,31.34
3620,31.68
3632,32.7
3644,34.05
3656,35.28
3668,36.07
3680,36.36
3691,36.23
3702,35.82
3714,35.13
3726,34.04
3738,32.32
3750,29.86
3762,26.73
3774,23.24
3786,19.76
3798,16.6
3810,13.82
3822,11.18
3834,8.29
3846,4.82
3858,0.64
3870,-4.06
3881,-8.91
3892,-13.52
3904,-17.65
3916,-21.35
3928,-24.88
3940,-28.71
3952,-33.34
3964,-39.18
3976,-46.37
3988,-54.57
4000,-62.85
4012,-69.74
4024,-73.55
4036,-72.88
4048,-67.03
4060,-56.35
4071,-42.1
4082,-26.11
4094,-10.14
4106,4.48
4118,17.1
4130,27.57
4142,35.99
4154,42.49
4166,47.14
4178,50.0
4190,51.3
4202,51.45
4214,51.0
4226,50.53
4238,50.34
4250,50.43
4261,50.52
4272,50.2
4284,49.19
4296,47.39
4308,45.01
4320,42.35
4332,39.67
4344,36.97
4356,34.08
4368,30.71
4380,26.6
4392,21.75
4404,16.4
4416,10.97
4428,5.83
4440,1.19
4451,-3.03
4462,-7.08
4474,-11.3
4486,-15.96
4498,-21.09
4510,-26.51
4522,-31.87
4534,-36.84
4546,-41.22
4558,-45.09
4570,-48.72
4582,-52.55
4594,-57.07
4606,-62.64
4618,-69.43
4630,-77.15
4641,-85.05
4652,-91.79
4664,-95.76
4676,-95.46
4688,-90.02
4700,-79.54
4712,-65.13
4724,-48.59
4736,-31.86
4748,-16.46
4760,-3.24
4772,7.61
4784,16.36
4796,23.36
4808,28.9
4820,33.11
4831,36.04
4842,37.76
4854,38.47
4866,38.45
4878,38.08
4890,37.7
4902,37.51
4914,37.58
4926,37.81
4938,38.06
4950,38.25
4962,38.36
4974,38.46
4986,38.53
4998,38.47
5010,38.01
5021,36.86
5032,34.79
5044,31.76
5056,27.98
5068,23.86
5080,19.81
5092,16.09
5104,12.67
5116,9.22
5128,5.27
5140,0.48
5152,-5.17
5164,-11.33
5176,-17.36
5188,-22.68
5200,-26.98
5211,-30.4
5222,-33.42
5234,-36.7
5246,-40.85
5258,-46.25
5270,-52.97
5282,-60.68
5294,-68.53
5306,-75.22
5318,-79.13
5330,-78.8
5342,-73.39
5354,-63.03
5366,-48.9
5378,-32.82
5390,-16.65
5401,-1.79
5412,11.07
5424,21.88
5436,30.86
5448,38.24
5460,44.14
5472,48.62
5484,51.76
5496,53.83
5508,55.2
5520,56.2
5532,57.03
5544,57.58
5556,57.57
5568,56.65
5580,54.66
5591,51.75
5602,48.45
5614,45.38
5626,43.03
5638,41.49
5650,40.41
5662,39.18
5674,37.26
5686,34.45
5698,30.98
5710,27.42
5722,24.31
5734,21.97
5746,20.38
5758,19.27
5770,18.35
5781,17.38
5792,16.35
5804,15.34
5816,14.47
5828,13.81
5840,13.31
5852,12.78
5864,11.86
5876,10.11
5888,7.0
5900,2.06
5912,-4.88
5924,-13.55
5936,-23.08
5948,-32.12
5960,-39.11
5971,-42.8
5982,-42.64
5994,-38.97
6006,-32.93
6018,-25.98
6030,-19.44
6042,-14.13
6054,-10.28
6066,-7.75
6078,-6.32
6090,-5.88
6102,-6.45
6114,-8.08
6126,-10.59
6138,-13.58
6150,-16.52
6161,-18.9
6172,-20.44
6184,-21.2
6196,-21.45
6208,-21.54
6220,-21.66
6232,-21.82
6244,-21.86
6256,-21.68
6268,-21.34
6280,-21.15
6292,-21.55
6304,-22.89
6316,-25.26
6328,-28.39
6340,-31.78
6351,-34.94
6362,-37.55
6374,-39.67
6386,-41.65
6398,-44.01
6410,-47.18
6422,-51.35
6434,-56.33
6446,-61.66
6458,-66.78
6470,-71.36
6482,-75.43
6494,-79.47
6506,-84.18
6518,-90.28
6530,-98.09
6541,-107.36
6552,-117.14
6564,-125.94
6576,-131.96
6588,-133.58
6600,-129.71
6612,-120.21
6624,-105.91
6636,-88.4
6648,-69.62
6660,-51.35
6672,-34.76
6684,-20.36
6696,-8.1
6708,2.33
6720,11.29
6731,19.02
6742,25.7
6754,31.43
6766,36.37
6778,40.74
6790,44.82
6802,48.85
6814,52.99
6826,57.23
6838,61.48
6850,65.57
6862,69.36
6874,72.77
6886,75.82
6898,78.5
6910,80.72
6921,82.29
6932,82.99
6944,82.65
6956,81.27
6968,79.04
6980,76.23
6992,73.13
7004,69.86
7016,66.36
7028,62.42
7040,57.74
7052,52.12
7064,45.59
7076,38.41
7088,31.03
7100,23.92
7111,17.38
7122,11.38
7134,5.63
7146,-0.43
7158,-7.31
7170,-15.37
7182,-24.63
7194,-34.67
7206,-44.6
7218,-53.11
7230,-58.74
7242,-60.15
7254,-56.61
7266,-48.28
7278,-36.21
7290,-22.03
7301,-7.49
7312,6.07
7324,17.91
7336,27.9
7348,36.17
7360,42.88
7372,48.01
7384,51.48
7396,53.28
7408,53.68
7420,53.18
7432,52.45
7444,52.07
7456,52.32
7468,53.12
7480,54.14
7491,54.99
7502,55.41
7514,55.4
7526,55.21
7538,55.05
7550,55.06
7562,55.1
7574,54.85
7586,53.93
7598,52.16
7610,49.56
7622,46.4
7634,42.97
7646,39.53
7658,36.07
7670,32.47
7681,28.45
7692,23.83
7704,18.64
7716,13.11
7728,7.58
7740,2.3
7752,-2.76
7764,-7.98
7776,-14.05
7788,-21.69
7800,-31.45
7812,-43.45
7824,-57.42
7836,-72.66
7848,-88.18
7860,-102.71
7871,-114.84
7882,-123.1
7894,-126.32
7906,-123.87
7918,-115.98
7930,-103.73
7942,-88.8
7954,-73.07
7966,-58.08
7978,-44.8
7990,-33.57
8002,-24.28
8014,-16.69
8026,-10.62
8038,-5.92
8050,-2.4
8061,0.38
8072,3.15
8084,6.7
8096,11.57
8108,17.74
8120,24.61
8132,31.18
8144,36.58
8156,40.44
8168,43.01
8180,44.96
8192,46.91
8204,49.05
8216,51.13
8228,52.57
8240,52.85
8251,51.78
8262,49.59
8274,46.74
8286,43.7
8298,40.72
8310,37.72
8322,34.46
8334,30.65
8346,26.2
8358,21.25
8370,16.26
8382,11.73
8394,8.04
8406,5.28
8418,3.25
8430,1.42
8441,-0.82
8452,-4.04
8464,-8.57
8476,-14.35
8488,-20.84
8500,-26.92
8512,-31.15
8524,-32.06
8536,-28.65
8548,-20.81
8560,-9.35
8572,4.15
8584,17.87
8596,30.28
8608,40.46
8620,48.15
8631,53.55
8642,56.97
8654,58.67
8666,58.73
8678,57.16
8690,54.11
8702,49.87
8714,44.94
8726,39.85
8738,35.03
8750,30.72
8762,26.92
8774,23.56
8786,20.58
8798,18.06
8810,16.17
8821,15.07
8832,14.76
8844,14.94
8856,15.1
8868,14.61
8880,13.01
8892,10.2
8904,6.51
8916,2.58
8928,-0.89
8940,-3.41
8952,-4.88
8964,-5.66
8976,-6.37
8988,-7.6
9000,-9.73
9011,-12.74
9022,-16.32
9034,-20.0
9046,-23.4
9058,-26.3
9070,-28.73
9082,-30.86
9094,-33.03
9106,-35.66
9118,-39.2
9130,-43.96
9142,-49.96
9154,-56.61
9166,-62.66
9178,-66.4
9190,-66.21
9201,-61.12
9212,-51.31
9224,-38.06
9236,-23.4
9248,-9.34
9260,2.74
9272,12.32
9284,19.64
9296,25.29
9308,29.74
9320,33.11
9332,35.24
9344,35.92
9356,35.2
9368,33.49
9380,31.5
9391,29.94
9402,29.25
9414,29.38
9426,29.81
9438,29.7
9450,28.23
9462,24.81
9474,19.27
9486,11.74
9498,2.57
9510,-7.89
9522,-19.36
9534,-31.62
9546,-44.33
9558,-56.98
9570,-68.84
9581,-79.07
9592,-86.97
9604,-92.21
9616,-94.96
9628,-95.94
9640,-96.11
9652,-96.47
9664,-97.61
9676,-99.62
9688,-102.07
9700,-104.25
9712,-105.5
9724,-105.56
9736,-104.56
9748,-103.01
9760,-101.61
9771,-101.06
9782,-101.93
9794,-104.59
9806,-109.08
9818,-114.99
9830,-121.33
9842,-126.57
9854,-128.96
9866,-127.03
9878,-120.13
9890,-108.7
9902,-94.08
9914,-78.07
9926,-62.24
9938,-47.61
9950,-34.52
9961,-22.89
9972,-12.58
9984,-3.55
9996,4.08
10008,10.13
10020,14.53
10032,17.44
10044,19.24
10056,20.45
10068,21.55
10080,22.93
10092,24.77
10104,27.04
10116,29.56
10128,32.13
10140,34.57
10151,36.76
10162,38.64
10174,40.09
10186,40.97
10198,41.11
10210,40.38
10222,38.81
10234,36.54
10246,33.75
10258,30.59
10270,27.08
10282,23.1
10294,18.51
10306,13.25
10318,7.43
10330,1.34
10341,-4.71
10352,-10.57
10364,-16.4
10376,-22.62
10388,-29.84
10400,-38.51
10412,-48.67
10424,-59.74
10436,-70.5
10448,-79.26
10460,-84.29
10472,-84.27
10484,-78.65
10496,-67.86
10508,-53.16
10520,-36.31
10531,-19.07
10542,-2.81
10554,11.72
10566,24.32
10578,35.1
10590,44.21
10602,51.71
10614,57.55
10626,61.74
10638,64.47
10650,66.14
10662,67.27
10674,68.33
10686,69.58
10698,71.04
10710,72.57
10721,74.0
10732,75.2
10744,76.12
10756,76.67
10768,76.64
10780,75.75
10792,73.73
10804,70.45
10816,66.04
10828,60.83
10840,55.26
10852,49.71
10864,44.39
10876,39.32
10888,34.32
10900,29.18
10911,23.72
10922,17.87
10934,11.76
10946,5.65
10958,-0.18
10970,-5.51
10982,-10.39
10994,-15.14
11006,-20.31
11018,-26.57
11030,-34.37
11042,-43.69
11054,-53.79
11066,-63.22
11078,-70.09
11090,-72.6
11101,-69.6
11112,-61.01
11124,-47.88
11136,-32.05
11148,-15.53
11160,0.08
11172,13.95
11184,25.98
11196,36.43
11208,45.58
11220,53.47
11232,59.95
11244,64.87
11256,68.28
11268,70.49
11280,71.96
11291,73.11
11302,74.12
11314,74.91
11326,75.33
11338,75.28
11350,74.86
11362,74.29
11374,73.79
11386,73.35
11398,72.71
11410,71.38
11422,68.87
11434,64.9
11446,59.56
11458,53.25
11470,46.62
11481,40.29
11492,34.65
11504,29.75
11516,25.36
11528,21.07
11540,16.55
11552,11.68
11564,6.64
11576,1.79
11588,-2.52
11600,-6.1
11612,-9.12
11624,-12.01
11636,-15.36
11648,-19.68
11660,-25.25
11671,-31.94
11682,-39.17
11694,-45.95
11706,-51.0
11718,-53.02
11730,-51.05
11742,-44.78
11754,-34.69
11766,-22.0
11778,-8.31
11790,4.86
11802,16.48
11814,26.16
11826,34.02
11838,40.44
11850,45.75
11861,50.04
11872,53.29
11884,55.46
11896,56.64
11908,57.14
11920,57.39
11932,57.76
11944,58.45
11956,59.42
11968,60.47
11980,61.34
11992,61.85
12004,61.93
12016,61.59
12028,60.85
12040,59.63
12051,57.78
12062,55.14
12074,51.64
12086,47.35
12098,42.52
12110,37.43
12122,32.29
12134,27.14
12146,21.87
12158,16.32
12170,10.39
12182,4.13
12194,-2.23
12206,-8.43
12218,-14.26
12230,-19.65
12241,-24.77
12252,-29.89
12264,-35.39
12276,-41.64
12288,-48.88
12300,-57.06
12312,-65.69
12324,-73.82
12336,-80.11
12348,-83.15
12360,-81.93
12372,-76.14
12384,-66.34
12396,-53.84
12408,-40.2
12420,-26.82
12431,-14.63
12442,-3.99
12454,5.13
12466,12.87
12478,19.29
12490,24.34
12502,27.9
12514,29.98
12526,30.74
12538,30.54
12550,29.81
12562,28.97
12574,28.33
12586,28.02
12598,28.06
12610,28.34
12621,28.73
12632,29.08
12644,29.26
12656,29.2
12668,28.83
12680,28.12
12692,27.03
12704,25.52
12716,23.54
12728,21.1
12740,18.24
12752,15.06
12764,11.67
12776,8.22
12788,4.82
12800,1.56
12811,-1.55
12822,-4.59
12834,-7.78
12846,-11.41
12858,-15.84
12870,-21.29
12882,-27.77
12894,-34.89
12906,-41.88
12918,-47.69
12930,-51.16
12942,-51.37
12954,-47.86
12966,-40.8
12978,-30.97
12990,-19.59
13001,-7.96
13012,2.82
13024,12.08
13036,19.56
13048,25.36
13060,29.67
13072,32.61
13084,34.25
13096,34.59
13108,33.78
13120,32.14
13132,30.16
13144,28.35
13156,27.08
13168,26.47
13180,26.39
13191,26.56
13202,26.7
13214,26.6
13226,26.15
13238,25.31
13250,24.04
13262,22.31
13274,20.06
13286,17.31
13298,14.13
13310,10.63
13322,6.92
13334,3.08
13346,-0.88
13358,-4.95
13370,-9.06
13381,-13.15
13392,-17.11
13404,-20.92
13416,-24.64
13428,-28.49
13440,-32.79
13452,-37.85
13464,-43.84
13476,-50.6
13488,-57.54
13500,-63.68
13512,-67.83
13524,-68.87
13536,-66.15
13548,-59.68
13560,-50.15
13571,-38.77
13582,-26.84
13594,-15.44
13606,-5.2
13618,3.7
13630,11.35
13642,17.94
13654,23.53
13666,28.1
13678,31.52
13690,33.73
13702,34.84
13714,35.07
13726,34.79
13738,34.32
13750,33.93
13761,33.73
13772,33.73
13784,33.81
13796,33.76
13808,33.39
13820,32.54
13832,31.13
13844,29.18
13856,26.8
13868,24.13
13880,21.28
13892,18.27
13904,15.07
13916,11.6
13928,7.81
13940,3.7
13951,-0.65
13962,-5.15
13974,-9.65
13986,-14.06
13998,-18.37
14010,-22.62
14022,-26.98
14034,-31.64
14046,-36.8
14058,-42.54
14070,-48.71
14082,-54.77
14094,-59.88
14106,-63.01
14118,-63.2
14130,-59.89
14141,-53.09
14152,-43.45
14164,-32.04
14176,-20.11
14188,-8.71
14200,1.48
14212,10.19
14224,17.46
14236,23.41
14248,28.14
14260,31.67
14272,34.04
14284,35.33
14296,35.76
14308,35.62
14320,35.15
14331,34.52
14342,33.82
14354,33.03
14366,32.19
14378,31.35
14390,30.57
14402,29.86
14414,29.11
14426,28.15
14438,26.75
14450,24.76
14462,22.2
14474,19.22
14486,16.05
14498,12.87
14510,9.75
14521,6.6
14532,3.27
14544,-0.35
14556,-4.23
14568,-8.24
14580,-12.13
14592,-15.74
14604,-19.04
14616,-22.19
14628,-25.47
14640,-29.21
14652,-33.69
14664,-38.93
14676,-44.67
14688,-50.25
14700,-54.72
14711,-57.07
14722,-56.46
14734,-52.59
14746,-45.79
14758,-36.88
14770,-26.98
14782,-17.09
14794,-7.92
14806,0.25
14818,7.37
14830,13.52
14842,18.68
14854,22.75
14866,25.62
14878,27.28
14890,27.9
14901,27.8
14912,27.39
14924,27.04
14936,26.98
14948,27.25
14960,27.73
14972,28.23
14984,28.58
14996,28.65
15008,28.38
15020,27.74
15032,26.66
15044,25.07
15056,22.89
15068,20.13
15080,16.89
15091,13.33
15102,9.62
15114,5.85
15126,2.09
15138,-1.63
15150,-5.23
15162,-8.62
15174,-11.76
15186,-14.7
15198,-17.62
15210,-20.78
15222,-24.4
15234,-28.66
15246,-33.56
15258,-38.92
15270,-44.3
15281,-48.97
15292,-52.05
15304,-52.68
15316,-50.32
15328,-44.96
15340,-37.13
15352,-27.81
15364,-18.03
15376,-8.65
15388,-0.16
15400,7.25
15412,13.53
15424,18.64
15436,22.51
15448,25.03
15460,26.23
15471,26.27
15482,25.48
15494,24.29
15506,23.15
15518,22.36
15530,22.04
15542,22.12
15554,22.4
15566,22.63
15578,22.65
15590,22.34
15602,21.68
15614,20.63
15626,19.15
15638,17.22
15650,14.87
15661,12.21
15672,9.36
15684,6.42
15696,3.43
15708,0.32
15720,-2.96
15732,-6.44
15744,-10.04
15756,-13.59
15768,-16.93
15780,-19.99
15792,-22.83
15804,-25.67
15816,-28.8
15828,-32.49
15840,-36.88
15851,-41.84
15862,-46.91
15874,-51.27
15886,-54.0
15898,-54.23
15910,-51.52
15922,-45.95
15934,-38.11
15946,-28.92
15958,-19.36
15970,-10.15
15982,-1.71
15994,5.79
16006,12.33
16018,17.86
16030,22.3
16041,25.53
16052,27.55
16064,28.48
16076,28.58
16088,28.19
16100,27.61
16112,27.04
16124,26.55
16136,26.1
16148,25.62
16160,25.08
16172,24.49
16184,23.9
16196,23.34
16208,22.74
16220,21.95
16231,20.77
16242,19.05
16254,16.72
16266,13.93
16278,10.92
16290,7.97
16302,5.28
16314,2.87
16326,0.61
16338,-1.74
16350,-4.32
16362,-7.2
16374,-10.28
16386,-13.38
16398,-16.37
16410,-19.24
16421,-22.12
16432,-25.26
16444,-28.9
16456,-33.21
16468,-38.2
16480,-43.65
16492,-49.1
16504,-53.85
16516,-57.0
16528,-57.68
16540,-55.25
16552,-49.6
16564,-41.24
16576,-31.17
16588,-20.62
16600,-10.65
16611,-1.85
16622,5.7
16634,12.3
16646,18.29
16658,23.82
16670,28.78
16682,32.86
16694,35.81
16706,37.58
16718,38.46
16730,38.98
16742,39.76
16754,41.28
16766,43.74
16778,46.93
16790,50.39
16801,53.5
16812,55.76
16824,56.93
16836,57.06
16848,56.47
16860,55.66
16872,55.22
16884,55.68
16896,57.44
16908,60.64
16920,65.21
16932,70.88
16944,77.45
16956,85.02
16968,93.92
16980,104.59
16991,117.07
17002,130.64
17014,143.66
17026,153.69
17038,157.99
17050,154.15
17062,140.74
17074,117.84
17086,87.21
17098,52.17
17110,16.92
17122,-14.43
17134,-38.78
17146,-54.73
17158,-62.59
17170,-63.88
17181,-60.6
17192,-54.61
17204,-47.3
17216,-39.74
17228,-32.78
17240,-27.14
17252,-23.22
17264,-20.98
17276,-19.93
17288,-19.32
17300,-18.5
17312,-17.16
17324,-15.44
17336,-13.76
17348,-12.53
17360,-11.9
17371,-11.7
17382,-11.47
17394,-10.7
17406,-8.98
17418,-6.15
17430,-2.41
17442,1.79
17454,5.77
17466,8.86
17478,10.52
17490,10.56
17502,9.15
17514,6.77
17526,4.0
17538,1.3
17550,-1.22
17561,-3.81
17572,-6.98
17584,-11.21
17596,-16.76
17608,-23.54
17620,-31.06
17632,-38.63
17644,-45.51
17656,-51.2
17668,-55.48
17680,-58.4
17692,-60.26
17704,-61.44
17716,-62.38
17728,-63.51
17740,-65.25
17751,-67.86
17762,-71.27
17774,-75.06
17786,-78.49
17798,-80.8
17810,-81.53
17822,-80.7
17834,-78.79
17846,-76.45
17858,-74.18
17870,-72.18
17882,-70.42
17894,-68.96
17906,-68.06
17918,-68.28
17930,-70.17
17941,-73.85
17952,-78.77
17964,-83.61
17976,-86.56
17988,-85.85
18000,-80.25
18012,-69.49
18024,-54.31
18036,-36.33
18048,-17.59
18060,-0.08
18072,14.79
18084,26.3
18096,34.44
18108,39.6
18120,42.27
18131,42.79
18142,41.28
18154,37.75
18166,32.17
18178,24.69
18190,15.59
18202,5.38
18214,-5.34
18226,-15.88
18238,-25.56
18250,-33.81
18262,-40.26
18274,-44.86
18286,-47.89
18298,-49.79
18310,-50.9
18321,-51.3
18332,-50.76
18344,-48.88
18356,-45.45
18368,-40.66
18380,-35.12
18392,-29.57
18404,-24.59
18416,-20.22
18428,-15.98
18440,-11.1
18452,-4.94
18464,2.61
18476,11.17
18488,19.97
18500,28.23
18511,35.36
18522,41.07
18534,45.23
18546,47.7
18558,48.28
18570,46.74
18582,43.03
18594,37.39
18606,30.41
18618,22.9
18630,15.75
18642,9.66
18654,5.04
18666,1.89
18678,-0.07
18690,-1.28
18701,-2.16
18712,-3.03
18724,-4.07
18736,-5.28
18748,-6.67
18760,-8.22
18772,-9.96
18784,-11.96
18796,-14.26
18808,-16.85
18820,-19.71
18832,-22.79
18844,-26.03
18856,-29.37
18868,-32.76
18880,-36.09
18891,-39.23
18902,-42.08
18914,-44.59
18926,-46.86
18938,-49.09
18950,-51.54
18962,-54.52
18974,-58.24
18986,-62.73
18998,-67.83
19010,-73.03
19022,-77.53
19034,-80.37
19046,-80.64
19058,-77.8
19070,-71.88
19081,-63.49
19092,-53.63
19104,-43.35
19116,-33.4
19128,-24.14
19140,-15.63
19152,-7.9
19164,-1.06
19176,4.63
19188,8.94
19200,11.79
19212,13.38
19224,14.1
19236,14.44
19248,14.76
19260,15.26
19271,16.03
19282,17.03
19294,18.21
19306,19.52
19318,20.86
19330,22.08
19342,23.02
19354,23.52
19366,23.43
19378,22.7
19390,21.37
19402,19.52
19414,17.34
19426,15.03
19438,12.77
19450,10.63
19461,8.51
19472,6.24
19484,3.59
19496,0.45
19508,-3.12
19520,-6.86
19532,-10.47
19544,-13.71
19556,-16.56
19568,-19.24
19580,-22.13
19592,-25.69
19604,-30.24
19616,-35.85
19628,-42.28
19640,-48.87
19651,-54.67
19662,-58.53
19674,-59.45
19686,-56.86
19698,-50.85
19710,-42.11
19722,-31.75
19734,-20.98
19746,-10.78
19758,-1.76
19770,5.85
19782,12.07
19794,16.99
19806,20.71
19818,23.32
19830,24.93
19841,25.67
19852,25.73
19864,25.33
19876,24.73
19888,24.17
19900,23.91
19912,24.08
19924,24.71
19936,25.7
19948,26.82
19960,27.85
19972,28.55
19984,28.79
19996,28.52
20008,27.75
20020,26.53
20031,24.88
20042,22.83
20054,20.41
20066,17.67
20078,14.68
20090,11.53
20102,8.28
20114,4.99
20126,1.68
20138,-1.64
20150,-5.03
20162,-8.57
20174,-12.43
20186,-16.82
20198,-21.93
20210,-27.76
20221,-34.02
20232,-40.04
20244,-44.85
20256,-47.38
20268,-46.82
20280,-42.9
20292,-35.99
20304,-27.03
20316,-17.23
20328,-7.68
20340,0.9
20352,8.25
20364,14.46
20376,19.69
20388,24.01
20400,27.35
20411,29.59
20422,30.74
20434,30.99
20446,30.71
20458,30.33
20470,30.13
20482,30.25
20494,30.65
20506,31.21
20518,31.8
20530,32.3
20542,32.61
20554,32.57
20566,32.06
20578,31.0
20590,29.41
20601,27.47
20612,25.38
20624,23.34
20636,21.38
20648,19.41
20660,17.21
20672,14.59
20684,11.45
20696,7.84
20708,3.96
20720,0.05
20732,-3.66
20744,-7.04
20756,-10.12
20768,-13.05
20780,-16.13
20791,-19.72
20802,-24.12
20814,-29.45
20826,-35.52
20838,-41.73
20850,-47.13
20862,-50.61
20874,-51.2
20886,-48.32
20898,-42.1
20910,-33.26
20922,-22.92
20934,-12.28
20946,-2.26
20958,6.64
20970,14.34
20981,20.91
20992,26.44
