seconds,BVP
5,19.83
17,17.95
29,15.12
41,11.72
53,8.3
65,5.27
77,2.93
89,1.24
101,-0.05
113,-1.31
125,-2.84
137,-4.72
148,-6.83
159,-8.91
171,-10.76
183,-12.37
195,-13.96
207,-15.87
219,-18.48
231,-22.03
243,-26.58
255,-31.9
267,-37.49
279,-42.53
291,-46.12
303,-47.4
315,-45.79
327,-41.2
338,-34.03
349,-25.1
361,-15.4
373,-5.89
385,2.64
397,9.7
409,15.08
421,18.77
433,20.91
445,21.69
457,21.32
469,20.05
481,18.11
493,15.78
505,13.34
517,11.01
528,8.92
539,7.11
551,5.63
563,4.57
575,4.11
587,4.37
599,5.28
611,6.5
623,7.49
635,7.76
647,7.03
659,5.36
671,3.13
683,0.8
695,-1.3
707,-3.07
718,-4.63
729,-6.22
741,-8.08
753,-10.35
765,-13.09
777,-16.23
789,-19.66
801,-23.19
813,-26.65
825,-29.91
837,-33.01
849,-36.16
861,-39.68
873,-43.84
885,-48.64
897,-53.71
908,-58.28
919,-61.31
931,-61.79
943,-59.08
955,-53.13
967,-44.49
979,-34.1
991,-23.05
1003,-12.23
1015,-2.33
1027,6.29
1039,13.37
1051,18.81
1063,22.56
1075,24.74
1087,25.58
1098,25.42
1109,24.57
1121,23.31
1133,21.81
1145,20.2
1157,18.65
1169,17.36
1181,16.55
1193,16.38
1205,16.88
1217,17.96
1229,19.37
1241,20.81
1253,22.02
1265,22.73
1277,22.87
1288,22.45
1299,21.57
1311,20.37
1323,18.91
1335,17.22
1347,15.19
1359,12.73
1371,9.78
1383,6.43
1395,2.85
1407,-0.73
1419,-4.06
1431,-7.02
1443,-9.57
1455,-11.84
1467,-14.09
1478,-16.7
1489,-20.04
1501,-24.3
1513,-29.28
1525,-34.3
1537,-38.28
1549,-40.04
1561,-38.65
1573,-33.73
1585,-25.64
1597,-15.28
1609,-3.83
1621,7.56
1633,18.03
1645,27.02
1657,34.24
1668,39.58
1679,43.05
1691,44.78
1703,44.97
1715,43.9
1727,41.85
1739,39.11
1751,35.89
1763,32.37
1775,28.72
1787,25.08
1799,21.65
1811,18.66
1823,16.33
1835,14.74
1847,13.85
1858,13.43
1869,13.13
1881,12.66
1893,11.84
1905,10.67
1917,9.25
1929,7.65
1941,5.85
1953,3.72
1965,1.12
1977,-2.0
1989,-5.55
2001,-9.29
2013,-12.95
2025,-16.31
2037,-19.32
2048,-22.07
2059,-24.79
2071,-27.79
2083,-31.38
2095,-35.68
2107,-40.54
2119,-45.38
2131,-49.26
2143,-51.12
2155,-50.09
2167,-45.75
2179,-38.25
2191,-28.29
2203,-16.82
2215,-4.85
2227,6.74
2238,17.22
2249,26.09
2261,32.97
2273,37.71
2285,40.37
2297,41.16
2309,40.43
2321,38.58
2333,35.97
2345,32.94
2357,29.75
2369,26.6
2381,23.6
2393,20.83
2405,18.31
2417,16.12
2428,14.41
2439,13.34
2451,13.0
2463,13.27
2475,13.83
2487,14.28
2499,14.24
2511,13.5
2523,12.09
2535,10.13
2547,7.8
2559,5.17
2571,2.27
2583,-0.88
2595,-4.24
2607,-7.74
2618,-11.3
2629,-14.9
2641,-18.62
2653,-22.62
2665,-27.01
2677,-31.76
2689,-36.6
2701,-40.92
2713,-43.88
2725,-44.59
2737,-42.39
2749,-37.05
2761,-28.94
2773,-18.93
2785,-8.12
2797,2.39
2808,11.8
2819,19.67
2831,25.82
2843,30.23
2855,32.91
2867,33.95
2879,33.51
2891,31.91
2903,29.54
2915,26.76
2927,23.87
2939,21.04
2951,18.32
2963,15.72
2975,13.35
2987,11.31
2998,9.76
3009,8.81
3021,8.51
3033,8.76
3045,9.33
3057,9.88
3069,10.02
3081,9.45
3093,8.04
3105,5.85
3117,3.1
3129,0.12
3141,-2.83
3153,-5.59
3165,-8.11
3177,-10.48
3188,-12.87
3199,-15.5
3211,-18.63
3223,-22.49
3235,-27.14
3247,-32.37
3259,-37.55
3271,-41.7
3283,-43.7
3295,-42.67
3307,-38.18
3319,-30.54
3331,-20.66
3343,-9.77
3355,0.87
3367,10.36
3378,18.18
3389,24.18
3401,28.4
3413,30.93
3425,31.84
3437,31.22
3449,29.24
3461,26.16
3473,22.37
3485,18.29
3497,14.32
3509,10.81
3521,7.96
3533,5.84
3545,4.47
3557,3.77
3568,3.65
3579,3.99
3591,4.62
3603,5.34
3615,5.88
3627,5.97
3639,5.39
3651,4.07
3663,2.09
3675,-0.37
3687,-3.03
3699,-5.68
3711,-8.15
3723,-10.39
3735,-12.49
3747,-14.63
3758,-17.11
3769,-20.21
3781,-24.09
3793,-28.6
3805,-33.17
3817,-36.89
3829,-38.66
3841,-37.63
3853,-33.4
3865,-26.29
3877,-17.17
3889,-7.21
3901,2.49
3913,11.12
3925,18.25
3937,23.72
3948,27.5
3959,29.61
3971,30.09
3983,29.05
3995,26.75
4007,23.6
4019,20.05
4031,16.54
4043,13.38
4055,10.71
4067,8.51
4079,6.72
4091,5.32
4103,4.37
4115,4.06
4127,4.49
4138,5.59
4149,7.05
4161,8.37
4173,9.02
4185,8.65
4197,7.24
4209,5.02
4221,2.35
4233,-0.43
4245,-3.08
4257,-5.56
4269,-7.96
4281,-10.42
4293,-13.12
4305,-16.22
4317,-19.83
4328,-23.97
4339,-28.44
4351,-32.77
4363,-36.19
4375,-37.83
4387,-36.93
4399,-33.13
4411,-26.62
4423,-18.14
4435,-8.69
4447,0.7
4459,9.22
4471,16.42
4483,22.06
4495,26.03
4507,28.27
4518,28.76
4529,27.64
4541,25.2
4553,21.9
4565,18.27
4577,14.75
4589,11.66
4601,9.13
4613,7.16
4625,5.68
4637,4.6
4649,3.91
4661,3.65
4673,3.87
4685,4.54
4697,5.5
4708,6.4
4719,6.8
4731,6.29
4743,4.67
4755,2.01
4767,-1.36
4779,-4.98
4791,-8.42
4803,-11.4
4815,-13.88
4827,-16.05
4839,-18.24
4851,-20.84
4863,-24.15
4875,-28.33
4887,-33.18
4898,-38.17
4909,-42.42
4921,-44.9
4933,-44.74
4945,-41.44
4957,-35.02
4969,-26.1
4981,-15.66
4993,-4.85
5005,5.24
5017,13.77
5029,20.28
5041,24.67
5053,27.15
5065,28.07
5077,27.81
5088,26.63
5099,24.68
5111,22.05
5123,18.91
5135,15.56
5147,12.43
5159,9.94
5171,8.39
5183,7.84
5195,8.13
5207,8.95
5219,9.95
5231,10.86
5243,11.57
5255,12.05
5267,12.3
5278,12.28
5289,11.84
5301,10.82
5313,9.09
5325,6.67
5337,3.69
5349,0.4
5361,-2.97
5373,-6.24
5385,-9.37
5397,-12.4
5409,-15.43
5421,-18.64
5433,-22.19
5445,-26.24
5457,-30.88
5468,-35.92
5479,-40.94
5491,-45.21
5503,-47.81
5515,-47.89
5527,-44.87
5539,-38.73
5551,-29.94
5563,-19.43
5575,-8.3
5587,2.43
5599,11.99
5611,19.9
5623,25.88
5635,29.87
5647,31.92
5658,32.25
5669,31.16
5681,29.1
5693,26.53
5705,23.87
5717,21.43
5729,19.43
5741,17.93
5753,16.96
5765,16.47
5777,16.42
5789,16.77
5801,17.49
5813,18.49
5825,19.58
5837,20.46
5848,20.81
5859,20.37
5871,19.08
5883,17.1
5895,14.72
5907,12.23
5919,9.79
5931,7.42
5943,4.96
5955,2.32
5967,-0.59
5979,-3.73
5991,-7.04
6003,-10.39
6015,-13.7
6027,-16.85
6038,-19.8
6049,-22.54
6061,-25.19
6073,-28.0
6085,-31.27
6097,-35.24
6109,-39.83
6121,-44.51
6133,-48.32
6145,-50.12
6157,-48.95
6169,-44.34
6181,-36.5
6193,-26.22
6205,-14.7
6217,-3.13
6228,7.47
6239,16.44
6251,23.44
6263,28.37
6275,31.3
6287,32.39
6299,31.85
6311,29.98
6323,27.15
6335,23.82
6347,20.48
6359,17.58
6371,15.43
6383,14.14
6395,13.62
6407,13.68
6418,14.13
6429,14.87
6441,15.91
6453,17.26
6465,18.81
6477,20.31
6489,21.44
6501,21.81
6513,21.23
6525,19.73
6537,17.56
6549,15.15
6561,12.83
6573,10.76
6585,8.84
6597,6.82
6608,4.38
6619,1.4
6631,-2.05
6643,-5.69
6655,-9.19
6667,-12.29
6679,-14.94
6691,-17.27
6703,-19.53
6715,-22.01
6727,-24.96
6739,-28.57
6751,-32.89
6763,-37.75
6775,-42.63
6787,-46.71
6798,-48.92
6809,-48.31
6821,-44.34
6833,-37.1
6845,-27.36
6857,-16.27
6869,-5.06
6881,5.26
6893,14.08
6905,21.15
6917,26.41
6929,29.88
6941,31.61
6953,31.69
6965,30.31
6977,27.81
6988,24.61
6999,21.22
7011,18.09
7023,15.55
7035,13.8
7047,12.93
7059,12.87
7071,13.49
7083,14.61
7095,15.97
7107,17.28
7119,18.22
7131,18.53
7143,18.04
7155,16.82
7167,15.06
7178,13.02
7189,10.91
7201,8.75
7213,6.37
7225,3.55
7237,0.17
7249,-3.72
7261,-7.82
7273,-11.79
7285,-15.29
7297,-18.18
7309,-20.56
7321,-22.72
7333,-25.04
7345,-27.92
7357,-31.58
7368,-36.0
7379,-40.8
7391,-45.21
7403,-48.2
7415,-48.71
7427,-45.95
7439,-39.66
7451,-30.22
7463,-18.55
7475,-5.93
7487,6.31
7499,17.12
7511,25.8
7523,32.06
7535,35.97
7547,37.74
7558,37.68
7569,36.08
7581,33.32
7593,29.75
7605,25.9
7617,22.26
7629,19.29
7641,17.33
7653,16.44
7665,16.53
7677,17.3
7689,18.48
7701,19.81
7713,21.15
7725,22.35
7737,23.23
7748,23.57
7759,23.14
7771,21.78
7783,19.47
7795,16.4
7807,12.93
7819,9.47
7831,6.35
7843,3.68
7855,1.33
7867,-1.03
7879,-3.77
7891,-7.12
7903,-11.1
7915,-15.5
7927,-19.91
7938,-24.0
7949,-27.59
7961,-30.76
7973,-33.82
7985,-37.2
7997,-41.29
8009,-46.3
8021,-52.15
8033,-58.36
8045,-64.09
8057,-68.24
8069,-69.67
8081,-67.57
8093,-61.65
8105,-52.34
8117,-40.64
8128,-27.95
8139,-15.66
8151,-4.83
8163,3.91
8175,10.42
8187,14.84
8199,17.48
8211,18.6
8223,18.39
8235,17.02
8247,14.73
8259,11.88
8271,8.92
8283,6.4
8295,4.79
8307,4.38
8318,5.23
8329,7.13
8341,9.73
8353,12.69
8365,15.75
8377,18.79
8389,21.74
8401,24.49
8413,26.82
8425,28.44
8437,29.03
8449,28.45
8461,26.74
8473,24.14
8485,20.96
8497,17.47
8508,13.8
8519,9.92
8531,5.75
8543,1.18
8555,-3.81
8567,-9.16
8579,-14.74
8591,-20.32
8603,-25.71
8615,-30.8
8627,-35.6
8639,-40.19
8651,-44.64
8663,-49.02
8675,-53.41
8687,-57.94
8698,-62.83
8709,-68.29
8721,-74.28
8733,-80.28
8745,-85.24
8757,-87.81
8769,-86.76
8781,-81.59
8793,-72.77
8805,-61.69
8817,-50.16
8829,-39.9
8841,-32.02
8853,-26.97
8865,-24.65
8877,-24.65
8888,-26.42
8899,-29.33
8911,-32.6
8923,-35.34
8935,-36.68
8947,-35.95
8959,-32.87
8971,-27.6
8983,-20.52
8995,-12.06
9007,-2.56
9019,7.79
9031,18.88
9043,30.52
9055,42.51
9067,54.59
9078,66.55
9089,78.26
9101,89.64
9113,100.55
9125,110.81
9137,120.14
9149,128.3
9161,135.12
9173,140.56
9185,144.67
9197,147.6
9209,149.5
9221,150.54
9233,150.86
9245,150.46
9257,149.21
9268,146.88
9279,143.21
9291,138.12
9303,131.71
9315,124.19
9327,115.77
9339,106.46
9351,96.08
9363,84.42
9375,71.56
9387,57.95
9399,44.51
9411,32.35
9423,22.42
9435,15.31
9447,11.03
9458,9.21
9469,9.17
9481,10.17
9493,11.54
9505,12.71
9517,13.29
9529,13.07
9541,12.01
9553,10.14
9565,7.5
9577,4.13
9589,0.01
9601,-4.79
9613,-10.1
9625,-15.54
9637,-20.64
9648,-24.89
9659,-27.94
9671,-29.64
9683,-30.05
9695,-29.33
9707,-27.75
9719,-25.56
9731,-23.08
9743,-20.61
9755,-18.49
9767,-16.98
9779,-16.15
9791,-15.87
9803,-15.84
9815,-15.77
9827,-15.48
9838,-15.03
9849,-14.61
9861,-14.47
9873,-14.75
9885,-15.45
9897,-16.46
9909,-17.64
9921,-18.85
9933,-19.99
9945,-21.03
9957,-21.96
9969,-22.94
9981,-24.25
9993,-26.27
10005,-29.22
10017,-33.0
10028,-36.99
10039,-40.22
10051,-41.58
10063,-40.3
10075,-36.19
10087,-29.75
10099,-21.93
10111,-13.83
10123,-6.39
10135,-0.2
10147,4.47
10159,7.59
10171,9.27
10183,9.69
10195,9.04
10207,7.48
10218,5.11
10229,1.97
10241,-1.86
10253,-6.11
10265,-10.39
10277,-14.15
10289,-16.87
10301,-18.29
10313,-18.45
10325,-17.63
10337,-16.29
10349,-14.83
10361,-13.53
10373,-12.53
10385,-11.94
10397,-11.87
10408,-12.46
10419,-13.87
10431,-16.11
10443,-19.14
10455,-22.77
10467,-26.77
10479,-30.89
10491,-34.91
10503,-38.67
10515,-42.05
10527,-45.02
10539,-47.62
10551,-49.9
10563,-52.05
10575,-54.28
10587,-56.82
10598,-59.73
10609,-62.75
10621,-65.26
10633,-66.33
10645,-65.02
10657,-60.67
10669,-53.18
10681,-43.08
10693,-31.42
10705,-19.42
10717,-8.2
10729,1.48
10741,9.28
10753,15.23
10765,19.53
10777,22.46
10788,24.23
10799,24.92
10811,24.56
10823,23.22
10835,21.05
10847,18.33
10859,15.47
10871,12.89
10883,10.97
10895,9.93
10907,9.82
10919,10.51
10931,11.66
10943,12.85
10955,13.66
10967,13.77
10978,13.09
10989,11.7
11001,9.86
11013,7.73
11025,5.35
11037,2.56
11049,-0.91
11061,-5.27
11073,-10.51
11085,-16.4
11097,-22.55
11109,-28.61
11121,-34.38
11133,-39.8
11145,-44.94
11157,-49.95
11168,-54.96
11179,-60.05
11191,-65.19
11203,-70.03
11215,-73.97
11227,-76.14
11239,-75.62
11251,-71.77
11263,-64.49
11275,-54.37
11287,-42.52
11299,-30.3
11311,-18.88
11323,-9.11
11335,-1.37
11347,4.29
11358,8.03
11369,10.12
11381,10.85
11393,10.56
11405,9.66
11417,8.58
11429,7.73
11441,7.41
11453,7.73
11465,8.65
11477,9.99
11489,11.58
11501,13.28
11513,15.05
11525,16.85
11537,18.54
11548,19.92
11559,20.72
11571,20.74
11583,19.86
11595,18.11
11607,15.59
11619,12.45
11631,8.82
11643,4.82
11655,0.59
11667,-3.74
11679,-8.07
11691,-12.35
11703,-16.61
11715,-20.95
11727,-25.53
11738,-30.55
11749,-36.23
11761,-42.71
11773,-49.91
11785,-57.36
11797,-64.13
11809,-68.89
11821,-70.29
11833,-67.33
11845,-59.75
11857,-48.15
11869,-33.81
11881,-18.34
11893,-3.21
11905,10.53
11917,22.32
11928,31.95
11939,39.41
11951,44.74
11963,48.01
11975,49.4
11987,49.2
11999,47.89
12011,45.98
12023,43.89
12035,41.94
12047,40.29
12059,39.02
12071,38.18
12083,37.81
12095,37.91
12107,38.36
12118,38.9
12129,39.2
12141,38.97
12153,38.06
12165,36.47
12177,34.34
12189,31.79
12201,28.83
12213,25.37
12225,21.28
12237,16.54
12249,11.35
12261,5.98
12273,0.79
12285,-4.02
12297,-8.4
12308,-12.5
12319,-16.62
12331,-21.18
12343,-26.58
12355,-33.11
12367,-40.74
12379,-48.9
12391,-56.43
12403,-61.76
12415,-63.34
12427,-60.06
12439,-51.77
12451,-39.26
12463,-24.09
12475,-8.12
12487,6.98
12498,20.1
12509,30.71
12521,38.77
12533,44.54
12545,48.28
12557,50.21
12569,50.49
12581,49.27
12593,46.82
12605,43.53
12617,39.89
12629,36.4
12641,33.47
12653,31.38
12665,30.22
12677,29.95
12688,30.45
12699,31.52
12711,32.96
12723,34.5
12735,35.84
12747,36.72
12759,36.95
12771,36.39
12783,35.02
12795,32.92
12807,30.21
12819,27.1
12831,23.74
12843,20.26
12855,16.75
12867,13.17
12878,9.44
12889,5.48
12901,1.2
12913,-3.29
12925,-7.77
12937,-11.95
12949,-15.55
12961,-18.46
12973,-20.74
12985,-22.74
12997,-24.94
13009,-27.91
13021,-32.07
13033,-37.51
13045,-43.85
13057,-50.16
13068,-55.12
13079,-57.32
13091,-55.58
13103,-49.33
13115,-38.78
13127,-24.85
13139,-8.96
13151,7.23
13163,22.22
13175,34.83
13187,44.38
13199,50.7
13211,54.01
13223,54.76
13235,53.48
13247,50.7
13258,46.89
13269,42.52
13281,38.01
13293,33.79
13305,30.21
13317,27.53
13329,25.86
13341,25.22
13353,25.52
13365,26.62
13377,28.31
13389,30.26
13401,32.08
13413,33.35
13425,33.68
13437,32.87
13448,30.92
13459,28.02
13471,24.45
13483,20.48
13495,16.31
13507,11.95
13519,7.37
13531,2.49
13543,-2.63
13555,-7.82
13567,-12.8
13579,-17.24
13591,-20.96
13603,-23.99
13615,-26.61
13627,-29.3
13638,-32.66
13649,-37.13
13661,-42.85
13673,-49.37
13685,-55.65
13697,-60.23
13709,-61.55
13721,-58.44
13733,-50.53
13745,-38.37
13757,-23.34
13769,-7.19
13781,8.31
13793,21.79
13805,32.46
13817,40.07
13828,44.76
13839,46.97
13851,47.17
13863,45.85
13875,43.42
13887,40.27
13899,36.79
13911,33.33
13923,30.21
13935,27.7
13947,25.97
13959,25.06
13971,25.01
13983,25.75
13995,27.17
14007,29.08
14018,31.15
14029,32.93
14041,33.94
14053,33.84
14065,32.49
14077,30.02
14089,26.74
14101,23.01
14113,19.08
14125,15.08
14137,10.94
14149,6.62
14161,2.12
14173,-2.45
14185,-6.86
14197,-10.89
14208,-14.43
14219,-17.54
14231,-20.48
14243,-23.67
14255,-27.55
14267,-32.43
14279,-38.3
14291,-44.65
14303,-50.42
14315,-54.2
14327,-54.61
14339,-50.7
14351,-42.34
14363,-30.29
14375,-16.04
14387,-1.42
14398,11.91
14409,22.71
14421,30.39
14433,34.97
14445,36.9
14457,36.84
14469,35.46
14481,33.31
14493,30.72
14505,27.89
14517,24.93
14529,21.98
14541,19.24
14553,16.93
14565,15.23
14577,14.23
14588,13.89
14599,14.08
14611,14.64
14623,15.41
14635,16.22
14647,16.89
14659,17.23
14671,17.0
14683,15.99
14695,14.13
14707,11.52
14719,8.47
14731,5.37
14743,2.55
14755,0.12
14767,-2.08
14778,-4.43
14789,-7.3
14801,-10.84
14813,-14.86
14825,-18.94
14837,-22.58
14849,-25.45
14861,-27.56
14873,-29.21
14885,-30.88
14897,-33.05
14909,-36.09
14921,-40.16
14933,-45.18
14945,-50.76
14957,-56.08
14968,-59.95
14979,-61.01
14991,-58.15
15003,-50.87
15015,-39.64
15027,-25.71
15039,-10.81
15051,3.39
15063,15.64
15075,25.31
15087,32.28
15099,36.7
15111,38.89
15123,39.2
15135,37.99
15147,35.7
15158,32.73
15169,29.49
15181,26.33
15193,23.52
15205,21.32
15217,19.9
15229,19.36
15241,19.67
15253,20.67
15265,22.1
15277,23.69
15289,25.23
15301,26.58
15313,27.64
15325,28.32
15337,28.48
15348,27.99
15359,26.77
15371,24.87
15383,22.47
15395,19.74
15407,16.86
15419,13.88
15431,10.84
15443,7.7
15455,4.5
15467,1.29
15479,-1.8
15491,-4.73
15503,-7.46
15515,-10.06
15527,-12.66
15538,-15.35
15549,-18.18
15561,-21.14
15573,-24.17
15585,-27.17
15597,-30.15
15609,-33.23
15621,-36.73
15633,-40.98
15645,-46.15
15657,-52.01
15669,-57.79
15681,-62.2
15693,-63.82
15705,-61.53
15717,-54.9
15728,-44.47
15739,-31.57
15751,-17.85
15763,-4.84
15775,6.44
15787,15.56
15799,22.56
15811,27.62
15823,30.97
15835,32.74
15847,33.07
15859,32.2
15871,30.48
15883,28.36
15895,26.31
15907,24.67
15918,23.69
15929,23.52
15941,24.14
15953,25.41
15965,27.09
15977,28.89
15989,30.48
16001,31.64
16013,32.27
16025,32.37
16037,32.0
16049,31.25
16061,30.18
16073,28.81
16085,27.12
16097,25.05
16108,22.6
16119,19.85
16131,16.97
16143,14.19
16155,11.65
16167,9.32
16179,6.95
16191,4.23
16203,0.97
16215,-2.73
16227,-6.46
16239,-9.7
16251,-12.08
16263,-13.58
16275,-14.67
16287,-16.1
16298,-18.66
16309,-22.82
16321,-28.53
16333,-35.15
16345,-41.55
16357,-46.36
16369,-48.3
16381,-46.56
16393,-40.97
16405,-32.14
16417,-21.23
16429,-9.67
16441,1.19
16453,10.32
16465,17.17
16477,21.61
16488,23.86
16499,24.37
16511,23.67
16523,22.25
16535,20.4
16547,18.21
16559,15.64
16571,12.64
16583,9.28
16595,5.8
16607,2.6
16619,0.05
16631,-1.54
16643,-2.07
16655,-1.56
16667,-0.2
16678,1.79
16689,4.12
16701,6.46
16713,8.51
16725,10.01
16737,10.86
16749,11.13
16761,11.01
16773,10.72
16785,10.44
16797,10.18
16809,9.83
16821,9.17
16833,8.04
16845,6.41
16857,4.48
16868,2.54
16879,0.9
16891,-0.34
16903,-1.35
16915,-2.44
16927,-3.93
16939,-5.89
16951,-8.0
16963,-9.61
16975,-9.93
16987,-8.26
16999,-4.21
17011,2.21
17023,10.55
17035,20.0
17047,29.42
17058,37.56
17069,43.28
17081,45.68
17093,44.44
17105,39.75
17117,32.24
17129,22.82
17141,12.39
17153,1.67
17165,-8.85
17177,-18.9
17189,-28.37
17201,-37.12
17213,-44.97
17225,-51.62
17237,-56.71
17248,-59.96
17259,-61.34
17271,-61.15
17283,-60.04
17295,-58.88
17307,-58.47
17319,-59.4
17331,-61.82
17343,-65.44
17355,-69.61
17367,-73.6
17379,-76.81
17391,-79.01
17403,-80.46
17415,-81.83
17427,-83.9
17438,-87.22
17449,-91.82
17461,-97.1
17473,-101.98
17485,-105.28
17497,-106.08
17509,-104.02
17521,-99.36
17533,-92.85
17545,-85.46
17557,-78.14
17569,-71.53
17581,-65.86
17593,-60.86
17605,-55.77
17617,-49.56
17628,-41.11
17639,-29.6
17651,-14.83
17663,2.71
17675,21.79
17687,40.76
17699,57.95
17711,72.07
17723,82.46
17735,89.13
17747,92.61
17759,93.65
17771,93.01
17783,91.31
17795,88.93
17807,86.11
17818,83.0
17829,79.71
17841,76.44
17853,73.42
17865,70.87
17877,69.01
17889,67.87
17901,67.31
17913,67.0
17925,66.47
17937,65.3
17949,63.21
17961,60.14
17973,56.2
17985,51.6
17997,46.55
18008,41.13
18019,35.35
18031,29.14
18043,22.53
18055,15.56
18067,8.41
18079,1.3
18091,-5.53
18103,-11.87
18115,-17.62
18127,-22.8
18139,-27.62
18151,-32.39
18163,-37.5
18175,-43.24
18187,-49.66
18198,-56.35
18209,-62.41
18221,-66.6
18233,-67.55
18245,-64.34
18257,-56.71
18269,-45.29
18281,-31.45
18293,-16.9
18305,-3.23
18317,8.38
18329,17.35
18341,23.69
18353,27.68
18365,29.73
18377,30.25
18388,29.51
18399,27.73
18411,25.14
18423,22.04
18435,18.8
18447,15.83
18459,13.47
18471,11.9
18483,11.14
18495,11.06
18507,11.53
18519,12.39
18531,13.49
18543,14.63
18555,15.58
18567,16.06
18578,15.84
18589,14.82
18601,13.01
18613,10.57
18625,7.7
18637,4.66
18649,1.66
18661,-1.09
18673,-3.4
18685,-5.2
18697,-6.55
18709,-7.63
18721,-8.72
18733,-10.11
18745,-11.97
18757,-14.31
18768,-16.94
18779,-19.6
18791,-22.06
18803,-24.15
18815,-25.92
18827,-27.61
18839,-29.54
18851,-32.12
18863,-35.68
18875,-40.34
18887,-45.88
18899,-51.68
18911,-56.66
18923,-59.58
18935,-59.21
18947,-54.76
18958,-46.13
18969,-34.01
18981,-19.73
18993,-4.93
19005,8.86
19017,20.48
19029,29.35
19041,35.36
19053,38.77
19065,39.94
19077,39.24
19089,37.05
19101,33.77
19113,29.86
19125,25.78
19137,21.98
19148,18.73
19159,16.22
19171,14.44
19183,13.37
19195,12.95
19207,13.12
19219,13.78
19231,14.74
19243,15.78
19255,16.67
19267,17.19
19279,17.19
19291,16.56
19303,15.21
19315,13.07
19327,10.19
19338,6.73
19349,3.01
19361,-0.62
19373,-3.95
19385,-6.96
19397,-9.84
19409,-12.87
19421,-16.26
19433,-20.01
19445,-23.96
19457,-27.85
19469,-31.48
19481,-34.8
19493,-37.96
19505,-41.15
19517,-44.54
19528,-48.21
19539,-52.15
19551,-56.26
19563,-60.31
19575,-63.86
19587,-66.16
19599,-66.23
19611,-63.08
19623,-56.15
19635,-45.54
19647,-32.09
19659,-17.21
19671,-2.43
19683,10.96
19695,22.15
19707,30.82
19718,36.97
19729,40.74
19741,42.34
19753,42.09
19765,40.44
19777,37.98
19789,35.34
19801,33.06
19813,31.48
19825,30.71
19837,30.61
19849,30.99
19861,31.67
19873,32.51
19885,33.46
19897,34.44
19908,35.31
19919,35.89
19931,35.95
19943,35.31
19955,33.92
19967,31.81
19979,29.1
19991,25.9
20003,22.32
20015,18.45
20027,14.39
20039,10.24
20051,6.07
20063,2.01
20075,-1.81
20087,-5.26
20098,-8.21
20109,-10.7
20121,-12.91
20133,-15.23
20145,-18.17
20157,-22.18
20169,-27.37
20181,-33.35
20193,-39.11
20205,-43.17
20217,-43.95
20229,-40.23
20241,-31.57
20253,-18.56
20265,-2.63
20277,14.25
20288,30.11
20299,43.38
20311,53.09
20323,58.9
20335,60.89
20347,59.44
20359,55.1
20371,48.51
20383,40.37
20395,31.43
20407,22.39
20419,13.83
20431,6.23
20443,-0.04
20455,-4.67
20467,-7.45
20478,-8.3
20489,-7.39
20501,-5.15
20513,-2.2
20525,0.72
20537,3.05
20549,4.44
20561,4.88
20573,4.6
20585,3.94
20597,3.18
20609,2.47
20621,1.81
20633,1.04
20645,-0.05
20657,-1.71
20668,-4.15
20679,-7.52
20691,-11.82
20703,-16.87
20715,-22.28
20727,-27.61
20739,-32.42
20751,-36.55
20763,-40.16
20775,-43.72
20787,-47.73
20799,-52.45
20811,-57.6
20823,-62.26
20835,-65.1
20847,-64.75
20858,-60.24
20869,-51.35
20881,-38.71
20893,-23.65
20905,-7.83
20917,7.14
20929,20.11
20941,30.51
20953,38.3
20965,43.81
20977,47.49
20989,49.69
