seconds,BVP
9,5.68
21,3.66
33,1.63
45,-0.42
57,-2.46
69,-4.45
81,-6.4
93,-8.35
105,-10.33
117,-12.41
129,-14.56
141,-16.71
153,-18.75
165,-20.58
176,-22.2
187,-23.72
199,-25.3
211,-27.08
223,-29.18
235,-31.66
247,-34.49
259,-37.55
271,-40.55
283,-42.99
295,-44.27
307,-43.79
319,-41.18
331,-36.39
343,-29.8
355,-22.05
366,-13.89
377,-5.97
389,1.22
401,7.39
413,12.42
425,16.22
437,18.8
449,20.26
461,20.75
473,20.48
485,19.73
497,18.67
509,17.54
521,16.54
533,15.88
545,15.73
556,16.14
567,16.99
579,18.05
591,19.0
603,19.56
615,19.57
627,19.03
639,18.07
651,16.85
663,15.55
675,14.22
687,12.77
699,11.07
711,8.97
723,6.41
735,3.52
746,0.53
757,-2.24
769,-4.59
781,-6.5
793,-8.12
805,-9.66
817,-11.29
829,-13.05
841,-14.84
853,-16.54
865,-18.12
877,-19.64
889,-21.27
901,-23.15
913,-25.4
925,-28.01
936,-30.95
947,-34.2
959,-37.71
971,-41.36
983,-44.84
995,-47.55
1007,-48.8
1019,-47.91
1031,-44.55
1043,-38.83
1055,-31.34
1067,-22.99
1079,-14.74
1091,-7.32
1103,-1.17
1115,3.67
1126,7.34
1137,10.04
1149,11.9
1161,12.93
1173,13.07
1185,12.37
1197,11.02
1209,9.43
1221,8.09
1233,7.4
1245,7.5
1257,8.25
1269,9.37
1281,10.55
1293,11.58
1305,12.36
1316,12.83
1327,12.89
1339,12.39
1351,11.18
1363,9.24
1375,6.73
1387,3.96
1399,1.31
1411,-0.96
1423,-2.76
1435,-4.18
1447,-5.45
1459,-6.75
1471,-8.13
1483,-9.45
1495,-10.58
1506,-11.42
1517,-12.03
1529,-12.63
1541,-13.56
1553,-15.06
1565,-17.26
1577,-20.03
1589,-23.09
1601,-25.95
1613,-28.02
1625,-28.67
1637,-27.41
1649,-23.95
1661,-18.39
1673,-11.22
1685,-3.2
1696,4.84
1707,12.24
1719,18.56
1731,23.61
1743,27.35
1755,29.82
1767,31.02
1779,31.04
1791,30.05
1803,28.31
1815,26.19
1827,24.05
1839,22.16
1851,20.68
1863,19.57
1875,18.76
1886,18.13
1897,17.6
1909,17.1
1921,16.67
1933,16.32
1945,16.05
1957,15.78
1969,15.37
1981,14.61
1993,13.32
2005,11.46
2017,9.08
2029,6.36
2041,3.45
2053,0.44
2065,-2.69
2076,-6.01
2087,-9.57
2099,-13.34
2111,-17.23
2123,-21.22
2135,-25.32
2147,-29.63
2159,-34.08
2171,-38.36
2183,-41.79
2195,-43.59
2207,-43.05
2219,-39.88
2231,-34.27
2243,-26.85
2255,-18.47
2266,-9.87
2277,-1.63
2289,5.93
2301,12.58
2313,18.12
2325,22.3
2337,24.9
2349,25.83
2361,25.26
2373,23.64
2385,21.53
2397,19.47
2409,17.85
2421,16.78
2433,16.15
2445,15.74
2456,15.4
2467,15.02
2479,14.57
2491,14.01
2503,13.27
2515,12.24
2527,10.88
2539,9.23
2551,7.41
2563,5.55
2575,3.67
2587,1.63
2599,-0.74
2611,-3.6
2623,-6.95
2635,-10.58
2646,-14.23
2657,-17.69
2669,-20.94
2681,-24.13
2693,-27.48
2705,-31.16
2717,-35.12
2729,-39.16
2741,-42.88
2753,-45.73
2765,-47.1
2777,-46.4
2789,-43.2
2801,-37.32
2813,-29.05
2825,-19.07
2836,-8.35
2847,2.13
2859,11.56
2871,19.49
2883,25.77
2895,30.42
2907,33.54
2919,35.21
2931,35.59
2943,34.89
2955,33.48
2967,31.74
2979,30.04
2991,28.56
3003,27.38
3015,26.43
3026,25.64
3037,24.91
3049,24.12
3061,23.16
3073,21.87
3085,20.1
3097,17.8
3109,15.03
3121,11.92
3133,8.67
3145,5.43
3157,2.31
3169,-0.65
3181,-3.41
3193,-5.92
3205,-8.11
3216,-9.92
3227,-11.31
3239,-12.36
3251,-13.23
3263,-14.14
3275,-15.37
3287,-17.17
3299,-19.78
3311,-23.31
3323,-27.68
3335,-32.51
3347,-37.07
3359,-40.4
3371,-41.48
3383,-39.59
3395,-34.58
3406,-26.89
3417,-17.43
3429,-7.31
3441,2.46
3453,11.16
3465,18.39
3477,23.98
3489,27.92
3501,30.22
3513,31.05
3525,30.67
3537,29.47
3549,27.9
3561,26.37
3573,25.14
3585,24.28
3596,23.77
3607,23.47
3619,23.32
3631,23.29
3643,23.37
3655,23.47
3667,23.44
3679,23.04
3691,22.09
3703,20.52
3715,18.42
3727,16.0
3739,13.5
3751,11.09
3763,8.89
3775,6.89
3786,5.01
3797,3.07
3809,0.9
3821,-1.62
3833,-4.44
3845,-7.35
3857,-10.08
3869,-12.39
3881,-14.25
3893,-15.88
3905,-17.59
3917,-19.77
3929,-22.68
3941,-26.44
3953,-30.94
3965,-35.83
3976,-40.48
3987,-44.03
3999,-45.52
4011,-44.21
4023,-39.8
4035,-32.66
4047,-23.63
4059,-13.8
4071,-4.15
4083,4.69
4095,12.42
4107,18.92
4119,24.1
4131,27.82
4143,30.0
4155,30.73
4166,30.32
4177,29.25
4189,28.02
4201,26.95
4213,26.17
4225,25.59
4237,25.1
4249,24.63
4261,24.19
4273,23.76
4285,23.26
4297,22.5
4309,21.29
4321,19.51
4333,17.19
4345,14.44
4356,11.41
4367,8.23
4379,5.01
4391,1.84
4403,-1.23
4415,-4.12
4427,-6.83
4439,-9.41
4451,-11.9
4463,-14.36
4475,-16.72
4487,-18.94
4499,-20.96
4511,-22.81
4523,-24.67
4535,-26.74
4546,-29.26
4557,-32.28
4569,-35.55
4581,-38.54
4593,-40.43
4605,-40.38
4617,-37.7
4629,-32.14
4641,-24.02
4653,-14.17
4665,-3.67
4677,6.34
4689,15.04
4701,21.96
4713,26.93
4725,30.04
4736,31.44
4747,31.3
4759,29.85
4771,27.42
4783,24.49
4795,21.62
4807,19.35
4819,17.98
4831,17.54
4843,17.67
4855,17.92
4867,17.79
4879,17.01
4891,15.55
4903,13.59
4915,11.34
4926,8.96
4937,6.4
4949,3.48
4961,-0.07
4973,-4.39
4985,-9.43
4997,-14.85
5009,-20.08
5021,-24.5
5033,-27.67
5045,-29.53
5057,-30.47
5069,-31.32
5081,-32.99
5093,-36.09
5105,-40.57
5116,-45.49
5127,-49.13
5139,-49.4
5151,-44.46
5163,-33.38
5175,-16.54
5187,4.43
5199,26.98
5211,48.38
5223,66.47
5235,80.3
5247,90.34
5259,98.12
5271,105.37
5283,113.29
5295,121.96
5306,130.27
5317,136.25
5329,137.85
5341,133.61
5353,123.33
5365,108.16
5377,90.3
5389,72.58
5401,57.8
5413,47.91
5425,43.25
5437,42.57
5449,43.45
5461,43.45
5473,40.93
5485,35.41
5496,27.61
5507,18.8
5519,10.06
5531,1.83
5543,-6.01
5555,-13.62
5567,-20.72
5579,-25.83
5591,-27.47
5603,-25.31
5615,-20.52
5627,-14.96
5639,-10.25
5651,-7.18
5663,-5.64
5675,-6.33
5686,-8.45
5697,-11.11
5709,-13.38
5721,-14.26
5733,-12.89
5745,-9.07
5757,-3.77
5769,0.65
5781,4.48
5793,6.26
5805,4.81
5817,0.3
5829,-5.55
5841,-10.17
5853,-11.33
5865,-8.15
5876,-1.31
5887,7.4
5899,15.69
5911,21.84
5923,25.19
5935,26.02
5947,24.97
5959,22.53
5971,18.78
5983,13.64
5995,7.36
6007,0.53
6019,-5.78
6031,-10.41
6043,-12.84
6055,-13.54
6066,-13.79
6077,-15.03
6089,-18.13
6101,-22.96
6113,-28.7
6125,-34.22
6137,-38.73
6149,-42.11
6161,-44.82
6173,-47.47
6185,-50.23
6197,-52.57
6209,-53.39
6221,-51.67
6233,-46.83
6245,-39.2
6256,-29.89
6267,-20.38
6279,-11.92
6291,-5.08
6303,0.19
6315,4.17
6327,6.87
6339,7.91
6351,6.75
6363,3.28
6375,-1.76
6387,-6.64
6399,-9.36
6411,-8.39
6423,-3.51
6435,4.04
6446,12.02
6457,18.1
6469,20.67
6481,19.26
6493,14.35
6505,6.91
6517,-2.11
6529,-11.96
6541,-22.05
6553,-31.83
6565,-40.66
6577,-47.9
6589,-53.04
6601,-55.97
6613,-56.95
6625,-56.52
6636,-55.3
6647,-53.8
6659,-52.29
6671,-50.77
6683,-49.14
6695,-47.32
6707,-45.38
6719,-43.52
6731,-42.02
6743,-41.1
6755,-40.79
6767,-40.94
6779,-41.27
6791,-41.52
6803,-41.56
6815,-41.4
6826,-41.14
6837,-40.93
6849,-40.86
6861,-41.01
6873,-41.4
6885,-42.01
6897,-42.75
6909,-43.49
6921,-44.03
6933,-44.27
6945,-44.26
6957,-44.23
6969,-44.48
6981,-45.21
6993,-46.24
7005,-46.99
7016,-46.56
7027,-44.01
7039,-38.75
7051,-30.8
7063,-20.77
7075,-9.73
7087,1.16
7099,10.98
7111,19.17
7123,25.54
7135,30.13
7147,33.11
7159,34.6
7171,34.78
7183,33.86
7195,32.19
7206,30.22
7217,28.33
7229,26.78
7241,25.58
7253,24.57
7265,23.55
7277,22.41
7289,21.25
7301,20.29
7313,19.63
7325,19.22
7337,18.7
7349,17.63
7361,15.72
7373,12.9
7385,9.43
7396,5.64
7407,1.82
7419,-1.96
7431,-5.77
7443,-9.71
7455,-13.8
7467,-17.93
7479,-21.9
7491,-25.49
7503,-28.53
7515,-30.97
7527,-32.86
7539,-34.38
7551,-35.82
7563,-37.49
7575,-39.67
7586,-42.41
7597,-45.41
7609,-48.13
7621,-49.78
7633,-49.61
7645,-47.06
7657,-42.0
7669,-34.75
7681,-25.97
7693,-16.56
7705,-7.39
7717,0.94
7729,8.15
7741,14.17
7753,19.06
7765,22.85
7776,25.5
7787,26.97
7799,27.39
7811,27.03
7823,26.33
7835,25.74
7847,25.56
7859,25.88
7871,26.57
7883,27.37
7895,27.94
7907,28.03
7919,27.49
7931,26.32
7943,24.64
7955,22.66
7966,20.58
7977,18.51
7989,16.43
8001,14.21
8013,11.71
8025,8.79
8037,5.48
8049,1.92
8061,-1.76
8073,-5.41
8085,-8.98
8097,-12.51
8109,-16.05
8121,-19.65
8133,-23.38
8145,-27.35
8156,-31.83
8167,-37.12
8179,-43.41
8191,-50.57
8203,-58.01
8215,-64.68
8227,-69.28
8239,-70.69
8251,-68.25
8263,-62.03
8275,-52.8
8287,-41.74
8299,-30.13
8311,-18.97
8323,-8.83
8335,0.08
8346,7.84
8357,14.54
8369,20.27
8381,25.04
8393,28.91
8405,31.95
8417,34.34
8429,36.27
8441,37.9
8453,39.3
8465,40.47
8477,41.4
8489,42.12
8501,42.7
8513,43.24
8525,43.77
8536,44.12
8547,43.95
8559,42.94
8571,40.82
8583,37.61
8595,33.61
8607,29.26
8619,24.95
8631,20.91
8643,17.12
8655,13.45
8667,9.7
8679,5.78
8691,1.64
8703,-2.75
8715,-7.41
8726,-12.3
8737,-17.31
8749,-22.23
8761,-26.95
8773,-31.54
8785,-36.34
8797,-41.81
8809,-48.23
8821,-55.39
8833,-62.42
8845,-68.01
8857,-70.8
8869,-69.83
8881,-64.88
8893,-56.48
8905,-45.67
8916,-33.61
8927,-21.29
8939,-9.34
8951,1.84
8963,12.06
8975,21.11
8987,28.81
8999,34.98
9011,39.58
9023,42.71
9035,44.64
9047,45.71
9059,46.28
9071,46.63
9083,46.93
9095,47.33
9106,47.93
9117,48.74
9129,49.76
9141,50.83
9153,51.72
9165,52.2
9177,52.08
9189,51.28
9201,49.8
9213,47.71
9225,45.07
9237,41.9
9249,38.25
9261,34.21
9273,29.94
9285,25.68
9296,21.63
9307,17.82
9319,14.07
9331,10.07
9343,5.48
9355,0.17
9367,-5.71
9379,-11.8
9391,-17.6
9403,-22.74
9415,-27.1
9427,-30.82
9439,-34.22
9451,-37.76
9463,-41.88
9475,-46.95
9486,-53.15
9497,-60.34
9509,-67.9
9521,-74.7
9533,-79.39
9545,-80.7
9557,-77.78
9569,-70.55
9581,-59.63
9593,-46.18
9605,-31.57
9617,-17.04
9629,-3.56
9641,8.34
9653,18.43
9665,26.77
9676,33.49
9687,38.77
9699,42.75
9711,45.58
9723,47.45
9735,48.62
9747,49.38
9759,50.02
9771,50.71
9783,51.51
9795,52.36
9807,53.15
9819,53.78
9831,54.13
9843,54.1
9855,53.61
9866,52.59
9877,50.95
9889,48.68
9901,45.85
9913,42.62
9925,39.22
9937,35.81
9949,32.49
9961,29.22
9973,25.88
9985,22.39
9997,18.74
10009,15.04
10021,11.45
10033,8.1
10045,4.97
10056,1.93
10067,-1.24
10079,-4.73
10091,-8.58
10103,-12.68
10115,-16.85
10127,-20.9
10139,-24.79
10151,-28.61
10163,-32.56
10175,-36.93
10187,-41.92
10199,-47.62
10211,-53.86
10223,-60.16
10235,-65.67
10246,-69.32
10257,-70.02
10269,-66.97
10281,-59.93
10293,-49.36
10305,-36.3
10317,-22.09
10329,-8.03
10341,4.91
10353,16.14
10365,25.41
10377,32.66
10389,37.95
10401,41.42
10413,43.33
10425,44.1
10436,44.25
10447,44.28
10459,44.53
10471,45.12
10483,45.96
10495,46.87
10507,47.66
10519,48.31
10531,48.85
10543,49.35
10555,49.79
10567,49.97
10579,49.58
10591,48.23
10603,45.62
10615,41.79
10626,36.96
10637,31.64
10649,26.3
10661,21.22
10673,16.42
10685,11.63
10697,6.56
10709,1.03
10721,-4.84
10733,-10.74
10745,-16.28
10757,-21.28
10769,-25.82
10781,-30.26
10793,-35.04
10805,-40.49
10816,-46.74
10827,-53.56
10839,-60.49
10851,-66.79
10863,-71.6
10875,-73.95
10887,-73.03
10899,-68.36
10911,-60.02
10923,-48.72
10935,-35.61
10947,-21.97
10959,-8.82
10971,3.21
10983,13.79
10995,22.77
11006,29.95
11017,35.11
11029,38.19
11041,39.36
11053,39.08
11065,38.02
11077,36.73
11089,35.58
11101,34.67
11113,33.97
11125,33.43
11137,33.07
11149,32.95
11161,33.0
11173,32.99
11185,32.6
11196,31.54
11207,29.75
11219,27.4
11231,24.78
11243,22.18
11255,19.63
11267,16.95
11279,13.81
11291,9.99
11303,5.47
11315,0.47
11327,-4.66
11339,-9.6
11351,-14.21
11363,-18.51
11375,-22.66
11386,-26.91
11397,-31.48
11409,-36.56
11421,-42.28
11433,-48.67
11445,-55.51
11457,-62.25
11469,-67.91
11481,-71.25
11493,-71.09
11505,-66.67
11517,-58.07
11529,-46.26
11541,-32.83
11553,-19.49
11565,-7.55
11576,2.37
11587,10.33
11599,16.73
11611,21.9
11623,25.95
11635,28.72
11647,30.08
11659,30.12
11671,29.19
11683,27.85
11695,26.58
11707,25.7
11719,25.28
11731,25.22
11743,25.37
11755,25.59
11766,25.7
11777,25.47
11789,24.61
11801,22.89
11813,20.28
11825,16.97
11837,13.28
11849,9.54
11861,5.88
11873,2.19
11885,-1.78
11897,-6.18
11909,-11.04
11921,-16.16
11933,-21.28
11945,-26.18
11956,-30.79
11967,-35.2
11979,-39.6
11991,-44.19
12003,-49.23
12015,-54.9
12027,-61.17
12039,-67.69
12051,-73.58
12063,-77.54
12075,-78.27
12087,-74.78
12099,-66.89
12111,-55.28
12123,-41.23
12135,-26.27
12146,-11.73
12157,1.49
12169,12.87
12181,22.16
12193,29.27
12205,34.25
12217,37.3
12229,38.81
12241,39.31
12253,39.34
12265,39.36
12277,39.58
12289,40.04
12301,40.54
12313,40.82
12325,40.64
12336,39.9
12347,38.69
12359,37.24
12371,35.87
12383,34.76
12395,33.81
12407,32.75
12419,31.18
12431,28.84
12443,25.7
12455,22.01
12467,18.12
12479,14.38
12491,10.96
12503,7.84
12515,4.84
12526,1.68
12537,-1.96
12549,-6.38
12561,-11.8
12573,-18.31
12585,-25.71
12597,-33.44
12609,-40.54
12621,-45.82
12633,-48.11
12645,-46.61
12657,-41.19
12669,-32.35
12681,-21.18
12693,-8.97
12705,3.08
12716,14.06
12727,23.43
12739,30.91
12751,36.37
12763,39.78
12775,41.25
12787,41.04
12799,39.65
12811,37.67
12823,35.72
12835,34.18
12847,33.12
12859,32.27
12871,31.16
12883,29.39
12895,26.76
12906,23.39
12917,19.65
12929,15.87
12941,12.25
12953,8.75
12965,5.12
12977,1.11
12989,-3.41
13001,-8.41
13013,-13.68
13025,-18.97
13037,-24.07
13049,-28.88
13061,-33.34
13073,-37.53
13085,-41.61
13096,-45.81
13107,-50.4
13119,-55.51
13131,-60.98
13143,-66.25
13155,-70.34
13167,-72.1
13179,-70.59
13191,-65.35
13203,-56.63
13215,-45.27
13227,-32.48
13239,-19.47
13251,-7.22
13263,3.66
13275,12.8
13286,20.08
13297,25.48
13309,29.11
13321,31.19
13333,32.09
13345,32.28
13357,32.22
13369,32.27
13381,32.62
13393,33.28
13405,34.08
13417,34.85
13429,35.38
13441,35.51
13453,35.16
13465,34.27
13476,32.78
13487,30.62
13499,27.76
13511,24.19
13523,20.0
13535,15.35
13547,10.49
13559,5.67
13571,1.07
13583,-3.36
13595,-7.85
13607,-12.8
13619,-18.6
13631,-25.32
13643,-32.54
13655,-39.35
13666,-44.46
13677,-46.71
13689,-45.32
13701,-40.21
13713,-31.94
13725,-21.58
13737,-10.28
13749,0.91
13761,11.16
13773,19.87
13785,26.58
13797,30.98
13809,32.97
13821,32.66
13833,30.5
13845,27.15
13856,23.32
13867,19.6
13879,16.39
13891,13.79
13903,11.69
13915,9.94
13927,8.4
13939,6.97
13951,5.64
13963,4.33
13975,2.96
13987,1.38
13999,-0.57
14011,-2.95
14023,-5.64
14035,-8.38
14046,-10.84
14057,-12.8
14069,-14.27
14081,-15.6
14093,-17.3
14105,-19.96
14117,-23.94
14129,-29.3
14141,-35.57
14153,-41.85
14165,-46.94
14177,-49.54
14189,-48.67
14201,-43.97
14213,-35.77
14225,-25.0
14236,-12.91
14247,-0.73
14259,10.61
14271,20.55
14283,28.78
14295,35.2
14307,39.73
14319,42.36
14331,43.24
14343,42.67
14355,41.14
14367,39.21
14379,37.39
14391,35.99
14403,35.07
14415,34.45
14426,33.84
14437,32.96
14449,31.68
14461,29.96
14473,27.89
14485,25.48
14497,22.66
14509,19.28
14521,15.29
14533,10.74
14545,5.88
14557,0.99
14569,-3.74
14581,-8.29
14593,-12.86
14605,-17.77
14616,-23.35
14627,-29.78
14639,-37.02
14651,-44.67
14663,-52.0
14675,-57.97
14687,-61.4
14699,-61.33
14711,-57.23
14723,-49.27
14735,-38.3
14747,-25.61
14759,-12.55
14771,-0.19
14783,10.76
14795,19.97
14806,27.25
14817,32.51
14829,35.7
14841,36.86
14853,36.3
14865,34.54
14877,32.32
14889,30.36
14901,29.21
14913,29.08
14925,29.79
14937,30.85
14949,31.65
14961,31.66
14973,30.67
14985,28.86
14996,26.61
15007,24.29
15019,22.06
15031,19.75
15043,16.97
15055,13.41
15067,9.06
15079,4.19
15091,-0.72
15103,-5.25
15115,-9.21
15127,-12.67
15139,-15.94
15151,-19.35
15163,-23.25
15175,-27.91
15186,-33.47
15197,-39.88
15209,-46.7
15221,-53.08
15233,-57.86
15245,-59.8
15257,-58.01
15269,-52.23
15281,-42.99
15293,-31.37
15305,-18.8
15317,-6.58
15329,4.34
15341,13.43
15353,20.52
15365,25.61
15376,28.74
15387,30.05
15399,29.76
15411,28.33
15423,26.39
15435,24.57
15447,23.32
15459,22.82
15471,22.95
15483,23.47
15495,24.13
15507,24.76
15519,25.28
15531,25.57
15543,25.49
15555,24.84
15566,23.53
15577,21.59
15589,19.16
15601,16.41
15613,13.45
15625,10.25
15637,6.76
15649,2.97
15661,-1.03
15673,-5.12
15685,-9.15
15697,-13.05
15709,-16.76
15721,-20.26
15733,-23.57
15745,-26.75
15756,-30.07
15767,-33.83
15779,-38.32
15791,-43.52
15803,-48.92
15815,-53.5
15827,-55.98
15839,-55.22
15851,-50.63
15863,-42.41
15875,-31.42
15887,-18.92
15899,-6.17
15911,5.82
15923,16.42
15935,25.28
15946,32.17
15957,37.01
15969,39.84
15981,40.87
15993,40.51
16005,39.26
16017,37.62
16029,35.97
16041,34.58
16053,33.62
16065,33.13
16077,33.06
16089,33.3
16101,33.61
16113,33.77
16125,33.6
16136,33.01
16147,31.96
16159,30.4
16171,28.26
16183,25.48
16195,22.08
16207,18.28
16219,14.41
16231,10.8
16243,7.58
16255,4.64
16267,1.65
16279,-1.79
16291,-5.88
16303,-10.6
16315,-15.62
16326,-20.51
16337,-24.94
16349,-28.78
16361,-32.17
16373,-35.5
16385,-39.24
16397,-43.69
16409,-48.83
16421,-54.15
16433,-58.67
16445,-61.23
16457,-60.8
16469,-56.83
16481,-49.46
16493,-39.46
16505,-27.98
16516,-16.3
16527,-5.49
16539,3.7
16551,10.86
16563,15.92
16575,18.97
16587,20.23
16599,19.99
16611,18.67
16623,16.75
16635,14.77
16647,13.21
16659,12.39
16671,12.44
16683,13.24
16695,14.52
16706,15.98
16717,17.33
16729,18.38
16741,19.04
16753,19.29
16765,19.12
16777,18.56
16789,17.62
16801,16.3
16813,14.54
16825,12.26
16837,9.38
16849,5.86
16861,1.8
16873,-2.59
16885,-6.98
16896,-11.07
16907,-14.69
16919,-17.85
16931,-20.81
16943,-23.88
16955,-27.35
16967,-31.41
16979,-36.01
16991,-40.88
17003,-45.51
17015,-49.23
17027,-51.22
17039,-50.69
17051,-47.16
17063,-40.57
17075,-31.46
17086,-20.8
17097,-9.8
17109,0.4
17121,9.0
17133,15.57
17145,20.02
17157,22.44
17169,23.06
17181,22.21
17193,20.31
17205,17.86
17217,15.4
17229,13.4
17241,12.14
17253,11.66
17265,11.79
17276,12.19
17287,12.52
17299,12.52
17311,12.06
17323,11.1
17335,9.67
17347,7.82
17359,5.53
17371,2.76
17383,-0.5
17395,-4.22
17407,-8.25
17419,-12.37
17431,-16.32
17443,-19.92
17455,-23.14
17466,-26.21
17477,-29.45
17489,-33.28
17501,-37.96
17513,-43.47
17525,-49.3
17537,-54.56
17549,-58.15
17561,-59.05
17573,-56.6
17585,-50.77
17597,-42.13
17609,-31.68
17621,-20.52
17633,-9.65
17645,0.26
17656,8.83
17667,15.85
17679,21.15
17691,24.58
17703,26.1
17715,25.81
17727,24.18
17739,21.94
17751,19.89
17763,18.64
17775,18.45
17787,19.13
17799,20.27
17811,21.39
17823,22.19
17835,22.62
17846,22.68
17857,22.41
17869,21.63
17881,20.16
17893,17.77
17905,14.42
17917,10.27
17929,5.62
17941,0.82
17953,-3.83
17965,-8.21
17977,-12.35
17989,-16.47
18001,-20.84
18013,-25.83
18025,-31.66
18036,-38.38
18047,-45.7
18059,-52.96
18071,-59.14
18083,-63.1
18095,-63.88
18107,-60.96
18119,-54.41
18131,-44.92
18143,-33.54
18155,-21.47
18167,-9.75
18179,0.88
18191,10.0
18203,17.37
18215,22.95
18226,26.74
18237,28.87
18249,29.57
18261,29.26
18273,28.48
18285,27.76
18297,27.53
18309,27.95
18321,28.88
18333,30.04
18345,31.05
18357,31.62
18369,31.63
18381,31.1
18393,30.07
18405,28.54
18416,26.35
18427,23.34
18439,19.36
18451,14.43
18463,8.84
18475,3.03
18487,-2.52
18499,-7.47
18511,-11.77
18523,-15.6
18535,-19.35
18547,-23.45
18559,-28.21
18571,-33.71
18583,-39.68
18595,-45.54
18606,-50.42
18617,-53.32
18629,-53.37
18641,-50.07
18653,-43.45
18665,-34.13
18677,-23.07
18689,-11.38
18701,-0.07
18713,10.11
18725,18.67
18737,25.35
18749,30.04
18761,32.84
18773,34.02
18785,34.03
18796,33.35
18807,32.46
18819,31.66
18831,31.1
18843,30.73
18855,30.47
18867,30.2
18879,29.83
18891,29.34
18903,28.71
18915,27.9
18927,26.79
18939,25.17
18951,22.84
18963,19.67
18975,15.78
18986,11.41
18997,6.96
19009,2.8
19021,-0.86
19033,-4.0
19045,-6.89
19057,-9.85
19069,-13.28
19081,-17.5
19093,-22.66
19105,-28.61
19117,-34.84
19129,-40.46
19141,-44.38
19153,-45.6
19165,-43.46
19176,-37.93
19187,-29.59
19199,-19.48
19211,-8.73
19223,1.69
19235,11.21
19247,19.56
19259,26.66
19271,32.5
19283,36.95
19295,39.85
19307,41.15
19319,41.05
19331,40.0
19343,38.64
19355,37.55
19366,37.12
19377,37.34
19389,37.96
19401,38.57
19413,38.89
19425,38.78
19437,38.27
19449,37.47
19461,36.45
19473,35.17
19485,33.47
19497,31.18
19509,28.18
19521,24.45
19533,20.13
19545,15.43
19556,10.67
19567,6.14
19579,2.03
19591,-1.61
19603,-4.91
19615,-8.18
19627,-11.77
19639,-16.07
19651,-21.33
19663,-27.55
19675,-34.46
19687,-41.39
19699,-47.39
19711,-51.38
19723,-52.35
19735,-49.74
19746,-43.49
19757,-34.19
19769,-22.83
19781,-10.64
19793,1.27
19805,12.01
19817,20.97
19829,27.82
19841,32.51
19853,35.25
19865,36.42
19877,36.51
19889,36.06
19901,35.47
19913,35.04
19925,34.86
19936,34.94
19947,35.22
19959,35.55
19971,35.79
19983,35.74
19995,35.23
20007,34.13
20019,32.38
20031,29.98
20043,27.01
20055,23.54
20067,19.69
20079,15.58
20091,11.36
20103,7.18
20115,3.15
20126,-0.62
20137,-4.19
20149,-7.66
20161,-11.18
20173,-14.82
20185,-18.5
20197,-22.0
20209,-25.09
20221,-27.68
20233,-29.92
20245,-32.23
20257,-35.15
20269,-39.07
20281,-44.01
20293,-49.54
20305,-54.73
20316,-58.39
20327,-59.41
20339,-57.04
20351,-51.16
20363,-42.27
20375,-31.39
20387,-19.72
20399,-8.33
20411,2.01
20423,10.91
20435,18.23
20447,23.89
20459,27.81
20471,29.94
20483,30.44
20495,29.63
20506,28.1
20517,26.47
20529,25.26
20541,24.74
20553,24.87
20565,25.38
20577,25.91
20589,26.11
20601,25.75
20613,24.78
20625,23.28
20637,21.35
20649,19.06
20661,16.44
20673,13.41
20685,9.94
20696,6.08
20707,1.97
20719,-2.11
20731,-5.94
20743,-9.37
20755,-12.35
20767,-14.95
20779,-17.25
20791,-19.4
20803,-21.53
20815,-23.86
20827,-26.63
20839,-30.08
20851,-34.27
20863,-39.0
20875,-43.68
20886,-47.39
20897,-49.04
20909,-47.7
20921,-42.93
20933,-34.89
20945,-24.37
20957,-12.58
20969,-0.79
20981,9.95
20993,18.91
