seconds,BVP
4,123.01
16,129.44
28,135.95
40,144.14
52,155.28
64,169.98
76,187.96
88,207.89
100,227.35
112,243.01
124,251.38
136,249.96
147,237.92
158,216.42
170,188.28
182,156.96
194,125.59
206,96.17
218,69.39
230,45.03
242,22.54
254,1.56
266,-17.98
278,-35.93
290,-52.19
302,-66.82
314,-80.12
326,-92.48
337,-104.4
348,-116.44
360,-129.35
372,-143.94
384,-160.78
396,-179.61
408,-199.04
420,-216.52
432,-229.1
444,-234.43
456,-231.78
468,-222.43
480,-209.17
492,-195.4
504,-183.87
516,-176.03
527,-171.94
538,-170.73
550,-171.28
562,-172.71
574,-174.51
586,-176.42
598,-178.26
610,-179.85
622,-180.95
634,-181.43
646,-181.28
658,-180.67
670,-179.98
682,-179.61
694,-179.83
706,-180.64
717,-181.56
728,-181.77
740,-180.23
752,-175.99
764,-168.54
776,-157.92
788,-144.78
800,-130.1
812,-114.95
824,-100.18
836,-86.24
848,-73.25
860,-61.16
872,-49.97
884,-39.79
896,-30.85
907,-23.36
918,-17.29
930,-12.43
942,-8.33
954,-4.63
966,-1.13
978,2.14
990,4.98
1002,7.27
1014,9.14
1026,10.82
1038,12.61
1050,14.54
1062,16.38
1074,17.7
1086,18.12
1097,17.54
1108,16.12
1120,14.19
1132,11.97
1144,9.44
1156,6.37
1168,2.59
1180,-1.9
1192,-6.75
1204,-11.43
1216,-15.46
1228,-18.68
1240,-21.24
1252,-23.56
1264,-26.07
1276,-29.12
1287,-32.87
1298,-37.23
1310,-41.94
1322,-46.51
1334,-50.25
1346,-52.33
1358,-52.03
1370,-48.94
1382,-43.28
1394,-35.79
1406,-27.56
1418,-19.73
1430,-13.12
1442,-8.07
1454,-4.49
1466,-2.08
1477,-0.51
1488,0.41
1500,0.71
1512,0.37
1524,-0.61
1536,-2.05
1548,-3.57
1560,-4.58
1572,-4.34
1584,-2.07
1596,2.79
1608,10.36
1620,20.23
1632,31.41
1644,42.55
1656,52.24
1667,59.27
1678,62.72
1690,62.17
1702,57.58
1714,49.39
1726,38.47
1738,26.11
1750,13.8
1762,2.96
1774,-5.4
1786,-11.02
1798,-14.37
1810,-16.52
1822,-18.77
1834,-22.15
1846,-27.13
1857,-33.39
1868,-39.92
1880,-45.28
1892,-48.03
1904,-47.18
1916,-42.44
1928,-34.29
1940,-23.79
1952,-12.31
1964,-1.13
1976,8.75
1988,16.79
2000,22.91
2012,27.4
2024,30.67
2036,33.19
2047,35.29
2058,37.18
2070,38.91
2082,40.45
2094,41.71
2106,42.56
2118,42.87
2130,42.55
2142,41.63
2154,40.32
2166,38.9
2178,37.68
2190,36.82
2202,36.23
2214,35.56
2226,34.4
2237,32.36
2248,29.33
2260,25.48
2272,21.18
2284,16.94
2296,13.11
2308,9.78
2320,6.73
2332,3.48
2344,-0.59
2356,-5.95
2368,-12.85
2380,-21.11
2392,-30.1
2404,-38.7
2416,-45.5
2427,-49.03
2438,-48.24
2450,-42.86
2462,-33.63
2474,-22.18
2486,-10.5
2498,-0.31
2510,7.39
2522,12.62
2534,16.06
2546,18.54
2558,20.64
2570,22.48
2582,23.89
2594,24.72
2606,25.14
2617,25.58
2628,26.53
2640,28.26
2652,30.59
2664,33.02
2676,34.96
2688,36.04
2700,36.3
2712,36.15
2724,36.17
2736,36.73
2748,37.91
2760,39.37
2772,40.58
2784,40.98
2796,40.16
2807,38.05
2818,34.92
2830,31.29
2842,27.81
2854,24.96
2866,22.9
2878,21.47
2890,20.08
2902,18.0
2914,14.62
2926,9.63
2938,3.27
2950,-3.63
2962,-9.79
2974,-13.75
2986,-14.21
2997,-10.48
3008,-2.66
3020,8.26
3032,20.61
3044,32.51
3056,42.27
3068,48.96
3080,52.45
3092,53.34
3104,52.63
3116,51.25
3128,49.86
3140,48.66
3152,47.51
3164,46.12
3176,44.2
3187,41.66
3198,38.55
3210,35.07
3222,31.54
3234,28.24
3246,25.4
3258,23.17
3270,21.51
3282,20.25
3294,19.1
3306,17.8
3318,16.1
3330,13.91
3342,11.25
3354,8.22
3366,5.02
3377,1.82
3388,-1.22
3400,-4.07
3412,-6.78
3424,-9.5
3436,-12.38
3448,-15.47
3460,-18.68
3472,-21.74
3484,-24.42
3496,-26.61
3508,-28.5
3520,-30.56
3532,-33.41
3544,-37.58
3556,-43.24
3567,-50.02
3578,-56.92
3590,-62.43
3602,-64.98
3614,-63.27
3626,-56.83
3638,-46.21
3650,-32.86
3662,-18.77
3674,-5.75
3686,5.02
3698,13.23
3710,19.28
3722,23.85
3734,27.51
3746,30.56
3757,33.06
3768,35.02
3780,36.53
3792,37.71
3804,38.62
3816,39.21
3828,39.35
3840,38.92
3852,38.02
3864,36.96
3876,36.13
3888,35.77
3900,35.78
3912,35.71
3924,34.95
3936,33.02
3947,29.76
3958,25.45
3970,20.6
3982,15.72
3994,11.13
4006,6.85
4018,2.69
4030,-1.55
4042,-5.93
4054,-10.36
4066,-14.52
4078,-18.2
4090,-21.35
4102,-24.11
4114,-26.94
4126,-30.35
4137,-34.82
4148,-40.6
4160,-47.48
4172,-54.76
4184,-61.26
4196,-65.6
4208,-66.52
4220,-63.27
4232,-55.85
4244,-45.03
4256,-32.19
4268,-18.92
4280,-6.63
4292,3.69
4304,11.64
4316,17.39
4327,21.4
4338,24.34
4350,26.69
4362,28.79
4374,30.71
4386,32.39
4398,33.76
4410,34.76
4422,35.46
4434,35.9
4446,36.13
4458,36.14
4470,35.89
4482,35.42
4494,34.82
4506,34.26
4517,33.81
4528,33.44
4540,32.95
4552,32.08
4564,30.61
4576,28.43
4588,25.58
4600,22.2
4612,18.5
4624,14.68
4636,10.92
4648,7.31
4660,3.94
4672,0.74
4684,-2.4
4696,-5.68
4707,-9.29
4718,-13.29
4730,-17.63
4742,-22.11
4754,-26.48
4766,-30.55
4778,-34.25
4790,-37.62
4802,-40.83
4814,-44.11
4826,-47.74
4838,-52.03
4850,-57.22
4862,-63.38
4874,-70.16
4886,-76.72
4897,-81.73
4908,-83.61
4920,-81.08
4932,-73.62
4944,-61.78
4956,-47.12
4968,-31.74
4980,-17.62
4992,-6.05
5004,2.61
5016,8.82
5028,13.37
5040,17.04
5052,20.31
5064,23.38
5076,26.27
5087,29.03
5098,31.74
5110,34.39
5122,36.9
5134,39.02
5146,40.49
5158,41.2
5170,41.25
5182,40.95
5194,40.65
5206,40.57
5218,40.75
5230,40.99
5242,41.06
5254,40.76
5266,39.97
5277,38.63
5288,36.68
5300,34.07
5312,30.86
5324,27.24
5336,23.59
5348,20.29
5360,17.66
5372,15.67
5384,14.06
5396,12.37
5408,10.2
5420,7.39
5432,4.09
5444,0.64
5456,-2.6
5467,-5.42
5478,-7.81
5490,-10.02
5502,-12.41
5514,-15.34
5526,-19.04
5538,-23.47
5550,-28.35
5562,-33.27
5574,-37.83
5586,-41.89
5598,-45.53
5610,-49.14
5622,-53.2
5634,-58.16
5646,-64.28
5657,-71.39
5668,-78.82
5680,-85.43
5692,-89.73
5704,-90.27
5716,-86.15
5728,-77.33
5740,-64.76
5752,-50.16
5764,-35.5
5776,-22.37
5788,-11.72
5800,-3.7
5812,2.1
5824,6.3
5836,9.53
5847,12.21
5858,14.64
5870,16.97
5882,19.3
5894,21.64
5906,23.88
5918,25.86
5930,27.34
5942,28.14
5954,28.21
5966,27.67
5978,26.84
5990,26.15
6002,25.92
6014,26.27
6026,27.0
6037,27.58
6048,27.41
6060,26.04
6072,23.33
6084,19.51
6096,15.09
6108,10.59
6120,6.43
6132,2.86
6144,-0.15
6156,-2.77
6168,-5.31
6180,-8.12
6192,-11.48
6204,-15.36
6216,-19.31
6227,-22.5
6238,-23.96
6250,-23.01
6262,-19.61
6274,-14.36
6286,-8.39
6298,-2.83
6310,1.52
6322,4.24
6334,5.26
6346,4.57
6358,2.14
6370,-2.03
6382,-7.94
6394,-15.43
6406,-24.24
6417,-33.97
6428,-44.08
6440,-53.74
6452,-61.83
6464,-66.99
6476,-68.06
6488,-64.43
6500,-56.39
6512,-45.02
6524,-31.96
6536,-18.9
6548,-7.18
6560,2.41
6572,9.6
6584,14.54
6596,17.66
6607,19.49
6618,20.65
6630,21.66
6642,22.99
6654,24.9
6666,27.46
6678,30.54
6690,33.87
6702,37.14
6714,40.04
6726,42.39
6738,44.11
6750,45.24
6762,45.89
6774,46.16
6786,46.05
6797,45.48
6808,44.38
6820,42.59
6832,40.06
6844,36.79
6856,32.91
6868,28.64
6880,24.3
6892,20.2
6904,16.57
6916,13.44
6928,10.61
6940,7.7
6952,4.34
6964,0.26
6976,-4.57
6987,-9.97
6998,-15.59
7010,-21.1
7022,-26.27
7034,-30.99
7046,-35.36
7058,-39.68
7070,-44.4
7082,-49.99
7094,-56.63
7106,-64.03
7118,-71.24
7130,-76.85
7142,-79.32
7154,-77.49
7166,-70.96
7177,-60.29
7188,-46.76
7200,-32.04
7212,-17.73
7224,-5.02
7236,5.47
7248,13.65
7260,19.85
7272,24.59
7284,28.43
7296,31.77
7308,34.83
7320,37.62
7332,40.07
7344,42.05
7356,43.49
7367,44.38
7378,44.79
7390,44.82
7402,44.57
7414,44.15
7426,43.57
7438,42.88
7450,42.09
7462,41.23
7474,40.35
7486,39.39
7498,38.18
7510,36.47
7522,34.02
7534,30.73
7546,26.8
7557,22.66
7568,18.79
7580,15.49
7592,12.74
7604,10.16
7616,7.26
7628,3.64
7640,-0.87
7652,-6.14
7664,-11.83
7676,-17.56
7688,-22.99
7700,-27.95
7712,-32.48
7724,-36.9
7736,-41.71
7747,-47.52
7758,-54.63
7770,-62.87
7782,-71.3
7794,-78.34
7806,-82.18
7818,-81.35
7830,-75.24
7842,-64.36
7854,-50.15
7866,-34.52
7878,-19.31
7890,-5.79
7902,5.36
7914,14.04
7926,20.48
7937,25.1
7948,28.46
7960,31.12
7972,33.69
7984,36.54
7996,39.72
8008,42.98
8020,45.81
8032,47.82
8044,48.87
8056,49.12
8068,48.97
8080,48.82
8092,48.86
8104,49.07
8116,49.25
8127,49.25
8138,48.97
8150,48.46
8162,47.79
8174,46.93
8186,45.69
8198,43.85
8210,41.2
8222,37.77
8234,33.8
8246,29.67
8258,25.75
8270,22.26
8282,19.18
8294,16.29
8306,13.3
8317,9.92
8328,5.95
8340,1.31
8352,-3.91
8364,-9.52
8376,-15.21
8388,-20.67
8400,-25.67
8412,-30.13
8424,-34.25
8436,-38.44
8448,-43.21
8460,-49.01
8472,-55.94
8484,-63.47
8496,-70.47
8507,-75.3
8518,-76.32
8530,-72.47
8542,-63.67
8554,-50.97
8566,-36.24
8578,-21.5
8590,-8.35
8602,2.38
8614,10.69
8626,17.01
8638,21.91
8650,25.87
8662,29.14
8674,31.9
8686,34.3
8697,36.46
8708,38.51
8720,40.51
8732,42.48
8744,44.32
8756,45.94
8768,47.19
8780,48.01
8792,48.45
8804,48.64
8816,48.75
8828,48.88
8840,48.89
8852,48.46
8864,47.21
8876,44.85
8887,41.37
8898,37.04
8910,32.29
8922,27.57
8934,23.15
8946,19.07
8958,15.24
8970,11.52
8982,7.78
8994,3.96
9006,-0.01
9018,-4.18
9030,-8.53
9042,-13.04
9054,-17.61
9066,-22.09
9077,-26.35
9088,-30.36
9100,-34.23
9112,-38.25
9124,-42.82
9136,-48.31
9148,-54.83
9160,-62.08
9172,-69.14
9184,-74.64
9196,-77.01
9208,-74.98
9220,-68.02
9232,-56.63
9244,-42.18
9256,-26.62
9267,-11.87
9278,0.61
9290,10.07
9302,16.49
9314,20.37
9326,22.49
9338,23.63
9350,24.42
9362,25.2
9374,26.08
9386,27.02
9398,27.91
9410,28.71
9422,29.42
9434,30.04
9446,30.56
9457,30.94
9468,31.19
9480,31.35
9492,31.47
9504,31.56
9516,31.43
9528,30.85
9540,29.54
9552,27.39
9564,24.49
9576,21.17
9588,17.79
9600,14.65
9612,11.78
9624,8.98
9636,5.91
9647,2.19
9658,-2.33
9670,-7.54
9682,-13.07
9694,-18.45
9706,-23.29
9718,-27.54
9730,-31.58
9742,-36.05
9754,-41.54
9766,-48.19
9778,-55.44
9790,-62.09
9802,-66.58
9814,-67.5
9826,-64.01
9837,-56.1
9848,-44.63
9860,-31.07
9872,-17.08
9884,-4.13
9896,6.8
9908,15.34
9920,21.68
9932,26.33
9944,29.92
9956,32.92
9968,35.59
9980,37.96
9992,39.92
10004,41.36
10016,42.21
10027,42.51
10038,42.35
10050,41.86
10062,41.18
10074,40.42
10086,39.64
10098,38.9
10110,38.2
10122,37.52
10134,36.78
10146,35.84
10158,34.57
10170,32.86
10182,30.57
10194,27.67
10206,24.18
10217,20.28
10228,16.26
10240,12.56
10252,9.47
10264,7.04
10276,5.01
10288,2.81
10300,-0.13
10312,-4.17
10324,-9.2
10336,-14.75
10348,-20.17
10360,-24.99
10372,-28.98
10384,-32.31
10396,-35.42
10407,-38.84
10418,-43.09
10430,-48.55
10442,-55.34
10454,-63.09
10466,-70.88
10478,-77.32
10490,-80.8
10502,-79.96
10514,-74.18
10526,-63.86
10538,-50.33
10550,-35.47
10562,-21.14
10574,-8.73
10586,1.13
10597,8.51
10608,13.99
10620,18.33
10632,22.19
10644,26.0
10656,29.89
10668,33.76
10680,37.38
10692,40.47
10704,42.87
10716,44.52
10728,45.42
10740,45.69
10752,45.48
10764,45.01
10776,44.57
10787,44.39
10798,44.66
10810,45.35
10822,46.22
10834,46.87
10846,46.91
10858,46.08
10870,44.36
10882,41.87
10894,38.93
10906,35.82
10918,32.81
10930,30.12
10942,27.83
10954,25.86
10966,23.93
10977,21.7
10988,18.9
11000,15.53
11012,11.83
11024,8.23
11036,5.13
11048,2.64
11060,0.57
11072,-1.54
11084,-4.22
11096,-7.85
11108,-12.56
11120,-18.19
11132,-24.38
11144,-30.71
11156,-36.78
11167,-42.36
11178,-47.44
11190,-52.27
11202,-57.29
11214,-62.97
11226,-69.54
11238,-76.79
11250,-83.89
11262,-89.5
11274,-92.03
11286,-90.15
11298,-83.28
11310,-71.82
11322,-57.18
11334,-41.27
11346,-26.05
11357,-12.92
11368,-2.54
11380,5.18
11392,10.79
11404,14.99
11416,18.38
11428,21.38
11440,24.22
11452,27.0
11464,29.71
11476,32.27
11488,34.54
11500,36.34
11512,37.58
11524,38.21
11536,38.35
11547,38.19
11558,38.01
11570,38.09
11582,38.58
11594,39.48
11606,40.56
11618,41.5
11630,41.91
11642,41.5
11654,40.18
11666,38.03
11678,35.35
11690,32.46
11702,29.65
11714,27.13
11726,24.89
11737,22.84
11748,20.84
11760,18.72
11772,16.36
11784,13.68
11796,10.69
11808,7.49
11820,4.3
11832,1.32
11844,-1.29
11856,-3.58
11868,-5.86
11880,-8.62
11892,-12.27
11904,-16.98
11916,-22.52
11927,-28.28
11938,-33.63
11950,-38.12
11962,-41.72
11974,-44.8
11986,-47.92
11998,-51.67
12010,-56.39
12022,-62.07
12034,-68.21
12046,-73.85
12058,-77.63
12070,-78.2
12082,-74.59
12094,-66.58
12106,-54.92
12117,-41.15
12128,-27.15
12140,-14.53
12152,-4.27
12164,3.47
12176,9.07
12188,13.16
12200,16.29
12212,18.82
12224,20.96
12236,22.79
12248,24.39
12260,25.8
12272,27.07
12284,28.21
12296,29.21
12307,30.08
12318,30.8
12330,31.37
12342,31.8
12354,32.05
12366,32.08
12378,31.81
12390,31.18
12402,30.23
12414,29.02
12426,27.66
12438,26.23
12450,24.71
12462,23.05
12474,21.09
12486,18.72
12497,15.93
12508,12.84
12520,9.59
12532,6.38
12544,3.3
12556,0.33
12568,-2.63
12580,-5.69
12592,-8.96
12604,-12.48
12616,-16.18
12628,-19.99
12640,-23.78
12652,-27.45
12664,-31.02
12676,-34.59
12687,-38.43
12698,-42.91
12710,-48.29
12722,-54.63
12734,-61.55
12746,-68.18
12758,-73.26
12770,-75.44
12782,-73.68
12794,-67.59
12806,-57.66
12818,-45.09
12830,-31.47
12842,-18.39
12854,-6.98
12866,2.14
12877,8.89
12888,13.58
12900,16.74
12912,19.0
12924,20.92
12936,22.93
12948,25.22
12960,27.74
12972,30.26
12984,32.48
12996,34.18
13008,35.31
13020,36.01
13032,36.51
13044,37.07
13056,37.86
13067,38.89
13078,40.03
13090,41.0
13102,41.47
13114,41.17
13126,39.99
13138,38.05
13150,35.59
13162,32.91
13174,30.22
13186,27.6
13198,25.08
13210,22.59
13222,20.12
13234,17.65
13246,15.14
13257,12.47
13268,9.48
13280,6.06
13292,2.27
13304,-1.7
13316,-5.59
13328,-9.27
13340,-12.84
13352,-16.58
13364,-20.75
13376,-25.44
13388,-30.4
13400,-35.25
13412,-39.6
13424,-43.36
13436,-46.75
13447,-50.31
13458,-54.59
13470,-59.92
13482,-66.21
13494,-72.84
13506,-78.73
13518,-82.5
13530,-82.84
13542,-78.86
13554,-70.46
13566,-58.44
13578,-44.34
13590,-29.94
13602,-16.83
13614,-5.93
13626,2.52
13637,8.84
13648,13.63
13660,17.46
13672,20.77
13684,23.88
13696,26.99
13708,30.21
13720,33.54
13732,36.87
13744,39.97
13756,42.54
13768,44.29
13780,45.08
13792,44.94
13804,44.09
13816,42.91
13827,41.8
13838,41.02
13850,40.68
13862,40.6
13874,40.46
13886,39.88
13898,38.58
13910,36.53
13922,33.93
13934,31.12
13946,28.45
13958,26.18
13970,24.36
13982,22.82
13994,21.28
14006,19.43
14017,17.08
14028,14.2
14040,10.91
14052,7.45
14064,4.11
14076,1.07
14088,-1.65
14100,-4.22
14112,-6.91
14124,-9.97
14136,-13.54
14148,-17.55
14160,-21.79
14172,-26.06
14184,-30.21
14196,-34.27
14207,-38.41
14218,-42.9
14230,-48.03
14242,-54.08
14254,-61.12
14266,-68.85
14278,-76.43
14290,-82.47
14302,-85.36
14314,-83.71
14326,-76.89
14338,-65.38
14350,-50.62
14362,-34.67
14374,-19.53
14386,-6.63
14397,3.4
14408,10.71
14420,15.9
14432,19.68
14444,22.6
14456,24.98
14468,26.96
14480,28.67
14492,30.29
14504,31.99
14516,33.86
14528,35.76
14540,37.45
14552,38.61
14564,39.12
14576,39.12
14587,38.95
14598,39.01
14610,39.49
14622,40.29
14634,41.07
14646,41.4
14658,40.92
14670,39.56
14682,37.47
14694,34.91
14706,32.2
14718,29.49
14730,26.81
14742,24.07
14754,21.15
14766,18.01
14777,14.8
14788,11.67
14800,8.76
14812,5.94
14824,2.93
14836,-0.61
14848,-4.86
14860,-9.66
14872,-14.6
14884,-19.18
14896,-23.11
14908,-26.46
14920,-29.64
14932,-33.22
14944,-37.74
14956,-43.42
14967,-50.13
14978,-57.29
14990,-63.89
15002,-68.64
15014,-70.25
15026,-67.75
15038,-60.89
15050,-50.28
15062,-37.21
15074,-23.34
15086,-10.24
15098,0.93
15110,9.56
15122,15.59
15134,19.33
15146,21.36
15157,22.31
15168,22.79
15180,23.27
15192,23.97
15204,24.94
15216,26.1
15228,27.37
15240,28.72
15252,30.16
15264,31.66
15276,33.12
15288,34.39
15300,35.29
15312,35.72
15324,35.7
15336,35.29
15347,34.61
15358,33.7
15370,32.49
15382,30.9
15394,28.77
15406,26.02
15418,22.66
15430,18.84
15442,14.81
15454,10.83
15466,7.13
15478,3.7
15490,0.34
15502,-3.27
15514,-7.42
15526,-12.19
15537,-17.39
15548,-22.61
15560,-27.43
15572,-31.6
15584,-35.2
15596,-38.6
15608,-42.42
15620,-47.2
15632,-53.26
15644,-60.45
15656,-68.06
15668,-74.9
15680,-79.52
15692,-80.58
15704,-77.22
15716,-69.38
15727,-57.81
15738,-43.94
15750,-29.5
15762,-16.0
15774,-4.55
15786,4.38
15798,10.88
15810,15.4
15822,18.65
15834,21.31
15846,23.94
15858,26.8
15870,29.87
15882,32.87
15894,35.41
15906,37.21
15917,38.15
15928,38.36
15940,38.12
15952,37.8
15964,37.64
15976,37.78
15988,38.17
16000,38.65
16012,39.02
16024,39.12
16036,38.84
16048,38.11
16060,36.93
16072,35.29
16084,33.22
16096,30.74
16107,27.91
16118,24.82
16130,21.55
16142,18.21
16154,14.89
16166,11.63
16178,8.41
16190,5.21
16202,1.91
16214,-1.61
16226,-5.51
16238,-9.89
16250,-14.71
16262,-19.76
16274,-24.76
16286,-29.43
16297,-33.59
16308,-37.33
16320,-40.92
16332,-44.76
16344,-49.28
16356,-54.74
16368,-61.05
16380,-67.67
16392,-73.58
16404,-77.38
16416,-77.77
16428,-73.81
16440,-65.43
16452,-53.45
16464,-39.42
16476,-25.18
16487,-12.36
16498,-1.96
16510,5.77
16522,11.18
16534,15.03
16546,18.13
16558,21.07
16570,24.15
16582,27.36
16594,30.52
16606,33.43
16618,36.0
16630,38.16
16642,39.89
16654,41.16
16666,41.87
16677,42.07
16688,41.95
16700,41.82
16712,41.99
16724,42.59
16736,43.45
16748,44.14
16760,44.2
16772,43.3
16784,41.43
16796,38.86
16808,36.0
16820,33.22
16832,30.69
16844,28.35
16856,25.96
16867,23.23
16878,19.96
16890,16.17
16902,12.12
16914,8.17
16926,4.64
16938,1.65
16950,-0.97
16962,-3.57
16974,-6.48
16986,-9.93
16998,-13.86
17010,-17.95
17022,-21.9
17034,-25.45
17046,-28.62
17057,-31.66
17068,-34.91
17080,-38.79
17092,-43.65
17104,-49.66
17116,-56.73
17128,-64.33
17140,-71.44
17152,-76.6
17164,-78.3
17176,-75.38
17188,-67.57
17200,-55.65
17212,-41.28
17224,-26.5
17236,-13.12
17247,-2.25
17258,5.87
17270,11.64
17282,15.74
17294,18.89
17306,21.56
17318,24.0
17330,26.32
17342,28.56
17354,30.75
17366,32.89
17378,34.91
17390,36.65
17402,37.88
17414,38.46
17426,38.37
17437,37.81
17448,37.14
17460,36.69
17472,36.67
17484,37.01
17496,37.38
17508,37.32
17520,36.4
17532,34.32
17544,31.12
17556,27.07
17568,22.67
17580,18.49
17592,14.96
17604,12.21
17616,10.03
17627,7.95
17638,5.42
17650,2.08
17662,-2.11
17674,-6.88
17686,-11.76
17698,-16.3
17710,-20.21
17722,-23.45
17734,-26.27
17746,-29.1
17758,-32.44
17770,-36.74
17782,-42.24
17794,-48.85
17806,-56.11
17817,-63.08
17828,-68.55
17840,-71.16
17852,-69.76
17864,-63.79
17876,-53.51
17888,-40.03
17900,-25.1
17912,-10.66
17924,1.8
17936,11.52
17948,18.57
17960,23.61
17972,27.4
17984,30.49
17996,33.08
18007,35.12
18018,36.55
18030,37.44
18042,38.06
18054,38.7
18066,39.57
18078,40.66
18090,41.82
18102,42.85
18114,43.62
18126,44.1
18138,44.35
18150,44.47
18162,44.38
18174,43.92
18186,42.86
18197,41.03
18208,38.44
18220,35.33
18232,32.05
18244,28.9
18256,26.0
18268,23.23
18280,20.36
18292,17.19
18304,13.74
18316,10.22
18328,6.89
18340,3.87
18352,1.04
18364,-1.92
18376,-5.42
18387,-9.7
18398,-14.73
18410,-20.23
18422,-25.76
18434,-30.93
18446,-35.54
18458,-39.67
18470,-43.65
18482,-47.97
18494,-53.09
18506,-59.24
18518,-66.25
18530,-73.41
18542,-79.53
18554,-83.17
18566,-83.02
18577,-78.24
18588,-68.85
18600,-55.77
18612,-40.61
18624,-25.29
18636,-11.52
18648,-0.37
18660,7.86
18672,13.54
18684,17.46
18696,20.55
18708,23.49
18720,26.64
18732,30.03
18744,33.46
18756,36.65
18767,39.3
18778,41.22
18790,42.3
18802,42.53
18814,42.1
18826,41.35
18838,40.75
18850,40.74
18862,41.53
18874,42.97
18886,44.6
18898,45.78
18910,46.01
18922,45.13
18934,43.34
18946,41.01
18957,38.51
18968,36.04
18980,33.54
18992,30.9
19004,27.98
19016,24.76
19028,21.27
19040,17.63
19052,13.94
19064,10.3
19076,6.8
19088,3.47
19100,0.23
19112,-3.07
19124,-6.65
19136,-10.69
19147,-15.18
19158,-19.95
19170,-24.64
19182,-28.82
19194,-32.23
19206,-34.88
19218,-37.13
19230,-39.6
19242,-42.99
19254,-47.81
19266,-54.13
19278,-61.36
19290,-68.27
19302,-73.25
19314,-74.69
19326,-71.58
19337,-63.83
19348,-52.34
19360,-38.77
19372,-24.96
19384,-12.46
19396,-2.13
19408,5.82
19420,11.69
19432,16.04
19444,19.38
19456,22.12
19468,24.54
19480,26.78
19492,28.87
19504,30.74
19516,32.28
19527,33.38
19538,34.02
19550,34.25
19562,34.16
19574,33.88
19586,33.58
19598,33.4
19610,33.47
19622,33.8
19634,34.24
19646,34.53
19658,34.34
19670,33.42
19682,31.7
19694,29.36
19706,26.68
19717,23.97
19728,21.47
19740,19.23
19752,17.14
19764,15.02
19776,12.69
19788,10.11
19800,7.33
19812,4.52
19824,1.85
19836,-0.64
19848,-3.03
19860,-5.52
19872,-8.35
19884,-11.65
19896,-15.43
19907,-19.48
19918,-23.48
19930,-27.07
19942,-30.02
19954,-32.35
19966,-34.41
19978,-36.83
19990,-40.22
20002,-44.97
20014,-50.87
20026,-57.14
20038,-62.49
20050,-65.48
20062,-64.89
20074,-60.15
20086,-51.48
20097,-39.9
20108,-26.96
20120,-14.33
20132,-3.36
20144,5.14
20156,11.04
20168,14.73
20180,16.89
20192,18.18
20204,19.13
20216,20.0
20228,20.93
20240,21.92
20252,23.0
20264,24.16
20276,25.34
20287,26.46
20298,27.33
20310,27.86
20322,27.96
20334,27.76
20346,27.43
20358,27.2
20370,27.13
20382,27.06
20394,26.7
20406,25.71
20418,23.85
20430,21.12
20442,17.73
20454,14.0
20466,10.27
20477,6.75
20488,3.55
20500,0.54
20512,-2.57
20524,-6.05
20536,-10.1
20548,-14.71
20560,-19.59
20572,-24.27
20584,-28.29
20596,-31.36
20608,-33.53
20620,-35.2
20632,-36.98
20644,-39.48
20656,-43.18
20667,-48.16
20678,-54.06
20690,-59.99
20702,-64.65
20714,-66.65
20726,-64.87
20738,-58.88
20750,-49.04
20762,-36.57
20774,-23.09
20786,-10.27
20798,0.59
20810,8.84
20822,14.42
20834,17.77
20846,19.56
20857,20.46
20868,21.07
20880,21.77
20892,22.79
20904,24.14
20916,25.71
20928,27.25
20940,28.49
20952,29.24
20964,29.48
20976,29.34
20988,29.05
