seconds,BVP
6,17.05
17,18.12
29,19.49
41,20.97
53,22.19
65,22.68
77,22.08
89,20.29
101,17.5
113,14.14
125,10.59
137,7.1
149,3.73
161,0.44
173,-2.82
185,-5.96
196,-8.89
207,-11.53
219,-13.97
231,-16.31
243,-18.78
255,-21.52
267,-24.66
279,-28.29
291,-32.47
303,-37.18
315,-42.21
327,-47.01
339,-50.78
351,-52.56
363,-51.52
375,-47.3
386,-40.12
397,-30.75
409,-20.29
421,-9.82
433,-0.15
445,8.19
457,15.0
469,20.15
481,23.6
493,25.35
505,25.53
517,24.42
529,22.45
541,20.1
553,17.83
565,15.95
576,14.66
587,14.04
599,14.04
611,14.57
623,15.45
635,16.42
647,17.18
659,17.45
671,17.09
683,16.04
695,14.34
707,12.1
719,9.39
731,6.27
743,2.85
755,-0.71
766,-4.19
777,-7.4
789,-10.24
801,-12.76
813,-15.12
825,-17.5
837,-20.05
849,-22.88
861,-26.11
873,-29.96
885,-34.65
897,-40.24
909,-46.39
921,-52.29
933,-56.79
945,-58.65
956,-57.0
967,-51.54
979,-42.63
991,-31.18
1003,-18.38
1015,-5.46
1027,6.54
1039,16.82
1051,24.96
1063,30.9
1075,34.85
1087,37.21
1099,38.38
1111,38.63
1123,38.16
1135,37.11
1146,35.75
1157,34.37
1169,33.32
1181,32.79
1193,32.8
1205,33.17
1217,33.63
1229,33.99
1241,34.11
1253,33.96
1265,33.46
1277,32.54
1289,31.09
1301,29.06
1313,26.53
1325,23.62
1336,20.51
1347,17.35
1359,14.21
1371,11.06
1383,7.82
1395,4.38
1407,0.65
1419,-3.35
1431,-7.53
1443,-11.66
1455,-15.48
1467,-18.72
1479,-21.25
1491,-23.09
1503,-24.47
1515,-25.81
1526,-27.67
1537,-30.63
1549,-35.08
1561,-41.09
1573,-48.27
1585,-55.7
1597,-62.08
1609,-65.98
1621,-66.22
1633,-62.1
1645,-53.72
1657,-41.83
1669,-27.71
1681,-12.84
1693,1.43
1705,14.08
1716,24.47
1727,32.3
1739,37.55
1751,40.43
1763,41.29
1775,40.67
1787,39.19
1799,37.47
1811,35.99
1823,35.01
1835,34.53
1847,34.39
1859,34.38
1871,34.37
1883,34.39
1895,34.57
1906,34.98
1917,35.52
1929,35.85
1941,35.42
1953,33.8
1965,30.78
1977,26.62
1989,21.97
2001,17.63
2013,14.21
2025,11.89
2037,10.36
2049,8.99
2061,7.19
2073,4.76
2085,2.01
2096,-0.44
2107,-1.96
2119,-2.18
2131,-1.17
2143,0.78
2155,3.22
2167,5.58
2179,6.87
2191,5.7
2203,0.71
2215,-8.55
2227,-20.8
2239,-33.02
2251,-41.31
2263,-42.38
2275,-34.93
2286,-19.87
2297,0.4
2309,23.34
2321,47.13
2333,70.79
2345,93.39
2357,113.37
2369,128.42
2381,136.17
2393,135.23
2405,125.77
2417,109.64
2429,89.54
2441,68.34
2453,48.37
2465,31.17
2476,17.38
2487,7.0
2499,-0.38
2511,-5.18
2523,-7.54
2535,-7.2
2547,-3.69
2559,3.37
2571,13.87
2583,27.15
2595,42.11
2607,57.62
2619,72.66
2631,86.39
2643,98.01
2655,106.61
2666,111.35
2677,111.77
2689,108.11
2701,101.4
2713,93.15
2725,84.82
2737,77.22
2749,70.29
2761,63.22
2773,54.93
2785,44.63
2797,32.12
2809,17.68
2821,1.92
2833,-14.59
2845,-31.39
2856,-48.11
2867,-64.45
2879,-80.14
2891,-95.12
2903,-109.45
2915,-123.02
2927,-135.16
2939,-144.24
2951,-147.74
2963,-143.08
2975,-128.73
2987,-105.31
2999,-75.88
3011,-45.14
3023,-18.05
3035,1.87
3046,13.31
3057,17.18
3069,15.61
3081,10.85
3093,4.36
3105,-3.29
3117,-12.13
3129,-22.11
3141,-32.67
3153,-42.59
3165,-50.36
3177,-54.69
3189,-55.09
3201,-52.18
3213,-47.56
3225,-43.43
3236,-42.04
3247,-45.12
3259,-53.65
3271,-67.76
3283,-86.86
3295,-109.77
3307,-134.8
3319,-159.84
3331,-182.58
3343,-200.74
3355,-212.61
3367,-217.39
3379,-215.46
3391,-208.24
3403,-197.64
3415,-185.47
3426,-172.85
3437,-160.1
3449,-147.04
3461,-133.56
3473,-120.12
3485,-107.72
3497,-97.53
3509,-90.24
3521,-85.63
3533,-82.58
3545,-79.59
3557,-75.42
3569,-69.45
3581,-61.79
3593,-52.89
3605,-43.26
3616,-33.29
3627,-23.3
3639,-13.73
3651,-5.21
3663,1.68
3675,6.66
3687,9.89
3699,11.97
3711,13.69
3723,15.67
3735,18.19
3747,21.3
3759,24.88
3771,28.8
3783,33.05
3795,37.72
3806,42.93
3817,48.85
3829,55.59
3841,63.28
3853,71.9
3865,81.27
3877,91.09
3889,101.07
3901,111.05
3913,121.12
3925,131.42
3937,141.96
3949,152.35
3961,161.76
3973,169.08
3985,173.2
3996,173.31
4007,168.99
4019,160.2
4031,147.15
4043,130.23
4055,109.99
4067,87.11
4079,62.37
4091,36.53
4103,10.12
4115,-16.38
4127,-42.48
4139,-67.33
4151,-89.58
4163,-107.54
4175,-119.6
4186,-124.73
4197,-122.91
4209,-115.17
4221,-103.23
4233,-89.05
4245,-74.27
4257,-59.91
4269,-46.42
4281,-33.9
4293,-22.4
4305,-12.14
4317,-3.44
4329,3.45
4341,8.64
4353,12.62
4365,16.12
4376,19.72
4387,23.58
4399,27.28
4411,30.04
4423,31.11
4435,30.13
4447,27.26
4459,23.05
4471,18.1
4483,12.62
4495,6.37
4507,-1.28
4519,-10.92
4531,-22.64
4543,-35.73
4555,-48.67
4566,-59.51
4577,-66.42
4589,-68.37
4601,-65.38
4613,-58.56
4625,-49.7
4637,-40.8
4649,-33.6
4661,-29.24
4673,-28.18
4685,-30.09
4697,-33.89
4709,-37.98
4721,-40.57
4733,-40.32
4745,-36.77
4756,-30.5
4767,-22.8
4779,-15.02
4791,-8.02
4803,-1.83
4815,4.07
4827,10.31
4839,17.1
4851,24.05
4863,30.36
4875,35.17
4887,37.96
4899,38.76
4911,38.13
4923,36.86
4935,35.74
4946,35.37
4957,35.98
4969,37.5
4981,39.64
4993,42.09
5005,44.73
5017,47.65
5029,51.01
5041,54.88
5053,58.98
5065,62.71
5077,65.24
5089,65.86
5101,64.31
5113,60.93
5125,56.53
5136,52.11
5147,48.47
5159,45.91
5171,44.17
5183,42.53
5195,40.12
5207,36.13
5219,30.12
5231,22.07
5243,12.46
5255,2.17
5267,-7.57
5279,-15.46
5291,-20.37
5303,-21.55
5315,-18.83
5326,-12.65
5337,-3.96
5349,5.93
5361,15.68
5373,24.09
5385,30.33
5397,34.12
5409,35.7
5421,35.68
5433,34.91
5445,34.2
5457,34.16
5469,35.07
5481,36.86
5493,39.3
5505,42.07
5516,44.94
5527,47.74
5539,50.41
5551,53.16
5563,56.44
5575,60.99
5587,67.66
5599,76.95
5611,88.71
5623,101.86
5635,114.61
5647,124.94
5659,131.11
5671,132.11
5683,127.63
5695,117.96
5706,103.75
5717,85.94
5729,65.68
5741,44.35
5753,23.47
5765,4.49
5777,-11.45
5789,-23.68
5801,-32.18
5813,-37.63
5825,-41.38
5837,-45.27
5849,-51.19
5861,-60.5
5873,-73.48
5885,-89.0
5896,-104.72
5907,-117.76
5919,-125.62
5931,-126.8
5943,-121.15
5955,-109.57
5967,-93.52
5979,-74.54
5991,-53.97
6003,-33.16
6015,-13.52
6027,3.36
6039,15.95
6051,23.28
6063,25.41
6075,23.58
6086,19.8
6097,16.2
6109,14.32
6121,14.7
6133,16.99
6145,20.39
6157,24.07
6169,27.52
6181,30.51
6193,32.85
6205,34.3
6217,34.49
6229,33.12
6241,30.16
6253,25.98
6265,21.27
6276,16.74
6287,12.86
6299,9.62
6311,6.59
6323,3.11
6335,-1.35
6347,-6.97
6359,-13.47
6371,-20.24
6383,-26.6
6395,-32.04
6407,-36.38
6419,-39.82
6431,-42.77
6443,-45.79
6455,-49.34
6466,-53.72
6477,-58.85
6489,-64.23
6501,-68.95
6513,-71.86
6525,-71.82
6537,-68.06
6549,-60.44
6561,-49.49
6573,-36.22
6585,-21.93
6597,-7.76
6609,5.39
6621,16.98
6633,26.73
6645,34.52
6656,40.34
6667,44.21
6679,46.31
6691,46.86
6703,46.25
6715,44.88
6727,43.25
6739,41.77
6751,40.78
6763,40.41
6775,40.59
6787,41.03
6799,41.29
6811,40.99
6823,39.9
6835,38.04
6846,35.65
6857,33.04
6869,30.46
6881,27.96
6893,25.39
6905,22.56
6917,19.35
6929,15.82
6941,12.14
6953,8.48
6965,4.89
6977,1.27
6989,-2.51
7001,-6.55
7013,-10.83
7025,-15.33
7036,-20.08
7047,-25.28
7059,-31.15
7071,-37.71
7083,-44.51
7095,-50.58
7107,-54.61
7119,-55.38
7131,-52.2
7143,-45.21
7155,-35.28
7167,-23.7
7179,-11.82
7191,-0.67
7203,9.06
7215,17.05
7226,23.17
7237,27.39
7249,29.84
7261,30.66
7273,30.14
7285,28.65
7297,26.55
7309,24.18
7321,21.84
7333,19.82
7345,18.26
7357,17.26
7369,16.81
7381,16.78
7393,16.96
7405,17.15
7416,17.15
7427,16.8
7439,15.99
7451,14.7
7463,12.97
7475,10.97
7487,8.9
7499,6.94
7511,5.16
7523,3.44
7535,1.51
7547,-0.91
7559,-3.99
7571,-7.76
7583,-12.01
7595,-16.44
7606,-20.8
7617,-24.88
7629,-28.62
7641,-32.16
7653,-35.72
7665,-39.57
7677,-43.78
7689,-48.11
7701,-51.88
7713,-54.14
7725,-53.89
7737,-50.56
7749,-44.13
7761,-35.25
7773,-24.93
7785,-14.3
7796,-4.22
7807,4.81
7819,12.62
7831,19.22
7843,24.67
7855,29.07
7867,32.45
7879,34.82
7891,36.22
7903,36.63
7915,36.14
7927,34.9
7939,33.23
7951,31.5
7963,30.03
7975,29.04
7986,28.54
7997,28.42
8009,28.5
8021,28.59
8033,28.55
8045,28.17
8057,27.26
8069,25.63
8081,23.2
8093,20.07
8105,16.57
8117,13.12
8129,10.14
8141,7.82
8153,6.15
8165,4.89
8176,3.67
8187,2.16
8199,0.07
8211,-2.73
8223,-6.22
8235,-10.26
8247,-14.61
8259,-19.02
8271,-23.24
8283,-27.1
8295,-30.55
8307,-33.68
8319,-36.66
8331,-39.8
8343,-43.39
8355,-47.53
8366,-51.96
8377,-56.0
8389,-58.64
8401,-58.92
8413,-56.19
8425,-50.43
8437,-42.26
8449,-32.67
8461,-22.74
8473,-13.28
8485,-4.79
8497,2.56
8509,8.72
8521,13.67
8533,17.37
8545,19.77
8556,20.9
8567,20.91
8579,20.05
8591,18.6
8603,16.88
8615,15.15
8627,13.65
8639,12.57
8651,12.02
8663,12.02
8675,12.47
8687,13.13
8699,13.7
8711,13.84
8723,13.33
8735,12.06
8746,10.09
8757,7.57
8769,4.74
8781,1.87
8793,-0.75
8805,-2.95
8817,-4.61
8829,-5.79
8841,-6.65
8853,-7.44
8865,-8.35
8877,-9.52
8889,-10.93
8901,-12.48
8913,-14.07
8925,-15.62
8936,-17.14
8947,-18.7
8959,-20.44
8971,-22.5
8983,-25.05
8995,-28.21
9007,-31.99
9019,-36.18
9031,-40.28
9043,-43.51
9055,-44.98
9067,-43.96
9079,-40.13
9091,-33.78
9103,-25.68
9115,-16.91
9126,-8.43
9137,-0.9
9149,5.37
9161,10.34
9173,14.05
9185,16.48
9197,17.63
9209,17.53
9221,16.39
9233,14.6
9245,12.59
9257,10.73
9269,9.27
9281,8.31
9293,7.82
9305,7.76
9316,8.04
9327,8.57
9339,9.18
9351,9.66
9363,9.82
9375,9.5
9387,8.67
9399,7.39
9411,5.85
9423,4.27
9435,2.79
9447,1.47
9459,0.2
9471,-1.22
9483,-2.98
9495,-5.17
9506,-7.7
9517,-10.31
9529,-12.74
9541,-14.84
9553,-16.64
9565,-18.34
9577,-20.23
9589,-22.54
9601,-25.38
9613,-28.71
9625,-32.31
9637,-35.8
9649,-38.6
9661,-40.05
9673,-39.52
9685,-36.61
9696,-31.34
9707,-24.2
9719,-16.01
9731,-7.69
9743,-0.05
9755,6.36
9767,11.25
9779,14.54
9791,16.29
9803,16.74
9815,16.18
9827,14.99
9839,13.57
9851,12.2
9863,11.06
9875,10.21
9886,9.66
9897,9.41
9909,9.46
9921,9.81
9933,10.43
9945,11.21
9957,11.99
9969,12.57
9981,12.73
9993,12.34
10005,11.38
10017,9.94
10029,8.17
10041,6.29
10053,4.41
10065,2.52
10076,0.5
10087,-1.85
10099,-4.7
10111,-8.07
10123,-11.85
10135,-15.78
10147,-19.58
10159,-23.02
10171,-26.0
10183,-28.63
10195,-31.18
10207,-34.03
10219,-37.48
10231,-41.65
10243,-46.29
10255,-50.73
10266,-54.09
10277,-55.41
10289,-53.94
10301,-49.47
10313,-42.32
10325,-33.29
10337,-23.41
10349,-13.68
10361,-4.85
10373,2.65
10385,8.65
10397,13.18
10409,16.39
10421,18.43
10433,19.52
10445,19.9
10456,19.81
10467,19.51
10479,19.21
10491,19.03
10503,19.04
10515,19.26
10527,19.67
10539,20.26
10551,21.01
10563,21.92
10575,22.95
10587,24.04
10599,25.08
10611,25.93
10623,26.34
10635,26.11
10646,25.08
10657,23.18
10669,20.53
10681,17.38
10693,14.02
10705,10.72
10717,7.53
10729,4.39
10741,1.04
10753,-2.73
10765,-7.01
10777,-11.68
10789,-16.38
10801,-20.7
10813,-24.33
10825,-27.21
10836,-29.63
10847,-32.12
10859,-35.31
10871,-39.62
10883,-45.08
10895,-51.22
10907,-57.08
10919,-61.42
10931,-63.04
10943,-61.13
10955,-55.54
10967,-46.73
10979,-35.78
10991,-23.92
11003,-12.3
11015,-1.77
11026,7.23
11037,14.54
11049,20.18
11061,24.18
11073,26.61
11085,27.62
11097,27.5
11109,26.72
11121,25.79
11133,25.16
11145,25.11
11157,25.72
11169,26.84
11181,28.23
11193,29.66
11205,31.0
11216,32.19
11227,33.25
11239,34.15
11251,34.82
11263,35.14
11275,34.98
11287,34.18
11299,32.61
11311,30.29
11323,27.31
11335,23.9
11347,20.37
11359,16.95
11371,13.74
11383,10.66
11395,7.53
11406,4.14
11417,0.41
11429,-3.62
11441,-7.71
11453,-11.57
11465,-15.0
11477,-17.98
11489,-20.63
11501,-23.28
11513,-26.24
11525,-29.82
11537,-34.16
11549,-39.25
11561,-44.85
11573,-50.47
11585,-55.3
11596,-58.35
11607,-58.54
11619,-55.14
11631,-47.96
11643,-37.58
11655,-25.16
11667,-12.15
11679,0.12
11691,10.77
11703,19.44
11715,26.15
11727,31.06
11739,34.36
11751,36.12
11763,36.42
11775,35.5
11786,33.69
11797,31.49
11809,29.42
11821,27.85
11833,26.97
11845,26.77
11857,27.07
11869,27.67
11881,28.34
11893,28.9
11905,29.2
11917,29.11
11929,28.56
11941,27.51
11953,25.99
11965,24.1
11976,21.89
11987,19.37
11999,16.48
12011,13.16
12023,9.38
12035,5.17
12047,0.67
12059,-3.9
12071,-8.34
12083,-12.53
12095,-16.44
12107,-20.16
12119,-23.84
12131,-27.61
12143,-31.61
12155,-35.9
12166,-40.37
12177,-44.73
12189,-48.37
12201,-50.41
12213,-49.92
12225,-46.21
12237,-39.07
12249,-28.98
12261,-16.94
12273,-4.23
12285,7.92
12297,18.58
12309,27.25
12321,33.74
12333,38.06
12345,40.32
12356,40.73
12367,39.61
12379,37.41
12391,34.65
12403,31.91
12415,29.68
12427,28.25
12439,27.74
12451,28.02
12463,28.78
12475,29.65
12487,30.27
12499,30.42
12511,30.02
12523,29.06
12535,27.55
12546,25.44
12557,22.64
12569,19.15
12581,15.06
12593,10.59
12605,6.04
12617,1.64
12629,-2.49
12641,-6.39
12653,-10.14
12665,-13.8
12677,-17.32
12689,-20.63
12701,-23.66
12713,-26.47
12725,-29.27
12736,-32.39
12747,-36.22
12759,-41.01
12771,-46.73
12783,-52.94
12795,-58.76
12807,-62.95
12819,-64.24
12831,-61.64
12843,-54.74
12855,-43.91
12867,-30.24
12879,-15.24
12891,-0.51
12903,12.67
12915,23.52
12926,31.8
12937,37.65
12949,41.43
12961,43.53
12973,44.28
12985,44.02
12997,43.05
13009,41.73
13021,40.41
13033,39.36
13045,38.72
13057,38.48
13069,38.52
13081,38.71
13093,38.93
13105,39.11
13116,39.19
13127,39.03
13139,38.4
13151,37.03
13163,34.71
13175,31.37
13187,27.22
13199,22.64
13211,18.02
13223,13.7
13235,9.79
13247,6.16
13259,2.53
13271,-1.35
13283,-5.61
13295,-10.2
13306,-14.86
13317,-19.21
13329,-22.97
13341,-26.02
13353,-28.5
13365,-30.71
13377,-33.11
13389,-36.13
13401,-40.09
13413,-45.08
13425,-50.93
13437,-57.03
13449,-62.34
13461,-65.56
13473,-65.36
13485,-60.85
13496,-51.86
13507,-39.18
13519,-24.28
13531,-8.9
13543,5.4
13555,17.49
13567,26.91
13579,33.63
13591,37.85
13603,39.94
13615,40.29
13627,39.33
13639,37.52
13651,35.29
13663,33.08
13675,31.17
13686,29.73
13697,28.81
13709,28.38
13721,28.35
13733,28.6
13745,28.98
13757,29.35
13769,29.59
13781,29.55
13793,29.12
13805,28.19
13817,26.66
13829,24.45
13841,21.61
13853,18.34
13865,14.93
13876,11.69
13887,8.74
13899,6.01
13911,3.18
13923,-0.06
13935,-3.92
13947,-8.3
13959,-12.88
13971,-17.23
13983,-21.02
13995,-24.16
14007,-26.76
14019,-29.12
14031,-31.61
14043,-34.56
14055,-38.22
14066,-42.73
14077,-47.9
14089,-53.25
14101,-57.87
14113,-60.62
14125,-60.31
14137,-56.17
14149,-48.03
14161,-36.53
14173,-22.91
14185,-8.76
14197,4.53
14209,16.0
14221,25.18
14233,32.0
14245,36.54
14256,38.94
14267,39.36
14279,38.1
14291,35.63
14303,32.55
14315,29.49
14327,26.89
14339,25.03
14351,23.91
14363,23.49
14375,23.64
14387,24.23
14399,25.11
14411,26.04
14423,26.78
14435,27.09
14446,26.78
14457,25.75
14469,24.0
14481,21.56
14493,18.54
14505,15.09
14517,11.35
14529,7.46
14541,3.43
14553,-0.75
14565,-5.11
14577,-9.66
14589,-14.25
14601,-18.66
14613,-22.65
14625,-26.09
14636,-29.06
14647,-31.85
14659,-34.87
14671,-38.48
14683,-42.83
14695,-47.67
14707,-52.32
14719,-55.68
14731,-56.57
14743,-53.99
14755,-47.44
14767,-37.2
14779,-24.21
14791,-9.92
14803,4.11
14815,16.6
14826,26.67
14837,34.0
14849,38.63
14861,40.86
14873,41.12
14885,39.9
14897,37.68
14909,34.94
14921,32.04
14933,29.3
14945,26.9
14957,24.99
14969,23.7
14981,23.11
14993,23.15
15005,23.6
15016,24.14
15027,24.38
15039,24.07
15051,23.08
15063,21.43
15075,19.12
15087,16.18
15099,12.68
15111,8.73
15123,4.55
15135,0.43
15147,-3.47
15159,-7.16
15171,-10.82
15183,-14.69
15195,-18.9
15206,-23.34
15217,-27.71
15229,-31.71
15241,-35.18
15253,-38.25
15265,-41.27
15277,-44.72
15289,-48.95
15301,-54.12
15313,-59.98
15325,-65.86
15337,-70.68
15349,-73.1
15361,-71.92
15373,-66.41
15385,-56.62
15396,-43.43
15407,-28.34
15419,-13.05
15431,0.96
15443,12.67
15455,21.62
15467,27.72
15479,31.13
15491,32.2
15503,31.43
15515,29.5
15527,27.3
15539,25.71
15551,25.44
15563,26.83
15575,29.82
15586,33.98
15597,38.75
15609,43.7
15621,48.64
15633,53.64
15645,58.88
15657,64.43
15669,70.16
15681,75.63
15693,80.28
15705,83.57
15717,85.16
15729,84.99
15741,83.27
15753,80.41
15765,76.91
15776,73.24
15787,69.74
15799,66.53
15811,63.5
15823,60.46
15835,57.26
15847,53.93
15859,50.68
15871,47.91
15883,45.99
15895,45.09
15907,45.14
15919,45.75
15931,46.33
15943,46.14
15955,44.5
15966,40.91
15977,35.29
15989,28.04
16001,20.03
16013,12.4
16025,6.22
16037,2.08
16049,-0.1
16061,-1.16
16073,-2.3
16085,-4.7
16097,-9.09
16109,-15.6
16121,-23.85
16133,-33.25
16145,-43.16
16156,-53.1
16167,-62.61
16179,-71.16
16191,-78.17
16203,-83.13
16215,-85.78
16227,-86.2
16239,-84.83
16251,-82.21
16263,-78.76
16275,-74.67
16287,-69.93
16299,-64.52
16311,-58.57
16323,-52.38
16335,-46.38
16346,-40.97
16357,-36.31
16369,-32.38
16381,-28.99
16393,-25.93
16405,-23.11
16417,-20.59
16429,-18.57
16441,-17.25
16453,-16.75
16465,-17.0
16477,-17.82
16489,-19.01
16501,-20.51
16513,-22.44
16525,-25.1
16536,-28.84
16547,-33.86
16559,-40.14
16571,-47.36
16583,-54.86
16595,-61.75
16607,-67.02
16619,-69.72
16631,-69.14
16643,-65.09
16655,-57.88
16667,-48.29
16679,-37.31
16691,-25.91
16703,-14.84
16715,-4.65
16726,4.14
16737,11.0
16749,15.43
16761,17.11
16773,16.18
16785,13.28
16797,9.45
16809,5.85
16821,3.33
16833,2.3
16845,2.64
16857,3.89
16869,5.56
16881,7.31
16893,9.01
16905,10.66
16916,12.22
16927,13.52
16939,14.2
16951,13.85
16963,12.19
16975,9.26
16987,5.39
16999,1.22
17011,-2.58
17023,-5.6
17035,-7.81
17047,-9.61
17059,-11.68
17071,-14.73
17083,-19.24
17095,-25.29
17106,-32.53
17117,-40.2
17129,-47.17
17141,-52.18
17153,-54.0
17165,-51.77
17177,-45.2
17189,-34.79
17201,-21.75
17213,-7.68
17225,5.81
17237,17.52
17249,26.84
17261,33.65
17273,38.16
17285,40.69
17296,41.56
17307,41.12
17319,39.82
17331,38.19
17343,36.81
17355,36.09
17367,36.15
17379,36.78
17391,37.55
17403,38.03
17415,37.89
17427,37.06
17439,35.7
17451,34.01
17463,32.15
17475,30.09
17486,27.58
17497,24.27
17509,19.87
17521,14.32
17533,7.89
17545,1.11
17557,-5.43
17569,-11.25
17581,-16.2
17593,-20.43
17605,-24.33
17617,-28.4
17629,-33.13
17641,-38.89
17653,-45.77
17665,-53.44
17676,-61.04
17687,-67.23
17699,-70.42
17711,-69.26
17723,-63.1
17735,-52.26
17747,-38.02
17759,-22.18
17771,-6.55
17783,7.51
17795,19.32
17807,28.7
17819,35.88
17831,41.17
17843,44.79
17855,46.95
17866,47.81
17877,47.57
17889,46.52
17901,44.99
17913,43.33
17925,41.82
17937,40.67
17949,39.96
17961,39.69
17973,39.78
17985,40.08
17997,40.36
18009,40.32
18021,39.65
18033,38.03
18045,35.28
18056,31.39
18067,26.53
18079,20.99
18091,15.05
18103,8.97
18115,2.91
18127,-3.02
18139,-8.72
18151,-14.04
18163,-18.9
18175,-23.25
18187,-27.18
18199,-30.94
18211,-34.88
18223,-39.39
18235,-44.76
18246,-50.97
18257,-57.56
18269,-63.6
18281,-67.79
18293,-68.76
18305,-65.53
18317,-57.84
18329,-46.27
18341,-32.09
18353,-16.93
18365,-2.29
18377,10.75
18389,21.64
18401,30.28
18413,36.79
18425,41.39
18436,44.27
18447,45.62
18459,45.7
18471,44.86
18483,43.5
18495,42.0
18507,40.69
18519,39.72
18531,39.15
18543,38.89
18555,38.82
18567,38.82
18579,38.82
18591,38.75
18603,38.52
18615,37.97
18626,36.86
18637,34.92
18649,31.94
18661,27.91
18673,23.09
18685,17.95
18697,13.05
18709,8.83
18721,5.46
18733,2.73
18745,0.17
18757,-2.69
18769,-6.15
18781,-10.14
18793,-14.34
18805,-18.27
18816,-21.6
18827,-24.3
18839,-26.68
18851,-29.27
18863,-32.71
18875,-37.45
18887,-43.67
18899,-51.03
18911,-58.73
18923,-65.45
18935,-69.65
18947,-69.9
18959,-65.34
18971,-55.95
18983,-42.67
18995,-27.11
19006,-11.12
19017,3.67
19029,16.23
19041,26.09
19053,33.22
19065,37.82
19077,40.14
19089,40.47
19101,39.22
19113,36.91
19125,34.15
19137,31.57
19149,29.64
19161,28.6
19173,28.41
19185,28.89
19196,29.7
19207,30.52
19219,31.16
19231,31.48
19243,31.42
19255,30.94
19267,29.96
19279,28.41
19291,26.22
19303,23.46
19315,20.31
19327,17.01
19339,13.74
19351,10.54
19363,7.36
19375,4.02
19386,0.42
19397,-3.42
19409,-7.35
19421,-11.15
19433,-14.66
19445,-17.87
19457,-20.94
19469,-24.28
19481,-28.32
19493,-33.41
19505,-39.6
19517,-46.41
19529,-52.83
19541,-57.5
19553,-59.07
19565,-56.59
19576,-49.85
19587,-39.45
19599,-26.63
19611,-12.91
19623,0.25
19635,11.77
19647,21.01
19659,27.77
19671,32.16
19683,34.47
19695,35.09
19707,34.42
19719,32.88
19731,30.85
19743,28.69
19755,26.75
19766,25.23
19777,24.27
19789,23.82
19801,23.71
19813,23.69
19825,23.53
19837,23.09
19849,22.3
19861,21.19
19873,19.76
19885,18.01
19897,15.82
19909,13.1
19921,9.79
19933,5.91
19945,1.63
19956,-2.81
19967,-7.17
19979,-11.26
19991,-15.04
20003,-18.55
20015,-21.89
20027,-25.2
20039,-28.59
20051,-32.21
20063,-36.26
20075,-40.93
20087,-46.25
20099,-51.94
20111,-57.29
20123,-61.16
20135,-62.35
20146,-59.93
20157,-53.63
20169,-43.95
20181,-31.98
20193,-19.12
20205,-6.65
20217,4.51
20229,13.85
20241,21.22
20253,26.61
20265,30.16
20277,32.05
20289,32.56
20301,32.09
20313,31.08
20325,29.95
20336,28.93
20347,28.11
20359,27.45
20371,26.9
20383,26.51
20395,26.42
20407,26.77
20419,27.56
20431,28.55
20443,29.3
20455,29.36
20467,28.45
20479,26.54
20491,23.86
20503,20.78
20515,17.63
20526,14.57
20537,11.61
20549,8.65
20561,5.55
20573,2.17
20585,-1.56
20597,-5.64
20609,-10.03
20621,-14.63
20633,-19.28
20645,-23.83
20657,-28.17
20669,-32.27
20681,-36.24
20693,-40.37
20705,-44.98
20716,-50.23
20727,-55.88
20739,-61.13
20751,-64.72
20763,-65.28
20775,-61.81
20787,-54.14
20799,-42.97
20811,-29.68
20823,-15.95
20835,-3.17
20847,7.7
20859,16.26
20871,22.47
20883,26.5
20895,28.59
20906,29.11
20917,28.44
20929,27.13
20941,25.67
20953,24.44
20965,23.69
20977,23.42
20989,23.52
