seconds,BVP
8,-61.6
19,-53.7
31,-41.91
43,-27.62
55,-12.57
67,1.58
79,13.61
91,22.92
103,29.43
115,33.39
127,35.24
139,35.46
151,34.53
163,32.85
175,30.8
187,28.65
198,26.67
209,25.07
221,24.07
233,23.81
245,24.38
257,25.75
269,27.79
281,30.3
293,32.95
305,35.38
317,37.2
329,38.12
341,38.01
353,36.98
365,35.26
377,33.15
388,30.87
399,28.51
411,26.03
423,23.38
435,20.5
447,17.41
459,14.19
471,11.0
483,7.93
495,5.08
507,2.4
519,-0.25
531,-3.01
543,-5.99
555,-9.21
567,-12.55
578,-15.8
589,-18.82
601,-21.54
613,-24.08
625,-26.65
637,-29.48
649,-32.78
661,-36.65
673,-40.99
685,-45.46
697,-49.41
709,-51.92
721,-51.97
733,-48.72
745,-41.85
757,-31.74
768,-19.44
779,-6.38
791,5.98
803,16.52
815,24.66
827,30.31
839,33.73
851,35.32
863,35.41
875,34.34
887,32.38
899,29.82
911,26.94
923,24.03
935,21.35
947,19.12
958,17.53
969,16.7
981,16.69
993,17.39
1005,18.56
1017,19.89
1029,20.98
1041,21.49
1053,21.19
1065,20.05
1077,18.21
1089,15.93
1101,13.53
1113,11.29
1125,9.37
1137,7.77
1148,6.33
1159,4.84
1171,3.1
1183,1.04
1195,-1.24
1207,-3.51
1219,-5.53
1231,-7.12
1243,-8.29
1255,-9.23
1267,-10.25
1279,-11.66
1291,-13.61
1303,-16.07
1315,-18.83
1327,-21.61
1338,-24.23
1349,-26.65
1361,-29.01
1373,-31.61
1385,-34.76
1397,-38.67
1409,-43.29
1421,-48.2
1433,-52.53
1445,-55.08
1457,-54.64
1469,-50.42
1481,-42.34
1493,-31.15
1505,-18.26
1517,-5.33
1528,6.28
1539,15.68
1551,22.59
1563,27.14
1575,29.67
1587,30.61
1599,30.38
1611,29.41
1623,28.08
1635,26.67
1647,25.32
1659,24.04
1671,22.79
1683,21.57
1695,20.5
1707,19.76
1718,19.52
1729,19.82
1741,20.56
1753,21.46
1765,22.23
1777,22.57
1789,22.33
1801,21.5
1813,20.19
1825,18.55
1837,16.79
1849,15.06
1861,13.46
1873,12.02
1885,10.71
1897,9.44
1908,8.18
1919,6.9
1931,5.62
1943,4.39
1955,3.19
1967,1.98
1979,0.66
1991,-0.85
2003,-2.58
2015,-4.47
2027,-6.38
2039,-8.22
2051,-9.92
2063,-11.51
2075,-13.14
2087,-14.99
2098,-17.22
2109,-19.86
2121,-22.83
2133,-25.95
2145,-29.04
2157,-31.93
2169,-34.56
2181,-37.01
2193,-39.43
2205,-41.98
2217,-44.89
2229,-48.31
2241,-52.2
2253,-56.21
2265,-59.65
2277,-61.49
2288,-60.72
2299,-56.56
2311,-48.91
2323,-38.35
2335,-26.09
2347,-13.58
2359,-2.15
2371,7.3
2383,14.36
2395,19.09
2407,21.77
2419,22.81
2431,22.55
2443,21.32
2455,19.39
2467,17.06
2478,14.62
2489,12.41
2501,10.71
2513,9.76
2525,9.65
2537,10.38
2549,11.81
2561,13.78
2573,16.08
2585,18.52
2597,20.93
2609,23.09
2621,24.81
2633,25.86
2645,26.11
2657,25.55
2668,24.27
2679,22.51
2691,20.55
2703,18.61
2715,16.8
2727,15.12
2739,13.5
2751,11.84
2763,10.07
2775,8.21
2787,6.3
2799,4.4
2811,2.57
2823,0.81
2835,-0.86
2847,-2.45
2858,-4.03
2869,-5.64
2881,-7.42
2893,-9.48
2905,-11.93
2917,-14.74
2929,-17.76
2941,-20.74
2953,-23.42
2965,-25.65
2977,-27.52
2989,-29.3
3001,-31.44
3013,-34.36
3025,-38.3
3037,-43.14
3048,-48.38
3059,-53.12
3071,-56.2
3083,-56.51
3095,-53.28
3107,-46.41
3119,-36.57
3131,-25.07
3143,-13.5
3155,-3.24
3167,4.87
3179,10.68
3191,14.52
3203,16.92
3215,18.31
3227,18.9
3238,18.76
3249,18.01
3261,16.92
3273,15.9
3285,15.36
3297,15.55
3309,16.5
3321,18.05
3333,19.98
3345,22.18
3357,24.62
3369,27.28
3381,30.11
3393,32.88
3405,35.25
3417,36.89
3428,37.58
3439,37.29
3451,36.17
3463,34.41
3475,32.2
3487,29.63
3499,26.75
3511,23.61
3523,20.34
3535,17.13
3547,14.1
3559,11.35
3571,8.79
3583,6.36
3595,3.99
3607,1.67
3618,-0.55
3629,-2.62
3641,-4.59
3653,-6.52
3665,-8.46
3677,-10.37
3689,-12.12
3701,-13.58
3713,-14.71
3725,-15.7
3737,-16.81
3749,-18.39
3761,-20.62
3773,-23.45
3785,-26.7
3797,-30.11
3808,-33.5
3819,-36.82
3831,-40.18
3843,-43.79
3855,-47.94
3867,-52.83
3879,-58.5
3891,-64.62
3903,-70.41
3915,-74.68
3927,-76.2
3939,-73.99
3951,-67.75
3963,-57.97
3975,-45.74
3987,-32.45
3998,-19.47
4009,-7.78
4021,2.0
4033,9.61
4045,15.03
4057,18.47
4069,20.28
4081,20.89
4093,20.74
4105,20.17
4117,19.43
4129,18.65
4141,17.95
4153,17.52
4165,17.58
4177,18.3
4188,19.79
4199,21.96
4211,24.57
4223,27.32
4235,29.87
4247,31.97
4259,33.43
4271,34.1
4283,33.91
4295,32.83
4307,30.93
4319,28.4
4331,25.48
4343,22.44
4355,19.51
4367,16.76
4378,14.24
4389,11.9
4401,9.75
4413,7.85
4425,6.27
4437,5.01
4449,3.97
4461,2.95
4473,1.78
4485,0.38
4497,-1.18
4509,-2.74
4521,-4.15
4533,-5.38
4545,-6.56
4557,-7.92
4568,-9.65
4579,-11.83
4591,-14.36
4603,-17.04
4615,-19.65
4627,-22.01
4639,-24.05
4651,-25.83
4663,-27.56
4675,-29.61
4687,-32.41
4699,-36.32
4711,-41.42
4723,-47.4
4735,-53.44
4747,-58.35
4758,-60.83
4769,-59.86
4781,-54.94
4793,-46.34
4805,-34.96
4817,-22.19
4829,-9.48
4841,1.9
4853,11.15
4865,17.95
4877,22.39
4889,24.79
4901,25.58
4913,25.18
4925,23.95
4937,22.26
4948,20.46
4959,18.85
4971,17.66
4983,17.01
4995,16.95
5007,17.47
5019,18.53
5031,20.13
5043,22.21
5055,24.65
5067,27.22
5079,29.6
5091,31.44
5103,32.47
5115,32.6
5127,31.88
5138,30.48
5149,28.61
5161,26.5
5173,24.3
5185,22.12
5197,20.02
5209,18.06
5221,16.24
5233,14.63
5245,13.27
5257,12.2
5269,11.39
5281,10.7
5293,9.92
5305,8.85
5317,7.38
5328,5.54
5339,3.53
5351,1.51
5363,-0.41
5375,-2.34
5387,-4.49
5399,-7.1
5411,-10.28
5423,-13.95
5435,-17.85
5447,-21.69
5459,-25.2
5471,-28.24
5483,-30.88
5495,-33.33
5507,-35.96
5518,-39.19
5529,-43.39
5541,-48.73
5553,-54.97
5565,-61.37
5577,-66.69
5589,-69.47
5601,-68.42
5613,-62.79
5625,-52.76
5637,-39.32
5649,-24.05
5661,-8.69
5673,5.33
5685,17.08
5697,26.2
5708,32.7
5719,36.84
5731,38.94
5743,39.34
5755,38.43
5767,36.68
5779,34.49
5791,32.27
5803,30.3
5815,28.7
5827,27.51
5839,26.72
5851,26.34
5863,26.41
5875,27.02
5887,28.24
5898,29.98
5909,32.01
5921,33.93
5933,35.3
5945,35.74
5957,35.1
5969,33.48
5981,31.16
5993,28.53
6005,25.93
6017,23.63
6029,21.79
6041,20.46
6053,19.63
6065,19.21
6077,19.02
6088,18.89
6099,18.63
6111,18.15
6123,17.43
6135,16.53
6147,15.49
6159,14.32
6171,12.95
6183,11.27
6195,9.22
6207,6.78
6219,4.02
6231,1.12
6243,-1.7
6255,-4.27
6267,-6.52
6278,-8.53
6289,-10.52
6301,-12.8
6313,-15.61
6325,-19.08
6337,-23.13
6349,-27.51
6361,-31.91
6373,-36.02
6385,-39.71
6397,-43.09
6409,-46.55
6421,-50.59
6433,-55.67
6445,-61.82
6457,-68.53
6468,-74.68
6479,-78.82
6491,-79.52
6503,-75.87
6515,-67.71
6527,-55.68
6539,-41.04
6551,-25.42
6563,-10.47
6575,2.46
6587,12.49
6599,19.35
6611,23.33
6623,25.08
6635,25.36
6647,24.72
6658,23.49
6669,21.77
6681,19.72
6693,17.65
6705,16.03
6717,15.38
6729,16.03
6741,18.01
6753,21.06
6765,24.78
6777,28.81
6789,32.92
6801,36.92
6813,40.64
6825,43.82
6837,46.15
6848,47.33
6859,47.25
6871,46.06
6883,44.08
6895,41.67
6907,39.07
6919,36.37
6931,33.59
6943,30.74
6955,27.9
6967,25.2
6979,22.65
6991,20.13
7003,17.39
7015,14.22
7027,10.6
7038,6.69
7049,2.83
7061,-0.69
7073,-3.8
7085,-6.62
7097,-9.41
7109,-12.35
7121,-15.51
7133,-18.81
7145,-22.1
7157,-25.31
7169,-28.42
7181,-31.45
7193,-34.45
7205,-37.48
7217,-40.67
7228,-44.21
7239,-48.31
7251,-52.98
7263,-57.81
7275,-61.92
7287,-64.04
7299,-62.89
7311,-57.67
7323,-48.41
7335,-36.06
7347,-22.21
7359,-8.6
7371,3.37
7383,12.96
7395,20.06
7407,24.99
7418,28.14
7429,29.79
7441,30.07
7453,29.07
7465,27.04
7477,24.37
7489,21.61
7501,19.27
7513,17.69
7525,16.99
7537,17.05
7549,17.68
7561,18.71
7573,19.99
7585,21.43
7597,22.97
7608,24.44
7619,25.69
7631,26.44
7643,26.43
7655,25.45
7667,23.46
7679,20.62
7691,17.31
7703,13.99
7715,11.05
7727,8.66
7739,6.69
7751,4.86
7763,2.88
7775,0.63
7787,-1.76
7798,-4.04
7809,-5.98
7821,-7.53
7833,-8.86
7845,-10.28
7857,-12.1
7869,-14.5
7881,-17.46
7893,-20.83
7905,-24.34
7917,-27.74
7929,-30.87
7941,-33.7
7953,-36.34
7965,-39.04
7977,-42.05
7988,-45.67
7999,-49.98
8011,-54.77
8023,-59.45
8035,-63.09
8047,-64.53
8059,-62.73
8071,-57.08
8083,-47.64
8095,-35.18
8107,-21.01
8119,-6.66
8131,6.52
8143,17.66
8155,26.39
8167,32.82
8178,37.32
8189,40.34
8201,42.25
8213,43.38
8225,43.94
8237,44.11
8249,44.03
8261,43.79
8273,43.46
8285,43.15
8297,42.99
8309,43.13
8321,43.67
8333,44.66
8345,46.04
8357,47.64
8368,49.25
8379,50.65
8391,51.67
8403,52.23
8415,52.31
8427,51.96
8439,51.22
8451,50.08
8463,48.46
8475,46.28
8487,43.46
8499,40.02
8511,36.09
8523,31.82
8535,27.37
8547,22.85
8558,18.28
8569,13.7
8581,9.12
8593,4.68
8605,0.54
8617,-3.09
8629,-6.09
8641,-8.43
8653,-10.23
8665,-11.73
8677,-13.16
8689,-14.66
8701,-16.22
8713,-17.65
8725,-18.72
8737,-19.25
8748,-19.22
8759,-18.94
8771,-18.92
8783,-19.81
8795,-22.25
8807,-26.53
8819,-32.51
8831,-39.45
8843,-46.14
8855,-51.14
8867,-53.16
8879,-51.38
8891,-45.67
8903,-36.72
8915,-25.84
8927,-14.71
8938,-5.0
8949,2.0
8961,5.68
8973,6.04
8985,3.66
8997,-0.6
9009,-5.91
9021,-11.51
9033,-16.75
9045,-21.01
9057,-23.79
9069,-24.83
9081,-24.31
9093,-22.89
9105,-21.53
9117,-21.1
9128,-21.97
9139,-23.89
9151,-26.08
9163,-27.61
9175,-27.82
9187,-26.57
9199,-24.14
9211,-21.01
9223,-17.57
9235,-13.95
9247,-10.01
9259,-5.63
9271,-0.78
9283,4.25
9295,8.92
9307,12.58
9318,14.73
9329,15.15
9341,14.05
9353,12.0
9365,9.71
9377,7.79
9389,6.59
9401,6.09
9413,6.03
9425,6.03
9437,5.77
9449,5.1
9461,3.98
9473,2.4
9485,0.37
9497,-2.19
9508,-5.36
9519,-9.16
9531,-13.6
9543,-18.6
9555,-24.12
9567,-29.96
9579,-35.69
9591,-40.59
9603,-43.66
9615,-43.89
9627,-40.57
9639,-33.64
9651,-23.7
9663,-11.91
9675,0.4
9687,12.06
9698,22.29
9709,30.62
9721,36.88
9733,41.08
9745,43.31
9757,43.83
9769,43.03
9781,41.42
9793,39.47
9805,37.55
9817,35.85
9829,34.41
9841,33.23
9853,32.32
9865,31.77
9877,31.69
9888,32.19
9899,33.28
9911,34.85
9923,36.6
9935,38.12
9947,38.96
9959,38.77
9971,37.38
9983,34.93
9995,31.79
10007,28.41
10019,25.2
10031,22.34
10043,19.76
10055,17.27
10067,14.66
10078,11.86
10089,8.99
10101,6.24
10113,3.82
10125,1.82
10137,0.17
10149,-1.36
10161,-3.03
10173,-5.05
10185,-7.51
10197,-10.33
10209,-13.3
10221,-16.18
10233,-18.86
10245,-21.42
10257,-24.13
10268,-27.35
10279,-31.42
10291,-36.49
10303,-42.49
10315,-49.01
10327,-55.28
10339,-60.23
10351,-62.64
10363,-61.48
10375,-56.18
10387,-46.98
10399,-34.9
10411,-21.47
10423,-8.33
10435,3.2
10447,12.36
10458,18.99
10469,23.32
10481,25.77
10493,26.73
10505,26.55
10517,25.53
10529,24.01
10541,22.33
10553,20.83
10565,19.77
10577,19.26
10589,19.25
10601,19.63
10613,20.28
10625,21.17
10637,22.34
10648,23.83
10659,25.62
10671,27.52
10683,29.24
10695,30.39
10707,30.72
10719,30.11
10731,28.67
10743,26.71
10755,24.58
10767,22.64
10779,21.02
10791,19.69
10803,18.46
10815,17.16
10827,15.68
10838,14.13
10849,12.71
10861,11.62
10873,10.88
10885,10.3
10897,9.56
10909,8.41
10921,6.79
10933,4.88
10945,3.08
10957,1.72
10969,0.98
10981,0.72
10993,0.56
11005,0.04
11017,-1.16
11028,-3.13
11039,-5.72
11051,-8.68
11063,-11.75
11075,-14.83
11087,-17.94
11099,-21.25
11111,-25.06
11123,-29.77
11135,-35.79
11147,-43.36
11159,-52.23
11171,-61.55
11183,-69.84
11195,-75.37
11207,-76.72
11218,-73.27
11229,-65.46
11241,-54.63
11253,-42.62
11265,-31.22
11277,-21.75
11289,-14.84
11301,-10.46
11313,-8.13
11325,-7.08
11337,-6.63
11349,-6.23
11361,-5.64
11373,-4.83
11385,-3.92
11397,-3.03
11408,-2.19
11419,-1.36
11431,-0.43
11443,0.78
11455,2.39
11467,4.55
11479,7.27
11491,10.49
11503,13.94
11515,17.27
11527,20.04
11539,21.93
11551,22.77
11563,22.65
11575,21.84
11587,20.75
11598,19.76
11609,19.11
11621,18.81
11633,18.59
11645,18.08
11657,16.86
11669,14.74
11681,11.73
11693,8.06
11705,4.0
11717,-0.17
11729,-4.26
11741,-8.1
11753,-11.54
11765,-14.5
11777,-17.03
11788,-19.32
11799,-21.71
11811,-24.49
11823,-27.77
11835,-31.34
11847,-34.75
11859,-37.51
11871,-39.25
11883,-39.93
11895,-39.85
11907,-39.58
11919,-39.81
11931,-41.11
11943,-43.71
11955,-47.27
11967,-50.89
11978,-53.26
11989,-53.04
12001,-49.21
12013,-41.49
12025,-30.35
12037,-16.9
12049,-2.62
12061,11.05
12073,23.02
12085,32.63
12097,39.71
12109,44.5
12121,47.38
12133,48.8
12145,49.11
12157,48.53
12168,47.21
12179,45.36
12191,43.3
12203,41.39
12215,39.97
12227,39.26
12239,39.3
12251,39.98
12263,41.1
12275,42.44
12287,43.85
12299,45.11
12311,45.96
12323,46.18
12335,45.57
12347,44.13
12358,42.02
12369,39.5
12381,36.78
12393,33.91
12405,30.74
12417,27.03
12429,22.59
12441,17.47
12453,11.92
12465,6.38
12477,1.18
12489,-3.5
12501,-7.75
12513,-11.79
12525,-15.85
12537,-19.98
12548,-24.1
12559,-27.99
12571,-31.42
12583,-34.32
12595,-36.81
12607,-39.17
12619,-41.71
12631,-44.72
12643,-48.4
12655,-52.84
12667,-57.89
12679,-63.09
12691,-67.61
12703,-70.28
12715,-69.88
12727,-65.53
12738,-57.06
12749,-45.1
12761,-30.97
12773,-16.27
12785,-2.41
12797,9.6
12809,19.35
12821,26.81
12833,32.16
12845,35.64
12857,37.48
12869,37.95
12881,37.35
12893,36.05
12905,34.4
12917,32.77
12928,31.44
12939,30.59
12951,30.32
12963,30.62
12975,31.46
12987,32.77
12999,34.43
13011,36.27
13023,38.06
13035,39.48
13047,40.25
13059,40.2
13071,39.3
13083,37.72
13095,35.72
13107,33.52
13118,31.19
13129,28.74
13141,26.12
13153,23.36
13165,20.62
13177,18.1
13189,15.91
13201,14.08
13213,12.48
13225,10.93
13237,9.3
13249,7.48
13261,5.47
13273,3.28
13285,0.94
13297,-1.55
13308,-4.21
13319,-7.06
13331,-10.19
13343,-13.64
13355,-17.4
13367,-21.34
13379,-25.22
13391,-28.75
13403,-31.73
13415,-34.21
13427,-36.47
13439,-39.03
13451,-42.45
13463,-47.12
13475,-53.04
13487,-59.7
13498,-66.01
13509,-70.53
13521,-71.76
13533,-68.65
13545,-60.93
13557,-49.23
13569,-34.99
13581,-19.98
13593,-5.86
13605,6.18
13617,15.62
13629,22.39
13641,26.77
13653,29.13
13665,29.84
13677,29.3
13688,27.9
13699,26.03
13711,24.04
13723,22.14
13735,20.47
13747,19.08
13759,17.98
13771,17.24
13783,16.92
13795,17.11
13807,17.84
13819,19.05
13831,20.58
13843,22.16
13855,23.48
13867,24.19
13878,24.06
13889,22.97
13901,21.04
13913,18.54
13925,15.85
13937,13.31
13949,11.1
13961,9.23
13973,7.58
13985,6.0
13997,4.4
14009,2.81
14021,1.31
14033,-0.04
14045,-1.29
14057,-2.57
14068,-4.08
14079,-5.98
14091,-8.38
14103,-11.29
14115,-14.66
14127,-18.38
14139,-22.25
14151,-26.0
14163,-29.33
14175,-31.99
14187,-33.94
14199,-35.38
14211,-36.77
14223,-38.59
14235,-41.26
14247,-44.82
14258,-48.82
14269,-52.34
14281,-54.17
14293,-53.16
14305,-48.54
14317,-40.19
14329,-28.75
14341,-15.43
14353,-1.69
14365,11.11
14377,21.93
14389,30.24
14401,35.91
14413,39.14
14425,40.34
14437,40.01
14448,38.67
14459,36.81
14471,34.79
14483,32.84
14495,31.09
14507,29.58
14519,28.4
14531,27.69
14543,27.59
14555,28.25
14567,29.65
14579,31.6
14591,33.69
14603,35.46
14615,36.51
14627,36.6
14638,35.73
14649,34.04
14661,31.76
14673,29.07
14685,26.11
14697,22.93
14709,19.6
14721,16.19
14733,12.87
14745,9.79
14757,7.03
14769,4.56
14781,2.23
14793,-0.22
14805,-2.99
14817,-6.15
14828,-9.61
14839,-13.15
14851,-16.49
14863,-19.49
14875,-22.15
14887,-24.58
14899,-26.88
14911,-29.1
14923,-31.26
14935,-33.44
14947,-35.93
14959,-39.06
14971,-43.03
14983,-47.55
14995,-51.72
15007,-54.14
15018,-53.34
15029,-48.35
15041,-39.11
15053,-26.53
15065,-12.18
15077,2.25
15089,15.34
15101,26.22
15113,34.58
15125,40.47
15137,44.1
15149,45.73
15161,45.65
15173,44.21
15185,41.82
15197,38.94
15208,35.99
15219,33.32
15231,31.09
15243,29.35
15255,28.12
15267,27.33
15279,26.95
15291,26.94
15303,27.2
15315,27.6
15327,27.96
15339,28.11
15351,27.91
15363,27.37
15375,26.48
15387,25.27
15398,23.76
15409,21.94
15421,19.86
15433,17.56
15445,15.11
15457,12.5
15469,9.73
15481,6.69
15493,3.34
15505,-0.32
15517,-4.18
15529,-8.05
15541,-11.71
15553,-15.03
15565,-18.04
15577,-20.96
15588,-24.12
15599,-27.78
15611,-31.98
15623,-36.47
15635,-40.77
15647,-44.38
15659,-47.06
15671,-48.97
15683,-50.66
15695,-52.84
15707,-56.09
15719,-60.63
15731,-66.15
15743,-71.78
15755,-76.32
15767,-78.4
15778,-76.86
15789,-71.06
15801,-61.05
15813,-47.66
15825,-32.31
15837,-16.68
15849,-2.28
15861,9.8
15873,19.01
15885,25.27
15897,28.81
15909,29.98
15921,29.19
15933,26.89
15945,23.52
15957,19.53
15968,15.36
15979,11.4
15991,7.94
16003,5.21
16015,3.38
16027,2.52
16039,2.64
16051,3.61
16063,5.16
16075,6.95
16087,8.63
16099,9.91
16111,10.7
16123,11.01
16135,10.93
16147,10.61
16158,10.15
16169,9.55
16181,8.8
16193,7.84
16205,6.62
16217,5.17
16229,3.58
16241,2.0
16253,0.54
16265,-0.72
16277,-1.8
16289,-2.83
16301,-3.96
16313,-5.3
16325,-6.95
16337,-8.9
16348,-11.17
16359,-13.77
16371,-16.65
16383,-19.83
16395,-23.22
16407,-26.78
16419,-30.53
16431,-34.58
16443,-39.11
16455,-44.18
16467,-49.55
16479,-54.5
16491,-57.93
16503,-58.54
16515,-55.3
16527,-47.76
16538,-36.32
16549,-22.1
16561,-6.7
16573,8.25
16585,21.41
16597,31.95
16609,39.54
16621,44.26
16633,46.49
16645,46.67
16657,45.24
16669,42.57
16681,38.96
16693,34.71
16705,30.14
16717,25.66
16728,21.64
16739,18.36
16751,15.95
16763,14.3
16775,13.22
16787,12.51
16799,12.01
16811,11.62
16823,11.25
16835,10.77
16847,10.0
16859,8.78
16871,7.05
16883,4.95
16895,2.72
16907,0.65
16918,-1.06
16929,-2.36
16941,-3.38
16953,-4.31
16965,-5.27
16977,-6.27
16989,-7.2
17001,-7.94
17013,-8.4
17025,-8.69
17037,-8.99
17049,-9.58
17061,-10.63
17073,-12.15
17085,-14.01
17097,-15.99
17108,-17.9
17119,-19.76
17131,-21.77
17143,-24.33
17155,-27.88
17167,-32.68
17179,-38.65
17191,-45.22
17203,-51.33
17215,-55.59
17227,-56.63
17239,-53.49
17251,-45.94
17263,-34.56
17275,-20.67
17287,-5.94
17298,8.04
17309,20.09
17321,29.56
17333,36.34
17345,40.65
17357,42.95
17369,43.68
17381,43.31
17393,42.24
17405,40.82
17417,39.34
17429,37.98
17441,36.83
17453,35.89
17465,35.15
17477,34.63
17488,34.44
17499,34.66
17511,35.35
17523,36.44
17535,37.71
17547,38.84
17559,39.5
17571,39.51
17583,38.78
17595,37.37
17607,35.4
17619,33.03
17631,30.41
17643,27.68
17655,24.96
17667,22.29
17678,19.68
17689,17.12
17701,14.61
17713,12.22
17725,10.0
17737,8.05
17749,6.33
17761,4.74
17773,3.09
17785,1.2
17797,-0.96
17809,-3.34
17821,-5.81
17833,-8.25
17845,-10.66
17857,-13.19
17868,-16.03
17879,-19.31
17891,-22.99
17903,-26.83
17915,-30.51
17927,-33.8
17939,-36.64
17951,-39.2
17963,-41.83
17975,-44.96
17987,-48.95
17999,-53.99
18011,-59.89
18023,-66.11
18035,-71.57
18047,-74.91
18058,-74.73
18069,-70.1
18081,-60.83
18093,-47.68
18105,-32.21
18117,-16.21
18129,-1.34
18141,11.35
18153,21.43
18165,28.95
18177,34.16
18189,37.36
18201,38.86
18213,39.01
18225,38.28
18237,37.16
18248,36.08
18259,35.26
18271,34.71
18283,34.32
18295,34.0
18307,33.75
18319,33.74
18331,34.17
18343,35.11
18355,36.48
18367,38.01
18379,39.33
18391,40.14
18403,40.26
18415,39.63
18427,38.33
18438,36.49
18449,34.3
18461,31.98
18473,29.77
18485,27.83
18497,26.22
18509,24.85
18521,23.49
18533,21.88
18545,19.86
18557,17.43
18569,14.78
18581,12.19
18593,9.9
18605,8.04
18617,6.56
18628,5.25
18639,3.85
18651,2.11
18663,-0.1
18675,-2.71
18687,-5.53
18699,-8.29
18711,-10.81
18723,-13.06
18735,-15.25
18747,-17.71
18759,-20.73
18771,-24.37
18783,-28.42
18795,-32.45
18807,-35.96
18818,-38.66
18829,-40.59
18841,-42.16
18853,-43.99
18865,-46.79
18877,-51.02
18889,-56.74
18901,-63.41
18913,-69.86
18925,-74.53
18937,-75.84
18949,-72.69
18961,-64.85
18973,-53.1
18985,-38.91
18997,-24.05
19008,-10.07
19019,1.95
19031,11.5
19043,18.44
19055,22.86
19067,24.93
19079,24.99
19091,23.5
19103,21.07
19115,18.38
19127,15.93
19139,14.06
19151,12.87
19163,12.35
19175,12.44
19187,13.08
19198,14.25
19209,15.89
19221,17.94
19233,20.25
19245,22.63
19257,24.81
19269,26.52
19281,27.51
19293,27.62
19305,26.76
19317,25.0
19329,22.51
19341,19.56
19353,16.46
19365,13.44
19377,10.64
19388,8.08
19399,5.69
19411,3.34
19423,0.92
19435,-1.61
19447,-4.2
19459,-6.72
19471,-9.0
19483,-10.9
19495,-12.43
19507,-13.69
19519,-14.95
19531,-16.52
19543,-18.59
19555,-21.2
19567,-24.15
19578,-27.15
19589,-29.87
19601,-32.16
19613,-34.03
19625,-35.68
19637,-37.44
19649,-39.67
19661,-42.76
19673,-46.96
19685,-52.22
19697,-57.96
19709,-63.01
19721,-65.87
19733,-65.13
19745,-59.95
19757,-50.43
19768,-37.58
19779,-22.99
19791,-8.38
19803,4.87
19815,15.84
19827,24.13
19839,29.71
19851,32.82
19863,33.89
19875,33.44
19887,32.07
19899,30.26
19911,28.39
19923,26.64
19935,25.07
19947,23.74
19958,22.75
19969,22.31
19981,22.63
19993,23.81
20005,25.73
20017,28.12
20029,30.61
20041,32.88
20053,34.78
20065,36.22
20077,37.21
20089,37.69
20101,37.59
20113,36.88
20125,35.6
20137,33.89
20148,31.96
20159,29.98
20171,28.03
20183,26.13
20195,24.26
20207,22.43
20219,20.66
20231,18.94
20243,17.17
20255,15.23
20267,12.99
20279,10.42
20291,7.6
20303,4.68
20315,1.74
20327,-1.25
20338,-4.45
20349,-8.06
20361,-12.17
20373,-16.77
20385,-21.62
20397,-26.47
20409,-31.08
20421,-35.35
20433,-39.42
20445,-43.55
20457,-48.12
20469,-53.48
20481,-59.79
20493,-66.82
20505,-73.86
20517,-79.74
20528,-83.1
20539,-82.72
20551,-77.94
20563,-68.88
20575,-56.42
20587,-41.97
20599,-27.05
20611,-13.05
20623,-0.91
20635,8.87
20647,16.18
20659,21.21
20671,24.3
20683,25.86
20695,26.25
20707,25.85
20718,24.95
20729,23.82
20741,22.71
20753,21.86
20765,21.49
20777,21.78
20789,22.82
20801,24.61
20813,27.0
20825,29.75
20837,32.61
20849,35.3
20861,37.64
20873,39.47
20885,40.66
20897,41.03
20908,40.42
20919,38.72
20931,36.01
20943,32.52
20955,28.61
20967,24.59
20979,20.66
20991,16.82
