seconds,BVP
2,-68.94
14,-74.2
26,-78.41
38,-81.27
49,-82.53
60,-82.34
72,-81.19
84,-79.76
96,-78.57
108,-77.86
120,-77.62
132,-77.76
144,-78.31
156,-79.41
168,-81.17
180,-83.63
192,-86.62
204,-89.84
216,-92.89
228,-95.25
239,-96.34
250,-95.62
262,-92.69
274,-87.51
286,-80.47
298,-72.27
310,-63.71
322,-55.36
334,-47.44
346,-39.83
358,-32.3
370,-24.8
382,-17.53
394,-10.86
406,-5.11
418,-0.24
429,4.12
440,8.61
452,13.74
464,19.7
476,26.22
488,32.72
500,38.52
512,43.15
524,46.43
536,48.48
548,49.54
560,49.79
572,49.32
584,48.07
596,45.97
608,42.97
619,39.16
630,34.74
642,29.98
654,25.16
666,20.55
678,16.36
690,12.75
702,9.85
714,7.68
726,6.22
738,5.32
750,4.78
762,4.32
774,3.65
786,2.51
798,0.68
809,-1.93
820,-5.26
832,-9.03
844,-12.73
856,-15.72
868,-17.35
880,-17.23
892,-15.26
904,-11.7
916,-7.02
928,-1.72
940,3.75
952,9.06
964,13.96
976,18.21
988,21.56
999,23.85
1010,25.04
1022,25.24
1034,24.74
1046,23.91
1058,23.08
1070,22.46
1082,22.16
1094,22.18
1106,22.5
1118,23.06
1130,23.8
1142,24.65
1154,25.48
1166,26.17
1178,26.61
1189,26.74
1200,26.57
1212,26.15
1224,25.49
1236,24.59
1248,23.36
1260,21.75
1272,19.83
1284,17.74
1296,15.71
1308,13.92
1320,12.43
1332,11.12
1344,9.74
1356,8.06
1368,5.94
1379,3.38
1390,0.54
1402,-2.35
1414,-5.08
1426,-7.5
1438,-9.59
1450,-11.47
1462,-13.36
1474,-15.56
1486,-18.35
1498,-21.81
1510,-25.76
1522,-29.65
1534,-32.72
1546,-34.15
1558,-33.37
1569,-30.25
1580,-25.13
1592,-18.66
1604,-11.66
1616,-4.8
1628,1.49
1640,6.98
1652,11.63
1664,15.43
1676,18.34
1688,20.36
1700,21.52
1712,21.93
1724,21.83
1736,21.5
1748,21.24
1759,21.25
1770,21.61
1782,22.31
1794,23.29
1806,24.41
1818,25.56
1830,26.61
1842,27.45
1854,28.05
1866,28.41
1878,28.55
1890,28.51
1902,28.28
1914,27.82
1926,27.08
1938,26.05
1949,24.81
1960,23.43
1972,21.99
1984,20.5
1996,18.91
2008,17.19
2020,15.37
2032,13.54
2044,11.85
2056,10.39
2068,9.13
2080,7.97
2092,6.78
2104,5.53
2116,4.24
2128,2.96
2139,1.72
2150,0.43
2162,-1.06
2174,-2.86
2186,-4.99
2198,-7.31
2210,-9.58
2222,-11.62
2234,-13.38
2246,-14.99
2258,-16.68
2270,-18.75
2282,-21.39
2294,-24.68
2306,-28.41
2318,-32.14
2329,-35.2
2340,-36.83
2352,-36.41
2364,-33.65
2376,-28.75
2388,-22.34
2400,-15.27
2412,-8.34
2424,-2.08
2436,3.27
2448,7.71
2460,11.27
2472,13.96
2484,15.79
2496,16.81
2508,17.17
2519,17.15
2530,17.1
2542,17.27
2554,17.81
2566,18.71
2578,19.9
2590,21.24
2602,22.64
2614,24.05
2626,25.42
2638,26.72
2650,27.89
2662,28.82
2674,29.41
2686,29.57
2698,29.26
2709,28.5
2720,27.36
2732,25.95
2744,24.38
2756,22.77
2768,21.17
2780,19.66
2792,18.25
2804,16.93
2816,15.66
2828,14.38
2840,13.11
2852,11.87
2864,10.73
2876,9.7
2888,8.72
2899,7.67
2910,6.39
2922,4.76
2934,2.85
2946,0.81
2958,-1.15
2970,-2.82
2982,-4.17
2994,-5.32
3006,-6.48
3018,-7.86
3030,-9.54
3042,-11.51
3054,-13.62
3066,-15.75
3078,-17.81
3089,-19.79
3100,-21.74
3112,-23.74
3124,-25.95
3136,-28.46
3148,-31.37
3160,-34.54
3172,-37.61
3184,-40.0
3196,-40.98
3208,-39.96
3220,-36.66
3232,-31.24
3244,-24.3
3256,-16.67
3268,-9.21
3279,-2.62
3290,2.76
3302,6.89
3314,9.99
3326,12.35
3338,14.18
3350,15.52
3362,16.29
3374,16.38
3386,15.83
3398,14.87
3410,13.9
3422,13.29
3434,13.28
3446,13.86
3458,14.83
3469,15.94
3480,17.04
3492,18.03
3504,18.88
3516,19.52
3528,19.85
3540,19.75
3552,19.17
3564,18.2
3576,16.99
3588,15.72
3600,14.52
3612,13.42
3624,12.36
3636,11.25
3648,9.97
3659,8.47
3670,6.77
3682,4.95
3694,3.13
3706,1.49
3718,0.11
3730,-0.99
3742,-1.95
3754,-2.95
3766,-4.17
3778,-5.71
3790,-7.51
3802,-9.41
3814,-11.27
3826,-12.99
3838,-14.56
3849,-16.12
3860,-17.82
3872,-19.84
3884,-22.25
3896,-24.98
3908,-27.75
3920,-30.09
3932,-31.46
3944,-31.34
3956,-29.43
3968,-25.7
3980,-20.48
3992,-14.26
4004,-7.64
4016,-1.18
4028,4.62
4039,9.39
4050,12.87
4062,14.96
4074,15.76
4086,15.55
4098,14.73
4110,13.68
4122,12.69
4134,11.89
4146,11.32
4158,10.94
4170,10.76
4182,10.8
4194,11.06
4206,11.56
4218,12.24
4229,13.05
4240,13.88
4252,14.64
4264,15.21
4276,15.45
4288,15.23
4300,14.46
4312,13.14
4324,11.42
4336,9.51
4348,7.69
4360,6.13
4372,4.9
4384,3.88
4396,2.92
4408,1.83
4419,0.53
4430,-0.97
4442,-2.56
4454,-4.11
4466,-5.52
4478,-6.82
4490,-8.07
4502,-9.4
4514,-10.86
4526,-12.44
4538,-14.06
4550,-15.6
4562,-16.97
4574,-18.18
4586,-19.35
4598,-20.7
4609,-22.46
4620,-24.76
4632,-27.64
4644,-30.91
4656,-34.18
4668,-36.91
4680,-38.48
4692,-38.39
4704,-36.35
4716,-32.39
4728,-26.83
4740,-20.22
4752,-13.19
4764,-6.34
4776,-0.15
4788,5.04
4799,8.99
4810,11.66
4822,13.1
4834,13.55
4846,13.31
4858,12.74
4870,12.16
4882,11.71
4894,11.41
4906,11.2
4918,11.02
4930,10.94
4942,11.06
4954,11.51
4966,12.31
4978,13.33
4989,14.36
5000,15.21
5012,15.76
5024,15.98
5036,15.89
5048,15.5
5060,14.84
5072,13.93
5084,12.85
5096,11.71
5108,10.6
5120,9.57
5132,8.56
5144,7.48
5156,6.24
5168,4.82
5179,3.28
5190,1.74
5202,0.35
5214,-0.82
5226,-1.79
5238,-2.7
5250,-3.77
5262,-5.17
5274,-6.93
5286,-8.94
5298,-10.98
5310,-12.81
5322,-14.33
5334,-15.61
5346,-16.82
5358,-18.17
5369,-19.83
5380,-21.93
5392,-24.51
5404,-27.51
5416,-30.72
5428,-33.7
5440,-35.8
5452,-36.32
5464,-34.77
5476,-31.07
5488,-25.6
5500,-19.05
5512,-12.19
5524,-5.7
5536,0.01
5548,4.71
5559,8.35
5570,10.96
5582,12.62
5594,13.52
5606,13.86
5618,13.87
5630,13.72
5642,13.5
5654,13.24
5666,12.94
5678,12.68
5690,12.6
5702,12.81
5714,13.39
5726,14.28
5738,15.36
5749,16.45
5760,17.38
5772,18.0
5784,18.26
5796,18.16
5808,17.71
5820,16.93
5832,15.86
5844,14.54
5856,13.07
5868,11.58
5880,10.21
5892,9.04
5904,8.03
5916,7.09
5928,6.06
5939,4.82
5950,3.39
5962,1.89
5974,0.49
5986,-0.67
5998,-1.59
6010,-2.39
6022,-3.22
6034,-4.23
6046,-5.47
6058,-6.92
6070,-8.5
6082,-10.13
6094,-11.7
6106,-13.13
6118,-14.34
6129,-15.36
6140,-16.27
6152,-17.3
6164,-18.71
6176,-20.69
6188,-23.33
6200,-26.45
6212,-29.65
6224,-32.36
6236,-33.93
6248,-33.83
6260,-31.77
6272,-27.78
6284,-22.26
6296,-15.82
6308,-9.16
6319,-2.89
6330,2.53
6342,6.86
6354,10.01
6366,12.05
6378,13.12
6390,13.45
6402,13.24
6414,12.69
6426,11.97
6438,11.21
6450,10.57
6462,10.16
6474,10.05
6486,10.22
6498,10.56
6509,10.96
6520,11.4
6532,11.88
6544,12.48
6556,13.16
6568,13.77
6580,14.08
6592,13.92
6604,13.29
6616,12.39
6628,11.51
6640,10.84
6652,10.34
6664,9.8
6676,8.97
6688,7.69
6699,6.04
6710,4.22
6722,2.5
6734,1.08
6746,-0.02
6758,-0.86
6770,-1.58
6782,-2.35
6794,-3.25
6806,-4.38
6818,-5.73
6830,-7.26
6842,-8.87
6854,-10.43
6866,-11.86
6878,-13.15
6889,-14.35
6900,-15.64
6912,-17.19
6924,-19.17
6936,-21.62
6948,-24.41
6960,-27.19
6972,-29.45
6984,-30.61
6996,-30.2
7008,-28.0
7020,-24.18
7032,-19.2
7044,-13.66
7056,-8.11
7068,-2.91
7079,1.78
7090,5.93
7102,9.47
7114,12.27
7126,14.16
7138,15.02
7150,14.87
7162,13.96
7174,12.63
7186,11.23
7198,10.05
7210,9.23
7222,8.82
7234,8.81
7246,9.14
7258,9.74
7269,10.51
7280,11.35
7292,12.13
7304,12.79
7316,13.27
7328,13.52
7340,13.47
7352,13.08
7364,12.31
7376,11.23
7388,10.0
7400,8.77
7412,7.67
7424,6.7
7436,5.79
7448,4.8
7459,3.66
7470,2.38
7482,1.06
7494,-0.17
7506,-1.2
7518,-2.04
7530,-2.76
7542,-3.51
7554,-4.46
7566,-5.73
7578,-7.37
7590,-9.27
7602,-11.23
7614,-13.04
7626,-14.51
7638,-15.64
7649,-16.55
7660,-17.51
7672,-18.83
7684,-20.7
7696,-23.23
7708,-26.35
7720,-29.8
7732,-33.15
7744,-35.85
7756,-37.27
7768,-36.86
7780,-34.31
7792,-29.66
7804,-23.38
7816,-16.24
7828,-9.1
7839,-2.66
7850,2.65
7862,6.77
7874,9.83
7886,12.03
7898,13.53
7910,14.36
7922,14.57
7934,14.23
7946,13.55
7958,12.78
7970,12.16
7982,11.85
7994,11.86
8006,12.15
8018,12.64
8029,13.28
8040,14.08
8052,15.02
8064,16.06
8076,17.09
8088,17.89
8100,18.25
8112,18.0
8124,17.13
8136,15.78
8148,14.22
8160,12.77
8172,11.65
8184,10.86
8196,10.3
8208,9.7
8219,8.85
8230,7.63
8242,6.09
8254,4.36
8266,2.61
8278,0.96
8290,-0.52
8302,-1.86
8314,-3.08
8326,-4.25
8338,-5.44
8350,-6.75
8362,-8.24
8374,-9.94
8386,-11.81
8398,-13.73
8409,-15.61
8420,-17.36
8432,-19.04
8444,-20.81
8456,-22.9
8468,-25.43
8480,-28.35
8492,-31.29
8504,-33.67
8516,-34.79
8528,-34.09
8540,-31.33
8552,-26.67
8564,-20.68
8576,-14.06
8588,-7.53
8599,-1.62
8610,3.4
8622,7.43
8634,10.5
8646,12.69
8658,14.12
8670,14.89
8682,15.12
8694,14.93
8706,14.43
8718,13.72
8730,12.94
8742,12.23
8754,11.75
8766,11.66
8778,12.08
8789,13.01
8800,14.33
8812,15.83
8824,17.21
8836,18.2
8848,18.59
8860,18.31
8872,17.45
8884,16.2
8896,14.8
8908,13.48
8920,12.33
8932,11.33
8944,10.36
8956,9.27
8968,7.98
8979,6.49
8990,4.87
9002,3.26
9014,1.73
9026,0.33
9038,-0.96
9050,-2.21
9062,-3.47
9074,-4.77
9086,-6.14
9098,-7.61
9110,-9.18
9122,-10.8
9134,-12.42
9146,-13.97
9158,-15.45
9169,-16.84
9180,-18.28
9192,-19.9
9204,-21.89
9216,-24.4
9228,-27.36
9240,-30.47
9252,-33.13
9264,-34.61
9276,-34.25
9288,-31.72
9300,-27.12
9312,-20.98
9324,-14.09
9336,-7.25
9348,-1.04
9359,4.18
9370,8.28
9382,11.29
9394,13.21
9406,14.09
9418,14.07
9430,13.34
9442,12.21
9454,11.05
9466,10.18
9478,9.82
9490,10.03
9502,10.73
9514,11.79
9526,13.02
9538,14.27
9549,15.4
9560,16.3
9572,16.88
9584,17.12
9596,17.04
9608,16.7
9620,16.15
9632,15.46
9644,14.62
9656,13.65
9668,12.56
9680,11.36
9692,10.14
9704,8.94
9716,7.81
9728,6.74
9739,5.7
9750,4.59
9762,3.35
9774,1.95
9786,0.41
9798,-1.22
9810,-2.88
9822,-4.5
9834,-6.06
9846,-7.59
9858,-9.08
9870,-10.55
9882,-11.99
9894,-13.43
9906,-14.94
9918,-16.68
9929,-18.83
9940,-21.45
9952,-24.45
9964,-27.45
9976,-29.84
9988,-30.94
10000,-30.22
10012,-27.47
10024,-22.92
10036,-17.14
10048,-10.82
10060,-4.6
10072,1.09
10084,6.03
10096,10.13
10108,13.33
10119,15.6
10130,16.89
10142,17.25
10154,16.81
10166,15.8
10178,14.49
10190,13.15
10202,12.03
10214,11.36
10226,11.26
10238,11.75
10250,12.71
10262,13.92
10274,15.14
10286,16.13
10298,16.77
10309,17.01
10320,16.92
10332,16.55
10344,15.97
10356,15.22
10368,14.33
10380,13.36
10392,12.34
10404,11.33
10416,10.35
10428,9.37
10440,8.31
10452,7.1
10464,5.7
10476,4.13
10488,2.5
10499,0.93
10510,-0.5
10522,-1.75
10534,-2.89
10546,-4.02
10558,-5.27
10570,-6.72
10582,-8.4
10594,-10.27
10606,-12.23
10618,-14.16
10630,-15.94
10642,-17.51
10654,-18.9
10666,-20.28
10678,-21.91
10689,-24.06
10700,-26.83
10712,-30.12
10724,-33.52
10736,-36.42
10748,-38.1
10760,-37.98
10772,-35.75
10784,-31.48
10796,-25.63
10808,-18.84
10820,-11.82
10832,-5.13
10844,0.85
10856,5.92
10868,9.96
10879,12.9
10890,14.69
10902,15.42
10914,15.27
10926,14.56
10938,13.65
10950,12.86
10962,12.37
10974,12.21
10986,12.34
10998,12.68
11010,13.16
11022,13.7
11034,14.28
11046,14.89
11058,15.51
11069,16.08
11080,16.46
11092,16.43
11104,15.75
11116,14.28
11128,12.02
11140,9.17
11152,6.06
11164,3.07
11176,0.52
11188,-1.37
11200,-2.54
11212,-3.01
11224,-2.98
11236,-2.7
11248,-2.47
11259,-2.54
11270,-2.99
11282,-3.75
11294,-4.62
11306,-5.36
11318,-5.9
11330,-6.28
11342,-6.66
11354,-7.2
11366,-7.94
11378,-8.81
11390,-9.63
11402,-10.26
11414,-10.65
11426,-10.9
11438,-11.19
11449,-11.77
11460,-12.85
11472,-14.55
11484,-16.87
11496,-19.66
11508,-22.56
11520,-25.06
11532,-26.57
11544,-26.55
11556,-24.65
11568,-20.87
11580,-15.53
11592,-9.24
11604,-2.68
11616,3.55
11628,9.02
11639,13.49
11650,16.88
11662,19.19
11674,20.48
11686,20.88
11698,20.6
11710,19.91
11722,19.07
11734,18.26
11746,17.55
11758,17.02
11770,16.72
11782,16.75
11794,17.23
11806,18.16
11818,19.44
11829,20.84
11840,22.07
11852,22.86
11864,23.05
11876,22.63
11888,21.7
11900,20.45
11912,19.07
11924,17.72
11936,16.48
11948,15.36
11960,14.31
11972,13.22
11984,11.99
11996,10.56
12008,8.94
12019,7.17
12030,5.36
12042,3.65
12054,2.18
12066,1.05
12078,0.26
12090,-0.33
12102,-0.96
12114,-1.92
12126,-3.39
12138,-5.34
12150,-7.57
12162,-9.75
12174,-11.64
12186,-13.15
12198,-14.38
12209,-15.54
12220,-16.91
12232,-18.68
12244,-20.94
12256,-23.66
12268,-26.61
12280,-29.38
12292,-31.36
12304,-31.9
12316,-30.51
12328,-27.08
12340,-21.92
12352,-15.71
12364,-9.25
12376,-3.21
12388,1.97
12399,6.15
12410,9.41
12422,11.88
12434,13.68
12446,14.81
12458,15.26
12470,15.03
12482,14.22
12494,13.07
12506,11.87
12518,10.92
12530,10.45
12542,10.53
12554,11.09
12566,11.98
12578,13.04
12589,14.05
12600,14.86
12612,15.31
12624,15.37
12636,15.08
12648,14.54
12660,13.88
12672,13.15
12684,12.31
12696,11.3
12708,10.09
12720,8.72
12732,7.29
12744,5.85
12756,4.4
12768,2.84
12779,1.12
12790,-0.69
12802,-2.45
12814,-3.97
12826,-5.15
12838,-6.04
12850,-6.84
12862,-7.8
12874,-9.09
12886,-10.74
12898,-12.66
12910,-14.76
12922,-17.0
12934,-19.45
12946,-22.18
12958,-25.08
12969,-27.83
12980,-29.89
12992,-30.63
13004,-29.58
13016,-26.63
13028,-22.04
13040,-16.4
13052,-10.35
13064,-4.43
13076,1.0
13088,5.77
13100,9.75
13112,12.79
13124,14.74
13136,15.56
13148,15.35
13159,14.43
13170,13.22
13182,12.08
13194,11.27
13206,10.85
13218,10.79
13230,11.04
13242,11.51
13254,12.15
13266,12.89
13278,13.62
13290,14.27
13302,14.8
13314,15.19
13326,15.46
13338,15.57
13349,15.44
13360,14.98
13372,14.1
13384,12.83
13396,11.27
13408,9.62
13420,8.07
13432,6.72
13444,5.59
13456,4.6
13468,3.64
13480,2.61
13492,1.51
13504,0.36
13516,-0.77
13528,-1.84
13539,-2.91
13550,-4.09
13562,-5.54
13574,-7.31
13586,-9.4
13598,-11.66
13610,-13.9
13622,-15.96
13634,-17.78
13646,-19.42
13658,-21.05
13670,-22.87
13682,-25.03
13694,-27.59
13706,-30.4
13718,-33.12
13729,-35.2
13740,-36.07
13752,-35.19
13764,-32.3
13776,-27.49
13788,-21.25
13800,-14.31
13812,-7.42
13824,-1.21
13836,4.0
13848,8.13
13860,11.22
13872,13.39
13884,14.69
13896,15.24
13908,15.17
13919,14.71
13930,14.16
13942,13.75
13954,13.62
13966,13.74
13978,13.98
13990,14.22
14002,14.42
14014,14.63
14026,14.97
14038,15.53
14050,16.29
14062,17.12
14074,17.81
14086,18.17
14098,18.07
14109,17.52
14120,16.6
14132,15.44
14144,14.16
14156,12.82
14168,11.44
14180,10.04
14192,8.62
14204,7.2
14216,5.78
14228,4.38
14240,3.01
14252,1.7
14264,0.5
14276,-0.6
14288,-1.66
14299,-2.84
14310,-4.29
14322,-6.14
14334,-8.31
14346,-10.6
14358,-12.74
14370,-14.51
14382,-15.93
14394,-17.18
14406,-18.57
14418,-20.36
14430,-22.69
14442,-25.53
14454,-28.63
14466,-31.57
14478,-33.8
14489,-34.73
14500,-33.87
14512,-31.03
14524,-26.34
14536,-20.3
14548,-13.6
14560,-6.95
14572,-0.92
14584,4.18
14596,8.28
14608,11.41
14620,13.69
14632,15.21
14644,16.01
14656,16.12
14668,15.58
14679,14.54
14690,13.26
14702,12.1
14714,11.4
14726,11.34
14738,11.87
14750,12.75
14762,13.63
14774,14.3
14786,14.73
14798,15.05
14810,15.44
14822,15.92
14834,16.38
14846,16.56
14858,16.24
14869,15.38
14880,14.11
14892,12.63
14904,11.13
14916,9.64
14928,8.11
14940,6.44
14952,4.64
14964,2.83
14976,1.23
14988,-0.01
15000,-0.85
15012,-1.44
15024,-2.04
15036,-2.92
15048,-4.21
15059,-5.87
15070,-7.7
15082,-9.47
15094,-11.04
15106,-12.38
15118,-13.6
15130,-14.89
15142,-16.44
15154,-18.38
15166,-20.78
15178,-23.59
15190,-26.6
15202,-29.33
15214,-31.18
15226,-31.5
15238,-29.83
15249,-26.12
15260,-20.71
15272,-14.33
15284,-7.78
15296,-1.74
15308,3.38
15320,7.44
15332,10.45
15344,12.46
15356,13.54
15368,13.76
15380,13.27
15392,12.29
15404,11.08
15416,9.89
15428,8.9
15439,8.22
15450,7.94
15462,8.06
15474,8.57
15486,9.32
15498,10.12
15510,10.78
15522,11.21
15534,11.43
15546,11.59
15558,11.76
15570,11.91
15582,11.84
15594,11.3
15606,10.17
15618,8.48
15629,6.44
15640,4.31
15652,2.27
15664,0.37
15676,-1.45
15688,-3.22
15700,-4.93
15712,-6.47
15724,-7.75
15736,-8.76
15748,-9.58
15760,-10.38
15772,-11.32
15784,-12.53
15796,-14.07
15808,-15.99
15819,-18.29
15830,-20.88
15842,-23.5
15854,-25.71
15866,-26.93
15878,-26.7
15890,-24.78
15902,-21.32
15914,-16.73
15926,-11.5
15938,-6.07
15950,-0.68
15962,4.5
15974,9.25
15986,13.28
15998,16.19
16009,17.73
16020,17.87
16032,16.87
16044,15.16
16056,13.23
16068,11.43
16080,10.01
16092,9.09
16104,8.72
16116,8.92
16128,9.63
16140,10.72
16152,11.96
16164,13.1
16176,13.95
16188,14.4
16199,14.42
16210,14.05
16222,13.34
16234,12.32
16246,11.04
16258,9.56
16270,7.95
16282,6.28
16294,4.63
16306,3.04
16318,1.53
16330,0.12
16342,-1.22
16354,-2.57
16366,-4.01
16378,-5.66
16389,-7.58
16400,-9.71
16412,-11.9
16424,-13.95
16436,-15.69
16448,-17.11
16460,-18.38
16472,-19.76
16484,-21.52
16496,-23.84
16508,-26.61
16520,-29.51
16532,-31.97
16544,-33.31
16556,-32.95
16568,-30.53
16579,-26.05
16590,-19.9
16602,-12.72
16614,-5.27
16626,1.79
16638,8.0
16650,13.14
16662,17.2
16674,20.3
16686,22.57
16698,24.17
16710,25.26
16722,26.08
16734,26.83
16746,27.69
16758,28.75
16769,29.98
16780,31.4
16792,33.15
16804,35.47
16816,38.68
16828,42.92
16840,47.93
16852,53.01
16864,57.1
16876,59.12
16888,58.35
16900,54.64
16912,48.47
16924,40.79
16936,32.75
16948,25.35
16959,19.3
16970,14.87
16982,11.9
16994,9.9
17006,8.16
17018,5.98
17030,2.83
17042,-1.46
17054,-6.63
17066,-12.07
17078,-17.07
17090,-21.08
17102,-23.99
17114,-26.15
17126,-28.24
17138,-30.99
17149,-34.87
17160,-39.93
17172,-45.88
17184,-52.21
17196,-58.49
17208,-64.44
17220,-69.99
17232,-75.02
17244,-79.24
17256,-82.11
17268,-82.94
17280,-81.1
17292,-76.34
17304,-68.93
17316,-59.59
17328,-49.34
17339,-39.1
17350,-29.53
17362,-20.88
17374,-13.13
17386,-6.21
17398,-0.07
17410,5.18
17422,9.44
17434,12.68
17446,15.03
17458,16.72
17470,18.01
17482,19.1
17494,20.15
17506,21.23
17518,22.41
17529,23.74
17540,25.21
17552,26.78
17564,28.34
17576,29.78
17588,30.98
17600,31.86
17612,32.36
17624,32.44
17636,32.1
17648,31.35
17660,30.23
17672,28.77
17684,26.98
17696,24.88
17708,22.5
17719,19.92
17730,17.18
17742,14.33
17754,11.32
17766,8.11
17778,4.63
17790,0.84
17802,-3.19
17814,-7.34
17826,-11.42
17838,-15.21
17850,-18.52
17862,-21.22
17874,-23.29
17886,-24.84
17898,-26.13
17909,-27.46
17920,-29.12
17932,-31.29
17944,-33.97
17956,-36.96
17968,-39.86
17980,-42.11
17992,-43.09
18004,-42.25
18016,-39.26
18028,-34.11
18040,-27.26
18052,-19.41
18064,-11.41
18076,-3.98
18088,2.5
18099,7.91
18110,12.4
18122,16.14
18134,19.26
18146,21.79
18158,23.7
18170,25.05
18182,25.99
18194,26.77
18206,27.68
18218,28.9
18230,30.56
18242,32.65
18254,35.12
18266,37.91
18278,40.99
18289,44.28
18300,47.69
18312,51.04
18324,54.17
18336,56.95
18348,59.42
18360,61.83
18372,64.61
18384,68.3
18396,73.3
18408,79.79
18420,87.63
18432,96.46
18444,105.82
18456,115.24
18468,124.28
18479,132.38
18490,138.81
18502,142.62
18514,142.82
18526,138.48
18538,129.02
18550,114.34
18562,94.81
18574,71.34
18586,45.23
18598,18.07
18610,-8.4
18622,-32.49
18634,-52.91
18646,-68.95
18658,-80.6
18669,-88.47
18680,-93.47
18692,-96.55
18704,-98.46
18716,-99.67
18728,-100.41
18740,-100.78
18752,-100.82
18764,-100.52
18776,-99.85
18788,-98.76
18800,-97.2
18812,-95.22
18824,-92.87
18836,-90.26
18848,-87.42
18859,-84.25
18870,-80.58
18882,-76.23
18894,-71.2
18906,-65.76
18918,-60.43
18930,-55.87
18942,-52.66
18954,-51.1
18966,-51.16
18978,-52.45
18990,-54.39
19002,-56.33
19014,-57.72
19026,-58.22
19038,-57.73
19049,-56.4
19060,-54.57
19072,-52.68
19084,-51.15
19096,-50.17
19108,-49.72
19120,-49.5
19132,-49.1
19144,-48.19
19156,-46.62
19168,-44.46
19180,-41.95
19192,-39.42
19204,-37.16
19216,-35.38
19228,-34.25
19239,-33.8
19250,-33.89
19262,-34.1
19274,-33.62
19286,-31.4
19298,-26.39
19310,-17.88
19322,-5.77
19334,9.35
19346,26.42
19358,44.21
19370,61.71
19382,78.35
19394,94.0
19406,108.84
19418,123.23
19429,137.37
19440,151.14
19452,163.9
19464,174.42
19476,181.12
19488,182.48
19500,177.54
19512,166.44
19524,150.57
19536,132.2
19548,113.94
19560,97.94
19572,85.44
19584,76.57
19596,70.69
19608,66.86
19619,64.28
19630,62.53
19642,61.55
19654,61.47
19666,62.33
19678,64.07
19690,66.49
19702,69.34
19714,72.39
19726,75.41
19738,78.17
19750,80.42
19762,82.02
19774,82.97
19786,83.47
19798,83.77
19809,83.86
19820,83.26
19832,80.94
19844,75.56
19856,66.02
19868,51.91
19880,33.81
19892,13.1
19904,-8.42
19916,-29.15
19928,-47.99
19940,-64.45
19952,-78.48
19964,-90.23
19976,-99.87
19988,-107.55
19999,-113.48
20010,-117.83
20022,-120.79
20034,-122.45
20046,-122.75
20058,-121.63
20070,-119.04
20082,-115.05
20094,-109.88
20106,-103.83
20118,-97.24
20130,-90.49
20142,-83.95
20154,-77.92
20166,-72.51
20178,-67.62
20189,-62.94
20200,-58.14
20212,-53.2
20224,-48.51
20236,-44.83
20248,-42.92
20260,-43.21
20272,-45.5
20284,-48.98
20296,-52.56
20308,-55.32
20320,-56.81
20332,-57.21
20344,-57.19
20356,-57.58
20368,-59.04
20379,-61.83
20390,-65.7
20402,-70.01
20414,-73.87
20426,-76.42
20438,-77.1
20450,-75.77
20462,-72.66
20474,-68.3
20486,-63.22
20498,-57.75
20510,-51.8
20522,-44.78
20534,-35.63
20546,-23.15
20558,-6.43
20569,14.47
20580,38.04
20592,61.19
20604,79.78
20616,89.82
20628,88.84
20640,77.13
20652,57.94
20664,36.64
20676,18.94
20688,9.01
20700,8.31
20712,15.52
20724,27.59
20736,41.18
20748,53.87
20759,64.47
20770,72.81
20782,78.97
20794,82.84
20806,84.01
20818,81.97
20830,76.54
20842,68.06
20854,57.39
20866,45.55
20878,33.47
20890,21.63
20902,10.09
20914,-1.27
20926,-12.38
20938,-22.63
20949,-30.85
20960,-35.75
20972,-36.4
20984,-32.9
20996,-26.37
