seconds,BVP
0,-8.25
11,2.91
22,12.32
34,19.98
46,25.75
58,29.57
70,31.61
82,32.4
94,32.64
106,33.02
118,33.89
130,35.23
142,36.68
154,37.77
166,38.1
178,37.5
190,36.0
201,33.81
212,31.13
224,28.03
236,24.5
248,20.41
260,15.61
272,10.06
284,3.81
296,-3.01
308,-10.19
320,-17.55
332,-24.88
344,-31.92
356,-38.4
368,-44.1
380,-48.86
391,-52.72
402,-55.81
414,-58.29
426,-60.19
438,-61.38
450,-61.62
462,-60.72
474,-58.71
486,-55.87
498,-52.68
510,-49.59
522,-46.92
534,-44.74
546,-42.89
558,-41.06
570,-38.83
581,-35.71
592,-31.18
604,-24.8
616,-16.35
628,-5.95
640,5.82
652,18.06
664,29.72
676,39.87
688,47.93
700,53.73
712,57.41
724,59.29
736,59.7
748,58.9
760,57.16
771,54.77
782,52.08
794,49.53
806,47.48
818,46.16
830,45.62
842,45.7
854,46.16
866,46.75
878,47.31
890,47.8
902,48.24
914,48.62
926,48.85
938,48.7
950,47.92
961,46.28
972,43.76
984,40.54
996,36.93
1008,33.3
1020,29.94
1032,26.92
1044,24.17
1056,21.51
1068,18.76
1080,15.77
1092,12.5
1104,8.99
1116,5.35
1128,1.76
1140,-1.58
1151,-4.56
1162,-7.16
1174,-9.55
1186,-12.05
1198,-15.03
1210,-18.75
1222,-23.23
1234,-28.12
1246,-32.66
1258,-35.87
1270,-36.8
1282,-34.81
1294,-29.84
1306,-22.42
1318,-13.52
1330,-4.25
1341,4.45
1352,11.94
1364,17.93
1376,22.36
1388,25.3
1400,26.84
1412,27.16
1424,26.5
1436,25.21
1448,23.62
1460,22.06
1472,20.7
1484,19.61
1496,18.79
1508,18.25
1520,17.99
1531,18.02
1542,18.32
1554,18.82
1566,19.38
1578,19.84
1590,20.0
1602,19.77
1614,19.12
1626,18.11
1638,16.84
1650,15.35
1662,13.62
1674,11.6
1686,9.24
1698,6.59
1710,3.82
1721,1.19
1732,-1.1
1744,-2.96
1756,-4.44
1768,-5.71
1780,-6.95
1792,-8.23
1804,-9.5
1816,-10.61
1828,-11.5
1840,-12.2
1852,-12.89
1864,-13.78
1876,-14.97
1888,-16.44
1900,-18.07
1911,-19.78
1922,-21.54
1934,-23.25
1946,-24.59
1958,-24.92
1970,-23.38
1982,-19.22
1994,-12.12
2006,-2.4
2018,9.03
2030,20.98
2042,32.27
2054,41.94
2066,49.23
2078,53.55
2090,54.49
2101,51.95
2112,46.23
2124,38.1
2136,28.65
2148,18.99
2160,10.01
2172,2.27
2184,-3.98
2196,-8.68
2208,-11.88
2220,-13.69
2232,-14.25
2244,-13.81
2256,-12.68
2268,-11.22
2280,-9.79
2291,-8.67
2302,-8.06
2314,-7.96
2326,-8.27
2338,-8.76
2350,-9.2
2362,-9.45
2374,-9.51
2386,-9.51
2398,-9.61
2410,-9.92
2422,-10.38
2434,-10.81
2446,-10.99
2458,-10.82
2470,-10.38
2481,-9.96
2492,-9.9
2504,-10.45
2516,-11.64
2528,-13.26
2540,-15.0
2552,-16.58
2564,-17.87
2576,-18.95
2588,-19.99
2600,-21.25
2612,-22.9
2624,-25.1
2636,-27.92
2648,-31.3
2660,-35.01
2671,-38.53
2682,-41.15
2694,-42.06
2706,-40.59
2718,-36.46
2730,-29.92
2742,-21.65
2754,-12.65
2766,-3.92
2778,3.79
2790,10.01
2802,14.59
2814,17.59
2826,19.14
2838,19.43
2850,18.65
2861,17.1
2872,15.11
2884,13.1
2896,11.43
2908,10.33
2920,9.83
2932,9.82
2944,10.06
2956,10.37
2968,10.68
2980,11.03
2992,11.53
3004,12.2
3016,13.0
3028,13.77
3040,14.31
3051,14.51
3062,14.36
3074,13.91
3086,13.24
3098,12.39
3110,11.38
3122,10.23
3134,9.01
3146,7.81
3158,6.72
3170,5.73
3182,4.68
3194,3.41
3206,1.76
3218,-0.28
3230,-2.53
3241,-4.77
3252,-6.8
3264,-8.59
3276,-10.25
3288,-12.03
3300,-14.18
3312,-16.91
3324,-20.3
3336,-24.22
3348,-28.34
3360,-32.01
3372,-34.37
3384,-34.46
3396,-31.58
3408,-25.52
3420,-16.69
3431,-6.04
3442,5.17
3454,15.74
3466,24.77
3478,31.76
3490,36.55
3502,39.24
3514,40.01
3526,39.12
3538,36.85
3550,33.54
3562,29.56
3574,25.33
3586,21.24
3598,17.61
3610,14.67
3621,12.53
3632,11.12
3644,10.3
3656,9.86
3668,9.58
3680,9.28
3692,8.79
3704,8.03
3716,6.93
3728,5.45
3740,3.59
3752,1.37
3764,-1.11
3776,-3.75
3788,-6.4
3800,-8.93
3811,-11.22
3822,-13.22
3834,-14.89
3846,-16.26
3858,-17.41
3870,-18.51
3882,-19.73
3894,-21.25
3906,-23.11
3918,-25.2
3930,-27.33
3942,-29.25
3954,-30.83
3966,-32.12
3978,-33.26
3990,-34.52
4001,-36.1
4012,-38.18
4024,-40.87
4036,-44.14
4048,-47.75
4060,-51.12
4072,-53.4
4084,-53.64
4096,-51.08
4108,-45.55
4120,-37.52
4132,-28.0
4144,-18.25
4156,-9.3
4168,-1.84
4180,3.92
4191,8.1
4202,10.94
4214,12.71
4226,13.6
4238,13.79
4250,13.42
4262,12.66
4274,11.68
4286,10.61
4298,9.59
4310,8.7
4322,8.04
4334,7.74
4346,7.89
4358,8.56
4370,9.73
4381,11.25
4392,12.84
4404,14.21
4416,15.07
4428,15.27
4440,14.83
4452,13.93
4464,12.82
4476,11.7
4488,10.67
4500,9.7
4512,8.69
4524,7.53
4536,6.21
4548,4.81
4560,3.51
4571,2.43
4582,1.58
4594,0.81
4606,-0.12
4618,-1.48
4630,-3.41
4642,-5.89
4654,-8.71
4666,-11.56
4678,-14.15
4690,-16.28
4702,-17.97
4714,-19.39
4726,-20.86
4738,-22.77
4750,-25.43
4761,-28.93
4772,-33.04
4784,-37.15
4796,-40.33
4808,-41.56
4820,-40.03
4832,-35.41
4844,-28.0
4856,-18.66
4868,-8.57
4880,1.11
4892,9.52
4904,16.22
4916,21.12
4928,24.35
4940,26.12
4951,26.62
4962,26.05
4974,24.64
4986,22.75
4998,20.76
5010,19.09
5022,18.02
5034,17.65
5046,17.89
5058,18.53
5070,19.36
5082,20.25
5094,21.15
5106,22.01
5118,22.8
5130,23.4
5141,23.65
5152,23.41
5164,22.62
5176,21.3
5188,19.59
5200,17.65
5212,15.61
5224,13.57
5236,11.55
5248,9.57
5260,7.63
5272,5.75
5284,3.96
5296,2.23
5308,0.48
5320,-1.47
5331,-3.75
5342,-6.46
5354,-9.54
5366,-12.77
5378,-15.91
5390,-18.7
5402,-21.03
5414,-22.94
5426,-24.63
5438,-26.4
5450,-28.61
5462,-31.49
5474,-35.08
5486,-39.11
5498,-42.95
5510,-45.73
5521,-46.57
5532,-44.82
5544,-40.28
5556,-33.31
5568,-24.7
5580,-15.43
5592,-6.42
5604,1.63
5616,8.35
5628,13.55
5640,17.22
5652,19.39
5664,20.16
5676,19.73
5688,18.38
5700,16.52
5711,14.53
5722,12.77
5734,11.52
5746,10.92
5758,11.0
5770,11.71
5782,12.92
5794,14.49
5806,16.26
5818,18.08
5830,19.85
5842,21.47
5854,22.81
5866,23.78
5878,24.27
5890,24.17
5901,23.47
5912,22.17
5924,20.35
5936,18.15
5948,15.79
5960,13.49
5972,11.47
5984,9.82
5996,8.51
6008,7.39
6020,6.22
6032,4.84
6044,3.19
6056,1.33
6068,-0.64
6080,-2.65
6091,-4.72
6102,-6.93
6114,-9.4
6126,-12.27
6138,-15.68
6150,-19.7
6162,-24.29
6174,-29.17
6186,-33.71
6198,-37.07
6210,-38.38
6222,-37.05
6234,-33.05
6246,-26.93
6258,-19.6
6270,-12.09
6281,-5.21
6292,0.59
6304,5.13
6316,8.43
6328,10.55
6340,11.58
6352,11.67
6364,11.05
6376,10.06
6388,9.06
6400,8.4
6412,8.34
6424,8.97
6436,10.24
6448,11.95
6460,13.84
6471,15.66
6482,17.27
6494,18.65
6506,19.8
6518,20.72
6530,21.33
6542,21.47
6554,20.96
6566,19.69
6578,17.75
6590,15.34
6602,12.78
6614,10.34
6626,8.15
6638,6.19
6650,4.28
6661,2.22
6672,-0.12
6684,-2.73
6696,-5.48
6708,-8.18
6720,-10.7
6732,-13.02
6744,-15.22
6756,-17.46
6768,-19.91
6780,-22.76
6792,-26.16
6804,-30.22
6816,-34.86
6828,-39.68
6840,-43.86
6851,-46.37
6862,-46.23
6874,-42.93
6886,-36.65
6898,-28.25
6910,-18.91
6922,-9.77
6934,-1.55
6946,5.47
6958,11.31
6970,16.06
6982,19.71
6994,22.12
7006,23.18
7018,22.93
7030,21.65
7041,19.88
7052,18.21
7064,17.15
7076,16.94
7088,17.5
7100,18.54
7112,19.68
7124,20.63
7136,21.33
7148,21.86
7160,22.38
7172,22.95
7184,23.45
7196,23.67
7208,23.37
7220,22.4
7231,20.76
7242,18.56
7254,15.97
7266,13.15
7278,10.22
7290,7.27
7302,4.33
7314,1.39
7326,-1.57
7338,-4.6
7350,-7.69
7362,-10.77
7374,-13.67
7386,-16.18
7398,-18.14
7410,-19.51
7421,-20.47
7432,-21.39
7444,-22.7
7456,-24.79
7468,-27.87
7480,-31.86
7492,-36.35
7504,-40.68
7516,-43.95
7528,-45.26
7540,-43.9
7552,-39.58
7564,-32.55
7576,-23.54
7588,-13.61
7600,-3.88
7611,4.78
7622,11.82
7634,17.08
7646,20.65
7658,22.74
7670,23.62
7682,23.52
7694,22.69
7706,21.4
7718,19.94
7730,18.58
7742,17.53
7754,16.86
7766,16.55
7778,16.56
7790,16.85
7801,17.4
7812,18.22
7824,19.23
7836,20.26
7848,21.06
7860,21.4
7872,21.14
7884,20.28
7896,18.94
7908,17.26
7920,15.33
7932,13.17
7944,10.82
7956,8.32
7968,5.82
7980,3.46
7991,1.32
8002,-0.64
8014,-2.58
8026,-4.67
8038,-7.03
8050,-9.63
8062,-12.32
8074,-14.88
8086,-17.16
8098,-19.18
8110,-21.07
8122,-23.07
8134,-25.45
8146,-28.4
8158,-32.04
8170,-36.33
8181,-41.04
8192,-45.67
8204,-49.52
8216,-51.8
8228,-51.87
8240,-49.45
8252,-44.69
8264,-38.16
8276,-30.65
8288,-22.95
8300,-15.68
8312,-9.34
8324,-4.24
8336,-0.58
8348,1.56
8360,2.33
8371,2.05
8382,1.22
8394,0.45
8406,0.35
8418,1.43
8430,3.99
8442,8.1
8454,13.49
8466,19.69
8478,26.16
8490,32.5
8502,38.6
8514,44.62
8526,50.81
8538,57.26
8550,63.72
8561,69.6
8572,74.15
8584,76.76
8596,77.24
8608,75.76
8620,72.83
8632,68.98
8644,64.65
8656,60.09
8668,55.38
8680,50.62
8692,45.95
8704,41.56
8716,37.6
8728,34.1
8740,30.91
8751,27.82
8762,24.64
8774,21.29
8786,17.93
8798,14.72
8810,11.8
8822,9.12
8834,6.52
8846,3.93
8858,1.55
8870,-0.01
8882,0.1
8894,2.79
8906,8.62
8918,17.64
8930,29.17
8941,41.83
8952,53.61
8964,62.17
8976,65.2
8988,60.89
9000,48.46
9012,28.46
9024,2.87
9036,-25.26
9048,-52.46
9060,-75.54
9072,-92.33
9084,-102.02
9096,-105.18
9108,-103.45
9120,-99.0
9131,-93.87
9142,-89.55
9154,-86.62
9166,-84.84
9178,-83.46
9190,-81.71
9202,-79.18
9214,-75.99
9226,-72.7
9238,-69.95
9250,-68.22
9262,-67.64
9274,-68.06
9286,-69.19
9298,-70.71
9310,-72.24
9321,-73.3
9332,-73.28
9344,-71.62
9356,-68.05
9368,-62.82
9380,-56.68
9392,-50.56
9404,-45.14
9416,-40.63
9428,-36.87
9440,-33.6
9452,-30.83
9464,-28.84
9476,-27.91
9488,-27.89
9500,-27.98
9511,-26.94
9522,-23.57
9534,-17.32
9546,-8.6
9558,1.41
9570,11.23
9582,19.67
9594,26.16
9606,30.82
9618,34.27
9630,37.45
9642,41.45
9654,47.39
9666,56.19
9678,68.29
9690,83.29
9701,99.92
9712,116.22
9724,130.17
9736,140.35
9748,146.36
9760,148.87
9772,149.14
9784,148.41
9796,147.3
9808,145.56
9820,142.2
9832,135.78
9844,124.86
9856,108.34
9868,85.94
9880,58.54
9891,28.45
9902,-0.68
9914,-24.62
9926,-39.78
9938,-44.51
9950,-39.91
9962,-29.45
9974,-17.74
9986,-8.71
9998,-4.25
10010,-3.85
10022,-5.4
10034,-6.55
10046,-5.89
10058,-3.36
10070,0.1
10081,3.39
10092,5.96
10104,7.88
10116,9.52
10128,10.99
10140,11.91
10152,11.48
10164,9.02
10176,4.44
10188,-1.56
10200,-7.69
10212,-12.63
10224,-15.57
10236,-16.58
10248,-16.44
10260,-16.18
10271,-16.51
10282,-17.45
10294,-18.35
10306,-18.23
10318,-16.22
10330,-11.92
10342,-5.43
10354,2.8
10366,12.14
10378,21.97
10390,31.63
10402,40.46
10414,47.72
10426,52.7
10438,54.94
10450,54.31
10461,51.01
10472,45.47
10484,38.22
10496,29.79
10508,20.7
10520,11.5
10532,2.77
10544,-5.03
10556,-11.6
10568,-16.87
10580,-20.88
10592,-23.59
10604,-24.91
10616,-24.65
10628,-22.89
10640,-20.03
10651,-16.74
10662,-13.54
10674,-10.32
10686,-6.08
10698,0.73
10710,11.55
10722,26.86
10734,45.64
10746,65.48
10758,83.23
10770,96.07
10782,102.39
10794,102.26
10806,97.19
10818,89.52
10830,81.51
10841,74.75
10852,69.96
10864,67.18
10876,66.19
10888,66.65
10900,68.23
10912,70.24
10924,71.55
10936,70.72
10948,66.39
10960,57.92
10972,45.64
10984,30.74
10996,14.74
11008,-1.15
11020,-16.38
11031,-31.09
11042,-45.79
11054,-60.98
11066,-76.98
11078,-93.98
11090,-112.02
11102,-130.87
11114,-149.63
11126,-166.35
11138,-178.15
11150,-181.84
11162,-174.9
11174,-156.47
11186,-127.8
11198,-91.7
11210,-51.76
11221,-11.11
11232,28.29
11244,65.83
11256,101.71
11268,136.07
11280,168.24
11292,196.51
11304,218.55
11316,232.27
11328,236.62
11340,231.75
11352,218.46
11364,197.4
11376,168.55
11388,131.68
11400,87.53
11411,38.94
11422,-9.11
11434,-50.96
11446,-82.64
11458,-103.81
11470,-118.29
11482,-132.58
11494,-153.19
11506,-183.97
11518,-224.65
11530,-271.12
11542,-316.94
11554,-355.46
11566,-381.46
11578,-391.83
11590,-385.61
11601,-363.62
11612,-328.09
11624,-282.51
11636,-231.45
11648,-180.09
11660,-133.3
11672,-94.6
11684,-65.28
11696,-44.3
11708,-28.92
11720,-15.92
11732,-2.77
11744,11.82
11756,27.94
11768,44.93
11780,61.72
11791,77.07
11802,89.73
11814,98.74
11826,103.72
11838,105.17
11850,104.32
11862,102.56
11874,100.71
11886,98.51
11898,94.65
11910,87.32
11922,74.92
11934,56.6
11946,32.39
11958,3.01
11970,-30.45
11981,-66.73
11992,-104.39
12004,-141.79
12016,-177.05
12028,-208.1
12040,-232.92
12052,-249.77
12064,-257.49
12076,-255.66
12088,-244.71
12100,-225.83
12112,-200.82
12124,-171.86
12136,-141.29
12148,-111.37
12160,-84.09
12171,-60.86
12182,-42.38
12194,-28.49
12206,-18.37
12218,-10.79
12230,-4.63
12242,0.9
12254,6.11
12266,10.97
12278,15.26
12290,18.69
12302,20.97
12314,21.76
12326,20.77
12338,17.9
12350,13.38
12361,7.83
12372,2.18
12384,-2.62
12396,-5.96
12408,-7.78
12420,-8.67
12432,-9.62
12444,-11.67
12456,-15.37
12468,-20.44
12480,-25.75
12492,-29.58
12504,-30.22
12516,-26.59
12528,-18.66
12540,-7.37
12551,5.69
12562,18.98
12574,31.33
12586,42.21
12598,51.5
12610,59.25
12622,65.41
12634,69.79
12646,72.13
12658,72.34
12670,70.61
12682,67.43
12694,63.52
12706,59.53
12718,55.86
12730,52.44
12741,48.82
12752,44.38
12764,38.72
12776,31.92
12788,24.56
12800,17.42
12812,11.14
12824,5.82
12836,1.07
12848,-3.74
12860,-9.04
12872,-14.67
12884,-19.92
12896,-23.73
12908,-25.26
12920,-24.2
12931,-20.96
12942,-16.53
12954,-12.03
12966,-8.36
12978,-5.87
12990,-4.37
13002,-3.33
13014,-2.21
13026,-0.76
13038,0.82
13050,2.01
13062,2.19
13074,0.91
13086,-1.95
13098,-6.18
13110,-11.4
13121,-17.15
13132,-22.88
13144,-27.92
13156,-31.39
13168,-32.24
13180,-29.55
13192,-22.82
13204,-12.24
13216,1.31
13228,16.46
13240,31.78
13252,46.18
13264,59.07
13276,70.3
13288,79.98
13300,88.17
13311,94.84
13322,99.92
13334,103.42
13346,105.56
13358,106.74
13370,107.43
13382,107.99
13394,108.52
13406,108.87
13418,108.76
13430,107.98
13442,106.43
13454,104.27
13466,101.81
13478,99.37
13490,97.19
13501,95.25
13512,93.32
13524,90.94
13536,87.67
13548,83.24
13560,77.72
13572,71.39
13584,64.66
13596,57.79
13608,50.87
13620,43.86
13632,36.73
13644,29.6
13656,22.75
13668,16.43
13680,10.8
13691,5.85
13702,1.48
13714,-2.44
13726,-5.99
13738,-9.25
13750,-12.38
13762,-15.66
13774,-19.43
13786,-23.98
13798,-29.44
13810,-35.61
13822,-42.04
13834,-47.99
13846,-52.61
13858,-55.08
13870,-54.79
13881,-51.55
13892,-45.58
13904,-37.57
13916,-28.45
13928,-19.22
13940,-10.71
13952,-3.52
13964,1.97
13976,5.53
13988,7.03
14000,6.46
14012,3.95
14024,-0.13
14036,-5.18
14048,-10.37
14060,-14.73
14071,-17.41
14082,-17.8
14094,-15.78
14106,-11.66
14118,-6.07
14130,0.31
14142,7.04
14154,13.94
14166,21.07
14178,28.46
14190,35.83
14202,42.51
14214,47.59
14226,50.24
14238,50.07
14250,47.32
14261,42.79
14272,37.5
14284,32.4
14296,28.09
14308,24.74
14320,22.23
14332,20.37
14344,19.02
14356,18.22
14368,18.13
14380,18.89
14392,20.47
14404,22.63
14416,24.89
14428,26.72
14440,27.56
14451,27.0
14462,24.67
14474,20.33
14486,13.87
14498,5.42
14510,-4.52
14522,-15.05
14534,-24.98
14546,-33.2
14558,-38.95
14570,-42.06
14582,-43.0
14594,-42.57
14606,-41.59
14618,-40.63
14630,-39.93
14641,-39.49
14652,-39.27
14664,-39.31
14676,-39.69
14688,-40.39
14700,-41.1
14712,-41.14
14724,-39.58
14736,-35.44
14748,-28.08
14760,-17.45
14772,-4.25
14784,10.29
14796,24.73
14808,37.84
14820,49.02
14831,58.33
14842,66.26
14854,73.39
14866,80.0
14878,85.87
14890,90.5
14902,93.44
14914,94.64
14926,94.51
14938,93.78
14950,93.06
14962,92.6
14974,92.22
14986,91.51
14998,90.23
15010,88.39
15021,86.27
15032,84.01
15044,81.46
15056,78.05
15068,73.02
15080,65.81
15092,56.31
15104,44.92
15116,32.41
15128,19.62
15140,7.29
15152,-3.97
15164,-13.63
15176,-21.24
15188,-26.48
15200,-29.31
15211,-30.02
15222,-29.17
15234,-27.41
15246,-25.17
15258,-22.6
15270,-19.62
15282,-16.11
15294,-12.12
15306,-8.04
15318,-4.51
15330,-2.31
15342,-2.19
15354,-4.73
15366,-10.18
15378,-18.35
15390,-28.6
15401,-39.93
15412,-51.1
15424,-60.98
15436,-68.81
15448,-74.38
15460,-77.99
15472,-80.17
15484,-81.45
15496,-82.07
15508,-81.99
15520,-80.93
15532,-78.65
15544,-75.11
15556,-70.45
15568,-65.0
15580,-59.1
15591,-52.98
15602,-46.77
15614,-40.5
15626,-34.23
15638,-28.11
15650,-22.34
15662,-17.13
15674,-12.52
15686,-8.41
15698,-4.54
15710,-0.6
15722,3.67
15734,8.41
15746,13.66
15758,19.38
15770,25.51
15781,31.91
15792,38.38
15804,44.65
15816,50.38
15828,55.11
15840,58.29
15852,59.26
15864,57.32
15876,51.87
15888,42.61
15900,29.72
15912,13.95
15924,-3.48
15936,-21.14
15948,-37.73
15960,-52.35
15971,-64.63
15982,-74.64
15994,-82.73
16006,-89.21
16018,-94.23
16030,-97.68
16042,-99.28
16054,-98.76
16066,-96.09
16078,-91.56
16090,-85.78
16102,-79.5
16114,-73.35
16126,-67.73
16138,-62.81
16150,-58.61
16161,-55.18
16172,-52.61
16184,-51.06
16196,-50.65
16208,-51.35
16220,-52.93
16232,-54.92
16244,-56.66
16256,-57.38
16268,-56.27
16280,-52.71
16292,-46.4
16304,-37.43
16316,-26.26
16328,-13.6
16340,-0.3
16351,12.84
16362,25.14
16374,36.12
16386,45.48
16398,53.05
16410,58.78
16422,62.6
16434,64.44
16446,64.28
16458,62.21
16470,58.51
16482,53.71
16494,48.53
16506,43.76
16518,40.06
16530,37.82
16541,37.03
16552,37.26
16564,37.88
16576,38.2
16588,37.7
16600,36.11
16612,33.42
16624,29.77
16636,25.32
16648,20.24
16660,14.7
16672,8.91
16684,3.1
16696,-2.56
16708,-8.1
16720,-13.8
16731,-20.08
16742,-27.27
16754,-35.32
16766,-43.64
16778,-51.13
16790,-56.52
16802,-58.71
16814,-57.09
16826,-51.64
16838,-42.87
16850,-31.57
16862,-18.64
16874,-4.95
16886,8.63
16898,21.21
16910,31.9
16921,40.02
16932,45.26
16944,47.83
16956,48.38
16968,47.85
16980,47.15
16992,46.98
17004,47.63
17016,49.09
17028,51.14
17040,53.5
17052,55.99
17064,58.5
17076,60.87
17088,62.84
17100,63.97
17111,63.73
17122,61.71
17134,57.8
17146,52.29
17158,45.73
17170,38.74
17182,31.76
17194,24.91
17206,18.08
17218,11.0
17230,3.45
17242,-4.69
17254,-13.37
17266,-22.39
17278,-31.28
17290,-39.27
17301,-45.43
17312,-48.82
17324,-48.85
17336,-45.47
17348,-39.27
17360,-31.29
17372,-22.69
17384,-14.48
17396,-7.34
17408,-1.64
17420,2.45
17432,4.97
17444,6.06
17456,6.02
17468,5.26
17480,4.18
17491,3.09
17502,2.1
17514,1.15
17526,0.09
17538,-1.21
17550,-2.71
17562,-4.25
17574,-5.59
17586,-6.52
17598,-6.98
17610,-7.12
17622,-7.17
17634,-7.42
17646,-8.06
17658,-9.11
17670,-10.44
17681,-11.78
17692,-12.85
17704,-13.46
17716,-13.6
17728,-13.49
17740,-13.52
17752,-14.12
17764,-15.51
17776,-17.54
17788,-19.57
17800,-20.62
17812,-19.66
17824,-15.94
17836,-9.31
17848,-0.25
17860,10.3
17871,21.22
17882,31.58
17894,40.75
17906,48.39
17918,54.38
17930,58.64
17942,61.16
17954,62.03
17966,61.47
17978,59.82
17990,57.5
18002,54.86
18014,52.09
18026,49.27
18038,46.37
18050,43.39
18061,40.45
18072,37.72
18084,35.41
18096,33.58
18108,32.11
18120,30.68
18132,28.89
18144,26.41
18156,23.12
18168,19.14
18180,14.77
18192,10.36
18204,6.21
18216,2.44
18228,-0.95
18240,-4.13
18251,-7.32
18262,-10.77
18274,-14.66
18286,-19.03
18298,-23.7
18310,-28.19
18322,-31.8
18334,-33.71
18346,-33.26
18358,-30.17
18370,-24.67
18382,-17.49
18394,-9.66
18406,-2.2
18418,4.11
18430,8.88
18441,12.05
18452,13.84
18464,14.54
18476,14.45
18488,13.83
18500,12.9
18512,11.82
18524,10.67
18536,9.34
18548,7.63
18560,5.28
18572,2.1
18584,-1.93
18596,-6.63
18608,-11.68
18620,-16.65
18631,-21.14
18642,-24.8
18654,-27.41
18666,-28.91
18678,-29.41
18690,-29.14
18702,-28.34
18714,-27.16
18726,-25.56
18738,-23.29
18750,-20.03
18762,-15.65
18774,-10.37
18786,-4.8
18798,0.25
18810,4.11
18821,6.62
18832,8.4
18844,10.76
18856,15.38
18868,23.83
18880,37.14
18892,55.53
18904,78.39
18916,104.59
18928,132.72
18940,161.48
18952,189.89
18964,217.24
18976,242.96
18988,266.4
19000,286.65
19011,302.39
19022,312.06
19034,314.15
19046,307.71
19058,292.77
19070,270.36
19082,242.27
19094,210.45
19106,176.29
19118,140.41
19130,102.55
19142,61.89
19154,17.45
19166,-31.16
19178,-82.83
19190,-134.18
19201,-179.52
19212,-212.0
19224,-225.81
19236,-218.57
19248,-192.8
19260,-155.38
19272,-115.05
19284,-79.22
19296,-51.57
19308,-31.71
19320,-16.8
19332,-3.94
19344,8.15
19356,19.07
19368,27.83
19380,34.35
19391,39.83
19402,46.16
19414,54.47
19426,64.08
19438,72.55
19450,76.69
19462,74.18
19474,64.67
19486,49.91
19498,32.7
19510,15.46
19522,-0.81
19534,-16.76
19546,-33.93
19558,-53.62
19570,-75.99
19581,-99.89
19592,-123.38
19604,-144.57
19616,-162.31
19628,-176.42
19640,-187.49
19652,-196.37
19664,-203.84
19676,-210.27
19688,-215.72
19700,-220.02
19712,-223.03
19724,-224.73
19736,-225.26
19748,-224.86
19760,-223.72
19771,-221.95
19782,-219.61
19794,-216.79
19806,-213.68
19818,-210.6
19830,-207.83
19842,-205.53
19854,-203.59
19866,-201.69
19878,-199.47
19890,-196.68
19902,-193.32
19914,-189.47
19926,-185.19
19938,-180.29
19950,-174.32
19961,-166.74
19972,-157.04
19984,-144.98
19996,-130.59
20008,-114.12
20020,-95.97
20032,-76.7
20044,-57.06
20056,-38.1
20068,-21.09
20080,-7.38
20092,2.0
20104,6.58
20116,6.71
20128,3.36
20140,-2.04
20151,-7.95
20162,-12.99
20174,-15.98
20186,-16.07
20198,-12.8
20210,-6.11
20222,3.53
20234,15.16
20246,27.5
20258,39.27
20270,49.54
20282,57.9
20294,64.56
20306,70.1
20318,75.22
20330,80.41
20341,85.77
20352,90.98
20364,95.42
20376,98.39
20388,99.39
20400,98.3
20412,95.49
20424,91.73
20436,87.96
20448,85.11
20460,83.82
20472,84.46
20484,87.07
20496,91.41
20508,97.09
20520,103.61
20531,110.51
20542,117.52
20554,124.54
20566,131.65
20578,138.74
20590,145.32
20602,150.38
20614,152.7
20626,151.26
20638,145.78
20650,136.85
20662,125.72
20674,113.75
20686,101.9
20698,90.63
20710,79.99
20721,69.95
20732,60.51
20744,51.61
20756,42.99
20768,34.04
20780,24.07
20792,12.61
20804,-0.27
20816,-13.89
20828,-27.2
20840,-39.25
20852,-49.44
20864,-57.67
20876,-64.23
20888,-69.6
20900,-74.15
20911,-78.01
20922,-81.04
20934,-82.8
20946,-82.79
20958,-80.66
20970,-76.4
20982,-70.39
20994,-63.33
