seconds,BVP
6,4.29
18,5.4
30,6.38
42,7.34
54,8.31
66,9.31
78,10.33
90,11.38
102,12.37
114,13.2
126,13.77
138,14.09
150,14.22
161,14.34
172,14.58
184,14.96
196,15.43
208,15.86
220,16.11
232,16.09
244,15.79
256,15.26
268,14.54
280,13.71
292,12.82
304,11.91
316,10.99
328,10.06
340,9.05
351,7.93
362,6.65
374,5.25
386,3.84
398,2.59
410,1.65
422,1.08
434,0.81
446,0.66
458,0.39
470,-0.15
482,-1.01
494,-2.08
506,-3.19
518,-4.2
530,-5.03
541,-5.73
552,-6.39
564,-7.15
576,-8.1
588,-9.27
600,-10.65
612,-12.18
624,-13.76
636,-15.27
648,-16.64
660,-17.83
672,-18.91
684,-19.99
696,-21.2
708,-22.61
720,-24.19
731,-25.76
742,-26.99
754,-27.5
766,-26.91
778,-24.96
790,-21.71
802,-17.43
814,-12.65
826,-7.94
838,-3.76
850,-0.39
862,2.14
874,3.94
886,5.23
898,6.26
910,7.21
921,8.22
932,9.35
944,10.54
956,11.7
968,12.69
980,13.42
992,13.86
1004,14.11
1016,14.27
1028,14.46
1040,14.76
1052,15.17
1064,15.63
1076,16.08
1088,16.42
1100,16.55
1111,16.4
1122,15.93
1134,15.15
1146,14.13
1158,12.96
1170,11.74
1182,10.57
1194,9.54
1206,8.72
1218,8.12
1230,7.68
1242,7.3
1254,6.84
1266,6.21
1278,5.43
1290,4.62
1301,3.9
1312,3.38
1324,3.02
1336,2.7
1348,2.28
1360,1.71
1372,1.02
1384,0.35
1396,-0.21
1408,-0.64
1420,-1.0
1432,-1.39
1444,-1.85
1456,-2.36
1468,-2.86
1480,-3.33
1491,-3.83
1502,-4.53
1514,-5.57
1526,-6.99
1538,-8.7
1550,-10.49
1562,-12.14
1574,-13.52
1586,-14.66
1598,-15.66
1610,-16.68
1622,-17.84
1634,-19.23
1646,-20.9
1658,-22.85
1670,-25.05
1681,-27.3
1692,-29.24
1704,-30.4
1716,-30.35
1728,-28.84
1740,-25.94
1752,-21.98
1764,-17.5
1776,-13.01
1788,-8.92
1800,-5.46
1812,-2.69
1824,-0.53
1836,1.16
1848,2.52
1860,3.68
1871,4.74
1882,5.76
1894,6.77
1906,7.77
1918,8.73
1930,9.61
1942,10.38
1954,10.98
1966,11.41
1978,11.7
1990,11.91
2002,12.15
2014,12.49
2026,12.95
2038,13.43
2050,13.79
2061,13.9
2072,13.67
2084,13.17
2096,12.53
2108,11.9
2120,11.37
2132,10.91
2144,10.4
2156,9.71
2168,8.81
2180,7.75
2192,6.66
2204,5.68
2216,4.9
2228,4.35
2240,3.99
2251,3.72
2262,3.46
2274,3.17
2286,2.84
2298,2.49
2310,2.15
2322,1.85
2334,1.56
2346,1.26
2358,0.95
2370,0.61
2382,0.3
2394,0.04
2406,-0.19
2418,-0.49
2430,-0.98
2441,-1.74
2452,-2.76
2464,-3.87
2476,-4.89
2488,-5.65
2500,-6.13
2512,-6.5
2524,-6.96
2536,-7.7
2548,-8.75
2560,-9.97
2572,-11.12
2584,-12.02
2596,-12.59
2608,-12.94
2620,-13.29
2631,-13.87
2642,-14.84
2654,-16.25
2666,-18.02
2678,-20.01
2690,-22.01
2702,-23.72
2714,-24.81
2726,-24.9
2738,-23.69
2750,-21.11
2762,-17.31
2774,-12.74
2786,-7.98
2798,-3.6
2810,0.02
2821,2.75
2832,4.65
2844,5.9
2856,6.71
2868,7.27
2880,7.72
2892,8.17
2904,8.64
2916,9.13
2928,9.59
2940,9.97
2952,10.27
2964,10.51
2976,10.77
2988,11.13
3000,11.58
3011,12.1
3022,12.62
3034,13.1
3046,13.56
3058,14.03
3070,14.48
3082,14.84
3094,14.97
3106,14.74
3118,14.1
3130,13.1
3142,11.85
3154,10.5
3166,9.17
3178,7.91
3190,6.76
3201,5.72
3212,4.78
3224,3.93
3236,3.13
3248,2.31
3260,1.44
3272,0.55
3284,-0.31
3296,-1.02
3308,-1.49
3320,-1.74
3332,-1.86
3344,-1.99
3356,-2.27
3368,-2.77
3380,-3.48
3391,-4.37
3402,-5.39
3414,-6.49
3426,-7.67
3438,-8.91
3450,-10.19
3462,-11.47
3474,-12.71
3486,-13.86
3498,-14.91
3510,-15.91
3522,-16.93
3534,-18.06
3546,-19.38
3558,-20.91
3570,-22.66
3581,-24.54
3592,-26.39
3604,-27.92
3616,-28.79
3628,-28.62
3640,-27.14
3652,-24.3
3664,-20.26
3676,-15.45
3688,-10.36
3700,-5.47
3712,-1.1
3724,2.58
3736,5.54
3748,7.84
3760,9.58
3771,10.84
3782,11.74
3794,12.36
3806,12.82
3818,13.19
3830,13.55
3842,13.92
3854,14.28
3866,14.56
3878,14.7
3890,14.69
3902,14.62
3914,14.6
3926,14.74
3938,15.09
3950,15.57
3961,16.03
3972,16.28
3984,16.19
3996,15.74
4008,15.0
4020,14.1
4032,13.18
4044,12.32
4056,11.54
4068,10.8
4080,9.99
4092,9.05
4104,7.94
4116,6.69
4128,5.41
4140,4.22
4151,3.23
4162,2.47
4174,1.96
4186,1.63
4198,1.38
4210,1.07
4222,0.61
4234,-0.04
4246,-0.85
4258,-1.72
4270,-2.51
4282,-3.18
4294,-3.76
4306,-4.37
4318,-5.16
4330,-6.22
4341,-7.52
4352,-8.95
4364,-10.38
4376,-11.73
4388,-13.01
4400,-14.3
4412,-15.62
4424,-16.95
4436,-18.23
4448,-19.45
4460,-20.68
4472,-22.05
4484,-23.62
4496,-25.26
4508,-26.57
4520,-26.99
4531,-26.07
4542,-23.61
4554,-19.8
4566,-15.13
4578,-10.23
4590,-5.6
4602,-1.54
4614,1.91
4626,4.83
4638,7.31
4650,9.41
4662,11.11
4674,12.37
4686,13.22
4698,13.71
4710,13.98
4721,14.18
4732,14.41
4744,14.71
4756,15.08
4768,15.44
4780,15.76
4792,16.02
4804,16.25
4816,16.48
4828,16.74
4840,16.97
4852,17.11
4864,17.1
4876,16.86
4888,16.39
4900,15.72
4911,14.91
4922,14.01
4934,13.04
4946,12.0
4958,10.88
4970,9.7
4982,8.54
4994,7.5
5006,6.67
5018,6.08
5030,5.65
5042,5.27
5054,4.81
5066,4.22
5078,3.5
5090,2.71
5101,1.94
5112,1.22
5124,0.56
5136,-0.05
5148,-0.63
5160,-1.21
5172,-1.83
5184,-2.51
5196,-3.3
5208,-4.19
5220,-5.2
5232,-6.29
5244,-7.47
5256,-8.72
5268,-10.03
5280,-11.42
5291,-12.84
5302,-14.24
5314,-15.57
5326,-16.78
5338,-17.89
5350,-18.98
5362,-20.15
5374,-21.5
5386,-23.09
5398,-24.82
5410,-26.47
5422,-27.71
5434,-28.14
5446,-27.42
5458,-25.36
5470,-22.06
5481,-17.81
5492,-13.1
5504,-8.39
5516,-4.06
5528,-0.3
5540,2.83
5552,5.37
5564,7.37
5576,8.86
5588,9.9
5600,10.58
5612,11.04
5624,11.44
5636,11.89
5648,12.41
5660,12.93
5671,13.38
5682,13.74
5694,14.05
5706,14.38
5718,14.78
5730,15.24
5742,15.7
5754,16.04
5766,16.2
5778,16.16
5790,15.97
5802,15.68
5814,15.34
5826,14.9
5838,14.29
5850,13.42
5861,12.27
5872,10.93
5884,9.53
5896,8.25
5908,7.21
5920,6.42
5932,5.83
5944,5.32
5956,4.78
5968,4.15
5980,3.45
5992,2.72
6004,1.98
6016,1.27
6028,0.6
6040,-0.02
6051,-0.59
6062,-1.08
6074,-1.52
6086,-1.95
6098,-2.43
6110,-3.02
6122,-3.75
6134,-4.59
6146,-5.55
6158,-6.59
6170,-7.71
6182,-8.9
6194,-10.08
6206,-11.16
6218,-12.04
6230,-12.72
6241,-13.31
6252,-14.05
6264,-15.2
6276,-16.94
6288,-19.17
6300,-21.56
6312,-23.55
6324,-24.54
6336,-24.1
6348,-22.1
6360,-18.74
6372,-14.48
6384,-9.87
6396,-5.41
6408,-1.42
6420,1.99
6431,4.84
6442,7.23
6454,9.2
6466,10.76
6478,11.89
6490,12.61
6502,12.93
6514,12.94
6526,12.74
6538,12.38
6550,11.91
6562,11.36
6574,10.75
6586,10.14
6598,9.63
6610,9.32
6621,9.31
6632,9.62
6644,10.17
6656,10.8
6668,11.28
6680,11.45
6692,11.22
6704,10.64
6716,9.84
6728,8.95
6740,8.06
6752,7.16
6764,6.23
6776,5.22
6788,4.16
6800,3.08
6811,2.02
6822,0.98
6834,-0.03
6846,-1.03
6858,-2.01
6870,-2.92
6882,-3.71
6894,-4.36
6906,-4.91
6918,-5.43
6930,-6.05
6942,-6.86
6954,-7.88
6966,-9.06
6978,-10.3
6990,-11.5
7001,-12.55
7012,-13.44
7024,-14.18
7036,-14.84
7048,-15.55
7060,-16.49
7072,-17.79
7084,-19.5
7096,-21.52
7108,-23.5
7120,-24.93
7132,-25.28
7144,-24.19
7156,-21.62
7168,-17.87
7180,-13.5
7191,-9.07
7202,-4.98
7214,-1.39
7226,1.73
7238,4.49
7250,6.93
7262,9.0
7274,10.64
7286,11.82
7298,12.62
7310,13.19
7322,13.63
7334,13.96
7346,14.1
7358,14.0
7370,13.7
7381,13.35
7392,13.17
7404,13.33
7416,13.84
7428,14.57
7440,15.25
7452,15.64
7464,15.62
7476,15.18
7488,14.47
7500,13.65
7512,12.87
7524,12.17
7536,11.55
7548,10.92
7560,10.23
7571,9.46
7582,8.59
7594,7.65
7606,6.64
7618,5.54
7630,4.36
7642,3.13
7654,1.96
7666,0.99
7678,0.33
7690,-0.03
7702,-0.23
7714,-0.48
7726,-0.99
7738,-1.83
7750,-2.91
7761,-3.98
7772,-4.82
7784,-5.32
7796,-5.57
7808,-5.8
7820,-6.26
7832,-7.05
7844,-8.15
7856,-9.37
7868,-10.55
7880,-11.56
7892,-12.44
7904,-13.31
7916,-14.31
7928,-15.55
7940,-17.08
7951,-18.87
7962,-20.82
7974,-22.76
7986,-24.42
7998,-25.45
8010,-25.49
8022,-24.27
8034,-21.78
8046,-18.27
8058,-14.23
8070,-10.21
8082,-6.65
8094,-3.77
8106,-1.61
8118,-0.05
8130,1.01
8141,1.65
8152,1.96
8164,2.0
8176,1.89
8188,1.72
8200,1.52
8212,1.25
8224,0.82
8236,0.18
8248,-0.68
8260,-1.68
8272,-2.71
8284,-3.76
8296,-4.87
8308,-6.1
8320,-7.56
8331,-9.24
8342,-11.07
8354,-12.91
8366,-14.59
8378,-15.98
8390,-17.02
8402,-17.65
8414,-17.81
8426,-17.35
8438,-16.06
8450,-13.72
8462,-10.16
8474,-5.37
8486,0.49
8498,7.14
8510,14.28
8521,21.78
8532,29.58
8544,37.56
8556,45.47
8568,52.81
8580,59.01
8592,63.56
8604,66.26
8616,67.12
8628,66.6
8640,65.2
8652,63.35
8664,61.36
8676,59.42
8688,57.67
8700,56.11
8711,54.69
8722,53.01
8734,50.94
8746,48.12
8758,44.28
8770,39.23
8782,33.01
8794,25.88
8806,18.3
8818,10.86
8830,3.91
8842,-1.79
8854,-5.94
8866,-8.42
8878,-9.24
8890,-8.5
8901,-6.4
8912,-3.26
8924,0.42
8936,3.74
8948,6.55
8960,8.61
8972,9.88
8984,10.3
8996,9.64
9008,7.37
9020,3.0
9032,-1.28
9044,-7.56
9056,-14.36
9068,-20.65
9080,-25.96
9091,-30.63
9102,-35.53
9114,-41.5
9126,-48.7
9138,-56.5
9150,-64.14
9162,-70.14
9174,-73.8
9186,-74.96
9198,-73.71
9210,-70.15
9222,-64.23
9234,-55.89
9246,-45.21
9258,-32.82
9270,-19.05
9281,-4.61
9292,9.74
9304,23.29
9316,35.29
9328,45.08
9340,52.02
9352,55.64
9364,55.46
9376,51.68
9388,44.73
9400,35.6
9412,25.57
9424,15.82
9436,6.92
9448,-1.5
9460,-10.53
9471,-21.45
9482,-34.65
9494,-49.38
9506,-63.79
9518,-75.69
9530,-83.53
9542,-87.02
9554,-87.07
9566,-85.26
9578,-83.1
9590,-81.52
9602,-80.79
9614,-80.59
9626,-80.2
9638,-78.69
9650,-75.07
9661,-68.41
9672,-58.11
9684,-44.1
9696,-27.01
9708,-8.08
9720,11.21
9732,29.44
9744,45.53
9756,58.68
9768,68.45
9780,74.74
9792,77.68
9804,77.54
9816,74.72
9828,69.77
9840,63.41
9851,56.4
9862,49.14
9874,41.8
9886,34.51
9898,27.47
9910,20.9
9922,14.94
9934,9.65
9946,4.84
9958,0.14
9970,-5.29
9982,-11.89
9994,-19.23
10006,-25.98
10018,-30.53
10030,-31.74
10041,-29.51
10052,-24.83
10064,-19.37
10076,-15.34
10088,-14.22
10100,-16.12
10112,-20.01
10124,-24.59
10136,-29.13
10148,-33.64
10160,-38.68
10172,-41.19
10184,-39.26
10196,-33.22
10208,-25.39
10220,-18.11
10231,-12.37
10242,-7.92
10254,-3.87
10266,0.95
10278,7.48
10290,15.56
10302,24.34
10314,32.73
10326,39.83
10338,45.09
10350,48.36
10362,49.92
10374,50.36
10386,50.34
10398,50.06
10410,49.6
10421,49.09
10432,48.8
10444,48.89
10456,49.3
10468,49.83
10480,50.51
10492,50.81
10504,50.21
10516,48.37
10528,45.22
10540,41.04
10552,36.29
10564,31.52
10576,27.26
10588,23.69
10600,20.88
10611,18.66
10622,16.82
10634,15.22
10646,13.9
10658,12.92
10670,12.38
10682,12.32
10694,12.46
10706,12.63
10718,12.74
10730,12.7
10742,12.37
10754,11.47
10766,9.59
10778,6.15
10790,2.54
10801,-0.49
10812,-2.11
10824,-1.56
10836,1.64
10848,7.43
10860,15.15
10872,23.56
10884,31.0
10896,35.88
10908,36.78
10920,33.28
10932,26.06
10944,16.68
10956,7.03
10968,-1.23
10980,-7.07
10991,-10.26
11002,-11.16
11014,-10.64
11026,-9.53
11038,-8.52
11050,-8.03
11062,-8.28
11074,-9.29
11086,-10.96
11098,-13.13
11110,-15.68
11122,-18.61
11134,-21.84
11146,-25.15
11158,-28.21
11170,-30.73
11181,-32.64
11192,-34.12
11204,-35.43
11216,-36.66
11228,-37.64
11240,-37.84
11252,-36.66
11264,-33.78
11276,-29.31
11288,-23.74
11300,-17.68
11312,-11.5
11324,-5.23
11336,1.36
11348,8.54
11360,16.41
11371,24.75
11382,33.1
11394,41.0
11406,48.08
11418,54.14
11430,59.06
11442,62.72
11454,64.97
11466,65.69
11478,64.85
11490,62.58
11502,59.16
11514,54.8
11526,49.6
11538,43.4
11550,35.85
11561,26.53
11572,15.17
11584,1.73
11596,-13.45
11608,-29.66
11620,-45.86
11632,-60.82
11644,-73.32
11656,-82.3
11668,-87.1
11680,-87.44
11692,-83.44
11704,-75.51
11716,-64.28
11728,-50.65
11740,-35.78
11751,-21.14
11762,-8.39
11774,0.83
11786,5.2
11798,3.97
11810,-2.78
11822,-14.11
11834,-28.34
11846,-43.23
11858,-56.46
11870,-66.01
11882,-70.59
11894,-69.86
11906,-64.33
11918,-55.14
11930,-43.59
11941,-31.02
11952,-18.69
11964,-7.88
11976,0.03
11988,3.74
12000,2.3
12012,-4.41
12024,-15.5
12036,-29.27
12048,-43.68
12060,-57.0
12072,-68.16
12084,-76.79
12096,-82.93
12108,-86.81
12120,-88.48
12131,-87.75
12142,-84.42
12154,-78.69
12166,-71.34
12178,-63.83
12190,-58.06
12202,-55.92
12214,-58.98
12226,-67.68
12238,-80.9
12250,-96.11
12262,-110.15
12274,-120.27
12286,-124.93
12298,-124.32
12310,-120.0
12321,-114.67
12332,-110.9
12344,-109.91
12356,-111.17
12368,-112.52
12380,-110.52
12392,-101.24
12404,-81.44
12416,-49.85
12428,-8.51
12440,37.52
12452,81.64
12464,117.64
12476,141.49
12488,152.77
12500,154.9
12511,153.0
12522,154.31
12534,162.49
12546,174.58
12558,183.71
12570,183.76
12582,172.49
12594,152.23
12606,128.14
12618,105.5
12630,87.53
12642,74.16
12654,63.3
12666,53.07
12678,42.93
12690,33.77
12701,26.77
12712,22.4
12724,19.77
12736,17.48
12748,14.03
12760,9.03
12772,3.62
12784,-0.27
12796,-1.12
12808,1.54
12820,6.94
12832,13.5
12844,19.68
12856,24.58
12868,27.98
12880,30.06
12891,31.01
12902,30.93
12914,30.01
12926,28.54
12938,26.77
12950,24.71
12962,21.93
12974,17.85
12986,12.31
12998,5.96
13010,-0.02
13022,-4.37
13034,-6.4
13046,-6.15
13058,-4.23
13070,-1.44
13081,1.64
13092,4.7
13104,7.7
13116,10.25
13128,11.85
13140,12.03
13152,10.53
13164,7.42
13176,3.09
13188,-1.85
13200,-6.76
13212,-11.02
13224,-14.09
13236,-15.49
13248,-15.08
13260,-13.06
13271,-10.08
13282,-6.96
13294,-4.34
13306,-2.59
13318,-1.67
13330,-1.32
13342,-1.18
13354,-0.98
13366,-0.62
13378,-0.1
13390,0.58
13402,1.52
13414,2.71
13426,4.12
13438,5.62
13450,7.14
13461,8.69
13472,10.42
13484,12.73
13496,15.41
13508,18.7
13520,22.85
13532,28.08
13544,34.43
13556,41.83
13568,49.98
13580,58.41
13592,66.46
13604,73.38
13616,78.5
13628,81.24
13640,81.26
13651,78.56
13662,73.46
13674,66.57
13686,58.57
13698,50.1
13710,41.64
13722,33.55
13734,26.0
13746,18.97
13758,12.29
13770,5.71
13782,-1.06
13794,-8.22
13806,-15.77
13818,-23.54
13830,-31.16
13841,-38.21
13852,-44.34
13864,-49.24
13876,-52.69
13888,-54.57
13900,-54.9
13912,-53.88
13924,-51.91
13936,-49.37
13948,-46.57
13960,-43.67
13972,-40.66
13984,-37.48
13996,-34.12
14008,-30.71
14020,-27.47
14031,-24.65
14042,-22.48
14054,-21.09
14066,-20.48
14078,-20.54
14090,-21.07
14102,-21.83
14114,-22.63
14126,-23.36
14138,-23.99
14150,-24.57
14162,-25.18
14174,-25.88
14186,-26.7
14198,-27.58
14210,-28.38
14221,-28.83
14232,-28.58
14244,-27.3
14256,-24.81
14268,-21.17
14280,-16.73
14292,-11.99
14304,-7.48
14316,-3.5
14328,-0.16
14340,2.58
14352,4.73
14364,6.12
14376,6.42
14388,5.26
14400,2.45
14411,-1.81
14422,-6.98
14434,-12.32
14446,-17.12
14458,-20.95
14470,-23.83
14482,-26.26
14494,-29.0
14506,-32.75
14518,-37.83
14530,-43.96
14542,-50.28
14554,-55.7
14566,-59.23
14578,-60.32
14590,-58.9
14601,-55.29
14612,-49.87
14624,-43.09
14636,-35.47
14648,-27.73
14660,-20.78
14672,-15.43
14684,-12.01
14696,-10.14
14708,-8.87
14720,-7.04
14732,-3.81
14744,0.99
14756,7.01
14768,13.63
14780,20.34
14791,27.01
14802,33.78
14814,40.83
14826,48.15
14838,55.47
14850,62.28
14862,68.09
14874,72.51
14886,75.33
14898,76.56
14910,76.36
14922,74.92
14934,72.43
14946,68.96
14958,64.49
14970,58.94
14981,52.29
14992,44.64
15004,36.2
15016,27.21
15028,17.92
15040,8.58
15052,-0.45
15064,-8.54
15076,-14.94
15088,-18.91
15100,-20.06
15112,-18.55
15124,-15.13
15136,-10.88
15148,-6.84
15160,-3.68
15171,-1.6
15182,-0.38
15194,0.4
15206,1.11
15218,1.99
15230,3.07
15242,4.23
15254,5.34
15266,6.36
15278,7.33
15290,8.4
15302,9.72
15314,11.35
15326,13.24
15338,15.28
15350,17.41
15361,19.68
15372,22.2
15384,25.11
15396,28.41
15408,31.9
15420,35.2
15432,37.83
15444,39.4
15456,39.69
15468,38.7
15480,36.64
15492,33.83
15504,30.6
15516,27.19
15528,23.73
15540,20.3
15551,16.9
15562,13.6
15574,10.5
15586,7.71
15598,5.3
15610,3.25
15622,1.42
15634,-0.35
15646,-2.23
15658,-4.34
15670,-6.71
15682,-9.32
15694,-12.1
15706,-14.95
15718,-17.79
15730,-20.58
15741,-23.31
15752,-25.97
15764,-28.57
15776,-31.11
15788,-33.6
15800,-36.01
15812,-38.29
15824,-40.38
15836,-42.22
15848,-43.8
15860,-45.19
15872,-46.57
15884,-48.19
15896,-50.28
15908,-52.83
15920,-55.49
15931,-57.57
15942,-58.13
15954,-56.28
15966,-51.49
15978,-43.84
15990,-34.01
16002,-23.09
16014,-12.33
16026,-2.72
16038,5.13
16050,11.12
16062,15.39
16074,18.28
16086,20.07
16098,21.01
16110,21.31
16121,21.16
16132,20.81
16144,20.42
16156,20.11
16168,19.91
16180,19.76
16192,19.64
16204,19.56
16216,19.54
16228,19.62
16240,19.8
16252,20.03
16264,20.19
16276,20.15
16288,19.79
16300,19.03
16311,17.85
16322,16.31
16334,14.53
16346,12.67
16358,10.9
16370,9.27
16382,7.78
16394,6.29
16406,4.71
16418,2.97
16430,1.18
16442,-0.56
16454,-2.12
16466,-3.44
16478,-4.56
16490,-5.5
16501,-6.26
16512,-6.77
16524,-6.99
16536,-6.96
16548,-6.82
16560,-6.8
16572,-7.07
16584,-7.66
16596,-8.41
16608,-9.11
16620,-9.6
16632,-9.85
16644,-9.99
16656,-10.23
16668,-10.72
16680,-11.54
16691,-12.71
16702,-14.16
16714,-15.87
16726,-17.74
16738,-19.69
16750,-21.54
16762,-23.17
16774,-24.46
16786,-25.46
16798,-26.41
16810,-27.62
16822,-29.41
16834,-31.86
16846,-34.7
16858,-37.26
16870,-38.6
16881,-37.81
16892,-34.29
16904,-28.05
16916,-19.7
16928,-10.33
16940,-1.2
16952,6.6
16964,12.47
16976,16.27
16988,18.28
17000,18.94
17012,18.68
17024,17.79
17036,16.46
17048,14.83
17060,13.04
17071,11.26
17082,9.67
17094,8.33
17106,7.28
17118,6.41
17130,5.62
17142,4.83
17154,3.98
17166,3.09
17178,2.19
17190,1.34
17202,0.54
17214,-0.26
17226,-1.14
17238,-2.22
17250,-3.53
17261,-5.01
17272,-6.49
17284,-7.78
17296,-8.75
17308,-9.31
17320,-9.35
17332,-8.68
17344,-6.94
17356,-3.71
17368,1.33
17380,8.2
17392,16.5
17404,25.47
17416,34.25
17428,42.04
17440,48.36
17451,52.97
17462,55.87
17474,57.15
17486,56.99
17498,55.57
17510,53.13
17522,49.87
17534,45.85
17546,40.96
17558,35.03
17570,27.89
17582,19.62
17594,10.61
17606,1.49
17618,-7.06
17630,-14.57
17641,-20.97
17652,-26.68
17664,-32.41
17676,-38.9
17688,-46.49
17700,-54.84
17712,-62.81
17724,-68.7
17736,-70.81
17748,-68.05
17760,-60.38
17772,-48.88
17784,-35.37
17796,-21.82
17808,-9.73
17820,0.1
17831,7.57
17842,12.96
17854,16.65
17866,18.96
17878,20.17
17890,20.53
17902,20.36
17914,20.01
17926,19.78
17938,19.82
17950,20.05
17962,20.27
17974,20.24
17986,19.8
17998,19.01
18010,18.11
18021,17.39
18032,17.1
18044,17.26
18056,17.69
18068,18.01
18080,17.91
18092,17.2
18104,15.94
18116,14.32
18128,12.58
18140,10.86
18152,9.18
18164,7.48
18176,5.68
18188,3.78
18200,1.88
18211,0.08
18222,-1.54
18234,-2.97
18246,-4.25
18258,-5.42
18270,-6.47
18282,-7.34
18294,-7.95
18306,-8.28
18318,-8.36
18330,-8.31
18342,-8.27
18354,-8.35
18366,-8.61
18378,-9.07
18390,-9.73
18401,-10.61
18412,-11.74
18424,-13.18
18436,-14.91
18448,-16.87
18460,-18.93
18472,-20.95
18484,-22.81
18496,-24.46
18508,-25.9
18520,-27.18
18532,-28.36
18544,-29.56
18556,-31.0
18568,-32.93
18580,-35.57
18591,-38.86
18602,-42.32
18614,-45.02
18626,-45.78
18638,-43.6
18650,-38.06
18662,-29.53
18674,-19.09
18686,-8.16
18698,1.94
18710,10.34
18722,16.73
18734,21.18
18746,23.97
18758,25.44
18770,25.87
18781,25.57
18792,24.84
18804,23.98
18816,23.21
18828,22.6
18840,22.13
18852,21.71
18864,21.22
18876,20.62
18888,19.96
18900,19.34
18912,18.92
18924,18.8
18936,19.04
18948,19.57
18960,20.21
18971,20.73
18982,20.88
18994,20.53
19006,19.68
19018,18.44
19030,17.03
19042,15.63
19054,14.36
19066,13.19
19078,12.01
19090,10.73
19102,9.29
19114,7.74
19126,6.19
19138,4.76
19150,3.52
19161,2.46
19172,1.56
19184,0.78
19196,0.12
19208,-0.44
19220,-0.94
19232,-1.46
19244,-2.11
19256,-3.01
19268,-4.21
19280,-5.66
19292,-7.26
19304,-8.87
19316,-10.33
19328,-11.57
19340,-12.58
19351,-13.52
19362,-14.56
19374,-15.93
19386,-17.71
19398,-19.8
19410,-21.98
19422,-23.96
19434,-25.55
19446,-26.78
19458,-27.86
19470,-29.12
19482,-30.89
19494,-33.41
19506,-36.64
19518,-40.24
19530,-43.44
19541,-45.2
19552,-44.44
19564,-40.44
19576,-33.08
19588,-23.07
19600,-11.71
19612,-0.52
19624,9.24
19636,16.87
19648,22.22
19660,25.59
19672,27.36
19684,27.9
19696,27.52
19708,26.51
19720,25.22
19731,23.97
19742,23.0
19754,22.31
19766,21.75
19778,21.09
19790,20.15
19802,19.0
19814,17.88
19826,17.14
19838,17.0
19850,17.47
19862,18.3
19874,19.15
19886,19.7
19898,19.79
19910,19.43
19921,18.71
19932,17.77
19944,16.67
19956,15.48
19968,14.21
19980,12.85
19992,11.41
20004,9.87
20016,8.23
20028,6.54
20040,4.89
20052,3.41
20064,2.22
20076,1.36
20088,0.76
20100,0.31
20111,-0.17
20122,-0.78
20134,-1.6
20146,-2.63
20158,-3.85
20170,-5.17
20182,-6.5
20194,-7.74
20206,-8.88
20218,-9.95
20230,-11.08
20242,-12.38
20254,-13.91
20266,-15.67
20278,-17.57
20290,-19.47
20301,-21.27
20312,-22.93
20324,-24.47
20336,-25.98
20348,-27.64
20360,-29.67
20372,-32.23
20384,-35.23
20396,-38.21
20408,-40.29
20420,-40.38
20432,-37.59
20444,-31.63
20456,-22.96
20468,-12.73
20480,-2.34
20491,6.95
20502,14.37
20514,19.7
20526,23.12
20538,24.94
20550,25.5
20562,25.07
20574,23.93
20586,22.4
20598,20.77
20610,19.3
20622,18.07
20634,17.05
20646,16.14
20658,15.28
20670,14.5
20681,13.95
20692,13.8
20704,14.15
20716,14.98
20728,16.09
20740,17.19
20752,18.03
20764,18.46
20776,18.43
20788,17.92
20800,16.96
20812,15.54
20824,13.7
20836,11.58
20848,9.41
20860,7.41
20871,5.73
20882,4.31
20894,2.98
20906,1.55
20918,-0.09
20930,-1.85
20942,-3.57
20954,-5.06
20966,-6.27
20978,-7.31
20990,-8.33
