seconds,BVP
11,21.66
23,17.69
35,12.75
47,7.21
59,1.67
71,-3.13
82,-6.46
93,-7.88
105,-7.39
117,-5.55
129,-3.29
141,-1.56
153,-1.04
165,-1.89
177,-3.74
189,-5.99
201,-8.04
213,-9.49
225,-10.18
237,-10.09
249,-9.26
261,-7.87
272,-6.23
283,-4.86
295,-4.33
307,-5.02
319,-6.89
331,-9.46
343,-11.93
355,-13.55
367,-13.97
379,-13.33
391,-12.16
403,-11.12
415,-10.78
427,-11.41
439,-12.97
451,-15.19
462,-17.62
473,-19.79
485,-21.24
497,-21.69
509,-21.09
521,-19.69
533,-17.98
545,-16.64
557,-16.3
569,-17.36
581,-19.8
593,-23.17
605,-26.69
617,-29.49
629,-30.89
641,-30.6
652,-28.8
663,-25.89
675,-22.34
687,-18.51
699,-14.56
711,-10.58
723,-6.74
735,-3.38
747,-0.91
759,0.33
771,0.26
783,-0.88
795,-2.57
807,-4.28
819,-5.64
831,-6.6
842,-7.3
853,-8.01
865,-8.93
877,-10.13
889,-11.58
901,-13.18
913,-14.86
925,-16.6
937,-18.51
949,-20.75
961,-23.52
973,-26.99
985,-31.18
997,-35.92
1009,-40.79
1021,-45.23
1032,-48.6
1043,-50.46
1055,-50.62
1067,-49.23
1079,-46.72
1091,-43.64
1103,-40.51
1115,-37.68
1127,-35.28
1139,-33.15
1151,-31.0
1163,-28.52
1175,-25.51
1187,-21.97
1199,-18.13
1211,-14.35
1222,-11.01
1233,-8.37
1245,-6.48
1257,-5.24
1269,-4.48
1281,-4.22
1293,-4.7
1305,-6.31
1317,-9.29
1329,-13.49
1341,-18.23
1353,-22.52
1365,-25.38
1377,-26.22
1389,-24.88
1401,-21.44
1412,-15.94
1423,-8.23
1435,1.92
1447,14.45
1459,28.8
1471,43.79
1483,58.07
1495,70.5
1507,80.52
1519,88.21
1531,94.05
1543,98.61
1555,102.38
1567,105.64
1579,108.48
1591,110.88
1602,112.72
1613,113.88
1625,114.24
1637,113.85
1649,112.85
1661,111.41
1673,109.7
1685,107.78
1697,105.62
1709,102.97
1721,99.16
1733,92.93
1745,82.38
1757,65.65
1769,41.83
1781,12.06
1792,-20.11
1803,-49.37
1815,-70.33
1827,-79.31
1839,-75.6
1851,-61.53
1863,-41.27
1875,-19.27
1887,1.08
1899,17.86
1911,30.28
1923,38.14
1935,41.48
1947,40.61
1959,36.5
1971,30.79
1982,25.48
1993,22.17
2005,21.21
2017,21.57
2029,21.03
2041,17.31
2053,9.05
2065,-3.41
2077,-17.91
2089,-31.19
2101,-40.02
2113,-42.29
2125,-37.83
2137,-28.43
2149,-17.14
2161,-7.32
2172,-1.38
2183,-0.19
2195,-3.02
2207,-8.24
2219,-14.18
2231,-19.78
2243,-24.7
2255,-28.84
2267,-31.89
2279,-33.14
2291,-31.95
2303,-28.3
2315,-23.17
2327,-18.43
2339,-15.94
2351,-16.82
2362,-20.84
2373,-26.6
2385,-32.16
2397,-35.88
2409,-36.95
2421,-35.47
2433,-32.15
2445,-28.01
2457,-23.98
2469,-20.78
2481,-18.81
2493,-18.1
2505,-18.42
2517,-19.34
2529,-20.35
2541,-21.02
2552,-21.14
2563,-20.67
2575,-19.71
2587,-18.44
2599,-17.03
2611,-15.62
2623,-14.35
2635,-13.31
2647,-12.59
2659,-12.22
2671,-12.21
2683,-12.52
2695,-13.07
2707,-13.76
2719,-14.51
2731,-15.3
2742,-16.17
2753,-17.17
2765,-18.31
2777,-19.51
2789,-20.63
2801,-21.54
2813,-22.19
2825,-22.68
2837,-23.19
2849,-23.86
2861,-24.68
2873,-25.43
2885,-25.74
2897,-25.19
2909,-23.44
2921,-20.34
2932,-16.0
2943,-10.69
2955,-4.87
2967,0.9
2979,6.04
2991,10.08
3003,12.71
3015,13.86
3027,13.73
3039,12.76
3051,11.47
3063,10.35
3075,9.7
3087,9.61
3099,9.9
3111,10.33
3122,10.63
3133,10.58
3145,10.12
3157,9.25
3169,8.0
3181,6.4
3193,4.46
3205,2.21
3217,-0.24
3229,-2.72
3241,-4.92
3253,-6.48
3265,-6.99
3277,-6.19
3289,-4.0
3301,-0.56
3312,3.69
3323,8.29
3335,12.76
3347,16.8
3359,20.19
3371,22.79
3383,24.43
3395,24.95
3407,24.27
3419,22.47
3431,19.85
3443,16.81
3455,13.78
3467,11.07
3479,8.82
3491,7.08
3502,5.78
3513,4.81
3525,4.02
3537,3.19
3549,2.12
3561,0.69
3573,-1.06
3585,-2.88
3597,-4.39
3609,-5.23
3621,-5.14
3633,-4.01
3645,-1.93
3657,0.91
3669,4.22
3681,7.74
3692,11.19
3703,14.34
3715,17.0
3727,19.03
3739,20.41
3751,21.13
3763,21.26
3775,20.86
3787,20.04
3799,18.86
3811,17.42
3823,15.82
3835,14.2
3847,12.87
3859,12.04
3871,11.79
3882,11.97
3893,12.31
3905,12.52
3917,12.42
3929,11.97
3941,11.4
3953,11.19
3965,11.71
3977,12.98
3989,14.72
4001,16.6
4013,18.4
4025,20.12
4037,21.98
4049,24.39
4061,28.05
4072,33.17
4083,39.3
4095,45.46
4107,50.65
4119,54.32
4131,56.45
4143,57.52
4155,58.3
4167,59.87
4179,62.64
4191,66.29
4203,70.0
4215,72.85
4227,74.04
4239,72.62
4251,67.59
4262,56.18
4273,38.55
4285,18.65
4297,2.39
4309,-6.0
4321,-5.83
4333,0.97
4345,11.29
4357,22.22
4369,31.08
4381,38.02
4393,43.08
4405,45.62
4417,44.31
4429,37.89
4441,25.86
4452,8.6
4463,-13.04
4475,-35.25
4487,-54.97
4499,-70.85
4511,-83.52
4523,-94.96
4535,-107.3
4547,-121.69
4559,-137.92
4571,-154.63
4583,-169.83
4595,-181.64
4607,-188.75
4619,-190.26
4631,-185.57
4642,-174.37
4653,-157.02
4665,-134.93
4677,-110.47
4689,-86.35
4701,-64.96
4713,-47.73
4725,-34.91
4737,-25.9
4749,-19.83
4761,-15.93
4773,-13.71
4785,-12.83
4797,-12.79
4809,-13.01
4821,-12.91
4832,-12.11
4843,-10.54
4855,-8.38
4867,-5.91
4879,-3.27
4891,-0.48
4903,2.68
4915,6.25
4927,10.1
4939,13.94
4951,17.34
4963,19.96
4975,21.7
4987,22.7
4999,23.31
5011,23.95
5022,24.88
5033,26.15
5045,27.68
5057,29.28
5069,30.87
5081,32.48
5093,34.31
5105,36.54
5117,39.33
5129,42.62
5141,46.18
5153,49.61
5165,52.47
5177,54.4
5189,55.21
5201,54.99
5212,53.99
5223,52.62
5235,51.29
5247,50.29
5259,49.71
5271,49.47
5283,49.42
5295,49.41
5307,49.44
5319,49.57
5331,49.93
5343,50.55
5355,51.37
5367,52.24
5379,53.1
5391,53.96
5402,54.88
5413,55.82
5425,56.54
5437,56.68
5449,55.95
5461,54.49
5473,52.89
5485,51.98
5497,52.36
5509,53.91
5521,55.67
5533,56.24
5545,54.39
5557,49.75
5569,42.89
5581,34.91
5592,26.8
5603,18.84
5615,10.56
5627,1.16
5639,-9.83
5651,-22.1
5663,-34.54
5675,-45.72
5687,-54.46
5699,-60.33
5711,-63.66
5723,-65.23
5735,-65.69
5747,-65.35
5759,-63.97
5771,-61.08
5782,-56.33
5793,-49.66
5805,-41.45
5817,-32.41
5829,-23.36
5841,-15.09
5853,-8.28
5865,-3.44
5877,-0.79
5889,-0.27
5901,-1.56
5913,-4.14
5925,-7.46
5937,-11.08
5949,-14.68
5961,-18.03
5972,-20.88
5983,-22.93
5995,-23.79
6007,-23.12
6019,-20.75
6031,-16.63
6043,-10.88
6055,-3.56
6067,5.3
6079,15.71
6091,27.51
6103,40.23
6115,53.07
6127,64.97
6139,74.79
6151,81.54
6162,84.41
6173,82.76
6185,76.07
6197,64.12
6209,47.22
6221,26.43
6233,3.57
6245,-19.13
6257,-39.64
6269,-56.59
6281,-69.48
6293,-78.41
6305,-83.66
6317,-85.33
6329,-83.34
6341,-77.66
6352,-68.68
6363,-57.33
6375,-44.88
6387,-32.61
6399,-21.46
6411,-11.84
6423,-3.8
6435,2.79
6447,8.01
6459,11.82
6471,14.15
6483,14.95
6495,14.33
6507,12.58
6519,10.17
6531,7.57
6542,5.22
6553,3.37
6565,2.09
6577,1.26
6589,0.68
6601,0.1
6613,-0.66
6625,-1.74
6637,-3.16
6649,-4.83
6661,-6.54
6673,-8.05
6685,-9.1
6697,-9.53
6709,-9.24
6721,-8.19
6732,-6.44
6743,-4.08
6755,-1.31
6767,1.59
6779,4.33
6791,6.84
6803,9.34
6815,12.36
6827,16.42
6839,21.78
6851,28.15
6863,34.69
6875,40.17
6887,43.33
6899,43.14
6911,39.01
6922,30.86
6933,19.18
6945,5.01
6957,-10.18
6969,-24.71
6981,-37.08
6993,-46.16
7005,-51.39
7017,-52.71
7029,-50.47
7041,-45.41
7053,-38.69
7065,-31.78
7077,-26.28
7089,-23.36
7101,-23.49
7112,-26.2
7123,-30.37
7135,-34.79
7147,-38.62
7159,-41.65
7171,-44.16
7183,-46.57
7195,-49.06
7207,-51.59
7219,-53.95
7231,-55.97
7243,-57.64
7255,-59.11
7267,-60.44
7279,-61.58
7291,-62.33
7302,-62.42
7313,-61.8
7325,-60.62
7337,-59.3
7349,-58.22
7361,-57.58
7373,-57.19
7385,-56.51
7397,-54.89
7409,-51.86
7421,-47.32
7433,-41.59
7445,-35.33
7457,-29.19
7469,-23.66
7481,-18.83
7492,-14.34
7503,-9.44
7515,-3.11
7527,5.75
7539,18.04
7551,34.11
7563,53.62
7575,75.47
7587,97.94
7599,119.0
7611,136.71
7623,149.63
7635,157.02
7647,159.0
7659,156.34
7671,150.11
7682,141.39
7693,130.95
7705,119.16
7717,106.28
7729,92.71
7741,79.15
7753,66.55
7765,55.79
7777,47.27
7789,40.72
7801,35.34
7813,30.16
7825,24.46
7837,18.08
7849,11.28
7861,4.52
7872,-1.86
7883,-7.78
7895,-13.39
7907,-18.85
7919,-24.24
7931,-29.54
7943,-34.65
7955,-39.61
7967,-44.6
7979,-49.89
7991,-55.71
8003,-62.16
8015,-69.15
8027,-76.46
8039,-83.9
8051,-91.37
8062,-98.81
8073,-106.19
8085,-113.29
8097,-119.74
8109,-125.05
8121,-128.85
8133,-131.06
8145,-131.98
8157,-132.28
8169,-132.76
8181,-134.03
8193,-136.24
8205,-138.96
8217,-141.18
8229,-141.59
8241,-138.81
8252,-131.72
8263,-119.69
8275,-102.85
8287,-82.15
8299,-59.26
8311,-36.26
8323,-15.11
8335,2.8
8347,16.9
8359,27.33
8371,34.57
8383,39.06
8395,41.06
8407,40.82
8419,38.94
8431,36.55
8442,35.1
8453,35.83
8465,39.21
8477,44.72
8489,51.1
8501,56.95
8513,61.3
8525,63.86
8537,64.85
8549,64.74
8561,63.87
8573,62.46
8585,60.6
8597,58.43
8609,56.14
8621,53.88
8632,51.67
8643,49.39
8655,46.86
8667,43.9
8679,40.45
8691,36.51
8703,32.1
8715,27.23
8727,21.85
8739,15.93
8751,9.56
8763,2.96
8775,-3.51
8787,-9.33
8799,-13.9
8811,-16.71
8822,-17.41
8833,-15.95
8845,-12.57
8857,-7.76
8869,-2.13
8881,3.75
8893,9.42
8905,14.58
8917,18.99
8929,22.51
8941,24.99
8953,26.36
8965,26.65
8977,26.03
8989,24.78
9001,23.2
9012,21.52
9023,19.78
9035,17.92
9047,15.76
9059,13.23
9071,10.4
9083,7.43
9095,4.57
9107,1.98
9119,-0.25
9131,-2.08
9143,-3.41
9155,-4.05
9167,-3.74
9179,-2.19
9191,0.71
9202,4.84
9213,9.78
9225,14.92
9237,19.57
9249,23.18
9261,25.4
9273,26.2
9285,25.86
9297,24.86
9309,23.81
9321,23.28
9333,23.61
9345,24.81
9357,26.39
9369,27.46
9381,27.0
9392,24.3
9403,19.26
9415,12.64
9427,5.78
9439,0.1
9451,-3.41
9463,-4.64
9475,-4.16
9487,-3.02
9499,-2.2
9511,-2.42
9523,-3.98
9535,-6.83
9547,-10.71
9559,-15.1
9571,-19.35
9582,-22.74
9593,-24.65
9605,-24.68
9617,-22.78
9629,-19.06
9641,-13.81
9653,-7.37
9665,-0.18
9677,7.18
9689,13.95
9701,19.36
9713,22.85
9725,24.24
9737,23.77
9749,21.97
9761,19.4
9772,16.49
9783,13.47
9795,10.43
9807,7.39
9819,4.36
9831,1.35
9843,-1.63
9855,-4.5
9867,-7.14
9879,-9.33
9891,-10.82
9903,-11.37
9915,-10.84
9927,-9.26
9939,-6.77
9951,-3.64
9962,-0.19
9973,3.28
9985,6.49
9997,9.25
10009,11.44
10021,12.98
10033,13.85
10045,14.04
10057,13.56
10069,12.49
10081,10.97
10093,9.21
10105,7.42
10117,5.76
10129,4.25
10141,2.8
10152,1.27
10163,-0.39
10175,-2.17
10187,-4.03
10199,-5.92
10211,-7.91
10223,-10.11
10235,-12.6
10247,-15.27
10259,-17.71
10271,-19.33
10283,-19.56
10295,-18.06
10307,-15.03
10319,-11.04
10331,-6.91
10342,-3.35
10353,-0.7
10365,1.1
10377,2.4
10389,3.55
10401,4.74
10413,5.85
10425,6.56
10437,6.48
10449,5.31
10461,2.96
10473,-0.37
10485,-4.29
10497,-8.22
10509,-11.66
10521,-14.31
10532,-16.31
10543,-18.26
10555,-21.05
10567,-25.43
10579,-31.66
10591,-39.19
10603,-46.72
10615,-52.66
10627,-55.66
10639,-55.06
10651,-51.13
10663,-45.05
10675,-38.65
10687,-34.13
10699,-33.71
10711,-38.89
10722,-49.87
10733,-64.78
10745,-79.82
10757,-90.08
10769,-91.28
10781,-81.46
10793,-61.82
10805,-36.17
10817,-9.16
10829,15.67
10841,36.82
10853,54.61
10865,69.93
10877,83.02
10889,93.16
10901,99.24
10912,100.64
10923,97.93
10935,92.65
10947,86.59
10959,81.23
10971,77.44
10983,75.79
10995,76.71
11007,80.42
11019,86.37
11031,92.99
11043,97.54
11055,96.71
11067,87.62
11079,68.89
11091,41.63
11102,9.73
11113,-20.65
11125,-42.65
11137,-50.77
11149,-42.83
11161,-20.81
11173,9.75
11185,41.65
11197,68.35
11209,85.79
11221,92.88
11233,90.97
11245,82.54
11257,70.15
11269,55.95
11281,41.67
11292,28.7
11303,18.06
11315,10.15
11327,4.58
11339,0.46
11351,-3.52
11363,-8.39
11375,-14.51
11387,-21.23
11399,-27.19
11411,-30.93
11423,-31.59
11435,-29.37
11447,-25.25
11459,-20.76
11471,-17.26
11482,-15.47
11493,-15.24
11505,-15.76
11517,-16.04
11529,-15.2
11541,-12.88
11553,-8.79
11565,-3.1
11577,3.7
11589,10.77
11601,17.2
11613,22.13
11625,24.87
11637,25.13
11649,23.12
11661,20.32
11672,18.17
11683,17.51
11695,18.27
11707,19.84
11719,21.51
11731,22.74
11743,23.36
11755,23.62
11767,25.55
11779,30.52
11791,38.49
11803,47.96
11815,57.22
11827,65.16
11839,71.33
11851,75.82
11862,78.96
11873,83.41
11885,90.6
11897,99.99
11909,109.38
11921,116.81
11933,121.63
11945,124.22
11957,125.28
11969,125.32
11981,127.41
11993,132.76
12005,140.22
12017,146.81
12029,150.41
12041,150.77
12052,148.75
12063,145.29
12075,122.29
12087,72.8
12099,4.46
12111,-64.28
12123,-118.18
12135,-151.65
12147,-166.95
12159,-170.13
12171,-168.02
12183,-166.24
12195,-163.49
12207,-160.21
12219,-157.48
12231,-157.03
12242,-158.45
12253,-158.84
12265,-154.18
12277,-141.34
12289,-119.13
12301,-85.99
12313,-44.42
12325,-0.25
12337,34.71
12349,50.89
12361,46.28
12373,26.9
12385,1.92
12397,-21.47
12409,-38.47
12421,-48.27
12432,-52.3
12443,-54.59
12455,-57.37
12467,-60.89
12479,-64.85
12491,-68.93
12503,-72.94
12515,-75.59
12527,-74.52
12539,-68.58
12551,-58.51
12563,-45.71
12575,-31.44
12587,-17.22
12599,-4.56
12611,5.18
12622,11.84
12633,15.96
12645,18.12
12657,18.66
12669,18.2
12681,17.85
12693,17.73
12705,16.69
12717,12.28
12729,2.47
12741,-12.48
12753,-29.55
12765,-44.17
12777,-56.62
12789,-66.39
12801,-73.0
12812,-73.32
12823,-66.44
12835,-52.81
12847,-34.27
12859,-13.98
12871,4.2
12883,17.05
12895,23.61
12907,24.76
12919,22.69
12931,19.55
12943,17.28
12955,16.83
12967,17.95
12979,19.48
12991,20.15
13002,19.74
13013,18.59
13025,17.25
13037,15.72
13049,13.81
13061,11.26
13073,7.81
13085,3.53
13097,-1.1
13109,-5.02
13121,-7.41
13133,-8.13
13145,-7.93
13157,-7.81
13169,-8.55
13181,-10.31
13192,-12.68
13203,-14.91
13215,-16.16
13227,-16.07
13239,-14.92
13251,-13.48
13263,-12.55
13275,-12.62
13287,-13.69
13299,-15.34
13311,-16.94
13323,-17.8
13335,-17.5
13347,-15.94
13359,-13.36
13371,-10.12
13382,-6.61
13393,-3.15
13405,-0.02
13417,2.61
13429,4.61
13441,5.97
13453,6.77
13465,7.17
13477,7.33
13489,7.34
13501,7.15
13513,6.61
13525,5.54
13537,3.91
13549,1.85
13561,-0.31
13572,-2.15
13583,-3.34
13595,-3.73
13607,-3.45
13619,-2.82
13631,-2.26
13643,-2.15
13655,-2.74
13667,-4.1
13679,-6.09
13691,-8.46
13703,-10.82
13715,-12.7
13727,-13.65
13739,-13.29
13751,-11.49
13762,-8.45
13773,-4.6
13785,-0.58
13797,2.97
13809,5.56
13821,6.98
13833,7.28
13845,6.77
13857,5.85
13869,4.94
13881,4.32
13893,4.08
13905,4.12
13917,4.19
13929,4.0
13941,3.31
13952,2.09
13963,0.48
13975,-1.25
13987,-2.83
13999,-4.11
14011,-5.1
14023,-6.06
14035,-7.28
14047,-9.01
14059,-11.31
14071,-14.04
14083,-16.83
14095,-19.25
14107,-20.89
14119,-21.46
14131,-20.88
14142,-19.17
14153,-16.52
14165,-13.17
14177,-9.39
14189,-5.47
14201,-1.69
14213,1.7
14225,4.55
14237,6.8
14249,8.55
14261,9.96
14273,11.21
14285,12.39
14297,13.42
14309,14.08
14321,14.02
14332,13.03
14343,11.13
14355,8.64
14367,6.07
14379,3.95
14391,2.62
14403,2.11
14415,2.25
14427,2.74
14439,3.3
14451,3.79
14463,4.1
14475,4.16
14487,3.89
14499,3.34
14511,2.68
14522,2.22
14533,2.27
14545,2.91
14557,3.94
14569,4.91
14581,5.37
14593,5.13
14605,4.39
14617,3.52
14629,2.93
14641,2.77
14653,2.94
14665,3.19
14677,3.3
14689,3.27
14701,3.21
14712,3.33
14723,3.64
14735,4.06
14747,4.34
14759,4.24
14771,3.68
14783,2.64
14795,1.21
14807,-0.53
14819,-2.56
14831,-4.93
14843,-7.65
14855,-10.62
14867,-13.64
14879,-16.36
14891,-18.38
14902,-19.36
14913,-19.1
14925,-17.57
14937,-14.98
14949,-11.62
14961,-7.9
14973,-4.14
14985,-0.57
14997,2.63
15009,5.36
15021,7.49
15033,8.89
15045,9.49
15057,9.32
15069,8.59
15081,7.58
15092,6.55
15103,5.63
15115,4.77
15127,3.87
15139,2.78
15151,1.51
15163,0.08
15175,-1.37
15187,-2.77
15199,-4.04
15211,-5.2
15223,-6.34
15235,-7.6
15247,-9.12
15259,-10.97
15271,-13.05
15282,-15.09
15293,-16.66
15305,-17.36
15317,-16.96
15329,-15.42
15341,-12.96
15353,-9.84
15365,-6.3
15377,-2.53
15389,1.33
15401,5.1
15413,8.53
15425,11.35
15437,13.36
15449,14.57
15461,15.18
15472,15.56
15483,16.04
15495,16.79
15507,17.71
15519,18.44
15531,18.58
15543,17.78
15555,15.94
15567,13.21
15579,9.85
15591,6.17
15603,2.43
15615,-1.26
15627,-4.87
15639,-8.42
15651,-11.88
15662,-15.19
15673,-18.21
15685,-20.73
15697,-22.5
15709,-23.25
15721,-22.78
15733,-21.07
15745,-18.26
15757,-14.68
15769,-10.7
15781,-6.57
15793,-2.46
15805,1.6
15817,5.49
15829,9.0
15841,11.81
15852,13.64
15863,14.48
15875,14.62
15887,14.51
15899,14.53
15911,14.71
15923,14.72
15935,14.07
15947,12.47
15959,9.95
15971,6.91
15983,3.81
15995,0.94
16007,-1.71
16019,-4.34
16031,-7.14
16042,-10.12
16053,-13.08
16065,-15.67
16077,-17.59
16089,-18.62
16101,-18.62
16113,-17.5
16125,-15.24
16137,-12.01
16149,-8.19
16161,-4.26
16173,-0.63
16185,2.58
16197,5.53
16209,8.54
16221,11.74
16232,14.91
16243,17.52
16255,18.99
16267,19.01
16279,17.73
16291,15.68
16303,13.52
16315,11.73
16327,10.47
16339,9.54
16351,8.49
16363,6.89
16375,4.4
16387,0.97
16399,-3.09
16411,-7.23
16422,-10.91
16433,-13.77
16445,-15.83
16457,-17.41
16469,-18.89
16481,-20.4
16493,-21.68
16505,-22.19
16517,-21.43
16529,-19.23
16541,-15.82
16553,-11.77
16565,-7.65
16577,-3.84
16589,-0.38
16601,2.82
16612,5.87
16623,8.7
16635,11.17
16647,13.15
16659,14.6
16671,15.69
16683,16.62
16695,17.53
16707,18.43
16719,19.2
16731,19.64
16743,19.59
16755,18.94
16767,17.61
16779,15.55
16791,12.76
16802,9.37
16813,5.66
16825,1.99
16837,-1.27
16849,-3.93
16861,-5.98
16873,-7.59
16885,-8.82
16897,-9.61
16909,-9.69
16921,-8.76
16933,-6.71
16945,-3.73
16957,-0.31
16969,2.95
16981,5.64
16992,7.58
17003,8.85
17015,9.6
17027,10.0
17039,10.06
17051,9.76
17063,9.1
17075,8.11
17087,6.86
17099,5.36
17111,3.56
17123,1.4
17135,-1.1
17147,-3.74
17159,-6.17
17171,-8.06
17182,-9.27
17193,-10.0
17205,-10.72
17217,-11.98
17229,-14.08
17241,-16.84
17253,-19.66
17265,-21.7
17277,-22.3
17289,-21.23
17301,-18.83
17313,-15.75
17325,-12.67
17337,-10.06
17349,-8.0
17361,-6.29
17372,-4.65
17383,-2.87
17395,-0.91
17407,1.13
17419,3.14
17431,5.03
17443,6.81
17455,8.54
17467,10.18
17479,11.69
17491,12.97
17503,13.96
17515,14.72
17527,15.31
17539,15.78
17551,16.04
17562,15.85
17573,14.89
17585,12.92
17597,9.98
17609,6.37
17621,2.56
17633,-0.95
17645,-3.78
17657,-5.74
17669,-6.79
17681,-6.91
17693,-6.17
17705,-4.68
17717,-2.65
17729,-0.37
17741,1.88
17752,3.88
17763,5.54
17775,6.85
17787,7.8
17799,8.35
17811,8.4
17823,7.88
17835,6.8
17847,5.29
17859,3.52
17871,1.69
17883,-0.04
17895,-1.57
17907,-2.86
17919,-3.89
17931,-4.7
17942,-5.34
17953,-5.88
17965,-6.39
17977,-6.92
17989,-7.41
18001,-7.75
18013,-7.71
18025,-7.09
18037,-5.71
18049,-3.53
18061,-0.67
18073,2.56
18085,5.69
18097,8.3
18109,10.13
18121,11.17
18132,11.56
18143,11.55
18155,11.27
18167,10.75
18179,9.92
18191,8.78
18203,7.46
18215,6.19
18227,5.21
18239,4.56
18251,4.11
18263,3.61
18275,2.77
18287,1.47
18299,-0.24
18311,-2.21
18322,-4.28
18333,-6.34
18345,-8.29
18357,-9.99
18369,-11.21
18381,-11.68
18393,-11.17
18405,-9.67
18417,-7.37
18429,-4.64
18441,-1.84
18453,0.83
18465,3.36
18477,5.85
18489,8.24
18501,10.34
18512,11.76
18523,12.07
18535,11.06
18547,8.8
18559,5.67
18571,2.19
18583,-1.12
18595,-3.92
18607,-6.03
18619,-7.45
18631,-8.29
18643,-8.76
18655,-9.13
18667,-9.7
18679,-10.75
18691,-12.5
18702,-14.94
18713,-17.8
18725,-20.6
18737,-22.69
18749,-23.53
18761,-22.85
18773,-20.76
18785,-17.71
18797,-14.29
18809,-11.05
18821,-8.35
18833,-6.39
18845,-5.22
18857,-4.81
18869,-5.07
18881,-5.82
18892,-6.71
18903,-7.4
18915,-7.57
18927,-7.18
18939,-6.43
18951,-5.63
18963,-5.04
18975,-4.73
18987,-4.57
18999,-4.48
19011,-4.43
19023,-4.57
19035,-5.05
19047,-5.91
19059,-6.94
19071,-7.82
19082,-8.21
19093,-7.87
19105,-6.78
19117,-5.11
19129,-3.07
19141,-0.93
19153,1.13
19165,2.92
19177,4.33
19189,5.27
19201,5.73
19213,5.81
19225,5.6
19237,5.2
19249,4.68
19261,4.14
19272,3.65
19283,3.27
19295,3.03
19307,2.87
19319,2.68
19331,2.25
19343,1.38
19355,-0.1
19367,-2.25
19379,-4.96
19391,-7.87
19403,-10.47
19415,-12.21
19427,-12.64
19439,-11.58
19451,-9.15
19462,-5.8
19473,-2.03
19485,1.65
19497,4.94
19509,7.76
19521,10.15
19533,12.22
19545,14.0
19557,15.47
19569,16.5
19581,16.98
19593,16.84
19605,16.12
19617,14.97
19629,13.58
19641,12.07
19652,10.44
19663,8.53
19675,6.07
19687,2.86
19699,-1.14
19711,-5.72
19723,-10.46
19735,-14.83
19747,-18.34
19759,-20.61
19771,-21.36
19783,-20.42
19795,-17.75
19807,-13.51
19819,-8.12
19831,-2.19
19842,3.53
19853,8.44
19865,12.17
19877,14.72
19889,16.27
19901,17.11
19913,17.42
19925,17.29
19937,16.7
19949,15.65
19961,14.22
19973,12.58
19985,10.95
19997,9.49
20009,8.21
20021,6.93
20032,5.32
20043,3.05
20055,-0.01
20067,-3.7
20079,-7.55
20091,-10.92
20103,-13.19
20115,-13.95
20127,-13.06
20139,-10.68
20151,-7.18
20163,-3.05
20175,1.24
20187,5.26
20199,8.76
20211,11.6
20222,13.86
20233,15.64
20245,17.02
20257,17.99
20269,18.39
20281,18.0
20293,16.68
20305,14.41
20317,11.35
20329,7.88
20341,4.39
20353,1.21
20365,-1.45
20377,-3.57
20389,-5.25
20401,-6.66
20412,-7.96
20423,-9.31
20435,-10.78
20447,-12.35
20459,-13.84
20471,-14.95
20483,-15.33
20495,-14.6
20507,-12.58
20519,-9.32
20531,-5.14
20543,-0.49
20555,4.2
20567,8.62
20579,12.67
20591,16.33
20602,19.62
20613,22.47
20625,24.76
20637,26.32
20649,27.0
20661,26.75
20673,25.59
20685,23.55
20697,20.72
20709,17.24
20721,13.38
20733,9.45
20745,5.87
20757,2.96
20769,0.87
20781,-0.48
20792,-1.4
20803,-2.36
20815,-3.78
20827,-5.83
20839,-8.35
20851,-10.78
20863,-12.42
20875,-12.64
20887,-11.19
20899,-8.22
20911,-4.27
20923,0.02
20935,4.15
20947,7.94
20959,11.41
20971,14.65
20982,17.68
20993,20.37
