seconds,BVP
1,15.84
12,16.34
23,16.32
35,15.74
47,14.64
59,13.13
71,11.39
83,9.54
95,7.65
107,5.77
119,3.9
131,2.02
143,0.19
155,-1.56
167,-3.16
179,-4.57
191,-5.8
202,-6.88
213,-7.86
225,-8.78
237,-9.64
249,-10.39
261,-10.97
273,-11.35
285,-11.47
297,-11.28
309,-10.77
321,-9.93
333,-8.76
345,-7.33
357,-5.71
369,-3.99
381,-2.25
392,-0.58
403,0.99
415,2.38
427,3.57
439,4.51
451,5.16
463,5.51
475,5.56
487,5.44
499,5.24
511,5.1
523,5.04
535,4.98
547,4.84
559,4.51
571,3.99
582,3.38
593,2.88
605,2.62
617,2.62
629,2.75
641,2.85
653,2.71
665,2.26
677,1.53
689,0.7
701,-0.09
713,-0.71
725,-1.11
737,-1.34
749,-1.49
761,-1.61
772,-1.76
783,-1.93
795,-2.1
807,-2.3
819,-2.58
831,-3.0
843,-3.59
855,-4.35
867,-5.16
879,-5.96
891,-6.7
903,-7.43
915,-8.25
927,-9.24
939,-10.31
951,-11.19
962,-11.57
973,-11.17
985,-9.96
997,-8.12
1009,-6.0
1021,-3.94
1033,-2.15
1045,-0.69
1057,0.57
1069,1.75
1081,2.93
1093,4.04
1105,4.94
1117,5.53
1129,5.73
1141,5.63
1152,5.35
1163,5.01
1175,4.71
1187,4.46
1199,4.24
1211,4.01
1223,3.83
1235,3.77
1247,3.91
1259,4.21
1271,4.57
1283,4.83
1295,4.87
1307,4.66
1319,4.23
1331,3.72
1342,3.24
1353,2.92
1365,2.81
1377,2.89
1389,3.11
1401,3.39
1413,3.66
1425,3.8
1437,3.73
1449,3.38
1461,2.73
1473,1.81
1485,0.68
1497,-0.54
1509,-1.71
1521,-2.72
1532,-3.56
1543,-4.27
1555,-4.98
1567,-5.76
1579,-6.6
1591,-7.48
1603,-8.33
1615,-9.1
1627,-9.7
1639,-10.12
1651,-10.23
1663,-9.94
1675,-9.16
1687,-7.88
1699,-6.24
1711,-4.43
1722,-2.67
1733,-1.05
1745,0.43
1757,1.8
1769,3.07
1781,4.11
1793,4.79
1805,5.05
1817,4.97
1829,4.74
1841,4.56
1853,4.58
1865,4.75
1877,4.92
1889,4.96
1901,4.82
1912,4.58
1923,4.36
1935,4.21
1947,4.11
1959,3.98
1971,3.74
1983,3.39
1995,3.06
2007,2.88
2019,2.95
2031,3.26
2043,3.69
2055,4.08
2067,4.32
2079,4.39
2091,4.36
2102,4.36
2113,4.46
2125,4.66
2137,4.9
2149,5.02
2161,4.85
2173,4.32
2185,3.37
2197,2.04
2209,0.45
2221,-1.3
2233,-3.05
2245,-4.63
2257,-5.96
2269,-6.97
2281,-7.69
2292,-8.2
2303,-8.55
2315,-8.72
2327,-8.66
2339,-8.27
2351,-7.44
2363,-6.26
2375,-4.84
2387,-3.44
2399,-2.24
2411,-1.34
2423,-0.73
2435,-0.32
2447,-0.01
2459,0.27
2471,0.52
2482,0.78
2493,1.03
2505,1.26
2517,1.45
2529,1.6
2541,1.74
2553,1.95
2565,2.34
2577,2.93
2589,3.68
2601,4.47
2613,5.16
2625,5.66
2637,5.97
2649,6.15
2661,6.23
2672,6.25
2683,6.16
2695,5.93
2707,5.54
2719,5.01
2731,4.4
2743,3.71
2755,3.01
2767,2.31
2779,1.66
2791,1.09
2803,0.56
2815,0.08
2827,-0.37
2839,-0.76
2851,-1.04
2862,-1.24
2873,-1.41
2885,-1.66
2897,-2.13
2909,-2.89
2921,-3.89
2933,-5.05
2945,-6.26
2957,-7.41
2969,-8.48
2981,-9.39
2993,-10.08
3005,-10.44
3017,-10.4
3029,-9.89
3041,-8.95
3052,-7.72
3063,-6.33
3075,-4.89
3087,-3.51
3099,-2.25
3111,-1.19
3123,-0.38
3135,0.1
3147,0.31
3159,0.32
3171,0.3
3183,0.41
3195,0.81
3207,1.52
3219,2.5
3231,3.62
3242,4.74
3253,5.77
3265,6.61
3277,7.24
3289,7.66
3301,7.87
3313,7.91
3325,7.88
3337,7.85
3349,7.92
3361,8.08
3373,8.23
3385,8.24
3397,7.98
3409,7.43
3421,6.71
3432,6.02
3443,5.48
3455,5.13
3467,4.87
3479,4.53
3491,4.04
3503,3.38
3515,2.63
3527,1.89
3539,1.2
3551,0.52
3563,-0.17
3575,-0.87
3587,-1.51
3599,-2.05
3611,-2.48
3622,-2.86
3633,-3.25
3645,-3.69
3657,-4.18
3669,-4.67
3681,-5.1
3693,-5.48
3705,-5.81
3717,-6.18
3729,-6.62
3741,-7.1
3753,-7.55
3765,-7.76
3777,-7.57
3789,-6.84
3801,-5.6
3812,-4.01
3823,-2.39
3835,-1.03
3847,-0.07
3859,0.5
3871,0.88
3883,1.2
3895,1.53
3907,1.77
3919,1.84
3931,1.7
3943,1.44
3955,1.26
3967,1.31
3979,1.61
3991,2.02
4002,2.4
4013,2.58
4025,2.58
4037,2.48
4049,2.49
4061,2.71
4073,3.14
4085,3.68
4097,4.16
4109,4.53
4121,4.78
4133,4.96
4145,5.16
4157,5.41
4169,5.68
4181,5.82
4192,5.7
4203,5.24
4215,4.48
4227,3.57
4239,2.65
4251,1.89
4263,1.3
4275,0.91
4287,0.62
4299,0.36
4311,0.05
4323,-0.34
4335,-0.81
4347,-1.3
4359,-1.7
4371,-1.93
4382,-1.96
4393,-1.87
4405,-1.77
4417,-1.84
4429,-2.17
4441,-2.82
4453,-3.79
4465,-5.05
4477,-6.54
4489,-8.11
4501,-9.56
4513,-10.58
4525,-10.9
4537,-10.36
4549,-9.01
4561,-7.05
4572,-4.76
4583,-2.42
4595,-0.24
4607,1.68
4619,3.32
4631,4.65
4643,5.63
4655,6.22
4667,6.41
4679,6.25
4691,5.81
4703,5.21
4715,4.57
4727,4.06
4739,3.78
4751,3.78
4762,4.06
4773,4.51
4785,4.97
4797,5.3
4809,5.37
4821,5.17
4833,4.66
4845,3.92
4857,2.98
4869,1.93
4881,0.87
4893,-0.09
4905,-0.81
4917,-1.24
4929,-1.4
4941,-1.4
4952,-1.36
4963,-1.4
4975,-1.57
4987,-1.84
4999,-2.17
5011,-2.52
5023,-2.83
5035,-3.1
5047,-3.31
5059,-3.48
5071,-3.64
5083,-3.8
5095,-4.01
5107,-4.33
5119,-4.72
5131,-5.12
5142,-5.49
5153,-5.74
5165,-5.89
5177,-6.0
5189,-6.09
5201,-6.13
5213,-6.03
5225,-5.67
5237,-4.98
5249,-3.96
5261,-2.67
5273,-1.22
5285,0.32
5297,1.95
5309,3.67
5321,5.43
5332,7.15
5343,8.69
5355,9.96
5367,10.89
5379,11.49
5391,11.77
5403,11.81
5415,11.67
5427,11.45
5439,11.35
5451,11.5
5463,12.02
5475,12.88
5487,13.95
5499,15.0
5511,15.84
5522,16.33
5533,16.44
5545,16.27
5557,15.89
5569,15.31
5581,14.51
5593,13.46
5605,12.15
5617,10.67
5629,9.17
5641,7.81
5653,6.73
5665,5.95
5677,5.45
5689,5.19
5701,5.09
5712,5.09
5723,5.12
5735,5.06
5747,4.72
5759,3.98
5771,2.73
5783,1.01
5795,-1.0
5807,-3.11
5819,-5.1
5831,-6.76
5843,-7.96
5855,-8.62
5867,-8.74
5879,-8.43
5891,-7.82
5902,-7.04
5913,-6.24
5925,-5.49
5937,-4.83
5949,-4.28
5961,-3.86
5973,-3.61
5985,-3.59
5997,-3.77
6009,-4.14
6021,-4.65
6033,-5.21
6045,-5.76
6057,-6.21
6069,-6.43
6081,-6.34
6092,-5.94
6103,-5.32
6115,-4.63
6127,-4.07
6139,-3.73
6151,-3.62
6163,-3.67
6175,-3.74
6187,-3.74
6199,-3.72
6211,-3.76
6223,-3.92
6235,-4.2
6247,-4.5
6259,-4.7
6271,-4.75
6282,-4.65
6293,-4.43
6305,-4.19
6317,-3.96
6329,-3.77
6341,-3.61
6353,-3.51
6365,-3.57
6377,-3.9
6389,-4.55
6401,-5.47
6413,-6.51
6425,-7.38
6437,-7.82
6449,-7.63
6461,-6.78
6472,-5.39
6483,-3.7
6495,-2.03
6507,-0.59
6519,0.49
6531,1.24
6543,1.74
6555,2.08
6567,2.34
6579,2.54
6591,2.61
6603,2.54
6615,2.36
6627,2.17
6639,2.08
6651,2.18
6662,2.47
6673,2.84
6685,3.17
6697,3.3
6709,3.23
6721,3.09
6733,3.01
6745,3.1
6757,3.25
6769,3.33
6781,3.15
6793,2.66
6805,1.95
6817,1.26
6829,0.87
6841,0.92
6852,1.4
6863,2.02
6875,2.45
6887,2.38
6899,1.7
6911,0.5
6923,-0.98
6935,-2.47
6947,-3.8
6959,-4.95
6971,-5.96
6983,-6.85
6995,-7.6
7007,-8.06
7019,-8.09
7031,-7.65
7042,-6.83
7053,-5.89
7065,-5.02
7077,-4.32
7089,-3.78
7101,-3.24
7113,-2.56
7125,-1.66
7137,-0.6
7149,0.5
7161,1.5
7173,2.35
7185,3.1
7197,3.8
7209,4.48
7221,5.17
7232,5.82
7243,6.36
7255,6.8
7267,7.18
7279,7.58
7291,7.98
7303,8.31
7315,8.49
7327,8.47
7339,8.3
7351,8.08
7363,7.91
7375,7.87
7387,7.92
7399,7.97
7411,7.89
7422,7.56
7433,6.9
7445,5.95
7457,4.75
7469,3.44
7481,2.1
7493,0.8
7505,-0.42
7517,-1.59
7529,-2.69
7541,-3.72
7553,-4.62
7565,-5.29
7577,-5.7
7589,-5.89
7601,-5.98
7612,-6.09
7623,-6.26
7635,-6.45
7647,-6.6
7659,-6.61
7671,-6.47
7683,-6.2
7695,-5.88
7707,-5.54
7719,-5.18
7731,-4.8
7743,-4.41
7755,-4.03
7767,-3.7
7779,-3.41
7791,-3.08
7802,-2.62
7813,-1.96
7825,-1.09
7837,-0.07
7849,1.0
7861,2.0
7873,2.91
7885,3.67
7897,4.27
7909,4.68
7921,4.82
7933,4.68
7945,4.29
7957,3.76
7969,3.22
7981,2.83
7992,2.67
8003,2.7
8015,2.81
8027,2.85
8039,2.72
8051,2.4
8063,1.97
8075,1.5
8087,1.07
8099,0.78
8111,0.66
8123,0.8
8135,1.22
8147,1.92
8159,2.83
8171,3.9
8182,5.05
8193,6.24
8205,7.44
8217,8.54
8229,9.43
8241,9.93
8253,9.95
8265,9.49
8277,8.66
8289,7.58
8301,6.32
8313,4.89
8325,3.26
8337,1.5
8349,-0.24
8361,-1.7
8372,-2.67
8383,-3.06
8395,-2.98
8407,-2.65
8419,-2.33
8431,-2.2
8443,-2.34
8455,-2.73
8467,-3.31
8479,-4.07
8491,-5.0
8503,-6.08
8515,-7.21
8527,-8.17
8539,-8.74
8551,-8.74
8562,-8.15
8573,-7.09
8585,-5.79
8597,-4.47
8609,-3.28
8621,-2.29
8633,-1.49
8645,-0.85
8657,-0.33
8669,0.1
8681,0.46
8693,0.77
8705,1.02
8717,1.2
8729,1.29
8741,1.27
8752,1.2
8763,1.16
8775,1.23
8787,1.47
8799,1.87
8811,2.33
8823,2.68
8835,2.78
8847,2.58
8859,2.15
8871,1.64
8883,1.26
8895,1.11
8907,1.19
8919,1.36
8931,1.54
8942,1.69
8953,1.87
8965,2.16
8977,2.56
8989,2.98
9001,3.25
9013,3.23
9025,2.86
9037,2.23
9049,1.54
9061,0.95
9073,0.51
9085,0.18
9097,-0.14
9109,-0.54
9121,-1.02
9132,-1.47
9143,-1.75
9155,-1.79
9167,-1.6
9179,-1.32
9191,-1.13
9203,-1.18
9215,-1.57
9227,-2.27
9239,-3.24
9251,-4.41
9263,-5.73
9275,-7.17
9287,-8.66
9299,-10.09
9311,-11.38
9322,-12.45
9333,-13.23
9345,-13.66
9357,-13.69
9369,-13.26
9381,-12.36
9393,-11.08
9405,-9.57
9417,-8.03
9429,-6.6
9441,-5.33
9453,-4.2
9465,-3.23
9477,-2.43
9489,-1.82
9501,-1.47
9512,-1.33
9523,-1.26
9535,-1.12
9547,-0.8
9559,-0.27
9571,0.36
9583,0.96
9595,1.45
9607,1.79
9619,2.04
9631,2.3
9643,2.59
9655,2.94
9667,3.29
9679,3.61
9691,3.9
9702,4.18
9713,4.47
9725,4.71
9737,4.85
9749,4.74
9761,4.37
9773,3.78
9785,3.08
9797,2.47
9809,2.04
9821,1.75
9833,1.57
9845,1.37
9857,1.08
9869,0.74
9881,0.4
9892,0.12
9903,-0.07
9915,-0.2
9927,-0.31
9939,-0.36
9951,-0.3
9963,-0.07
9975,0.35
9987,0.9
9999,1.44
10011,1.83
10023,2.01
10035,1.95
10047,1.73
10059,1.42
10071,1.07
10082,0.69
10093,0.28
10105,-0.13
10117,-0.53
10129,-0.89
10141,-1.23
10153,-1.51
10165,-1.73
10177,-1.77
10189,-1.46
10201,-0.74
10213,0.31
10225,1.48
10237,2.49
10249,3.15
10261,3.51
10272,3.69
10283,3.89
10295,4.23
10307,4.7
10319,5.24
10331,5.76
10343,6.23
10355,6.63
10367,6.94
10379,7.14
10391,7.17
10403,7.1
10415,6.95
10427,6.86
10439,6.91
10451,7.16
10462,7.56
10473,8.0
10485,8.28
10497,8.2
10509,7.58
10521,6.42
10533,4.88
10545,3.27
10557,1.93
10569,1.07
10581,0.72
10593,0.67
10605,0.64
10617,0.41
10629,-0.12
10641,-0.87
10652,-1.64
10663,-2.29
10675,-2.81
10687,-3.24
10699,-3.77
10711,-4.52
10723,-5.52
10735,-6.67
10747,-7.79
10759,-8.72
10771,-9.34
10783,-9.68
10795,-9.81
10807,-9.84
10819,-9.79
10831,-9.6
10842,-9.2
10853,-8.55
10865,-7.71
10877,-6.79
10889,-5.9
10901,-5.08
10913,-4.32
10925,-3.54
10937,-2.69
10949,-1.81
10961,-0.92
10973,-0.11
10985,0.56
10997,1.08
11009,1.47
11021,1.75
11032,1.91
11043,1.93
11055,1.79
11067,1.51
11079,1.14
11091,0.76
11103,0.39
11115,0.06
11127,-0.22
11139,-0.47
11151,-0.63
11163,-0.62
11175,-0.41
11187,0.0
11199,0.48
11211,0.85
11222,0.99
11233,0.87
11245,0.59
11257,0.28
11269,0.09
11281,0.08
11293,0.26
11305,0.54
11317,0.79
11329,0.9
11341,0.8
11353,0.5
11365,0.1
11377,-0.24
11389,-0.37
11401,-0.22
11412,0.16
11423,0.63
11435,0.97
11447,1.02
11459,0.76
11471,0.26
11483,-0.37
11495,-1.07
11507,-1.85
11519,-2.79
11531,-3.96
11543,-5.34
11555,-6.83
11567,-8.22
11579,-9.31
11591,-9.9
11602,-9.94
11613,-9.47
11625,-8.6
11637,-7.46
11649,-6.16
11661,-4.79
11673,-3.44
11685,-2.22
11697,-1.27
11709,-0.7
11721,-0.54
11733,-0.72
11745,-1.01
11757,-1.19
11769,-1.0
11781,-0.37
11792,0.61
11803,1.72
11815,2.66
11827,3.23
11839,3.34
11851,3.04
11863,2.42
11875,1.69
11887,1.05
11899,0.64
11911,0.59
11923,0.86
11935,1.35
11947,1.84
11959,2.12
11971,2.06
11982,1.73
11993,1.33
12005,1.07
12017,1.08
12029,1.32
12041,1.59
12053,1.67
12065,1.42
12077,0.83
12089,0.02
12101,-0.86
12113,-1.7
12125,-2.47
12137,-3.19
12149,-3.88
12161,-4.56
12172,-5.25
12183,-5.94
12195,-6.64
12207,-7.32
12219,-8.01
12231,-8.67
12243,-9.31
12255,-9.89
12267,-10.29
12279,-10.44
12291,-10.22
12303,-9.62
12315,-8.72
12327,-7.69
12339,-6.73
12351,-5.97
12362,-5.47
12373,-5.16
12385,-4.92
12397,-4.64
12409,-4.25
12421,-3.69
12433,-2.98
12445,-2.12
12457,-1.15
12469,-0.09
12481,1.02
12493,2.17
12505,3.33
12517,4.52
12529,5.73
12541,6.91
12552,7.98
12563,8.84
12575,9.39
12587,9.63
12599,9.64
12611,9.51
12623,9.31
12635,9.08
12647,8.79
12659,8.44
12671,8.06
12683,7.76
12695,7.65
12707,7.73
12719,7.88
12731,7.89
12742,7.6
12753,6.93
12765,6.04
12777,5.16
12789,4.48
12801,4.11
12813,3.95
12825,3.81
12837,3.54
12849,3.14
12861,2.69
12873,2.36
12885,2.27
12897,2.4
12909,2.66
12921,2.91
12932,3.03
12943,2.95
12955,2.64
12967,2.11
12979,1.4
12991,0.61
13003,-0.18
13015,-0.81
13027,-1.18
13039,-1.23
13051,-1.06
13063,-0.79
13075,-0.57
13087,-0.4
13099,-0.21
13111,0.13
13122,0.76
13133,1.69
13145,2.75
13157,3.72
13169,4.37
13181,4.59
13193,4.42
13205,4.02
13217,3.53
13229,3.16
13241,2.99
13253,3.02
13265,3.23
13277,3.49
13289,3.71
13301,3.81
13312,3.77
13323,3.6
13335,3.37
13347,3.14
13359,2.98
13371,2.93
13383,2.93
13395,2.98
13407,3.03
13419,3.02
13431,2.91
13443,2.67
13455,2.24
13467,1.69
13479,1.12
13491,0.6
13502,0.23
13513,0.02
13525,-0.04
13537,-0.02
13549,-0.02
13561,-0.12
13573,-0.41
13585,-0.93
13597,-1.72
13609,-2.72
13621,-3.87
13633,-5.08
13645,-6.28
13657,-7.45
13669,-8.56
13681,-9.6
13692,-10.49
13703,-11.07
13715,-11.17
13727,-10.65
13739,-9.48
13751,-7.78
13763,-5.77
13775,-3.77
13787,-2.07
13799,-0.86
13811,-0.19
13823,0.07
13835,0.05
13847,-0.07
13859,-0.12
13871,-0.03
13882,0.28
13893,0.82
13905,1.52
13917,2.35
13929,3.2
13941,4.0
13953,4.67
13965,5.18
13977,5.54
13989,5.78
14001,5.94
14013,6.08
14025,6.23
14037,6.37
14049,6.45
14061,6.45
14072,6.42
14083,6.46
14095,6.71
14107,7.25
14119,8.02
14131,8.79
14143,9.3
14155,9.4
14167,9.17
14179,8.89
14191,8.89
14203,9.37
14215,10.21
14227,10.98
14239,11.15
14251,10.28
14262,8.26
14273,5.31
14285,1.83
14297,-1.74
14309,-5.15
14321,-8.32
14333,-11.34
14345,-14.25
14357,-16.99
14369,-19.42
14381,-21.42
14393,-22.97
14405,-24.14
14417,-25.0
14429,-25.54
14441,-25.63
14452,-25.15
14463,-24.01
14475,-22.32
14487,-20.31
14499,-18.28
14511,-16.35
14523,-14.54
14535,-12.68
14547,-10.66
14559,-8.46
14571,-6.19
14583,-4.08
14595,-2.29
14607,-0.88
14619,0.27
14631,1.3
14642,2.34
14653,3.4
14665,4.35
14677,5.02
14689,5.36
14701,5.45
14713,5.51
14725,5.75
14737,6.26
14749,6.99
14761,7.77
14773,8.38
14785,8.68
14797,8.62
14809,8.2
14821,7.45
14832,6.39
14843,5.11
14855,3.69
14867,2.33
14879,1.17
14891,0.34
14903,-0.13
14915,-0.29
14927,-0.27
14939,-0.21
14951,-0.19
14963,-0.25
14975,-0.3
14987,-0.25
14999,-0.01
15011,0.45
15022,1.06
15033,1.69
15045,2.14
15057,2.25
15069,1.92
15081,1.17
15093,0.1
15105,-1.19
15117,-2.56
15129,-3.85
15141,-4.9
15153,-5.56
15165,-5.73
15177,-5.36
15189,-4.49
15201,-3.3
15212,-2.02
15223,-0.83
15235,0.13
15247,0.97
15259,1.8
15271,2.83
15283,4.13
15295,5.65
15307,7.2
15319,8.59
15331,9.67
15343,10.39
15355,10.74
15367,10.77
15379,10.49
15391,9.99
15402,9.31
15413,8.56
15425,7.88
15437,7.38
15449,7.12
15461,7.09
15473,7.24
15485,7.47
15497,7.7
15509,7.81
15521,7.76
15533,7.52
15545,7.11
15557,6.6
15569,6.07
15581,5.61
15592,5.24
15603,4.95
15615,4.68
15627,4.4
15639,4.09
15651,3.7
15663,3.2
15675,2.55
15687,1.71
15699,0.71
15711,-0.39
15723,-1.5
15735,-2.54
15747,-3.47
15759,-4.3
15771,-5.1
15782,-5.9
15793,-6.69
15805,-7.41
15817,-7.96
15829,-8.24
15841,-8.19
15853,-7.81
15865,-7.14
15877,-6.27
15889,-5.31
15901,-4.34
15913,-3.44
15925,-2.63
15937,-1.96
15949,-1.45
15961,-1.13
15972,-1.01
15983,-1.04
15995,-1.17
16007,-1.3
16019,-1.35
16031,-1.29
16043,-1.06
16055,-0.65
16067,-0.06
16079,0.68
16091,1.47
16103,2.23
16115,2.87
16127,3.38
16139,3.77
16151,4.1
16162,4.35
16173,4.49
16185,4.39
16197,3.97
16209,3.2
16221,2.16
16233,0.95
16245,-0.28
16257,-1.37
16269,-2.23
16281,-2.76
16293,-2.97
16305,-2.92
16317,-2.7
16329,-2.45
16341,-2.25
16352,-2.14
16363,-2.11
16375,-2.1
16387,-2.02
16399,-1.89
16411,-1.77
16423,-1.72
16435,-1.84
16447,-2.16
16459,-2.68
16471,-3.38
16483,-4.19
16495,-5.05
16507,-5.89
16519,-6.67
16531,-7.35
16542,-7.89
16553,-8.24
16565,-8.32
16577,-8.07
16589,-7.48
16601,-6.59
16613,-5.54
16625,-4.51
16637,-3.63
16649,-3.0
16661,-2.54
16673,-2.17
16685,-1.75
16697,-1.22
16709,-0.61
16721,0.03
16732,0.6
16743,1.07
16755,1.4
16767,1.66
16779,1.88
16791,2.07
16803,2.22
16815,2.23
16827,2.05
16839,1.68
16851,1.19
16863,0.68
16875,0.27
16887,-0.03
16899,-0.29
16911,-0.58
16922,-0.98
16933,-1.47
16945,-1.92
16957,-2.21
16969,-2.29
16981,-2.2
16993,-2.08
17005,-2.06
17017,-2.22
17029,-2.5
17041,-2.82
17053,-3.05
17065,-3.16
17077,-3.21
17089,-3.32
17101,-3.63
17112,-4.25
17123,-5.15
17135,-6.25
17147,-7.42
17159,-8.55
17171,-9.59
17183,-10.49
17195,-11.27
17207,-11.91
17219,-12.36
17231,-12.57
17243,-12.52
17255,-12.2
17267,-11.63
17279,-10.86
17291,-9.9
17302,-8.77
17313,-7.56
17325,-6.39
17337,-5.37
17349,-4.6
17361,-4.11
17373,-3.8
17385,-3.55
17397,-3.22
17409,-2.72
17421,-2.01
17433,-1.19
17445,-0.39
17457,0.19
17469,0.47
17481,0.48
17492,0.37
17503,0.4
17515,0.76
17527,1.5
17539,2.48
17551,3.45
17563,4.19
17575,4.63
17587,4.81
17599,4.84
17611,4.83
17623,4.82
17635,4.8
17647,4.81
17659,4.89
17671,5.13
17682,5.56
17693,6.25
17705,7.13
17717,8.14
17729,9.18
17741,10.09
17753,10.7
17765,10.88
17777,10.6
17789,9.96
17801,9.18
17813,8.49
17825,8.0
17837,7.71
17849,7.5
17861,7.26
17872,6.94
17883,6.55
17895,6.13
17907,5.74
17919,5.31
17931,4.75
17943,3.97
17955,2.95
17967,1.83
17979,0.77
17991,-0.05
18003,-0.56
18015,-0.81
18027,-0.95
18039,-1.07
18051,-1.2
18062,-1.28
18073,-1.21
18085,-0.97
18097,-0.58
18109,-0.16
18121,0.27
18133,0.68
18145,1.13
18157,1.68
18169,2.27
18181,2.81
18193,3.19
18205,3.38
18217,3.4
18229,3.36
18241,3.34
18252,3.42
18263,3.62
18275,3.85
18287,4.03
18299,4.02
18311,3.78
18323,3.32
18335,2.75
18347,2.2
18359,1.81
18371,1.62
18383,1.55
18395,1.47
18407,1.26
18419,0.86
18431,0.31
18442,-0.28
18453,-0.86
18465,-1.42
18477,-2.0
18489,-2.67
18501,-3.41
18513,-4.19
18525,-4.89
18537,-5.47
18549,-5.87
18561,-6.16
18573,-6.44
18585,-6.78
18597,-7.17
18609,-7.5
18621,-7.69
18632,-7.67
18643,-7.46
18655,-7.09
18667,-6.59
18679,-6.02
18691,-5.39
18703,-4.76
18715,-4.14
18727,-3.5
18739,-2.76
18751,-1.78
18763,-0.52
18775,0.94
18787,2.42
18799,3.68
18811,4.51
18822,4.86
18833,4.84
18845,4.62
18857,4.29
18869,3.87
18881,3.29
18893,2.54
18905,1.74
18917,1.06
18929,0.66
18941,0.62
18953,0.85
18965,1.18
18977,1.44
18989,1.59
19001,1.62
19012,1.65
19023,1.71
19035,1.79
19047,1.85
19059,1.76
19071,1.44
19083,0.9
19095,0.17
19107,-0.65
19119,-1.42
19131,-2.07
19143,-2.55
19155,-2.89
19167,-3.21
19179,-3.61
19191,-4.11
19202,-4.66
19213,-5.16
19225,-5.49
19237,-5.64
19249,-5.67
19261,-5.67
19273,-5.76
19285,-5.92
19297,-6.05
19309,-6.01
19321,-5.76
19333,-5.29
19345,-4.71
19357,-4.12
19369,-3.58
19381,-3.07
19392,-2.53
19403,-1.93
19415,-1.33
19427,-0.81
19439,-0.47
19451,-0.32
19463,-0.29
19475,-0.26
19487,-0.08
19499,0.35
19511,1.04
19523,1.9
19535,2.8
19547,3.59
19559,4.18
19571,4.55
19582,4.77
19593,4.87
19605,4.9
19617,4.82
19629,4.54
19641,4.02
19653,3.26
19665,2.33
19677,1.28
19689,0.24
19701,-0.76
19713,-1.65
19725,-2.41
19737,-2.99
19749,-3.34
19761,-3.4
19772,-3.19
19783,-2.75
19795,-2.17
19807,-1.53
19819,-0.94
19831,-0.49
19843,-0.34
19855,-0.61
19867,-1.42
19879,-2.8
19891,-4.61
19903,-6.62
19915,-8.54
19927,-10.13
19939,-11.34
19951,-12.24
19962,-12.95
19973,-13.51
19985,-13.86
19997,-13.84
20009,-13.36
20021,-12.45
20033,-11.26
20045,-10.0
20057,-8.87
20069,-7.86
20081,-6.93
20093,-5.96
20105,-4.92
20117,-3.86
20129,-2.82
20141,-1.78
20152,-0.69
20163,0.5
20175,1.79
20187,3.06
20199,4.17
20211,4.99
20223,5.44
20235,5.59
20247,5.59
20259,5.55
20271,5.53
20283,5.56
20295,5.54
20307,5.46
20319,5.32
20331,5.16
20342,5.01
20353,4.94
20365,4.93
20377,4.98
20389,5.14
20401,5.42
20413,5.83
20425,6.35
20437,6.86
20449,7.25
20461,7.4
20473,7.27
20485,6.92
20497,6.47
20509,6.06
20521,5.8
20532,5.76
20543,5.84
20555,5.89
20567,5.76
20579,5.3
20591,4.59
20603,3.76
20615,2.99
20627,2.41
20639,2.04
20651,1.83
20663,1.74
20675,1.8
20687,2.08
20699,2.63
20711,3.36
20722,4.02
20733,4.43
20745,4.47
20757,4.23
20769,3.98
20781,3.96
20793,4.26
20805,4.8
20817,5.37
20829,5.71
20841,5.69
20853,5.3
20865,4.69
20877,4.11
20889,3.77
20901,3.77
20912,4.11
20923,4.62
20935,5.07
20947,5.27
20959,5.14
20971,4.78
20983,4.35
20995,4.02
