seconds,BVP
0,30.95
12,29.03
24,26.97
35,24.29
46,20.64
58,16.05
70,10.85
82,5.49
94,0.19
106,-5.05
118,-10.4
130,-15.83
142,-20.91
154,-24.86
166,-26.87
178,-26.5
190,-24.0
202,-20.22
214,-16.29
225,-13.21
236,-11.46
248,-11.04
260,-11.6
272,-12.7
284,-13.98
296,-15.16
308,-16.03
320,-16.43
332,-16.33
344,-15.89
356,-15.43
368,-15.23
380,-15.34
392,-15.45
404,-15.0
415,-13.5
426,-10.79
438,-7.23
450,-3.54
462,-0.4
474,1.9
486,3.6
498,5.28
510,7.46
522,10.37
534,13.74
546,17.1
558,20.04
570,22.44
582,24.37
594,25.93
605,27.1
616,27.79
628,28.0
640,27.95
652,27.97
664,28.2
676,28.43
688,28.07
700,26.56
712,23.64
724,19.55
736,14.89
748,10.26
760,6.0
772,2.1
784,-1.53
795,-4.91
806,-7.93
818,-10.5
830,-12.79
842,-15.33
854,-18.79
866,-23.73
878,-30.44
890,-38.88
902,-48.63
914,-59.01
926,-69.0
938,-77.4
950,-83.01
962,-85.05
974,-83.38
985,-78.61
996,-71.89
1008,-64.46
1020,-57.21
1032,-50.38
1044,-43.63
1056,-36.26
1068,-27.66
1080,-17.68
1092,-6.72
1104,4.3
1116,14.3
1128,22.38
1140,28.15
1152,31.77
1164,33.75
1175,34.68
1186,34.95
1198,34.81
1210,34.4
1222,33.97
1234,33.83
1246,34.23
1258,35.14
1270,36.32
1282,37.37
1294,38.01
1306,38.18
1318,38.04
1330,37.75
1342,37.29
1354,36.42
1365,34.75
1376,31.99
1388,28.08
1400,23.25
1412,17.91
1424,12.53
1436,7.49
1448,3.02
1460,-0.76
1472,-3.86
1484,-6.37
1496,-8.41
1508,-10.18
1520,-11.95
1532,-13.99
1544,-16.5
1555,-19.44
1566,-22.55
1578,-25.32
1590,-27.28
1602,-28.13
1614,-27.89
1626,-26.83
1638,-25.39
1650,-23.84
1662,-22.25
1674,-20.45
1686,-18.25
1698,-15.59
1710,-12.58
1722,-9.5
1734,-6.61
1745,-4.05
1756,-1.83
1768,0.11
1780,1.8
1792,3.28
1804,4.54
1816,5.65
1828,6.69
1840,7.76
1852,8.93
1864,10.2
1876,11.47
1888,12.62
1900,13.5
1912,14.01
1924,14.03
1935,13.5
1946,12.36
1958,10.69
1970,8.63
1982,6.45
1994,4.43
2006,2.85
2018,1.88
2030,1.6
2042,1.96
2054,2.87
2066,4.12
2078,5.49
2090,6.68
2102,7.4
2114,7.46
2125,6.76
2136,5.41
2148,3.66
2160,1.83
2172,0.18
2184,-1.16
2196,-2.21
2208,-3.1
2220,-3.96
2232,-4.92
2244,-6.02
2256,-7.21
2268,-8.38
2280,-9.35
2292,-9.96
2304,-10.12
2315,-9.87
2326,-9.36
2338,-8.78
2350,-8.27
2362,-7.79
2374,-7.15
2386,-6.11
2398,-4.57
2410,-2.65
2422,-0.66
2434,1.05
2446,2.26
2458,2.99
2470,3.42
2482,3.79
2494,4.21
2505,4.61
2516,4.8
2528,4.6
2540,3.99
2552,3.15
2564,2.38
2576,1.96
2588,2.01
2600,2.39
2612,2.81
2624,2.91
2636,2.49
2648,1.55
2660,0.33
2672,-0.88
2684,-1.81
2695,-2.39
2706,-2.76
2718,-3.11
2730,-3.62
2742,-4.32
2754,-5.1
2766,-5.77
2778,-6.2
2790,-6.36
2802,-6.34
2814,-6.31
2826,-6.43
2838,-6.8
2850,-7.4
2862,-8.13
2874,-8.8
2885,-9.23
2896,-9.23
2908,-8.68
2920,-7.5
2932,-5.69
2944,-3.35
2956,-0.64
2968,2.18
2980,4.82
2992,6.99
3004,8.53
3016,9.4
3028,9.72
3040,9.67
3052,9.43
3064,9.12
3075,8.81
3086,8.58
3098,8.52
3110,8.69
3122,9.11
3134,9.62
3146,9.99
3158,10.0
3170,9.57
3182,8.85
3194,8.11
3206,7.62
3218,7.47
3230,7.55
3242,7.59
3254,7.34
3265,6.68
3276,5.68
3288,4.52
3300,3.44
3312,2.56
3324,1.89
3336,1.38
3348,0.93
3360,0.49
3372,0.07
3384,-0.25
3396,-0.43
3408,-0.44
3420,-0.36
3432,-0.38
3444,-0.66
3455,-1.26
3466,-2.04
3478,-2.64
3490,-2.64
3502,-1.74
3514,0.12
3526,2.72
3538,5.61
3550,8.39
3562,10.79
3574,12.81
3586,14.67
3598,16.64
3610,18.96
3622,21.67
3634,24.6
3645,27.38
3656,29.64
3668,31.08
3680,31.68
3692,31.69
3704,31.55
3716,31.77
3728,32.73
3740,34.49
3752,36.8
3764,39.12
3776,40.73
3788,40.94
3800,39.36
3812,36.27
3824,32.61
3835,29.71
3846,28.58
3858,29.18
3870,30.08
3882,28.89
3894,23.44
3906,13.06
3918,-0.86
3930,-15.38
3942,-27.3
3954,-34.61
3966,-37.1
3978,-36.29
3990,-34.61
4002,-34.79
4014,-39.28
4025,-49.92
4036,-67.31
4048,-89.99
4060,-114.03
4072,-133.76
4084,-143.47
4096,-139.75
4108,-123.29
4120,-98.77
4132,-72.99
4144,-52.17
4156,-39.64
4168,-35.23
4180,-36.14
4192,-38.71
4204,-40.02
4215,-38.64
4226,-34.43
4238,-27.91
4250,-19.73
4262,-10.66
4274,-1.75
4286,5.59
4298,10.01
4310,10.95
4322,9.32
4334,7.5
4346,8.58
4358,14.99
4370,27.23
4382,43.45
4394,60.17
4405,73.73
4416,81.77
4428,83.98
4440,81.76
4452,77.08
4464,71.48
4476,65.64
4488,59.64
4500,53.52
4512,47.7
4524,42.82
4536,39.29
4548,36.83
4560,34.57
4572,31.48
4584,27.13
4595,21.93
4606,16.87
4618,12.88
4630,10.18
4642,8.13
4654,5.7
4666,2.11
4678,-2.56
4690,-7.38
4702,-11.07
4714,-12.62
4726,-11.86
4738,-9.41
4750,-6.33
4762,-3.52
4774,-1.35
4785,0.45
4796,2.43
4808,4.99
4820,8.01
4832,10.84
4844,12.65
4856,12.8
4868,11.21
4880,8.41
4892,5.26
4904,2.52
4916,0.58
4928,-0.57
4940,-1.16
4952,-1.34
4964,-1.04
4975,-0.16
4986,1.14
4998,2.33
5010,2.55
5022,1.13
5034,-2.02
5046,-6.23
5058,-10.28
5070,-13.03
5082,-14.0
5094,-13.57
5106,-12.87
5118,-13.09
5130,-14.85
5142,-17.77
5154,-20.55
5165,-21.57
5176,-19.83
5188,-15.57
5200,-10.28
5212,-5.89
5224,-3.69
5236,-3.55
5248,-4.04
5260,-3.25
5272,-0.09
5284,5.05
5296,10.42
5308,13.98
5320,14.59
5332,12.6
5344,9.54
5355,7.12
5366,6.29
5378,6.75
5390,7.32
5402,6.67
5414,4.1
5426,-0.26
5438,-5.57
5450,-10.68
5462,-14.65
5474,-16.99
5486,-17.79
5498,-17.51
5510,-16.78
5522,-16.12
5534,-15.77
5545,-15.7
5556,-15.69
5568,-15.56
5580,-15.27
5592,-14.98
5604,-14.95
5616,-15.34
5628,-16.07
5640,-16.8
5652,-17.12
5664,-16.75
5676,-15.77
5688,-14.6
5700,-13.79
5712,-13.68
5724,-14.19
5735,-14.83
5746,-14.97
5758,-14.25
5770,-12.8
5782,-11.15
5794,-9.95
5806,-9.59
5818,-10.01
5830,-10.79
5842,-11.49
5854,-11.84
5866,-11.85
5878,-11.65
5890,-11.27
5902,-10.63
5914,-9.51
5925,-7.77
5936,-5.53
5948,-3.12
5960,-1.02
5972,0.43
5984,1.14
5996,1.28
6008,1.13
6020,0.9
6032,0.61
6044,0.18
6056,-0.36
6068,-0.66
6080,-0.08
6092,1.95
6104,5.61
6115,10.36
6126,15.24
6138,19.35
6150,22.36
6162,24.78
6174,27.54
6186,31.31
6198,36.0
6210,40.64
6222,43.84
6234,44.52
6246,42.46
6258,38.31
6270,33.26
6282,28.39
6294,24.3
6305,20.97
6316,18.0
6328,14.95
6340,11.64
6352,8.23
6364,5.02
6376,2.31
6388,0.1
6400,-1.88
6412,-4.02
6424,-6.58
6436,-9.52
6448,-12.54
6460,-15.27
6472,-17.54
6484,-19.49
6495,-21.43
6506,-23.56
6518,-25.79
6530,-27.7
6542,-28.8
6554,-28.79
6566,-27.73
6578,-25.92
6590,-23.72
6602,-21.39
6614,-19.03
6626,-16.74
6638,-14.71
6650,-13.2
6662,-12.39
6674,-12.18
6685,-12.18
6696,-11.89
6708,-10.92
6720,-9.29
6732,-7.32
6744,-5.46
6756,-3.97
6768,-2.81
6780,-1.7
6792,-0.33
6804,1.38
6816,3.2
6828,4.75
6840,5.75
6852,6.19
6864,6.34
6875,6.57
6886,7.13
6898,7.95
6910,8.72
6922,8.96
6934,8.33
6946,6.76
6958,4.45
6970,1.85
6982,-0.45
6994,-1.9
7006,-2.17
7018,-1.31
7030,0.21
7042,1.63
7054,2.28
7065,1.94
7076,0.97
7088,0.22
7100,0.54
7112,2.36
7124,5.45
7136,9.05
7148,12.31
7160,14.65
7172,15.97
7184,16.46
7196,16.38
7208,15.84
7220,14.78
7232,13.12
7244,10.95
7255,8.5
7266,6.1
7278,4.06
7290,2.58
7302,1.69
7314,1.29
7326,1.17
7338,1.08
7350,0.74
7362,0.03
7374,-1.02
7386,-2.15
7398,-3.03
7410,-3.35
7422,-2.98
7434,-2.01
7445,-0.65
7456,0.8
7468,2.1
7480,3.06
7492,3.61
7504,3.69
7516,3.34
7528,2.7
7540,1.93
7552,1.23
7564,0.71
7576,0.36
7588,0.07
7600,-0.26
7612,-0.68
7624,-1.09
7635,-1.35
7646,-1.37
7658,-1.21
7670,-1.13
7682,-1.42
7694,-2.23
7706,-3.43
7718,-4.69
7730,-5.61
7742,-5.98
7754,-5.88
7766,-5.62
7778,-5.52
7790,-5.78
7802,-6.36
7814,-7.12
7825,-7.89
7836,-8.62
7848,-9.3
7860,-9.91
7872,-10.31
7884,-10.28
7896,-9.66
7908,-8.4
7920,-6.62
7932,-4.55
7944,-2.42
7956,-0.44
7968,1.26
7980,2.58
7992,3.49
8004,4.06
8015,4.43
8026,4.86
8038,5.57
8050,6.66
8062,8.01
8074,9.35
8086,10.36
8098,10.8
8110,10.61
8122,9.95
8134,9.07
8146,8.2
8158,7.49
8170,7.01
8182,6.8
8194,6.87
8205,7.16
8216,7.55
8228,7.84
8240,7.81
8252,7.27
8264,6.2
8276,4.76
8288,3.2
8300,1.78
8312,0.69
8324,-0.07
8336,-0.58
8348,-0.99
8360,-1.43
8372,-2.0
8384,-2.74
8395,-3.7
8406,-4.87
8418,-6.24
8430,-7.71
8442,-9.12
8454,-10.28
8466,-11.05
8478,-11.4
8490,-11.44
8502,-11.42
8514,-11.57
8526,-11.99
8538,-12.61
8550,-13.18
8562,-13.38
8574,-12.94
8585,-11.74
8596,-9.86
8608,-7.52
8620,-5.0
8632,-2.57
8644,-0.41
8656,1.39
8668,2.83
8680,3.89
8692,4.54
8704,4.75
8716,4.56
8728,4.08
8740,3.49
8752,2.94
8764,2.49
8775,2.05
8786,1.45
8798,0.55
8810,-0.72
8822,-2.29
8834,-3.98
8846,-5.56
8858,-6.83
8870,-7.72
8882,-8.23
8894,-8.5
8906,-8.68
8918,-8.86
8930,-9.04
8942,-9.11
8954,-8.95
8965,-8.53
8976,-7.91
8988,-7.21
9000,-6.46
9012,-5.62
9024,-4.54
9036,-3.14
9048,-1.45
9060,0.31
9072,1.81
9084,2.83
9096,3.34
9108,3.5
9120,3.58
9132,3.8
9144,4.19
9155,4.68
9166,5.12
9178,5.42
9190,5.64
9202,5.93
9214,6.44
9226,7.26
9238,8.35
9250,9.61
9262,10.99
9274,12.56
9286,14.43
9298,16.69
9310,19.24
9322,21.82
9334,24.11
9345,25.85
9356,26.98
9368,27.57
9380,27.74
9392,27.52
9404,26.91
9416,25.89
9428,24.53
9440,22.97
9452,21.41
9464,19.9
9476,18.38
9488,16.72
9500,14.75
9512,12.46
9524,9.95
9535,7.46
9546,5.22
9558,3.36
9570,1.89
9582,0.67
9594,-0.49
9606,-1.73
9618,-3.07
9630,-4.4
9642,-5.55
9654,-6.36
9666,-6.8
9678,-6.9
9690,-6.7
9702,-6.2
9714,-5.36
9725,-4.23
9736,-3.02
9748,-2.11
9760,-1.98
9772,-2.96
9784,-5.15
9796,-8.34
9808,-12.13
9820,-16.09
9832,-19.82
9844,-23.08
9856,-25.71
9868,-27.66
9880,-28.88
9892,-29.39
9904,-29.2
9915,-28.35
9926,-26.88
9938,-24.86
9950,-22.46
9962,-19.77
9974,-16.91
9986,-13.87
9998,-10.61
10010,-7.12
10022,-3.48
10034,0.14
10046,3.47
10058,6.26
10070,8.38
10082,9.81
10094,10.69
10105,11.24
10116,11.69
10128,12.27
10140,13.08
10152,14.11
10164,15.22
10176,16.19
10188,16.78
10200,16.85
10212,16.38
10224,15.47
10236,14.28
10248,12.92
10260,11.4
10272,9.67
10284,7.69
10295,5.47
10306,3.19
10318,1.14
10330,-0.44
10342,-1.44
10354,-2.02
10366,-2.54
10378,-3.42
10390,-4.92
10402,-6.96
10414,-9.16
10426,-11.0
10438,-12.1
10450,-12.34
10462,-11.96
10474,-11.37
10485,-10.97
10496,-11.02
10508,-11.59
10520,-12.68
10532,-14.26
10544,-16.31
10556,-18.69
10568,-21.15
10580,-23.21
10592,-24.36
10604,-24.2
10616,-22.6
10628,-19.73
10640,-15.95
10652,-11.73
10664,-7.42
10675,-3.24
10686,0.7
10698,4.34
10710,7.62
10722,10.48
10734,12.88
10746,14.82
10758,16.32
10770,17.39
10782,18.04
10794,18.23
10806,17.95
10818,17.26
10830,16.26
10842,15.08
10854,13.79
10865,12.42
10876,10.95
10888,9.4
10900,7.88
10912,6.54
10924,5.54
10936,4.94
10948,4.62
10960,4.34
10972,3.86
10984,3.07
10996,1.98
11008,0.78
11020,-0.34
11032,-1.28
11044,-2.03
11055,-2.72
11066,-3.44
11078,-4.22
11090,-5.03
11102,-5.75
11114,-6.34
11126,-6.78
11138,-7.13
11150,-7.44
11162,-7.74
11174,-8.07
11186,-8.46
11198,-8.94
11210,-9.52
11222,-10.2
11234,-10.94
11245,-11.65
11256,-12.22
11268,-12.53
11280,-12.42
11292,-11.73
11304,-10.33
11316,-8.21
11328,-5.48
11340,-2.36
11352,0.88
11364,3.99
11376,6.81
11388,9.27
11400,11.3
11412,12.89
11424,14.05
11435,14.84
11446,15.38
11458,15.78
11470,16.15
11482,16.45
11494,16.61
11506,16.51
11518,16.1
11530,15.44
11542,14.63
11554,13.8
11566,12.97
11578,12.15
11590,11.27
11602,10.37
11614,9.52
11625,8.81
11636,8.26
11648,7.76
11660,7.09
11672,6.02
11684,4.48
11696,2.59
11708,0.62
11720,-1.16
11732,-2.63
11744,-3.88
11756,-5.1
11768,-6.46
11780,-8.0
11792,-9.57
11804,-10.99
11815,-12.09
11826,-12.88
11838,-13.5
11850,-14.13
11862,-14.88
11874,-15.76
11886,-16.66
11898,-17.46
11910,-18.06
11922,-18.43
11934,-18.51
11946,-18.22
11958,-17.42
11970,-16.0
11982,-13.98
11994,-11.46
12005,-8.68
12016,-5.87
12028,-3.19
12040,-0.68
12052,1.7
12064,3.97
12076,6.05
12088,7.8
12100,9.03
12112,9.67
12124,9.8
12136,9.67
12148,9.56
12160,9.65
12172,9.97
12184,10.37
12195,10.65
12206,10.68
12218,10.48
12230,10.18
12242,9.93
12254,9.82
12266,9.86
12278,9.94
12290,9.93
12302,9.73
12314,9.26
12326,8.49
12338,7.44
12350,6.17
12362,4.76
12374,3.31
12385,1.91
12396,0.57
12408,-0.7
12420,-1.95
12432,-3.22
12444,-4.47
12456,-5.66
12468,-6.73
12480,-7.64
12492,-8.41
12504,-9.05
12516,-9.59
12528,-10.08
12540,-10.57
12552,-11.1
12564,-11.72
12575,-12.43
12586,-13.12
12598,-13.65
12610,-13.84
12622,-13.54
12634,-12.73
12646,-11.47
12658,-9.86
12670,-7.99
12682,-5.88
12694,-3.45
12706,-0.69
12718,2.32
12730,5.33
12742,7.95
12754,9.82
12765,10.81
12776,11.04
12788,10.83
12800,10.58
12812,10.57
12824,10.79
12836,11.05
12848,11.1
12860,10.78
12872,10.12
12884,9.33
12896,8.63
12908,8.16
12920,7.92
12932,7.74
12944,7.44
12955,6.91
12966,6.18
12978,5.38
12990,4.68
13002,4.14
13014,3.64
13026,2.95
13038,1.83
13050,0.23
13062,-1.71
13074,-3.62
13086,-5.19
13098,-6.28
13110,-7.04
13122,-7.74
13134,-8.61
13145,-9.69
13156,-10.83
13168,-11.87
13180,-12.73
13192,-13.54
13204,-14.53
13216,-15.89
13228,-17.6
13240,-19.47
13252,-21.19
13264,-22.5
13276,-23.22
13288,-23.26
13300,-22.51
13312,-20.87
13324,-18.34
13335,-15.04
13346,-11.28
13358,-7.42
13370,-3.75
13382,-0.4
13394,2.66
13406,5.59
13418,8.52
13430,11.54
13442,14.65
13454,17.81
13466,20.94
13478,23.88
13490,26.47
13502,28.54
13514,29.99
13525,30.86
13536,31.3
13548,31.46
13560,31.4
13572,31.0
13584,30.09
13596,28.51
13608,26.23
13620,23.34
13632,19.98
13644,16.28
13656,12.31
13668,8.1
13680,3.76
13692,-0.52
13704,-4.45
13715,-7.79
13726,-10.45
13738,-12.5
13750,-14.16
13762,-15.62
13774,-17.02
13786,-18.28
13798,-19.24
13810,-19.72
13822,-19.63
13834,-19.07
13846,-18.27
13858,-17.55
13870,-17.16
13882,-17.19
13894,-17.57
13905,-18.08
13916,-18.47
13928,-18.47
13940,-17.93
13952,-16.75
13964,-14.94
13976,-12.63
13988,-10.01
14000,-7.35
14012,-4.93
14024,-2.98
14036,-1.54
14048,-0.52
14060,0.29
14072,1.11
14084,2.06
14095,3.18
14106,4.5
14118,6.07
14130,8.01
14142,10.43
14154,13.39
14166,16.8
14178,20.43
14190,24.02
14202,27.28
14214,30.02
14226,32.07
14238,33.29
14250,33.48
14262,32.46
14274,30.17
14285,26.84
14296,23.15
14308,20.09
14320,18.76
14332,19.86
14344,23.29
14356,28.11
14368,32.75
14380,35.61
14392,35.63
14404,32.6
14416,27.07
14428,19.94
14440,12.06
14452,4.0
14464,-3.91
14475,-11.4
14486,-18.1
14498,-23.63
14510,-27.76
14522,-30.57
14534,-32.38
14546,-33.65
14558,-34.7
14570,-35.6
14582,-36.17
14594,-36.12
14606,-35.16
14618,-33.18
14630,-30.26
14642,-26.62
14654,-22.6
14665,-18.57
14676,-14.84
14688,-11.68
14700,-9.21
14712,-7.48
14724,-6.4
14736,-5.81
14748,-5.52
14760,-5.31
14772,-5.03
14784,-4.61
14796,-4.13
14808,-3.69
14820,-3.4
14832,-3.23
14844,-3.05
14855,-2.65
14866,-1.89
14878,-0.8
14890,0.45
14902,1.61
14914,2.47
14926,2.92
14938,3.04
14950,2.89
14962,2.56
14974,2.04
14986,1.31
14998,0.39
15010,-0.61
15022,-1.51
15034,-2.09
15045,-2.29
15056,-2.14
15068,-1.8
15080,-1.45
15092,-1.18
15104,-1.03
15116,-1.0
15128,-1.12
15140,-1.43
15152,-2.02
15164,-2.89
15176,-4.0
15188,-5.24
15200,-6.56
15212,-7.95
15224,-9.37
15235,-10.77
15246,-11.93
15258,-12.49
15270,-12.14
15282,-10.72
15294,-8.47
15306,-6.0
15318,-4.15
15330,-3.62
15342,-4.6
15354,-6.63
15366,-8.82
15378,-10.21
15390,-10.24
15402,-8.91
15414,-6.66
15425,-4.03
15436,-1.42
15448,0.99
15460,3.2
15472,5.2
15484,7.02
15496,8.75
15508,10.6
15520,12.86
15532,15.71
15544,19.03
15556,22.46
15568,25.57
15580,28.18
15592,30.38
15604,32.43
15615,34.44
15626,36.16
15638,37.11
15650,36.75
15662,34.83
15674,31.59
15686,27.64
15698,23.82
15710,20.84
15722,19.04
15734,18.21
15746,17.57
15758,16.24
15770,13.81
15782,10.78
15794,8.56
15805,8.84
15816,12.58
15828,19.35
15840,27.27
15852,33.76
15864,36.72
15876,35.3
15888,30.09
15900,22.48
15912,13.87
15924,5.08
15936,-3.66
15948,-12.24
15960,-20.38
15972,-27.45
15984,-32.77
15995,-35.96
16006,-37.17
16018,-36.98
16030,-36.31
16042,-36.22
16054,-37.55
16066,-40.85
16078,-46.01
16090,-52.3
16102,-58.4
16114,-62.78
16126,-64.18
16138,-61.91
16150,-55.93
16162,-46.66
16174,-34.75
16185,-20.78
16196,-5.29
16208,11.06
16220,27.28
16232,42.15
16244,54.51
16256,63.75
16268,70.09
16280,74.44
16292,77.87
16304,80.9
16316,83.22
16328,83.84
16340,81.93
16352,77.55
16364,71.88
16375,66.74
16386,63.51
16398,62.18
16410,61.11
16422,57.92
16434,50.95
16446,40.28
16458,27.79
16470,16.07
16482,7.02
16494,0.88
16506,-3.55
16518,-7.85
16530,-12.9
16542,-18.54
16554,-24.16
16565,-29.64
16576,-35.82
16588,-44.06
16600,-55.34
16612,-69.47
16624,-85.1
16636,-100.55
16648,-114.53
16660,-126.48
16672,-136.02
16684,-142.19
16696,-143.21
16708,-137.03
16720,-122.49
16732,-100.29
16744,-73.07
16755,-44.43
16766,-17.38
16778,6.72
16790,28.16
16802,47.95
16814,66.55
16826,83.16
16838,95.9
16850,102.84
16862,103.2
16874,97.86
16886,89.01
16898,79.19
16910,70.23
16922,62.81
16934,56.55
16945,50.64
16956,44.46
16968,37.76
16980,30.62
16992,23.21
17004,15.66
17016,8.0
17028,0.35
17040,-7.04
17052,-13.63
17064,-18.69
17076,-21.55
17088,-21.92
17100,-20.18
17112,-17.37
17124,-14.92
17135,-14.04
17146,-15.3
17158,-18.41
17170,-22.56
17182,-27.08
17194,-31.88
17206,-37.54
17218,-44.82
17230,-53.94
17242,-64.02
17254,-73.24
17266,-79.48
17278,-81.3
17290,-78.72
17302,-73.22
17314,-67.13
17325,-62.56
17336,-60.48
17348,-60.44
17360,-60.99
17372,-60.58
17384,-58.37
17396,-54.62
17408,-50.24
17420,-46.23
17432,-42.93
17444,-39.85
17456,-36.0
17468,-30.73
17480,-24.31
17492,-17.88
17504,-12.76
17515,-9.62
17526,-8.2
17538,-7.62
17550,-7.21
17562,-7.1
17574,-8.1
17586,-10.97
17598,-15.53
17610,-20.31
17622,-22.96
17634,-21.26
17646,-14.18
17658,-2.15
17670,13.2
17682,29.87
17694,46.14
17705,60.86
17716,73.33
17728,82.92
17740,88.99
17752,90.94
17764,88.46
17776,81.77
17788,72.04
17800,61.18
17812,51.37
17824,44.34
17836,40.7
17848,39.83
17860,40.28
17872,40.61
17884,40.16
17895,39.22
17906,38.69
17918,39.22
17930,40.72
17942,42.14
17954,42.05
17966,39.36
17978,33.88
17990,26.53
18002,18.88
18014,12.61
18026,8.8
18038,7.64
18050,8.52
18062,10.31
18074,11.94
18085,12.71
18096,12.56
18108,11.95
18120,11.6
18132,12.09
18144,13.6
18156,15.75
18168,17.8
18180,18.96
18192,18.59
18204,16.38
18216,12.25
18228,6.3
18240,-1.24
18252,-9.88
18264,-18.83
18275,-27.23
18286,-34.51
18298,-40.76
18310,-46.86
18322,-54.13
18334,-63.72
18346,-76.05
18358,-90.48
18370,-105.41
18382,-118.77
18394,-128.47
18406,-132.93
18418,-131.32
18430,-123.78
18442,-111.23
18454,-95.18
18465,-77.32
18476,-59.24
18488,-42.28
18500,-27.36
18512,-15.07
18524,-5.44
18536,2.01
18548,8.26
18560,14.46
18572,21.4
18584,29.15
18596,36.84
18608,42.99
18620,46.07
18632,45.09
18644,40.04
18655,31.92
18666,22.47
18678,13.66
18690,7.13
18702,3.67
18714,3.07
18726,4.3
18738,5.92
18750,6.83
18762,6.79
18774,6.48
18786,7.23
18798,10.3
18810,16.25
18822,24.6
18834,34.03
18845,42.89
18856,49.84
18868,54.26
18880,56.2
18892,56.07
18904,54.25
18916,50.93
18928,46.22
18940,40.5
18952,34.7
18964,30.17
18976,28.13
18988,29.01
19000,32.01
19012,35.2
19024,36.36
19035,34.02
19046,28.32
19058,21.02
19070,14.75
19082,11.65
19094,12.32
19106,15.66
19118,19.49
19130,21.78
19142,21.65
19154,19.54
19166,16.62
19178,13.95
19190,11.8
19202,9.68
19214,6.93
19225,3.23
19236,-1.15
19248,-5.59
19260,-9.66
19272,-13.39
19284,-17.2
19296,-21.45
19308,-26.03
19320,-30.23
19332,-32.99
19344,-33.48
19356,-31.58
19368,-27.97
19380,-23.85
19392,-20.46
19404,-18.54
19415,-18.21
19426,-19.03
19438,-20.39
19450,-21.82
19462,-23.08
19474,-24.18
19486,-25.21
19498,-26.2
19510,-27.16
19522,-28.16
19534,-29.32
19546,-30.78
19558,-32.48
19570,-34.0
19582,-34.63
19594,-33.62
19605,-30.58
19616,-25.78
19628,-20.06
19640,-14.61
19652,-10.48
19664,-8.27
19676,-8.05
19688,-9.42
19700,-11.72
19712,-14.17
19724,-15.97
19736,-16.38
19748,-14.9
19760,-11.43
19772,-6.4
19784,-0.68
19795,4.66
19806,8.8
19818,11.43
19830,12.81
19842,13.48
19854,14.0
19866,14.56
19878,15.01
19890,15.01
19902,14.29
19914,12.8
19926,10.77
19938,8.55
19950,6.46
19962,4.8
19974,3.77
19985,3.52
19996,4.06
20008,5.18
20020,6.39
20032,7.05
20044,6.7
20056,5.23
20068,3.02
20080,0.71
20092,-1.12
20104,-2.2
20116,-2.65
20128,-2.76
20140,-2.87
20152,-3.08
20164,-3.31
20175,-3.32
20186,-2.86
20198,-1.7
20210,0.28
20222,3.04
20234,6.42
20246,10.09
20258,13.65
20270,16.78
20282,19.32
20294,21.23
20306,22.62
20318,23.62
20330,24.29
20342,24.65
20354,24.68
20365,24.44
20376,24.0
20388,23.52
20400,23.11
20412,22.89
20424,22.86
20436,22.92
20448,22.9
20460,22.66
20472,22.1
20484,21.24
20496,20.17
20508,18.98
20520,17.67
20532,16.17
20544,14.36
20555,12.19
20566,9.72
20578,7.16
20590,4.72
20602,2.54
20614,0.57
20626,-1.31
20638,-3.18
20650,-5.0
20662,-6.55
20674,-7.68
20686,-8.45
20698,-9.14
20710,-10.17
20722,-11.77
20734,-13.76
20745,-15.53
20756,-16.43
20768,-16.03
20780,-14.44
20792,-12.21
20804,-10.09
20816,-8.68
20828,-8.28
20840,-8.96
20852,-10.75
20864,-13.7
20876,-17.78
20888,-22.75
20900,-27.93
20912,-32.41
20924,-35.35
20935,-36.35
20946,-35.57
20958,-33.56
20970,-30.97
20982,-28.15
20994,-25.17
