seconds,BVP
3,53.54
15,46.39
26,38.7
37,31.06
49,24.0
61,17.85
73,12.63
85,8.06
97,3.68
109,-0.98
121,-6.29
133,-12.44
145,-19.32
157,-26.5
169,-33.18
181,-38.38
193,-41.02
205,-40.25
216,-35.68
227,-27.45
239,-16.26
251,-3.15
263,10.6
275,23.73
287,35.19
299,44.22
311,50.46
323,53.98
335,55.17
347,54.62
359,52.93
371,50.6
383,47.97
395,45.25
406,42.64
417,40.31
429,38.41
441,36.98
453,35.96
465,35.15
477,34.38
489,33.61
501,32.85
513,32.1
525,31.21
537,29.87
549,27.69
561,24.38
573,19.97
585,14.86
596,9.66
607,4.9
619,0.82
631,-2.68
643,-5.99
655,-9.55
667,-13.68
679,-18.5
691,-23.98
703,-29.9
715,-35.86
727,-41.23
739,-45.17
751,-46.77
763,-45.26
775,-40.26
786,-31.99
797,-21.24
809,-9.22
821,2.77
833,13.61
845,22.59
857,29.44
869,34.22
881,37.15
893,38.43
905,38.21
917,36.65
929,34.0
941,30.73
953,27.38
965,24.43
976,22.11
987,20.31
999,18.76
1011,17.19
1023,15.55
1035,14.04
1047,12.92
1059,12.31
1071,12.0
1083,11.47
1095,10.16
1107,7.71
1119,4.13
1131,-0.16
1143,-4.64
1155,-8.86
1166,-12.67
1177,-16.22
1189,-19.79
1201,-23.67
1213,-28.01
1225,-32.82
1237,-37.91
1249,-42.96
1261,-47.47
1273,-50.74
1285,-51.98
1297,-50.48
1309,-45.88
1321,-38.31
1333,-28.43
1345,-17.26
1356,-5.93
1367,4.6
1379,13.67
1391,20.93
1403,26.25
1415,29.68
1427,31.39
1439,31.66
1451,30.87
1463,29.42
1475,27.66
1487,25.83
1499,24.06
1511,22.33
1523,20.58
1535,18.78
1546,16.94
1557,15.16
1569,13.54
1581,12.2
1593,11.14
1605,10.23
1617,9.21
1629,7.82
1641,5.85
1653,3.25
1665,0.17
1677,-3.14
1689,-6.49
1701,-9.85
1713,-13.32
1725,-17.05
1736,-21.19
1747,-25.77
1759,-30.69
1771,-35.68
1783,-40.31
1795,-43.98
1807,-46.02
1819,-45.78
1831,-42.9
1843,-37.43
1855,-29.85
1867,-21.02
1879,-11.89
1891,-3.27
1903,4.28
1915,10.53
1926,15.41
1937,18.87
1949,20.94
1961,21.63
1973,21.1
1985,19.64
1997,17.7
2009,15.67
2021,13.91
2033,12.52
2045,11.49
2057,10.66
2069,9.93
2081,9.26
2093,8.67
2105,8.21
2116,7.77
2127,7.17
2139,6.14
2151,4.46
2163,2.09
2175,-0.88
2187,-4.18
2199,-7.5
2211,-10.59
2223,-13.28
2235,-15.56
2247,-17.52
2259,-19.36
2271,-21.37
2283,-23.82
2295,-26.95
2306,-30.75
2317,-34.93
2329,-38.83
2341,-41.62
2353,-42.48
2365,-40.91
2377,-36.84
2389,-30.67
2401,-23.11
2413,-14.98
2425,-7.0
2437,0.3
2449,6.58
2461,11.6
2473,15.15
2485,17.11
2496,17.48
2507,16.46
2519,14.51
2531,12.19
2543,9.98
2555,8.19
2567,6.86
2579,5.88
2591,5.12
2603,4.56
2615,4.29
2627,4.4
2639,4.83
2651,5.33
2663,5.5
2675,4.97
2686,3.52
2697,1.23
2709,-1.66
2721,-4.83
2733,-8.02
2745,-11.14
2757,-14.22
2769,-17.36
2781,-20.72
2793,-24.45
2805,-28.61
2817,-33.19
2829,-37.92
2841,-42.29
2853,-45.57
2865,-46.88
2876,-45.54
2887,-41.32
2899,-34.52
2911,-25.99
2923,-16.83
2935,-8.1
2947,-0.5
2959,5.68
2971,10.47
2983,14.0
2995,16.34
3007,17.46
3019,17.29
3031,15.91
3043,13.59
3055,10.84
3066,8.23
3077,6.19
3089,4.89
3101,4.21
3113,3.88
3125,3.61
3137,3.21
3149,2.6
3161,1.74
3173,0.59
3185,-0.93
3197,-2.91
3209,-5.3
3221,-8.0
3233,-10.82
3245,-13.61
3256,-16.35
3267,-19.19
3279,-22.36
3291,-26.15
3303,-30.7
3315,-35.87
3327,-41.19
3339,-45.78
3351,-48.57
3363,-48.59
3375,-45.33
3387,-38.94
3399,-30.18
3411,-20.23
3423,-10.21
3435,-0.99
3446,7.02
3457,13.64
3469,18.78
3481,22.3
3493,24.03
3505,23.95
3517,22.31
3529,19.62
3541,16.55
3553,13.65
3565,11.26
3577,9.46
3589,8.19
3601,7.34
3613,6.84
3625,6.62
3636,6.54
3647,6.37
3659,5.71
3671,4.22
3683,1.62
3695,-2.03
3707,-6.41
3719,-11.06
3731,-15.48
3743,-19.4
3755,-22.78
3767,-25.9
3779,-29.21
3791,-33.19
3803,-38.16
3815,-44.07
3826,-50.42
3837,-56.24
3849,-60.31
3861,-61.53
3873,-59.21
3885,-53.27
3897,-44.23
3909,-33.05
3921,-20.8
3933,-8.46
3945,3.2
3957,13.57
3969,22.21
3981,28.81
3993,33.18
4005,35.4
4016,35.71
4027,34.6
4039,32.65
4051,30.38
4063,28.2
4075,26.32
4087,24.76
4099,23.47
4111,22.45
4123,21.7
4135,21.24
4147,20.99
4159,20.75
4171,20.24
4183,19.17
4195,17.36
4206,14.79
4217,11.54
4229,7.74
4241,3.51
4253,-1.03
4265,-5.8
4277,-10.72
4289,-15.68
4301,-20.68
4313,-25.83
4325,-31.28
4337,-37.18
4349,-43.47
4361,-49.71
4373,-55.11
4385,-58.57
4396,-59.03
4407,-55.71
4419,-48.44
4431,-37.77
4443,-24.77
4455,-10.81
4467,2.81
4479,15.13
4491,25.56
4503,33.84
4515,39.93
4527,43.85
4539,45.77
4551,45.98
4563,44.99
4575,43.38
4586,41.73
4597,40.5
4609,39.89
4621,39.88
4633,40.29
4645,40.85
4657,41.32
4669,41.48
4681,41.19
4693,40.41
4705,39.16
4717,37.48
4729,35.42
4741,32.95
4753,30.02
4765,26.58
4776,22.67
4787,18.38
4799,13.88
4811,9.29
4823,4.69
4835,0.11
4847,-4.47
4859,-9.04
4871,-13.6
4883,-18.24
4895,-23.17
4907,-28.72
4919,-35.15
4931,-42.51
4943,-50.47
4955,-58.17
4966,-64.43
4977,-67.91
4989,-67.55
5001,-62.79
5013,-53.79
5025,-41.36
5037,-26.75
5049,-11.34
5061,3.62
5073,17.18
5085,28.69
5097,37.77
5109,44.22
5121,48.02
5133,49.43
5145,48.96
5156,47.35
5167,45.33
5179,43.52
5191,42.2
5203,41.39
5215,40.96
5227,40.8
5239,40.97
5251,41.59
5263,42.76
5275,44.39
5287,46.19
5299,47.69
5311,48.43
5323,48.13
5335,46.76
5346,44.52
5357,41.72
5369,38.69
5381,35.65
5393,32.64
5405,29.62
5417,26.42
5429,22.91
5441,18.98
5453,14.64
5465,10.05
5477,5.42
5489,1.08
5501,-2.65
5513,-5.54
5525,-7.57
5536,-9.03
5547,-10.55
5559,-12.87
5571,-16.65
5583,-22.13
5595,-28.87
5607,-35.78
5619,-41.32
5631,-43.91
5643,-42.45
5655,-36.61
5667,-26.91
5679,-14.54
5691,-1.02
5703,12.23
5715,24.14
5726,34.14
5737,42.13
5749,48.32
5761,53.14
5773,57.05
5785,60.53
5797,63.98
5809,67.81
5821,72.31
5833,77.7
5845,84.08
5857,91.34
5869,99.22
5881,107.2
5893,114.56
5905,120.42
5916,123.92
5927,124.38
5939,121.6
5951,115.87
5963,107.96
5975,98.76
5987,88.94
5999,78.68
6011,67.75
6023,55.72
6035,42.28
6047,27.5
6059,11.76
6071,-4.41
6083,-20.67
6095,-36.91
6106,-53.13
6117,-69.3
6129,-85.21
6141,-100.46
6153,-114.76
6165,-128.07
6177,-140.69
6189,-152.98
6201,-165.01
6213,-176.3
6225,-185.84
6237,-192.4
6249,-195.07
6261,-193.65
6273,-188.69
6285,-181.22
6296,-172.2
6307,-162.14
6319,-150.89
6331,-137.97
6343,-122.92
6355,-105.68
6367,-86.87
6379,-67.56
6391,-48.94
6403,-31.95
6415,-17.03
6427,-4.11
6439,7.18
6451,17.32
6463,26.59
6475,35.09
6486,42.78
6497,49.54
6509,55.3
6521,60.04
6533,63.75
6545,66.42
6557,67.98
6569,68.38
6581,67.59
6593,65.65
6605,62.68
6617,58.83
6629,54.26
6641,49.11
6653,43.46
6665,37.38
6676,30.94
6687,24.19
6699,17.22
6711,10.04
6723,2.62
6735,-5.18
6747,-13.43
6759,-22.09
6771,-30.82
6783,-38.97
6795,-45.62
6807,-49.74
6819,-50.43
6831,-47.25
6843,-40.3
6855,-30.25
6866,-18.18
6877,-5.36
6889,7.08
6901,18.28
6913,27.71
6925,35.14
6937,40.48
6949,43.81
6961,45.25
6973,45.07
6985,43.63
6997,41.4
7009,38.88
7021,36.46
7033,34.36
7045,32.71
7056,31.48
7067,30.58
7079,29.97
7091,29.58
7103,29.39
7115,29.28
7127,29.04
7139,28.4
7151,27.04
7163,24.8
7175,21.64
7187,17.74
7199,13.39
7211,8.87
7223,4.29
7235,-0.34
7246,-5.11
7257,-10.07
7269,-15.15
7281,-20.16
7293,-24.88
7305,-29.13
7317,-32.96
7329,-36.52
7341,-40.11
7353,-44.13
7365,-48.95
7377,-54.86
7389,-61.81
7401,-69.2
7413,-75.96
7425,-80.59
7436,-81.66
7447,-78.28
7459,-70.4
7471,-58.88
7483,-45.04
7495,-30.32
7507,-15.88
7519,-2.41
7531,9.64
7543,19.96
7555,28.2
7567,34.05
7579,37.32
7591,38.12
7603,36.9
7615,34.31
7626,31.12
7637,28.01
7649,25.49
7661,23.82
7673,23.04
7685,22.98
7697,23.23
7709,23.36
7721,22.94
7733,21.69
7745,19.55
7757,16.62
7769,13.15
7781,9.42
7793,5.63
7805,1.89
7816,-1.85
7827,-5.66
7839,-9.65
7851,-13.78
7863,-17.94
7875,-22.03
7887,-26.04
7899,-30.1
7911,-34.5
7923,-39.58
7935,-45.57
7947,-52.53
7959,-60.22
7971,-68.13
7983,-75.41
7995,-81.04
8006,-83.97
8017,-83.36
8029,-78.8
8041,-70.47
8053,-59.11
8065,-45.79
8077,-31.64
8089,-17.63
8101,-4.38
8113,7.69
8125,18.27
8137,27.04
8149,33.68
8161,38.05
8173,40.27
8185,40.83
8196,40.46
8207,39.96
8219,39.88
8231,40.46
8243,41.6
8255,42.96
8267,44.2
8279,45.04
8291,45.38
8303,45.22
8315,44.65
8327,43.75
8339,42.62
8351,41.22
8363,39.45
8375,37.15
8386,34.26
8397,30.81
8409,27.05
8421,23.32
8433,20.02
8445,17.37
8457,15.4
8469,13.95
8481,12.81
8493,11.69
8505,10.37
8517,8.69
8529,6.55
8541,4.02
8553,1.49
8565,-0.31
8576,-0.32
8587,2.62
8599,9.46
8611,20.7
8623,36.21
8635,55.34
8647,76.99
8659,99.8
8671,122.28
8683,142.66
8695,159.04
8707,169.37
8719,171.94
8731,165.8
8743,151.22
8755,129.74
8766,103.91
8777,76.62
8789,50.3
8801,26.48
8813,5.68
8825,-12.31
8837,-27.91
8849,-41.44
8861,-52.86
8873,-61.95
8885,-68.51
8897,-72.52
8909,-74.11
8921,-73.6
8933,-71.23
8945,-67.21
8956,-61.76
8967,-55.18
8979,-47.96
8991,-40.78
9003,-34.39
9015,-29.49
9027,-26.5
9039,-25.54
9051,-26.36
9063,-28.51
9075,-31.44
9087,-34.73
9099,-38.18
9111,-41.84
9123,-46.01
9135,-51.03
9146,-57.17
9157,-64.45
9169,-72.52
9181,-80.69
9193,-87.92
9205,-93.01
9217,-94.75
9229,-92.26
9241,-85.15
9253,-73.68
9265,-58.72
9277,-41.67
9289,-23.99
9301,-7.11
9313,7.92
9325,20.44
9336,30.18
9347,37.16
9359,41.59
9371,43.8
9383,44.2
9395,43.21
9407,41.25
9419,38.74
9431,36.09
9443,33.68
9455,31.81
9467,30.63
9479,30.15
9491,30.19
9503,30.5
9515,30.83
9526,30.96
9537,30.71
9549,29.95
9561,28.55
9573,26.47
9585,23.73
9597,20.48
9609,16.97
9621,13.39
9633,9.83
9645,6.2
9657,2.27
9669,-2.2
9681,-7.28
9693,-12.86
9705,-18.58
9716,-24.03
9727,-28.86
9739,-33.05
9751,-36.82
9763,-40.66
9775,-45.1
9787,-50.54
9799,-56.94
9811,-63.76
9823,-69.92
9835,-74.07
9847,-74.85
9859,-71.33
9871,-63.28
9883,-51.2
9895,-36.27
9906,-19.98
9917,-3.8
9929,11.08
9941,23.86
9953,34.09
9965,41.62
9977,46.49
9989,48.9
10001,49.18
10013,47.77
10025,45.2
10037,41.96
10049,38.56
10061,35.38
10073,32.68
10085,30.5
10096,28.8
10107,27.44
10119,26.28
10131,25.21
10143,24.19
10155,23.18
10167,22.16
10179,21.0
10191,19.56
10203,17.67
10215,15.19
10227,12.12
10239,8.52
10251,4.59
10263,0.49
10275,-3.6
10286,-7.59
10297,-11.44
10309,-15.19
10321,-18.92
10333,-22.77
10345,-26.89
10357,-31.53
10369,-36.9
10381,-43.04
10393,-49.65
10405,-56.0
10417,-60.96
10429,-63.29
10441,-61.98
10453,-56.58
10465,-47.33
10476,-35.17
10487,-21.41
10499,-7.51
10511,5.36
10523,16.39
10535,25.2
10547,31.73
10559,36.06
10571,38.38
10583,38.88
10595,37.83
10607,35.59
10619,32.59
10631,29.35
10643,26.34
10655,23.88
10666,22.13
10677,21.03
10689,20.41
10701,20.06
10713,19.76
10725,19.35
10737,18.75
10749,17.95
10761,16.93
10773,15.62
10785,13.89
10797,11.51
10809,8.25
10821,4.05
10833,-0.94
10845,-6.31
10856,-11.53
10867,-16.1
10879,-19.75
10891,-22.57
10903,-24.95
10915,-27.46
10927,-30.75
10939,-35.32
10951,-41.39
10963,-48.72
10975,-56.57
10987,-63.7
10999,-68.61
11011,-69.89
11023,-66.59
11035,-58.62
11046,-46.75
11057,-32.39
11069,-17.21
11081,-2.66
11093,10.26
11105,21.07
11117,29.68
11129,36.23
11141,40.9
11153,43.89
11165,45.36
11177,45.51
11189,44.58
11201,42.85
11213,40.68
11225,38.49
11236,36.61
11247,35.27
11259,34.54
11271,34.29
11283,34.28
11295,34.25
11307,33.96
11319,33.3
11331,32.22
11343,30.72
11355,28.8
11367,26.41
11379,23.39
11391,19.53
11403,14.68
11415,8.83
11426,2.15
11437,-4.95
11449,-12.05
11461,-18.75
11473,-24.89
11485,-30.53
11497,-35.9
11509,-41.31
11521,-47.03
11533,-53.27
11545,-60.14
11557,-67.52
11569,-74.92
11581,-81.4
11593,-85.71
11605,-86.48
11616,-82.67
11627,-74.03
11639,-61.22
11651,-45.71
11663,-29.32
11675,-13.68
11687,0.14
11699,11.77
11711,21.31
11723,28.99
11735,34.95
11747,39.15
11759,41.54
11771,42.19
11783,41.48
11795,39.98
11806,38.33
11817,36.96
11829,36.04
11841,35.49
11853,35.15
11865,34.83
11877,34.53
11889,34.26
11901,34.01
11913,33.65
11925,32.86
11937,31.25
11949,28.52
11961,24.57
11973,19.62
11985,14.03
11996,8.22
12007,2.46
12019,-3.15
12031,-8.66
12043,-14.14
12055,-19.53
12067,-24.62
12079,-29.11
12091,-32.79
12103,-35.68
12115,-38.12
12127,-40.7
12139,-44.13
12151,-48.97
12163,-55.38
12175,-62.86
12186,-70.29
12197,-76.1
12209,-78.67
12221,-76.8
12233,-70.14
12245,-59.24
12257,-45.37
12269,-30.17
12281,-15.15
12293,-1.42
12305,10.47
12317,20.37
12329,28.37
12341,34.54
12353,38.88
12365,41.35
12376,41.97
12387,40.97
12399,38.85
12411,36.31
12423,34.12
12435,32.84
12447,32.72
12459,33.64
12471,35.25
12483,37.12
12495,38.88
12507,40.31
12519,41.3
12531,41.8
12543,41.8
12555,41.29
12566,40.26
12577,38.6
12589,36.21
12601,32.93
12613,28.69
12625,23.55
12637,17.72
12649,11.53
12661,5.29
12673,-0.77
12685,-6.59
12697,-12.23
12709,-17.86
12721,-23.74
12733,-30.16
12745,-37.34
12756,-45.24
12767,-53.3
12779,-60.46
12791,-65.28
12803,-66.43
12815,-63.07
12827,-55.29
12839,-44.0
12851,-30.69
12863,-16.88
12875,-3.78
12887,7.85
12899,17.73
12911,25.74
12923,31.83
12935,35.91
12946,37.99
12957,38.27
12969,37.24
12981,35.53
12993,33.74
13005,32.22
13017,31.04
13029,30.1
13041,29.24
13053,28.48
13065,28.02
13077,28.08
13089,28.76
13101,29.81
13113,30.73
13125,30.93
13136,29.93
13147,27.56
13159,24.0
13171,19.62
13183,14.85
13195,10.04
13207,5.39
13219,0.95
13231,-3.37
13243,-7.73
13255,-12.47
13267,-17.95
13279,-24.54
13291,-32.32
13303,-40.88
13315,-49.25
13326,-55.97
13337,-59.5
13349,-58.64
13361,-52.92
13373,-42.79
13385,-29.42
13397,-14.3
13409,1.11
13421,15.73
13433,28.88
13445,40.21
13457,49.47
13469,56.52
13481,61.27
13493,63.88
13505,64.75
13516,64.56
13527,64.06
13539,63.94
13551,64.64
13563,66.38
13575,69.19
13587,72.95
13599,77.33
13611,81.69
13623,85.08
13635,86.42
13647,84.87
13659,80.14
13671,72.67
13683,63.51
13695,53.93
13706,45.08
13717,37.72
13729,32.12
13741,28.12
13753,25.12
13765,22.14
13777,17.89
13789,11.06
13801,0.66
13813,-13.53
13825,-30.81
13837,-49.6
13849,-67.85
13861,-83.51
13873,-94.91
13885,-101.14
13896,-102.08
13907,-98.45
13919,-91.55
13931,-83.07
13943,-74.74
13955,-68.05
13967,-63.95
13979,-62.77
13991,-64.17
14003,-67.29
14015,-71.02
14027,-74.22
14039,-76.12
14051,-76.42
14063,-75.35
14075,-73.46
14086,-71.34
14097,-69.35
14109,-67.54
14121,-65.66
14133,-63.41
14145,-60.59
14157,-57.21
14169,-53.39
14181,-49.35
14193,-45.28
14205,-41.4
14217,-37.93
14229,-35.07
14241,-32.99
14253,-31.64
14265,-30.71
14276,-29.72
14287,-28.17
14299,-25.82
14311,-22.8
14323,-19.66
14335,-17.07
14347,-15.59
14359,-15.28
14371,-15.63
14383,-15.6
14395,-13.86
14407,-9.17
14419,-0.7
14431,11.63
14443,27.17
14455,44.64
14466,62.48
14477,79.25
14489,93.87
14501,105.75
14513,114.7
14525,120.72
14537,123.93
14549,124.47
14561,122.59
14573,118.7
14585,113.31
14597,106.87
14609,99.65
14621,91.71
14633,82.95
14645,73.38
14656,63.27
14667,53.2
14679,43.85
14691,35.75
14703,29.02
14715,23.41
14727,18.38
14739,13.47
14751,8.52
14763,3.75
14775,-0.4
14787,-3.54
14799,-5.53
14811,-6.67
14823,-7.64
14835,-9.36
14846,-12.83
14857,-19.0
14869,-28.62
14881,-42.17
14893,-59.76
14905,-81.0
14917,-104.85
14929,-129.5
14941,-152.42
14953,-170.52
14965,-180.67
14977,-180.29
14989,-168.13
15001,-144.65
15013,-112.08
15025,-73.94
15036,-34.24
15047,3.35
15059,36.14
15071,62.66
15083,82.45
15095,95.84
15107,103.52
15119,106.42
15131,105.59
15143,102.17
15155,97.31
15167,92.11
15179,87.43
15191,83.79
15203,81.22
15215,79.36
15226,77.49
15237,74.72
15249,70.15
15261,63.05
15273,53.09
15285,40.37
15297,25.37
15309,8.79
15321,-8.69
15333,-26.71
15345,-45.39
15357,-65.27
15369,-87.19
15381,-111.89
15393,-139.61
15405,-169.67
15416,-200.3
15427,-228.88
15439,-252.6
15451,-269.49
15463,-279.11
15475,-282.77
15487,-282.9
15499,-281.81
15511,-280.59
15523,-278.51
15535,-273.58
15547,-263.63
15559,-247.51
15571,-225.7
15583,-200.12
15595,-173.21
15606,-146.99
15617,-122.42
15629,-99.37
15641,-77.13
15653,-55.18
15665,-33.74
15677,-13.89
15689,2.7
15701,14.66
15713,21.53
15725,24.03
15737,23.83
15749,22.78
15761,22.21
15773,22.62
15785,23.84
15796,25.56
15807,27.67
15819,30.37
15831,33.79
15843,37.71
15855,41.52
15867,44.63
15879,46.98
15891,49.4
15903,53.36
15915,60.3
15927,70.78
15939,84.05
15951,98.18
15963,110.8
15975,119.91
15986,124.52
15997,124.87
16009,122.04
16021,117.51
16033,112.63
16045,108.48
16057,105.86
16069,105.3
16081,107.21
16093,111.85
16105,119.34
16117,129.57
16129,142.3
16141,157.02
16153,172.95
16165,188.97
16176,203.84
16187,216.27
16199,225.23
16211,230.1
16223,230.64
16235,226.98
16247,219.62
16259,209.33
16271,197.18
16283,184.4
16295,172.06
16307,160.8
16319,150.6
16331,140.96
16343,131.25
16355,121.09
16366,110.48
16377,99.66
16389,88.68
16401,77.22
16413,64.59
16425,50.27
16437,34.3
16449,17.51
16461,1.2
16473,-13.38
16485,-25.68
16497,-36.07
16509,-45.62
16521,-55.61
16533,-66.98
16545,-80.08
16556,-94.61
16567,-109.82
16579,-124.58
16591,-137.47
16603,-146.82
16615,-151.02
16627,-148.88
16639,-140.07
16651,-125.41
16663,-106.71
16675,-86.37
16687,-66.57
16699,-48.78
16711,-33.45
16723,-20.31
16735,-8.78
16746,1.48
16757,10.37
16769,17.42
16781,22.17
16793,24.62
16805,25.4
16817,25.76
16829,27.25
16841,31.25
16853,38.47
16865,48.6
16877,60.22
16889,71.07
16901,78.68
16913,81.02
16925,77.1
16936,66.98
16947,51.59
16959,32.11
16971,9.54
16983,-15.33
16995,-41.72
17007,-68.61
17019,-94.61
17031,-118.25
17043,-138.43
17055,-154.76
17067,-167.49
17079,-177.21
17091,-184.51
17103,-189.74
17115,-193.19
17126,-195.35
17137,-197.0
17149,-199.02
17161,-202.0
17173,-205.62
17185,-208.5
17197,-208.44
17209,-203.21
17221,-191.34
17233,-172.85
17245,-149.22
17257,-122.98
17269,-96.89
17281,-73.19
17293,-53.15
17305,-37.0
17316,-24.22
17327,-13.91
17339,-5.16
17351,2.72
17363,10.09
17375,17.02
17387,23.36
17399,28.81
17411,33.03
17423,35.79
17435,36.99
17447,36.74
17459,35.39
17471,33.48
17483,31.64
17495,30.34
17506,29.81
17517,29.81
17529,29.85
17541,29.3
17553,27.72
17565,24.97
17577,21.22
17589,16.92
17601,12.66
17613,9.21
17625,7.54
17637,8.72
17649,13.63
17661,22.62
17673,35.19
17685,49.85
17696,64.63
17707,77.46
17719,86.76
17731,91.54
17743,91.39
17755,86.42
17767,77.41
17779,65.97
17791,54.49
17803,45.73
17815,41.95
17827,44.09
17839,51.42
17851,61.89
17863,73.02
17875,82.88
17886,90.48
17897,95.74
17909,98.9
17921,100.02
17933,98.91
17945,95.29
17957,89.18
17969,81.1
17981,71.87
17993,62.31
18005,52.87
18017,43.6
18029,34.34
18041,25.05
18053,16.16
18065,8.5
18076,3.06
18087,0.51
18099,0.94
18111,3.8
18123,8.19
18135,13.11
18147,17.8
18159,21.84
18171,24.97
18183,27.0
18195,27.71
18207,27.02
18219,24.91
18231,21.55
18243,17.25
18255,12.25
18266,6.73
18277,0.67
18289,-6.08
18301,-13.81
18313,-22.75
18325,-32.88
18337,-43.75
18349,-54.35
18361,-63.23
18373,-68.79
18385,-69.69
18397,-65.3
18409,-55.88
18421,-42.57
18433,-27.04
18445,-11.03
18456,4.05
18467,17.32
18479,28.37
18491,37.06
18503,43.3
18515,47.03
18527,48.25
18539,47.23
18551,44.59
18563,41.22
18575,38.05
18587,35.82
18599,34.83
18611,34.94
18623,35.72
18635,36.57
18646,37.03
18657,36.71
18669,35.38
18681,32.89
18693,29.18
18705,24.24
18717,18.22
18729,11.38
18741,4.1
18753,-3.22
18765,-10.24
18777,-16.77
18789,-22.82
18801,-28.53
18813,-34.12
18825,-39.79
18836,-45.58
18847,-51.46
18859,-57.33
18871,-63.15
18883,-69.12
18895,-75.61
18907,-82.84
18919,-90.92
18931,-99.65
18943,-108.38
18955,-115.88
18967,-120.57
18979,-120.79
18991,-115.48
19003,-104.45
19015,-88.21
19026,-68.09
19037,-45.99
19049,-23.95
19061,-3.71
19073,13.62
19085,27.71
19097,38.78
19109,47.41
19121,54.83
19133,61.94
19145,68.94
19157,75.39
19169,80.64
19181,84.2
19193,86.23
19205,87.11
19216,87.34
19227,88.88
19239,93.01
19251,99.54
19263,106.94
19275,113.51
19287,117.82
19299,120.03
19311,120.66
19323,120.38
19335,122.85
19347,130.5
19359,142.88
19371,157.04
19383,169.82
19395,178.76
19406,184.64
19417,188.78
19429,192.38
19441,200.96
19453,217.87
19465,241.71
19477,267.31
19489,289.54
19501,304.71
19513,314.19
19525,319.78
19537,322.49
19549,328.74
19561,342.7
19573,363.61
19585,386.84
19596,407.85
19607,422.7
19619,432.16
19631,436.48
19643,396.37
19655,295.18
19667,148.98
19679,-2.51
19691,-125.49
19703,-197.06
19715,-233.59
19727,-249.51
19739,-254.17
19751,-252.87
19763,-244.09
19775,-226.19
19786,-202.5
19797,-180.58
19809,-167.1
19821,-166.14
19833,-174.51
19845,-188.02
19857,-203.38
19869,-213.93
19881,-215.78
19893,-210.2
19905,-202.3
19917,-197.13
19929,-198.33
19941,-204.44
19953,-213.37
19965,-223.48
19976,-230.7
19987,-232.26
19999,-228.17
20011,-220.58
20023,-211.53
20035,-202.46
20047,-192.24
20059,-180.0
20071,-165.75
20083,-148.66
20095,-128.55
20107,-106.62
20119,-85.1
20131,-66.28
20143,-52.09
20155,-42.67
20166,-37.43
20177,-35.07
20189,-33.21
20201,-29.57
20213,-22.88
20225,-13.32
20237,-2.09
20249,9.02
20261,18.63
20273,25.73
20285,29.84
20297,30.93
20309,29.25
20321,25.02
20333,18.37
20345,9.41
20356,-1.61
20367,-14.14
20379,-27.3
20391,-40.09
20403,-51.61
20415,-61.24
20427,-68.86
20439,-74.78
20451,-79.6
20463,-84.04
20475,-88.83
20487,-94.51
20499,-101.38
20511,-109.27
20523,-117.5
20535,-124.81
20546,-129.74
20557,-131.18
20569,-128.76
20581,-122.98
20593,-114.96
20605,-105.82
20617,-96.26
20629,-86.42
20641,-76.25
20653,-66.03
20665,-56.57
20677,-49.14
20689,-44.96
20701,-44.63
20713,-47.88
20725,-53.62
20736,-60.36
20747,-66.54
20759,-70.87
20771,-72.39
20783,-70.61
20795,-65.52
20807,-57.76
20819,-48.43
20831,-38.81
20843,-30.01
20855,-22.62
20867,-16.65
20879,-11.75
20891,-7.5
20903,-3.62
20915,0.11
20926,4.04
20937,8.84
20949,15.49
20961,25.08
20973,38.42
20985,55.66
20997,76.05
