seconds,BVP
5,-23.62
17,-25.33
29,-27.59
41,-29.94
53,-31.8
65,-32.62
77,-32.08
89,-30.16
101,-27.06
113,-23.16
125,-18.8
136,-14.26
147,-9.76
159,-5.49
171,-1.65
183,1.55
195,3.96
207,5.55
219,6.48
231,7.01
243,7.41
255,7.86
267,8.32
279,8.65
291,8.66
303,8.25
315,7.55
326,6.81
337,6.29
349,6.07
361,5.99
373,5.65
385,4.73
397,3.08
409,0.87
421,-1.56
433,-3.87
445,-5.96
457,-8.0
469,-10.36
481,-13.35
493,-17.09
505,-21.49
516,-26.33
527,-31.44
539,-36.68
551,-41.85
563,-46.55
575,-50.19
587,-52.06
599,-51.59
611,-48.62
623,-43.44
635,-36.72
647,-29.28
659,-21.81
671,-14.77
683,-8.41
695,-2.79
706,2.04
717,6.03
729,9.17
741,11.59
753,13.5
765,15.25
777,17.13
789,19.29
801,21.69
813,24.14
825,26.39
837,28.29
849,29.77
861,30.88
873,31.67
885,32.17
896,32.39
907,32.3
919,31.89
931,31.21
943,30.29
955,29.18
967,27.95
979,26.69
991,25.5
1003,24.4
1015,23.31
1027,22.01
1039,20.14
1051,17.37
1063,13.44
1075,8.26
1086,2.07
1097,-4.64
1109,-11.07
1121,-16.33
1133,-19.66
1145,-20.67
1157,-19.46
1169,-16.58
1181,-12.84
1193,-8.98
1205,-5.53
1217,-2.68
1229,-0.38
1241,1.48
1253,3.03
1265,4.36
1276,5.5
1287,6.51
1299,7.49
1311,8.52
1323,9.7
1335,11.12
1347,12.84
1359,14.88
1371,17.25
1383,19.94
1395,22.94
1407,26.16
1419,29.44
1431,32.51
1443,34.96
1455,36.44
1466,36.67
1477,35.65
1489,33.59
1501,30.91
1513,27.95
1525,24.94
1537,21.85
1549,18.54
1561,14.92
1573,11.05
1585,7.17
1597,3.53
1609,0.3
1621,-2.54
1633,-5.22
1645,-8.01
1656,-11.22
1667,-15.03
1679,-19.6
1691,-24.93
1703,-30.81
1715,-36.74
1727,-42.0
1739,-45.72
1751,-47.21
1763,-46.17
1775,-42.77
1787,-37.54
1799,-31.17
1811,-24.28
1823,-17.33
1835,-10.64
1846,-4.42
1857,1.09
1869,5.67
1881,9.12
1893,11.38
1905,12.58
1917,13.06
1929,13.25
1941,13.61
1953,14.42
1965,15.72
1977,17.31
1989,18.85
2001,20.04
2013,20.7
2025,20.87
2036,20.73
2047,20.45
2059,20.13
2071,19.75
2083,19.2
2095,18.38
2107,17.21
2119,15.75
2131,14.07
2143,12.23
2155,10.28
2167,8.23
2179,6.06
2191,3.8
2203,1.5
2215,-0.77
2226,-3.05
2237,-5.45
2249,-8.22
2261,-11.58
2273,-15.66
2285,-20.34
2297,-25.23
2309,-29.69
2321,-32.98
2333,-34.47
2345,-33.81
2357,-31.01
2369,-26.47
2381,-20.8
2393,-14.65
2405,-8.55
2416,-2.81
2427,2.44
2439,7.19
2451,11.43
2463,15.1
2475,18.12
2487,20.41
2499,22.0
2511,23.02
2523,23.7
2535,24.29
2547,24.93
2559,25.69
2571,26.5
2583,27.27
2595,27.85
2606,28.14
2617,28.12
2629,27.82
2641,27.32
2653,26.68
2665,25.91
2677,24.97
2689,23.81
2701,22.43
2713,20.87
2725,19.23
2737,17.54
2749,15.79
2761,13.92
2773,11.82
2785,9.44
2796,6.76
2807,3.88
2819,0.91
2831,-1.98
2843,-4.7
2855,-7.24
2867,-9.7
2879,-12.23
2891,-15.01
2903,-18.17
2915,-21.82
2927,-25.97
2939,-30.57
2951,-35.45
2963,-40.25
2975,-44.35
2986,-46.98
2997,-47.41
3009,-45.26
3021,-40.66
3033,-34.27
3045,-26.99
3057,-19.69
3069,-12.9
3081,-6.79
3093,-1.31
3105,3.61
3117,7.91
3129,11.48
3141,14.23
3153,16.21
3165,17.62
3176,18.76
3187,19.87
3199,21.1
3211,22.49
3223,23.96
3235,25.41
3247,26.76
3259,27.97
3271,29.07
3283,30.12
3295,31.16
3307,32.1
3319,32.78
3331,33.0
3343,32.58
3355,31.52
3366,29.97
3377,28.17
3389,26.33
3401,24.62
3413,23.03
3425,21.51
3437,20.0
3449,18.45
3461,16.87
3473,15.26
3485,13.68
3497,12.18
3509,10.84
3521,9.71
3533,8.77
3545,7.96
3556,7.19
3567,6.39
3579,5.52
3591,4.64
3603,3.75
3615,2.85
3627,1.81
3639,0.51
3651,-1.16
3663,-3.25
3675,-5.67
3687,-8.34
3699,-11.08
3711,-13.78
3723,-16.3
3735,-18.49
3746,-20.26
3757,-21.58
3769,-22.54
3781,-23.34
3793,-24.3
3805,-25.74
3817,-27.9
3829,-30.87
3841,-34.53
3853,-38.48
3865,-42.06
3877,-44.48
3889,-45.04
3901,-43.38
3913,-39.63
3925,-34.35
3936,-28.34
3947,-22.28
3959,-16.55
3971,-11.2
3983,-6.14
3995,-1.29
4007,3.25
4019,7.28
4031,10.58
4043,13.1
4055,14.94
4067,16.32
4079,17.44
4091,18.44
4103,19.4
4115,20.37
4126,21.4
4137,22.51
4149,23.7
4161,24.9
4173,25.98
4185,26.86
4197,27.45
4209,27.72
4221,27.72
4233,27.52
4245,27.2
4257,26.83
4269,26.42
4281,25.87
4293,25.06
4305,23.86
4316,22.2
4327,20.11
4339,17.74
4351,15.29
4363,12.93
4375,10.76
4387,8.81
4399,7.05
4411,5.46
4423,4.01
4435,2.65
4447,1.33
4459,-0.0
4471,-1.38
4483,-2.75
4495,-4.11
4506,-5.43
4517,-6.73
4529,-8.07
4541,-9.52
4553,-11.09
4565,-12.72
4577,-14.32
4589,-15.75
4601,-16.93
4613,-17.88
4625,-18.66
4637,-19.48
4649,-20.53
4661,-22.02
4673,-24.07
4685,-26.67
4696,-29.54
4707,-32.28
4719,-34.32
4731,-35.19
4743,-34.56
4755,-32.46
4767,-29.19
4779,-25.22
4791,-21.05
4803,-17.02
4815,-13.31
4827,-9.95
4839,-6.94
4851,-4.31
4863,-2.13
4875,-0.45
4886,0.76
4897,1.62
4909,2.35
4921,3.09
4933,3.91
4945,4.77
4957,5.6
4969,6.37
4981,7.1
4993,7.82
5005,8.53
5017,9.16
5029,9.6
5041,9.77
5053,9.65
5065,9.32
5076,8.91
5087,8.53
5099,8.19
5111,7.81
5123,7.31
5135,6.66
5147,5.91
5159,5.12
5171,4.31
5183,3.45
5195,2.51
5207,1.48
5219,0.47
5231,-0.39
5243,-1.03
5255,-1.48
5266,-1.91
5277,-2.61
5289,-3.72
5301,-5.29
5313,-7.19
5325,-9.18
5337,-11.02
5349,-12.58
5361,-13.81
5373,-14.8
5385,-15.73
5397,-16.8
5409,-18.19
5421,-19.93
5433,-21.86
5445,-23.59
5456,-24.67
5467,-24.65
5479,-23.29
5491,-20.68
5503,-17.17
5515,-13.28
5527,-9.51
5539,-6.22
5551,-3.51
5563,-1.3
5575,0.58
5587,2.33
5599,4.05
5611,5.75
5623,7.34
5635,8.71
5646,9.75
5657,10.38
5669,10.64
5681,10.64
5693,10.59
5705,10.64
5717,10.95
5729,11.51
5741,12.23
5753,12.95
5765,13.55
5777,13.93
5789,14.03
5801,13.83
5813,13.34
5825,12.64
5836,11.78
5847,10.9
5859,10.06
5871,9.32
5883,8.61
5895,7.85
5907,6.96
5919,5.93
5931,4.82
5943,3.79
5955,2.94
5967,2.34
5979,1.88
5991,1.33
6003,0.46
6015,-0.89
6026,-2.73
6037,-4.9
6049,-7.14
6061,-9.23
6073,-10.98
6085,-12.33
6097,-13.25
6109,-13.76
6121,-13.86
6133,-13.64
6145,-13.22
6157,-12.81
6169,-12.6
6181,-12.72
6193,-13.2
6205,-13.95
6216,-14.81
6227,-15.61
6239,-16.23
6251,-16.56
6263,-16.49
6275,-15.92
6287,-14.71
6299,-12.79
6311,-10.19
6323,-7.05
6335,-3.66
6347,-0.37
6359,2.54
6371,4.84
6383,6.42
6395,7.25
6406,7.37
6417,6.9
6429,6.03
6441,5.0
6453,4.01
6465,3.18
6477,2.5
6489,1.92
6501,1.37
6513,0.82
6525,0.31
6537,-0.11
6549,-0.39
6561,-0.53
6573,-0.52
6585,-0.33
6596,0.01
6607,0.42
6619,0.73
6631,0.71
6643,0.25
6655,-0.67
6667,-1.84
6679,-3.01
6691,-3.97
6703,-4.6
6715,-4.9
6727,-4.93
6739,-4.74
6751,-4.3
6763,-3.61
6775,-2.7
6786,-1.7
6797,-0.8
6809,-0.17
6821,0.11
6833,0.09
6845,-0.11
6857,-0.38
6869,-0.71
6881,-1.15
6893,-1.79
6905,-2.68
6917,-3.75
6929,-4.83
6941,-5.75
6953,-6.44
6965,-6.94
6976,-7.39
6987,-7.92
6999,-8.62
7011,-9.48
7023,-10.49
7035,-11.66
7047,-13.01
7059,-14.52
7071,-16.05
7083,-17.42
7095,-18.37
7107,-18.82
7119,-18.81
7131,-18.53
7143,-18.22
7155,-17.98
7166,-17.8
7177,-17.48
7189,-16.86
7201,-15.85
7213,-14.43
7225,-12.71
7237,-10.72
7249,-8.49
7261,-5.96
7273,-3.09
7285,0.08
7297,3.43
7309,6.76
7321,9.86
7333,12.55
7345,14.72
7356,16.33
7367,17.36
7379,17.79
7391,17.7
7403,17.24
7415,16.62
7427,16.08
7439,15.78
7451,15.79
7463,16.03
7475,16.36
7487,16.58
7499,16.51
7511,16.07
7523,15.17
7535,13.86
7546,12.2
7557,10.39
7569,8.6
7581,6.95
7593,5.47
7605,4.05
7617,2.57
7629,0.92
7641,-0.91
7653,-2.79
7665,-4.57
7677,-6.11
7689,-7.4
7701,-8.58
7713,-9.86
7725,-11.51
7736,-13.71
7747,-16.48
7759,-19.6
7771,-22.7
7783,-25.32
7795,-27.03
7807,-27.51
7819,-26.7
7831,-24.66
7843,-21.67
7855,-18.04
7867,-14.12
7879,-10.2
7891,-6.46
7903,-3.0
7915,0.12
7926,2.84
7937,5.14
7949,7.0
7961,8.43
7973,9.5
7985,10.35
7997,11.08
8009,11.82
8021,12.65
8033,13.57
8045,14.54
8057,15.44
8069,16.19
8081,16.71
8093,17.01
8105,17.15
8116,17.22
8127,17.25
8139,17.2
8151,16.99
8163,16.56
8175,15.91
8187,15.11
8199,14.28
8211,13.47
8223,12.64
8235,11.72
8247,10.61
8259,9.32
8271,7.91
8283,6.42
8295,4.85
8306,3.17
8317,1.34
8329,-0.59
8341,-2.49
8353,-4.24
8365,-5.81
8377,-7.29
8389,-8.86
8401,-10.74
8413,-12.97
8425,-15.47
8437,-18.01
8449,-20.34
8461,-22.27
8473,-23.66
8485,-24.41
8496,-24.45
8507,-23.7
8519,-22.09
8531,-19.57
8543,-16.23
8555,-12.27
8567,-7.98
8579,-3.72
8591,0.21
8603,3.6
8615,6.44
8627,8.81
8639,10.9
8651,12.86
8663,14.72
8675,16.45
8686,17.97
8697,19.24
8709,20.28
8721,21.16
8733,21.9
8745,22.44
8757,22.65
8769,22.39
8781,21.56
8793,20.24
8805,18.61
8817,16.91
8829,15.42
8841,14.27
8853,13.51
8865,13.11
8876,12.95
8887,12.88
8899,12.77
8911,12.49
8923,11.94
8935,11.03
8947,9.78
8959,8.35
8971,6.96
8983,5.78
8995,4.9
9007,4.19
9019,3.47
9031,2.57
9043,1.46
9055,0.26
9066,-0.86
9077,-1.8
9089,-2.61
9101,-3.39
9113,-4.25
9125,-5.18
9137,-6.1
9149,-6.91
9161,-7.54
9173,-8.01
9185,-8.4
9197,-8.8
9209,-9.27
9221,-9.92
9233,-10.85
9245,-12.19
9256,-14.02
9267,-16.31
9279,-18.84
9291,-21.35
9303,-23.53
9315,-25.13
9327,-25.99
9339,-26.01
9351,-25.16
9363,-23.46
9375,-20.92
9387,-17.67
9399,-13.87
9411,-9.8
9423,-5.77
9435,-2.14
9446,0.89
9457,3.26
9469,5.05
9481,6.42
9493,7.53
9505,8.48
9517,9.33
9529,10.13
9541,10.95
9553,11.85
9565,12.77
9577,13.56
9589,14.05
9601,14.06
9613,13.65
9625,12.98
9636,12.32
9647,11.82
9659,11.47
9671,11.08
9683,10.43
9695,9.44
9707,8.22
9719,6.99
9731,5.96
9743,5.23
9755,4.75
9767,4.38
9779,4.03
9791,3.64
9803,3.18
9815,2.64
9826,2.01
9837,1.25
9849,0.38
9861,-0.58
9873,-1.59
9885,-2.6
9897,-3.63
9909,-4.66
9921,-5.69
9933,-6.67
9945,-7.52
9957,-8.23
9969,-8.83
9981,-9.44
9993,-10.14
10005,-10.89
10016,-11.57
10027,-12.07
10039,-12.32
10051,-12.48
10063,-12.83
10075,-13.71
10087,-15.31
10099,-17.48
10111,-19.71
10123,-21.34
10135,-21.82
10147,-20.95
10159,-18.89
10171,-16.08
10183,-12.95
10195,-9.74
10206,-6.54
10217,-3.33
10229,-0.19
10241,2.72
10253,5.16
10265,6.99
10277,8.25
10289,9.18
10301,10.03
10313,10.92
10325,11.81
10337,12.48
10349,12.72
10361,12.5
10373,11.96
10385,11.35
10396,10.92
10407,10.74
10419,10.72
10431,10.67
10443,10.38
10455,9.77
10467,8.93
10479,8.05
10491,7.3
10503,6.79
10515,6.45
10527,6.14
10539,5.73
10551,5.14
10563,4.42
10575,3.67
10586,3.0
10597,2.5
10609,2.19
10621,2.01
10633,1.89
10645,1.72
10657,1.43
10669,1.01
10681,0.5
10693,-0.04
10705,-0.57
10717,-1.04
10729,-1.49
10741,-1.98
10753,-2.59
10765,-3.37
10776,-4.34
10787,-5.49
10799,-6.81
10811,-8.27
10823,-9.87
10835,-11.55
10847,-13.18
10859,-14.58
10871,-15.53
10883,-15.89
10895,-15.62
10907,-14.72
10919,-13.26
10931,-11.34
10943,-9.07
10955,-6.59
10966,-4.04
10977,-1.61
10989,0.55
11001,2.31
11013,3.66
11025,4.68
11037,5.53
11049,6.35
11061,7.23
11073,8.15
11085,8.99
11097,9.59
11109,9.83
11121,9.69
11133,9.3
11145,8.83
11156,8.43
11167,8.15
11179,7.91
11191,7.61
11203,7.17
11215,6.62
11227,6.07
11239,5.62
11251,5.34
11263,5.17
11275,5.06
11287,4.91
11299,4.66
11311,4.32
11323,3.94
11335,3.6
11346,3.38
11357,3.29
11369,3.27
11381,3.19
11393,2.94
11405,2.5
11417,1.97
11429,1.55
11441,1.39
11453,1.5
11465,1.71
11477,1.73
11489,1.32
11501,0.36
11513,-1.02
11525,-2.55
11536,-3.94
11547,-5.03
11559,-5.88
11571,-6.67
11583,-7.64
11595,-8.9
11607,-10.37
11619,-11.8
11631,-12.92
11643,-13.46
11655,-13.36
11667,-12.62
11679,-11.37
11691,-9.73
11703,-7.86
11715,-5.84
11726,-3.79
11737,-1.8
11749,0.05
11761,1.69
11773,3.03
11785,3.97
11797,4.44
11809,4.44
11821,4.11
11833,3.67
11845,3.37
11857,3.41
11869,3.82
11881,4.49
11893,5.19
11905,5.68
11916,5.78
11927,5.46
11939,4.85
11951,4.14
11963,3.54
11975,3.16
11987,3.01
11999,3.01
12011,3.1
12023,3.24
12035,3.43
12047,3.59
12059,3.63
12071,3.37
12083,2.72
12095,1.73
12106,0.6
12117,-0.4
12129,-1.09
12141,-1.48
12153,-1.76
12165,-2.14
12177,-2.7
12189,-3.33
12201,-3.73
12213,-3.68
12225,-3.13
12237,-2.33
12249,-1.65
12261,-1.41
12273,-1.71
12285,-2.38
12296,-3.13
12307,-3.73
12319,-4.14
12331,-4.53
12343,-5.13
12355,-6.05
12367,-7.2
12379,-8.32
12391,-9.1
12403,-9.34
12415,-9.02
12427,-8.23
12439,-7.12
12451,-5.81
12463,-4.41
12475,-3.02
12486,-1.76
12497,-0.71
12509,0.1
12521,0.7
12533,1.15
12545,1.47
12557,1.66
12569,1.7
12581,1.59
12593,1.42
12605,1.28
12617,1.31
12629,1.55
12641,1.92
12653,2.31
12665,2.6
12676,2.7
12687,2.69
12699,2.6
12711,2.52
12723,2.44
12735,2.29
12747,2.04
12759,1.73
12771,1.48
12783,1.45
12795,1.71
12807,2.17
12819,2.58
12831,2.62
12843,2.1
12855,1.04
12866,-0.25
12877,-1.41
12889,-2.12
12901,-2.33
12913,-2.21
12925,-2.06
12937,-2.13
12949,-2.47
12961,-2.88
12973,-3.11
12985,-2.95
12997,-2.42
13009,-1.75
13021,-1.27
13033,-1.25
13045,-1.78
13056,-2.76
13067,-3.93
13079,-5.09
13091,-6.07
13103,-6.83
13115,-7.36
13127,-7.64
13139,-7.59
13151,-7.11
13163,-6.17
13175,-4.82
13187,-3.24
13199,-1.68
13211,-0.4
13223,0.44
13235,0.82
13246,0.88
13257,0.75
13269,0.56
13281,0.3
13293,-0.09
13305,-0.64
13317,-1.25
13329,-1.68
13341,-1.67
13353,-1.1
13365,-0.1
13377,0.98
13389,1.67
13401,1.68
13413,0.97
13425,-0.18
13436,-1.35
13447,-2.16
13459,-2.48
13471,-2.39
13483,-2.15
13495,-1.97
13507,-1.94
13519,-1.98
13531,-1.88
13543,-1.47
13555,-0.76
13567,0.08
13579,0.76
13591,1.02
13603,0.8
13615,0.23
13626,-0.42
13637,-0.95
13649,-1.28
13661,-1.49
13673,-1.75
13685,-2.15
13697,-2.7
13709,-3.22
13721,-3.52
13733,-3.45
13745,-3.02
13757,-2.47
13769,-2.12
13781,-2.28
13793,-3.11
13805,-4.49
13816,-6.0
13827,-7.14
13839,-7.48
13851,-6.87
13863,-5.44
13875,-3.56
13887,-1.57
13899,0.33
13911,2.11
13923,3.83
13935,5.46
13947,6.83
13959,7.76
13971,8.11
13983,7.98
13995,7.62
14006,7.32
14017,7.24
14029,7.37
14041,7.55
14053,7.6
14065,7.45
14077,7.17
14089,6.88
14101,6.7
14113,6.64
14125,6.63
14137,6.54
14149,6.38
14161,6.2
14173,6.14
14185,6.25
14196,6.47
14207,6.6
14219,6.39
14231,5.66
14243,4.43
14255,2.93
14267,1.47
14279,0.35
14291,-0.35
14303,-0.72
14315,-0.93
14327,-1.18
14339,-1.53
14351,-2.0
14363,-2.52
14375,-3.02
14386,-3.47
14397,-3.87
14409,-4.3
14421,-4.84
14433,-5.6
14445,-6.68
14457,-8.02
14469,-9.5
14481,-10.84
14493,-11.76
14505,-12.05
14517,-11.65
14529,-10.62
14541,-9.11
14553,-7.29
14565,-5.27
14576,-3.2
14587,-1.29
14599,0.26
14611,1.22
14623,1.49
14635,1.05
14647,0.01
14659,-1.52
14671,-3.46
14683,-5.8
14695,-8.5
14707,-11.48
14719,-14.45
14731,-16.98
14743,-18.62
14755,-19.03
14766,-18.11
14777,-16.08
14789,-13.41
14801,-10.68
14813,-8.45
14825,-7.19
14837,-7.11
14849,-8.3
14861,-10.63
14873,-13.85
14885,-17.57
14897,-21.35
14909,-24.77
14921,-27.58
14933,-29.76
14945,-31.46
14956,-33.03
14967,-34.81
14979,-37.07
14991,-39.98
15003,-43.61
15015,-48.0
15027,-53.19
15039,-59.23
15051,-65.95
15063,-73.01
15075,-79.72
15087,-85.24
15099,-88.73
15111,-89.67
15123,-88.0
15135,-84.13
15146,-78.79
15157,-72.7
15169,-66.48
15181,-60.42
15193,-54.54
15205,-48.69
15217,-42.66
15229,-36.31
15241,-29.57
15253,-22.53
15265,-15.29
15277,-7.92
15289,-0.38
15301,7.5
15313,15.92
15325,24.87
15336,34.01
15347,42.63
15359,49.78
15371,54.64
15383,56.79
15395,56.42
15407,54.22
15419,51.13
15431,47.98
15443,45.3
15455,43.38
15467,42.31
15479,42.12
15491,42.75
15503,43.87
15515,44.86
15526,44.96
15537,43.7
15549,41.09
15561,37.73
15573,34.35
15585,31.21
15597,27.76
15609,22.67
15621,14.46
15633,2.4
15645,-13.09
15657,-30.34
15669,-46.93
15681,-60.57
15693,-69.68
15705,-73.75
15716,-73.28
15727,-69.46
15739,-63.69
15751,-57.2
15763,-50.91
15775,-45.46
15787,-41.37
15799,-39.19
15811,-39.33
15823,-41.83
15835,-46.05
15847,-50.54
15859,-53.43
15871,-52.99
15883,-48.34
15895,-39.83
15906,-28.84
15917,-17.15
15929,-6.22
15941,3.21
15953,11.18
15965,17.97
15977,23.74
15989,28.21
16001,30.86
16013,31.35
16025,29.82
16037,27.03
16049,24.03
16061,21.71
16073,20.4
16085,19.83
16096,19.33
16107,18.27
16119,16.3
16131,13.41
16143,9.89
16155,6.02
16167,2.1
16179,-1.6
16191,-4.7
16203,-6.77
16215,-7.32
16227,-6.09
16239,-3.17
16251,0.91
16263,5.37
16275,9.48
16286,12.8
16297,15.34
16309,17.37
16321,19.27
16333,21.21
16345,23.2
16357,25.16
16369,27.13
16381,29.38
16393,32.34
16405,36.34
16417,41.36
16429,46.88
16441,52.05
16453,55.93
16465,57.9
16476,57.75
16487,55.71
16499,52.17
16511,47.49
16523,41.91
16535,35.56
16547,28.61
16559,21.39
16571,14.34
16583,7.9
16595,2.34
16607,-2.36
16619,-6.53
16631,-10.64
16643,-15.16
16655,-20.42
16666,-26.41
16677,-32.82
16689,-39.11
16701,-44.55
16713,-48.44
16725,-50.17
16737,-49.38
16749,-46.01
16761,-40.33
16773,-32.91
16785,-24.47
16797,-15.72
16809,-7.21
16821,0.76
16833,8.06
16845,14.67
16856,20.49
16867,25.34
16879,29.02
16891,31.43
16903,32.65
16915,32.94
16927,32.63
16939,32.03
16951,31.4
16963,30.94
16975,30.82
16987,31.17
16999,32.05
17011,33.39
17023,34.96
17035,36.43
17046,37.42
17057,37.62
17069,36.84
17081,35.01
17093,32.25
17105,28.76
17117,24.82
17129,20.74
17141,16.7
17153,12.7
17165,8.53
17177,3.85
17189,-1.73
17201,-8.42
17213,-16.17
17225,-24.59
17236,-32.95
17247,-40.32
17259,-45.72
17271,-48.33
17283,-47.67
17295,-43.73
17307,-36.9
17319,-27.94
17331,-17.79
17343,-7.41
17355,2.4
17367,11.07
17379,18.36
17391,24.29
17403,29.01
17415,32.74
17426,35.61
17437,37.73
17449,39.27
17461,40.47
17473,41.65
17485,43.13
17497,45.07
17509,47.38
17521,49.84
17533,52.2
17545,54.36
17557,56.39
17569,58.38
17581,60.38
17593,62.18
17605,63.47
17616,63.95
17627,63.54
17639,62.45
17651,61.09
17663,59.88
17675,59.02
17687,58.41
17699,57.7
17711,56.47
17723,54.42
17735,51.45
17747,47.68
17759,43.35
17771,38.71
17783,33.93
17795,29.09
17806,24.11
17817,18.87
17829,13.19
17841,6.95
17853,0.11
17865,-7.18
17877,-14.52
17889,-21.31
17901,-26.84
17913,-30.43
17925,-31.66
17937,-30.45
17949,-27.09
17961,-22.14
17973,-16.26
17985,-10.05
17996,-3.96
18007,1.74
18019,6.79
18031,10.95
18043,13.98
18055,15.7
18067,16.12
18079,15.52
18091,14.41
18103,13.33
18115,12.69
18127,12.58
18139,12.78
18151,12.95
18163,12.8
18175,12.33
18186,11.76
18197,11.48
18209,11.74
18221,12.61
18233,13.89
18245,15.28
18257,16.51
18269,17.46
18281,18.19
18293,18.8
18305,19.38
18317,19.98
18329,20.62
18341,21.32
18353,22.06
18365,22.81
18376,23.43
18387,23.74
18399,23.57
18411,22.84
18423,21.63
18435,20.1
18447,18.42
18459,16.66
18471,14.72
18483,12.41
18495,9.51
18507,5.87
18519,1.53
18531,-3.27
18543,-8.06
18555,-12.25
18566,-15.18
18577,-16.31
18589,-15.32
18601,-12.2
18613,-7.3
18625,-1.22
18637,5.38
18649,11.89
18661,17.92
18673,23.2
18685,27.6
18697,31.03
18709,33.4
18721,34.66
18733,34.85
18745,34.16
18756,32.88
18767,31.31
18779,29.73
18791,28.28
18803,27.03
18815,25.98
18827,25.11
18839,24.42
18851,23.89
18863,23.46
18875,23.08
18887,22.72
18899,22.36
18911,22.04
18923,21.78
18935,21.5
18946,21.07
18957,20.29
18969,19.03
18981,17.28
18993,15.2
19005,13.06
19017,11.06
19029,9.31
19041,7.7
19053,6.05
19065,4.18
19077,2.01
19089,-0.46
19101,-3.15
19113,-6.01
19125,-8.98
19136,-12.02
19147,-15.07
19159,-18.11
19171,-21.15
19183,-24.35
19195,-27.86
19207,-31.77
19219,-35.88
19231,-39.68
19243,-42.43
19255,-43.38
19267,-42.05
19279,-38.42
19291,-32.97
19303,-26.44
19315,-19.63
19326,-13.16
19337,-7.34
19349,-2.25
19361,2.16
19373,5.91
19385,8.97
19397,11.23
19409,12.69
19421,13.4
19433,13.51
19445,13.22
19457,12.69
19469,12.01
19481,11.21
19493,10.32
19505,9.41
19516,8.64
19527,8.14
19539,7.98
19551,8.08
19563,8.24
19575,8.16
19587,7.6
19599,6.39
19611,4.59
19623,2.34
19635,-0.14
19647,-2.69
19659,-5.27
19671,-7.91
19683,-10.66
19695,-13.5
19706,-16.28
19717,-18.8
19729,-20.88
19741,-22.43
19753,-23.51
19765,-24.24
19777,-24.79
19789,-25.27
19801,-25.81
19813,-26.51
19825,-27.48
19837,-28.74
19849,-30.14
19861,-31.31
19873,-31.76
19885,-31.02
19896,-28.83
19907,-25.23
19919,-20.53
19931,-15.16
19943,-9.57
19955,-4.09
19967,1.03
19979,5.58
19991,9.42
20003,12.44
20015,14.64
20027,16.07
20039,16.87
20051,17.23
20063,17.33
20075,17.38
20086,17.54
20097,17.87
20109,18.36
20121,18.88
20133,19.24
20145,19.33
20157,19.12
20169,18.72
20181,18.2
20193,17.59
20205,16.76
20217,15.55
20229,13.85
20241,11.7
20253,9.27
20265,6.8
20276,4.51
20287,2.48
20299,0.7
20311,-0.96
20323,-2.62
20335,-4.38
20347,-6.27
20359,-8.25
20371,-10.29
20383,-12.31
20395,-14.26
20407,-16.13
20419,-17.98
20431,-19.88
20443,-21.96
20455,-24.28
20466,-26.83
20477,-29.47
20489,-31.91
20501,-33.77
20513,-34.65
20525,-34.21
20537,-32.32
20549,-29.07
20561,-24.79
20573,-19.9
20585,-14.8
20597,-9.78
20609,-5.03
20621,-0.65
20633,3.21
20645,6.46
20656,9.05
20667,11.03
20679,12.54
20691,13.74
20703,14.76
20715,15.64
20727,16.36
20739,16.93
20751,17.4
20763,17.91
20775,18.54
20787,19.33
20799,20.23
20811,21.1
20823,21.76
20835,22.0
20846,21.64
20857,20.52
20869,18.6
20881,15.94
20893,12.77
20905,9.31
20917,5.77
20929,2.25
20941,-1.23
20953,-4.63
20965,-7.87
20977,-10.84
20989,-13.41
