seconds,BVP
8,-3.93
20,-4.63
32,-5.59
44,-6.65
56,-7.57
68,-8.21
80,-8.55
92,-8.7
104,-8.85
116,-9.12
128,-9.54
140,-10.1
151,-10.73
162,-11.36
174,-11.89
186,-12.15
198,-11.96
210,-11.13
222,-9.57
234,-7.35
246,-4.69
258,-1.94
270,0.57
282,2.56
294,3.92
306,4.69
318,5.04
330,5.19
341,5.28
352,5.39
364,5.51
376,5.57
388,5.51
400,5.33
412,5.12
424,5.0
436,5.06
448,5.31
460,5.65
472,5.97
484,6.21
496,6.36
508,6.54
520,6.82
531,7.18
542,7.48
554,7.47
566,6.98
578,5.99
590,4.66
602,3.3
614,2.16
626,1.37
638,0.88
650,0.54
662,0.2
674,-0.2
686,-0.65
698,-1.09
710,-1.48
721,-1.8
732,-2.06
744,-2.24
756,-2.33
768,-2.34
780,-2.32
792,-2.38
804,-2.65
816,-3.21
828,-4.03
840,-5.02
852,-6.02
864,-6.91
876,-7.65
888,-8.28
900,-8.9
911,-9.57
922,-10.28
934,-10.92
946,-11.27
958,-11.12
970,-10.3
982,-8.71
994,-6.44
1006,-3.68
1018,-0.74
1030,2.02
1042,4.32
1054,6.01
1066,7.08
1078,7.67
1090,7.94
1101,8.04
1112,8.03
1124,7.91
1136,7.69
1148,7.37
1160,7.03
1172,6.75
1184,6.59
1196,6.54
1208,6.54
1220,6.5
1232,6.35
1244,6.1
1256,5.82
1268,5.59
1280,5.49
1291,5.54
1302,5.72
1314,5.96
1326,6.2
1338,6.41
1350,6.52
1362,6.52
1374,6.37
1386,5.99
1398,5.38
1410,4.55
1422,3.58
1434,2.57
1446,1.64
1458,0.84
1470,0.16
1481,-0.43
1492,-0.97
1504,-1.5
1516,-2.0
1528,-2.45
1540,-2.82
1552,-3.14
1564,-3.46
1576,-3.8
1588,-4.17
1600,-4.51
1612,-4.74
1624,-4.83
1636,-4.82
1648,-4.8
1660,-4.9
1671,-5.22
1682,-5.78
1694,-6.56
1706,-7.53
1718,-8.63
1730,-9.77
1742,-10.83
1754,-11.57
1766,-11.73
1778,-11.07
1790,-9.49
1802,-7.12
1814,-4.3
1826,-1.43
1838,1.12
1850,3.14
1861,4.58
1872,5.52
1884,6.09
1896,6.39
1908,6.49
1920,6.41
1932,6.19
1944,5.87
1956,5.5
1968,5.1
1980,4.74
1992,4.44
2004,4.24
2016,4.2
2028,4.36
2040,4.73
2051,5.3
2062,5.98
2074,6.62
2086,7.06
2098,7.17
2110,6.93
2122,6.41
2134,5.75
2146,5.1
2158,4.58
2170,4.21
2182,3.92
2194,3.63
2206,3.23
2218,2.71
2230,2.09
2241,1.45
2252,0.84
2264,0.3
2276,-0.18
2288,-0.66
2300,-1.18
2312,-1.79
2324,-2.47
2336,-3.12
2348,-3.7
2360,-4.17
2372,-4.55
2384,-4.93
2396,-5.4
2408,-5.98
2420,-6.65
2431,-7.31
2442,-7.88
2454,-8.33
2466,-8.64
2478,-8.87
2490,-9.06
2502,-9.3
2514,-9.68
2526,-10.29
2538,-11.18
2550,-12.26
2562,-13.3
2574,-13.95
2586,-13.87
2598,-12.87
2610,-10.98
2621,-8.42
2632,-5.52
2644,-2.62
2656,0.04
2668,2.31
2680,4.1
2692,5.42
2704,6.32
2716,6.91
2728,7.29
2740,7.51
2752,7.58
2764,7.49
2776,7.19
2788,6.72
2800,6.15
2811,5.58
2822,5.11
2834,4.8
2846,4.63
2858,4.62
2870,4.72
2882,4.92
2894,5.19
2906,5.48
2918,5.78
2930,6.03
2942,6.2
2954,6.29
2966,6.28
2978,6.12
2990,5.79
3001,5.28
3012,4.64
3024,3.94
3036,3.26
3048,2.64
3060,2.08
3072,1.48
3084,0.77
3096,-0.07
3108,-0.94
3120,-1.67
3132,-2.06
3144,-2.03
3156,-1.69
3168,-1.25
3180,-1.02
3191,-1.2
3202,-1.82
3214,-2.74
3226,-3.78
3238,-4.77
3250,-5.62
3262,-6.36
3274,-7.0
3286,-7.59
3298,-8.14
3310,-8.71
3322,-9.37
3334,-10.18
3346,-11.1
3358,-11.96
3370,-12.51
3381,-12.43
3392,-11.53
3404,-9.77
3416,-7.31
3428,-4.48
3440,-1.62
3452,0.99
3464,3.16
3476,4.81
3488,5.98
3500,6.72
3512,7.16
3524,7.41
3536,7.6
3548,7.77
3560,7.91
3571,7.92
3582,7.7
3594,7.24
3606,6.61
3618,6.03
3630,5.67
3642,5.6
3654,5.75
3666,5.89
3678,5.83
3690,5.52
3702,5.04
3714,4.56
3726,4.23
3738,4.06
3750,3.92
3761,3.66
3772,3.22
3784,2.64
3796,2.02
3808,1.46
3820,0.97
3832,0.48
3844,-0.04
3856,-0.64
3868,-1.26
3880,-1.84
3892,-2.33
3904,-2.74
3916,-3.1
3928,-3.45
3940,-3.79
3951,-4.07
3962,-4.25
3974,-4.33
3986,-4.33
3998,-4.34
4010,-4.41
4022,-4.55
4034,-4.77
4046,-5.07
4058,-5.44
4070,-5.88
4082,-6.36
4094,-6.82
4106,-7.22
4118,-7.59
4130,-8.01
4141,-8.61
4152,-9.43
4164,-10.42
4176,-11.37
4188,-11.98
4200,-11.98
4212,-11.19
4224,-9.59
4236,-7.32
4248,-4.62
4260,-1.77
4272,0.97
4284,3.37
4296,5.3
4308,6.72
4320,7.65
4331,8.19
4342,8.42
4354,8.44
4366,8.3
4378,8.03
4390,7.65
4402,7.19
4414,6.67
4426,6.16
4438,5.68
4450,5.29
4462,5.02
4474,4.92
4486,5.02
4498,5.34
4510,5.83
4521,6.42
4532,7.01
4544,7.47
4556,7.72
4568,7.73
4580,7.5
4592,7.09
4604,6.6
4616,6.11
4628,5.7
4640,5.41
4652,5.27
4664,5.22
4676,5.16
4688,4.98
4700,4.57
4711,3.89
4722,3.01
4734,2.09
4746,1.29
4758,0.76
4770,0.54
4782,0.52
4794,0.58
4806,0.51
4818,0.19
4830,-0.44
4842,-1.36
4854,-2.45
4866,-3.56
4878,-4.49
4890,-5.11
4901,-5.37
4912,-5.34
4924,-5.21
4936,-5.22
4948,-5.56
4960,-6.3
4972,-7.32
4984,-8.33
4996,-8.97
5008,-8.93
5020,-7.99
5032,-6.21
5044,-3.87
5056,-1.38
5068,0.88
5080,2.7
5091,4.08
5102,5.15
5114,6.03
5126,6.72
5138,7.07
5150,6.93
5162,6.27
5174,5.23
5186,4.11
5198,3.2
5210,2.66
5222,2.49
5234,2.55
5246,2.71
5258,2.95
5270,3.27
5281,3.72
5292,4.25
5304,4.74
5316,5.06
5328,5.08
5340,4.79
5352,4.2
5364,3.36
5376,2.32
5388,1.11
5400,-0.2
5412,-1.47
5424,-2.58
5436,-3.41
5448,-3.93
5460,-4.22
5471,-4.38
5482,-4.5
5494,-4.63
5506,-4.73
5518,-4.74
5530,-4.62
5542,-4.39
5554,-4.12
5566,-3.95
5578,-3.97
5590,-4.2
5602,-4.62
5614,-5.13
5626,-5.67
5638,-6.19
5650,-6.74
5661,-7.38
5672,-8.19
5684,-9.15
5696,-10.13
5708,-10.88
5720,-11.14
5732,-10.65
5744,-9.3
5756,-7.12
5768,-4.33
5780,-1.3
5792,1.61
5804,4.07
5816,5.91
5828,7.11
5840,7.8
5851,8.14
5862,8.23
5874,8.15
5886,7.88
5898,7.42
5910,6.78
5922,6.04
5934,5.31
5946,4.71
5958,4.33
5970,4.23
5982,4.46
5994,4.97
6006,5.71
6018,6.55
6030,7.33
6041,7.9
6052,8.14
6064,7.97
6076,7.38
6088,6.39
6100,5.09
6112,3.64
6124,2.2
6136,0.98
6148,0.12
6160,-0.37
6172,-0.56
6184,-0.62
6196,-0.75
6208,-1.04
6220,-1.51
6231,-2.07
6242,-2.6
6254,-3.03
6266,-3.36
6278,-3.64
6290,-3.95
6302,-4.37
6314,-4.93
6326,-5.64
6338,-6.46
6350,-7.38
6362,-8.36
6374,-9.39
6386,-10.44
6398,-11.5
6410,-12.51
6421,-13.36
6432,-13.88
6444,-13.83
6456,-13.02
6468,-11.36
6480,-8.92
6492,-6.0
6504,-2.96
6516,-0.17
6528,2.11
6540,3.83
6552,5.1
6564,6.06
6576,6.86
6588,7.52
6600,8.0
6611,8.23
6622,8.17
6634,7.87
6646,7.45
6658,7.04
6670,6.73
6682,6.57
6694,6.54
6706,6.6
6718,6.69
6730,6.76
6742,6.82
6754,6.84
6766,6.83
6778,6.74
6790,6.52
6801,6.1
6812,5.43
6824,4.55
6836,3.58
6848,2.62
6860,1.8
6872,1.12
6884,0.52
6896,-0.08
6908,-0.74
6920,-1.43
6932,-2.07
6944,-2.57
6956,-2.88
6968,-3.03
6980,-3.14
6991,-3.36
7002,-3.77
7014,-4.39
7026,-5.16
7038,-5.97
7050,-6.77
7062,-7.55
7074,-8.34
7086,-9.19
7098,-10.11
7110,-11.09
7122,-12.07
7134,-12.95
7146,-13.61
7158,-13.89
7170,-13.6
7181,-12.59
7192,-10.81
7204,-8.31
7216,-5.33
7228,-2.16
7240,0.89
7252,3.62
7264,5.9
7276,7.72
7288,9.09
7300,10.02
7312,10.5
7324,10.55
7336,10.21
7348,9.56
7360,8.72
7371,7.82
7382,6.98
7394,6.28
7406,5.73
7418,5.38
7430,5.23
7442,5.31
7454,5.59
7466,5.97
7478,6.31
7490,6.48
7502,6.4
7514,6.14
7526,5.8
7538,5.5
7550,5.25
7561,4.97
7572,4.53
7584,3.85
7596,2.98
7608,2.06
7620,1.23
7632,0.53
7644,-0.1
7656,-0.77
7668,-1.57
7680,-2.5
7692,-3.49
7704,-4.44
7716,-5.24
7728,-5.9
7740,-6.44
7751,-6.99
7762,-7.63
7774,-8.44
7786,-9.46
7798,-10.65
7810,-11.94
7822,-13.18
7834,-14.2
7846,-14.79
7858,-14.75
7870,-13.9
7882,-12.19
7894,-9.7
7906,-6.69
7918,-3.51
7930,-0.51
7941,2.07
7952,4.1
7964,5.61
7976,6.66
7988,7.31
8000,7.63
8012,7.68
8024,7.55
8036,7.34
8048,7.14
8060,6.99
8072,6.88
8084,6.7
8096,6.38
8108,5.93
8120,5.39
8131,4.89
8142,4.55
8154,4.44
8166,4.54
8178,4.73
8190,4.87
8202,4.81
8214,4.47
8226,3.84
8238,2.95
8250,1.94
8262,0.95
8274,0.13
8286,-0.42
8298,-0.69
8310,-0.81
8321,-0.96
8332,-1.36
8344,-2.12
8356,-3.19
8368,-4.39
8380,-5.5
8392,-6.37
8404,-7.02
8416,-7.59
8428,-8.23
8440,-9.06
8452,-10.06
8464,-11.1
8476,-12.05
8488,-12.76
8500,-13.11
8511,-12.98
8522,-12.23
8534,-10.75
8546,-8.49
8558,-5.54
8570,-2.17
8582,1.27
8594,4.42
8606,7.0
8618,8.89
8630,10.11
8642,10.8
8654,11.11
8666,11.19
8678,11.12
8690,10.92
8701,10.58
8712,10.06
8724,9.39
8736,8.66
8748,8.0
8760,7.53
8772,7.33
8784,7.38
8796,7.63
8808,8.02
8820,8.5
8832,8.99
8844,9.39
8856,9.55
8868,9.34
8880,8.72
8891,7.77
8902,6.67
8914,5.64
8926,4.82
8938,4.23
8950,3.81
8962,3.43
8974,2.96
8986,2.32
8998,1.53
9010,0.61
9022,-0.31
9034,-1.08
9046,-1.58
9058,-1.78
9070,-1.75
9081,-1.67
9092,-1.7
9104,-1.97
9116,-2.46
9128,-3.09
9140,-3.77
9152,-4.45
9164,-5.17
9176,-5.94
9188,-6.75
9200,-7.57
9212,-8.34
9224,-9.05
9236,-9.77
9248,-10.59
9260,-11.63
9271,-12.89
9282,-14.24
9294,-15.42
9306,-16.11
9318,-16.0
9330,-14.89
9342,-12.75
9354,-9.76
9366,-6.26
9378,-2.65
9390,0.7
9402,3.52
9414,5.74
9426,7.39
9438,8.58
9450,9.43
9461,10.04
9472,10.43
9484,10.62
9496,10.58
9508,10.27
9520,9.7
9532,8.95
9544,8.13
9556,7.43
9568,6.98
9580,6.87
9592,7.06
9604,7.46
9616,7.92
9628,8.31
9640,8.5
9651,8.41
9662,8.0
9674,7.26
9686,6.28
9698,5.16
9710,4.06
9722,3.08
9734,2.28
9746,1.65
9758,1.11
9770,0.62
9782,0.17
9794,-0.24
9806,-0.59
9818,-0.86
9830,-1.06
9841,-1.16
9852,-1.15
9864,-1.05
9876,-0.89
9888,-0.71
9900,-0.61
9912,-0.64
9924,-0.86
9936,-1.25
9948,-1.8
9960,-2.47
9972,-3.23
9984,-4.03
9996,-4.84
10008,-5.61
10020,-6.3
10031,-6.89
10042,-7.36
10054,-7.75
10066,-8.1
10078,-8.5
10090,-9.01
10102,-9.69
10114,-10.58
10126,-11.65
10138,-12.82
10150,-13.92
10162,-14.71
10174,-14.92
10186,-14.32
10198,-12.79
10210,-10.37
10221,-7.29
10232,-3.84
10244,-0.4
10256,2.73
10268,5.34
10280,7.33
10292,8.72
10304,9.58
10316,9.99
10328,10.05
10340,9.84
10352,9.46
10364,9.0
10376,8.53
10388,8.07
10400,7.65
10411,7.22
10422,6.76
10434,6.31
10446,5.9
10458,5.62
10470,5.52
10482,5.59
10494,5.81
10506,6.08
10518,6.32
10530,6.44
10542,6.36
10554,6.05
10566,5.53
10578,4.87
10590,4.18
10601,3.53
10612,2.94
10624,2.36
10636,1.71
10648,0.93
10660,0.04
10672,-0.88
10684,-1.74
10696,-2.44
10708,-2.95
10720,-3.29
10732,-3.48
10744,-3.56
10756,-3.59
10768,-3.66
10780,-3.85
10791,-4.22
10802,-4.74
10814,-5.35
10826,-5.95
10838,-6.48
10850,-6.96
10862,-7.45
10874,-8.06
10886,-8.86
10898,-9.86
10910,-10.99
10922,-12.12
10934,-13.12
10946,-13.86
10958,-14.22
10970,-14.11
10981,-13.48
10992,-12.25
11004,-10.41
11016,-8.0
11028,-5.13
11040,-2.01
11052,1.07
11064,3.78
11076,5.88
11088,7.26
11100,7.96
11112,8.15
11124,8.04
11136,7.77
11148,7.41
11160,6.94
11171,6.36
11182,5.71
11194,5.12
11206,4.75
11218,4.73
11230,5.0
11242,5.44
11254,5.82
11266,6.0
11278,5.92
11290,5.66
11302,5.35
11314,5.07
11326,4.87
11338,4.69
11350,4.51
11361,4.32
11372,4.11
11384,3.89
11396,3.59
11408,3.19
11420,2.67
11432,2.07
11444,1.47
11456,0.92
11468,0.43
11480,-0.08
11492,-0.65
11504,-1.3
11516,-1.94
11528,-2.5
11540,-2.93
11551,-3.26
11562,-3.6
11574,-4.04
11586,-4.61
11598,-5.26
11610,-5.91
11622,-6.5
11634,-7.0
11646,-7.45
11658,-7.89
11670,-8.35
11682,-8.87
11694,-9.44
11706,-10.1
11718,-10.84
11730,-11.63
11741,-12.4
11752,-12.95
11764,-13.05
11776,-12.46
11788,-11.06
11800,-8.88
11812,-6.13
11824,-3.14
11836,-0.25
11848,2.25
11860,4.25
11872,5.73
11884,6.76
11896,7.44
11908,7.83
11920,7.99
11931,7.95
11942,7.76
11954,7.46
11966,7.1
11978,6.72
11990,6.34
12002,5.97
12014,5.64
12026,5.39
12038,5.29
12050,5.4
12062,5.78
12074,6.33
12086,6.93
12098,7.37
12110,7.47
12121,7.19
12132,6.6
12144,5.87
12156,5.15
12168,4.55
12180,4.09
12192,3.74
12204,3.46
12216,3.25
12228,3.06
12240,2.84
12252,2.53
12264,2.04
12276,1.37
12288,0.56
12300,-0.3
12311,-1.12
12322,-1.87
12334,-2.54
12346,-3.15
12358,-3.67
12370,-4.08
12382,-4.36
12394,-4.55
12406,-4.75
12418,-5.04
12430,-5.5
12442,-6.09
12454,-6.78
12466,-7.54
12478,-8.36
12490,-9.29
12501,-10.3
12512,-11.36
12524,-12.38
12536,-13.26
12548,-13.91
12560,-14.25
12572,-14.17
12584,-13.57
12596,-12.31
12608,-10.33
12620,-7.7
12632,-4.65
12644,-1.53
12656,1.32
12668,3.63
12680,5.3
12691,6.41
12702,7.1
12714,7.58
12726,7.95
12738,8.29
12750,8.57
12762,8.74
12774,8.8
12786,8.76
12798,8.7
12810,8.68
12822,8.75
12834,8.9
12846,9.08
12858,9.23
12870,9.29
12881,9.28
12892,9.2
12904,9.08
12916,8.87
12928,8.49
12940,7.84
12952,6.87
12964,5.63
12976,4.31
12988,3.15
13000,2.36
13012,2.0
13024,1.95
13036,1.98
13048,1.85
13060,1.43
13071,0.76
13082,0.03
13094,-0.57
13106,-0.93
13118,-1.06
13130,-1.09
13142,-1.15
13154,-1.3
13166,-1.57
13178,-1.9
13190,-2.3
13202,-2.8
13214,-3.49
13226,-4.4
13238,-5.49
13250,-6.66
13261,-7.75
13272,-8.64
13284,-9.34
13296,-9.93
13308,-10.54
13320,-11.3
13332,-12.19
13344,-13.1
13356,-13.8
13368,-14.03
13380,-13.58
13392,-12.39
13404,-10.55
13416,-8.26
13428,-5.74
13440,-3.21
13451,-0.78
13462,1.43
13474,3.32
13486,4.78
13498,5.72
13510,6.11
13522,6.04
13534,5.72
13546,5.36
13558,5.17
13570,5.2
13582,5.41
13594,5.71
13606,5.99
13618,6.26
13630,6.52
13641,6.82
13652,7.15
13664,7.44
13676,7.57
13688,7.46
13700,7.06
13712,6.42
13724,5.64
13736,4.83
13748,4.03
13760,3.29
13772,2.61
13784,2.03
13796,1.55
13808,1.18
13820,0.92
13831,0.7
13842,0.45
13854,0.12
13866,-0.31
13878,-0.81
13890,-1.31
13902,-1.71
13914,-1.94
13926,-2.0
13938,-1.95
13950,-1.89
13962,-1.97
13974,-2.31
13986,-2.92
13998,-3.72
14010,-4.57
14021,-5.32
14032,-5.91
14044,-6.4
14056,-6.9
14068,-7.52
14080,-8.33
14092,-9.32
14104,-10.41
14116,-11.47
14128,-12.31
14140,-12.72
14152,-12.45
14164,-11.31
14176,-9.24
14188,-6.39
14200,-3.09
14211,0.17
14222,2.96
14234,5.01
14246,6.25
14258,6.81
14270,6.94
14282,6.84
14294,6.64
14306,6.44
14318,6.27
14330,6.13
14342,6.02
14354,5.93
14366,5.82
14378,5.67
14390,5.47
14401,5.29
14412,5.23
14424,5.37
14436,5.77
14448,6.34
14460,7.0
14472,7.58
14484,7.98
14496,8.11
14508,7.96
14520,7.53
14532,6.88
14544,6.09
14556,5.23
14568,4.42
14580,3.74
14591,3.25
14602,2.93
14614,2.72
14626,2.54
14638,2.29
14650,1.93
14662,1.45
14674,0.88
14686,0.29
14698,-0.29
14710,-0.83
14722,-1.35
14734,-1.9
14746,-2.52
14758,-3.17
14770,-3.78
14781,-4.23
14792,-4.47
14804,-4.54
14816,-4.55
14828,-4.68
14840,-5.02
14852,-5.56
14864,-6.18
14876,-6.77
14888,-7.27
14900,-7.77
14912,-8.39
14924,-9.23
14936,-10.28
14948,-11.39
14960,-12.37
14971,-13.06
14982,-13.35
14994,-13.2
15006,-12.52
15018,-11.25
15030,-9.31
15042,-6.74
15054,-3.75
15066,-0.66
15078,2.11
15090,4.28
15102,5.73
15114,6.53
15126,6.88
15138,6.99
15150,7.01
15161,7.0
15172,6.94
15184,6.81
15196,6.61
15208,6.35
15220,6.12
15232,5.97
15244,5.98
15256,6.18
15268,6.56
15280,7.08
15292,7.63
15304,8.14
15316,8.51
15328,8.67
15340,8.57
15351,8.22
15362,7.67
15374,7.06
15386,6.52
15398,6.14
15410,5.91
15422,5.74
15434,5.52
15446,5.13
15458,4.58
15470,3.9
15482,3.2
15494,2.52
15506,1.89
15518,1.33
15530,0.87
15541,0.56
15552,0.41
15564,0.35
15576,0.21
15588,-0.24
15600,-1.07
15612,-2.24
15624,-3.47
15636,-4.48
15648,-5.08
15660,-5.3
15672,-5.36
15684,-5.54
15696,-5.98
15708,-6.66
15720,-7.43
15731,-8.09
15742,-8.58
15754,-8.93
15766,-9.24
15778,-9.55
15790,-9.84
15802,-10.09
15814,-10.34
15826,-10.73
15838,-11.38
15850,-12.29
15862,-13.25
15874,-13.89
15886,-13.76
15898,-12.57
15910,-10.3
15921,-7.22
15932,-3.8
15944,-0.52
15956,2.24
15968,4.31
15980,5.67
15992,6.46
16004,6.85
16016,6.98
16028,6.96
16040,6.81
16052,6.55
16064,6.22
16076,5.87
16088,5.6
16100,5.46
16111,5.44
16122,5.51
16134,5.61
16146,5.72
16158,5.87
16170,6.12
16182,6.53
16194,7.09
16206,7.7
16218,8.22
16230,8.54
16242,8.58
16254,8.32
16266,7.8
16278,7.05
16290,6.14
16301,5.14
16312,4.1
16324,3.09
16336,2.14
16348,1.26
16360,0.43
16372,-0.31
16384,-0.91
16396,-1.29
16408,-1.43
16420,-1.38
16432,-1.28
16444,-1.28
16456,-1.48
16468,-1.88
16480,-2.35
16491,-2.76
16502,-3.03
16514,-3.19
16526,-3.37
16538,-3.72
16550,-4.34
16562,-5.23
16574,-6.28
16586,-7.33
16598,-8.22
16610,-8.87
16622,-9.25
16634,-9.43
16646,-9.55
16658,-9.75
16670,-10.16
16681,-10.81
16692,-11.66
16704,-12.57
16716,-13.3
16728,-13.54
16740,-13.04
16752,-11.61
16764,-9.28
16776,-6.26
16788,-2.92
16800,0.32
16812,3.1
16824,5.25
16836,6.75
16848,7.73
16860,8.33
16871,8.7
16882,8.9
16894,8.98
16906,8.87
16918,8.58
16930,8.15
16942,7.62
16954,7.13
16966,6.77
16978,6.61
16990,6.64
17002,6.82
17014,7.08
17026,7.35
17038,7.61
17050,7.81
17061,7.91
17072,7.85
17084,7.59
17096,7.11
17108,6.48
17120,5.77
17132,5.06
17144,4.37
17156,3.65
17168,2.85
17180,1.96
17192,1.05
17204,0.22
17216,-0.42
17228,-0.78
17240,-0.89
17251,-0.82
17262,-0.7
17274,-0.64
17286,-0.75
17298,-1.06
17310,-1.58
17322,-2.25
17334,-2.96
17346,-3.66
17358,-4.27
17370,-4.81
17382,-5.33
17394,-5.9
17406,-6.55
17418,-7.27
17430,-7.99
17441,-8.67
17452,-9.32
17464,-9.97
17476,-10.68
17488,-11.48
17500,-12.36
17512,-13.24
17524,-14.02
17536,-14.58
17548,-14.78
17560,-14.47
17572,-13.49
17584,-11.71
17596,-9.12
17608,-5.93
17620,-2.53
17631,0.64
17642,3.2
17654,4.98
17666,6.06
17678,6.66
17690,7.03
17702,7.33
17714,7.62
17726,7.89
17738,8.1
17750,8.22
17762,8.27
17774,8.26
17786,8.18
17798,8.03
17810,7.8
17821,7.55
17832,7.34
17844,7.25
17856,7.3
17868,7.46
17880,7.66
17892,7.85
17904,7.97
17916,8.01
17928,8.0
17940,7.89
17952,7.63
17964,7.15
17976,6.43
17988,5.54
18000,4.63
18011,3.84
18022,3.24
18034,2.81
18046,2.43
18058,1.93
18070,1.25
18082,0.42
18094,-0.46
18106,-1.23
18118,-1.78
18130,-2.16
18142,-2.5
18154,-2.97
18166,-3.74
18178,-4.79
18190,-6.03
18201,-7.26
18212,-8.31
18224,-9.11
18236,-9.67
18248,-10.08
18260,-10.46
18272,-10.9
18284,-11.46
18296,-12.19
18308,-13.07
18320,-14.04
18332,-14.94
18344,-15.54
18356,-15.57
18368,-14.82
18380,-13.21
18391,-10.79
18402,-7.79
18414,-4.48
18426,-1.18
18438,1.86
18450,4.4
18462,6.34
18474,7.68
18486,8.49
18498,8.93
18510,9.15
18522,9.23
18534,9.2
18546,9.05
18558,8.76
18570,8.38
18581,8.02
18592,7.83
18604,7.94
18616,8.38
18628,9.12
18640,10.02
18652,10.94
18664,11.74
18676,12.32
18688,12.57
18700,12.37
18712,11.62
18724,10.28
18736,8.45
18748,6.31
18760,4.15
18771,2.22
18782,0.65
18794,-0.54
18806,-1.42
18818,-2.09
18830,-2.58
18842,-2.93
18854,-3.19
18866,-3.45
18878,-3.85
18890,-4.49
18902,-5.41
18914,-6.54
18926,-7.75
18938,-8.84
18950,-9.68
18961,-10.21
18972,-10.36
18984,-10.15
18996,-9.64
19008,-8.97
19020,-8.36
19032,-8.03
19044,-8.14
19056,-8.74
19068,-9.72
19080,-10.92
19092,-12.13
19104,-13.14
19116,-13.74
19128,-13.66
19140,-12.68
19151,-10.65
19162,-7.65
19174,-3.99
19186,-0.12
19198,3.45
19210,6.38
19222,8.57
19234,10.09
19246,11.11
19258,11.78
19270,12.14
19282,12.19
19294,11.9
19306,11.29
19318,10.44
19330,9.47
19341,8.54
19352,7.72
19364,7.05
19376,6.52
19388,6.11
19400,5.85
19412,5.78
19424,5.95
19436,6.33
19448,6.75
19460,7.0
19472,6.87
19484,6.31
19496,5.44
19508,4.51
19520,3.69
19531,3.04
19542,2.45
19554,1.74
19566,0.85
19578,-0.16
19590,-1.12
19602,-1.9
19614,-2.48
19626,-2.99
19638,-3.6
19650,-4.43
19662,-5.4
19674,-6.36
19686,-7.13
19698,-7.65
19710,-8.0
19721,-8.33
19732,-8.8
19744,-9.5
19756,-10.42
19768,-11.45
19780,-12.43
19792,-13.14
19804,-13.37
19816,-12.9
19828,-11.61
19840,-9.49
19852,-6.69
19864,-3.49
19876,-0.19
19888,2.91
19900,5.65
19911,7.97
19922,9.88
19934,11.38
19946,12.44
19958,13.03
19970,13.09
19982,12.67
19994,11.87
20006,10.87
20018,9.83
20030,8.89
20042,8.15
20054,7.71
20066,7.67
20078,8.02
20090,8.67
20101,9.4
20112,9.9
20124,9.93
20136,9.38
20148,8.39
20160,7.22
20172,6.17
20184,5.39
20196,4.87
20208,4.48
20220,4.06
20232,3.52
20244,2.83
20256,2.03
20268,1.17
20280,0.27
20291,-0.64
20302,-1.53
20314,-2.36
20326,-3.13
20338,-3.83
20350,-4.5
20362,-5.21
20374,-5.96
20386,-6.77
20398,-7.64
20410,-8.56
20422,-9.56
20434,-10.61
20446,-11.67
20458,-12.63
20470,-13.44
20481,-14.04
20492,-14.49
20504,-14.89
20516,-15.4
20528,-16.08
20540,-16.86
20552,-17.5
20564,-17.7
20576,-17.11
20588,-15.57
20600,-13.07
20612,-9.86
20624,-6.33
20636,-2.88
20648,0.14
20660,2.6
20671,4.57
20682,6.22
20694,7.78
20706,9.37
20718,10.93
20730,12.32
20742,13.3
20754,13.7
20766,13.48
20778,12.73
20790,11.64
20802,10.44
20814,9.31
20826,8.34
20838,7.61
20850,7.13
20861,6.91
20872,6.91
20884,7.04
20896,7.19
20908,7.25
20920,7.16
20932,6.97
20944,6.79
20956,6.76
20968,6.89
20980,7.12
20992,7.31
