seconds,BVP
11,-30.57
23,-46.78
35,-61.43
47,-74.81
59,-87.52
71,-100.15
83,-113.15
95,-126.79
107,-141.11
119,-155.94
131,-170.96
143,-185.67
155,-199.6
167,-212.46
178,-224.35
189,-236.0
201,-248.65
213,-263.56
225,-281.47
237,-301.99
249,-323.47
261,-343.67
273,-360.49
285,-372.94
297,-381.35
309,-387.67
321,-394.63
333,-405.25
345,-421.34
357,-442.1
368,-463.3
379,-477.53
391,-475.9
403,-450.57
415,-397.55
427,-318.46
439,-221.19
451,-118.19
463,-23.93
475,48.57
487,90.81
499,100.67
511,82.55
523,45.74
535,1.58
547,-40.11
558,-73.0
569,-95.07
581,-107.66
593,-113.72
605,-116.54
617,-119.31
629,-124.93
641,-135.82
653,-153.6
665,-178.17
677,-207.48
689,-238.13
701,-266.14
713,-287.95
725,-300.97
737,-303.56
748,-294.76
759,-274.56
771,-244.05
783,-205.62
795,-162.92
807,-120.01
819,-80.55
831,-47.04
843,-20.67
855,-1.48
867,11.01
879,17.61
891,19.47
903,17.99
915,15.26
927,13.6
938,15.21
949,21.58
961,33.17
973,49.2
985,67.78
997,86.39
1009,102.13
1021,112.78
1033,117.05
1045,115.19
1057,108.77
1069,100.34
1081,92.53
1093,87.36
1105,85.76
1117,87.2
1128,90.0
1139,91.72
1151,89.95
1163,83.09
1175,70.94
1187,54.58
1199,35.93
1211,16.91
1223,-1.22
1235,-17.93
1247,-33.17
1259,-47.03
1271,-59.54
1283,-70.77
1295,-81.03
1307,-90.47
1318,-98.45
1329,-103.05
1341,-101.2
1353,-89.92
1365,-68.04
1377,-37.23
1389,-1.86
1401,32.69
1413,61.94
1425,84.0
1437,99.25
1449,109.39
1461,115.98
1473,119.57
1485,120.05
1497,117.6
1508,113.27
1519,108.9
1531,106.23
1543,105.75
1555,106.43
1567,106.1
1579,102.6
1591,94.74
1603,82.84
1615,68.42
1627,53.46
1639,39.83
1651,28.69
1663,20.51
1675,15.14
1687,11.89
1698,9.69
1709,7.52
1721,4.64
1733,0.85
1745,-3.49
1757,-7.85
1769,-11.88
1781,-15.72
1793,-19.93
1805,-25.24
1817,-32.23
1829,-41.32
1841,-52.9
1853,-67.44
1865,-85.41
1877,-106.51
1888,-129.22
1899,-150.29
1911,-165.42
1923,-170.66
1935,-163.91
1947,-145.95
1959,-120.1
1971,-91.05
1983,-63.03
1995,-38.73
2007,-19.22
2019,-4.62
2031,4.9
2043,8.6
2055,5.8
2067,-3.13
2078,-16.28
2089,-30.27
2101,-41.55
2113,-47.98
2125,-49.54
2137,-48.2
2149,-46.95
2161,-48.63
2173,-54.87
2185,-66.1
2197,-81.64
2209,-99.82
2221,-118.13
2233,-133.24
2245,-141.4
2257,-139.07
2268,-124.12
2279,-96.58
2291,-58.91
2303,-15.29
2315,29.61
2327,71.59
2339,107.78
2351,136.6
2363,157.7
2375,171.67
2387,179.57
2399,182.43
2411,180.89
2423,174.76
2435,163.02
2447,144.53
2458,118.54
2469,85.82
2481,49.13
2493,13.06
2505,-17.08
2517,-36.41
2529,-42.08
2541,-34.09
2553,-15.1
2565,10.3
2577,36.88
2589,60.13
2601,77.09
2613,86.5
2625,88.26
2637,82.88
2648,71.05
2659,53.89
2671,33.44
2683,12.89
2695,-3.82
2707,-13.35
2719,-14.32
2731,-8.35
2743,0.46
2755,7.13
2767,8.12
2779,2.82
2791,-6.12
2803,-14.31
2815,-17.88
2827,-15.36
2838,-8.58
2849,-1.77
2861,0.33
2873,-5.42
2885,-19.29
2897,-38.5
2909,-58.61
2921,-75.52
2933,-87.23
2945,-94.79
2957,-101.97
2969,-113.46
2981,-132.82
2993,-160.67
3005,-193.92
3017,-226.52
3028,-251.17
3039,-261.49
3051,-253.6
3063,-226.8
3075,-183.39
3087,-128.31
3099,-68.44
3111,-11.75
3123,34.06
3135,63.53
3147,75.19
3159,72.33
3171,62.07
3183,52.48
3195,49.17
3207,52.83
3218,59.09
3229,60.44
3241,49.8
3253,23.75
3265,-15.79
3277,-61.97
3289,-105.16
3301,-135.93
3313,-147.64
3325,-137.82
3337,-108.34
3349,-64.01
3361,-10.76
3373,46.09
3385,102.81
3397,157.67
3408,210.49
3419,262.32
3431,314.31
3443,366.55
3455,417.13
3467,461.9
3479,495.35
3491,512.49
3503,510.89
3515,491.51
3527,458.52
3539,417.72
3551,374.79
3563,334.26
3575,298.8
3587,269.17
3598,244.26
3609,221.71
3621,198.65
3633,172.89
3645,144.04
3657,113.89
3669,86.23
3681,65.49
3693,55.47
3705,58.03
3717,72.35
3729,94.91
3741,120.39
3753,143.1
3765,158.72
3777,165.97
3788,166.76
3799,165.04
3811,164.3
3823,165.4
3835,165.82
3847,161.34
3859,148.95
3871,129.11
3883,106.36
3895,87.42
3907,78.2
3919,81.25
3931,94.76
3943,113.6
3955,131.54
3967,143.6
3978,147.19
3989,142.17
4001,129.85
4013,111.9
4025,89.8
4037,64.67
4049,37.7
4061,10.22
4073,-16.32
4085,-40.72
4097,-62.37
4109,-81.65
4121,-99.83
4133,-118.5
4145,-139.02
4157,-161.91
4168,-186.71
4179,-212.05
4191,-236.46
4203,-258.69
4215,-278.6
4227,-297.48
4239,-317.55
4251,-340.92
4263,-368.0
4275,-396.32
4287,-420.45
4299,-433.66
4311,-430.15
4323,-407.34
4335,-366.67
4347,-312.85
4358,-252.2
4369,-190.83
4381,-133.86
4393,-85.14
4405,-47.48
4417,-22.67
4429,-10.89
4441,-10.13
4453,-15.96
4465,-22.46
4477,-24.1
4489,-17.82
4501,-4.08
4513,13.79
4525,31.26
4537,45.06
4548,54.6
4559,61.96
4571,69.93
4583,79.83
4595,89.99
4607,96.1
4619,93.34
4631,78.69
4643,52.53
4655,18.06
4667,-20.6
4679,-60.67
4691,-101.64
4703,-144.69
4715,-191.22
4727,-241.24
4738,-293.26
4749,-344.71
4761,-393.04
4773,-435.87
4785,-470.68
4797,-494.33
4809,-503.45
4821,-496.25
4833,-474.24
4845,-443.08
4857,-411.04
4869,-386.28
4881,-373.61
4893,-372.61
4905,-378.34
4917,-383.47
4928,-381.29
4939,-367.51
4951,-340.87
4963,-302.47
4975,-254.99
4987,-202.01
4999,-147.43
5011,-95.08
5023,-47.84
5035,-7.03
5047,28.06
5059,59.92
5071,92.3
5083,128.78
5095,171.09
5107,217.57
5118,262.5
5129,297.18
5141,312.62
5153,303.25
5165,269.77
5177,219.67
5189,164.87
5201,117.19
5213,83.94
5225,65.6
5237,56.56
5249,48.59
5261,34.92
5273,13.38
5285,-13.19
5297,-38.45
5308,-55.36
5319,-58.69
5331,-46.33
5343,-19.51
5355,17.98
5367,60.77
5379,103.2
5391,140.45
5403,169.86
5415,191.57
5427,208.21
5439,223.29
5451,239.19
5463,255.92
5475,270.97
5487,280.85
5498,283.01
5509,277.39
5521,266.1
5533,252.3
5545,238.6
5557,226.62
5569,217.37
5581,211.63
5593,210.01
5605,212.08
5617,215.91
5629,218.48
5641,217.04
5653,210.78
5665,201.07
5677,190.13
5688,178.9
5699,165.7
5711,146.96
5723,119.37
5735,82.63
5747,40.54
5759,0.1
5771,-31.24
5783,-48.55
5795,-51.44
5807,-43.91
5819,-32.66
5831,-24.45
5843,-23.56
5855,-30.31
5867,-41.42
5878,-51.96
5889,-57.66
5901,-57.22
5913,-52.69
5925,-48.35
5937,-48.13
5949,-53.46
5961,-62.51
5973,-71.13
5985,-75.26
5997,-72.86
6009,-65.0
6021,-55.04
6033,-46.93
6045,-43.12
6057,-43.64
6068,-46.8
6079,-50.75
6091,-54.95
6103,-60.51
6115,-68.99
6127,-80.56
6139,-92.99
6151,-102.03
6163,-103.31
6175,-94.91
6187,-78.69
6199,-59.79
6211,-44.3
6223,-36.38
6235,-36.2
6247,-39.84
6258,-41.14
6269,-34.37
6281,-16.75
6293,10.67
6305,43.67
6317,76.57
6329,104.04
6341,122.2
6353,128.8
6365,123.08
6377,105.9
6389,79.97
6401,50.07
6413,22.05
6425,0.88
6437,-11.5
6448,-17.1
6459,-21.06
6471,-28.95
6483,-43.82
6495,-64.75
6507,-87.41
6519,-106.81
6531,-120.07
6543,-128.16
6555,-135.21
6567,-146.26
6579,-164.47
6591,-189.37
6603,-217.21
6615,-242.82
6627,-262.27
6638,-274.82
6649,-283.11
6661,-291.83
6673,-305.24
6685,-324.78
6697,-347.97
6709,-369.3
6721,-382.3
6733,-382.18
6745,-367.59
6757,-340.75
6769,-306.01
6781,-267.87
6793,-229.05
6805,-190.03
6817,-149.95
6828,-108.02
6839,-64.9
6851,-22.85
6863,15.32
6875,47.85
6887,75.14
6899,99.79
6911,125.49
6923,155.3
6935,190.68
6947,231.15
6959,274.94
6971,319.6
6983,362.44
6995,400.58
7007,431.11
7018,451.45
7029,460.0
7041,457.0
7053,444.55
7065,425.81
7077,404.04
7089,381.52
7101,359.21
7113,337.32
7125,315.96
7137,295.52
7149,276.59
7161,259.41
7173,243.51
7185,227.75
7197,210.72
7208,191.47
7219,169.85
7231,146.94
7243,124.84
7255,105.89
7267,91.54
7279,81.39
7291,72.92
7303,62.41
7315,46.87
7327,25.88
7339,2.62
7351,-17.36
7363,-28.56
7375,-28.31
7387,-18.24
7398,-3.75
7409,8.02
7421,11.01
7433,2.36
7445,-16.79
7457,-41.78
7469,-66.0
7481,-82.66
7493,-86.75
7505,-76.5
7517,-53.86
7529,-23.96
7541,6.77
7553,32.74
7565,50.91
7577,60.97
7588,64.58
7599,63.89
7611,60.24
7623,54.03
7635,44.68
7647,31.43
7659,13.99
7671,-6.75
7683,-28.76
7695,-48.78
7707,-63.29
7719,-69.32
7731,-65.53
7743,-52.98
7755,-34.63
7767,-14.52
7778,3.51
7789,16.61
7801,23.12
7813,22.44
7825,14.92
7837,2.08
7849,-13.64
7861,-29.38
7873,-42.84
7885,-53.37
7897,-62.14
7909,-71.42
7921,-83.05
7933,-97.16
7945,-111.76
7957,-123.7
7968,-130.18
7979,-130.09
7991,-124.55
8003,-116.32
8015,-108.77
8027,-104.88
8039,-106.36
8051,-113.21
8063,-123.47
8075,-133.44
8087,-138.4
8099,-133.91
8111,-117.16
8123,-88.19
8135,-50.27
8147,-9.22
8158,28.03
8169,55.35
8181,69.25
8193,69.78
8205,60.28
8217,46.34
8229,33.44
8241,25.35
8253,22.89
8265,24.13
8277,25.83
8289,25.17
8301,21.26
8313,15.53
8325,10.98
8337,10.42
8348,15.11
8359,23.71
8371,32.77
8383,37.99
8395,36.09
8407,26.17
8419,10.04
8431,-8.69
8443,-26.25
8455,-40.09
8467,-49.63
8479,-55.84
8491,-60.34
8503,-64.51
8515,-69.2
8527,-74.72
8538,-81.13
8549,-88.11
8561,-94.93
8573,-100.66
8585,-104.72
8597,-107.81
8609,-112.41
8621,-122.21
8633,-140.36
8645,-167.57
8657,-200.61
8669,-232.67
8681,-255.32
8693,-261.14
8705,-246.14
8717,-211.1
8728,-161.03
8739,-103.69
8751,-47.25
8763,2.04
8775,41.52
8787,72.37
8799,98.58
8811,124.47
8823,152.31
8835,180.91
8847,205.99
8859,222.23
8871,226.07
8883,217.68
8895,200.85
8907,181.36
8918,164.11
8929,151.19
8941,141.56
8953,132.41
8965,121.12
8977,106.77
8989,90.17
9001,72.83
9013,55.93
9025,39.57
9037,23.49
9049,7.9
9061,-5.96
9073,-16.31
9085,-21.87
9097,-23.17
9108,-22.73
9119,-23.96
9131,-29.4
9143,-39.15
9155,-50.67
9167,-59.76
9179,-62.69
9191,-57.99
9203,-47.52
9215,-35.69
9227,-27.5
9239,-26.48
9251,-32.97
9263,-43.86
9275,-54.02
9287,-58.16
9298,-53.06
9309,-38.44
9321,-16.72
9333,8.54
9345,34.01
9357,57.63
9369,78.47
9381,95.92
9393,108.82
9405,115.31
9417,113.54
9429,103.16
9441,86.37
9453,67.78
9465,52.9
9477,45.62
9488,46.19
9499,50.92
9511,54.08
9523,51.01
9535,40.68
9547,26.42
9559,13.95
9571,8.27
9583,10.86
9595,19.02
9607,27.39
9619,30.82
9631,26.93
9643,17.0
9655,4.73
9667,-5.89
9678,-12.74
9689,-16.43
9701,-19.45
9713,-24.62
9725,-33.34
9737,-44.67
9749,-55.77
9761,-63.33
9773,-65.18
9785,-61.4
9797,-54.36
9809,-47.58
9821,-44.56
9833,-47.66
9845,-57.51
9857,-72.99
9868,-91.44
9879,-109.22
9891,-122.22
9903,-126.7
9915,-120.25
9927,-102.63
9939,-75.89
9951,-44.0
9963,-11.85
9975,15.9
9987,35.58
9999,45.1
10011,44.05
10023,33.92
10035,17.67
10047,-0.63
10058,-16.81
10069,-27.74
10081,-32.04
10093,-30.23
10105,-24.19
10117,-16.34
10129,-8.64
10141,-2.25
10153,2.9
10165,7.48
10177,12.34
10189,17.75
10201,22.98
10213,26.43
10225,26.46
10237,22.61
10248,16.23
10259,10.53
10271,8.63
10283,11.94
10295,19.02
10307,26.1
10319,28.96
10331,25.27
10343,15.73
10355,3.48
10367,-7.64
10379,-15.37
10391,-19.74
10403,-22.64
10415,-26.27
10427,-32.05
10438,-40.27
10449,-50.22
10461,-60.86
10473,-70.74
10485,-78.04
10497,-80.4
10509,-75.42
10521,-61.43
10533,-38.35
10545,-8.15
10557,25.68
10569,58.77
10581,87.13
10593,107.45
10605,117.81
10617,117.69
10628,108.25
10639,92.56
10651,74.75
10663,59.25
10675,49.25
10687,45.91
10699,48.16
10711,53.63
10723,59.71
10735,64.49
10747,67.33
10759,68.37
10771,68.28
10783,67.57
10795,66.39
10807,64.53
10818,61.59
10829,56.94
10841,49.89
10853,40.12
10865,27.99
10877,14.96
10889,3.13
10901,-5.77
10913,-11.31
10925,-14.67
10937,-18.07
10949,-23.65
10961,-32.11
10973,-42.75
10985,-53.75
10997,-63.32
11008,-70.54
11019,-75.39
11031,-78.43
11043,-80.26
11055,-81.29
11067,-81.85
11079,-82.81
11091,-85.15
11103,-89.48
11115,-95.26
11127,-100.52
11139,-102.28
11151,-97.74
11163,-85.08
11175,-64.22
11187,-37.3
11198,-8.08
11209,18.8
11221,39.04
11233,49.78
11245,50.6
11257,43.46
11269,32.23
11281,21.35
11293,14.17
11305,12.06
11317,14.01
11329,17.24
11341,18.31
11353,14.59
11365,5.19
11377,-8.52
11388,-23.53
11399,-36.06
11411,-42.86
11423,-42.45
11435,-35.96
11447,-26.85
11459,-19.94
11471,-19.67
11483,-28.11
11495,-43.99
11507,-62.92
11519,-79.09
11531,-87.81
11543,-87.67
11555,-81.02
11567,-72.93
11578,-68.88
11589,-72.17
11601,-82.49
11613,-96.33
11625,-108.65
11637,-115.11
11649,-113.45
11661,-103.8
11673,-88.3
11685,-70.05
11697,-51.98
11709,-35.97
11721,-22.39
11733,-10.0
11745,3.55
11757,20.93
11768,44.19
11779,73.83
11791,108.65
11803,146.14
11815,183.05
11827,216.15
11839,242.52
11851,259.82
11863,266.53
11875,262.45
11887,248.97
11899,229.23
11911,207.55
11923,187.99
11935,173.08
11947,163.02
11958,155.94
11969,148.93
11981,139.52
11993,126.47
12005,109.94
12017,91.02
12029,71.12
12041,51.58
12053,33.52
12065,17.7
12077,4.42
12089,-6.64
12101,-16.45
12113,-26.41
12125,-37.76
12137,-51.26
12148,-66.55
12159,-82.42
12171,-97.47
12183,-110.56
12195,-121.39
12207,-130.35
12219,-138.13
12231,-145.06
12243,-150.84
12255,-154.58
12267,-155.37
12279,-153.08
12291,-148.65
12303,-144.09
12315,-141.33
12327,-141.29
12338,-143.2
12349,-144.86
12361,-143.69
12373,-138.02
12385,-127.79
12397,-114.2
12409,-98.68
12421,-81.82
12433,-62.97
12445,-40.85
12457,-14.57
12469,15.57
12481,48.16
12493,81.15
12505,112.78
12517,141.99
12528,168.26
12539,191.1
12551,209.37
12563,221.38
12575,225.5
12587,221.04
12599,208.81
12611,191.34
12623,172.2
12635,155.01
12647,142.39
12659,135.21
12671,132.68
12683,132.67
12695,132.84
12707,131.49
12718,127.98
12729,122.49
12741,115.77
12753,108.48
12765,100.92
12777,93.04
12789,84.69
12801,75.73
12813,66.36
12825,57.13
12837,48.65
12849,41.36
12861,35.31
12873,29.98
12885,24.42
12897,17.74
12908,9.46
12919,-0.63
12931,-12.52
12943,-26.45
12955,-42.64
12967,-60.81
12979,-79.74
12991,-97.13
13003,-110.39
13015,-117.83
13027,-119.75
13039,-118.35
13051,-116.95
13063,-118.41
13075,-124.11
13087,-133.39
13098,-143.9
13109,-152.49
13121,-156.1
13133,-152.57
13145,-140.99
13157,-122.03
13169,-97.87
13181,-71.64
13193,-46.44
13205,-24.45
13217,-6.34
13229,8.48
13241,21.14
13253,32.41
13265,42.04
13277,48.95
13288,52.26
13299,52.0
13311,49.54
13323,46.99
13335,46.32
13347,48.36
13359,52.48
13371,57.05
13383,60.47
13395,62.14
13407,62.78
13419,64.03
13431,67.24
13443,72.62
13455,78.84
13467,83.72
13478,85.47
13489,83.71
13501,79.47
13513,74.43
13525,69.49
13537,63.86
13549,55.2
13561,40.7
13573,19.02
13585,-8.24
13597,-36.5
13609,-59.98
13621,-74.18
13633,-77.97
13645,-74.1
13657,-67.92
13668,-64.92
13679,-68.37
13691,-78.37
13703,-92.2
13715,-105.87
13727,-115.9
13739,-120.64
13751,-120.5
13763,-117.37
13775,-113.71
13787,-111.05
13799,-109.72
13811,-108.72
13823,-106.4
13835,-101.24
13847,-92.34
13858,-79.28
13869,-61.38
13881,-37.28
13893,-5.11
13905,36.2
13917,85.31
13929,137.73
13941,186.47
13953,224.31
13965,246.48
13977,252.42
13989,245.92
14001,233.22
14013,220.62
14025,212.48
14037,210.59
14048,214.42
14059,222.19
14071,231.72
14083,240.61
14095,246.61
14107,247.84
14119,243.33
14131,233.95
14143,222.23
14155,211.26
14167,203.09
14179,197.44
14191,191.2
14203,180.01
14215,159.99
14227,129.57
14238,89.93
14249,44.45
14261,-3.02
14273,-49.41
14285,-92.72
14297,-131.64
14309,-164.63
14321,-189.77
14333,-205.43
14345,-211.57
14357,-210.34
14369,-205.61
14381,-201.38
14393,-200.11
14405,-201.87
14417,-204.6
14428,-205.64
14439,-203.37
14451,-198.07
14463,-191.85
14475,-187.38
14487,-186.46
14499,-189.38
14511,-195.13
14523,-202.05
14535,-208.48
14547,-213.06
14559,-214.31
14571,-210.89
14583,-201.9
14595,-187.27
14607,-167.99
14618,-145.98
14629,-123.42
14641,-102.33
14653,-84.53
14665,-71.61
14677,-64.82
14689,-64.91
14701,-71.49
14713,-82.32
14725,-93.72
14737,-101.42
14749,-102.3
14761,-95.48
14773,-82.35
14785,-65.59
14797,-47.98
14808,-31.41
14819,-16.86
14831,-4.89
14843,4.19
14855,10.2
14867,13.53
14879,15.43
14891,17.74
14903,22.03
14915,28.99
14927,37.89
14939,46.92
14951,53.98
14963,57.48
14975,56.78
14987,52.31
14998,45.22
15009,36.94
15021,29.07
15033,23.01
15045,19.43
15057,18.07
15069,17.58
15081,15.78
15093,10.63
15105,1.14
15117,-12.14
15129,-27.27
15141,-41.95
15153,-54.56
15165,-64.58
15177,-72.64
15188,-79.97
15199,-87.44
15211,-95.35
15223,-103.6
15235,-112.08
15247,-120.91
15259,-130.14
15271,-138.78
15283,-144.45
15295,-143.31
15307,-131.16
15319,-104.92
15331,-64.2
15343,-12.0
15355,45.73
15367,101.7
15378,149.39
15389,184.67
15401,206.41
15413,215.83
15425,215.3
15437,207.07
15449,193.13
15461,175.44
15473,156.21
15485,138.17
15497,123.62
15509,113.73
15521,107.85
15533,103.92
15545,99.59
15557,93.49
15568,85.86
15579,78.13
15591,72.13
15603,68.76
15615,67.65
15627,67.18
15639,65.3
15651,60.44
15663,52.19
15675,41.31
15687,29.43
15699,18.37
15711,9.4
15723,3.0
15735,-1.24
15747,-4.03
15758,-5.94
15769,-7.06
15781,-7.36
15793,-7.12
15805,-7.28
15817,-9.3
15829,-14.35
15841,-22.58
15853,-32.93
15865,-43.48
15877,-52.55
15889,-59.37
15901,-64.2
15913,-67.86
15925,-71.03
15937,-73.93
15948,-76.36
15959,-78.24
15971,-79.85
15983,-81.58
15995,-83.58
16007,-85.13
16019,-84.89
16031,-81.51
16043,-74.3
16055,-63.5
16067,-49.86
16079,-33.97
16091,-15.85
16103,4.67
16115,27.21
16127,50.01
16138,69.96
16149,83.6
16161,88.42
16173,84.26
16185,73.51
16197,60.46
16209,49.52
16221,43.72
16233,43.71
16245,47.98
16257,53.9
16269,58.93
16281,61.59
16293,61.71
16305,59.98
16317,57.27
16328,53.98
16339,49.97
16351,44.74
16363,38.01
16375,30.08
16387,21.74
16399,14.02
16411,7.46
16423,2.03
16435,-2.94
16447,-8.26
16459,-14.52
16471,-21.71
16483,-29.19
16495,-35.92
16507,-40.83
16518,-43.38
16529,-43.65
16541,-42.59
16553,-41.6
16565,-42.23
16577,-45.51
16589,-51.47
16601,-58.96
16613,-65.98
16625,-70.62
16637,-71.98
16649,-70.81
16661,-69.19
16673,-69.37
16685,-72.83
16697,-79.44
16708,-87.52
16719,-94.61
16731,-98.35
16743,-97.23
16755,-90.72
16767,-79.1
16779,-62.96
16791,-43.22
16803,-20.98
16815,2.37
16827,25.33
16839,46.49
16851,64.76
16863,79.45
16875,90.04
16887,96.21
16898,97.85
16909,95.41
16921,90.06
16933,83.33
16945,76.91
16957,71.99
16969,69.12
16981,68.06
16993,68.31
17005,69.18
17017,70.17
17029,71.04
17041,71.42
17053,70.91
17065,69.21
17077,66.24
17088,62.24
17099,57.89
17111,53.92
17123,50.74
17135,48.34
17147,46.17
17159,43.39
17171,39.25
17183,33.35
17195,26.13
17207,18.83
17219,13.24
17231,10.83
17243,12.23
17255,16.67
17267,22.07
17278,25.87
17289,25.73
17301,20.87
17313,12.09
17325,1.59
17337,-8.18
17349,-15.61
17361,-20.71
17373,-25.18
17385,-31.04
17397,-39.79
17409,-51.09
17421,-63.09
17433,-73.08
17445,-78.8
17457,-79.35
17468,-75.15
17479,-67.33
17491,-56.55
17503,-42.58
17515,-24.54
17527,-2.05
17539,23.71
17551,50.03
17563,73.51
17575,91.67
17587,103.94
17599,111.72
17611,117.35
17623,122.62
17635,127.76
17647,131.03
17658,129.57
17669,119.98
17681,99.51
17693,66.63
17705,21.86
17717,-31.41
17729,-86.91
17741,-135.93
17753,-169.44
17765,-180.21
17777,-165.23
17789,-126.43
17801,-70.16
17813,-5.15
17825,59.86
17837,117.72
17848,164.04
17859,196.97
17871,216.81
17883,225.09
17895,224.17
17907,216.74
17919,205.52
17931,193.21
17943,182.1
17955,173.76
17967,168.83
17979,166.76
17991,165.94
18003,164.5
18015,160.85
18027,153.92
18038,143.46
18049,129.53
18061,112.27
18073,91.71
18085,67.6
18097,39.49
18109,6.99
18121,-29.95
18133,-70.94
18145,-114.76
18157,-159.26
18169,-201.44
18181,-237.82
18193,-265.07
18205,-280.8
18217,-284.03
18228,-275.31
18239,-256.53
18251,-230.31
18263,-199.68
18275,-167.77
18287,-137.75
18299,-112.57
18311,-94.73
18323,-85.5
18335,-84.57
18347,-89.9
18359,-97.86
18371,-104.34
18383,-105.66
18395,-99.55
18407,-85.82
18418,-66.12
18429,-43.27
18441,-20.16
18453,1.23
18465,20.33
18477,37.5
18489,53.27
18501,67.42
18513,78.9
18525,86.33
18537,89.03
18549,87.73
18561,84.57
18573,82.31
18585,82.93
18597,86.71
18608,91.99
18619,95.97
18631,96.05
18643,90.9
18655,81.0
18667,68.41
18679,56.2
18691,47.26
18703,43.73
18715,46.59
18727,55.65
18739,70.1
18751,88.61
18763,109.34
18775,129.58
18787,145.81
18798,153.92
18809,150.26
18821,132.65
18833,101.41
18845,59.76
18857,13.31
18869,-31.09
18881,-66.96
18893,-89.49
18905,-96.38
18917,-88.12
18929,-67.81
18941,-40.47
18953,-12.19
18965,10.89
18977,23.68
18988,22.79
18999,6.78
19011,-23.61
19023,-65.5
19035,-113.85
19047,-162.03
19059,-203.02
19071,-231.03
19083,-243.03
19095,-239.58
19107,-224.52
19119,-203.25
19131,-180.78
19143,-160.15
19155,-142.18
19167,-126.35
19178,-112.22
19189,-100.19
19201,-91.66
19213,-88.16
19225,-90.31
19237,-97.15
19249,-106.16
19261,-114.23
19273,-118.76
19285,-118.58
19297,-114.44
19309,-108.48
19321,-103.12
19333,-99.82
19345,-98.38
19357,-97.08
19368,-93.99
19379,-88.27
19391,-81.04
19403,-74.97
19415,-72.93
19427,-76.41
19439,-84.92
19451,-96.66
19463,-109.83
19475,-123.43
19487,-137.36
19499,-151.27
19511,-163.32
19523,-170.06
19535,-167.3
19547,-152.06
19558,-124.23
19569,-87.0
19581,-45.83
19593,-6.75
19605,25.41
19617,48.02
19629,60.72
19641,64.49
19653,60.5
19665,49.47
19677,31.46
19689,6.92
19701,-21.62
19713,-48.71
19725,-66.44
19737,-67.44
19748,-49.03
19759,-15.7
19771,20.73
19783,44.98
19795,43.91
19807,11.89
19819,-47.25
19831,-122.27
19843,-199.17
19855,-265.97
19867,-315.35
19879,-345.29
19891,-357.54
19903,-355.82
19915,-344.07
19927,-325.62
19938,-302.76
19949,-276.75
19961,-248.23
19973,-217.8
19985,-186.8
19997,-157.42
20009,-132.21
20021,-113.13
20033,-101.06
20045,-95.64
20057,-95.64
20069,-99.58
20081,-106.04
20093,-113.43
20105,-119.47
20117,-121.1
20128,-115.26
20139,-99.98
20151,-75.25
20163,-42.96
20175,-6.56
20187,30.19
20199,64.2
20211,93.65
20223,118.03
20235,137.79
20247,154.19
20259,168.83
20271,183.6
20283,200.5
20295,221.5
20307,248.44
20318,283.22
20329,327.74
20341,383.73
20353,451.55
20365,528.64
20377,608.42
20389,680.63
20401,733.68
20413,758.33
20425,750.73
20437,713.57
20449,654.77
20461,584.05
20473,509.7
20485,436.72
20497,366.88
20508,300.08
20519,235.86
20531,173.76
20543,112.71
20555,50.77
20567,-14.42
20579,-83.99
20591,-155.8
20603,-223.7
20615,-278.7
20627,-311.39
20639,-315.42
20651,-290.11
20663,-241.18
20675,-179.0
20687,-115.53
20698,-60.73
20709,-20.28
20721,4.76
20733,16.56
20745,18.39
20757,12.85
20769,1.47
20781,-14.31
20793,-31.92
20805,-47.03
20817,-54.7
20829,-51.38
20841,-36.97
20853,-15.32
20865,6.81
20877,22.45
20888,26.68
20899,17.88
20911,-2.32
20923,-30.0
20935,-59.94
20947,-86.59
20959,-104.69
20971,-110.63
20983,-103.45
20995,-85.85
