seconds,BVP
0,16.22
12,19.38
24,23.44
36,27.22
48,29.09
60,28.04
72,23.96
84,17.81
96,11.04
107,4.94
118,0.23
130,-2.99
142,-5.08
154,-6.85
166,-8.96
178,-11.82
190,-15.39
202,-19.37
214,-23.38
226,-27.03
238,-30.01
250,-32.08
262,-33.23
274,-33.64
286,-33.71
297,-33.98
308,-35.02
320,-37.3
332,-40.92
344,-45.41
356,-49.7
368,-52.42
380,-52.18
392,-48.12
404,-40.13
416,-28.85
428,-15.5
440,-1.47
452,11.98
464,23.95
476,33.93
487,41.81
498,47.78
510,52.22
522,55.67
534,58.59
546,61.29
558,63.83
570,65.98
582,67.42
594,67.83
606,67.0
618,64.9
630,61.69
642,57.6
654,52.95
666,48.01
677,43.04
688,38.16
700,33.39
712,28.68
724,23.98
736,19.34
748,14.88
760,10.77
772,7.1
784,3.76
796,0.48
808,-3.05
820,-7.12
832,-11.76
844,-16.77
856,-21.72
867,-25.95
878,-28.73
890,-29.34
902,-27.32
914,-22.55
926,-15.47
938,-6.88
950,2.18
962,10.72
974,18.14
986,24.23
998,29.16
1010,33.29
1022,36.96
1034,40.33
1046,43.39
1057,45.97
1068,47.81
1080,48.74
1092,48.61
1104,47.48
1116,45.53
1128,43.04
1140,40.26
1152,37.44
1164,34.71
1176,32.08
1188,29.49
1200,26.82
1212,23.94
1224,20.76
1236,17.25
1247,13.46
1258,9.49
1270,5.47
1282,1.46
1294,-2.57
1306,-6.78
1318,-11.39
1330,-16.62
1342,-22.46
1354,-28.65
1366,-34.61
1378,-39.6
1390,-42.84
1402,-43.77
1414,-42.17
1426,-38.19
1437,-32.4
1448,-25.53
1460,-18.32
1472,-11.44
1484,-5.25
1496,0.08
1508,4.64
1520,8.51
1532,11.77
1544,14.39
1556,16.3
1568,17.49
1580,18.04
1592,18.22
1604,18.29
1616,18.45
1627,18.77
1638,19.16
1650,19.5
1662,19.66
1674,19.6
1686,19.32
1698,18.89
1710,18.44
1722,18.1
1734,17.94
1746,17.97
1758,18.09
1770,18.12
1782,17.85
1794,17.06
1806,15.6
1817,13.28
1828,9.99
1840,5.54
1852,-0.2
1864,-7.33
1876,-15.78
1888,-25.24
1900,-35.1
1912,-44.42
1924,-52.04
1936,-56.89
1948,-58.21
1960,-55.9
1972,-50.46
1984,-42.87
1996,-34.26
2007,-25.51
2018,-17.22
2030,-9.66
2042,-3.01
2054,2.6
2066,7.06
2078,10.36
2090,12.62
2102,14.06
2114,14.93
2126,15.38
2138,15.49
2150,15.3
2162,14.87
2174,14.3
2186,13.74
2197,13.24
2208,12.79
2220,12.27
2232,11.6
2244,10.74
2256,9.67
2268,8.4
2280,6.86
2292,4.98
2304,2.75
2316,0.29
2328,-2.16
2340,-4.44
2352,-6.55
2364,-8.65
2376,-11.08
2387,-14.03
2398,-17.46
2410,-21.05
2422,-24.31
2434,-26.87
2446,-28.59
2458,-29.69
2470,-30.6
2482,-31.75
2494,-33.46
2506,-35.78
2518,-38.54
2530,-41.35
2542,-43.63
2554,-44.69
2566,-43.86
2577,-40.61
2588,-34.79
2600,-26.65
2612,-16.92
2624,-6.58
2636,3.33
2648,11.98
2660,18.93
2672,24.13
2684,27.85
2696,30.45
2708,32.22
2720,33.3
2732,33.73
2744,33.58
2756,33.0
2767,32.26
2778,31.58
2790,31.07
2802,30.56
2814,29.79
2826,28.51
2838,26.66
2850,24.51
2862,22.54
2874,21.32
2886,21.27
2898,22.47
2910,24.59
2922,26.9
2934,28.53
2946,28.68
2957,26.98
2968,23.62
2980,19.3
2992,14.99
3004,11.56
3016,9.42
3028,8.53
3040,8.45
3052,8.65
3064,8.71
3076,8.47
3088,7.84
3100,6.76
3112,5.06
3124,2.58
3136,-0.83
3147,-5.08
3158,-9.96
3170,-15.2
3182,-20.5
3194,-25.54
3206,-29.88
3218,-32.95
3230,-34.16
3242,-33.0
3254,-29.29
3266,-23.27
3278,-15.61
3290,-7.27
3302,0.82
3314,7.89
3326,13.48
3337,17.42
3348,19.75
3360,20.79
3372,20.96
3384,20.64
3396,20.07
3408,19.31
3420,18.31
3432,16.86
3444,14.78
3456,11.99
3468,8.97
3480,6.31
3492,4.39
3504,3.2
3516,2.41
3527,1.64
3538,0.56
3550,-0.85
3562,-2.43
3574,-3.35
3586,-2.98
3598,-1.37
3610,0.67
3622,2.22
3634,2.75
3646,2.03
3658,0.55
3670,-1.22
3682,-1.95
3694,-0.63
3706,2.71
3717,7.04
3728,11.01
3740,13.65
3752,14.3
3764,13.34
3776,11.46
3788,10.98
3800,14.23
3812,22.45
3824,35.39
3836,51.92
3848,70.8
3860,90.47
3872,110.26
3884,120.61
3896,114.64
3907,92.64
3918,62.45
3930,33.14
3942,9.67
3954,-4.23
3966,-12.27
3978,-17.13
3990,-20.39
4002,-21.48
4014,-19.4
4026,-15.17
4038,-10.24
4050,-6.16
4062,-3.88
4074,-4.04
4086,-6.07
4097,-9.26
4108,-11.85
4120,-12.28
4132,-9.97
4144,-5.51
4156,-0.24
4168,4.44
4180,7.14
4192,7.44
4204,5.25
4216,1.45
4228,-2.95
4240,-7.46
4252,-12.17
4264,-17.52
4276,-23.8
4287,-31.12
4298,-38.87
4310,-46.42
4322,-52.9
4334,-57.7
4346,-60.78
4358,-62.54
4370,-63.66
4382,-64.71
4394,-66.16
4406,-68.08
4418,-70.45
4430,-73.01
4442,-75.41
4454,-77.26
4466,-78.15
4477,-77.74
4488,-75.82
4500,-72.51
4512,-68.09
4524,-63.05
4536,-57.74
4548,-52.3
4560,-46.54
4572,-40.17
4584,-33.03
4596,-25.36
4608,-17.78
4620,-11.06
4632,-5.84
4644,-2.33
4656,-0.28
4667,0.85
4678,1.63
4690,2.45
4702,3.41
4714,4.43
4726,5.38
4738,6.2
4750,6.91
4762,7.6
4774,8.4
4786,9.42
4798,10.71
4810,12.21
4822,13.78
4834,15.17
4846,16.13
4857,16.5
4868,16.22
4880,15.33
4892,13.95
4904,12.13
4916,9.91
4928,7.3
4940,4.33
4952,1.08
4964,-2.29
4976,-5.62
4988,-8.78
5000,-11.73
5012,-14.43
5024,-16.89
5036,-19.12
5047,-21.2
5058,-23.25
5070,-25.5
5082,-28.16
5094,-31.28
5106,-34.7
5118,-37.86
5130,-39.97
5142,-40.12
5154,-37.61
5166,-32.18
5178,-24.13
5190,-14.28
5202,-3.73
5214,6.46
5226,15.45
5237,22.8
5248,28.46
5260,32.64
5272,35.66
5284,37.84
5296,39.42
5308,40.5
5320,41.16
5332,41.4
5344,41.27
5356,40.84
5368,40.2
5380,39.38
5392,38.39
5404,37.23
5416,35.87
5427,34.4
5438,33.01
5450,31.86
5462,30.99
5474,30.29
5486,29.44
5498,28.08
5510,26.03
5522,23.35
5534,20.35
5546,17.41
5558,14.81
5570,12.54
5582,10.42
5594,8.18
5606,5.62
5617,2.74
5628,-0.34
5640,-3.46
5652,-6.48
5664,-9.36
5676,-12.09
5688,-14.72
5700,-17.31
5712,-20.0
5724,-23.01
5736,-26.52
5748,-30.59
5760,-34.98
5772,-39.06
5784,-41.92
5796,-42.71
5807,-40.87
5818,-36.44
5830,-30.02
5842,-22.61
5854,-15.26
5866,-8.77
5878,-3.51
5890,0.5
5902,3.44
5914,5.54
5926,6.97
5938,7.89
5950,8.42
5962,8.64
5974,8.61
5986,8.31
5997,7.71
6008,6.85
6020,5.83
6032,4.82
6044,3.96
6056,3.31
6068,2.81
6080,2.33
6092,1.71
6104,0.87
6116,-0.25
6128,-1.6
6140,-3.15
6152,-4.89
6164,-6.87
6176,-9.18
6187,-11.92
6198,-15.19
6210,-19.03
6222,-23.31
6234,-27.82
6246,-32.32
6258,-36.63
6270,-40.72
6282,-44.73
6294,-48.86
6306,-53.29
6318,-57.97
6330,-62.56
6342,-66.42
6354,-68.69
6366,-68.49
6377,-65.18
6388,-58.55
6400,-48.98
6412,-37.35
6424,-24.83
6436,-12.58
6448,-1.52
6460,7.85
6472,15.44
6484,21.4
6496,26.02
6508,29.53
6520,32.08
6532,33.69
6544,34.36
6556,34.1
6567,33.03
6578,31.36
6590,29.38
6602,27.36
6614,25.49
6626,23.94
6638,22.78
6650,22.09
6662,21.89
6674,22.13
6686,22.61
6698,23.04
6710,23.14
6722,22.73
6734,21.79
6746,20.42
6757,18.72
6768,16.71
6780,14.32
6792,11.45
6804,8.14
6816,4.61
6828,1.14
6840,-2.0
6852,-4.73
6864,-7.17
6876,-9.61
6888,-12.35
6900,-15.6
6912,-19.34
6924,-23.26
6936,-26.77
6947,-29.05
6958,-29.3
6970,-26.96
6982,-21.91
6994,-14.51
7006,-5.55
7018,3.97
7030,13.11
7042,21.15
7054,27.68
7066,32.61
7078,36.08
7090,38.34
7102,39.72
7114,40.47
7126,40.73
7137,40.58
7148,39.96
7160,38.86
7172,37.27
7184,35.23
7196,32.89
7208,30.39
7220,27.93
7232,25.74
7244,23.96
7256,22.64
7268,21.64
7280,20.66
7292,19.33
7304,17.31
7316,14.4
7327,10.66
7338,6.41
7350,2.15
7362,-1.59
7374,-4.42
7386,-6.19
7398,-7.12
7410,-7.67
7422,-8.34
7434,-9.49
7446,-11.23
7458,-13.45
7470,-16.0
7482,-18.83
7494,-22.1
7506,-26.04
7517,-30.72
7528,-35.9
7540,-40.9
7552,-44.84
7564,-46.84
7576,-46.28
7588,-43.03
7600,-37.37
7612,-29.94
7624,-21.47
7636,-12.67
7648,-4.12
7660,3.73
7672,10.58
7684,16.26
7696,20.65
7707,23.78
7718,25.7
7730,26.58
7742,26.55
7754,25.81
7766,24.53
7778,22.99
7790,21.47
7802,20.26
7814,19.6
7826,19.58
7838,20.11
7850,21.02
7862,22.16
7874,23.41
7886,24.73
7897,26.06
7908,27.22
7920,27.95
7932,27.97
7944,27.12
7956,25.47
7968,23.29
7980,20.96
7992,18.78
8004,16.9
8016,15.29
8028,13.81
8040,12.26
8052,10.49
8064,8.45
8076,6.16
8087,3.74
8098,1.37
8110,-0.81
8122,-2.78
8134,-4.71
8146,-6.94
8158,-9.84
8170,-13.59
8182,-18.09
8194,-22.76
8206,-26.79
8218,-29.24
8230,-29.35
8242,-26.76
8254,-21.52
8266,-14.16
8277,-5.45
8288,3.72
8300,12.51
8312,20.24
8324,26.52
8336,31.28
8348,34.69
8360,37.11
8372,38.92
8384,40.4
8396,41.66
8408,42.62
8420,43.13
8432,43.04
8444,42.29
8456,40.98
8467,39.26
8478,37.32
8490,35.33
8502,33.36
8514,31.39
8526,29.35
8538,27.12
8550,24.55
8562,21.5
8574,17.91
8586,13.76
8598,9.17
8610,4.32
8622,-0.56
8634,-5.27
8646,-9.68
8657,-13.79
8668,-17.63
8680,-21.23
8692,-24.52
8704,-27.34
8716,-29.5
8728,-30.9
8740,-31.66
8752,-32.13
8764,-32.88
8776,-34.45
8788,-37.18
8800,-40.99
8812,-45.41
8824,-49.63
8836,-52.67
8847,-53.65
8858,-51.95
8870,-47.37
8882,-40.16
8894,-31.06
8906,-21.07
8918,-11.31
8930,-2.67
8942,4.31
8954,9.49
8966,13.07
8978,15.37
8990,16.73
9002,17.38
9014,17.49
9026,17.18
9037,16.54
9048,15.68
9060,14.66
9072,13.52
9084,12.35
9096,11.27
9108,10.44
9120,10.02
9132,10.05
9144,10.4
9156,10.8
9168,10.89
9180,10.39
9192,9.18
9204,7.42
9216,5.47
9227,3.72
9238,2.42
9250,1.54
9262,0.75
9274,-0.37
9286,-2.1
9298,-4.45
9310,-7.1
9322,-9.6
9334,-11.6
9346,-12.98
9358,-13.94
9370,-14.89
9382,-16.2
9394,-18.16
9406,-20.86
9417,-24.15
9428,-27.61
9440,-30.63
9452,-32.48
9464,-32.49
9476,-30.25
9488,-25.81
9500,-19.68
9512,-12.7
9524,-5.73
9536,0.49
9548,5.58
9560,9.45
9572,12.2
9584,14.0
9596,14.97
9607,15.17
9618,14.63
9630,13.44
9642,11.71
9654,9.67
9666,7.56
9678,5.64
9690,4.07
9702,2.88
9714,1.87
9726,0.74
9738,-0.9
9750,-3.34
9762,-6.61
9774,-10.34
9786,-13.78
9797,-16.01
9808,-16.18
9820,-13.93
9832,-9.49
9844,-3.67
9856,2.46
9868,7.89
9880,11.9
9892,14.17
9904,14.69
9916,13.6
9928,11.11
9940,7.53
9952,3.22
9964,-1.29
9976,-5.53
9987,-9.08
9998,-11.78
10010,-13.78
10022,-15.43
10034,-17.26
10046,-19.72
10058,-23.03
10070,-27.02
10082,-31.04
10094,-34.16
10106,-35.4
10118,-34.09
10130,-30.15
10142,-24.05
10154,-16.69
10166,-8.97
10177,-1.57
10188,5.23
10200,11.49
10212,17.34
10224,22.9
10236,28.11
10248,32.77
10260,36.71
10272,39.85
10284,42.24
10296,43.96
10308,45.06
10320,45.5
10332,45.2
10344,44.12
10356,42.41
10367,40.41
10378,38.55
10390,37.23
10402,36.61
10414,36.62
10426,37.0
10438,37.47
10450,37.85
10462,38.0
10474,37.83
10486,37.15
10498,35.74
10510,33.4
10522,30.15
10534,26.24
10546,22.06
10557,18.0
10568,14.21
10580,10.57
10592,6.76
10604,2.49
10616,-2.32
10628,-7.51
10640,-12.7
10652,-17.54
10664,-21.82
10676,-25.57
10688,-28.96
10700,-32.27
10712,-35.68
10724,-39.24
10736,-42.78
10747,-45.93
10758,-48.17
10770,-48.88
10782,-47.59
10794,-44.04
10806,-38.38
10818,-31.15
10830,-23.09
10842,-15.08
10854,-7.79
10866,-1.62
10878,3.33
10890,7.15
10902,10.06
10914,12.26
10926,13.92
10937,15.22
10948,16.28
10960,17.19
10972,17.98
10984,18.57
10996,18.85
11008,18.67
11020,17.97
11032,16.81
11044,15.43
11056,14.13
11068,13.16
11080,12.65
11092,12.54
11104,12.66
11116,12.77
11127,12.66
11138,12.21
11150,11.4
11162,10.27
11174,8.92
11186,7.41
11198,5.77
11210,3.99
11222,2.07
11234,0.01
11246,-2.11
11258,-4.14
11270,-5.95
11282,-7.42
11294,-8.56
11306,-9.42
11317,-10.12
11328,-10.76
11340,-11.4
11352,-12.07
11364,-12.8
11376,-13.6
11388,-14.55
11400,-15.7
11412,-17.11
11424,-18.74
11436,-20.39
11448,-21.68
11460,-22.08
11472,-21.04
11484,-18.21
11496,-13.58
11507,-7.51
11518,-0.63
11530,6.34
11542,12.75
11554,18.15
11566,22.26
11578,25.0
11590,26.38
11602,26.54
11614,25.73
11626,24.3
11638,22.57
11650,20.81
11662,19.1
11674,17.38
11686,15.52
11697,13.43
11708,11.17
11720,8.89
11732,6.79
11744,5.0
11756,3.53
11768,2.27
11780,1.06
11792,-0.18
11804,-1.53
11816,-2.99
11828,-4.57
11840,-6.32
11852,-8.31
11864,-10.63
11876,-13.33
11887,-16.46
11898,-19.96
11910,-23.69
11922,-27.43
11934,-30.87
11946,-33.75
11958,-35.96
11970,-37.63
11982,-39.05
11994,-40.59
12006,-42.5
12018,-44.83
12030,-47.34
12042,-49.56
12054,-50.9
12066,-50.76
12077,-48.64
12088,-44.3
12100,-37.84
12112,-29.71
12124,-20.65
12136,-11.57
12148,-3.28
12160,3.57
12172,8.72
12184,12.23
12196,14.41
12208,15.71
12220,16.51
12232,17.03
12244,17.32
12256,17.3
12267,16.9
12278,16.12
12290,15.11
12302,14.07
12314,13.16
12326,12.46
12338,11.94
12350,11.53
12362,11.17
12374,10.87
12386,10.59
12398,10.33
12410,9.99
12422,9.41
12434,8.43
12446,6.92
12457,4.9
12468,2.47
12480,-0.14
12492,-2.73
12504,-5.17
12516,-7.46
12528,-9.67
12540,-11.93
12552,-14.28
12564,-16.72
12576,-19.23
12588,-21.78
12600,-24.42
12612,-27.18
12624,-30.05
12636,-32.99
12647,-35.92
12658,-38.77
12670,-41.43
12682,-43.69
12694,-45.16
12706,-45.31
12718,-43.57
12730,-39.59
12742,-33.42
12754,-25.53
12766,-16.73
12778,-7.91
12790,0.17
12802,7.02
12814,12.5
12826,16.66
12837,19.66
12848,21.68
12860,22.9
12872,23.56
12884,23.86
12896,24.03
12908,24.17
12920,24.28
12932,24.22
12944,23.86
12956,23.1
12968,22.01
12980,20.79
12992,19.67
13004,18.84
13016,18.29
13027,17.89
13038,17.41
13050,16.68
13062,15.59
13074,14.18
13086,12.56
13098,10.85
13110,9.15
13122,7.45
13134,5.72
13146,3.87
13158,1.82
13170,-0.47
13182,-2.99
13194,-5.68
13206,-8.46
13217,-11.2
13228,-13.84
13240,-16.33
13252,-18.66
13264,-20.9
13276,-23.19
13288,-25.73
13300,-28.74
13312,-32.31
13324,-36.28
13336,-40.21
13348,-43.34
13360,-44.8
13372,-43.86
13384,-40.16
13396,-33.89
13407,-25.7
13418,-16.56
13430,-7.47
13442,0.78
13454,7.71
13466,13.2
13478,17.33
13490,20.32
13502,22.37
13514,23.69
13526,24.47
13538,24.9
13550,25.13
13562,25.21
13574,25.17
13586,24.92
13597,24.39
13608,23.61
13620,22.69
13632,21.82
13644,21.15
13656,20.76
13668,20.55
13680,20.36
13692,20.0
13704,19.32
13716,18.26
13728,16.79
13740,14.95
13752,12.79
13764,10.42
13776,7.97
13787,5.62
13798,3.44
13810,1.42
13822,-0.61
13834,-2.85
13846,-5.43
13858,-8.35
13870,-11.44
13882,-14.46
13894,-17.27
13906,-19.8
13918,-22.15
13930,-24.46
13942,-26.97
13954,-29.86
13966,-33.24
13977,-37.04
13988,-40.9
14000,-44.17
14012,-45.96
14024,-45.45
14036,-42.11
14048,-36.02
14060,-27.78
14072,-18.38
14084,-8.9
14096,-0.21
14108,7.11
14120,12.81
14132,16.86
14144,19.36
14156,20.52
14167,20.6
14178,20.0
14190,19.11
14202,18.36
14214,18.03
14226,18.18
14238,18.66
14250,19.17
14262,19.41
14274,19.21
14286,18.64
14298,17.96
14310,17.49
14322,17.44
14334,17.81
14346,18.35
14357,18.71
14368,18.58
14380,17.78
14392,16.38
14404,14.55
14416,12.52
14428,10.45
14440,8.44
14452,6.47
14464,4.48
14476,2.4
14488,0.18
14500,-2.18
14512,-4.63
14524,-7.08
14536,-9.49
14547,-11.87
14558,-14.27
14570,-16.8
14582,-19.46
14594,-22.29
14606,-25.24
14618,-28.23
14630,-31.12
14642,-33.55
14654,-34.95
14666,-34.6
14678,-31.87
14690,-26.49
14702,-18.79
14714,-9.59
14726,-0.03
14737,8.86
14748,16.41
14760,22.38
14772,26.91
14784,30.21
14796,32.49
14808,33.83
14820,34.28
14832,33.92
14844,32.9
14856,31.44
14868,29.69
14880,27.83
14892,25.94
14904,24.1
14916,22.42
14927,21.0
14938,19.92
14950,19.19
14962,18.7
14974,18.28
14986,17.7
14998,16.82
15010,15.6
15022,14.06
15034,12.29
15046,10.29
15058,8.02
15070,5.38
15082,2.29
15094,-1.19
15106,-4.87
15117,-8.43
15128,-11.6
15140,-14.26
15152,-16.54
15164,-18.75
15176,-21.26
15188,-24.3
15200,-27.85
15212,-31.59
15224,-34.92
15236,-37.07
15248,-37.32
15260,-35.15
15272,-30.42
15284,-23.45
15296,-14.9
15307,-5.69
15318,3.29
15330,11.32
15342,17.94
15354,22.99
15366,26.48
15378,28.58
15390,29.5
15402,29.51
15414,28.86
15426,27.77
15438,26.4
15450,24.88
15462,23.29
15474,21.71
15486,20.23
15497,18.91
15508,17.75
15520,16.7
15532,15.69
15544,14.65
15556,13.51
15568,12.24
15580,10.77
15592,9.09
15604,7.14
15616,4.93
15628,2.5
15640,-0.08
15652,-2.77
15664,-5.52
15676,-8.32
15687,-11.22
15698,-14.24
15710,-17.29
15722,-20.25
15734,-22.91
15746,-25.12
15758,-26.82
15770,-28.18
15782,-29.52
15794,-31.25
15806,-33.72
15818,-37.02
15830,-40.83
15842,-44.42
15854,-46.8
15866,-46.98
15877,-44.24
15888,-38.41
15900,-29.96
15912,-19.89
15924,-9.44
15936,0.25
15948,8.38
15960,14.6
15972,19.02
15984,21.99
15996,23.92
16008,25.21
16020,26.11
16032,26.73
16044,27.07
16056,27.06
16067,26.62
16078,25.7
16090,24.34
16102,22.64
16114,20.77
16126,18.92
16138,17.21
16150,15.77
16162,14.62
16174,13.7
16186,12.82
16198,11.67
16210,9.98
16222,7.54
16234,4.41
16246,0.83
16257,-2.82
16268,-6.15
16280,-8.93
16292,-11.15
16304,-13.02
16316,-14.83
16328,-16.86
16340,-19.28
16352,-22.08
16364,-25.06
16376,-27.9
16388,-30.24
16400,-31.81
16412,-32.57
16424,-32.74
16436,-32.77
16447,-33.16
16458,-34.26
16470,-36.06
16482,-38.17
16494,-39.84
16506,-40.17
16518,-38.35
16530,-33.92
16542,-26.9
16554,-17.88
16566,-7.83
16578,2.08
16590,10.83
16602,17.81
16614,22.87
16626,26.32
16637,28.68
16648,30.42
16660,31.85
16672,33.02
16684,33.85
16696,34.23
16708,34.13
16720,33.65
16732,32.97
16744,32.24
16756,31.49
16768,30.66
16780,29.62
16792,28.34
16804,26.94
16816,25.63
16827,24.61
16838,23.92
16850,23.32
16862,22.45
16874,20.95
16886,18.71
16898,15.86
16910,12.78
16922,9.85
16934,7.32
16946,5.26
16958,3.61
16970,2.17
16982,0.78
16994,-0.77
17006,-2.66
17017,-5.01
17028,-7.83
17040,-11.04
17052,-14.46
17064,-17.85
17076,-21.05
17088,-24.02
17100,-26.81
17112,-29.57
17124,-32.48
17136,-35.67
17148,-39.11
17160,-42.57
17172,-45.5
17184,-47.16
17196,-46.75
17207,-43.72
17218,-38.02
17230,-30.21
17242,-21.28
17254,-12.39
17266,-4.51
17278,1.81
17290,6.5
17302,9.81
17314,12.15
17326,13.84
17338,15.1
17350,16.02
17362,16.7
17374,17.24
17386,17.75
17397,18.31
17408,18.98
17420,19.68
17432,20.32
17444,20.85
17456,21.27
17468,21.66
17480,22.17
17492,22.89
17504,23.83
17516,24.87
17528,25.7
17540,26.0
17552,25.52
17564,24.09
17576,21.7
17587,18.5
17598,14.71
17610,10.67
17622,6.71
17634,3.17
17646,0.27
17658,-1.93
17670,-3.59
17682,-5.01
17694,-6.55
17706,-8.51
17718,-11.11
17730,-14.46
17742,-18.59
17754,-23.48
17766,-28.97
17777,-34.74
17788,-40.16
17800,-44.42
17812,-46.62
17824,-46.07
17836,-42.48
17848,-36.07
17860,-27.56
17872,-17.99
17884,-8.42
17896,0.3
17908,7.66
17920,13.51
17932,17.99
17944,21.32
17956,23.75
17967,25.44
17978,26.46
17990,26.82
18002,26.56
18014,25.71
18026,24.38
18038,22.75
18050,21.07
18062,19.62
18074,18.58
18086,18.02
18098,17.79
18110,17.62
18122,17.21
18134,16.35
18146,15.0
18157,13.21
18168,11.13
18180,8.86
18192,6.43
18204,3.82
18216,0.98
18228,-2.11
18240,-5.42
18252,-8.87
18264,-12.31
18276,-15.65
18288,-18.76
18300,-21.57
18312,-24.12
18324,-26.5
18336,-28.91
18347,-31.54
18358,-34.54
18370,-37.87
18382,-41.28
18394,-44.28
18406,-46.2
18418,-46.28
18430,-43.88
18442,-38.68
18454,-30.84
18466,-20.99
18478,-10.13
18490,0.63
18502,10.38
18514,18.54
18526,24.96
18537,29.76
18548,33.22
18560,35.6
18572,37.1
18584,37.85
18596,37.93
18608,37.41
18620,36.4
18632,34.95
18644,33.11
18656,30.92
18668,28.42
18680,25.74
18692,23.1
18704,20.77
18716,19.02
18727,17.94
18738,17.39
18750,17.04
18762,16.44
18774,15.21
18786,13.17
18798,10.41
18810,7.2
18822,3.86
18834,0.6
18846,-2.49
18858,-5.46
18870,-8.39
18882,-11.3
18894,-14.16
18906,-16.83
18917,-19.18
18928,-21.1
18940,-22.6
18952,-23.82
18964,-24.99
18976,-26.44
18988,-28.47
19000,-31.26
19012,-34.74
19024,-38.5
19036,-41.73
19048,-43.49
19060,-42.89
19072,-39.46
19084,-33.38
19096,-25.37
19107,-16.5
19118,-7.79
19130,0.05
19142,6.72
19154,12.23
19166,16.7
19178,20.22
19190,22.85
19202,24.63
19214,25.65
19226,26.1
19238,26.18
19250,26.01
19262,25.62
19274,24.98
19286,24.05
19297,22.83
19308,21.41
19320,19.94
19332,18.58
19344,17.48
19356,16.72
19368,16.26
19380,15.95
19392,15.57
19404,14.83
19416,13.59
19428,11.82
19440,9.68
19452,7.46
19464,5.43
19476,3.77
19487,2.43
19498,1.22
19510,-0.11
19522,-1.74
19534,-3.74
19546,-6.03
19558,-8.48
19570,-10.96
19582,-13.4
19594,-15.78
19606,-18.09
19618,-20.3
19630,-22.37
19642,-24.29
19654,-26.13
19666,-27.93
19677,-29.62
19688,-30.86
19700,-31.04
19712,-29.45
19724,-25.54
19736,-19.21
19748,-10.92
19760,-1.56
19772,7.89
19784,16.61
19796,24.19
19808,30.51
19820,35.64
19832,39.63
19844,42.49
19856,44.23
19867,44.94
19878,44.87
19890,44.29
19902,43.45
19914,42.41
19926,41.14
19938,39.48
19950,37.35
19962,34.73
19974,31.75
19986,28.58
19998,25.35
20010,22.15
20022,18.98
20034,15.8
20046,12.52
20057,9.05
20068,5.3
20080,1.25
20092,-3.02
20104,-7.35
20116,-11.55
20128,-15.43
20140,-18.99
20152,-22.39
20164,-25.93
20176,-30.0
20188,-34.85
20200,-40.5
20212,-46.67
20224,-52.87
20236,-58.55
20247,-63.3
20258,-66.95
20270,-69.59
20282,-71.47
20294,-72.86
20306,-73.88
20318,-74.33
20330,-73.75
20342,-71.44
20354,-66.79
20366,-59.41
20378,-49.43
20390,-37.45
20402,-24.45
20414,-11.48
20426,0.63
20437,11.4
20448,20.76
20460,28.86
20472,35.89
20484,41.91
20496,46.92
20508,50.89
20520,53.81
20532,55.76
20544,56.92
20556,57.6
20568,58.06
20580,58.59
20592,59.37
20604,60.49
20616,61.86
20627,63.28
20638,64.41
20650,64.9
20662,64.4
20674,62.69
20686,59.67
20698,55.37
20710,49.91
20722,43.45
20734,36.21
20746,28.42
20758,20.33
20770,12.15
20782,4.01
20794,-4.03
20806,-12.02
20817,-20.06
20828,-28.13
20840,-36.13
20852,-43.78
20864,-50.74
20876,-56.63
20888,-61.07
20900,-63.7
20912,-64.25
20924,-62.54
20936,-58.54
20948,-52.5
20960,-44.91
20972,-36.46
20984,-27.89
20996,-19.81
