seconds,BVP
2,-116.81
14,-120.95
26,-126.92
38,-134.49
50,-143.16
62,-152.52
74,-162.49
86,-173.24
98,-185.0
109,-197.65
120,-210.5
132,-222.11
144,-230.5
156,-233.45
168,-229.14
180,-216.58
192,-195.98
204,-168.62
216,-136.47
228,-101.73
240,-66.44
252,-32.36
264,-1.05
276,26.19
288,48.47
299,65.54
310,77.96
322,86.96
334,94.01
346,100.25
358,106.03
370,110.97
382,114.3
394,115.37
406,114.1
418,110.96
430,106.82
442,102.48
454,98.43
466,94.77
478,91.38
489,88.14
500,85.08
512,82.42
524,80.39
536,79.12
548,78.49
560,78.17
572,77.71
584,76.61
596,74.34
608,70.43
620,64.43
632,56.03
644,45.17
656,32.13
668,17.59
679,2.53
690,-11.92
702,-24.75
714,-35.21
726,-43.03
738,-48.32
750,-51.61
762,-53.56
774,-54.85
786,-55.92
798,-56.91
810,-57.65
822,-57.81
834,-57.09
846,-55.34
858,-52.64
869,-49.14
880,-45.03
892,-40.4
904,-35.2
916,-29.43
928,-23.13
940,-16.52
952,-9.94
964,-3.74
976,1.84
988,6.78
1000,11.23
1012,15.47
1024,19.71
1036,24.01
1048,28.18
1059,31.88
1070,34.73
1082,36.6
1094,37.66
1106,38.42
1118,39.55
1130,41.57
1142,44.69
1154,48.6
1166,52.64
1178,56.03
1190,58.21
1202,59.1
1214,59.21
1226,59.49
1238,61.09
1249,64.88
1260,71.19
1272,79.54
1284,88.67
1296,96.81
1308,102.05
1320,102.84
1332,98.55
1344,89.88
1356,78.87
1368,68.41
1380,61.29
1392,58.98
1404,60.88
1416,64.28
1428,65.33
1439,60.43
1450,47.6
1462,27.1
1474,1.06
1486,-27.56
1498,-56.04
1510,-82.58
1522,-106.28
1534,-126.76
1546,-143.8
1558,-157.1
1570,-166.53
1582,-172.27
1594,-174.86
1606,-175.08
1618,-173.62
1629,-170.9
1640,-167.0
1652,-161.84
1664,-155.37
1676,-147.71
1688,-139.17
1700,-130.05
1712,-120.53
1724,-110.5
1736,-99.65
1748,-87.64
1760,-74.31
1772,-59.8
1784,-44.58
1796,-29.33
1808,-14.87
1819,-1.95
1830,8.83
1842,17.13
1854,22.87
1866,26.27
1878,27.84
1890,28.23
1902,28.12
1914,27.99
1926,28.07
1938,28.35
1950,28.62
1962,28.69
1974,28.46
1986,27.95
1998,27.24
2009,26.36
2020,25.28
2032,23.87
2044,22.0
2056,19.52
2068,16.37
2080,12.57
2092,8.18
2104,3.33
2116,-1.91
2128,-7.49
2140,-13.51
2152,-20.1
2164,-27.35
2176,-35.14
2188,-42.93
2199,-49.79
2210,-54.54
2222,-56.09
2234,-53.77
2246,-47.59
2258,-38.19
2270,-26.69
2282,-14.39
2294,-2.57
2306,7.71
2318,15.66
2330,20.85
2342,23.14
2354,22.8
2366,20.35
2378,16.58
2389,12.37
2400,8.55
2412,5.79
2424,4.52
2436,4.85
2448,6.63
2460,9.49
2472,12.9
2484,16.37
2496,19.48
2508,21.97
2520,23.61
2532,24.25
2544,23.81
2556,22.3
2568,19.9
2579,16.88
2590,13.55
2602,10.09
2614,6.47
2626,2.41
2638,-2.33
2650,-7.75
2662,-13.4
2674,-18.36
2686,-21.49
2698,-21.8
2710,-18.82
2722,-12.77
2734,-4.48
2746,4.86
2758,14.04
2769,22.08
2780,28.38
2792,32.73
2804,35.14
2816,35.77
2828,34.94
2840,33.0
2852,30.4
2864,27.69
2876,25.37
2888,23.93
2900,23.6
2912,24.39
2924,25.99
2936,27.94
2948,29.74
2959,30.98
2970,31.47
2982,31.24
2994,30.39
3006,29.1
3018,27.43
3030,25.39
3042,22.93
3054,19.95
3066,16.42
3078,12.27
3090,7.54
3102,2.32
3114,-3.1
3126,-8.18
3138,-12.2
3149,-14.34
3160,-13.95
3172,-10.71
3184,-4.82
3196,3.06
3208,11.94
3220,20.8
3232,28.74
3244,35.15
3256,39.71
3268,42.32
3280,43.02
3292,41.96
3304,39.41
3316,35.79
3328,31.69
3339,27.78
3350,24.67
3362,22.83
3374,22.36
3386,23.04
3398,24.35
3410,25.69
3422,26.49
3434,26.4
3446,25.38
3458,23.57
3470,21.26
3482,18.71
3494,16.09
3506,13.43
3518,10.62
3529,7.54
3540,4.03
3552,0.06
3564,-4.3
3576,-8.79
3588,-12.96
3600,-16.17
3612,-17.73
3624,-17.02
3636,-13.74
3648,-7.97
3660,-0.3
3672,8.35
3684,16.88
3696,24.31
3708,29.96
3719,33.53
3730,35.05
3742,34.76
3754,32.99
3766,30.11
3778,26.57
3790,22.93
3802,19.8
3814,17.7
3826,16.9
3838,17.34
3850,18.62
3862,20.16
3874,21.45
3886,22.13
3898,22.11
3909,21.42
3920,20.19
3932,18.54
3944,16.57
3956,14.34
3968,11.87
3980,9.11
3992,5.96
4004,2.32
4016,-1.86
4028,-6.49
4040,-11.28
4052,-15.68
4064,-19.03
4076,-20.58
4088,-19.69
4099,-15.98
4110,-9.49
4122,-0.76
4134,9.24
4146,19.33
4158,28.36
4170,35.44
4182,40.14
4194,42.36
4206,42.35
4218,40.48
4230,37.25
4242,33.23
4254,29.04
4266,25.29
4278,22.47
4289,20.84
4300,20.35
4312,20.69
4324,21.36
4336,21.8
4348,21.49
4360,20.12
4372,17.63
4384,14.24
4396,10.38
4408,6.5
4420,2.93
4432,-0.28
4444,-3.33
4456,-6.54
4468,-10.18
4479,-14.36
4490,-18.96
4502,-23.64
4514,-27.97
4526,-31.32
4538,-33.07
4550,-32.62
4562,-29.6
4574,-24.04
4586,-16.42
4598,-7.66
4610,1.15
4622,9.0
4634,15.22
4646,19.48
4658,21.79
4669,22.33
4680,21.36
4692,19.16
4704,16.09
4716,12.6
4728,9.21
4740,6.4
4752,4.51
4764,3.63
4776,3.55
4788,3.92
4800,4.34
4812,4.5
4824,4.28
4836,3.71
4848,2.91
4859,2.0
4870,1.03
4882,0.02
4894,-1.13
4906,-2.46
4918,-3.99
4930,-5.71
4942,-7.64
4954,-9.83
4966,-12.31
4978,-15.02
4990,-17.63
5002,-19.57
5014,-20.18
5026,-18.9
5038,-15.59
5049,-10.55
5060,-4.51
5072,1.67
5084,7.21
5096,11.58
5108,14.48
5120,15.79
5132,15.48
5144,13.71
5156,10.78
5168,7.21
5180,3.63
5192,0.61
5204,-1.41
5216,-2.26
5228,-2.0
5239,-0.88
5250,0.67
5262,2.24
5274,3.44
5286,4.03
5298,3.94
5310,3.26
5322,2.2
5334,0.93
5346,-0.44
5358,-1.94
5370,-3.7
5382,-5.89
5394,-8.7
5406,-12.14
5418,-16.06
5429,-20.0
5440,-23.26
5452,-25.09
5464,-24.84
5476,-22.25
5488,-17.5
5500,-11.2
5512,-4.2
5524,2.61
5536,8.52
5548,13.06
5560,16.06
5572,17.53
5584,17.6
5596,16.44
5608,14.31
5619,11.52
5630,8.47
5642,5.6
5654,3.33
5666,1.89
5678,1.31
5690,1.4
5702,1.83
5714,2.28
5726,2.53
5738,2.49
5750,2.17
5762,1.59
5774,0.78
5786,-0.28
5798,-1.64
5809,-3.37
5820,-5.58
5832,-8.36
5844,-11.78
5856,-15.73
5868,-19.88
5880,-23.6
5892,-26.15
5904,-26.81
5916,-25.2
5928,-21.37
5940,-15.8
5952,-9.29
5964,-2.67
5976,3.3
5988,8.13
5999,11.52
6010,13.34
6022,13.63
6034,12.53
6046,10.33
6058,7.45
6070,4.39
6082,1.61
6094,-0.48
6106,-1.71
6118,-2.11
6130,-1.91
6142,-1.48
6154,-1.17
6166,-1.2
6178,-1.6
6189,-2.32
6200,-3.27
6212,-4.41
6224,-5.81
6236,-7.56
6248,-9.72
6260,-12.27
6272,-15.17
6284,-18.4
6296,-21.91
6308,-25.61
6320,-29.18
6332,-31.99
6344,-33.26
6356,-32.29
6368,-28.73
6379,-22.81
6390,-15.27
6402,-7.17
6414,0.46
6426,6.87
6438,11.72
6450,14.95
6462,16.68
6474,17.04
6486,16.19
6498,14.32
6510,11.74
6522,8.88
6534,6.25
6546,4.29
6558,3.27
6569,3.18
6580,3.81
6592,4.72
6604,5.48
6616,5.73
6628,5.29
6640,4.2
6652,2.68
6664,0.98
6676,-0.7
6688,-2.32
6700,-4.03
6712,-6.09
6724,-8.76
6736,-12.19
6748,-16.32
6759,-20.85
6770,-25.28
6782,-28.98
6794,-31.28
6806,-31.57
6818,-29.51
6830,-25.08
6842,-18.67
6854,-10.97
6866,-2.86
6878,4.8
6890,11.27
6902,16.09
6914,19.06
6926,20.21
6938,19.85
6949,18.37
6960,16.26
6972,13.94
6984,11.76
6996,9.96
7008,8.7
7020,8.12
7032,8.27
7044,9.07
7056,10.27
7068,11.49
7080,12.36
7092,12.59
7104,12.1
7116,10.91
7128,9.14
7139,6.89
7150,4.25
7162,1.38
7174,-1.52
7186,-4.28
7198,-6.79
7210,-9.15
7222,-11.57
7234,-14.3
7246,-17.45
7258,-20.8
7270,-23.82
7282,-25.73
7294,-25.77
7306,-23.44
7318,-18.68
7329,-12.01
7340,-4.34
7352,3.26
7364,9.84
7376,14.81
7388,17.97
7400,19.4
7412,19.34
7424,18.08
7436,15.9
7448,13.15
7460,10.22
7472,7.54
7484,5.49
7496,4.34
7508,4.16
7519,4.82
7530,6.04
7542,7.46
7554,8.66
7566,9.33
7578,9.26
7590,8.43
7602,6.92
7614,4.95
7626,2.69
7638,0.34
7650,-2.02
7662,-4.35
7674,-6.64
7686,-8.94
7698,-11.35
7709,-14.0
7720,-16.96
7732,-20.2
7744,-23.44
7756,-26.14
7768,-27.63
7780,-27.29
7792,-24.78
7804,-20.19
7816,-14.06
7828,-7.17
7840,-0.34
7852,5.72
7864,10.55
7876,13.9
7888,15.66
7899,15.84
7910,14.6
7922,12.25
7934,9.28
7946,6.26
7958,3.74
7970,2.12
7982,1.51
7994,1.84
8006,2.85
8018,4.19
8030,5.57
8042,6.7
8054,7.35
8066,7.33
8078,6.55
8089,5.01
8100,2.88
8112,0.41
8124,-2.11
8136,-4.48
8148,-6.65
8160,-8.73
8172,-10.94
8184,-13.51
8196,-16.59
8208,-20.07
8220,-23.57
8232,-26.48
8244,-28.06
8256,-27.71
8268,-25.13
8279,-20.43
8290,-14.13
8302,-6.98
8314,0.21
8326,6.72
8338,11.99
8350,15.68
8362,17.62
8374,17.85
8386,16.58
8398,14.16
8410,11.03
8422,7.61
8434,4.29
8446,1.45
8458,-0.59
8469,-1.57
8480,-1.46
8492,-0.49
8504,0.9
8516,2.14
8528,2.74
8540,2.43
8552,1.22
8564,-0.66
8576,-2.88
8588,-5.17
8600,-7.4
8612,-9.54
8624,-11.65
8636,-13.88
8648,-16.4
8659,-19.39
8670,-22.92
8682,-26.8
8694,-30.52
8706,-33.2
8718,-33.92
8730,-31.96
8742,-27.12
8754,-19.85
8766,-11.13
8778,-2.16
8790,6.0
8802,12.62
8814,17.41
8826,20.31
8838,21.48
8849,21.12
8860,19.49
8872,16.95
8884,13.94
8896,10.95
8908,8.42
8920,6.68
8932,5.86
8944,5.89
8956,6.5
8968,7.34
8980,8.07
8992,8.4
9004,8.18
9016,7.38
9028,6.03
9039,4.21
9050,2.04
9062,-0.35
9074,-2.83
9086,-5.32
9098,-7.83
9110,-10.52
9122,-13.62
9134,-17.33
9146,-21.67
9158,-26.35
9170,-30.68
9182,-33.74
9194,-34.59
9206,-32.57
9218,-27.56
9229,-20.04
9240,-11.06
9252,-1.89
9264,6.27
9276,12.62
9288,16.88
9300,19.18
9312,19.91
9324,19.46
9336,18.16
9348,16.25
9360,13.93
9372,11.48
9384,9.23
9396,7.55
9408,6.7
9419,6.77
9430,7.64
9442,9.03
9454,10.59
9466,11.97
9478,12.87
9490,13.11
9502,12.57
9514,11.29
9526,9.39
9538,7.1
9550,4.65
9562,2.23
9574,-0.1
9586,-2.4
9598,-4.84
9609,-7.63
9620,-10.85
9632,-14.38
9644,-17.77
9656,-20.37
9668,-21.4
9680,-20.25
9692,-16.77
9704,-11.33
9716,-4.72
9728,2.13
9740,8.54
9752,14.27
9764,19.47
9776,24.36
9788,28.83
9799,32.34
9810,34.04
9822,33.24
9834,29.76
9846,24.07
9858,17.0
9870,9.43
9882,1.97
9894,-5.0
9906,-11.16
9918,-16.19
9930,-19.79
9942,-21.9
9954,-22.82
9966,-23.18
9978,-23.66
9989,-24.61
10000,-25.9
10012,-27.0
10024,-27.14
10036,-25.64
10048,-22.03
10060,-16.09
10072,-7.81
10084,2.59
10096,14.67
10108,27.74
10120,40.94
10132,53.39
10144,64.25
10156,72.78
10168,78.31
10179,80.4
10190,79.04
10202,74.74
10214,68.3
10226,60.33
10238,50.81
10250,39.08
10262,24.31
10274,6.34
10286,-13.71
10298,-33.48
10310,-50.18
10322,-61.64
10334,-67.26
10346,-67.94
10358,-65.58
10369,-62.08
10380,-58.64
10392,-55.76
10404,-53.56
10416,-52.22
10428,-52.14
10440,-53.76
10452,-57.22
10464,-62.16
10476,-67.84
10488,-73.41
10500,-78.3
10512,-82.53
10524,-86.7
10536,-91.75
10548,-98.53
10559,-107.32
10570,-117.53
10582,-127.68
10594,-135.62
10606,-139.01
10618,-135.82
10630,-124.89
10642,-106.31
10654,-81.54
10666,-53.21
10678,-24.51
10690,1.57
10702,23.01
10714,39.17
10726,50.68
10738,58.91
10749,65.28
10760,70.7
10772,75.36
10784,78.98
10796,81.19
10808,81.82
10820,81.04
10832,79.19
10844,76.58
10856,73.35
10868,69.46
10880,64.88
10892,59.77
10904,54.65
10916,50.42
10928,48.04
10939,48.28
10950,51.22
10962,56.15
10974,61.73
10986,66.41
10998,69.02
11010,69.15
11022,67.17
11034,63.96
11046,60.4
11058,57.05
11070,54.07
11082,51.45
11094,49.23
11106,47.78
11118,47.71
11129,49.65
11140,53.97
11152,60.54
11164,68.71
11176,77.39
11188,85.17
11200,90.69
11212,92.87
11224,91.23
11236,86.02
11248,78.1
11260,68.58
11272,58.4
11284,48.04
11296,37.44
11308,26.35
11319,14.61
11330,2.48
11342,-9.39
11354,-20.21
11366,-29.36
11378,-36.66
11390,-42.3
11402,-46.69
11414,-50.15
11426,-52.83
11438,-54.67
11450,-55.51
11462,-55.18
11474,-53.63
11486,-50.95
11498,-47.39
11509,-43.41
11520,-39.6
11532,-36.58
11544,-34.86
11556,-34.58
11568,-35.39
11580,-36.51
11592,-36.98
11604,-35.96
11616,-33.06
11628,-28.41
11640,-22.54
11652,-16.11
11664,-9.7
11676,-3.66
11688,1.86
11699,6.7
11710,10.66
11722,13.41
11734,14.65
11746,14.22
11758,12.16
11770,8.76
11782,4.38
11794,-0.66
11806,-6.21
11818,-12.18
11830,-18.53
11842,-25.09
11854,-31.51
11866,-37.34
11878,-42.08
11889,-45.44
11900,-47.29
11912,-47.67
11924,-46.7
11936,-44.47
11948,-41.05
11960,-36.54
11972,-31.2
11984,-25.41
11996,-19.62
12008,-14.24
12020,-9.46
12032,-5.35
12044,-1.88
12056,0.96
12068,3.12
12079,4.56
12090,5.35
12102,5.69
12114,5.91
12126,6.23
12138,6.73
12150,7.26
12162,7.56
12174,7.44
12186,6.87
12198,6.03
12210,5.13
12222,4.31
12234,3.58
12246,2.81
12258,1.91
12269,0.85
12280,-0.31
12292,-1.46
12304,-2.58
12316,-3.7
12328,-4.87
12340,-6.0
12352,-6.82
12364,-6.88
12376,-5.74
12388,-3.1
12400,1.03
12412,6.31
12424,12.14
12436,17.82
12448,22.7
12459,26.3
12470,28.39
12482,28.94
12494,28.09
12506,26.07
12518,23.16
12530,19.72
12542,16.14
12554,12.84
12566,10.15
12578,8.24
12590,7.03
12602,6.26
12614,5.55
12626,4.58
12638,3.26
12649,1.68
12660,0.02
12672,-1.51
12684,-2.84
12696,-4.02
12708,-5.16
12720,-6.36
12732,-7.68
12744,-9.09
12756,-10.52
12768,-11.85
12780,-12.91
12792,-13.5
12804,-13.41
12816,-12.5
12828,-10.74
12839,-8.26
12850,-5.35
12862,-2.37
12874,0.3
12886,2.37
12898,3.66
12910,4.13
12922,3.83
12934,2.91
12946,1.58
12958,0.04
12970,-1.47
12982,-2.74
12994,-3.59
13006,-3.97
13018,-3.89
13029,-3.49
13040,-2.96
13052,-2.45
13064,-2.06
13076,-1.82
13088,-1.71
13100,-1.74
13112,-1.96
13124,-2.5
13136,-3.47
13148,-4.94
13160,-6.87
13172,-9.13
13184,-11.56
13196,-14.0
13208,-16.28
13219,-18.19
13230,-19.44
13242,-19.7
13254,-18.68
13266,-16.28
13278,-12.71
13290,-8.45
13302,-4.13
13314,-0.31
13326,2.7
13338,4.86
13350,6.33
13362,7.33
13374,8.03
13386,8.49
13398,8.71
13409,8.68
13420,8.39
13432,7.94
13444,7.42
13456,6.98
13468,6.72
13480,6.7
13492,6.91
13504,7.27
13516,7.65
13528,7.88
13540,7.8
13552,7.33
13564,6.47
13576,5.3
13588,3.97
13599,2.68
13610,1.51
13622,0.4
13634,-0.77
13646,-2.22
13658,-4.12
13670,-6.47
13682,-9.1
13694,-11.73
13706,-13.96
13718,-15.42
13730,-15.85
13742,-15.09
13754,-13.25
13766,-10.6
13778,-7.59
13789,-4.7
13800,-2.32
13812,-0.64
13824,0.36
13836,0.83
13848,0.94
13860,0.8
13872,0.43
13884,-0.17
13896,-1.0
13908,-1.91
13920,-2.71
13932,-3.16
13944,-3.14
13956,-2.64
13968,-1.82
13979,-0.92
13990,-0.15
14002,0.38
14014,0.69
14026,0.87
14038,1.02
14050,1.14
14062,1.13
14074,0.85
14086,0.22
14098,-0.73
14110,-1.87
14122,-2.99
14134,-3.93
14146,-4.68
14158,-5.32
14169,-6.02
14180,-6.91
14192,-8.05
14204,-9.41
14216,-10.88
14228,-12.25
14240,-13.27
14252,-13.63
14264,-13.07
14276,-11.46
14288,-8.87
14300,-5.61
14312,-2.1
14324,1.24
14336,4.08
14348,6.3
14359,7.89
14370,8.87
14382,9.3
14394,9.19
14406,8.57
14418,7.54
14430,6.27
14442,4.99
14454,3.97
14466,3.42
14478,3.39
14490,3.81
14502,4.44
14514,5.01
14526,5.32
14538,5.29
14549,4.94
14560,4.37
14572,3.63
14584,2.78
14596,1.83
14608,0.82
14620,-0.23
14632,-1.25
14644,-2.21
14656,-3.1
14668,-3.93
14680,-4.7
14692,-5.41
14704,-6.09
14716,-6.81
14728,-7.67
14739,-8.8
14750,-10.23
14762,-11.87
14774,-13.56
14786,-15.03
14798,-16.02
14810,-16.24
14822,-15.43
14834,-13.47
14846,-10.41
14858,-6.54
14870,-2.37
14882,1.55
14894,4.73
14906,6.9
14918,8.05
14929,8.35
14940,8.01
14952,7.23
14964,6.16
14976,4.97
14988,3.92
15000,3.32
15012,3.41
15024,4.26
15036,5.69
15048,7.3
15060,8.63
15072,9.33
15084,9.27
15096,8.61
15108,7.68
15119,6.82
15130,6.23
15142,5.85
15154,5.44
15166,4.71
15178,3.45
15190,1.68
15202,-0.35
15214,-2.29
15226,-3.85
15238,-4.97
15250,-5.76
15262,-6.43
15274,-7.21
15286,-8.23
15298,-9.47
15309,-10.84
15320,-12.22
15332,-13.4
15344,-14.14
15356,-14.18
15368,-13.33
15380,-11.51
15392,-8.87
15404,-5.72
15416,-2.4
15428,0.75
15440,3.49
15452,5.7
15464,7.27
15476,8.12
15488,8.24
15499,7.7
15510,6.68
15522,5.46
15534,4.31
15546,3.42
15558,2.84
15570,2.55
15582,2.48
15594,2.56
15606,2.74
15618,2.98
15630,3.19
15642,3.27
15654,3.11
15666,2.64
15678,1.82
15689,0.68
15700,-0.72
15712,-2.35
15724,-4.18
15736,-6.14
15748,-8.18
15760,-10.2
15772,-12.12
15784,-13.85
15796,-15.42
15808,-16.93
15820,-18.52
15832,-20.31
15844,-22.33
15856,-24.42
15868,-26.27
15879,-27.44
15890,-27.48
15902,-26.09
15914,-23.12
15926,-18.64
15938,-12.93
15950,-6.41
15962,0.47
15974,7.25
15986,13.49
15998,18.85
16010,23.04
16022,25.9
16034,27.41
16046,27.77
16058,27.36
16069,26.62
16080,25.96
16092,25.59
16104,25.43
16116,25.19
16128,24.55
16140,23.35
16152,21.66
16164,19.75
16176,17.89
16188,16.18
16200,14.49
16212,12.58
16224,10.29
16236,7.66
16248,4.95
16259,2.49
16270,0.46
16282,-1.2
16294,-2.77
16306,-4.59
16318,-6.86
16330,-9.5
16342,-12.21
16354,-14.55
16366,-16.12
16378,-16.68
16390,-16.16
16402,-14.64
16414,-12.3
16426,-9.38
16438,-6.17
16449,-2.94
16460,0.01
16472,2.51
16484,4.41
16496,5.68
16508,6.34
16520,6.46
16532,6.16
16544,5.57
16556,4.86
16568,4.17
16580,3.66
16592,3.43
16604,3.56
16616,4.01
16628,4.71
16639,5.48
16650,6.14
16662,6.53
16674,6.55
16686,6.19
16698,5.53
16710,4.68
16722,3.7
16734,2.66
16746,1.54
16758,0.34
16770,-0.92
16782,-2.23
16794,-3.6
16806,-5.07
16818,-6.7
16829,-8.5
16840,-10.37
16852,-12.07
16864,-13.22
16876,-13.46
16888,-12.55
16900,-10.47
16912,-7.45
16924,-3.85
16936,-0.14
16948,3.3
16960,6.19
16972,8.38
16984,9.81
16996,10.47
17008,10.43
17019,9.78
17030,8.7
17042,7.43
17054,6.2
17066,5.2
17078,4.52
17090,4.16
17102,4.06
17114,4.18
17126,4.43
17138,4.72
17150,4.95
17162,5.01
17174,4.83
17186,4.37
17198,3.69
17209,2.86
17220,1.91
17232,0.85
17244,-0.35
17256,-1.74
17268,-3.33
17280,-5.14
17292,-7.12
17304,-9.22
17316,-11.27
17328,-13.02
17340,-14.11
17352,-14.19
17364,-13.09
17376,-10.79
17388,-7.58
17399,-3.85
17410,-0.08
17422,3.33
17434,6.1
17446,8.07
17458,9.19
17470,9.46
17482,8.96
17494,7.84
17506,6.3
17518,4.62
17530,3.07
17542,1.91
17554,1.29
17566,1.17
17578,1.39
17589,1.66
17600,1.77
17612,1.59
17624,1.2
17636,0.73
17648,0.32
17660,0.0
17672,-0.34
17684,-0.91
17696,-1.91
17708,-3.43
17720,-5.44
17732,-7.8
17744,-10.31
17756,-12.75
17768,-14.9
17779,-16.49
17790,-17.28
17802,-17.04
17814,-15.6
17826,-13.0
17838,-9.45
17850,-5.29
17862,-1.01
17874,2.91
17886,6.07
17898,8.19
17910,9.14
17922,8.95
17934,7.79
17946,5.92
17958,3.72
17969,1.56
17980,-0.22
17992,-1.44
18004,-2.1
18016,-2.35
18028,-2.41
18040,-2.43
18052,-2.5
18064,-2.58
18076,-2.62
18088,-2.61
18100,-2.63
18112,-2.86
18124,-3.43
18136,-4.44
18148,-5.86
18159,-7.62
18170,-9.66
18182,-11.91
18194,-14.28
18206,-16.54
18218,-18.28
18230,-19.03
18242,-18.37
18254,-16.12
18266,-12.5
18278,-7.98
18290,-3.22
18302,1.24
18314,5.07
18326,8.13
18338,10.43
18349,11.91
18360,12.49
18372,12.12
18384,10.88
18396,9.03
18408,6.99
18420,5.2
18432,3.94
18444,3.31
18456,3.22
18468,3.44
18480,3.73
18492,3.92
18504,3.93
18516,3.75
18528,3.41
18539,2.93
18550,2.23
18562,1.22
18574,-0.24
18586,-2.2
18598,-4.67
18610,-7.51
18622,-10.53
18634,-13.47
18646,-16.01
18658,-17.83
18670,-18.58
18682,-17.99
18694,-15.94
18706,-12.54
18718,-8.15
18729,-3.26
18740,1.6
18752,5.99
18764,9.6
18776,12.26
18788,13.9
18800,14.52
18812,14.22
18824,13.19
18836,11.71
18848,10.11
18860,8.71
18872,7.74
18884,7.27
18896,7.24
18908,7.51
18919,7.89
18930,8.18
18942,8.28
18954,8.13
18966,7.74
18978,7.12
18990,6.28
19002,5.19
19014,3.77
19026,1.94
19038,-0.34
19050,-3.02
19062,-5.98
19074,-8.93
19086,-11.47
19098,-13.16
19109,-13.6
19120,-12.62
19132,-10.28
19144,-6.91
19156,-2.95
19168,1.13
19180,4.95
19192,8.27
19204,10.92
19216,12.76
19228,13.7
19240,13.7
19252,12.85
19264,11.39
19276,9.66
19288,8.03
19299,6.81
19310,6.11
19322,5.93
19334,6.14
19346,6.54
19358,6.91
19370,7.07
19382,6.92
19394,6.47
19406,5.77
19418,4.93
19430,4.03
19442,3.06
19454,1.93
19466,0.5
19478,-1.39
19489,-3.81
19500,-6.68
19512,-9.7
19524,-12.43
19536,-14.31
19548,-14.9
19560,-13.97
19572,-11.57
19584,-8.06
19596,-3.91
19608,0.33
19620,4.24
19632,7.5
19644,9.89
19656,11.31
19668,11.69
19679,11.14
19690,9.86
19702,8.18
19714,6.48
19726,5.04
19738,4.04
19750,3.45
19762,3.18
19774,3.08
19786,3.03
19798,2.92
19810,2.72
19822,2.38
19834,1.88
19846,1.21
19858,0.35
19869,-0.72
19880,-1.99
19892,-3.46
19904,-5.12
19916,-6.99
19928,-9.09
19940,-11.38
19952,-13.7
19964,-15.74
19976,-17.04
19988,-17.1
20000,-15.57
20012,-12.44
20024,-8.03
20036,-2.98
20048,1.97
20059,6.24
20070,9.49
20082,11.66
20094,12.83
20106,13.06
20118,12.42
20130,10.98
20142,8.94
20154,6.67
20166,4.7
20178,3.48
20190,3.22
20202,3.82
20214,4.86
20226,5.85
20238,6.41
20249,6.41
20260,5.92
20272,5.14
20284,4.19
20296,3.14
20308,1.93
20320,0.51
20332,-1.16
20344,-3.12
20356,-5.35
20368,-7.87
20380,-10.6
20392,-13.33
20404,-15.72
20416,-17.3
20428,-17.63
20439,-16.45
20450,-13.84
20462,-10.12
20474,-5.81
20486,-1.43
20498,2.69
20510,6.32
20522,9.33
20534,11.61
20546,12.98
20558,13.35
20570,12.7
20582,11.22
20594,9.28
20606,7.32
20618,5.8
20629,4.99
20640,4.98
20652,5.64
20664,6.68
20676,7.67
20688,8.26
20700,8.22
20712,7.56
20724,6.45
20736,5.16
20748,3.87
20760,2.62
20772,1.33
20784,-0.11
20796,-1.8
20808,-3.75
20819,-5.94
20830,-8.31
20842,-10.77
20854,-13.08
20866,-14.85
20878,-15.63
20890,-14.97
20902,-12.69
20914,-8.95
20926,-4.26
20938,0.67
20950,5.18
20962,8.8
20974,11.28
20986,12.6
20998,12.81
