seconds,BVP
3,4.22
15,4.06
27,3.82
39,3.58
51,3.28
63,2.79
75,2.08
87,1.25
99,0.5
110,0.05
121,-0.0
133,0.23
145,0.55
157,0.72
169,0.59
181,0.12
193,-0.6
205,-1.47
217,-2.35
229,-3.09
241,-3.55
253,-3.59
265,-3.15
277,-2.29
289,-1.22
300,-0.21
311,0.52
323,0.9
335,0.98
347,0.93
359,0.86
371,0.77
383,0.57
395,0.13
407,-0.55
419,-1.35
431,-2.03
443,-2.37
455,-2.31
467,-1.97
479,-1.65
490,-1.64
501,-2.12
513,-3.03
525,-4.13
537,-5.11
549,-5.67
561,-5.68
573,-5.12
585,-4.12
597,-2.86
609,-1.5
621,-0.18
633,1.02
645,2.04
657,2.82
669,3.31
680,3.48
691,3.32
703,2.88
715,2.25
727,1.56
739,0.9
751,0.34
763,-0.09
775,-0.41
787,-0.63
799,-0.79
811,-0.89
823,-0.96
835,-1.02
847,-1.15
859,-1.4
870,-1.81
881,-2.28
893,-2.65
905,-2.69
917,-2.23
929,-1.26
941,0.07
953,1.52
965,2.8
977,3.74
989,4.27
1001,4.42
1013,4.25
1025,3.8
1037,3.1
1049,2.24
1060,1.32
1071,0.51
1083,-0.05
1095,-0.31
1107,-0.28
1119,-0.12
1131,0.01
1143,-0.06
1155,-0.41
1167,-1.05
1179,-1.86
1191,-2.7
1203,-3.38
1215,-3.76
1227,-3.76
1239,-3.34
1250,-2.5
1261,-1.28
1273,0.2
1285,1.75
1297,3.14
1309,4.16
1321,4.67
1333,4.67
1345,4.26
1357,3.58
1369,2.79
1381,1.95
1393,1.13
1405,0.37
1417,-0.27
1429,-0.73
1440,-0.94
1451,-0.95
1463,-0.84
1475,-0.81
1487,-1.02
1499,-1.57
1511,-2.4
1523,-3.3
1535,-3.99
1547,-4.19
1559,-3.73
1571,-2.63
1583,-1.02
1595,0.89
1607,2.88
1619,4.76
1630,6.39
1641,7.61
1653,8.3
1665,8.39
1677,7.9
1689,6.95
1701,5.76
1713,4.55
1725,3.53
1737,2.8
1749,2.41
1761,2.32
1773,2.42
1785,2.51
1797,2.36
1809,1.74
1820,0.53
1831,-1.2
1843,-3.21
1855,-5.08
1867,-6.39
1879,-6.86
1891,-6.43
1903,-5.27
1915,-3.67
1927,-1.95
1939,-0.35
1951,0.98
1963,1.95
1975,2.48
1987,2.52
1999,2.06
2010,1.19
2021,0.11
2033,-0.91
2045,-1.66
2057,-2.01
2069,-2.01
2081,-1.81
2093,-1.64
2105,-1.64
2117,-1.9
2129,-2.39
2141,-3.03
2153,-3.76
2165,-4.52
2177,-5.27
2189,-5.96
2200,-6.43
2211,-6.5
2223,-6.01
2235,-4.9
2247,-3.28
2259,-1.41
2271,0.35
2283,1.73
2295,2.59
2307,2.93
2319,2.86
2331,2.48
2343,1.86
2355,1.05
2367,0.11
2379,-0.85
2390,-1.68
2401,-2.22
2413,-2.38
2425,-2.19
2437,-1.77
2449,-1.32
2461,-1.06
2473,-1.13
2485,-1.61
2497,-2.43
2509,-3.41
2521,-4.28
2533,-4.76
2545,-4.62
2557,-3.79
2569,-2.35
2580,-0.55
2591,1.28
2603,2.87
2615,4.0
2627,4.59
2639,4.65
2651,4.24
2663,3.46
2675,2.44
2687,1.35
2699,0.4
2711,-0.24
2723,-0.46
2735,-0.32
2747,0.0
2759,0.27
2770,0.32
2781,0.08
2793,-0.36
2805,-0.88
2817,-1.35
2829,-1.72
2841,-1.99
2853,-2.16
2865,-2.11
2877,-1.69
2889,-0.77
2901,0.69
2913,2.53
2925,4.43
2937,6.05
2949,7.12
2960,7.56
2971,7.4
2983,6.82
2995,5.94
3007,4.88
3019,3.74
3031,2.6
3043,1.63
3055,0.98
3067,0.76
3079,0.93
3091,1.3
3103,1.55
3115,1.41
3127,0.73
3139,-0.43
3150,-1.79
3161,-2.99
3173,-3.7
3185,-3.67
3197,-2.86
3209,-1.36
3221,0.64
3233,2.86
3245,5.0
3257,6.76
3269,7.94
3281,8.43
3293,8.28
3305,7.61
3317,6.62
3329,5.48
3340,4.37
3351,3.37
3363,2.55
3375,1.94
3387,1.55
3399,1.29
3411,1.08
3423,0.77
3435,0.25
3447,-0.58
3459,-1.75
3471,-3.18
3483,-4.69
3495,-5.97
3507,-6.67
3519,-6.53
3530,-5.45
3541,-3.64
3553,-1.49
3565,0.49
3577,1.93
3589,2.63
3601,2.69
3613,2.33
3625,1.78
3637,1.18
3649,0.6
3661,0.02
3673,-0.48
3685,-0.8
3697,-0.82
3709,-0.52
3720,0.03
3731,0.65
3743,1.15
3755,1.38
3767,1.27
3779,0.81
3791,0.05
3803,-0.98
3815,-2.16
3827,-3.3
3839,-4.11
3851,-4.28
3863,-3.63
3875,-2.21
3887,-0.3
3899,1.66
3910,3.29
3921,4.39
3933,4.98
3945,5.22
3957,5.28
3969,5.21
3981,4.88
3993,4.15
4005,2.93
4017,1.38
4029,-0.19
4041,-1.38
4053,-1.91
4065,-1.73
4077,-1.1
4089,-0.4
4100,-0.01
4111,-0.13
4123,-0.78
4135,-1.76
4147,-2.84
4159,-3.72
4171,-4.23
4183,-4.21
4195,-3.61
4207,-2.42
4219,-0.72
4231,1.33
4243,3.44
4255,5.31
4267,6.64
4279,7.23
4290,7.11
4301,6.46
4313,5.59
4325,4.79
4337,4.24
4349,3.95
4361,3.79
4373,3.57
4385,3.23
4397,2.77
4409,2.3
4421,1.9
4433,1.55
4445,1.16
4457,0.61
4469,-0.15
4480,-1.08
4491,-2.0
4503,-2.66
4515,-2.85
4527,-2.46
4539,-1.52
4551,-0.21
4563,1.24
4575,2.63
4587,3.8
4599,4.65
4611,5.14
4623,5.19
4635,4.76
4647,3.87
4659,2.64
4670,1.3
4681,0.09
4693,-0.82
4705,-1.41
4717,-1.75
4729,-1.95
4741,-2.07
4753,-2.1
4765,-2.02
4777,-1.9
4789,-1.86
4801,-2.09
4813,-2.7
4825,-3.65
4837,-4.7
4849,-5.52
4860,-5.75
4871,-5.18
4883,-3.79
4895,-1.77
4907,0.52
4919,2.67
4931,4.35
4943,5.36
4955,5.67
4967,5.38
4979,4.67
4991,3.74
5003,2.77
5015,1.92
5027,1.32
5039,1.02
5050,0.97
5061,1.06
5073,1.13
5085,1.06
5097,0.77
5109,0.28
5121,-0.39
5133,-1.19
5145,-2.1
5157,-3.03
5169,-3.86
5181,-4.43
5193,-4.55
5205,-4.11
5217,-3.13
5229,-1.75
5240,-0.18
5251,1.31
5263,2.53
5275,3.33
5287,3.7
5299,3.64
5311,3.25
5323,2.62
5335,1.86
5347,1.07
5359,0.33
5371,-0.3
5383,-0.8
5395,-1.13
5407,-1.33
5419,-1.38
5430,-1.34
5441,-1.26
5453,-1.25
5465,-1.43
5477,-1.86
5489,-2.57
5501,-3.43
5513,-4.24
5525,-4.77
5537,-4.88
5549,-4.51
5561,-3.71
5573,-2.62
5585,-1.37
5597,-0.06
5609,1.18
5620,2.25
5631,2.99
5643,3.29
5655,3.11
5667,2.51
5679,1.62
5691,0.61
5703,-0.38
5715,-1.21
5727,-1.83
5739,-2.17
5751,-2.2
5763,-1.96
5775,-1.58
5787,-1.26
5799,-1.22
5810,-1.59
5821,-2.37
5833,-3.41
5845,-4.45
5857,-5.24
5869,-5.58
5881,-5.36
5893,-4.55
5905,-3.25
5917,-1.64
5929,0.02
5941,1.46
5953,2.47
5965,2.95
5977,2.93
5989,2.57
6000,2.04
6011,1.47
6023,0.94
6035,0.46
6047,0.01
6059,-0.4
6071,-0.75
6083,-1.03
6095,-1.24
6107,-1.44
6119,-1.67
6131,-2.0
6143,-2.47
6155,-3.05
6167,-3.73
6179,-4.4
6190,-4.94
6201,-5.16
6213,-4.91
6225,-4.11
6237,-2.81
6249,-1.21
6261,0.38
6273,1.7
6285,2.62
6297,3.12
6309,3.29
6321,3.18
6333,2.83
6345,2.26
6357,1.53
6369,0.77
6380,0.16
6391,-0.19
6403,-0.27
6415,-0.21
6427,-0.18
6439,-0.3
6451,-0.61
6463,-1.09
6475,-1.7
6487,-2.44
6499,-3.33
6511,-4.25
6523,-5.0
6535,-5.31
6547,-4.95
6559,-3.91
6570,-2.4
6581,-0.76
6593,0.71
6605,1.8
6617,2.5
6629,2.84
6641,2.84
6653,2.54
6665,1.93
6677,1.12
6689,0.25
6701,-0.5
6713,-1.03
6725,-1.37
6737,-1.6
6749,-1.86
6760,-2.19
6771,-2.58
6783,-2.96
6795,-3.35
6807,-3.78
6819,-4.31
6831,-4.94
6843,-5.52
6855,-5.8
6867,-5.57
6879,-4.73
6891,-3.37
6903,-1.76
6915,-0.2
6927,1.05
6939,1.9
6950,2.39
6961,2.65
6973,2.78
6985,2.8
6997,2.64
7009,2.24
7021,1.62
7033,0.88
7045,0.2
7057,-0.24
7069,-0.38
7081,-0.24
7093,0.01
7105,0.19
7117,0.15
7129,-0.19
7140,-0.81
7151,-1.61
7163,-2.43
7175,-3.07
7187,-3.33
7199,-3.01
7211,-2.04
7223,-0.53
7235,1.28
7247,3.06
7259,4.51
7271,5.43
7283,5.81
7295,5.72
7307,5.32
7319,4.72
7330,3.99
7341,3.17
7353,2.3
7365,1.47
7377,0.76
7389,0.31
7401,0.14
7413,0.23
7425,0.45
7437,0.63
7449,0.62
7461,0.29
7473,-0.37
7485,-1.29
7497,-2.28
7509,-3.09
7520,-3.51
7531,-3.38
7543,-2.68
7555,-1.51
7567,-0.02
7579,1.58
7591,3.12
7603,4.4
7615,5.31
7627,5.77
7639,5.76
7651,5.36
7663,4.68
7675,3.87
7687,3.04
7699,2.27
7710,1.57
7721,0.93
7733,0.36
7745,-0.1
7757,-0.4
7769,-0.53
7781,-0.55
7793,-0.6
7805,-0.86
7817,-1.49
7829,-2.45
7841,-3.58
7853,-4.53
7865,-4.98
7877,-4.75
7889,-3.89
7900,-2.61
7911,-1.22
7923,0.05
7935,1.11
7947,1.96
7959,2.59
7971,2.93
7983,2.84
7995,2.23
8007,1.14
8019,-0.24
8031,-1.59
8043,-2.67
8055,-3.32
8067,-3.55
8079,-3.45
8090,-3.16
8101,-2.82
8113,-2.57
8125,-2.54
8137,-2.83
8149,-3.47
8161,-4.35
8173,-5.22
8185,-5.8
8197,-5.87
8209,-5.33
8221,-4.23
8233,-2.72
8245,-0.99
8257,0.8
8269,2.49
8280,3.91
8291,4.93
8303,5.43
8315,5.35
8327,4.73
8339,3.71
8351,2.51
8363,1.39
8375,0.58
8387,0.25
8399,0.43
8411,0.98
8423,1.65
8435,2.14
8447,2.21
8459,1.78
8470,0.92
8481,-0.15
8493,-1.19
8505,-1.98
8517,-2.39
8529,-2.34
8541,-1.79
8553,-0.77
8565,0.68
8577,2.39
8589,4.08
8601,5.42
8613,6.16
8625,6.19
8637,5.62
8649,4.73
8660,3.82
8671,3.1
8683,2.61
8695,2.24
8707,1.87
8719,1.41
8731,0.92
8743,0.51
8755,0.28
8767,0.23
8779,0.23
8791,0.12
8803,-0.26
8815,-0.95
8827,-1.88
8839,-2.9
8850,-3.77
8861,-4.29
8873,-4.28
8885,-3.69
8897,-2.59
8909,-1.18
8921,0.27
8933,1.5
8945,2.35
8957,2.75
8969,2.79
8981,2.55
8993,2.14
9005,1.61
9017,1.02
9029,0.42
9040,-0.09
9051,-0.42
9063,-0.56
9075,-0.52
9087,-0.4
9099,-0.3
9111,-0.3
9123,-0.42
9135,-0.66
9147,-1.0
9159,-1.45
9171,-2.02
9183,-2.65
9195,-3.18
9207,-3.44
9219,-3.26
9230,-2.6
9241,-1.54
9253,-0.27
9265,1.01
9277,2.1
9289,2.84
9301,3.16
9313,3.0
9325,2.4
9337,1.46
9349,0.33
9361,-0.78
9373,-1.71
9385,-2.33
9397,-2.63
9409,-2.65
9420,-2.5
9431,-2.3
9443,-2.21
9455,-2.34
9467,-2.78
9479,-3.51
9491,-4.41
9503,-5.24
9515,-5.75
9527,-5.73
9539,-5.13
9551,-4.05
9563,-2.75
9575,-1.46
9587,-0.37
9599,0.47
9610,1.06
9621,1.47
9633,1.69
9645,1.69
9657,1.43
9669,0.91
9681,0.23
9693,-0.47
9705,-1.04
9717,-1.4
9729,-1.56
9741,-1.57
9753,-1.52
9765,-1.46
9777,-1.47
9789,-1.61
9800,-1.92
9811,-2.36
9823,-2.84
9835,-3.15
9847,-3.09
9859,-2.5
9871,-1.37
9883,0.17
9895,1.86
9907,3.47
9919,4.8
9931,5.77
9943,6.4
9955,6.73
9967,6.78
9979,6.56
9990,6.04
10001,5.27
10013,4.35
10025,3.44
10037,2.67
10049,2.13
10061,1.75
10073,1.39
10085,0.89
10097,0.15
10109,-0.81
10121,-1.88
10133,-2.93
10145,-3.82
10157,-4.49
10169,-4.91
10180,-5.04
10191,-4.81
10203,-4.17
10215,-3.08
10227,-1.68
10239,-0.16
10251,1.22
10263,2.23
10275,2.77
10287,2.86
10299,2.64
10311,2.29
10323,1.93
10335,1.62
10347,1.32
10359,0.99
10370,0.59
10381,0.17
10393,-0.18
10405,-0.36
10417,-0.35
10429,-0.26
10441,-0.26
10453,-0.55
10465,-1.25
10477,-2.32
10489,-3.55
10501,-4.68
10513,-5.41
10525,-5.53
10537,-4.96
10549,-3.73
10560,-1.96
10571,0.09
10583,2.12
10595,3.85
10607,5.03
10619,5.56
10631,5.48
10643,4.92
10655,4.05
10667,3.06
10679,2.11
10691,1.33
10703,0.8
10715,0.58
10727,0.62
10739,0.84
10750,1.09
10761,1.23
10773,1.15
10785,0.82
10797,0.23
10809,-0.57
10821,-1.47
10833,-2.34
10845,-2.97
10857,-3.2
10869,-2.87
10881,-1.99
10893,-0.7
10905,0.78
10917,2.17
10929,3.26
10940,3.93
10951,4.19
10963,4.1
10975,3.76
10987,3.28
10999,2.73
11011,2.18
11023,1.68
11035,1.26
11047,0.98
11059,0.87
11071,0.92
11083,1.05
11095,1.14
11107,1.03
11119,0.59
11130,-0.23
11141,-1.39
11153,-2.7
11165,-3.93
11177,-4.79
11189,-5.1
11201,-4.75
11213,-3.8
11225,-2.42
11237,-0.87
11249,0.6
11261,1.79
11273,2.59
11285,3.0
11297,3.08
11309,2.92
11320,2.58
11331,2.11
11343,1.56
11355,0.98
11367,0.51
11379,0.25
11391,0.29
11403,0.58
11415,1.01
11427,1.41
11439,1.62
11451,1.59
11463,1.33
11475,0.92
11487,0.45
11499,0.0
11510,-0.34
11521,-0.47
11533,-0.3
11545,0.24
11557,1.17
11569,2.41
11581,3.83
11593,5.25
11605,6.52
11617,7.47
11629,7.99
11641,8.02
11653,7.57
11665,6.76
11677,5.74
11689,4.7
11700,3.8
11711,3.17
11723,2.84
11735,2.78
11747,2.89
11759,3.03
11771,3.03
11783,2.76
11795,2.16
11807,1.29
11819,0.3
11831,-0.62
11843,-1.29
11855,-1.54
11867,-1.28
11879,-0.5
11890,0.67
11901,1.98
11913,3.16
11925,3.98
11937,4.35
11949,4.33
11961,4.12
11973,3.86
11985,3.58
11997,3.22
12009,2.59
12021,1.58
12033,0.17
12045,-1.5
12057,-3.17
12069,-4.61
12080,-5.62
12091,-6.2
12103,-6.47
12115,-6.66
12127,-6.99
12139,-7.6
12151,-8.44
12163,-9.33
12175,-9.99
12187,-10.17
12199,-9.74
12211,-8.74
12223,-7.36
12235,-5.81
12247,-4.32
12259,-3.04
12270,-2.04
12281,-1.34
12293,-0.93
12305,-0.81
12317,-0.97
12329,-1.41
12341,-2.03
12353,-2.72
12365,-3.35
12377,-3.82
12389,-4.06
12401,-4.09
12413,-3.96
12425,-3.7
12437,-3.39
12449,-3.09
12460,-2.9
12471,-2.91
12483,-3.18
12495,-3.59
12507,-3.89
12519,-3.76
12531,-2.94
12543,-1.42
12555,0.57
12567,2.64
12579,4.41
12591,5.69
12603,6.51
12615,7.01
12627,7.32
12639,7.46
12650,7.33
12661,6.86
12673,6.07
12685,5.08
12697,4.06
12709,3.17
12721,2.46
12733,1.91
12745,1.48
12757,1.13
12769,0.84
12781,0.56
12793,0.25
12805,-0.16
12817,-0.7
12829,-1.3
12840,-1.86
12851,-2.24
12863,-2.3
12875,-1.97
12887,-1.24
12899,-0.16
12911,1.17
12923,2.56
12935,3.82
12947,4.75
12959,5.22
12971,5.18
12983,4.68
12995,3.8
13007,2.68
13019,1.48
13030,0.37
13041,-0.45
13053,-0.83
13065,-0.74
13077,-0.27
13089,0.34
13101,0.86
13113,1.11
13125,1.03
13137,0.67
13149,0.16
13161,-0.39
13173,-0.84
13185,-1.07
13197,-0.93
13209,-0.33
13220,0.72
13231,2.07
13243,3.48
13255,4.68
13267,5.51
13279,5.92
13291,6.0
13303,5.85
13315,5.57
13327,5.18
13339,4.69
13351,4.14
13363,3.61
13375,3.18
13387,2.9
13399,2.72
13410,2.52
13421,2.19
13433,1.66
13445,0.95
13457,0.17
13469,-0.58
13481,-1.26
13493,-1.86
13505,-2.38
13517,-2.77
13529,-2.88
13541,-2.53
13553,-1.62
13565,-0.22
13577,1.4
13589,2.86
13600,3.81
13611,4.07
13623,3.7
13635,2.9
13647,1.93
13659,1.03
13671,0.31
13683,-0.19
13695,-0.47
13707,-0.55
13719,-0.44
13731,-0.25
13743,-0.09
13755,-0.12
13767,-0.43
13779,-1.02
13790,-1.79
13801,-2.62
13813,-3.41
13825,-4.04
13837,-4.45
13849,-4.55
13861,-4.24
13873,-3.43
13885,-2.14
13897,-0.48
13909,1.33
13921,3.03
13933,4.38
13945,5.22
13957,5.5
13969,5.25
13980,4.6
13991,3.7
14003,2.72
14015,1.77
14027,0.89
14039,0.07
14051,-0.69
14063,-1.4
14075,-1.98
14087,-2.39
14099,-2.63
14111,-2.82
14123,-3.14
14135,-3.74
14147,-4.69
14159,-5.85
14170,-6.98
14181,-7.77
14193,-7.98
14205,-7.55
14217,-6.54
14229,-5.16
14241,-3.66
14253,-2.28
14265,-1.18
14277,-0.44
14289,-0.06
14301,0.01
14313,-0.18
14325,-0.63
14337,-1.31
14349,-2.18
14360,-3.13
14371,-4.0
14383,-4.64
14395,-4.91
14407,-4.82
14419,-4.49
14431,-4.09
14443,-3.83
14455,-3.82
14467,-4.1
14479,-4.6
14491,-5.21
14503,-5.8
14515,-6.21
14527,-6.32
14539,-6.01
14550,-5.24
14561,-4.05
14573,-2.56
14585,-1.0
14597,0.4
14609,1.43
14621,2.01
14633,2.15
14645,1.98
14657,1.64
14669,1.26
14681,0.89
14693,0.54
14705,0.22
14717,-0.05
14729,-0.23
14740,-0.32
14751,-0.33
14763,-0.36
14775,-0.5
14787,-0.82
14799,-1.3
14811,-1.83
14823,-2.28
14835,-2.52
14847,-2.43
14859,-1.98
14871,-1.16
14883,-0.05
14895,1.23
14907,2.52
14919,3.66
14930,4.54
14941,5.08
14953,5.31
14965,5.25
14977,4.98
14989,4.6
15001,4.2
15013,3.85
15025,3.56
15037,3.29
15049,2.95
15061,2.48
15073,1.85
15085,1.13
15097,0.38
15109,-0.33
15120,-1.01
15131,-1.69
15143,-2.34
15155,-2.9
15167,-3.19
15179,-3.05
15191,-2.42
15203,-1.35
15215,-0.02
15227,1.34
15239,2.56
15251,3.56
15263,4.33
15275,4.89
15287,5.22
15299,5.25
15310,4.93
15321,4.24
15333,3.25
15345,2.15
15357,1.14
15369,0.42
15381,0.07
15393,0.06
15405,0.26
15417,0.51
15429,0.63
15441,0.52
15453,0.11
15465,-0.61
15477,-1.55
15489,-2.53
15500,-3.28
15511,-3.53
15523,-3.11
15535,-2.01
15547,-0.44
15559,1.27
15571,2.79
15583,3.89
15595,4.49
15607,4.63
15619,4.44
15631,4.05
15643,3.55
15655,3.01
15667,2.42
15679,1.77
15690,1.04
15701,0.25
15713,-0.53
15725,-1.17
15737,-1.55
15749,-1.61
15761,-1.43
15773,-1.17
15785,-1.02
15797,-1.12
15809,-1.42
15821,-1.77
15833,-1.89
15845,-1.58
15857,-0.75
15869,0.51
15880,2.0
15891,3.46
15903,4.74
15915,5.74
15927,6.47
15939,6.95
15951,7.14
15963,6.98
15975,6.42
15987,5.49
15999,4.35
16011,3.19
16023,2.22
16035,1.51
16047,1.01
16059,0.59
16070,0.12
16081,-0.47
16093,-1.15
16105,-1.86
16117,-2.57
16129,-3.31
16141,-4.09
16153,-4.85
16165,-5.46
16177,-5.74
16189,-5.53
16201,-4.85
16213,-3.86
16225,-2.8
16237,-1.88
16249,-1.2
16260,-0.76
16271,-0.52
16283,-0.46
16295,-0.67
16307,-1.22
16319,-2.12
16331,-3.25
16343,-4.38
16355,-5.26
16367,-5.72
16379,-5.76
16391,-5.51
16403,-5.17
16415,-4.92
16427,-4.86
16439,-5.0
16450,-5.32
16461,-5.82
16473,-6.45
16485,-7.14
16497,-7.72
16509,-7.95
16521,-7.64
16533,-6.72
16545,-5.29
16557,-3.59
16569,-1.9
16581,-0.46
16593,0.6
16605,1.26
16617,1.57
16629,1.57
16640,1.32
16651,0.86
16663,0.25
16675,-0.46
16687,-1.19
16699,-1.85
16711,-2.37
16723,-2.66
16735,-2.69
16747,-2.48
16759,-2.14
16771,-1.86
16783,-1.81
16795,-2.07
16807,-2.6
16819,-3.22
16830,-3.65
16841,-3.67
16853,-3.14
16865,-2.1
16877,-0.68
16889,0.94
16901,2.57
16913,4.07
16925,5.32
16937,6.16
16949,6.49
16961,6.21
16973,5.37
16985,4.14
16997,2.81
17009,1.63
17020,0.81
17031,0.39
17043,0.29
17055,0.38
17067,0.51
17079,0.53
17091,0.34
17103,-0.17
17115,-1.02
17127,-2.14
17139,-3.33
17151,-4.3
17163,-4.73
17175,-4.46
17187,-3.51
17199,-2.1
17210,-0.55
17221,0.84
17233,1.9
17245,2.63
17257,3.1
17269,3.36
17281,3.44
17293,3.27
17305,2.83
17317,2.15
17329,1.34
17341,0.54
17353,-0.13
17365,-0.6
17377,-0.86
17389,-0.95
17400,-0.93
17411,-0.89
17423,-0.92
17435,-1.13
17447,-1.58
17459,-2.29
17471,-3.17
17483,-4.07
17495,-4.8
17507,-5.14
17519,-4.96
17531,-4.26
17543,-3.17
17555,-1.9
17567,-0.73
17579,0.15
17590,0.6
17601,0.58
17613,0.08
17625,-0.83
17637,-2.05
17649,-3.37
17661,-4.58
17673,-5.45
17685,-5.89
17697,-5.88
17709,-5.57
17721,-5.12
17733,-4.72
17745,-4.47
17757,-4.45
17769,-4.71
17780,-5.22
17791,-5.89
17803,-6.53
17815,-6.86
17827,-6.65
17839,-5.79
17851,-4.37
17863,-2.62
17875,-0.85
17887,0.7
17899,1.9
17911,2.75
17923,3.24
17935,3.43
17947,3.3
17959,2.87
17970,2.19
17981,1.35
17993,0.54
18005,-0.09
18017,-0.42
18029,-0.44
18041,-0.25
18053,-0.03
18065,0.0
18077,-0.28
18089,-0.92
18101,-1.77
18113,-2.63
18125,-3.23
18137,-3.39
18149,-3.0
18160,-2.07
18171,-0.66
18183,1.1
18195,3.03
18207,4.92
18219,6.52
18231,7.65
18243,8.19
18255,8.2
18267,7.82
18279,7.25
18291,6.64
18303,6.04
18315,5.44
18327,4.82
18339,4.19
18350,3.63
18361,3.21
18373,2.95
18385,2.81
18397,2.61
18409,2.16
18421,1.32
18433,0.11
18445,-1.25
18457,-2.38
18469,-2.89
18481,-2.5
18493,-1.17
18505,0.85
18517,3.16
18529,5.28
18540,6.88
18551,7.82
18563,8.18
18575,8.13
18587,7.83
18599,7.4
18611,6.86
18623,6.22
18635,5.57
18647,5.02
18659,4.73
18671,4.81
18683,5.24
18695,5.88
18707,6.48
18719,6.8
18730,6.72
18741,6.25
18753,5.52
18765,4.8
18777,4.35
18789,4.46
18801,5.3
18813,6.91
18825,9.15
18837,11.75
18849,14.4
18861,16.85
18873,18.94
18885,20.61
18897,21.85
18909,22.59
18920,22.78
18931,22.39
18943,21.44
18955,20.02
18967,18.26
18979,16.31
18991,14.31
19003,12.38
19015,10.62
19027,9.13
19039,7.9
19051,6.82
19063,5.69
19075,4.26
19087,2.36
19099,-0.03
19110,-2.7
19121,-5.3
19133,-7.44
19145,-8.8
19157,-9.18
19169,-8.64
19181,-7.36
19193,-5.63
19205,-3.77
19217,-2.03
19229,-0.61
19241,0.4
19253,0.97
19265,1.14
19277,0.99
19289,0.58
19300,-0.06
19311,-0.87
19323,-1.81
19335,-2.76
19347,-3.54
19359,-3.99
19371,-4.0
19383,-3.62
19395,-3.05
19407,-2.55
19419,-2.38
19431,-2.7
19443,-3.57
19455,-4.94
19467,-6.68
19479,-8.59
19490,-10.32
19501,-11.51
19513,-11.76
19525,-10.86
19537,-8.85
19549,-6.08
19561,-3.14
19573,-0.61
19585,1.06
19597,1.71
19609,1.47
19621,0.62
19633,-0.48
19645,-1.54
19657,-2.42
19669,-3.1
19680,-3.7
19691,-4.34
19703,-5.12
19715,-6.05
19727,-7.03
19739,-7.95
19751,-8.68
19763,-9.15
19775,-9.45
19787,-9.73
19799,-10.16
19811,-10.92
19823,-12.05
19835,-13.49
19847,-15.01
19859,-16.32
19870,-17.09
19881,-17.06
19893,-16.13
19905,-14.36
19917,-12.01
19929,-9.44
19941,-7.06
19953,-5.24
19965,-4.16
19977,-3.83
19989,-4.05
20001,-4.57
20013,-5.13
20025,-5.57
20037,-5.87
20049,-6.06
20060,-6.22
20071,-6.37
20083,-6.5
20095,-6.59
20107,-6.62
20119,-6.59
20131,-6.52
20143,-6.5
20155,-6.66
20167,-7.1
20179,-7.85
20191,-8.81
20203,-9.71
20215,-10.21
20227,-10.03
20239,-9.05
20250,-7.37
20261,-5.24
20273,-3.02
20285,-1.06
20297,0.39
20309,1.19
20321,1.35
20333,1.01
20345,0.41
20357,-0.21
20369,-0.64
20381,-0.83
20393,-0.82
20405,-0.74
20417,-0.68
20429,-0.68
20440,-0.69
20451,-0.62
20463,-0.42
20475,-0.14
20487,0.13
20499,0.27
20511,0.16
20523,-0.27
20535,-0.98
20547,-1.87
20559,-2.69
20571,-3.19
20583,-3.11
20595,-2.31
20607,-0.87
20619,0.97
20630,2.87
20641,4.51
20653,5.66
20665,6.26
20677,6.38
20689,6.11
20701,5.57
20713,4.84
20725,4.05
20737,3.36
20749,2.91
20761,2.8
20773,3.0
20785,3.38
20797,3.77
20809,4.02
20820,4.08
20831,3.96
20843,3.69
20855,3.31
20867,2.79
20879,2.09
20891,1.26
20903,0.42
20915,-0.18
20927,-0.31
20939,0.21
20951,1.38
20963,3.1
20975,5.15
20987,7.25
20999,9.17
