seconds,BVP
10,-2.88
22,-5.07
34,-7.08
46,-8.93
58,-10.59
69,-12.12
80,-13.65
92,-15.44
104,-17.77
116,-20.81
128,-24.43
140,-28.14
152,-31.19
164,-32.75
176,-32.21
188,-29.37
200,-24.48
212,-18.14
224,-11.15
236,-4.28
248,1.85
259,6.86
270,10.6
282,13.09
294,14.42
306,14.77
318,14.29
330,13.18
342,11.68
354,10.1
366,8.74
378,7.87
390,7.62
402,7.95
414,8.73
426,9.75
438,10.8
449,11.74
460,12.42
472,12.77
484,12.73
496,12.3
508,11.5
520,10.38
532,8.98
544,7.39
556,5.66
568,3.83
580,1.92
592,-0.04
604,-2.05
616,-4.06
628,-6.03
639,-7.91
650,-9.63
662,-11.2
674,-12.67
686,-14.16
698,-15.85
710,-17.95
722,-20.58
734,-23.67
746,-26.92
758,-29.75
770,-31.5
782,-31.58
794,-29.63
806,-25.69
818,-20.14
829,-13.54
840,-6.54
852,0.29
864,6.45
876,11.51
888,15.16
900,17.23
912,17.78
924,17.08
936,15.58
948,13.71
960,11.88
972,10.32
984,9.16
996,8.44
1008,8.17
1019,8.34
1030,8.93
1042,9.83
1054,10.91
1066,11.99
1078,12.86
1090,13.32
1102,13.24
1114,12.59
1126,11.41
1138,9.82
1150,7.98
1162,6.0
1174,3.97
1186,1.91
1198,-0.16
1209,-2.28
1220,-4.48
1232,-6.81
1244,-9.25
1256,-11.73
1268,-14.14
1280,-16.37
1292,-18.34
1304,-20.08
1316,-21.74
1328,-23.52
1340,-25.62
1352,-28.09
1364,-30.7
1376,-32.99
1388,-34.3
1399,-34.01
1410,-31.72
1422,-27.41
1434,-21.42
1446,-14.39
1458,-6.99
1470,0.12
1482,6.43
1494,11.6
1506,15.41
1518,17.75
1530,18.64
1542,18.27
1554,16.95
1566,15.11
1578,13.17
1589,11.43
1600,10.1
1612,9.25
1624,8.91
1636,9.06
1648,9.71
1660,10.83
1672,12.33
1684,13.99
1696,15.51
1708,16.6
1720,17.02
1732,16.7
1744,15.7
1756,14.16
1768,12.28
1779,10.22
1790,8.09
1802,5.93
1814,3.78
1826,1.58
1838,-0.69
1850,-3.04
1862,-5.46
1874,-7.86
1886,-10.15
1898,-12.23
1910,-14.06
1922,-15.68
1934,-17.25
1946,-18.96
1958,-21.02
1969,-23.55
1980,-26.5
1992,-29.6
2004,-32.31
2016,-33.99
2028,-33.98
2040,-31.87
2052,-27.61
2064,-21.53
2076,-14.33
2088,-6.79
2100,0.32
2112,6.46
2124,11.33
2136,14.83
2148,16.98
2159,17.88
2170,17.67
2182,16.58
2194,14.92
2206,13.06
2218,11.39
2230,10.25
2242,9.8
2254,10.05
2266,10.84
2278,11.95
2290,13.17
2302,14.37
2314,15.47
2326,16.41
2338,17.07
2349,17.34
2360,17.09
2372,16.27
2384,14.95
2396,13.27
2408,11.43
2420,9.58
2432,7.81
2444,6.12
2456,4.43
2468,2.64
2480,0.66
2492,-1.51
2504,-3.85
2516,-6.22
2528,-8.5
2539,-10.55
2550,-12.34
2562,-13.93
2574,-15.51
2586,-17.35
2598,-19.69
2610,-22.61
2622,-25.96
2634,-29.29
2646,-31.94
2658,-33.2
2670,-32.46
2682,-29.45
2694,-24.34
2706,-17.67
2718,-10.28
2729,-3.03
2740,3.36
2752,8.51
2764,12.3
2776,14.82
2788,16.23
2800,16.64
2812,16.16
2824,14.92
2836,13.15
2848,11.16
2860,9.3
2872,7.86
2884,7.04
2896,6.9
2908,7.42
2919,8.5
2930,9.98
2942,11.62
2954,13.13
2966,14.25
2978,14.81
2990,14.78
3002,14.24
3014,13.35
3026,12.22
3038,10.84
3050,9.18
3062,7.19
3074,4.86
3086,2.31
3098,-0.24
3109,-2.59
3120,-4.62
3132,-6.36
3144,-7.95
3156,-9.64
3168,-11.66
3180,-14.2
3192,-17.33
3204,-20.99
3216,-24.92
3228,-28.71
3240,-31.79
3252,-33.55
3264,-33.46
3276,-31.21
3288,-26.84
3299,-20.71
3310,-13.44
3322,-5.77
3334,1.6
3346,8.07
3358,13.22
3370,16.82
3382,18.81
3394,19.31
3406,18.53
3418,16.81
3430,14.52
3442,12.09
3454,9.89
3466,8.25
3478,7.35
3489,7.22
3500,7.73
3512,8.65
3524,9.75
3536,10.81
3548,11.64
3560,12.14
3572,12.21
3584,11.79
3596,10.85
3608,9.36
3620,7.34
3632,4.88
3644,2.09
3656,-0.86
3668,-3.81
3679,-6.62
3690,-9.19
3702,-11.53
3714,-13.74
3726,-15.97
3738,-18.38
3750,-21.12
3762,-24.24
3774,-27.62
3786,-30.92
3798,-33.58
3810,-34.95
3822,-34.43
3834,-31.71
3846,-26.85
3858,-20.31
3869,-12.82
3880,-5.19
3892,1.91
3904,8.0
3916,12.85
3928,16.37
3940,18.6
3952,19.61
3964,19.52
3976,18.52
3988,16.86
4000,14.85
4012,12.83
4024,11.15
4036,10.09
4048,9.76
4059,10.12
4070,10.98
4082,12.06
4094,13.07
4106,13.8
4118,14.13
4130,14.01
4142,13.46
4154,12.51
4166,11.16
4178,9.38
4190,7.15
4202,4.51
4214,1.53
4226,-1.59
4238,-4.66
4249,-7.49
4260,-9.99
4272,-12.18
4284,-14.19
4296,-16.26
4308,-18.64
4320,-21.53
4332,-25.01
4344,-28.98
4356,-33.07
4368,-36.7
4380,-39.13
4392,-39.62
4404,-37.69
4416,-33.21
4428,-26.47
4439,-18.16
4450,-9.13
4462,-0.24
4474,7.78
4486,14.48
4498,19.63
4510,23.2
4522,25.25
4534,25.92
4546,25.42
4558,24.04
4570,22.14
4582,20.11
4594,18.3
4606,16.98
4618,16.33
4629,16.4
4640,17.11
4652,18.29
4664,19.69
4676,21.04
4688,22.04
4700,22.51
4712,22.33
4724,21.5
4736,20.09
4748,18.21
4760,16.01
4772,13.59
4784,11.05
4796,8.44
4808,5.76
4819,2.95
4830,-0.0
4842,-3.07
4854,-6.17
4866,-9.16
4878,-11.9
4890,-14.31
4902,-16.46
4914,-18.52
4926,-20.77
4938,-23.45
4950,-26.64
4962,-30.12
4974,-33.36
4986,-35.58
4998,-35.98
5009,-33.96
5020,-29.33
5032,-22.39
5044,-13.86
5056,-4.69
5068,4.15
5080,11.88
5092,17.98
5104,22.27
5116,24.79
5128,25.77
5140,25.54
5152,24.44
5164,22.81
5176,21.0
5188,19.38
5199,18.26
5210,17.89
5222,18.29
5234,19.28
5246,20.55
5258,21.77
5270,22.76
5282,23.54
5294,24.24
5306,24.96
5318,25.6
5330,25.91
5342,25.55
5354,24.35
5366,22.37
5378,19.88
5389,17.23
5400,14.69
5412,12.31
5424,9.98
5436,7.56
5448,4.89
5460,1.96
5472,-1.16
5484,-4.3
5496,-7.26
5508,-9.86
5520,-12.01
5532,-13.77
5544,-15.34
5556,-17.06
5568,-19.24
5579,-22.08
5590,-25.56
5602,-29.39
5614,-33.04
5626,-35.85
5638,-37.1
5650,-36.23
5662,-32.92
5674,-27.27
5686,-19.77
5698,-11.27
5710,-2.7
5722,5.1
5734,11.58
5746,16.46
5758,19.68
5769,21.33
5780,21.52
5792,20.44
5804,18.4
5816,15.82
5828,13.23
5840,11.05
5852,9.59
5864,8.98
5876,9.18
5888,10.08
5900,11.47
5912,13.12
5924,14.73
5936,15.96
5948,16.56
5959,16.4
5970,15.53
5982,14.16
5994,12.5
6006,10.7
6018,8.77
6030,6.63
6042,4.26
6054,1.69
6066,-0.93
6078,-3.44
6090,-5.69
6102,-7.68
6114,-9.46
6126,-11.2
6138,-13.04
6149,-15.11
6160,-17.46
6172,-20.09
6184,-22.98
6196,-25.96
6208,-28.76
6220,-30.88
6232,-31.7
6244,-30.62
6256,-27.26
6268,-21.72
6280,-14.53
6292,-6.58
6304,1.15
6316,7.87
6328,13.14
6339,16.87
6350,19.18
6362,20.28
6374,20.31
6386,19.43
6398,17.8
6410,15.7
6422,13.48
6434,11.55
6446,10.23
6458,9.68
6470,9.89
6482,10.66
6494,11.74
6506,12.87
6518,13.85
6529,14.57
6540,14.93
6552,14.88
6564,14.35
6576,13.3
6588,11.7
6600,9.62
6612,7.16
6624,4.49
6636,1.73
6648,-1.05
6660,-3.82
6672,-6.52
6684,-9.11
6696,-11.53
6708,-13.74
6719,-15.81
6730,-17.89
6742,-20.24
6754,-23.04
6766,-26.38
6778,-30.08
6790,-33.71
6802,-36.65
6814,-38.21
6826,-37.81
6838,-35.18
6850,-30.36
6862,-23.79
6874,-16.12
6886,-8.12
6898,-0.45
6909,6.38
6920,12.07
6932,16.44
6944,19.4
6956,20.92
6968,21.07
6980,20.11
6992,18.42
7004,16.52
7016,14.9
7028,13.9
7040,13.62
7052,13.95
7064,14.66
7076,15.54
7088,16.47
7099,17.39
7110,18.3
7122,19.12
7134,19.75
7146,20.02
7158,19.75
7170,18.85
7182,17.32
7194,15.29
7206,12.97
7218,10.6
7230,8.36
7242,6.25
7254,4.17
7266,1.91
7278,-0.67
7289,-3.56
7300,-6.62
7312,-9.62
7324,-12.35
7336,-14.73
7348,-16.79
7360,-18.66
7372,-20.51
7384,-22.48
7396,-24.75
7408,-27.39
7420,-30.38
7432,-33.43
7444,-36.0
7456,-37.34
7468,-36.73
7479,-33.72
7490,-28.35
7502,-21.18
7514,-13.08
7526,-5.03
7538,2.22
7550,8.22
7562,12.84
7574,16.17
7586,18.34
7598,19.46
7610,19.67
7622,19.13
7634,18.12
7646,16.98
7658,16.07
7669,15.67
7680,15.91
7692,16.73
7704,17.96
7716,19.37
7728,20.76
7740,21.96
7752,22.88
7764,23.45
7776,23.61
7788,23.32
7800,22.56
7812,21.26
7824,19.42
7836,17.07
7848,14.37
7859,11.58
7870,8.98
7882,6.76
7894,4.9
7906,3.23
7918,1.47
7930,-0.57
7942,-2.87
7954,-5.25
7966,-7.48
7978,-9.4
7990,-11.01
8002,-12.45
8014,-13.92
8026,-15.55
8038,-17.48
8049,-19.77
8060,-22.47
8072,-25.56
8084,-28.87
8096,-31.99
8108,-34.3
8120,-35.1
8132,-33.82
8144,-30.27
8156,-24.67
8168,-17.65
8180,-10.0
8192,-2.47
8204,4.38
8216,10.23
8228,14.92
8239,18.31
8250,20.28
8262,20.78
8274,19.92
8286,18.03
8298,15.63
8310,13.3
8322,11.51
8334,10.5
8346,10.26
8358,10.63
8370,11.4
8382,12.38
8394,13.43
8406,14.45
8418,15.31
8429,15.87
8440,16.0
8452,15.59
8464,14.62
8476,13.14
8488,11.28
8500,9.24
8512,7.21
8524,5.31
8536,3.58
8548,1.94
8560,0.24
8572,-1.69
8584,-3.96
8596,-6.56
8608,-9.3
8619,-11.94
8630,-14.24
8642,-16.07
8654,-17.48
8666,-18.72
8678,-20.15
8690,-22.09
8702,-24.69
8714,-27.84
8726,-31.14
8738,-33.99
8750,-35.71
8762,-35.71
8774,-33.63
8786,-29.44
8798,-23.39
8809,-16.08
8820,-8.24
8832,-0.66
8844,6.0
8856,11.27
8868,15.01
8880,17.29
8892,18.34
8904,18.44
8916,17.82
8928,16.69
8940,15.23
8952,13.65
8964,12.21
8976,11.13
8988,10.58
8999,10.59
9010,11.06
9022,11.82
9034,12.69
9046,13.51
9058,14.11
9070,14.38
9082,14.19
9094,13.48
9106,12.23
9118,10.51
9130,8.4
9142,6.02
9154,3.48
9166,0.87
9178,-1.73
9189,-4.27
9200,-6.7
9212,-9.03
9224,-11.3
9236,-13.55
9248,-15.81
9260,-18.09
9272,-20.4
9284,-22.81
9296,-25.43
9308,-28.33
9320,-31.46
9332,-34.49
9344,-36.84
9356,-37.83
9368,-36.82
9379,-33.52
9390,-28.06
9402,-21.02
9414,-13.22
9426,-5.53
9438,1.38
9450,7.12
9462,11.57
9474,14.8
9486,16.91
9498,18.01
9510,18.18
9522,17.55
9534,16.32
9546,14.83
9558,13.43
9569,12.39
9580,11.84
9592,11.72
9604,11.92
9616,12.31
9628,12.82
9640,13.44
9652,14.12
9664,14.71
9676,15.03
9688,14.9
9700,14.22
9712,13.0
9724,11.34
9736,9.37
9748,7.2
9759,4.89
9770,2.52
9782,0.16
9794,-2.1
9806,-4.25
9818,-6.35
9830,-8.51
9842,-10.81
9854,-13.26
9866,-15.76
9878,-18.23
9890,-20.63
9902,-23.06
9914,-25.65
9926,-28.44
9938,-31.22
9949,-33.48
9960,-34.54
9972,-33.74
9984,-30.72
9996,-25.54
10008,-18.68
10020,-10.88
10032,-2.97
10044,4.38
10056,10.68
10068,15.65
10080,19.17
10092,21.22
10104,21.86
10116,21.27
10128,19.76
10139,17.71
10150,15.53
10162,13.61
10174,12.2
10186,11.41
10198,11.23
10210,11.58
10222,12.39
10234,13.57
10246,15.01
10258,16.53
10270,17.87
10282,18.79
10294,19.08
10306,18.66
10318,17.6
10329,16.07
10340,14.28
10352,12.36
10364,10.38
10376,8.31
10388,6.12
10400,3.77
10412,1.3
10424,-1.25
10436,-3.81
10448,-6.35
10460,-8.83
10472,-11.22
10484,-13.54
10496,-15.83
10508,-18.17
10519,-20.74
10530,-23.68
10542,-26.97
10554,-30.33
10566,-33.21
10578,-34.89
10590,-34.67
10602,-32.15
10614,-27.36
10626,-20.73
10638,-13.01
10650,-5.04
10662,2.46
10674,8.95
10686,14.12
10698,17.86
10709,20.14
10720,21.03
10732,20.63
10744,19.16
10756,16.93
10768,14.37
10780,11.95
10792,10.06
10804,8.94
10816,8.59
10828,8.86
10840,9.5
10852,10.24
10864,10.89
10876,11.3
10888,11.39
10899,11.12
10910,10.45
10922,9.44
10934,8.15
10946,6.66
10958,5.04
10970,3.3
10982,1.42
10994,-0.66
11006,-2.95
11018,-5.41
11030,-7.95
11042,-10.46
11054,-12.87
11066,-15.13
11078,-17.3
11089,-19.51
11100,-21.9
11112,-24.58
11124,-27.47
11136,-30.29
11148,-32.46
11160,-33.31
11172,-32.19
11184,-28.74
11196,-23.07
11208,-15.76
11220,-7.73
11232,0.06
11244,6.83
11256,12.19
11268,16.02
11279,18.41
11290,19.52
11302,19.46
11314,18.37
11326,16.46
11338,14.07
11350,11.61
11362,9.57
11374,8.28
11386,7.88
11398,8.25
11410,9.09
11422,10.04
11434,10.83
11446,11.33
11458,11.57
11469,11.64
11480,11.55
11492,11.23
11504,10.51
11516,9.21
11528,7.23
11540,4.65
11552,1.68
11564,-1.41
11576,-4.41
11588,-7.21
11600,-9.84
11612,-12.43
11624,-15.14
11636,-18.14
11648,-21.51
11659,-25.23
11670,-29.07
11682,-32.64
11694,-35.35
11706,-36.6
11718,-35.88
11730,-32.95
11742,-27.89
11754,-21.13
11766,-13.34
11778,-5.28
11790,2.34
11802,9.03
11814,14.48
11826,18.53
11838,21.11
11849,22.19
11860,21.76
11872,20.02
11884,17.31
11896,14.2
11908,11.32
11920,9.21
11932,8.13
11944,8.02
11956,8.57
11968,9.36
11980,10.03
11992,10.43
12004,10.5
12016,10.28
12028,9.8
12039,8.99
12050,7.8
12062,6.14
12074,4.06
12086,1.7
12098,-0.73
12110,-2.99
12122,-4.95
12134,-6.6
12146,-8.02
12158,-9.39
12170,-10.87
12182,-12.61
12194,-14.73
12206,-17.33
12218,-20.42
12229,-23.84
12240,-27.18
12252,-29.84
12264,-31.09
12276,-30.36
12288,-27.33
12300,-22.11
12312,-15.19
12324,-7.29
12336,0.82
12348,8.43
12360,15.05
12372,20.36
12384,24.26
12396,26.72
12408,27.86
12419,27.82
12430,26.79
12442,25.03
12454,22.85
12466,20.63
12478,18.76
12490,17.54
12502,17.12
12514,17.41
12526,18.13
12538,18.94
12550,19.54
12562,19.76
12574,19.59
12586,19.08
12598,18.28
12609,17.16
12620,15.66
12632,13.72
12644,11.33
12656,8.63
12668,5.77
12680,2.95
12692,0.29
12704,-2.16
12716,-4.44
12728,-6.65
12740,-8.94
12752,-11.5
12764,-14.44
12776,-17.78
12788,-21.33
12799,-24.68
12810,-27.22
12822,-28.3
12834,-27.42
12846,-24.35
12858,-19.24
12870,-12.59
12882,-5.12
12894,2.36
12906,9.17
12918,14.81
12930,19.05
12942,21.86
12954,23.32
12966,23.55
12978,22.7
12989,20.95
13000,18.56
13012,15.94
13024,13.53
13036,11.75
13048,10.85
13060,10.81
13072,11.38
13084,12.21
13096,12.98
13108,13.48
13120,13.67
13132,13.55
13144,13.1
13156,12.26
13168,10.95
13179,9.15
13190,6.92
13202,4.42
13214,1.82
13226,-0.74
13238,-3.23
13250,-5.69
13262,-8.19
13274,-10.78
13286,-13.52
13298,-16.43
13310,-19.5
13322,-22.66
13334,-25.67
13346,-28.13
13358,-29.52
13369,-29.32
13380,-27.21
13392,-23.18
13404,-17.59
13416,-11.02
13428,-4.18
13440,2.34
13452,8.09
13464,12.85
13476,16.47
13488,18.86
13500,19.94
13512,19.71
13524,18.36
13536,16.23
13548,13.84
13559,11.66
13570,10.05
13582,9.15
13594,8.92
13606,9.22
13618,9.85
13630,10.65
13642,11.43
13654,11.98
13666,12.18
13678,11.92
13690,11.21
13702,10.08
13714,8.58
13726,6.7
13738,4.43
13749,1.79
13760,-1.12
13772,-4.11
13784,-6.98
13796,-9.61
13808,-12.05
13820,-14.5
13832,-17.22
13844,-20.38
13856,-23.93
13868,-27.54
13880,-30.63
13892,-32.54
13904,-32.72
13916,-30.91
13928,-27.18
13939,-21.96
13950,-15.78
13962,-9.25
13974,-2.85
13986,3.06
13998,8.22
14010,12.42
14022,15.53
14034,17.47
14046,18.24
14058,17.98
14070,16.91
14082,15.34
14094,13.63
14106,12.09
14118,11.03
14129,10.58
14140,10.77
14152,11.48
14164,12.47
14176,13.49
14188,14.3
14200,14.72
14212,14.66
14224,14.12
14236,13.15
14248,11.81
14260,10.17
14272,8.26
14284,6.1
14296,3.73
14308,1.21
14319,-1.4
14330,-4.0
14342,-6.53
14354,-8.99
14366,-11.43
14378,-13.97
14390,-16.67
14402,-19.58
14414,-22.61
14426,-25.63
14438,-28.39
14450,-30.6
14462,-31.88
14474,-31.83
14486,-30.1
14498,-26.53
14509,-21.23
14520,-14.62
14532,-7.42
14544,-0.39
14556,5.77
14568,10.64
14580,14.08
14592,16.2
14604,17.21
14616,17.37
14628,16.93
14640,16.07
14652,15.01
14664,13.95
14676,13.04
14688,12.45
14699,12.25
14710,12.46
14722,13.04
14734,13.9
14746,14.91
14758,15.9
14770,16.71
14782,17.2
14794,17.25
14806,16.77
14818,15.75
14830,14.21
14842,12.25
14854,9.99
14866,7.62
14878,5.24
14889,2.88
14900,0.53
14912,-1.84
14924,-4.22
14936,-6.51
14948,-8.61
14960,-10.48
14972,-12.16
14984,-13.78
14996,-15.48
15008,-17.39
15020,-19.56
15032,-22.0
15044,-24.66
15056,-27.32
15068,-29.62
15079,-30.99
15090,-30.77
15102,-28.48
15114,-24.03
15126,-17.83
15138,-10.67
15150,-3.47
15162,3.03
15174,8.41
15186,12.61
15198,15.72
15210,17.85
15222,18.99
15234,19.1
15246,18.19
15258,16.43
15269,14.23
15280,12.08
15292,10.46
15304,9.68
15316,9.78
15328,10.57
15340,11.76
15352,13.03
15364,14.18
15376,15.11
15388,15.79
15400,16.2
15412,16.27
15424,15.91
15436,15.01
15448,13.55
15459,11.64
15470,9.49
15482,7.32
15494,5.28
15506,3.36
15518,1.4
15530,-0.74
15542,-3.13
15554,-5.7
15566,-8.2
15578,-10.42
15590,-12.27
15602,-13.81
15614,-15.25
15626,-16.84
15638,-18.76
15649,-21.06
15660,-23.66
15672,-26.34
15684,-28.73
15696,-30.41
15708,-30.91
15720,-29.85
15732,-27.05
15744,-22.62
15756,-16.96
15768,-10.65
15780,-4.32
15792,1.49
15804,6.39
15816,10.18
15828,12.78
15839,14.18
15850,14.45
15862,13.76
15874,12.35
15886,10.56
15898,8.74
15910,7.23
15922,6.25
15934,5.88
15946,6.05
15958,6.63
15970,7.42
15982,8.25
15994,9.03
16006,9.64
16018,10.01
16029,10.02
16040,9.56
16052,8.52
16064,6.89
16076,4.75
16088,2.28
16100,-0.29
16112,-2.81
16124,-5.2
16136,-7.49
16148,-9.8
16160,-12.17
16172,-14.54
16184,-16.78
16196,-18.7
16208,-20.25
16219,-21.56
16230,-22.91
16242,-24.59
16254,-26.75
16266,-29.23
16278,-31.57
16290,-33.11
16302,-33.18
16314,-31.32
16326,-27.43
16338,-21.83
16350,-15.09
16362,-7.95
16374,-1.08
16386,5.03
16398,10.06
16409,13.84
16420,16.25
16432,17.27
16444,16.94
16456,15.49
16468,13.35
16480,11.04
16492,9.09
16504,7.86
16516,7.46
16528,7.74
16540,8.46
16552,9.36
16564,10.19
16576,10.8
16588,11.05
16599,10.89
16610,10.33
16622,9.44
16634,8.31
16646,7.01
16658,5.56
16670,3.91
16682,2.0
16694,-0.15
16706,-2.46
16718,-4.83
16730,-7.13
16742,-9.3
16754,-11.37
16766,-13.44
16778,-15.63
16789,-18.07
16800,-20.87
16812,-24.03
16824,-27.43
16836,-30.79
16848,-33.68
16860,-35.58
16872,-35.96
16884,-34.48
16896,-31.02
16908,-25.75
16920,-19.13
16932,-11.8
16944,-4.46
16956,2.26
16968,7.89
16979,12.16
16990,15.05
17002,16.66
17014,17.23
17026,17.01
17038,16.28
17050,15.24
17062,14.12
17074,13.09
17086,12.32
17098,11.94
17110,11.99
17122,12.44
17134,13.12
17146,13.8
17158,14.27
17169,14.37
17180,14.05
17192,13.38
17204,12.42
17216,11.19
17228,9.67
17240,7.83
17252,5.65
17264,3.18
17276,0.53
17288,-2.19
17300,-4.88
17312,-7.49
17324,-9.98
17336,-12.34
17348,-14.54
17359,-16.63
17370,-18.71
17382,-20.98
17394,-23.62
17406,-26.74
17418,-30.18
17430,-33.52
17442,-36.04
17454,-36.95
17466,-35.61
17478,-31.71
17490,-25.49
17502,-17.58
17514,-8.91
17526,-0.42
17538,7.15
17549,13.38
17560,18.13
17572,21.43
17584,23.35
17596,23.97
17608,23.47
17620,22.09
17632,20.22
17644,18.32
17656,16.8
17668,15.92
17680,15.71
17692,16.06
17704,16.79
17716,17.74
17728,18.77
17739,19.79
17750,20.65
17762,21.12
17774,20.99
17786,20.09
17798,18.45
17810,16.25
17822,13.78
17834,11.3
17846,8.94
17858,6.68
17870,4.38
17882,1.92
17894,-0.74
17906,-3.51
17918,-6.24
17929,-8.78
17940,-11.07
17952,-13.13
17964,-15.12
17976,-17.28
17988,-19.81
18000,-22.76
18012,-25.98
18024,-29.0
18036,-31.1
18048,-31.52
18060,-29.72
18072,-25.51
18084,-19.19
18096,-11.41
18108,-3.03
18119,5.16
18130,12.53
18142,18.67
18154,23.34
18166,26.43
18178,27.89
18190,27.79
18202,26.33
18214,23.88
18226,20.95
18238,18.04
18250,15.6
18262,13.89
18274,12.99
18286,12.82
18298,13.18
18309,13.82
18320,14.48
18332,14.99
18344,15.23
18356,15.2
18368,14.94
18380,14.48
18392,13.79
18404,12.75
18416,11.21
18428,9.08
18440,6.38
18452,3.31
18464,0.12
18476,-2.95
18488,-5.75
18499,-8.27
18510,-10.56
18522,-12.76
18534,-15.01
18546,-17.49
18558,-20.36
18570,-23.62
18582,-27.04
18594,-30.09
18606,-32.07
18618,-32.27
18630,-30.27
18642,-26.04
18654,-20.01
18666,-12.83
18678,-5.25
18689,2.07
18700,8.56
18712,13.84
18724,17.61
18736,19.74
18748,20.27
18760,19.44
18772,17.63
18784,15.28
18796,12.81
18808,10.58
18820,8.87
18832,7.86
18844,7.63
18856,8.09
18868,8.99
18879,9.99
18890,10.81
18902,11.28
18914,11.4
18926,11.27
18938,10.96
18950,10.43
18962,9.57
18974,8.22
18986,6.36
18998,4.05
19010,1.48
19022,-1.2
19034,-3.87
19046,-6.55
19058,-9.25
19069,-12.04
19080,-15.0
19092,-18.16
19104,-21.5
19116,-24.83
19128,-27.71
19140,-29.54
19152,-29.68
19164,-27.71
19176,-23.59
19188,-17.68
19200,-10.69
19212,-3.43
19224,3.41
19236,9.32
19248,14.0
19259,17.28
19270,19.08
19282,19.41
19294,18.39
19306,16.34
19318,13.75
19330,11.16
19342,9.05
19354,7.7
19366,7.13
19378,7.17
19390,7.56
19402,8.02
19414,8.39
19426,8.6
19438,8.63
19449,8.48
19460,8.12
19472,7.47
19484,6.44
19496,4.95
19508,2.96
19520,0.52
19532,-2.24
19544,-5.12
19556,-7.9
19568,-10.41
19580,-12.67
19592,-14.81
19604,-17.09
19616,-19.77
19628,-22.98
19639,-26.62
19650,-30.4
19662,-33.8
19674,-36.21
19686,-37.03
19698,-35.83
19710,-32.42
19722,-26.94
19734,-19.87
19746,-11.92
19758,-3.9
19770,3.45
19782,9.63
19794,14.35
19806,17.55
19818,19.27
19829,19.64
19840,18.86
19852,17.22
19864,15.13
19876,13.07
19888,11.45
19900,10.52
19912,10.31
19924,10.66
19936,11.33
19948,12.05
19960,12.65
19972,13.03
19984,13.14
19996,12.95
20008,12.43
20019,11.57
20030,10.32
20042,8.59
20054,6.37
20066,3.69
20078,0.73
20090,-2.24
20102,-4.97
20114,-7.28
20126,-9.2
20138,-10.94
20150,-12.86
20162,-15.25
20174,-18.3
20186,-21.93
20198,-25.77
20209,-29.18
20220,-31.4
20232,-31.74
20244,-29.76
20256,-25.43
20268,-19.19
20280,-11.75
20292,-3.94
20304,3.54
20316,10.15
20328,15.6
20340,19.7
20352,22.34
20364,23.47
20376,23.17
20388,21.68
20399,19.41
20410,16.87
20422,14.58
20434,12.92
20446,12.05
20458,11.95
20470,12.45
20482,13.31
20494,14.27
20506,15.17
20518,15.93
20530,16.47
20542,16.78
20554,16.75
20566,16.26
20578,15.16
20589,13.38
20600,10.97
20612,8.1
20624,5.1
20636,2.27
20648,-0.2
20660,-2.3
20672,-4.17
20684,-6.06
20696,-8.16
20708,-10.6
20720,-13.41
20732,-16.55
20744,-19.9
20756,-23.21
20768,-26.05
20779,-27.83
20790,-27.92
20802,-25.82
20814,-21.45
20826,-15.16
20838,-7.72
20850,-0.07
20862,6.94
20874,12.75
20886,17.13
20898,20.09
20910,21.72
20922,22.11
20934,21.39
20946,19.73
20958,17.5
20969,15.19
20980,13.28
20992,12.12
