seconds,BVP
2,-43.69
14,-45.49
26,-45.06
38,-42.15
50,-37.01
62,-30.34
74,-23.0
86,-15.83
98,-9.31
110,-3.61
122,1.38
134,5.81
146,9.76
158,13.18
170,15.91
181,17.81
192,18.86
204,19.14
216,18.91
228,18.42
240,17.86
252,17.34
264,16.85
276,16.4
288,16.01
300,15.77
312,15.77
324,16.04
336,16.48
348,16.88
360,16.99
371,16.59
382,15.61
394,14.12
406,12.29
418,10.38
430,8.55
442,6.9
454,5.42
466,4.05
478,2.7
490,1.25
502,-0.39
514,-2.31
526,-4.55
538,-7.07
550,-9.78
561,-12.5
572,-15.06
584,-17.38
596,-19.5
608,-21.6
620,-23.98
632,-26.93
644,-30.63
656,-34.95
668,-39.42
680,-43.24
692,-45.49
704,-45.4
716,-42.66
728,-37.51
740,-30.69
751,-23.15
762,-15.77
774,-9.1
786,-3.37
798,1.45
810,5.47
822,8.74
834,11.29
846,13.12
858,14.32
870,15.05
882,15.51
894,15.87
906,16.18
918,16.39
930,16.43
941,16.24
952,15.88
964,15.5
976,15.3
988,15.39
1000,15.75
1012,16.21
1024,16.47
1036,16.28
1048,15.47
1060,14.06
1072,12.18
1084,10.08
1096,8.02
1108,6.18
1120,4.63
1131,3.28
1142,1.92
1154,0.3
1166,-1.8
1178,-4.44
1190,-7.49
1202,-10.71
1214,-13.83
1226,-16.71
1238,-19.39
1250,-22.09
1262,-25.15
1274,-28.77
1286,-32.94
1298,-37.3
1310,-41.2
1321,-43.86
1332,-44.58
1344,-42.96
1356,-39.0
1368,-33.09
1380,-25.92
1392,-18.24
1404,-10.72
1416,-3.83
1428,2.16
1440,7.15
1452,11.08
1464,13.94
1476,15.76
1488,16.62
1500,16.75
1511,16.45
1522,16.03
1534,15.76
1546,15.78
1558,16.09
1570,16.59
1582,17.15
1594,17.67
1606,18.11
1618,18.49
1630,18.78
1642,18.96
1654,18.94
1666,18.56
1678,17.66
1690,16.14
1701,14.06
1712,11.57
1724,8.98
1736,6.54
1748,4.39
1760,2.46
1772,0.51
1784,-1.76
1796,-4.52
1808,-7.75
1820,-11.21
1832,-14.59
1844,-17.6
1856,-20.18
1868,-22.45
1880,-24.72
1891,-27.34
1902,-30.64
1914,-34.81
1926,-39.76
1938,-45.06
1950,-49.93
1962,-53.38
1974,-54.49
1986,-52.72
1998,-48.11
2010,-41.26
2022,-33.14
2034,-24.69
2046,-16.62
2058,-9.26
2070,-2.67
2081,3.17
2092,8.25
2104,12.49
2116,15.83
2128,18.26
2140,19.93
2152,21.0
2164,21.66
2176,22.05
2188,22.22
2200,22.24
2212,22.19
2224,22.17
2236,22.31
2248,22.69
2260,23.29
2271,24.02
2282,24.67
2294,24.99
2306,24.82
2318,24.04
2330,22.69
2342,20.92
2354,18.94
2366,16.94
2378,15.04
2390,13.19
2402,11.22
2414,8.92
2426,6.12
2438,2.78
2450,-0.97
2461,-4.86
2472,-8.59
2484,-11.92
2496,-14.78
2508,-17.31
2520,-19.81
2532,-22.64
2544,-26.15
2556,-30.56
2568,-35.83
2580,-41.65
2592,-47.35
2604,-52.02
2616,-54.7
2628,-54.62
2640,-51.48
2651,-45.55
2662,-37.58
2674,-28.56
2686,-19.47
2698,-10.98
2710,-3.45
2722,3.1
2734,8.75
2746,13.57
2758,17.54
2770,20.58
2782,22.62
2794,23.73
2806,24.09
2818,24.05
2830,23.94
2841,23.97
2852,24.22
2864,24.58
2876,24.93
2888,25.21
2900,25.5
2912,25.92
2924,26.54
2936,27.22
2948,27.66
2960,27.49
2972,26.43
2984,24.48
2996,21.92
3008,19.13
3020,16.45
3031,14.0
3042,11.69
3054,9.32
3066,6.71
3078,3.79
3090,0.64
3102,-2.64
3114,-5.94
3126,-9.24
3138,-12.53
3150,-15.82
3162,-19.12
3174,-22.47
3186,-26.03
3198,-30.0
3210,-34.49
3221,-39.38
3232,-44.13
3244,-47.86
3256,-49.56
3268,-48.43
3280,-44.2
3292,-37.23
3304,-28.45
3316,-18.99
3328,-9.9
3340,-1.85
3352,4.9
3364,10.45
3376,14.97
3388,18.56
3400,21.23
3411,22.86
3422,23.47
3434,23.26
3446,22.65
3458,22.15
3470,22.16
3482,22.8
3494,23.91
3506,25.08
3518,25.98
3530,26.42
3542,26.47
3554,26.3
3566,26.06
3578,25.74
3590,25.14
3601,24.08
3612,22.44
3624,20.29
3636,17.83
3648,15.25
3660,12.6
3672,9.79
3684,6.69
3696,3.3
3708,-0.26
3720,-3.73
3732,-6.84
3744,-9.52
3756,-11.95
3768,-14.5
3780,-17.62
3791,-21.64
3802,-26.65
3814,-32.42
3826,-38.48
3838,-44.04
3850,-48.19
3862,-50.07
3874,-49.05
3886,-44.97
3898,-38.23
3910,-29.66
3922,-20.31
3934,-11.12
3946,-2.71
3958,4.62
3970,10.83
3981,16.0
3992,20.17
4004,23.36
4016,25.59
4028,26.97
4040,27.75
4052,28.2
4064,28.58
4076,29.04
4088,29.59
4100,30.15
4112,30.69
4124,31.21
4136,31.78
4148,32.44
4160,33.13
4171,33.69
4182,33.84
4194,33.34
4206,32.06
4218,30.05
4230,27.55
4242,24.86
4254,22.26
4266,19.84
4278,17.52
4290,15.05
4302,12.14
4314,8.64
4326,4.55
4338,0.1
4350,-4.41
4361,-8.78
4372,-12.98
4384,-17.19
4396,-21.72
4408,-26.89
4420,-32.91
4432,-39.77
4444,-47.16
4456,-54.47
4468,-60.75
4480,-64.95
4492,-66.19
4504,-63.98
4516,-58.44
4528,-50.29
4540,-40.57
4551,-30.32
4562,-20.37
4574,-11.15
4586,-2.77
4598,4.81
4610,11.62
4622,17.6
4634,22.59
4646,26.47
4658,29.19
4670,30.84
4682,31.66
4694,31.99
4706,32.12
4718,32.27
4730,32.51
4741,32.81
4752,33.14
4764,33.46
4776,33.77
4788,34.06
4800,34.26
4812,34.24
4824,33.83
4836,32.88
4848,31.33
4860,29.22
4872,26.68
4884,23.92
4896,21.09
4908,18.3
4920,15.52
4931,12.62
4942,9.46
4954,5.96
4966,2.18
4978,-1.74
4990,-5.6
5002,-9.24
5014,-12.66
5026,-16.01
5038,-19.55
5050,-23.62
5062,-28.49
5074,-34.2
5086,-40.48
5098,-46.67
5110,-51.78
5121,-54.74
5132,-54.7
5144,-51.36
5156,-45.03
5168,-36.54
5180,-26.98
5192,-17.34
5204,-8.31
5216,-0.22
5228,6.88
5240,13.01
5252,18.24
5264,22.55
5276,25.91
5288,28.33
5300,29.94
5311,30.92
5322,31.51
5334,31.9
5346,32.2
5358,32.46
5370,32.71
5382,32.98
5394,33.3
5406,33.74
5418,34.24
5430,34.64
5442,34.72
5454,34.24
5466,33.05
5478,31.2
5490,28.89
5501,26.38
5512,23.87
5524,21.45
5536,19.06
5548,16.53
5560,13.72
5572,10.57
5584,7.12
5596,3.51
5608,-0.09
5620,-3.59
5632,-6.99
5644,-10.38
5656,-13.91
5668,-17.77
5680,-22.11
5691,-27.07
5702,-32.63
5714,-38.49
5726,-44.04
5738,-48.37
5750,-50.46
5762,-49.54
5774,-45.36
5786,-38.31
5798,-29.32
5810,-19.59
5822,-10.14
5834,-1.63
5846,5.71
5858,11.9
5870,17.05
5881,21.17
5892,24.23
5904,26.22
5916,27.28
5928,27.67
5940,27.72
5952,27.73
5964,27.84
5976,28.06
5988,28.28
6000,28.41
6012,28.41
6024,28.34
6036,28.26
6048,28.23
6060,28.18
6071,27.96
6082,27.36
6094,26.21
6106,24.45
6118,22.13
6130,19.47
6142,16.68
6154,13.97
6166,11.39
6178,8.86
6190,6.19
6202,3.2
6214,-0.18
6226,-3.84
6238,-7.57
6250,-11.11
6261,-14.32
6272,-17.25
6284,-20.18
6296,-23.48
6308,-27.49
6320,-32.4
6332,-38.11
6344,-44.22
6356,-50.04
6368,-54.65
6380,-57.16
6392,-56.86
6404,-53.49
6416,-47.37
6428,-39.25
6440,-30.15
6451,-21.03
6462,-12.5
6474,-4.84
6486,2.01
6498,8.18
6510,13.76
6522,18.67
6534,22.75
6546,25.84
6558,27.96
6570,29.28
6582,30.12
6594,30.8
6606,31.53
6618,32.33
6630,33.06
6641,33.6
6652,33.86
6664,33.91
6676,33.86
6688,33.82
6700,33.75
6712,33.52
6724,32.94
6736,31.86
6748,30.25
6760,28.18
6772,25.81
6784,23.32
6796,20.85
6808,18.45
6820,16.07
6831,13.59
6842,10.85
6854,7.79
6866,4.38
6878,0.72
6890,-3.06
6902,-6.84
6914,-10.55
6926,-14.16
6938,-17.77
6950,-21.47
6962,-25.49
6974,-30.06
6986,-35.32
6998,-41.18
7010,-47.17
7021,-52.43
7032,-55.88
7044,-56.6
7056,-54.04
7068,-48.33
7080,-40.15
7092,-30.52
7104,-20.52
7116,-10.99
7128,-2.46
7140,4.88
7152,11.08
7164,16.26
7176,20.53
7188,23.92
7200,26.45
7211,28.15
7222,29.13
7234,29.62
7246,29.89
7258,30.13
7270,30.43
7282,30.76
7294,31.06
7306,31.27
7318,31.43
7330,31.6
7342,31.74
7354,31.71
7366,31.22
7378,30.0
7390,27.93
7401,25.12
7412,21.86
7424,18.5
7436,15.27
7448,12.2
7460,9.16
7472,5.92
7484,2.36
7496,-1.51
7508,-5.48
7520,-9.29
7532,-12.74
7544,-15.8
7556,-18.62
7568,-21.47
7580,-24.6
7591,-28.21
7602,-32.32
7614,-36.85
7626,-41.56
7638,-46.0
7650,-49.53
7662,-51.37
7674,-50.79
7686,-47.39
7698,-41.3
7710,-33.2
7722,-24.11
7734,-15.08
7746,-6.86
7758,0.23
7770,6.24
7781,11.33
7792,15.6
7804,18.98
7816,21.31
7828,22.55
7840,22.84
7852,22.59
7864,22.28
7876,22.27
7888,22.69
7900,23.4
7912,24.11
7924,24.55
7936,24.6
7948,24.36
7960,24.02
7971,23.77
7982,23.58
7994,23.26
8006,22.52
8018,21.14
8030,19.09
8042,16.57
8054,13.87
8066,11.29
8078,8.97
8090,6.86
8102,4.82
8114,2.66
8126,0.23
8138,-2.51
8150,-5.51
8161,-8.63
8172,-11.71
8184,-14.63
8196,-17.36
8208,-20.0
8220,-22.83
8232,-26.19
8244,-30.43
8256,-35.7
8268,-41.81
8280,-48.18
8292,-53.88
8304,-57.79
8316,-58.9
8328,-56.67
8340,-51.16
8351,-43.12
8362,-33.68
8374,-24.07
8386,-15.24
8398,-7.66
8410,-1.31
8422,4.07
8434,8.79
8446,12.97
8458,16.56
8470,19.43
8482,21.48
8494,22.78
8506,23.55
8518,24.08
8530,24.58
8541,25.16
8552,25.75
8564,26.24
8576,26.52
8588,26.58
8600,26.52
8612,26.51
8624,26.65
8636,26.92
8648,27.09
8660,26.83
8672,25.85
8684,24.03
8696,21.5
8708,18.62
8720,15.82
8731,13.45
8742,11.6
8754,10.12
8766,8.67
8778,6.87
8790,4.47
8802,1.42
8814,-2.1
8826,-5.82
8838,-9.42
8850,-12.68
8862,-15.56
8874,-18.18
8886,-20.78
8898,-23.67
8910,-27.16
8921,-31.47
8932,-36.67
8944,-42.47
8956,-48.23
8968,-52.98
8980,-55.67
8992,-55.48
9004,-52.13
9016,-45.99
9028,-37.94
9040,-29.04
9052,-20.24
9064,-12.12
9076,-4.92
9088,1.37
9100,6.79
9111,11.36
9122,15.06
9134,17.87
9146,19.84
9158,21.07
9170,21.68
9182,21.84
9194,21.71
9206,21.47
9218,21.3
9230,21.29
9242,21.49
9254,21.88
9266,22.41
9278,23.03
9290,23.62
9301,24.01
9312,23.94
9324,23.19
9336,21.66
9348,19.46
9360,16.88
9372,14.3
9384,11.99
9396,10.04
9408,8.31
9420,6.52
9432,4.42
9444,1.89
9456,-1.03
9468,-4.13
9480,-7.19
9491,-10.02
9502,-12.58
9514,-14.95
9526,-17.38
9538,-20.17
9550,-23.6
9562,-27.8
9574,-32.61
9586,-37.59
9598,-41.92
9610,-44.69
9622,-45.05
9634,-42.57
9646,-37.36
9658,-30.05
9670,-21.62
9681,-13.07
9692,-5.18
9704,1.64
9716,7.21
9728,11.6
9740,14.92
9752,17.28
9764,18.82
9776,19.71
9788,20.15
9800,20.29
9812,20.25
9824,20.09
9836,19.86
9848,19.59
9860,19.37
9871,19.21
9882,19.15
9894,19.18
9906,19.25
9918,19.3
9930,19.24
9942,18.98
9954,18.39
9966,17.37
9978,15.86
9990,13.95
10002,11.79
10014,9.59
10026,7.49
10038,5.47
10050,3.38
10061,1.01
10072,-1.8
10084,-5.05
10096,-8.58
10108,-12.14
10120,-15.47
10132,-18.46
10144,-21.14
10156,-23.7
10168,-26.44
10180,-29.72
10192,-33.83
10204,-38.83
10216,-44.41
10228,-49.8
10240,-53.91
10251,-55.64
10262,-54.24
10274,-49.6
10286,-42.33
10298,-33.5
10310,-24.29
10322,-15.59
10334,-7.87
10346,-1.2
10358,4.53
10370,9.43
10382,13.5
10394,16.69
10406,18.98
10418,20.47
10430,21.34
10441,21.86
10452,22.25
10464,22.64
10476,23.05
10488,23.45
10500,23.76
10512,23.98
10524,24.11
10536,24.19
10548,24.25
10560,24.23
10572,24.02
10584,23.42
10596,22.27
10608,20.46
10620,18.11
10631,15.44
10642,12.79
10654,10.43
10666,8.47
10678,6.76
10690,5.01
10702,2.91
10714,0.31
10726,-2.71
10738,-5.89
10750,-8.89
10762,-11.56
10774,-13.94
10786,-16.3
10798,-18.99
10810,-22.28
10821,-26.34
10832,-31.17
10844,-36.64
10856,-42.46
10868,-48.06
10880,-52.69
10892,-55.42
10904,-55.44
10916,-52.34
10928,-46.29
10940,-38.09
10952,-28.86
10964,-19.7
10976,-11.39
10988,-4.27
11000,1.71
11011,6.76
11022,11.05
11034,14.61
11046,17.4
11058,19.38
11070,20.61
11082,21.29
11094,21.66
11106,21.9
11118,22.14
11130,22.39
11142,22.63
11154,22.86
11166,23.14
11178,23.48
11190,23.87
11201,24.2
11212,24.27
11224,23.94
11236,23.14
11248,21.87
11260,20.24
11272,18.35
11284,16.29
11296,14.1
11308,11.78
11320,9.31
11332,6.7
11344,4.0
11356,1.25
11368,-1.47
11380,-4.1
11391,-6.63
11402,-9.13
11414,-11.72
11426,-14.59
11438,-17.91
11450,-21.82
11462,-26.31
11474,-31.17
11486,-35.92
11498,-39.85
11510,-42.15
11522,-42.17
11534,-39.63
11546,-34.71
11558,-28.01
11570,-20.34
11581,-12.48
11592,-5.03
11604,1.69
11616,7.49
11628,12.25
11640,15.82
11652,18.07
11664,19.01
11676,18.8
11688,17.81
11700,16.5
11712,15.27
11724,14.34
11736,13.69
11748,13.18
11760,12.62
11771,11.93
11782,11.17
11794,10.44
11806,9.8
11818,9.2
11830,8.53
11842,7.67
11854,6.56
11866,5.26
11878,3.84
11890,2.34
11902,0.71
11914,-1.16
11926,-3.3
11938,-5.68
11950,-8.13
11961,-10.45
11972,-12.49
11984,-14.23
11996,-15.82
12008,-17.54
12020,-19.68
12032,-22.52
12044,-26.21
12056,-30.75
12068,-35.81
12080,-40.79
12092,-44.79
12104,-46.81
12116,-46.05
12128,-42.16
12140,-35.42
12151,-26.65
12162,-16.95
12174,-7.39
12186,1.26
12198,8.65
12210,14.75
12222,19.74
12234,23.83
12246,27.19
12258,29.91
12270,32.03
12282,33.59
12294,34.61
12306,35.14
12318,35.26
12330,35.17
12341,35.12
12352,35.44
12364,36.38
12376,38.04
12388,40.23
12400,42.55
12412,44.46
12424,45.52
12436,45.51
12448,44.61
12460,43.3
12472,42.22
12484,41.84
12496,42.3
12508,43.32
12520,44.34
12531,44.78
12542,44.4
12554,43.45
12566,42.64
12578,42.96
12590,45.32
12602,50.09
12614,56.81
12626,63.87
12638,68.72
12650,68.32
12662,60.09
12674,42.85
12686,17.47
12698,-13.13
12710,-44.79
12721,-73.24
12732,-95.35
12744,-109.76
12756,-116.82
12768,-118.04
12780,-115.31
12792,-110.27
12804,-103.99
12816,-97.08
12828,-89.87
12840,-82.71
12852,-75.97
12864,-70.04
12876,-65.04
12888,-60.66
12900,-56.21
12911,-50.96
12922,-44.65
12934,-37.66
12946,-30.93
12958,-25.48
12970,-21.74
12982,-19.31
12994,-17.08
13006,-13.84
13018,-8.92
13030,-2.49
13042,4.53
13054,10.99
13066,16.02
13078,19.31
13090,21.15
13101,22.09
13112,22.74
13124,23.51
13136,24.55
13148,25.8
13160,27.04
13172,27.95
13184,28.15
13196,27.23
13208,24.83
13220,20.69
13232,14.76
13244,7.28
13256,-1.17
13268,-9.86
13280,-18.18
13291,-25.96
13302,-33.6
13314,-41.82
13326,-51.07
13338,-61.02
13350,-70.3
13362,-76.92
13374,-79.09
13386,-76.03
13398,-68.33
13410,-57.56
13422,-45.48
13434,-33.26
13446,-21.19
13458,-9.04
13470,3.33
13481,15.47
13492,26.39
13504,34.99
13516,40.68
13528,43.7
13540,44.94
13552,45.56
13564,46.47
13576,48.03
13588,50.01
13600,51.91
13612,53.16
13624,53.45
13636,52.87
13648,51.83
13660,50.85
13671,50.34
13682,50.32
13694,50.47
13706,50.26
13718,49.33
13730,47.69
13742,45.82
13754,44.41
13766,44.01
13778,44.75
13790,46.29
13802,48.03
13814,49.39
13826,50.01
13838,49.71
13850,48.37
13861,45.84
13872,41.91
13884,36.5
13896,29.75
13908,22.03
13920,13.74
13932,5.15
13944,-3.71
13956,-12.87
13968,-22.11
13980,-30.76
13992,-37.64
14004,-41.44
14016,-41.22
14028,-36.77
14040,-28.82
14051,-18.81
14062,-8.44
14074,0.89
14086,8.4
14098,14.08
14110,18.45
14122,22.17
14134,25.68
14146,28.91
14158,31.44
14170,32.73
14182,32.54
14194,31.05
14206,28.84
14218,26.56
14230,24.66
14241,23.18
14252,21.94
14264,20.74
14276,19.59
14288,18.71
14300,18.28
14312,18.26
14324,18.19
14336,17.39
14348,15.26
14360,11.55
14372,6.55
14384,0.89
14396,-4.72
14408,-9.81
14420,-14.22
14431,-18.1
14442,-21.7
14454,-25.21
14466,-28.67
14478,-32.05
14490,-35.32
14502,-38.55
14514,-41.89
14526,-45.47
14538,-49.35
14550,-53.36
14562,-57.05
14574,-59.77
14586,-60.71
14598,-59.26
14610,-55.16
14621,-48.74
14632,-40.82
14644,-32.54
14656,-24.88
14668,-18.46
14680,-13.35
14692,-9.19
14704,-5.54
14716,-2.08
14728,1.24
14740,4.29
14752,6.91
14764,9.14
14776,11.18
14788,13.39
14800,16.02
14811,19.2
14822,22.86
14834,26.84
14846,30.99
14858,35.25
14870,39.59
14882,43.9
14894,47.92
14906,51.19
14918,53.18
14930,53.53
14942,52.16
14954,49.36
14966,45.73
14978,42.01
14990,38.76
15001,36.26
15012,34.44
15024,33.02
15036,31.68
15048,30.27
15060,28.91
15072,27.92
15084,27.66
15096,28.35
15108,29.95
15120,32.17
15132,34.48
15144,36.35
15156,37.29
15168,36.99
15180,35.45
15191,32.95
15202,30.04
15214,27.31
15226,25.23
15238,23.89
15250,23.02
15262,22.03
15274,20.35
15286,17.66
15298,13.96
15310,9.62
15322,5.14
15334,1.0
15346,-2.53
15358,-5.39
15370,-7.7
15381,-9.72
15392,-11.67
15404,-13.67
15416,-15.73
15428,-17.7
15440,-19.38
15452,-20.6
15464,-21.26
15476,-21.38
15488,-21.06
15500,-20.37
15512,-19.4
15524,-18.23
15536,-17.03
15548,-16.08
15560,-15.72
15571,-16.2
15582,-17.63
15594,-19.82
15606,-22.37
15618,-24.76
15630,-26.65
15642,-27.99
15654,-29.03
15666,-30.23
15678,-31.96
15690,-34.35
15702,-37.16
15714,-40.01
15726,-42.49
15738,-44.42
15750,-45.89
15761,-47.22
15772,-48.77
15784,-50.86
15796,-53.64
15808,-57.04
15820,-60.74
15832,-64.14
15844,-66.44
15856,-66.76
15868,-64.42
15880,-59.19
15892,-51.42
15904,-41.95
15916,-31.89
15928,-22.25
15940,-13.72
15951,-6.53
15962,-0.57
15974,4.44
15986,8.71
15998,12.28
16010,15.11
16022,17.16
16034,18.52
16046,19.43
16058,20.22
16070,21.09
16082,22.07
16094,22.99
16106,23.6
16118,23.72
16130,23.39
16141,22.84
16152,22.34
16164,22.09
16176,22.07
16188,22.03
16200,21.65
16212,20.61
16224,18.81
16236,16.37
16248,13.62
16260,10.97
16272,8.72
16284,6.99
16296,5.63
16308,4.29
16320,2.64
16331,0.45
16342,-2.25
16354,-5.27
16366,-8.34
16378,-11.32
16390,-14.23
16402,-17.3
16414,-20.83
16426,-25.11
16438,-30.29
16450,-36.35
16462,-42.98
16474,-49.58
16486,-55.29
16498,-59.07
16510,-60.01
16521,-57.61
16532,-51.99
16544,-43.95
16556,-34.69
16568,-25.45
16580,-17.1
16592,-10.0
16604,-4.05
16616,1.06
16628,5.58
16640,9.54
16652,12.83
16664,15.26
16676,16.72
16688,17.29
16700,17.17
16711,16.6
16722,15.77
16734,14.77
16746,13.62
16758,12.36
16770,11.08
16782,9.97
16794,9.27
16806,9.09
16818,9.37
16830,9.8
16842,9.88
16854,9.15
16866,7.41
16878,4.78
16890,1.72
16901,-1.23
16912,-3.68
16924,-5.54
16936,-7.03
16948,-8.49
16960,-10.21
16972,-12.28
16984,-14.64
16996,-17.18
17008,-19.74
17020,-22.3
17032,-24.81
17044,-27.29
17056,-29.75
17068,-32.23
17080,-34.88
17091,-37.83
17102,-41.13
17114,-44.59
17126,-47.65
17138,-49.46
17150,-49.09
17162,-45.92
17174,-39.87
17186,-31.5
17198,-21.89
17210,-12.27
17222,-3.6
17234,3.57
17246,9.19
17258,13.51
17270,16.82
17281,19.32
17292,21.01
17304,21.88
17316,21.93
17328,21.34
17340,20.38
17352,19.34
17364,18.48
17376,17.85
17388,17.4
17400,16.94
17412,16.35
17424,15.56
17436,14.64
17448,13.67
17460,12.7
17471,11.69
17482,10.51
17494,9.03
17506,7.2
17518,5.09
17530,2.85
17542,0.63
17554,-1.45
17566,-3.36
17578,-5.11
17590,-6.75
17602,-8.29
17614,-9.74
17626,-11.07
17638,-12.3
17650,-13.53
17661,-14.89
17672,-16.64
17684,-19.02
17696,-22.22
17708,-26.22
17720,-30.68
17732,-34.92
17744,-38.07
17756,-39.33
17768,-38.18
17780,-34.59
17792,-29.01
17804,-22.22
17816,-15.09
17828,-8.31
17840,-2.33
17851,2.65
17862,6.65
17874,9.74
17886,11.99
17898,13.47
17910,14.29
17922,14.61
17934,14.62
17946,14.53
17958,14.52
17970,14.71
17982,15.18
17994,15.91
18006,16.85
18018,17.91
18030,18.96
18041,19.81
18052,20.27
18064,20.17
18076,19.4
18088,17.98
18100,16.02
18112,13.69
18124,11.22
18136,8.77
18148,6.39
18160,4.02
18172,1.53
18184,-1.23
18196,-4.34
18208,-7.74
18220,-11.29
18231,-14.83
18242,-18.27
18254,-21.71
18266,-25.32
18278,-29.37
18290,-34.11
18302,-39.64
18314,-45.8
18326,-52.11
18338,-57.74
18350,-61.6
18362,-62.65
18374,-60.2
18386,-54.15
18398,-45.11
18410,-34.16
18421,-22.51
18432,-11.22
18444,-0.93
18456,8.1
18468,15.83
18480,22.31
18492,27.55
18504,31.55
18516,34.35
18528,36.1
18540,37.01
18552,37.42
18564,37.61
18576,37.83
18588,38.24
18600,38.88
18611,39.75
18622,40.8
18634,41.93
18646,43.02
18658,43.86
18670,44.2
18682,43.77
18694,42.4
18706,40.03
18718,36.78
18730,32.96
18742,28.89
18754,24.85
18766,21.01
18778,17.32
18790,13.63
18801,9.76
18812,5.57
18824,1.06
18836,-3.64
18848,-8.36
18860,-12.99
18872,-17.59
18884,-22.41
18896,-27.8
18908,-34.03
18920,-41.09
18932,-48.51
18944,-55.38
18956,-60.44
18968,-62.47
18980,-60.56
18991,-54.47
19002,-44.72
19014,-32.41
19026,-18.94
19038,-5.56
19050,6.88
19062,18.01
19074,27.79
19086,36.24
19098,43.3
19110,48.75
19122,52.3
19134,53.83
19146,53.42
19158,51.43
19170,48.36
19181,44.76
19192,41.07
19204,37.63
19216,34.62
19228,32.14
19240,30.24
19252,28.89
19264,27.95
19276,27.19
19288,26.26
19300,24.85
19312,22.76
19324,19.98
19336,16.66
19348,13.0
19360,9.11
19371,4.95
19382,0.39
19394,-4.62
19406,-9.99
19418,-15.37
19430,-20.28
19442,-24.32
19454,-27.27
19466,-29.24
19478,-30.58
19490,-31.82
19502,-33.51
19514,-36.09
19526,-39.74
19538,-44.29
19550,-49.17
19561,-53.48
19572,-56.18
19584,-56.42
19596,-53.83
19608,-48.66
19620,-41.66
19632,-33.79
19644,-25.92
19656,-18.54
19668,-11.8
19680,-5.63
19692,0.05
19704,5.24
19716,9.87
19728,13.82
19740,17.07
19751,19.65
19762,21.61
19774,23.03
19786,24.0
19798,24.59
19810,24.91
19822,25.01
19834,24.86
19846,24.36
19858,23.36
19870,21.85
19882,20.0
19894,18.13
19906,16.51
19918,15.26
19930,14.18
19941,12.86
19952,10.86
19964,7.93
19976,4.16
19988,-0.11
20000,-4.4
20012,-8.31
20024,-11.66
20036,-14.52
20048,-17.11
20060,-19.66
20072,-22.4
20084,-25.46
20096,-28.96
20108,-32.97
20120,-37.42
20131,-42.0
20142,-46.06
20154,-48.68
20166,-48.84
20178,-45.77
20190,-39.26
20202,-29.75
20214,-18.27
20226,-6.07
20238,5.78
20250,16.56
20262,25.99
20274,33.97
20286,40.39
20298,45.03
20310,47.62
20321,48.05
20332,46.57
20344,43.77
20356,40.42
20368,37.24
20380,34.6
20392,32.55
20404,30.85
20416,29.27
20428,27.63
20440,25.9
20452,24.13
20464,22.29
20476,20.29
20488,17.98
20500,15.25
20511,12.09
20522,8.58
20534,4.85
20546,1.0
20558,-2.88
20570,-6.77
20582,-10.62
20594,-14.36
20606,-17.99
20618,-21.57
20630,-25.33
20642,-29.57
20654,-34.57
20666,-40.47
20678,-47.12
20690,-54.02
20701,-60.33
20712,-65.04
20724,-67.15
20736,-66.0
20748,-61.43
20760,-53.83
20772,-44.05
20784,-33.13
20796,-22.03
20808,-11.5
20820,-1.92
20832,6.52
20844,13.74
20856,19.67
20868,24.18
20880,27.18
20891,28.69
20902,28.95
20914,28.46
20926,27.81
20938,27.56
20950,28.02
20962,29.18
20974,30.73
20986,32.24
20998,33.32
