seconds,BVP
0,23.41
12,22.3
24,20.47
36,18.19
48,15.77
60,13.49
72,11.57
84,10.19
96,9.38
108,9.01
120,8.86
132,8.7
143,8.42
154,8.04
166,7.64
178,7.27
190,6.86
202,6.27
214,5.27
226,3.7
238,1.56
250,-0.97
262,-3.59
274,-5.98
286,-7.97
298,-9.51
310,-10.82
322,-12.25
333,-14.16
344,-16.72
356,-19.76
368,-22.71
380,-24.68
392,-24.86
404,-22.74
416,-18.37
428,-12.36
440,-5.65
452,0.85
464,6.46
476,10.87
488,14.07
500,16.06
512,16.87
523,16.48
534,14.95
546,12.57
558,9.83
570,7.34
582,5.65
594,5.01
606,5.31
618,6.24
630,7.38
642,8.43
654,9.23
666,9.73
678,9.93
690,9.79
702,9.22
713,8.04
724,6.17
736,3.62
748,0.58
760,-2.57
772,-5.37
784,-7.5
796,-8.89
808,-9.69
820,-10.31
832,-11.12
844,-12.38
856,-14.15
868,-16.28
880,-18.52
892,-20.51
903,-21.82
914,-21.91
926,-20.31
938,-16.78
950,-11.49
962,-5.03
974,1.74
986,7.94
998,12.94
1010,16.45
1022,18.48
1034,19.15
1046,18.59
1058,16.87
1070,14.21
1082,11.0
1093,7.81
1104,5.28
1116,3.86
1128,3.7
1140,4.59
1152,6.08
1164,7.67
1176,8.91
1188,9.61
1200,9.77
1212,9.49
1224,8.94
1236,8.2
1248,7.26
1260,6.02
1272,4.45
1283,2.58
1294,0.59
1306,-1.33
1318,-3.03
1330,-4.5
1342,-5.85
1354,-7.34
1366,-9.14
1378,-11.31
1390,-13.76
1402,-16.2
1414,-18.28
1426,-19.56
1438,-19.63
1450,-18.21
1462,-15.22
1473,-10.91
1484,-5.76
1496,-0.41
1508,4.56
1520,8.71
1532,11.78
1544,13.7
1556,14.42
1568,13.99
1580,12.54
1592,10.39
1604,7.95
1616,5.78
1628,4.32
1640,3.75
1652,4.02
1663,4.78
1674,5.66
1686,6.41
1698,6.94
1710,7.3
1722,7.6
1734,7.85
1746,7.94
1758,7.71
1770,6.98
1782,5.73
1794,4.07
1806,2.14
1818,0.17
1830,-1.74
1842,-3.53
1853,-5.23
1864,-6.84
1876,-8.41
1888,-9.98
1900,-11.62
1912,-13.44
1924,-15.47
1936,-17.57
1948,-19.35
1960,-20.25
1972,-19.65
1984,-17.22
1996,-13.02
2008,-7.55
2020,-1.64
2032,3.87
2043,8.36
2054,11.51
2066,13.21
2078,13.53
2090,12.48
2102,10.16
2114,6.87
2126,3.14
2138,-0.28
2150,-2.7
2162,-3.73
2174,-3.44
2186,-2.23
2198,-0.64
2210,0.92
2222,2.31
2233,3.52
2244,4.56
2256,5.37
2268,5.75
2280,5.47
2292,4.49
2304,2.87
2316,0.83
2328,-1.42
2340,-3.79
2352,-6.17
2364,-8.5
2376,-10.58
2388,-12.2
2400,-13.18
2412,-13.57
2423,-13.61
2434,-13.68
2446,-14.0
2458,-14.49
2470,-14.66
2482,-13.77
2494,-11.21
2506,-6.78
2518,-0.92
2530,5.52
2542,11.46
2554,16.08
2566,18.97
2578,20.18
2590,20.11
2602,19.18
2613,17.79
2624,16.19
2636,14.52
2648,12.95
2660,11.63
2672,10.72
2684,10.3
2696,10.34
2708,10.68
2720,11.11
2732,11.43
2744,11.51
2756,11.31
2768,10.84
2780,10.09
2792,8.98
2803,7.52
2814,5.67
2826,3.55
2838,1.3
2850,-0.93
2862,-3.03
2874,-4.98
2886,-6.86
2898,-8.84
2910,-11.06
2922,-13.58
2934,-16.28
2946,-18.86
2958,-20.85
2970,-21.71
2982,-20.99
2993,-18.52
3004,-14.5
3016,-9.4
3028,-3.93
3040,1.27
3052,5.69
3064,9.05
3076,11.21
3088,12.14
3100,11.87
3112,10.45
3124,8.13
3136,5.27
3148,2.43
3160,0.18
3172,-1.08
3183,-1.26
3194,-0.64
3206,0.36
3218,1.29
3230,1.93
3242,2.27
3254,2.5
3266,2.76
3278,3.06
3290,3.18
3302,2.86
3314,1.88
3326,0.23
3338,-1.82
3350,-3.92
3362,-5.7
3373,-6.96
3384,-7.76
3396,-8.37
3408,-9.1
3420,-10.15
3432,-11.6
3444,-13.34
3456,-15.14
3468,-16.65
3480,-17.44
3492,-17.11
3504,-15.33
3516,-12.0
3528,-7.29
3540,-1.67
3552,4.18
3563,9.6
3574,14.06
3586,17.29
3598,19.19
3610,19.81
3622,19.21
3634,17.56
3646,15.13
3658,12.33
3670,9.64
3682,7.49
3694,6.13
3706,5.51
3718,5.42
3730,5.52
3742,5.5
3753,5.2
3764,4.63
3776,3.85
3788,2.9
3800,1.8
3812,0.39
3824,-1.45
3836,-3.81
3848,-6.65
3860,-9.69
3872,-12.56
3884,-14.85
3896,-16.27
3908,-16.81
3920,-16.72
3932,-16.44
3943,-16.41
3954,-16.95
3966,-18.11
3978,-19.75
3990,-21.52
4002,-22.96
4014,-23.55
4026,-22.85
4038,-20.54
4050,-16.59
4062,-11.35
4074,-5.39
4086,0.53
4098,5.74
4110,9.81
4122,12.63
4133,14.3
4144,15.02
4156,14.94
4168,14.15
4180,12.81
4192,11.09
4204,9.32
4216,7.88
4228,7.08
4240,7.1
4252,7.87
4264,9.11
4276,10.46
4288,11.62
4300,12.37
4312,12.63
4323,12.43
4334,11.84
4346,10.91
4358,9.63
4370,8.0
4382,6.05
4394,3.92
4406,1.79
4418,-0.19
4430,-1.9
4442,-3.39
4454,-4.7
4466,-6.03
4478,-7.48
4490,-9.14
4502,-11.0
4513,-12.99
4524,-15.03
4536,-16.98
4548,-18.66
4560,-19.73
4572,-19.84
4584,-18.59
4596,-15.8
4608,-11.57
4620,-6.32
4632,-0.69
4644,4.64
4656,9.07
4668,12.26
4680,14.02
4692,14.44
4703,13.64
4714,11.88
4726,9.52
4738,7.01
4750,4.83
4762,3.36
4774,2.8
4786,3.07
4798,3.95
4810,5.09
4822,6.17
4834,7.0
4846,7.51
4858,7.73
4870,7.71
4882,7.53
4893,7.16
4904,6.55
4916,5.64
4928,4.37
4940,2.72
4952,0.76
4964,-1.38
4976,-3.52
4988,-5.51
5000,-7.24
5012,-8.68
5024,-9.83
5036,-10.71
5048,-11.36
5060,-11.87
5072,-12.36
5083,-12.89
5094,-13.43
5106,-13.79
5118,-13.58
5130,-12.44
5142,-10.16
5154,-6.89
5166,-3.03
5178,0.78
5190,4.02
5202,6.37
5214,7.73
5226,8.1
5238,7.52
5250,5.99
5262,3.62
5273,0.75
5284,-2.19
5296,-4.61
5308,-6.09
5320,-6.43
5332,-5.76
5344,-4.43
5356,-2.82
5368,-1.24
5380,0.14
5392,1.24
5404,2.09
5416,2.73
5428,3.18
5440,3.42
5452,3.34
5463,2.88
5474,1.98
5486,0.76
5498,-0.57
5510,-1.76
5522,-2.68
5534,-3.4
5546,-4.03
5558,-4.79
5570,-5.78
5582,-6.99
5594,-8.29
5606,-9.44
5618,-10.11
5630,-10.01
5642,-8.92
5653,-6.74
5664,-3.67
5676,-0.11
5688,3.42
5700,6.47
5712,8.79
5724,10.36
5736,11.31
5748,11.7
5760,11.5
5772,10.6
5784,9.01
5796,6.94
5808,4.79
5820,3.07
5832,2.11
5843,1.98
5854,2.53
5866,3.45
5878,4.42
5890,5.23
5902,5.78
5914,5.89
5926,5.37
5938,4.03
5950,1.75
5962,-1.26
5974,-4.59
5986,-7.7
5998,-10.2
6010,-11.93
6022,-13.06
6033,-13.9
6044,-14.69
6056,-15.55
6068,-16.41
6080,-17.21
6092,-17.9
6104,-18.52
6116,-19.03
6128,-19.2
6140,-18.65
6152,-16.93
6164,-13.85
6176,-9.52
6188,-4.46
6200,0.63
6212,5.05
6223,8.29
6234,10.16
6246,10.73
6258,10.29
6270,9.16
6282,7.65
6294,6.01
6306,4.47
6318,3.21
6330,2.34
6342,1.9
6354,1.83
6366,2.06
6378,2.5
6390,3.04
6402,3.58
6413,4.01
6424,4.27
6436,4.28
6448,4.05
6460,3.58
6472,2.93
6484,2.16
6496,1.35
6508,0.53
6520,-0.2
6532,-0.83
6544,-1.43
6556,-2.06
6568,-2.85
6580,-3.87
6592,-5.09
6603,-6.4
6614,-7.73
6626,-8.94
6638,-9.85
6650,-10.17
6662,-9.51
6674,-7.65
6686,-4.56
6698,-0.61
6710,3.58
6722,7.38
6734,10.3
6746,12.2
6758,13.11
6770,13.11
6782,12.23
6793,10.48
6804,7.96
6816,5.02
6828,2.16
6840,-0.1
6852,-1.4
6864,-1.76
6876,-1.46
6888,-0.86
6900,-0.28
6912,0.21
6924,0.66
6936,1.21
6948,1.83
6960,2.38
6972,2.62
6983,2.35
6994,1.51
7006,0.15
7018,-1.63
7030,-3.75
7042,-6.14
7054,-8.74
7066,-11.37
7078,-13.77
7090,-15.76
7102,-17.3
7114,-18.51
7126,-19.53
7138,-20.36
7150,-20.71
7162,-20.12
7173,-18.08
7184,-14.44
7196,-9.52
7208,-4.01
7220,1.2
7232,5.42
7244,8.3
7256,9.85
7268,10.41
7280,10.31
7292,9.77
7304,8.81
7316,7.39
7328,5.53
7340,3.44
7352,1.5
7363,0.11
7374,-0.5
7386,-0.37
7398,0.22
7410,0.91
7422,1.51
7434,1.95
7446,2.38
7458,2.9
7470,3.54
7482,4.13
7494,4.4
7506,4.13
7518,3.24
7530,1.83
7542,0.14
7553,-1.58
7564,-3.2
7576,-4.73
7588,-6.34
7600,-8.24
7612,-10.54
7624,-13.15
7636,-15.69
7648,-17.49
7660,-17.83
7672,-16.26
7684,-12.77
7696,-7.86
7708,-2.41
7720,2.61
7732,6.45
7743,8.76
7754,9.62
7766,9.39
7778,8.44
7790,7.08
7802,5.49
7814,3.78
7826,2.11
7838,0.68
7850,-0.26
7862,-0.56
7874,-0.19
7886,0.71
7898,1.92
7910,3.14
7922,4.13
7933,4.78
7944,5.07
7956,4.98
7968,4.55
7980,3.84
7992,2.87
8004,1.69
8016,0.3
8028,-1.29
8040,-3.03
8052,-4.84
8064,-6.63
8076,-8.38
8088,-10.14
8100,-11.97
8112,-13.84
8123,-15.44
8134,-16.28
8146,-15.79
8158,-13.62
8170,-9.85
8182,-4.99
8194,0.16
8206,4.86
8218,8.64
8230,11.36
8242,13.1
8254,13.95
8266,13.9
8278,12.92
8290,11.05
8302,8.46
8313,5.54
8324,2.76
8336,0.54
8348,-0.88
8360,-1.49
8372,-1.47
8384,-1.16
8396,-0.94
8408,-1.13
8420,-1.91
8432,-3.24
8444,-4.88
8456,-6.48
8468,-7.73
8480,-8.49
8492,-8.85
8503,-9.07
8514,-9.44
8526,-10.21
8538,-11.43
8550,-13.06
8562,-14.89
8574,-16.68
8586,-18.09
8598,-18.71
8610,-18.08
8622,-15.83
8634,-11.84
8646,-6.45
8658,-0.35
8670,5.58
8682,10.53
8693,14.06
8704,16.12
8716,16.94
8728,16.82
8740,15.96
8752,14.51
8764,12.61
8776,10.59
8788,8.89
8800,7.96
8812,8.02
8824,8.89
8836,10.06
8848,10.88
8860,10.9
8872,9.94
8883,8.18
8894,5.95
8906,3.57
8918,1.27
8930,-0.89
8942,-2.92
8954,-4.9
8966,-6.87
8978,-8.91
8990,-11.08
9002,-13.41
9014,-15.78
9026,-17.87
9038,-19.16
9050,-19.0
9062,-16.96
9073,-12.87
9084,-7.13
9096,-0.45
9108,6.25
9120,12.12
9132,16.66
9144,19.67
9156,21.24
9168,21.5
9180,20.59
9192,18.61
9204,15.83
9216,12.73
9228,9.92
9240,7.96
9252,7.14
9263,7.34
9274,8.05
9286,8.67
9298,8.69
9310,7.96
9322,6.67
9334,5.19
9346,3.92
9358,3.0
9370,2.39
9382,1.78
9394,0.93
9406,-0.34
9418,-2.0
9430,-3.96
9442,-6.2
9453,-8.72
9464,-11.6
9476,-14.73
9488,-17.67
9500,-19.7
9512,-20.0
9524,-17.98
9536,-13.58
9548,-7.35
9560,-0.2
9572,6.82
9584,12.87
9596,17.5
9608,20.61
9620,22.28
9632,22.63
9643,21.76
9654,19.77
9666,16.84
9678,13.24
9690,9.38
9702,5.82
9714,3.12
9726,1.68
9738,1.61
9750,2.67
9762,4.31
9774,5.87
9786,6.81
9798,6.88
9810,6.13
9822,4.82
9833,3.18
9844,1.41
9856,-0.42
9868,-2.24
9880,-3.97
9892,-5.51
9904,-6.88
9916,-8.28
9928,-9.93
9940,-11.89
9952,-13.88
9964,-15.2
9976,-15.06
9988,-12.85
10000,-8.55
10012,-2.67
10023,3.86
10034,10.15
10046,15.57
10058,19.84
10070,22.9
10082,24.69
10094,25.16
10106,24.22
10118,21.98
10130,18.81
10142,15.31
10154,12.12
10166,9.77
10178,8.55
10190,8.4
10202,9.09
10213,10.17
10224,11.18
10236,11.71
10248,11.44
10260,10.32
10272,8.55
10284,6.51
10296,4.53
10308,2.84
10320,1.41
10332,0.04
10344,-1.46
10356,-3.18
10368,-5.07
10380,-7.02
10392,-9.05
10403,-11.28
10414,-13.81
10426,-16.49
10438,-18.91
10450,-20.35
10462,-20.15
10474,-17.91
10486,-13.69
10498,-8.04
10510,-1.8
10522,4.24
10534,9.46
10546,13.51
10558,16.24
10570,17.63
10582,17.75
10593,16.7
10604,14.7
10616,12.11
10628,9.39
10640,6.99
10652,5.28
10664,4.42
10676,4.4
10688,5.02
10700,6.0
10712,7.06
10724,8.0
10736,8.71
10748,9.09
10760,9.09
10772,8.72
10783,8.03
10794,7.09
10806,6.02
10818,4.9
10830,3.76
10842,2.55
10854,1.22
10866,-0.27
10878,-1.97
10890,-3.9
10902,-6.01
10914,-8.09
10926,-9.72
10938,-10.39
10950,-9.6
10962,-7.15
10973,-3.25
10984,1.51
10996,6.34
11008,10.56
11020,13.76
11032,15.87
11044,16.97
11056,17.15
11068,16.44
11080,14.86
11092,12.6
11104,9.98
11116,7.48
11128,5.46
11140,4.15
11152,3.48
11163,3.27
11174,3.3
11186,3.41
11198,3.51
11210,3.56
11222,3.51
11234,3.27
11246,2.79
11258,2.09
11270,1.24
11282,0.35
11294,-0.6
11306,-1.64
11318,-2.86
11330,-4.34
11342,-6.09
11353,-8.07
11364,-10.09
11376,-11.89
11388,-13.05
11400,-13.18
11412,-12.01
11424,-9.53
11436,-6.0
11448,-1.93
11460,2.13
11472,5.77
11484,8.72
11496,10.9
11508,12.23
11520,12.6
11532,11.91
11543,10.18
11554,7.68
11566,4.81
11578,2.11
11590,0.02
11602,-1.17
11614,-1.39
11626,-0.77
11638,0.39
11650,1.69
11662,2.73
11674,3.21
11686,2.99
11698,2.17
11710,0.99
11722,-0.3
11733,-1.53
11744,-2.63
11756,-3.65
11768,-4.62
11780,-5.57
11792,-6.57
11804,-7.77
11816,-9.34
11828,-11.38
11840,-13.74
11852,-15.95
11864,-17.32
11876,-17.19
11888,-15.25
11900,-11.68
11912,-7.16
11923,-2.56
11934,1.39
11946,4.26
11958,6.05
11970,6.95
11982,7.21
11994,6.94
12006,6.13
12018,4.81
12030,3.06
12042,1.19
12054,-0.43
12066,-1.38
12078,-1.46
12090,-0.66
12102,0.76
12113,2.39
12124,3.81
12136,4.69
12148,4.94
12160,4.66
12172,4.09
12184,3.44
12196,2.84
12208,2.23
12220,1.5
12232,0.54
12244,-0.67
12256,-2.0
12268,-3.36
12280,-4.73
12292,-6.19
12303,-7.84
12314,-9.63
12326,-11.29
12338,-12.28
12350,-12.13
12362,-10.59
12374,-7.79
12386,-4.22
12398,-0.51
12410,2.82
12422,5.49
12434,7.43
12446,8.68
12458,9.27
12470,9.13
12482,8.2
12493,6.5
12504,4.28
12516,1.91
12528,-0.15
12540,-1.58
12552,-2.22
12564,-2.15
12576,-1.57
12588,-0.72
12600,0.15
12612,0.84
12624,1.17
12636,1.04
12648,0.36
12660,-0.81
12672,-2.32
12683,-3.92
12694,-5.33
12706,-6.4
12718,-7.04
12730,-7.39
12742,-7.63
12754,-8.0
12766,-8.72
12778,-9.95
12790,-11.65
12802,-13.53
12814,-15.1
12826,-15.71
12838,-14.8
12850,-12.18
12862,-8.15
12873,-3.45
12884,1.02
12896,4.48
12908,6.6
12920,7.43
12932,7.27
12944,6.38
12956,4.89
12968,2.83
12980,0.33
12992,-2.29
13004,-4.56
13016,-6.01
13028,-6.49
13040,-6.2
13052,-5.58
13063,-5.02
13074,-4.74
13086,-4.64
13098,-4.49
13110,-4.17
13122,-3.7
13134,-3.3
13146,-3.22
13158,-3.61
13170,-4.47
13182,-5.65
13194,-6.93
13206,-8.14
13218,-9.21
13230,-10.18
13242,-11.25
13253,-12.57
13264,-14.14
13276,-15.7
13288,-16.75
13300,-16.67
13312,-15.04
13324,-11.83
13336,-7.47
13348,-2.69
13360,1.78
13372,5.42
13384,8.0
13396,9.5
13408,10.02
13420,9.59
13432,8.26
13443,6.13
13454,3.43
13466,0.59
13478,-1.88
13490,-3.55
13502,-4.22
13514,-3.99
13526,-3.22
13538,-2.37
13550,-1.78
13562,-1.58
13574,-1.64
13586,-1.73
13598,-1.72
13610,-1.67
13622,-1.79
13633,-2.3
13644,-3.36
13656,-4.93
13668,-6.89
13680,-9.08
13692,-11.38
13704,-13.64
13716,-15.54
13728,-16.56
13740,-16.14
13752,-13.89
13764,-9.9
13776,-4.72
13788,0.72
13800,5.47
13812,8.94
13823,10.98
13834,11.83
13846,11.85
13858,11.26
13870,10.12
13882,8.35
13894,6.04
13906,3.42
13918,0.98
13930,-0.77
13942,-1.54
13954,-1.36
13966,-0.55
13978,0.4
13990,1.02
14002,1.06
14013,0.52
14024,-0.43
14036,-1.52
14048,-2.59
14060,-3.6
14072,-4.54
14084,-5.5
14096,-6.54
14108,-7.76
14120,-9.28
14132,-11.26
14144,-13.71
14156,-16.43
14168,-18.9
14180,-20.41
14192,-20.36
14203,-18.51
14214,-15.11
14226,-10.78
14238,-6.29
14250,-2.14
14262,1.43
14274,4.42
14286,6.84
14298,8.55
14310,9.29
14322,8.81
14334,7.11
14346,4.53
14358,1.73
14370,-0.59
14382,-1.94
14393,-2.19
14404,-1.64
14416,-0.79
14428,-0.14
14440,-0.03
14452,-0.48
14464,-1.28
14476,-2.14
14488,-2.82
14500,-3.19
14512,-3.32
14524,-3.35
14536,-3.46
14548,-3.8
14560,-4.49
14572,-5.6
14583,-7.22
14594,-9.35
14606,-11.83
14618,-14.35
14630,-16.36
14642,-17.2
14654,-16.3
14666,-13.46
14678,-8.92
14690,-3.35
14702,2.43
14714,7.73
14726,12.07
14738,15.31
14750,17.42
14762,18.4
14773,18.17
14784,16.74
14796,14.3
14808,11.34
14820,8.54
14832,6.49
14844,5.54
14856,5.69
14868,6.57
14880,7.7
14892,8.7
14904,9.35
14916,9.64
14928,9.58
14940,9.12
14952,8.15
14963,6.56
14974,4.4
14986,1.88
14998,-0.69
15010,-3.03
15022,-5.0
15034,-6.63
15046,-8.09
15058,-9.58
15070,-11.28
15082,-13.32
15094,-15.64
15106,-17.92
15118,-19.65
15130,-20.14
15142,-18.8
15153,-15.39
15164,-10.18
15176,-3.85
15188,2.73
15200,8.81
15212,13.96
15224,17.98
15236,20.82
15248,22.37
15260,22.47
15272,21.13
15284,18.62
15296,15.57
15308,12.74
15320,10.78
15332,9.97
15343,10.25
15354,11.26
15366,12.6
15378,13.96
15390,15.11
15402,15.95
15414,16.31
15426,16.06
15438,15.11
15450,13.45
15462,11.27
15474,8.78
15486,6.25
15498,3.84
15510,1.64
15522,-0.32
15533,-2.05
15544,-3.6
15556,-5.05
15568,-6.53
15580,-8.21
15592,-10.15
15604,-12.34
15616,-14.49
15628,-16.15
15640,-16.74
15652,-15.8
15664,-13.09
15676,-8.72
15688,-3.19
15700,2.8
15712,8.51
15723,13.38
15734,17.1
15746,19.56
15758,20.81
15770,20.88
15782,19.9
15794,18.06
15806,15.7
15818,13.28
15830,11.32
15842,10.18
15854,10.06
15866,10.83
15878,12.16
15890,13.59
15902,14.69
15913,15.19
15924,14.97
15936,14.16
15948,12.97
15960,11.69
15972,10.45
15984,9.21
15996,7.82
16008,6.06
16020,3.83
16032,1.23
16044,-1.43
16056,-3.83
16068,-5.64
16080,-6.77
16092,-7.35
16103,-7.65
16114,-8.08
16126,-9.0
16138,-10.63
16150,-12.88
16162,-15.36
16174,-17.45
16186,-18.44
16198,-17.83
16210,-15.37
16222,-11.27
16234,-6.06
16246,-0.41
16258,5.02
16270,9.79
16282,13.64
16293,16.47
16304,18.2
16316,18.81
16328,18.26
16340,16.69
16352,14.43
16364,11.97
16376,9.85
16388,8.5
16400,7.98
16412,8.15
16424,8.66
16436,9.18
16448,9.52
16460,9.72
16472,9.9
16483,10.18
16494,10.54
16506,10.83
16518,10.77
16530,10.16
16542,8.92
16554,7.14
16566,5.06
16578,2.88
16590,0.79
16602,-1.18
16614,-3.06
16626,-4.87
16638,-6.62
16650,-8.24
16662,-9.68
16673,-10.99
16684,-12.32
16696,-13.79
16708,-15.46
16720,-17.09
16732,-18.21
16744,-18.25
16756,-16.69
16768,-13.33
16780,-8.42
16792,-2.61
16804,3.27
16816,8.4
16828,12.19
16840,14.41
16852,15.12
16863,14.51
16874,12.85
16886,10.37
16898,7.42
16910,4.46
16922,2.0
16934,0.56
16946,0.38
16958,1.35
16970,3.03
16982,4.85
16994,6.33
17006,7.24
17018,7.63
17030,7.66
17042,7.52
17053,7.35
17064,7.12
17076,6.8
17088,6.24
17100,5.31
17112,3.95
17124,2.14
17136,0.02
17148,-2.17
17160,-4.09
17172,-5.55
17184,-6.47
17196,-6.99
17208,-7.41
17220,-8.03
17232,-9.08
17243,-10.64
17254,-12.62
17266,-14.73
17278,-16.52
17290,-17.39
17302,-16.88
17314,-14.75
17326,-11.11
17338,-6.41
17350,-1.32
17362,3.48
17374,7.51
17386,10.44
17398,12.14
17410,12.56
17422,11.79
17433,10.05
17444,7.74
17456,5.47
17468,3.77
17480,3.02
17492,3.3
17504,4.36
17516,5.81
17528,7.18
17540,8.22
17552,8.8
17564,8.99
17576,8.88
17588,8.52
17600,7.93
17612,7.13
17623,6.08
17634,4.76
17646,3.13
17658,1.14
17670,-1.16
17682,-3.61
17694,-5.93
17706,-7.86
17718,-9.27
17730,-10.26
17742,-11.11
17754,-12.17
17766,-13.67
17778,-15.44
17790,-17.06
17802,-17.91
17813,-17.42
17824,-15.42
17836,-12.05
17848,-7.83
17860,-3.41
17872,0.6
17884,3.76
17896,5.87
17908,6.89
17920,7.0
17932,6.41
17944,5.33
17956,3.95
17968,2.4
17980,0.83
17992,-0.61
18003,-1.71
18014,-2.28
18026,-2.18
18038,-1.4
18050,-0.1
18062,1.39
18074,2.74
18086,3.63
18098,3.91
18110,3.56
18122,2.65
18134,1.37
18146,-0.09
18158,-1.56
18170,-2.91
18182,-4.07
18193,-4.97
18204,-5.64
18216,-6.12
18228,-6.49
18240,-6.84
18252,-7.38
18264,-8.26
18276,-9.58
18288,-11.35
18300,-13.46
18312,-15.63
18324,-17.44
18336,-18.39
18348,-18.01
18360,-16.01
18372,-12.43
18383,-7.65
18394,-2.35
18406,2.71
18418,6.92
18430,9.98
18442,11.75
18454,12.33
18466,11.74
18478,10.01
18490,7.2
18502,3.54
18514,-0.47
18526,-4.16
18538,-6.88
18550,-8.28
18562,-8.33
18573,-7.37
18584,-5.9
18596,-4.39
18608,-3.18
18620,-2.34
18632,-1.83
18644,-1.54
18656,-1.49
18668,-1.68
18680,-2.22
18692,-3.18
18704,-4.54
18716,-6.18
18728,-7.85
18740,-9.3
18752,-10.35
18763,-10.97
18774,-11.24
18786,-11.37
18798,-11.59
18810,-12.1
18822,-13.0
18834,-14.25
18846,-15.62
18858,-16.71
18870,-16.99
18882,-16.02
18894,-13.48
18906,-9.45
18918,-4.37
18930,1.05
18942,6.08
18953,10.13
18964,12.86
18976,14.21
18988,14.23
19000,13.07
19012,10.9
19024,8.05
19036,4.94
19048,2.14
19060,0.12
19072,-0.79
19084,-0.58
19096,0.5
19108,2.06
19120,3.6
19132,4.76
19143,5.35
19154,5.28
19166,4.62
19178,3.49
19190,2.03
19202,0.34
19214,-1.45
19226,-3.26
19238,-4.99
19250,-6.54
19262,-7.86
19274,-8.9
19286,-9.63
19298,-10.04
19310,-10.25
19322,-10.41
19333,-10.73
19344,-11.45
19356,-12.68
19368,-14.42
19380,-16.36
19392,-18.02
19404,-18.83
19416,-18.28
19428,-16.16
19440,-12.59
19452,-8.02
19464,-3.07
19476,1.65
19488,5.77
19500,9.08
19512,11.49
19523,12.92
19534,13.27
19546,12.46
19558,10.63
19570,8.13
19582,5.56
19594,3.6
19606,2.74
19618,3.1
19630,4.39
19642,6.01
19654,7.33
19666,7.99
19678,7.91
19690,7.3
19702,6.46
19713,5.59
19724,4.74
19736,3.78
19748,2.56
19760,1.05
19772,-0.63
19784,-2.26
19796,-3.59
19808,-4.48
19820,-5.0
19832,-5.34
19844,-5.73
19856,-6.4
19868,-7.46
19880,-8.94
19892,-10.78
19903,-12.9
19914,-15.1
19926,-17.24
19938,-19.0
19950,-19.95
19962,-19.74
19974,-18.07
19986,-14.94
19998,-10.58
20010,-5.45
20022,-0.01
20034,5.23
20046,9.88
20058,13.63
20070,16.16
20082,17.25
20093,16.81
20104,15.01
20116,12.28
20128,9.23
20140,6.45
20152,4.4
20164,3.27
20176,3.06
20188,3.63
20200,4.76
20212,6.12
20224,7.41
20236,8.3
20248,8.57
20260,8.16
20272,7.22
20283,5.99
20294,4.75
20306,3.68
20318,2.78
20330,1.95
20342,1.05
20354,-0.03
20366,-1.3
20378,-2.71
20390,-4.21
20402,-5.79
20414,-7.41
20426,-9.07
20438,-10.75
20450,-12.41
20462,-14.1
20473,-15.86
20484,-17.69
20496,-19.41
20508,-20.67
20520,-20.97
20532,-19.81
20544,-16.97
20556,-12.57
20568,-7.12
20580,-1.3
20592,4.22
20604,8.91
20616,12.47
20628,14.7
20640,15.57
20652,15.12
20663,13.52
20674,11.15
20686,8.56
20698,6.35
20710,4.98
20722,4.62
20734,5.08
20746,6.0
20758,6.89
20770,7.39
20782,7.37
20794,6.93
20806,6.35
20818,5.87
20830,5.59
20842,5.43
20853,5.21
20864,4.76
20876,3.98
20888,2.87
20900,1.42
20912,-0.28
20924,-2.16
20936,-4.04
20948,-5.74
20960,-7.07
20972,-7.9
20984,-8.24
20996,-8.29
