seconds,BVP
8,13.33
20,12.61
32,11.86
44,11.09
56,10.33
68,9.59
80,8.94
92,8.43
104,8.06
116,7.74
128,7.34
140,6.71
151,5.81
162,4.66
174,3.34
186,1.94
198,0.46
210,-1.18
222,-3.03
234,-5.06
246,-7.12
258,-8.99
270,-10.46
282,-11.4
294,-11.84
306,-11.84
318,-11.51
330,-10.91
341,-10.12
352,-9.23
364,-8.37
376,-7.7
388,-7.4
400,-7.57
412,-8.29
424,-9.52
436,-11.16
448,-13.07
460,-15.01
472,-16.66
484,-17.59
496,-17.34
508,-15.49
520,-11.8
531,-6.34
542,0.5
554,8.07
566,15.64
578,22.59
590,28.53
602,33.39
614,37.33
626,40.59
638,43.37
650,45.8
662,47.89
674,49.63
686,50.99
698,51.94
710,52.51
721,52.72
732,52.61
744,52.22
756,51.57
768,50.65
780,49.45
792,47.92
804,46.09
816,44.01
828,41.78
840,39.46
852,37.07
864,34.59
876,31.94
888,29.04
900,25.78
911,22.0
922,17.45
934,11.88
946,5.11
958,-2.82
970,-11.58
982,-20.65
994,-29.49
1006,-37.69
1018,-45.1
1030,-51.75
1042,-57.75
1054,-63.15
1066,-67.9
1078,-71.93
1090,-75.16
1101,-77.62
1112,-79.4
1124,-80.61
1136,-81.3
1148,-81.5
1160,-81.3
1172,-81.0
1184,-81.0
1196,-81.81
1208,-83.73
1220,-86.68
1232,-90.08
1244,-92.97
1256,-94.23
1268,-92.99
1280,-88.8
1291,-81.74
1302,-72.32
1314,-61.32
1326,-49.68
1338,-38.45
1350,-28.58
1362,-20.77
1374,-15.18
1386,-11.33
1398,-8.23
1410,-4.81
1422,-0.43
1434,4.88
1446,10.52
1458,15.74
1470,20.02
1481,23.32
1492,25.88
1504,27.91
1516,29.4
1528,30.19
1540,30.25
1552,29.8
1564,29.27
1576,28.97
1588,28.9
1600,28.79
1612,28.35
1624,27.6
1636,26.86
1648,26.51
1660,26.71
1671,27.26
1682,27.76
1694,27.9
1706,27.73
1718,27.52
1730,27.56
1742,27.87
1754,28.14
1766,27.94
1778,26.94
1790,25.13
1802,22.77
1814,20.27
1826,17.97
1838,15.99
1850,14.26
1861,12.57
1872,10.71
1884,8.63
1896,6.5
1908,4.65
1920,3.42
1932,2.95
1944,3.1
1956,3.42
1968,3.41
1980,2.64
1992,0.91
2004,-1.85
2016,-5.63
2028,-10.33
2040,-15.67
2051,-21.11
2062,-25.8
2074,-28.83
2086,-29.55
2098,-27.78
2110,-23.82
2122,-18.29
2134,-11.89
2146,-5.18
2158,1.39
2170,7.43
2182,12.61
2194,16.69
2206,19.62
2218,21.5
2230,22.63
2241,23.28
2252,23.63
2264,23.76
2276,23.7
2288,23.54
2300,23.47
2312,23.69
2324,24.3
2336,25.27
2348,26.43
2360,27.53
2372,28.39
2384,28.92
2396,29.13
2408,29.12
2420,29.0
2431,28.89
2442,28.83
2454,28.81
2466,28.69
2478,28.22
2490,27.18
2502,25.44
2514,23.08
2526,20.38
2538,17.71
2550,15.42
2562,13.69
2574,12.5
2586,11.71
2598,11.16
2610,10.75
2621,10.48
2632,10.39
2644,10.45
2656,10.54
2668,10.46
2680,9.97
2692,8.84
2704,6.95
2716,4.28
2728,0.89
2740,-3.06
2752,-7.32
2764,-11.59
2776,-15.54
2788,-18.93
2800,-21.64
2811,-23.74
2822,-25.37
2834,-26.57
2846,-27.1
2858,-26.47
2870,-24.06
2882,-19.56
2894,-13.19
2906,-5.74
2918,1.68
2930,8.13
2942,13.15
2954,16.83
2966,19.56
2978,21.71
2990,23.34
3001,24.36
3012,24.64
3024,24.32
3036,23.74
3048,23.23
3060,22.92
3072,22.67
3084,22.18
3096,21.3
3108,20.11
3120,18.97
3132,18.26
3144,18.2
3156,18.71
3168,19.54
3180,20.43
3191,21.24
3202,21.93
3214,22.47
3226,22.7
3238,22.36
3250,21.18
3262,19.03
3274,16.03
3286,12.53
3298,9.02
3310,5.99
3322,3.78
3334,2.55
3346,2.21
3358,2.41
3370,2.68
3381,2.57
3392,1.76
3404,0.15
3416,-2.2
3428,-5.13
3440,-8.48
3452,-12.12
3464,-15.89
3476,-19.55
3488,-22.83
3500,-25.52
3512,-27.59
3524,-29.24
3536,-30.77
3548,-32.48
3560,-34.57
3571,-37.09
3582,-39.97
3594,-43.05
3606,-46.03
3618,-48.5
3630,-50.03
3642,-50.28
3654,-49.13
3666,-46.78
3678,-43.53
3690,-39.61
3702,-35.06
3714,-29.73
3726,-23.48
3738,-16.41
3750,-8.86
3761,-1.34
3772,5.72
3784,12.1
3796,17.75
3808,22.65
3820,26.71
3832,29.7
3844,31.41
3856,31.79
3868,31.04
3880,29.63
3892,28.08
3904,26.87
3916,26.28
3928,26.36
3940,26.97
3951,27.83
3962,28.61
3974,28.95
3986,28.54
3998,27.21
4010,24.89
4022,21.7
4034,17.84
4046,13.59
4058,9.2
4070,4.92
4082,0.97
4094,-2.45
4106,-5.14
4118,-6.98
4130,-7.96
4141,-8.23
4152,-8.15
4164,-8.18
4176,-8.76
4188,-10.18
4200,-12.49
4212,-15.46
4224,-18.64
4236,-21.53
4248,-23.75
4260,-25.18
4272,-26.0
4284,-26.55
4296,-27.17
4308,-27.93
4320,-28.56
4331,-28.52
4342,-27.22
4354,-24.29
4366,-19.73
4378,-14.0
4390,-7.82
4402,-1.98
4414,2.94
4426,6.65
4438,9.16
4450,10.65
4462,11.34
4474,11.4
4486,11.01
4498,10.38
4510,9.79
4521,9.56
4532,9.86
4544,10.64
4556,11.58
4568,12.28
4580,12.49
4592,12.23
4604,11.88
4616,11.89
4628,12.53
4640,13.79
4652,15.36
4664,16.91
4676,18.21
4688,19.22
4700,19.95
4711,20.2
4722,19.53
4734,17.42
4746,13.54
4758,8.12
4770,1.98
4782,-3.69
4794,-7.78
4806,-9.79
4818,-9.93
4830,-9.04
4842,-8.18
4854,-8.19
4866,-9.44
4878,-11.78
4890,-14.79
4901,-17.9
4912,-20.64
4924,-22.65
4936,-23.7
4948,-23.65
4960,-22.44
4972,-20.11
4984,-16.76
4996,-12.52
5008,-7.59
5020,-2.23
5032,3.22
5044,8.34
5056,12.67
5068,15.8
5080,17.49
5091,17.73
5102,16.72
5114,14.9
5126,12.79
5138,10.92
5150,9.64
5162,9.02
5174,8.85
5186,8.72
5198,8.21
5210,7.09
5222,5.52
5234,3.88
5246,2.63
5258,2.02
5270,1.98
5281,2.23
5292,2.49
5304,2.66
5316,2.84
5328,3.17
5340,3.57
5352,3.73
5364,3.18
5376,1.72
5388,-0.37
5400,-2.45
5412,-3.84
5424,-4.34
5436,-4.41
5448,-4.92
5460,-6.61
5471,-9.55
5482,-13.07
5494,-16.04
5506,-17.6
5518,-17.59
5530,-16.69
5542,-16.0
5554,-16.49
5566,-18.55
5578,-21.95
5590,-26.01
5602,-29.95
5614,-33.07
5626,-34.82
5638,-34.81
5650,-32.8
5661,-28.77
5672,-23.04
5684,-16.26
5696,-9.31
5708,-3.04
5720,1.92
5732,5.31
5744,7.27
5756,8.18
5768,8.54
5780,8.78
5792,9.18
5804,9.84
5816,10.74
5828,11.76
5840,12.76
5851,13.65
5862,14.35
5874,14.81
5886,15.01
5898,14.99
5910,14.85
5922,14.79
5934,15.05
5946,15.86
5958,17.27
5970,19.1
5982,20.92
5994,22.16
6006,22.38
6018,21.41
6030,19.51
6041,17.15
6052,14.83
6064,12.8
6076,11.03
6088,9.29
6100,7.43
6112,5.57
6124,4.0
6136,3.02
6148,2.68
6160,2.65
6172,2.38
6184,1.4
6196,-0.43
6208,-2.83
6220,-5.26
6231,-7.22
6242,-8.48
6254,-9.17
6266,-9.69
6278,-10.47
6290,-11.85
6302,-13.98
6314,-16.82
6326,-20.21
6338,-23.89
6350,-27.54
6362,-30.78
6374,-33.27
6386,-34.68
6398,-34.8
6410,-33.53
6421,-30.86
6432,-26.89
6444,-21.86
6456,-16.14
6468,-10.21
6480,-4.58
6492,0.32
6504,4.23
6516,7.13
6528,9.16
6540,10.53
6552,11.39
6564,11.81
6576,11.84
6588,11.64
6600,11.46
6611,11.6
6622,12.29
6634,13.6
6646,15.38
6658,17.33
6670,19.16
6682,20.66
6694,21.73
6706,22.39
6718,22.71
6730,22.84
6742,22.93
6754,23.08
6766,23.21
6778,23.03
6790,22.09
6801,20.0
6812,16.64
6824,12.3
6836,7.58
6848,3.14
6860,-0.57
6872,-3.46
6884,-5.69
6896,-7.49
6908,-8.94
6920,-9.93
6932,-10.3
6944,-10.08
6956,-9.56
6968,-9.19
6980,-9.45
6991,-10.65
7002,-12.9
7014,-16.19
7026,-20.42
7038,-25.32
7050,-30.35
7062,-34.73
7074,-37.51
7086,-38.0
7098,-36.03
7110,-32.04
7122,-26.83
7134,-21.2
7146,-15.61
7158,-10.18
7170,-4.93
7181,-0.04
7192,4.09
7204,7.07
7216,8.85
7228,9.83
7240,10.74
7252,12.27
7264,14.71
7276,17.82
7288,21.06
7300,23.87
7312,25.96
7324,27.36
7336,28.29
7348,28.97
7360,29.57
7371,30.19
7382,30.89
7394,31.61
7406,32.06
7418,31.77
7430,30.15
7442,26.76
7454,21.64
7466,15.28
7478,8.49
7490,2.01
7502,-3.85
7514,-9.26
7526,-14.78
7538,-21.05
7550,-28.49
7561,-37.2
7572,-46.92
7584,-56.98
7596,-66.51
7608,-74.57
7620,-80.48
7632,-84.11
7644,-85.95
7656,-86.98
7668,-88.28
7680,-90.68
7692,-94.46
7704,-99.4
7716,-104.87
7728,-110.02
7740,-113.89
7751,-115.51
7762,-113.96
7774,-108.5
7786,-98.84
7798,-85.15
7810,-67.97
7822,-48.09
7834,-26.33
7846,-3.64
7858,18.74
7870,39.23
7882,56.03
7894,67.6
7906,73.14
7918,72.91
7930,68.11
7941,60.45
7952,51.71
7964,43.32
7976,36.26
7988,31.15
8000,28.29
8012,27.78
8024,29.27
8036,31.88
8048,34.42
8060,35.89
8072,36.02
8084,35.49
8096,35.64
8108,37.84
8120,42.91
8131,50.65
8142,59.91
8154,69.0
8166,76.16
8178,79.76
8190,78.19
8202,70.08
8214,54.7
8226,33.07
8238,7.84
8250,-17.26
8262,-38.38
8274,-52.53
8286,-58.37
8298,-56.57
8310,-49.25
8321,-39.23
8332,-28.41
8344,-18.23
8356,-10.01
8368,-4.89
8380,-3.16
8392,-4.07
8404,-6.09
8416,-7.52
8428,-7.04
8440,-2.9
8452,5.47
8464,16.79
8476,28.58
8488,38.67
8500,46.07
8511,50.92
8522,54.01
8534,56.06
8546,59.09
8558,64.44
8570,72.07
8582,81.1
8594,91.39
8606,103.71
8618,118.85
8630,136.71
8642,146.34
8654,140.66
8666,122.18
8678,100.58
8690,83.31
8701,71.57
8712,62.08
8724,50.39
8736,33.82
8748,12.73
8760,-8.19
8772,-23.92
8784,-32.35
8796,-35.64
8808,-37.14
8820,-38.85
8832,-40.91
8844,-42.08
8856,-41.39
8868,-37.62
8880,-31.15
8891,-24.05
8902,-18.72
8914,-16.48
8926,-16.68
8938,-18.15
8950,-18.78
8962,-18.98
8974,-19.81
8986,-22.78
8998,-29.22
9010,-39.56
9022,-53.56
9034,-69.75
9046,-86.65
9058,-103.43
9070,-120.07
9081,-135.78
9092,-149.04
9104,-158.1
9116,-161.73
9128,-160.14
9140,-153.65
9152,-142.52
9164,-126.97
9176,-107.61
9188,-85.35
9200,-62.16
9212,-41.26
9224,-21.76
9236,-6.38
9248,3.14
9260,8.74
9271,14.82
9282,24.46
9294,37.43
9306,50.82
9318,61.37
9330,67.4
9342,68.78
9354,67.42
9366,65.47
9378,63.87
9390,62.1
9402,59.24
9414,54.93
9426,49.73
9438,44.79
9450,40.67
9461,37.92
9472,36.69
9484,36.46
9496,36.26
9508,35.28
9520,33.27
9532,30.58
9544,27.87
9556,25.38
9568,23.42
9580,21.98
9592,20.7
9604,19.13
9616,16.7
9628,13.41
9640,9.68
9651,6.15
9662,3.19
9674,1.07
9686,-0.29
9698,-1.23
9710,-2.22
9722,-3.53
9734,-5.11
9746,-6.63
9758,-7.72
9770,-8.23
9782,-8.1
9794,-7.48
9806,-6.65
9818,-5.88
9830,-5.4
9841,-5.31
9852,-5.57
9864,-6.0
9876,-6.3
9888,-6.05
9900,-4.91
9912,-2.79
9924,0.11
9936,3.32
9948,6.36
9960,8.88
9972,10.77
9984,11.85
9996,12.16
10008,11.86
10020,11.13
10031,10.14
10042,9.02
10054,7.91
10066,6.87
10078,5.93
10090,5.08
10102,4.38
10114,3.89
10126,3.67
10138,3.73
10150,4.06
10162,4.6
10174,5.27
10186,5.97
10198,6.57
10210,7.03
10221,7.28
10232,7.25
10244,6.94
10256,6.39
10268,5.63
10280,4.71
10292,3.68
10304,2.55
10316,1.4
10328,0.27
10340,-0.77
10352,-1.74
10364,-2.72
10376,-3.79
10388,-5.06
10400,-6.58
10411,-8.34
10422,-10.23
10434,-12.04
10446,-13.59
10458,-14.72
10470,-15.42
10482,-15.85
10494,-16.3
10506,-17.07
10518,-18.31
10530,-19.9
10542,-21.44
10554,-22.36
10566,-22.11
10578,-20.35
10590,-17.06
10601,-12.52
10612,-7.28
10624,-1.96
10636,2.86
10648,6.78
10660,9.62
10672,11.42
10684,12.37
10696,12.72
10708,12.73
10720,12.59
10732,12.43
10744,12.34
10756,12.33
10768,12.37
10780,12.4
10791,12.34
10802,12.16
10814,11.89
10826,11.59
10838,11.35
10850,11.2
10862,11.16
10874,11.19
10886,11.26
10898,11.29
10910,11.19
10922,10.84
10934,10.17
10946,9.13
10958,7.79
10970,6.24
10981,4.64
10992,3.11
11004,1.72
11016,0.5
11028,-0.51
11040,-1.32
11052,-1.98
11064,-2.61
11076,-3.41
11088,-4.55
11100,-6.1
11112,-7.93
11124,-9.78
11136,-11.35
11148,-12.44
11160,-13.07
11171,-13.48
11182,-14.05
11194,-15.13
11206,-16.96
11218,-19.55
11230,-22.62
11242,-25.69
11254,-28.13
11266,-29.34
11278,-28.86
11290,-26.56
11302,-22.63
11314,-17.6
11326,-12.14
11338,-6.9
11350,-2.39
11361,1.13
11372,3.63
11384,5.21
11396,6.08
11408,6.49
11420,6.73
11432,7.04
11444,7.58
11456,8.38
11468,9.33
11480,10.23
11492,10.89
11504,11.24
11516,11.34
11528,11.31
11540,11.28
11551,11.3
11562,11.37
11574,11.45
11586,11.55
11598,11.67
11610,11.79
11622,11.83
11634,11.61
11646,11.0
11658,9.94
11670,8.56
11682,7.08
11694,5.73
11706,4.63
11718,3.75
11730,2.95
11741,2.08
11752,1.07
11764,-0.07
11776,-1.24
11788,-2.35
11800,-3.36
11812,-4.3
11824,-5.25
11836,-6.33
11848,-7.6
11860,-9.06
11872,-10.65
11884,-12.26
11896,-13.77
11908,-15.09
11920,-16.19
11931,-17.12
11942,-17.99
11954,-19.02
11966,-20.42
11978,-22.38
11990,-24.83
12002,-27.47
12014,-29.69
12026,-30.76
12038,-30.04
12050,-27.29
12062,-22.7
12074,-16.89
12086,-10.66
12098,-4.81
12110,0.08
12121,3.74
12132,6.14
12144,7.47
12156,8.05
12168,8.28
12180,8.51
12192,9.01
12204,9.84
12216,10.88
12228,11.91
12240,12.7
12252,13.14
12264,13.26
12276,13.22
12288,13.17
12300,13.19
12311,13.26
12322,13.35
12334,13.42
12346,13.45
12358,13.42
12370,13.29
12382,12.96
12394,12.33
12406,11.35
12418,10.07
12430,8.59
12442,7.08
12454,5.63
12466,4.29
12478,3.05
12490,1.85
12501,0.65
12512,-0.59
12524,-1.85
12536,-3.11
12548,-4.37
12560,-5.62
12572,-6.84
12584,-8.05
12596,-9.22
12608,-10.28
12620,-11.21
12632,-12.04
12644,-12.87
12656,-13.91
12668,-15.4
12680,-17.53
12691,-20.23
12702,-23.19
12714,-25.82
12726,-27.39
12738,-27.26
12750,-25.1
12762,-21.03
12774,-15.58
12786,-9.56
12798,-3.77
12810,1.18
12822,5.02
12834,7.75
12846,9.58
12858,10.78
12870,11.56
12881,12.08
12892,12.4
12904,12.58
12916,12.67
12928,12.73
12940,12.84
12952,13.03
12964,13.32
12976,13.65
12988,13.97
13000,14.25
13012,14.49
13024,14.76
13036,15.07
13048,15.38
13060,15.52
13071,15.31
13082,14.56
13094,13.26
13106,11.51
13118,9.52
13130,7.52
13142,5.71
13154,4.15
13166,2.8
13178,1.56
13190,0.29
13202,-1.1
13214,-2.64
13226,-4.28
13238,-5.91
13250,-7.43
13261,-8.83
13272,-10.19
13284,-11.72
13296,-13.59
13308,-15.92
13320,-18.66
13332,-21.55
13344,-24.14
13356,-25.89
13368,-26.27
13380,-24.93
13392,-21.76
13404,-17.05
13416,-11.34
13428,-5.39
13440,0.07
13451,4.54
13462,7.8
13474,9.95
13486,11.27
13498,12.06
13510,12.53
13522,12.8
13534,12.93
13546,12.97
13558,13.03
13570,13.2
13582,13.57
13594,14.14
13606,14.83
13618,15.54
13630,16.15
13641,16.61
13652,16.92
13664,17.13
13676,17.26
13688,17.3
13700,17.18
13712,16.82
13724,16.15
13736,15.21
13748,14.05
13760,12.81
13772,11.6
13784,10.51
13796,9.52
13808,8.55
13820,7.49
13831,6.23
13842,4.75
13854,3.11
13866,1.47
13878,0.03
13890,-1.12
13902,-1.98
13914,-2.72
13926,-3.62
13938,-4.88
13950,-6.59
13962,-8.68
13974,-10.9
13986,-12.99
13998,-14.74
14010,-16.14
14021,-17.31
14032,-18.5
14044,-19.98
14056,-21.95
14068,-24.55
14080,-27.72
14092,-31.13
14104,-34.2
14116,-36.1
14128,-36.02
14140,-33.43
14152,-28.35
14164,-21.45
14176,-13.8
14188,-6.6
14200,-0.7
14211,3.54
14222,6.26
14234,7.86
14246,8.79
14258,9.39
14270,9.94
14282,10.65
14294,11.65
14306,13.01
14318,14.62
14330,16.25
14342,17.65
14354,18.62
14366,19.15
14378,19.36
14390,19.43
14401,19.53
14412,19.66
14424,19.77
14436,19.8
14448,19.7
14460,19.5
14472,19.2
14484,18.82
14496,18.3
14508,17.61
14520,16.73
14532,15.68
14544,14.6
14556,13.57
14568,12.67
14580,11.87
14591,11.08
14602,10.2
14614,9.16
14626,7.99
14638,6.82
14650,5.83
14662,5.18
14674,4.9
14686,4.85
14698,4.75
14710,4.31
14722,3.33
14734,1.85
14746,0.06
14758,-1.73
14770,-3.3
14781,-4.56
14792,-5.62
14804,-6.68
14816,-7.91
14828,-9.39
14840,-11.05
14852,-12.75
14864,-14.34
14876,-15.74
14888,-16.98
14900,-18.17
14912,-19.44
14924,-20.89
14936,-22.59
14948,-24.55
14960,-26.79
14971,-29.27
14982,-31.84
14994,-34.13
15006,-35.56
15018,-35.48
15030,-33.34
15042,-28.99
15054,-22.78
15066,-15.51
15078,-8.21
15090,-1.8
15102,3.13
15114,6.44
15126,8.36
15138,9.34
15150,9.85
15161,10.24
15172,10.72
15184,11.36
15196,12.16
15208,13.07
15220,14.04
15232,14.98
15244,15.8
15256,16.38
15268,16.71
15280,16.84
15292,16.91
15304,17.07
15316,17.42
15328,17.9
15340,18.33
15351,18.52
15362,18.32
15374,17.73
15386,16.87
15398,15.88
15410,14.89
15422,13.93
15434,12.97
15446,12.0
15458,11.03
15470,10.11
15482,9.28
15494,8.53
15506,7.81
15518,7.06
15530,6.26
15541,5.46
15552,4.72
15564,4.11
15576,3.62
15588,3.23
15600,2.87
15612,2.48
15624,2.02
15636,1.41
15648,0.56
15660,-0.64
15672,-2.22
15684,-4.12
15696,-6.17
15708,-8.21
15720,-10.14
15731,-11.92
15742,-13.62
15754,-15.31
15766,-17.01
15778,-18.73
15790,-20.45
15802,-22.2
15814,-24.04
15826,-26.04
15838,-28.17
15850,-30.18
15862,-31.58
15874,-31.77
15886,-30.2
15898,-26.66
15910,-21.39
15921,-15.11
15932,-8.7
15944,-3.02
15956,1.45
15968,4.6
15980,6.66
15992,7.97
16004,8.79
16016,9.24
16028,9.34
16040,9.04
16052,8.39
16064,7.49
16076,6.56
16088,5.8
16100,5.38
16111,5.36
16122,5.7
16134,6.25
16146,6.89
16158,7.49
16170,7.99
16182,8.38
16194,8.66
16206,8.83
16218,8.88
16230,8.79
16242,8.52
16254,8.06
16266,7.39
16278,6.52
16290,5.49
16301,4.36
16312,3.21
16324,2.09
16336,1.02
16348,-0.04
16360,-1.18
16372,-2.46
16384,-3.88
16396,-5.37
16408,-6.82
16420,-8.09
16432,-9.15
16444,-10.02
16456,-10.83
16468,-11.7
16480,-12.8
16491,-14.21
16502,-16.03
16514,-18.3
16526,-20.95
16538,-23.74
16550,-26.19
16562,-27.64
16574,-27.43
16586,-25.17
16598,-20.91
16610,-15.24
16622,-9.04
16634,-3.21
16646,1.59
16658,5.14
16670,7.54
16681,9.06
16692,9.96
16704,10.39
16716,10.49
16728,10.4
16740,10.34
16752,10.51
16764,11.02
16776,11.77
16788,12.54
16800,13.06
16812,13.2
16824,13.03
16836,12.76
16848,12.64
16860,12.79
16871,13.14
16882,13.51
16894,13.68
16906,13.51
16918,13.0
16930,12.17
16942,11.06
16954,9.69
16966,8.05
16978,6.2
16990,4.31
17002,2.56
17014,1.07
17026,-0.12
17038,-1.1
17050,-1.98
17061,-2.88
17072,-3.83
17084,-4.85
17096,-5.97
17108,-7.28
17120,-8.88
17132,-10.78
17144,-12.85
17156,-14.85
17168,-16.52
17180,-17.73
17192,-18.59
17204,-19.44
17216,-20.71
17228,-22.74
17240,-25.63
17251,-29.14
17262,-32.75
17274,-35.68
17286,-37.14
17298,-36.45
17310,-33.27
17322,-27.73
17334,-20.47
17346,-12.51
17358,-4.96
17370,1.28
17382,5.77
17394,8.55
17406,10.0
17418,10.66
17430,11.0
17441,11.33
17452,11.8
17464,12.42
17476,13.16
17488,13.92
17500,14.58
17512,15.05
17524,15.28
17536,15.3
17548,15.22
17560,15.2
17572,15.35
17584,15.67
17596,16.04
17608,16.24
17620,16.08
17631,15.47
17642,14.52
17654,13.41
17666,12.41
17678,11.68
17690,11.26
17702,11.09
17714,11.04
17726,10.96
17738,10.71
17750,10.15
17762,9.21
17774,7.86
17786,6.2
17798,4.45
17810,2.83
17821,1.57
17832,0.75
17844,0.29
17856,-0.03
17868,-0.52
17880,-1.46
17892,-3.03
17904,-5.21
17916,-7.79
17928,-10.44
17940,-12.85
17952,-14.87
17964,-16.55
17976,-18.18
17988,-20.11
18000,-22.66
18011,-25.94
18022,-29.77
18034,-33.65
18046,-36.84
18058,-38.51
18070,-37.96
18082,-34.91
18094,-29.59
18106,-22.73
18118,-15.38
18130,-8.6
18142,-3.19
18154,0.53
18166,2.72
18178,3.89
18190,4.68
18201,5.63
18212,7.1
18224,9.14
18236,11.58
18248,14.06
18260,16.2
18272,17.69
18284,18.38
18296,18.36
18308,17.91
18320,17.42
18332,17.27
18344,17.71
18356,18.77
18368,20.25
18380,21.77
18391,22.9
18402,23.25
18414,22.67
18426,21.2
18438,19.14
18450,16.89
18462,14.87
18474,13.36
18486,12.44
18498,11.97
18510,11.67
18522,11.23
18534,10.45
18546,9.24
18558,7.67
18570,5.94
18581,4.25
18592,2.78
18604,1.63
18616,0.79
18628,0.14
18640,-0.45
18652,-1.1
18664,-1.82
18676,-2.52
18688,-3.08
18700,-3.43
18712,-3.68
18724,-4.07
18736,-4.91
18748,-6.36
18760,-8.32
18771,-10.45
18782,-12.31
18794,-13.61
18806,-14.37
18818,-14.92
18830,-15.74
18842,-17.22
18854,-19.52
18866,-22.43
18878,-25.41
18890,-27.8
18902,-28.91
18914,-28.3
18926,-25.82
18938,-21.7
18950,-16.48
18961,-10.83
18972,-5.4
18984,-0.72
18996,2.92
19008,5.39
19020,6.76
19032,7.26
19044,7.24
19056,7.14
19068,7.32
19080,7.95
19092,8.93
19104,10.01
19116,10.85
19128,11.3
19140,11.41
19151,11.36
19162,11.37
19174,11.52
19186,11.8
19198,12.09
19210,12.3
19222,12.42
19234,12.49
19246,12.51
19258,12.4
19270,12.05
19282,11.33
19294,10.24
19306,8.9
19318,7.52
19330,6.29
19341,5.3
19352,4.48
19364,3.72
19376,2.88
19388,1.95
19400,0.97
19412,0.06
19424,-0.68
19436,-1.26
19448,-1.79
19460,-2.41
19472,-3.29
19484,-4.49
19496,-5.99
19508,-7.68
19520,-9.41
19531,-11.07
19542,-12.61
19554,-14.11
19566,-15.7
19578,-17.55
19590,-19.83
19602,-22.61
19614,-25.74
19626,-28.84
19638,-31.31
19650,-32.48
19662,-31.81
19674,-29.07
19686,-24.44
19698,-18.45
19710,-11.86
19721,-5.43
19732,0.21
19744,4.66
19756,7.77
19768,9.65
19780,10.63
19792,11.15
19804,11.69
19816,12.59
19828,13.95
19840,15.6
19852,17.23
19864,18.54
19876,19.36
19888,19.71
19900,19.77
19911,19.73
19922,19.71
19934,19.75
19946,19.79
19958,19.76
19970,19.63
19982,19.42
19994,19.11
20006,18.65
20018,17.98
20030,17.01
20042,15.74
20054,14.27
20066,12.74
20078,11.34
20090,10.17
20101,9.23
20112,8.43
20124,7.61
20136,6.66
20148,5.49
20160,4.13
20172,2.73
20184,1.44
20196,0.38
20208,-0.43
20220,-1.11
20232,-1.87
20244,-2.95
20256,-4.48
20268,-6.46
20280,-8.74
20291,-11.1
20302,-13.27
20314,-15.11
20326,-16.58
20338,-17.82
20350,-19.09
20362,-20.67
20374,-22.8
20386,-25.57
20398,-28.83
20410,-32.15
20422,-34.87
20434,-36.18
20446,-35.39
20458,-32.15
20470,-26.63
20481,-19.51
20492,-11.85
20504,-4.72
20516,1.11
20528,5.31
20540,8.03
20552,9.69
20564,10.79
20576,11.76
20588,12.82
20600,14.07
20612,15.45
20624,16.83
20636,18.08
20648,19.06
20660,19.72
20671,20.05
20682,20.1
20694,19.94
20706,19.67
20718,19.39
20730,19.2
20742,19.17
20754,19.33
20766,19.63
20778,19.92
20790,20.03
20802,19.79
20814,19.11
20826,18.01
20838,16.63
20850,15.14
20861,13.71
20872,12.41
20884,11.22
20896,10.06
20908,8.88
20920,7.72
20932,6.66
20944,5.78
20956,5.13
20968,4.64
20980,4.19
20992,3.65
