seconds,BVP
3,-34.96
15,-33.3
27,-30.61
39,-27.08
51,-23.1
62,-19.15
73,-15.58
85,-12.5
97,-9.77
109,-7.17
121,-4.48
133,-1.68
145,1.11
157,3.65
169,5.71
181,7.19
193,8.14
205,8.73
217,9.18
229,9.76
241,10.68
252,12.07
263,13.97
275,16.21
287,18.56
299,20.73
311,22.5
323,23.65
335,24.11
347,23.83
359,22.86
371,21.26
383,19.13
395,16.64
407,13.98
419,11.42
431,9.17
442,7.4
453,6.13
465,5.25
477,4.62
489,4.01
501,3.27
513,2.27
525,0.93
537,-0.74
549,-2.64
561,-4.63
573,-6.55
585,-8.29
597,-9.87
609,-11.43
621,-13.18
632,-15.29
643,-17.84
655,-20.77
667,-23.95
679,-27.16
691,-30.13
703,-32.53
715,-33.99
727,-34.2
739,-32.98
751,-30.41
763,-26.77
775,-22.5
787,-17.96
799,-13.36
811,-8.8
822,-4.3
833,0.07
845,4.14
857,7.77
869,10.85
881,13.34
893,15.31
905,16.79
917,17.79
929,18.26
941,18.21
953,17.74
965,17.08
977,16.51
989,16.24
1001,16.35
1012,16.75
1023,17.25
1035,17.65
1047,17.78
1059,17.58
1071,17.13
1083,16.62
1095,16.19
1107,15.99
1119,15.95
1131,15.91
1143,15.63
1155,14.88
1167,13.55
1179,11.69
1191,9.5
1202,7.09
1213,4.65
1225,2.23
1237,-0.16
1249,-2.46
1261,-4.63
1273,-6.64
1285,-8.55
1297,-10.48
1309,-12.62
1321,-15.0
1333,-17.58
1345,-20.29
1357,-23.04
1369,-25.82
1381,-28.67
1392,-31.52
1403,-34.11
1415,-36.05
1427,-36.84
1439,-36.21
1451,-34.2
1463,-31.05
1475,-27.2
1487,-23.08
1499,-18.92
1511,-14.86
1523,-10.91
1535,-7.07
1547,-3.39
1559,0.03
1571,3.12
1582,5.81
1593,8.15
1605,10.24
1617,12.15
1629,14.0
1641,15.79
1653,17.54
1665,19.21
1677,20.82
1689,22.35
1701,23.73
1713,24.88
1725,25.61
1737,25.84
1749,25.55
1761,24.97
1772,24.37
1783,23.99
1795,23.88
1807,23.8
1819,23.47
1831,22.65
1843,21.27
1855,19.48
1867,17.57
1879,15.77
1891,14.16
1903,12.67
1915,11.12
1927,9.35
1939,7.3
1951,5.01
1962,2.54
1973,-0.01
1985,-2.57
1997,-5.09
2009,-7.5
2021,-9.7
2033,-11.73
2045,-13.62
2057,-15.64
2069,-18.08
2081,-21.24
2093,-25.29
2105,-30.06
2117,-35.08
2129,-39.59
2141,-42.8
2152,-44.05
2163,-43.07
2175,-40.01
2187,-35.35
2199,-29.74
2211,-23.8
2223,-17.96
2235,-12.45
2247,-7.34
2259,-2.59
2271,1.81
2283,5.81
2295,9.27
2307,11.99
2319,13.8
2331,14.65
2342,14.64
2353,14.01
2365,13.09
2377,12.12
2389,11.28
2401,10.66
2413,10.28
2425,10.25
2437,10.62
2449,11.39
2461,12.48
2473,13.66
2485,14.61
2497,15.09
2509,14.93
2521,14.12
2532,12.79
2543,11.13
2555,9.31
2567,7.43
2579,5.51
2591,3.49
2603,1.33
2615,-0.92
2627,-3.09
2639,-4.94
2651,-6.29
2663,-7.06
2675,-7.39
2687,-7.5
2699,-7.67
2711,-8.1
2722,-8.91
2733,-10.19
2745,-12.03
2757,-14.53
2769,-17.71
2781,-21.35
2793,-24.98
2805,-27.91
2817,-29.49
2829,-29.36
2841,-27.55
2853,-24.48
2865,-20.74
2877,-16.81
2889,-12.94
2901,-9.15
2912,-5.36
2923,-1.56
2935,2.06
2947,5.21
2959,7.59
2971,9.03
2983,9.58
2995,9.42
3007,8.86
3019,8.26
3031,7.89
3043,7.93
3055,8.32
3067,8.87
3079,9.22
3091,9.09
3102,8.32
3113,7.02
3125,5.39
3137,3.7
3149,2.04
3161,0.43
3173,-1.12
3185,-2.53
3197,-3.55
3209,-3.95
3221,-3.67
3233,-2.91
3245,-2.08
3257,-1.53
3269,-1.32
3281,-1.23
3292,-1.04
3303,-0.88
3315,-1.33
3327,-3.33
3339,-7.63
3351,-14.34
3363,-22.65
3375,-31.12
3387,-38.13
3399,-42.49
3411,-43.68
3423,-41.79
3435,-37.27
3447,-30.56
3459,-21.99
3471,-11.83
3482,-0.47
3493,11.48
3505,23.1
3517,33.45
3529,41.71
3541,47.49
3553,50.9
3565,52.43
3577,52.67
3589,52.13
3601,51.03
3613,49.39
3625,47.18
3637,44.47
3649,41.43
3661,38.37
3672,35.53
3683,33.04
3695,30.88
3707,28.91
3719,26.91
3731,24.65
3743,21.95
3755,18.75
3767,15.22
3779,11.78
3791,8.97
3803,7.22
3815,6.63
3827,6.96
3839,7.73
3851,8.36
3862,8.3
3873,7.08
3885,4.27
3897,-0.35
3909,-6.64
3921,-13.89
3933,-20.87
3945,-26.23
3957,-29.1
3969,-29.64
3981,-29.04
3993,-29.05
4005,-31.1
4017,-35.64
4029,-41.9
4041,-48.24
4052,-52.85
4063,-54.39
4075,-52.29
4087,-46.8
4099,-38.79
4111,-29.46
4123,-20.11
4135,-11.88
4147,-5.49
4159,-1.13
4171,1.52
4183,3.24
4195,4.86
4207,7.13
4219,10.45
4231,14.87
4242,20.11
4253,25.74
4265,31.1
4277,35.5
4289,38.3
4301,39.04
4313,37.66
4325,34.57
4337,30.63
4349,26.82
4361,24.02
4373,22.6
4385,22.4
4397,22.87
4409,23.3
4421,23.2
4432,22.41
4443,21.16
4455,19.8
4467,18.67
4479,17.87
4491,17.35
4503,16.92
4515,16.42
4527,15.78
4539,14.96
4551,13.96
4563,12.68
4575,10.94
4587,8.51
4599,5.25
4611,1.33
4622,-2.93
4633,-6.97
4645,-10.27
4657,-12.57
4669,-13.89
4681,-14.55
4693,-15.1
4705,-16.08
4717,-17.86
4729,-20.48
4741,-23.61
4753,-26.57
4765,-28.56
4777,-28.78
4789,-26.8
4801,-22.77
4812,-17.3
4823,-11.16
4835,-4.99
4847,0.84
4859,6.24
4871,11.27
4883,16.22
4895,21.08
4907,25.56
4919,29.25
4931,31.85
4943,33.21
4955,33.39
4967,32.51
4979,30.65
4991,28.23
5002,25.5
5013,22.57
5025,19.64
5037,17.13
5049,15.52
5061,15.12
5073,15.82
5085,17.23
5097,19.16
5109,21.3
5121,23.05
5133,23.67
5145,22.44
5157,18.86
5169,12.9
5181,5.37
5192,-4.45
5203,-14.89
5215,-23.09
5227,-26.95
5239,-26.52
5251,-23.54
5263,-19.86
5275,-16.7
5287,-14.61
5299,-13.89
5311,-14.43
5323,-16.14
5335,-18.65
5347,-21.07
5359,-22.28
5371,-21.56
5382,-19.19
5393,-16.37
5405,-14.5
5417,-14.07
5429,-14.99
5441,-16.81
5453,-18.97
5465,-21.05
5477,-22.9
5489,-24.53
5501,-25.91
5513,-26.76
5525,-26.43
5537,-24.46
5549,-20.95
5561,-16.54
5572,-12.22
5583,-9.0
5595,-7.66
5607,-8.51
5619,-11.44
5631,-16.01
5643,-21.38
5655,-26.79
5667,-31.61
5679,-35.29
5691,-37.34
5703,-37.43
5715,-35.35
5727,-31.14
5739,-25.06
5751,-17.67
5762,-9.79
5773,-2.28
5785,4.11
5797,8.89
5809,11.93
5821,13.47
5833,13.93
5845,13.75
5857,13.3
5869,12.74
5881,12.16
5893,11.64
5905,11.24
5917,11.08
5929,11.27
5941,11.84
5952,12.72
5963,13.69
5975,14.45
5987,14.66
5999,14.02
6011,12.45
6023,9.95
6035,6.73
6047,3.06
6059,-0.84
6071,-4.74
6083,-8.58
6095,-12.36
6107,-16.15
6119,-19.97
6131,-23.78
6142,-27.46
6153,-30.78
6165,-33.37
6177,-34.8
6189,-34.74
6201,-33.01
6213,-29.65
6225,-24.91
6237,-19.22
6249,-13.1
6261,-7.07
6273,-1.45
6285,3.61
6297,8.15
6309,12.39
6321,16.56
6332,20.82
6343,25.15
6355,29.35
6367,33.05
6379,35.85
6391,37.47
6403,37.83
6415,37.09
6427,35.57
6439,33.61
6451,31.52
6463,29.46
6475,27.53
6487,25.69
6499,24.0
6511,22.53
6522,21.36
6533,20.55
6545,20.01
6557,19.6
6569,19.12
6581,18.45
6593,17.54
6605,16.48
6617,15.36
6629,14.21
6641,13.06
6653,11.84
6665,10.53
6677,9.13
6689,7.73
6701,6.35
6712,5.03
6723,3.78
6735,2.5
6747,1.09
6759,-0.57
6771,-2.45
6783,-4.41
6795,-6.22
6807,-7.68
6819,-8.66
6831,-9.27
6843,-9.7
6855,-10.19
6867,-10.88
6879,-11.83
6891,-13.0
6902,-14.37
6913,-16.02
6925,-17.98
6937,-20.35
6949,-23.06
6961,-25.97
6973,-28.87
6985,-31.52
6997,-33.7
7009,-35.15
7021,-35.63
7033,-34.91
7045,-32.89
7057,-29.54
7069,-25.08
7081,-19.81
7092,-14.21
7103,-8.68
7115,-3.59
7127,0.79
7139,4.34
7151,7.04
7163,8.98
7175,10.24
7187,11.04
7199,11.6
7211,12.21
7223,13.08
7235,14.33
7247,15.88
7259,17.52
7271,19.03
7282,20.29
7293,21.31
7305,22.18
7317,22.93
7329,23.47
7341,23.58
7353,23.04
7365,21.77
7377,19.84
7389,17.54
7401,15.22
7413,13.15
7425,11.44
7437,10.08
7449,8.95
7461,7.91
7472,6.83
7483,5.61
7495,4.25
7507,2.78
7519,1.25
7531,-0.3
7543,-1.9
7555,-3.63
7567,-5.52
7579,-7.6
7591,-9.78
7603,-11.93
7615,-13.9
7627,-15.6
7639,-17.0
7651,-18.19
7662,-19.32
7673,-20.54
7685,-21.98
7697,-23.75
7709,-25.98
7721,-28.71
7733,-31.86
7745,-35.13
7757,-38.02
7769,-39.91
7781,-40.28
7793,-38.91
7805,-35.98
7817,-31.95
7829,-27.36
7841,-22.68
7852,-18.09
7863,-13.64
7875,-9.34
7887,-5.2
7899,-1.29
7911,2.33
7923,5.7
7935,8.92
7947,12.09
7959,15.23
7971,18.21
7983,20.78
7995,22.75
8007,24.0
8019,24.56
8031,24.62
8042,24.41
8053,24.15
8065,23.95
8077,23.75
8089,23.37
8101,22.67
8113,21.54
8125,20.08
8137,18.45
8149,16.86
8161,15.4
8173,14.09
8185,12.8
8197,11.41
8209,9.93
8221,8.41
8232,7.03
8243,5.95
8255,5.16
8267,4.53
8279,3.85
8291,2.95
8303,1.73
8315,0.2
8327,-1.61
8339,-3.63
8351,-5.83
8363,-8.25
8375,-10.87
8387,-13.67
8399,-16.57
8411,-19.46
8422,-22.28
8433,-25.09
8445,-27.94
8457,-30.94
8469,-34.13
8481,-37.33
8493,-40.23
8505,-42.31
8517,-43.07
8529,-42.04
8541,-39.12
8553,-34.47
8565,-28.6
8577,-22.09
8589,-15.45
8601,-9.03
8612,-2.95
8623,2.71
8635,7.97
8647,12.69
8659,16.72
8671,19.89
8683,22.15
8695,23.61
8707,24.45
8719,24.92
8731,25.17
8743,25.26
8755,25.14
8767,24.7
8779,23.91
8791,22.83
8802,21.65
8813,20.63
8825,19.95
8837,19.7
8849,19.76
8861,19.85
8873,19.67
8885,19.05
8897,17.99
8909,16.73
8921,15.62
8933,14.9
8945,14.63
8957,14.59
8969,14.45
8981,13.88
8992,12.78
9003,11.2
9015,9.41
9027,7.67
9039,6.09
9051,4.63
9063,3.12
9075,1.43
9087,-0.52
9099,-2.66
9111,-4.93
9123,-7.28
9135,-9.7
9147,-12.2
9159,-14.84
9171,-17.61
9182,-20.47
9193,-23.4
9205,-26.46
9217,-29.75
9229,-33.36
9241,-37.11
9253,-40.6
9265,-43.2
9277,-44.34
9289,-43.67
9301,-41.18
9313,-37.23
9325,-32.29
9337,-26.85
9349,-21.25
9361,-15.74
9372,-10.41
9383,-5.37
9395,-0.74
9407,3.33
9419,6.77
9431,9.52
9443,11.68
9455,13.43
9467,14.95
9479,16.45
9491,18.0
9503,19.51
9515,20.81
9527,21.71
9539,22.17
9551,22.24
9562,22.17
9573,22.13
9585,22.17
9597,22.2
9609,21.96
9621,21.25
9633,19.99
9645,18.26
9657,16.23
9669,14.14
9681,12.13
9693,10.23
9705,8.44
9717,6.7
9729,5.01
9741,3.45
9752,2.08
9763,0.99
9775,0.15
9787,-0.59
9799,-1.36
9811,-2.27
9823,-3.39
9835,-4.66
9847,-6.04
9859,-7.56
9871,-9.31
9883,-11.46
9895,-14.19
9907,-17.54
9919,-21.47
9931,-25.81
9942,-30.28
9953,-34.46
9965,-37.91
9977,-40.12
9989,-40.75
10001,-39.69
10013,-37.1
10025,-33.35
10037,-28.91
10049,-24.18
10061,-19.44
10073,-14.84
10085,-10.38
10097,-6.03
10109,-1.76
10121,2.41
10132,6.4
10143,10.09
10155,13.34
10167,16.02
10179,18.05
10191,19.5
10203,20.51
10215,21.27
10227,21.93
10239,22.57
10251,23.23
10263,23.92
10275,24.67
10287,25.53
10299,26.56
10311,27.63
10322,28.53
10333,28.98
10345,28.73
10357,27.71
10369,26.11
10381,24.24
10393,22.43
10405,20.9
10417,19.67
10429,18.63
10441,17.59
10453,16.34
10465,14.76
10477,12.86
10489,10.72
10501,8.51
10512,6.36
10523,4.37
10535,2.54
10547,0.81
10559,-0.97
10571,-2.93
10583,-5.09
10595,-7.41
10607,-9.8
10619,-12.15
10631,-14.45
10643,-16.78
10655,-19.26
10667,-22.07
10679,-25.35
10691,-29.1
10702,-33.25
10713,-37.63
10725,-41.9
10737,-45.64
10749,-48.33
10761,-49.48
10773,-48.73
10785,-46.05
10797,-41.73
10809,-36.29
10821,-30.38
10833,-24.54
10845,-19.12
10857,-14.2
10869,-9.64
10881,-5.21
10892,-0.74
10903,3.79
10915,8.27
10927,12.42
10939,15.93
10951,18.59
10963,20.33
10975,21.32
10987,21.85
10999,22.22
11011,22.64
11023,23.22
11035,23.91
11047,24.76
11059,25.76
11071,26.91
11082,28.19
11093,29.45
11105,30.51
11117,31.21
11129,31.5
11141,31.41
11153,31.1
11165,30.72
11177,30.31
11189,29.85
11201,29.24
11213,28.35
11225,27.09
11237,25.48
11249,23.56
11261,21.41
11272,19.11
11283,16.78
11295,14.44
11307,12.12
11319,9.81
11331,7.44
11343,5.0
11355,2.46
11367,-0.17
11379,-2.89
11391,-5.73
11403,-8.68
11415,-11.73
11427,-14.85
11439,-17.96
11451,-20.99
11462,-23.88
11473,-26.67
11485,-29.47
11497,-32.51
11509,-35.93
11521,-39.66
11533,-43.39
11545,-46.54
11557,-48.51
11569,-48.84
11581,-47.37
11593,-44.3
11605,-40.1
11617,-35.22
11629,-30.02
11641,-24.66
11652,-19.19
11663,-13.62
11675,-8.05
11687,-2.65
11699,2.44
11711,7.07
11723,11.16
11735,14.64
11747,17.46
11759,19.61
11771,21.15
11783,22.19
11795,22.89
11807,23.4
11819,23.8
11831,24.08
11842,24.23
11853,24.26
11865,24.22
11877,24.17
11889,24.09
11901,23.95
11913,23.61
11925,22.98
11937,22.01
11949,20.74
11961,19.23
11973,17.53
11985,15.67
11997,13.65
12009,11.54
12021,9.44
12032,7.44
12043,5.59
12055,3.8
12067,1.85
12079,-0.56
12091,-3.64
12103,-7.46
12115,-11.91
12127,-16.7
12139,-21.49
12151,-25.98
12163,-29.94
12175,-33.26
12187,-35.98
12199,-38.29
12211,-40.53
12222,-43.21
12233,-46.77
12245,-51.34
12257,-56.61
12269,-61.76
12281,-65.77
12293,-67.73
12305,-67.19
12317,-64.3
12329,-59.7
12341,-54.12
12353,-48.13
12365,-41.99
12377,-35.69
12389,-29.15
12401,-22.37
12412,-15.56
12423,-8.98
12435,-2.9
12447,2.55
12459,7.35
12471,11.67
12483,15.75
12495,19.89
12507,24.35
12519,29.29
12531,34.7
12543,40.44
12555,46.21
12567,51.69
12579,56.57
12591,60.65
12602,63.83
12613,66.1
12625,67.44
12637,67.86
12649,67.5
12661,66.58
12673,65.41
12685,64.31
12697,63.49
12709,62.93
12721,62.48
12733,61.89
12745,61.06
12757,60.01
12769,58.96
12781,58.03
12792,57.25
12803,56.42
12815,55.14
12827,52.96
12839,49.48
12851,44.58
12863,38.32
12875,31.03
12887,23.22
12899,15.43
12911,8.1
12923,1.4
12935,-4.71
12947,-10.53
12959,-16.43
12971,-22.71
12982,-29.57
12993,-36.91
13005,-44.45
13017,-51.71
13029,-58.11
13041,-63.06
13053,-66.07
13065,-66.77
13077,-64.99
13089,-60.77
13101,-54.39
13113,-46.37
13125,-37.38
13137,-28.16
13149,-19.18
13161,-10.65
13172,-2.5
13183,5.52
13195,13.51
13207,21.29
13219,28.42
13231,34.38
13243,38.8
13255,41.8
13267,43.76
13279,45.26
13291,46.85
13303,48.66
13315,50.59
13327,52.34
13339,53.7
13351,54.69
13362,55.67
13373,57.02
13385,59.0
13397,61.57
13409,64.2
13421,66.08
13433,66.36
13445,64.53
13457,60.5
13469,54.84
13481,48.33
13493,41.79
13505,35.8
13517,30.58
13529,26.13
13541,22.33
13552,18.98
13563,15.66
13575,11.8
13587,6.67
13599,-0.36
13611,-9.55
13623,-20.64
13635,-32.79
13647,-44.86
13659,-55.88
13671,-65.25
13683,-72.89
13695,-79.07
13707,-84.24
13719,-88.67
13731,-92.6
13742,-96.05
13753,-99.03
13765,-101.56
13777,-103.53
13789,-104.75
13801,-104.78
13813,-103.17
13825,-99.46
13837,-93.58
13849,-85.77
13861,-76.61
13873,-66.82
13885,-56.97
13897,-47.43
13909,-38.38
13921,-29.88
13932,-22.01
13943,-14.96
13955,-8.98
13967,-4.31
13979,-1.02
13991,1.15
14003,2.62
14015,3.83
14027,5.03
14039,6.28
14051,7.38
14063,8.2
14075,8.66
14087,8.84
14099,8.96
14111,9.17
14122,9.45
14133,9.62
14145,9.34
14157,8.42
14169,6.81
14181,4.74
14193,2.53
14205,0.55
14217,-1.0
14229,-2.0
14241,-2.54
14253,-2.77
14265,-2.87
14277,-2.95
14289,-3.03
14301,-3.12
14312,-3.19
14323,-3.31
14335,-3.57
14347,-4.09
14359,-5.04
14371,-6.62
14383,-9.06
14395,-12.5
14407,-17.02
14419,-22.43
14431,-28.26
14443,-33.8
14455,-38.19
14467,-40.73
14479,-41.11
14491,-39.48
14502,-36.51
14513,-33.05
14525,-29.86
14537,-27.34
14549,-25.39
14561,-23.56
14573,-21.35
14585,-18.49
14597,-15.13
14609,-11.77
14621,-9.04
14633,-7.44
14645,-7.14
14657,-8.02
14669,-9.74
14681,-11.83
14692,-13.75
14703,-14.94
14715,-14.79
14727,-12.85
14739,-8.93
14751,-3.33
14763,3.26
14775,9.86
14787,15.52
14799,19.67
14811,22.19
14823,23.4
14835,23.89
14847,24.22
14859,24.78
14871,25.62
14882,26.58
14893,27.39
14905,27.76
14917,27.45
14929,26.33
14941,24.33
14953,21.52
14965,18.05
14977,14.16
14989,10.17
15001,6.38
15013,3.01
15025,0.04
15037,-2.64
15049,-5.31
15061,-8.21
15072,-11.36
15083,-14.48
15095,-16.97
15107,-18.17
15119,-17.63
15131,-15.28
15143,-11.48
15155,-6.79
15167,-1.78
15179,3.2
15191,8.06
15203,12.86
15215,17.67
15227,22.39
15239,26.87
15251,30.95
15262,34.48
15273,37.33
15285,39.4
15297,40.52
15309,40.61
15321,39.68
15333,37.97
15345,35.86
15357,33.83
15369,32.36
15381,31.77
15393,32.23
15405,33.69
15417,35.93
15429,38.61
15441,41.43
15452,44.06
15463,46.21
15475,47.64
15487,48.15
15499,47.66
15511,46.18
15523,43.93
15535,41.24
15547,38.52
15559,36.15
15571,34.32
15583,32.98
15595,31.98
15607,31.16
15619,30.34
15631,29.44
15642,28.38
15653,27.02
15665,25.16
15677,22.66
15689,19.43
15701,15.55
15713,11.23
15725,6.72
15737,2.25
15749,-1.98
15761,-5.84
15773,-9.25
15785,-12.13
15797,-14.53
15809,-16.6
15821,-18.58
15832,-20.67
15843,-23.0
15855,-25.5
15867,-28.07
15879,-30.58
15891,-33.05
15903,-35.63
15915,-38.53
15927,-41.89
15939,-45.71
15951,-49.74
15963,-53.57
15975,-56.68
15987,-58.56
15999,-58.79
16011,-57.13
16022,-53.53
16033,-48.24
16045,-41.71
16057,-34.5
16069,-27.18
16081,-20.1
16093,-13.47
16105,-7.25
16117,-1.45
16129,3.95
16141,8.86
16153,13.14
16165,16.75
16177,19.74
16189,22.26
16201,24.51
16212,26.53
16223,28.27
16235,29.63
16247,30.56
16259,31.09
16271,31.41
16283,31.66
16295,31.94
16307,32.28
16319,32.62
16331,32.85
16343,32.85
16355,32.45
16367,31.48
16379,29.84
16391,27.56
16402,24.88
16413,22.14
16425,19.68
16437,17.66
16449,16.0
16461,14.49
16473,12.92
16485,11.17
16497,9.26
16509,7.34
16521,5.59
16533,4.09
16545,2.9
16557,1.96
16569,1.14
16581,0.34
16592,-0.63
16603,-1.95
16615,-3.73
16627,-5.99
16639,-8.64
16651,-11.47
16663,-14.28
16675,-16.96
16687,-19.5
16699,-22.05
16711,-24.82
16723,-27.94
16735,-31.4
16747,-34.93
16759,-38.08
16771,-40.34
16782,-41.27
16793,-40.63
16805,-38.38
16817,-34.71
16829,-29.96
16841,-24.48
16853,-18.6
16865,-12.56
16877,-6.55
16889,-0.68
16901,4.97
16913,10.25
16925,14.98
16937,18.98
16949,22.06
16961,24.19
16972,25.45
16983,26.09
16995,26.35
17007,26.41
17019,26.37
17031,26.18
17043,25.83
17055,25.35
17067,24.88
17079,24.51
17091,24.34
17103,24.28
17115,24.2
17127,23.93
17139,23.37
17151,22.54
17162,21.46
17173,20.17
17185,18.65
17197,16.86
17209,14.76
17221,12.33
17233,9.66
17245,6.87
17257,4.07
17269,1.38
17281,-1.15
17293,-3.56
17305,-5.91
17317,-8.29
17329,-10.74
17341,-13.16
17352,-15.4
17363,-17.29
17375,-18.81
17387,-20.1
17399,-21.52
17411,-23.4
17423,-26.0
17435,-29.31
17447,-33.05
17459,-36.84
17471,-40.14
17483,-42.48
17495,-43.47
17507,-42.9
17519,-40.74
17531,-37.2
17542,-32.62
17553,-27.34
17565,-21.68
17577,-15.85
17589,-9.97
17601,-4.21
17613,1.25
17625,6.17
17637,10.3
17649,13.49
17661,15.75
17673,17.19
17685,18.04
17697,18.61
17709,19.18
17721,19.92
17732,20.9
17743,21.95
17755,22.83
17767,23.3
17779,23.34
17791,23.15
17803,23.06
17815,23.3
17827,23.9
17839,24.61
17851,25.0
17863,24.65
17875,23.35
17887,21.15
17899,18.37
17911,15.45
17922,12.72
17933,10.36
17945,8.36
17957,6.57
17969,4.81
17981,3.06
17993,1.33
18005,-0.21
18017,-1.49
18029,-2.53
18041,-3.45
18053,-4.44
18065,-5.66
18077,-7.16
18089,-8.89
18101,-10.86
18112,-13.16
18123,-15.91
18135,-19.21
18147,-23.01
18159,-27.18
18171,-31.48
18183,-35.74
18195,-39.86
18207,-43.8
18219,-47.47
18231,-50.62
18243,-52.8
18255,-53.62
18267,-52.83
18279,-50.52
18291,-47.02
18302,-42.74
18313,-38.02
18325,-32.98
18337,-27.64
18349,-21.95
18361,-16.02
18373,-10.05
18385,-4.25
18397,1.2
18409,6.2
18421,10.74
18433,14.83
18445,18.41
18457,21.41
18469,23.77
18481,25.5
18492,26.67
18503,27.36
18515,27.65
18527,27.58
18539,27.15
18551,26.34
18563,25.17
18575,23.66
18587,21.96
18599,20.24
18611,18.72
18623,17.69
18635,17.27
18647,17.41
18659,17.84
18671,18.19
18682,18.1
18693,17.4
18705,16.15
18717,14.54
18729,12.83
18741,11.14
18753,9.44
18765,7.57
18777,5.47
18789,3.19
18801,0.92
18813,-1.08
18825,-2.65
18837,-3.77
18849,-4.58
18861,-5.33
18872,-6.35
18883,-7.98
18895,-10.46
18907,-13.94
18919,-18.29
18931,-23.18
18943,-28.06
18955,-32.35
18967,-35.61
18979,-37.65
18991,-38.58
19003,-38.64
19015,-38.04
19027,-36.82
19039,-34.91
19051,-32.15
19062,-28.49
19073,-24.03
19085,-18.92
19097,-13.37
19109,-7.52
19121,-1.51
19133,4.5
19145,10.2
19157,15.29
19169,19.41
19181,22.31
19193,23.99
19205,24.6
19217,24.45
19229,23.86
19241,23.07
19252,22.21
19263,21.31
19275,20.34
19287,19.26
19299,18.11
19311,16.93
19323,15.87
19335,15.1
19347,14.75
19359,14.93
19371,15.59
19383,16.56
19395,17.5
19407,18.04
19419,17.89
19431,16.95
19442,15.34
19453,13.32
19465,11.14
19477,8.98
19489,6.87
19501,4.74
19513,2.56
19525,0.33
19537,-1.83
19549,-3.81
19561,-5.63
19573,-7.35
19585,-9.13
19597,-11.13
19609,-13.43
19621,-16.05
19632,-19.01
19643,-22.35
19655,-26.13
19667,-30.41
19679,-35.1
19691,-39.88
19703,-44.15
19715,-47.21
19727,-48.43
19739,-47.42
19751,-44.21
19763,-39.17
19775,-32.89
19787,-26.04
19799,-19.14
19811,-12.52
19822,-6.37
19833,-0.72
19845,4.43
19857,9.11
19869,13.28
19881,16.94
19893,20.09
19905,22.71
19917,24.82
19929,26.39
19941,27.37
19953,27.72
19965,27.45
19977,26.65
19989,25.45
20001,24.04
20012,22.52
20023,20.93
20035,19.23
20047,17.31
20059,15.07
20071,12.53
20083,9.75
20095,6.93
20107,4.29
20119,1.98
20131,0.0
20143,-1.81
20155,-3.75
20167,-6.12
20179,-9.0
20191,-12.22
20202,-15.41
20213,-18.21
20225,-20.48
20237,-22.33
20249,-24.07
20261,-26.1
20273,-28.63
20285,-31.75
20297,-35.31
20309,-39.03
20321,-42.52
20333,-45.32
20345,-46.98
20357,-47.14
20369,-45.69
20381,-42.78
20392,-38.76
20403,-34.1
20415,-29.29
20427,-24.66
20439,-20.48
20451,-16.87
20463,-13.92
20475,-11.74
20487,-10.33
20499,-9.77
20511,-10.07
20523,-11.25
20535,-13.22
20547,-15.93
20559,-19.16
20571,-22.59
20582,-25.71
20593,-27.79
20605,-28.0
20617,-25.57
20629,-20.09
20641,-11.59
20653,-0.75
20665,11.39
20677,23.47
20689,34.23
20701,42.68
20713,48.29
20725,51.06
20737,51.39
20749,50.02
20761,47.67
20772,44.96
20783,42.19
20795,39.48
20807,36.88
20819,34.36
20831,31.99
20843,29.79
20855,27.66
20867,25.38
20879,22.73
20891,19.62
20903,16.24
20915,13.03
20927,10.48
20939,8.97
20951,8.51
20962,8.78
20973,9.13
20985,8.8
20997,7.13
