seconds,BVP
9,3.88
21,2.77
33,1.48
45,0.18
57,-1.01
69,-2.03
80,-2.93
91,-3.81
103,-4.78
115,-5.86
127,-7.0
139,-8.11
151,-9.12
163,-10.02
175,-10.92
187,-11.89
199,-13.04
211,-14.38
223,-15.9
235,-17.52
247,-19.1
259,-20.39
270,-21.09
281,-20.88
293,-19.51
305,-16.97
317,-13.43
329,-9.28
341,-4.95
353,-0.84
365,2.76
377,5.72
389,8.02
401,9.67
413,10.75
425,11.32
437,11.47
449,11.26
460,10.79
471,10.16
483,9.46
495,8.8
507,8.27
519,7.95
531,7.85
543,7.96
555,8.22
567,8.58
579,8.93
591,9.17
603,9.19
615,8.9
627,8.24
639,7.2
650,5.86
661,4.32
673,2.72
685,1.16
697,-0.27
709,-1.51
721,-2.5
733,-3.24
745,-3.73
757,-4.08
769,-4.46
781,-5.08
793,-6.04
805,-7.35
817,-8.8
829,-10.17
840,-11.27
851,-12.04
863,-12.58
875,-13.07
887,-13.67
899,-14.45
911,-15.41
923,-16.51
935,-17.72
947,-18.94
959,-20.0
971,-20.62
983,-20.43
995,-19.13
1007,-16.6
1019,-12.97
1030,-8.63
1041,-4.03
1053,0.4
1065,4.36
1077,7.73
1089,10.45
1101,12.51
1113,13.89
1125,14.59
1137,14.63
1149,14.13
1161,13.25
1173,12.2
1185,11.16
1197,10.28
1209,9.58
1220,9.06
1231,8.7
1243,8.47
1255,8.37
1267,8.39
1279,8.48
1291,8.57
1303,8.57
1315,8.4
1327,8.03
1339,7.47
1351,6.72
1363,5.83
1375,4.83
1387,3.77
1399,2.69
1410,1.65
1421,0.67
1433,-0.27
1445,-1.23
1457,-2.28
1469,-3.41
1481,-4.55
1493,-5.55
1505,-6.28
1517,-6.68
1529,-6.81
1541,-6.87
1553,-7.11
1565,-7.71
1577,-8.71
1589,-10.06
1600,-11.58
1611,-13.05
1623,-14.27
1635,-15.04
1647,-15.14
1659,-14.37
1671,-12.62
1683,-9.91
1695,-6.47
1707,-2.63
1719,1.2
1731,4.71
1743,7.68
1755,9.99
1767,11.66
1779,12.71
1790,13.19
1801,13.17
1813,12.73
1825,11.97
1837,11.03
1849,9.99
1861,8.98
1873,8.1
1885,7.42
1897,7.0
1909,6.87
1921,7.03
1933,7.38
1945,7.84
1957,8.27
1969,8.53
1980,8.47
1991,8.03
2003,7.18
2015,5.95
2027,4.46
2039,2.86
2051,1.31
2063,-0.07
2075,-1.24
2087,-2.24
2099,-3.15
2111,-4.09
2123,-5.13
2135,-6.26
2147,-7.42
2159,-8.56
2170,-9.66
2181,-10.78
2193,-12.05
2205,-13.57
2217,-15.33
2229,-17.17
2241,-18.77
2253,-19.76
2265,-19.78
2277,-18.57
2289,-16.11
2301,-12.55
2313,-8.25
2325,-3.67
2337,0.77
2349,4.68
2360,7.87
2371,10.23
2383,11.83
2395,12.75
2407,13.08
2419,12.92
2431,12.33
2443,11.39
2455,10.22
2467,8.96
2479,7.78
2491,6.86
2503,6.3
2515,6.1
2527,6.17
2539,6.33
2550,6.42
2561,6.29
2573,5.9
2585,5.26
2597,4.4
2609,3.37
2621,2.21
2633,0.97
2645,-0.27
2657,-1.47
2669,-2.63
2681,-3.78
2693,-5.02
2705,-6.36
2717,-7.75
2729,-9.05
2740,-10.14
2751,-11.01
2763,-11.77
2775,-12.64
2787,-13.8
2799,-15.33
2811,-17.06
2823,-18.6
2835,-19.48
2847,-19.27
2859,-17.77
2871,-15.01
2883,-11.26
2895,-6.9
2907,-2.32
2919,2.12
2930,6.16
2941,9.58
2953,12.25
2965,14.05
2977,14.96
2989,15.05
3001,14.47
3013,13.46
3025,12.26
3037,11.09
3049,10.1
3061,9.33
3073,8.81
3085,8.52
3097,8.42
3109,8.45
3120,8.56
3131,8.64
3143,8.57
3155,8.29
3167,7.78
3179,7.08
3191,6.25
3203,5.33
3215,4.32
3227,3.19
3239,1.89
3251,0.42
3263,-1.17
3275,-2.79
3287,-4.35
3299,-5.78
3310,-7.09
3321,-8.31
3333,-9.51
3345,-10.72
3357,-11.94
3369,-13.16
3381,-14.42
3393,-15.74
3405,-17.09
3417,-18.38
3429,-19.34
3441,-19.55
3453,-18.65
3465,-16.4
3477,-12.85
3489,-8.35
3500,-3.41
3511,1.45
3523,5.78
3535,9.35
3547,12.04
3559,13.79
3571,14.62
3583,14.61
3595,13.91
3607,12.79
3619,11.51
3631,10.33
3643,9.42
3655,8.84
3667,8.6
3679,8.62
3690,8.82
3701,9.07
3713,9.29
3725,9.4
3737,9.41
3749,9.41
3761,9.44
3773,9.52
3785,9.57
3797,9.41
3809,8.89
3821,7.96
3833,6.68
3845,5.24
3857,3.84
3869,2.59
3880,1.48
3891,0.4
3903,-0.76
3915,-2.08
3927,-3.55
3939,-5.08
3951,-6.56
3963,-7.9
3975,-9.13
3987,-10.31
3999,-11.5
4011,-12.73
4023,-13.95
4035,-15.07
4047,-16.06
4059,-16.97
4070,-17.98
4081,-19.25
4093,-20.73
4105,-22.15
4117,-22.97
4129,-22.66
4141,-20.85
4153,-17.56
4165,-13.15
4177,-8.17
4189,-3.2
4201,1.36
4213,5.35
4225,8.74
4237,11.58
4249,13.86
4260,15.53
4271,16.52
4283,16.77
4295,16.3
4307,15.26
4319,13.91
4331,12.57
4343,11.53
4355,10.94
4367,10.78
4379,10.91
4391,11.13
4403,11.31
4415,11.38
4427,11.33
4439,11.13
4450,10.73
4461,10.07
4473,9.12
4485,7.98
4497,6.8
4509,5.76
4521,4.92
4533,4.26
4545,3.64
4557,2.97
4569,2.23
4581,1.48
4593,0.77
4605,0.09
4617,-0.67
4629,-1.65
4640,-2.89
4651,-4.31
4663,-5.7
4675,-6.89
4687,-7.8
4699,-8.53
4711,-9.25
4723,-10.11
4735,-11.19
4747,-12.42
4759,-13.71
4771,-14.95
4783,-16.03
4795,-16.79
4807,-17.0
4819,-16.37
4830,-14.65
4841,-11.76
4853,-7.84
4865,-3.27
4877,1.47
4889,5.94
4901,9.85
4913,13.06
4925,15.56
4937,17.37
4949,18.56
4961,19.15
4973,19.23
4985,18.9
4997,18.31
5009,17.62
5020,16.95
5031,16.35
5043,15.79
5055,15.21
5067,14.56
5079,13.78
5091,12.83
5103,11.69
5115,10.26
5127,8.45
5139,6.2
5151,3.55
5163,0.64
5175,-2.31
5187,-5.08
5199,-7.56
5210,-9.72
5221,-11.58
5233,-13.14
5245,-14.38
5257,-15.29
5269,-15.9
5281,-16.33
5293,-16.74
5305,-17.27
5317,-17.92
5329,-18.57
5341,-19.06
5353,-19.23
5365,-19.07
5377,-18.69
5389,-18.26
5400,-18.0
5411,-18.07
5423,-18.54
5435,-19.43
5447,-20.62
5459,-21.87
5471,-22.84
5483,-23.1
5495,-22.25
5507,-20.05
5519,-16.52
5531,-11.97
5543,-6.89
5555,-1.81
5567,2.84
5579,6.86
5590,10.17
5601,12.79
5613,14.7
5625,15.87
5637,16.3
5649,16.06
5661,15.32
5673,14.33
5685,13.32
5697,12.47
5709,11.84
5721,11.43
5733,11.21
5745,11.13
5757,11.15
5769,11.17
5780,11.06
5791,10.68
5803,9.93
5815,8.76
5827,7.24
5839,5.53
5851,3.85
5863,2.4
5875,1.31
5887,0.57
5899,0.06
5911,-0.41
5923,-0.96
5935,-1.64
5947,-2.44
5959,-3.31
5970,-4.2
5981,-5.12
5993,-6.1
6005,-7.14
6017,-8.2
6029,-9.19
6041,-10.02
6053,-10.6
6065,-10.98
6077,-11.23
6089,-11.55
6101,-12.14
6113,-13.17
6125,-14.68
6137,-16.54
6149,-18.48
6160,-20.1
6171,-20.97
6183,-20.73
6195,-19.2
6207,-16.38
6219,-12.44
6231,-7.71
6243,-2.53
6255,2.69
6267,7.62
6279,11.96
6291,15.52
6303,18.16
6315,19.85
6327,20.61
6339,20.5
6350,19.67
6361,18.31
6373,16.67
6385,15.06
6397,13.73
6409,12.87
6421,12.56
6433,12.74
6445,13.28
6457,14.03
6469,14.83
6481,15.58
6493,16.15
6505,16.46
6517,16.44
6529,16.07
6540,15.4
6551,14.52
6563,13.52
6575,12.46
6587,11.39
6599,10.33
6611,9.3
6623,8.32
6635,7.39
6647,6.46
6659,5.49
6671,4.4
6683,3.17
6695,1.82
6707,0.42
6719,-0.98
6730,-2.33
6741,-3.6
6753,-4.83
6765,-6.02
6777,-7.19
6789,-8.36
6801,-9.57
6813,-10.87
6825,-12.36
6837,-14.04
6849,-15.81
6861,-17.38
6873,-18.37
6885,-18.37
6897,-17.13
6909,-14.64
6920,-11.17
6931,-7.16
6943,-3.09
6955,0.68
6967,3.91
6979,6.54
6991,8.56
7003,9.92
7015,10.59
7027,10.58
7039,9.97
7051,8.92
7063,7.66
7075,6.39
7087,5.28
7099,4.39
7110,3.76
7121,3.39
7133,3.25
7145,3.29
7157,3.45
7169,3.69
7181,3.97
7193,4.32
7205,4.71
7217,5.07
7229,5.22
7241,4.99
7253,4.23
7265,2.99
7277,1.44
7289,-0.13
7300,-1.53
7311,-2.65
7323,-3.57
7335,-4.46
7347,-5.47
7359,-6.65
7371,-7.92
7383,-9.1
7395,-10.03
7407,-10.64
7419,-10.99
7431,-11.3
7443,-11.8
7455,-12.69
7467,-14.02
7479,-15.64
7490,-17.22
7501,-18.33
7513,-18.54
7525,-17.52
7537,-15.16
7549,-11.58
7561,-7.11
7573,-2.2
7585,2.68
7597,7.16
7609,11.02
7621,14.14
7633,16.47
7645,17.94
7657,18.53
7669,18.3
7680,17.44
7691,16.27
7703,15.17
7715,14.38
7727,13.99
7739,13.87
7751,13.85
7763,13.75
7775,13.55
7787,13.31
7799,13.15
7811,13.09
7823,13.07
7835,12.9
7847,12.42
7859,11.56
7870,10.37
7881,8.99
7893,7.58
7905,6.27
7917,5.07
7929,3.95
7941,2.85
7953,1.71
7965,0.55
7977,-0.62
7989,-1.81
8001,-3.04
8013,-4.31
8025,-5.63
8037,-6.94
8049,-8.13
8060,-9.12
8071,-9.89
8083,-10.49
8095,-11.08
8107,-11.86
8119,-12.97
8131,-14.4
8143,-15.99
8155,-17.37
8167,-18.11
8179,-17.78
8191,-16.12
8203,-13.14
8215,-9.14
8227,-4.58
8239,-0.0
8250,4.19
8261,7.75
8273,10.65
8285,12.94
8297,14.71
8309,15.94
8321,16.59
8333,16.61
8345,16.06
8357,15.09
8369,13.93
8381,12.81
8393,11.85
8405,11.1
8417,10.49
8429,9.97
8440,9.52
8451,9.14
8463,8.86
8475,8.69
8487,8.59
8499,8.5
8511,8.35
8523,8.04
8535,7.52
8547,6.75
8559,5.74
8571,4.52
8583,3.17
8595,1.77
8607,0.42
8619,-0.82
8630,-1.92
8641,-2.91
8653,-3.89
8665,-4.91
8677,-6.02
8689,-7.15
8701,-8.21
8713,-9.08
8725,-9.72
8737,-10.2
8749,-10.66
8761,-11.28
8773,-12.19
8785,-13.41
8797,-14.86
8809,-16.46
8820,-18.08
8831,-19.59
8843,-20.8
8855,-21.49
8867,-21.43
8879,-20.45
8891,-18.51
8903,-15.76
8915,-12.49
8927,-9.06
8939,-5.77
8951,-2.82
8963,-0.29
8975,1.83
8987,3.54
8999,4.83
9010,5.65
9021,5.98
9033,5.86
9045,5.39
9057,4.7
9069,3.94
9081,3.23
9093,2.66
9105,2.32
9117,2.3
9129,2.63
9141,3.27
9153,4.08
9165,4.87
9177,5.46
9189,5.72
9200,5.61
9211,5.14
9223,4.35
9235,3.33
9247,2.21
9259,1.15
9271,0.27
9283,-0.4
9295,-0.92
9307,-1.45
9319,-2.13
9331,-2.98
9343,-3.92
9355,-4.74
9367,-5.3
9379,-5.58
9390,-5.66
9401,-5.68
9413,-5.78
9425,-5.99
9437,-6.24
9449,-6.46
9461,-6.59
9473,-6.63
9485,-6.68
9497,-6.91
9509,-7.46
9521,-8.41
9533,-9.7
9545,-11.13
9557,-12.41
9569,-13.24
9580,-13.42
9591,-12.8
9603,-11.35
9615,-9.12
9627,-6.23
9639,-2.86
9651,0.68
9663,4.05
9675,6.91
9687,9.03
9699,10.34
9711,10.88
9723,10.83
9735,10.39
9747,9.77
9759,9.15
9770,8.68
9781,8.46
9793,8.49
9805,8.74
9817,9.11
9829,9.52
9841,9.9
9853,10.23
9865,10.52
9877,10.73
9889,10.85
9901,10.84
9913,10.71
9925,10.44
9937,10.04
9949,9.5
9960,8.77
9971,7.81
9983,6.62
9995,5.26
10007,3.85
10019,2.52
10031,1.38
10043,0.47
10055,-0.22
10067,-0.8
10079,-1.35
10091,-1.96
10103,-2.69
10115,-3.56
10127,-4.55
10139,-5.59
10150,-6.64
10161,-7.63
10173,-8.58
10185,-9.51
10197,-10.48
10209,-11.52
10221,-12.61
10233,-13.64
10245,-14.38
10257,-14.65
10269,-14.28
10281,-13.18
10293,-11.36
10305,-8.92
10317,-6.02
10329,-2.88
10340,0.22
10351,3.02
10363,5.29
10375,6.93
10387,7.94
10399,8.39
10411,8.36
10423,7.92
10435,7.11
10447,5.98
10459,4.66
10471,3.33
10483,2.18
10495,1.37
10507,0.93
10519,0.81
10530,0.89
10541,1.03
10553,1.11
10565,1.05
10577,0.84
10589,0.5
10601,0.06
10613,-0.46
10625,-1.04
10637,-1.71
10649,-2.47
10661,-3.29
10673,-4.13
10685,-4.93
10697,-5.65
10709,-6.32
10720,-7.0
10731,-7.8
10743,-8.76
10755,-9.84
10767,-10.92
10779,-11.86
10791,-12.55
10803,-12.99
10815,-13.26
10827,-13.47
10839,-13.68
10851,-13.84
10863,-13.88
10875,-13.71
10887,-13.34
10899,-12.9
10910,-12.53
10921,-12.29
10933,-12.1
10945,-11.75
10957,-10.97
10969,-9.61
10981,-7.65
10993,-5.2
11005,-2.41
11017,0.56
11029,3.63
11041,6.66
11053,9.54
11065,12.04
11077,14.0
11089,15.3
11100,15.92
11111,15.94
11123,15.52
11135,14.83
11147,14.05
11159,13.36
11171,12.9
11183,12.73
11195,12.81
11207,13.02
11219,13.21
11231,13.28
11243,13.19
11255,12.95
11267,12.58
11279,12.08
11290,11.41
11301,10.53
11313,9.48
11325,8.32
11337,7.17
11349,6.09
11361,5.1
11373,4.14
11385,3.12
11397,2.03
11409,0.9
11421,-0.18
11433,-1.12
11445,-1.85
11457,-2.45
11469,-3.01
11480,-3.69
11491,-4.56
11503,-5.6
11515,-6.71
11527,-7.77
11539,-8.71
11551,-9.57
11563,-10.48
11575,-11.56
11587,-12.88
11599,-14.4
11611,-15.95
11623,-17.31
11635,-18.26
11647,-18.61
11659,-18.23
11670,-17.04
11681,-15.03
11693,-12.26
11705,-8.89
11717,-5.2
11729,-1.53
11741,1.82
11753,4.61
11765,6.75
11777,8.26
11789,9.19
11801,9.58
11813,9.45
11825,8.81
11837,7.76
11849,6.54
11860,5.41
11871,4.67
11883,4.45
11895,4.73
11907,5.33
11919,6.02
11931,6.61
11943,6.97
11955,7.07
11967,6.88
11979,6.43
11991,5.72
12003,4.81
12015,3.79
12027,2.8
12039,1.96
12050,1.36
12061,0.91
12073,0.49
12085,-0.11
12097,-1.01
12109,-2.23
12121,-3.66
12133,-5.14
12145,-6.53
12157,-7.73
12169,-8.73
12181,-9.6
12193,-10.42
12205,-11.27
12217,-12.18
12229,-13.16
12240,-14.18
12251,-15.24
12263,-16.33
12275,-17.47
12287,-18.66
12299,-19.86
12311,-20.86
12323,-21.4
12335,-21.17
12347,-19.95
12359,-17.68
12371,-14.47
12383,-10.56
12395,-6.25
12407,-1.83
12419,2.41
12430,6.15
12441,9.13
12453,11.16
12465,12.3
12477,12.76
12489,12.85
12501,12.81
12513,12.72
12525,12.48
12537,11.96
12549,11.15
12561,10.22
12573,9.48
12585,9.25
12597,9.61
12609,10.4
12620,11.28
12631,11.99
12643,12.41
12655,12.64
12667,12.9
12679,13.37
12691,14.04
12703,14.73
12715,15.22
12727,15.48
12739,15.77
12751,16.28
12763,16.81
12775,16.54
12787,14.26
12799,9.23
12810,1.63
12821,-7.34
12833,-16.09
12845,-23.26
12857,-28.3
12869,-31.44
12881,-33.09
12893,-33.24
12905,-31.33
12917,-26.72
12929,-19.53
12941,-10.96
12953,-2.96
12965,2.74
12977,5.49
12989,6.14
13000,6.41
13011,7.92
13023,11.37
13035,16.32
13047,21.67
13059,26.29
13071,29.84
13083,32.03
13095,32.99
13107,32.84
13119,31.82
13131,30.28
13143,28.6
13155,26.95
13167,24.98
13179,21.85
13190,16.38
13201,8.14
13213,-2.43
13225,-13.7
13237,-23.67
13249,-30.98
13261,-35.6
13273,-38.81
13285,-42.16
13297,-46.77
13309,-52.2
13321,-57.21
13333,-60.36
13345,-60.92
13357,-59.34
13369,-56.68
13380,-54.17
13391,-50.94
13403,-46.73
13415,-39.84
13427,-30.5
13439,-20.09
13451,-10.25
13463,-1.72
13475,6.22
13487,14.14
13499,22.49
13511,30.07
13523,36.16
13535,40.32
13547,42.73
13559,43.86
13570,44.0
13581,43.48
13593,42.17
13605,39.82
13617,36.27
13629,32.26
13641,28.9
13653,27.32
13665,28.17
13677,31.33
13689,36.75
13701,43.98
13713,52.19
13725,60.29
13737,67.64
13749,73.87
13760,78.87
13771,82.51
13783,80.22
13795,69.79
13807,52.56
13819,32.65
13831,13.93
13843,-1.55
13855,-13.49
13867,-22.5
13879,-29.38
13891,-35.01
13903,-39.21
13915,-41.52
13927,-41.85
13939,-40.74
13950,-38.96
13961,-37.27
13973,-36.26
13985,-36.31
13997,-36.99
14009,-37.5
14021,-37.21
14033,-35.93
14045,-33.92
14057,-31.56
14069,-29.17
14081,-26.89
14093,-24.74
14105,-22.57
14117,-19.87
14129,-16.19
14140,-11.47
14151,-6.14
14163,-0.83
14175,3.91
14187,7.69
14199,10.35
14211,11.85
14223,12.49
14235,12.68
14247,12.78
14259,13.0
14271,13.48
14283,14.25
14295,15.23
14307,16.22
14319,16.82
14330,16.81
14341,16.13
14353,14.78
14365,12.73
14377,9.86
14389,6.06
14401,1.38
14413,-3.96
14425,-9.64
14437,-14.96
14449,-18.99
14461,-20.93
14473,-20.41
14485,-17.57
14497,-12.93
14509,-7.06
14520,0.23
14531,8.02
14543,14.46
14555,17.31
14567,14.75
14579,6.09
14591,-7.87
14603,-24.75
14615,-41.0
14627,-53.54
14639,-60.73
14651,-62.72
14663,-61.02
14675,-57.71
14687,-54.54
14699,-52.49
14710,-51.9
14721,-52.47
14733,-53.8
14745,-54.95
14757,-53.97
14769,-48.52
14781,-36.9
14793,-19.12
14805,2.8
14817,25.61
14829,46.69
14841,64.39
14853,78.17
14865,88.49
14877,95.96
14889,100.64
14900,102.0
14911,99.42
14923,91.28
14935,79.45
14947,65.74
14959,51.48
14971,37.51
14983,24.2
14995,11.84
15007,0.76
15019,-8.59
15031,-15.79
15043,-20.53
15055,-23.35
15067,-25.06
15079,-26.29
15090,-27.53
15101,-28.64
15113,-29.4
15125,-29.59
15137,-29.14
15149,-27.91
15161,-26.07
15173,-23.78
15185,-21.08
15197,-18.01
15209,-14.67
15221,-11.36
15233,-8.42
15245,-6.14
15257,-4.55
15269,-3.55
15280,-2.89
15291,-2.22
15303,-1.24
15315,0.29
15327,2.44
15339,5.11
15351,8.02
15363,10.87
15375,13.31
15387,15.14
15399,16.32
15411,17.0
15423,17.52
15435,18.24
15447,19.47
15459,21.49
15470,23.82
15481,26.14
15493,28.09
15505,29.31
15517,29.42
15529,28.31
15541,26.17
15553,23.4
15565,20.36
15577,17.25
15589,14.09
15601,10.64
15613,6.62
15625,1.72
15637,-3.97
15649,-9.96
15660,-15.58
15671,-20.29
15683,-23.87
15695,-26.45
15707,-28.4
15719,-30.13
15731,-31.9
15743,-33.38
15755,-33.78
15767,-32.29
15779,-28.54
15791,-22.78
15803,-15.64
15815,-7.98
15827,0.15
15839,7.31
15850,11.1
15861,9.45
15873,1.94
15885,-9.7
15897,-22.23
15909,-31.93
15921,-35.97
15933,-33.27
15945,-24.85
15957,-12.82
15969,0.57
15981,13.53
15993,24.92
16005,33.94
16017,40.0
16029,42.62
16040,41.6
16051,37.07
16063,29.79
16075,20.94
16087,11.69
16099,2.87
16111,-5.16
16123,-12.42
16135,-19.18
16147,-25.58
16159,-31.58
16171,-36.76
16183,-40.49
16195,-42.25
16207,-41.95
16219,-39.98
16230,-37.16
16241,-34.45
16253,-32.69
16265,-32.5
16277,-34.26
16289,-37.87
16301,-42.45
16313,-46.12
16325,-46.51
16337,-41.07
16349,-28.8
16361,-10.82
16373,9.86
16385,29.47
16397,45.0
16409,55.23
16420,60.21
16431,61.77
16443,61.48
16455,59.95
16467,57.1
16479,52.93
16491,47.97
16503,43.43
16515,40.63
16527,40.33
16539,42.25
16551,44.99
16563,46.58
16575,45.22
16587,40.07
16599,31.59
16610,21.38
16621,11.53
16633,3.62
16645,-1.72
16657,-5.01
16669,-7.38
16681,-9.74
16693,-12.39
16705,-14.91
16717,-16.71
16729,-17.49
16741,-17.44
16753,-17.12
16765,-17.09
16777,-17.67
16789,-18.63
16800,-19.56
16811,-20.01
16823,-19.76
16835,-18.93
16847,-17.9
16859,-17.11
16871,-16.94
16883,-17.52
16895,-18.7
16907,-20.11
16919,-21.34
16931,-22.07
16943,-22.15
16955,-21.61
16967,-20.61
16979,-19.37
16990,-17.98
17001,-16.45
17013,-14.75
17025,-12.81
17037,-10.58
17049,-8.08
17061,-5.4
17073,-2.64
17085,0.1
17097,2.83
17109,5.54
17121,8.17
17133,10.59
17145,12.55
17157,13.82
17169,14.26
17180,13.92
17191,12.98
17203,11.71
17215,10.34
17227,9.01
17239,7.78
17251,6.64
17263,5.59
17275,4.63
17287,3.77
17299,3.0
17311,2.36
17323,1.85
17335,1.48
17347,1.19
17359,0.96
17370,0.74
17381,0.52
17393,0.31
17405,0.12
17417,-0.08
17429,-0.34
17441,-0.76
17453,-1.4
17465,-2.28
17477,-3.28
17489,-4.28
17501,-5.18
17513,-5.92
17525,-6.53
17537,-7.03
17549,-7.44
17560,-7.79
17571,-8.1
17583,-8.45
17595,-8.95
17607,-9.67
17619,-10.65
17631,-11.83
17643,-13.05
17655,-14.12
17667,-14.86
17679,-15.09
17691,-14.67
17703,-13.5
17715,-11.52
17727,-8.7
17739,-5.37
17750,-1.91
17761,1.23
17773,3.74
17785,5.45
17797,6.39
17809,6.73
17821,6.68
17833,6.45
17845,6.1
17857,5.68
17869,5.2
17881,4.63
17893,3.98
17905,3.28
17917,2.58
17929,1.95
17940,1.43
17951,1.02
17963,0.67
17975,0.37
17987,0.11
17999,-0.06
18011,-0.12
18023,-0.05
18035,0.1
18047,0.18
18059,0.03
18071,-0.48
18083,-1.36
18095,-2.56
18107,-3.91
18119,-5.23
18130,-6.38
18141,-7.29
18153,-7.97
18165,-8.53
18177,-9.07
18189,-9.74
18201,-10.59
18213,-11.61
18225,-12.64
18237,-13.43
18249,-13.66
18261,-13.04
18273,-11.43
18285,-8.86
18297,-5.54
18309,-1.82
18320,1.94
18331,5.39
18343,8.29
18355,10.52
18367,12.0
18379,12.78
18391,12.96
18403,12.68
18415,12.11
18427,11.42
18439,10.71
18451,10.0
18463,9.32
18475,8.7
18487,8.19
18499,7.87
18510,7.73
18521,7.73
18533,7.73
18545,7.62
18557,7.33
18569,6.86
18581,6.27
18593,5.61
18605,4.88
18617,4.04
18629,3.05
18641,1.91
18653,0.66
18665,-0.62
18677,-1.83
18689,-2.96
18700,-4.04
18711,-5.13
18723,-6.3
18735,-7.54
18747,-8.84
18759,-10.12
18771,-11.33
18783,-12.5
18795,-13.7
18807,-14.97
18819,-16.22
18831,-17.18
18843,-17.46
18855,-16.65
18867,-14.53
18879,-11.18
18890,-6.97
18901,-2.43
18913,1.91
18925,5.73
18937,8.93
18949,11.58
18961,13.78
18973,15.57
18985,16.85
18997,17.55
19009,17.61
19021,17.13
19033,16.32
19045,15.41
19057,14.58
19069,13.89
19080,13.29
19091,12.66
19103,11.98
19115,11.25
19127,10.56
19139,9.99
19151,9.6
19163,9.39
19175,9.3
19187,9.21
19199,9.0
19211,8.55
19223,7.81
19235,6.78
19247,5.53
19259,4.17
19270,2.81
19281,1.51
19293,0.26
19305,-0.93
19317,-2.06
19329,-3.1
19341,-4.01
19353,-4.83
19365,-5.68
19377,-6.72
19389,-8.04
19401,-9.58
19413,-11.07
19425,-12.11
19437,-12.28
19449,-11.31
19460,-9.2
19471,-6.16
19483,-2.6
19495,1.09
19507,4.59
19519,7.73
19531,10.43
19543,12.66
19555,14.37
19567,15.53
19579,16.13
19591,16.24
19603,15.94
19615,15.36
19627,14.58
19639,13.65
19650,12.63
19661,11.62
19673,10.74
19685,10.11
19697,9.74
19709,9.61
19721,9.68
19733,9.9
19745,10.29
19757,10.88
19769,11.63
19781,12.42
19793,13.03
19805,13.3
19817,13.15
19829,12.69
19840,12.1
19851,11.57
19863,11.18
19875,10.81
19887,10.26
19899,9.35
19911,8.01
19923,6.33
19935,4.5
19947,2.71
19959,1.06
19971,-0.39
19983,-1.6
19995,-2.43
20007,-2.7
20019,-2.28
20030,-1.15
20041,0.47
20053,2.24
20065,3.79
20077,4.91
20089,5.59
20101,5.94
20113,6.08
20125,6.0
20137,5.58
20149,4.62
20161,3.04
20173,0.9
20185,-1.61
20197,-4.17
20209,-6.54
20220,-8.58
20231,-10.24
20243,-11.56
20255,-12.6
20267,-13.38
20279,-13.9
20291,-14.11
20303,-14.0
20315,-13.57
20327,-12.87
20339,-11.99
20351,-11.09
20363,-10.36
20375,-9.96
20387,-9.97
20399,-10.34
20410,-10.92
20421,-11.48
20433,-11.87
20445,-12.04
20457,-12.06
20469,-12.09
20481,-12.26
20493,-12.66
20505,-13.25
20517,-13.9
20529,-14.43
20541,-14.61
20553,-14.25
20565,-13.23
20577,-11.51
20589,-9.14
20600,-6.25
20611,-3.06
20623,0.2
20635,3.28
20647,5.91
20659,7.9
20671,9.16
20683,9.7
20695,9.65
20707,9.18
20719,8.43
20731,7.49
20743,6.39
20755,5.13
20767,3.79
20779,2.45
20790,1.23
20801,0.23
20813,-0.5
20825,-0.91
20837,-0.99
20849,-0.75
20861,-0.25
20873,0.37
20885,0.89
20897,1.1
20909,0.88
20921,0.24
20933,-0.69
20945,-1.74
20957,-2.77
20969,-3.74
20980,-4.68
20991,-5.65
