seconds,BVP
5,213.54
17,228.42
29,227.07
41,215.25
53,199.07
65,182.86
77,170.4
88,165.49
99,171.97
111,186.7
123,205.88
135,226.43
147,246.88
159,265.72
171,279.81
183,286.33
195,284.17
207,274.12
219,254.58
231,225.08
243,186.76
255,140.28
267,91.11
278,42.96
289,-2.04
301,-42.75
313,-78.53
325,-109.78
337,-135.29
349,-151.79
361,-155.39
373,-143.66
385,-119.15
397,-88.45
409,-59.68
421,-39.4
433,-30.66
445,-32.03
457,-39.34
468,-48.75
479,-57.51
491,-65.84
503,-75.0
515,-85.8
527,-97.8
539,-109.57
551,-119.88
563,-128.71
575,-137.3
587,-146.6
599,-157.9
611,-171.4
623,-186.2
635,-200.77
647,-213.58
658,-223.79
669,-231.45
681,-237.44
693,-241.9
705,-244.95
717,-246.12
729,-244.24
741,-237.82
753,-225.57
765,-206.38
777,-178.86
789,-147.14
801,-113.63
813,-80.3
825,-48.4
837,-18.56
848,8.73
859,33.0
871,53.56
883,69.78
895,81.25
907,88.94
919,94.3
931,99.17
943,105.23
955,113.43
967,123.84
979,135.66
991,147.78
1003,159.18
1015,170.07
1027,180.97
1038,192.34
1049,204.2
1061,215.86
1073,226.55
1085,236.04
1097,245.08
1109,254.74
1121,265.79
1133,277.15
1145,286.01
1157,289.54
1169,286.75
1181,279.5
1193,271.65
1205,266.8
1217,266.24
1228,269.06
1239,273.49
1251,279.25
1263,288.74
1275,305.93
1287,333.73
1299,371.7
1311,415.62
1323,459.26
1335,497.64
1347,529.17
1359,555.25
1371,577.74
1383,596.04
1395,605.63
1407,599.29
1418,570.53
1429,517.05
1441,442.52
1453,355.95
1465,268.35
1477,188.88
1489,122.11
1501,67.7
1513,22.46
1525,-16.95
1537,-51.94
1549,-81.79
1561,-104.85
1573,-120.07
1585,-128.06
1597,-131.03
1608,-131.79
1619,-132.76
1631,-135.44
1643,-140.25
1655,-146.8
1667,-153.84
1679,-159.2
1691,-159.59
1703,-151.3
1715,-131.55
1727,-100.26
1739,-61.0
1751,-20.62
1763,12.88
1775,33.28
1787,38.25
1798,30.01
1809,13.93
1821,-4.13
1833,-20.04
1845,-32.2
1857,-41.11
1869,-48.03
1881,-53.65
1893,-57.75
1905,-59.26
1917,-57.08
1929,-51.03
1941,-42.59
1953,-34.7
1965,-30.99
1977,-34.58
1988,-46.65
1999,-65.97
2011,-89.2
2023,-112.38
2035,-132.78
2047,-150.21
2059,-167.04
2071,-187.14
2083,-214.22
2095,-250.39
2107,-295.82
2119,-348.72
2131,-405.69
2143,-461.96
2155,-511.69
2167,-549.04
2178,-570.19
2189,-574.97
2201,-567.65
2213,-555.91
2225,-547.9
2237,-548.37
2249,-556.35
2261,-564.86
2273,-563.8
2285,-544.28
2297,-502.16
2309,-439.39
2321,-362.58
2333,-280.0
2345,-198.19
2357,-120.9
2368,-49.31
2379,16.29
2391,75.04
2403,124.93
2415,163.55
2427,189.38
2439,202.7
2451,205.88
2463,202.46
2475,196.33
2487,190.45
2499,185.91
2511,180.94
2523,171.46
2535,152.58
2547,121.42
2558,79.6
2569,33.78
2581,-6.23
2593,-31.68
2605,-39.06
2617,-31.38
2629,-15.74
2641,1.11
2653,17.15
2665,35.89
2677,63.5
2689,104.27
2701,157.55
2713,217.48
2725,276.1
2737,326.3
2748,363.34
2759,384.08
2771,385.28
2783,363.56
2795,317.9
2807,252.88
2819,180.26
2831,116.44
2843,75.93
2855,64.75
2867,77.06
2879,97.16
2891,105.84
2903,88.43
2915,40.41
2927,-31.8
2938,-114.97
2949,-195.56
2961,-265.5
2973,-324.37
2985,-377.68
2997,-432.6
3009,-493.47
3021,-559.99
3033,-627.74
3045,-690.47
3057,-742.01
3069,-777.3
3081,-791.99
3093,-782.1
3105,-744.39
3117,-678.34
3128,-587.95
3139,-482.0
3151,-372.2
3163,-269.91
3175,-183.02
3187,-114.76
3199,-64.2
3211,-27.74
3223,-1.15
3235,19.23
3247,35.8
3259,49.61
3271,60.41
3283,67.1
3295,68.54
3307,64.51
3318,55.89
3329,44.79
3341,33.99
3353,26.15
3365,23.14
3377,25.51
3389,32.52
3401,42.36
3413,52.9
3425,61.95
3437,67.73
3449,69.22
3461,66.12
3473,58.85
3485,48.32
3497,35.74
3508,22.53
3519,10.04
3531,-0.42
3543,-7.77
3555,-11.12
3567,-9.87
3579,-3.6
3591,7.87
3603,24.52
3615,46.15
3627,72.22
3639,101.97
3651,134.26
3663,167.66
3675,200.5
3687,231.07
3698,258.19
3709,281.53
3721,301.9
3733,320.97
3745,340.4
3757,360.53
3769,379.57
3781,393.63
3793,398.16
3805,389.92
3817,368.45
3829,336.43
3841,298.79
3853,261.26
3865,228.74
3877,204.61
3888,190.28
3899,185.23
3911,187.34
3923,193.0
3935,198.14
3947,199.32
3959,194.87
3971,185.28
3983,172.78
3995,160.21
4007,149.75
4019,142.31
4031,137.35
4043,133.59
4055,129.83
4067,125.66
4078,121.69
4089,119.38
4101,120.2
4113,124.52
4125,131.02
4137,136.51
4149,137.29
4161,131.05
4173,118.35
4185,102.9
4197,89.92
4209,83.8
4221,85.96
4233,94.56
4245,105.58
4257,114.97
4268,120.55
4279,122.35
4291,121.95
4303,120.75
4315,118.92
4327,115.34
4339,108.7
4351,98.52
4363,85.76
4375,72.46
4387,60.73
4399,51.74
4411,45.15
4423,39.06
4435,30.5
4447,16.59
4458,-4.26
4469,-31.25
4481,-60.8
4493,-87.45
4505,-105.79
4517,-113.06
4529,-110.78
4541,-104.36
4553,-100.34
4565,-102.81
4577,-110.73
4589,-118.28
4601,-117.98
4613,-105.05
4625,-80.42
4637,-50.49
4648,-24.06
4659,-7.73
4671,-2.84
4683,-5.4
4695,-9.26
4707,-10.09
4719,-8.57
4731,-10.17
4743,-21.79
4755,-47.67
4767,-86.39
4779,-131.2
4791,-172.36
4803,-200.83
4815,-210.54
4827,-199.1
4838,-167.1
4849,-116.92
4861,-52.25
4873,22.03
4885,99.38
4897,171.95
4909,231.74
4921,272.02
4933,288.93
4945,282.07
4957,254.51
4969,211.44
4981,158.81
4993,101.81
5005,44.27
5017,-10.72
5028,-59.57
5039,-97.11
5051,-116.82
5063,-113.18
5075,-85.47
5087,-39.91
5099,10.55
5111,49.9
5123,64.6
5135,48.03
5147,1.98
5159,-65.07
5171,-141.16
5183,-213.92
5195,-271.92
5207,-305.19
5218,-306.2
5229,-272.15
5241,-207.77
5253,-126.57
5265,-48.49
5277,5.71
5289,22.34
5301,0.33
5313,-48.04
5325,-102.2
5337,-141.67
5349,-154.37
5361,-140.85
5373,-112.88
5385,-87.41
5397,-78.6
5408,-91.73
5419,-121.08
5431,-152.95
5443,-171.77
5455,-166.8
5467,-136.71
5479,-89.97
5491,-41.09
5503,-4.4
5515,11.9
5527,8.87
5539,-4.42
5551,-15.58
5563,-14.27
5575,4.11
5587,37.91
5598,81.17
5609,126.35
5621,166.22
5633,194.53
5645,206.65
5657,200.06
5669,175.66
5681,138.47
5693,97.2
5705,61.68
5717,39.48
5729,33.04
5741,38.79
5753,48.99
5765,54.89
5777,50.25
5788,33.47
5799,7.91
5811,-19.5
5823,-40.66
5835,-48.88
5847,-41.07
5859,-18.77
5871,11.94
5883,41.81
5895,60.87
5907,61.67
5919,42.37
5931,8.28
5943,-28.86
5955,-54.52
5967,-56.67
5978,-30.89
5989,17.42
6001,74.5
6013,123.35
6025,150.21
6037,149.14
6049,123.16
6061,81.32
6073,34.15
6085,-10.18
6097,-47.08
6109,-74.58
6121,-91.79
6133,-97.95
6145,-93.22
6157,-80.05
6168,-63.4
6179,-49.35
6191,-42.01
6203,-41.07
6215,-41.73
6227,-37.59
6239,-24.71
6251,-4.73
6263,15.17
6275,25.62
6287,19.71
6299,-3.08
6311,-36.3
6323,-69.08
6335,-90.85
6347,-95.6
6358,-83.89
6369,-61.74
6381,-37.34
6393,-17.67
6405,-6.31
6417,-3.48
6429,-7.3
6441,-15.47
6453,-26.1
6465,-37.43
6477,-47.02
6489,-51.6
6501,-48.09
6513,-35.17
6525,-14.53
6537,9.33
6548,30.95
6559,46.25
6571,54.21
6583,57.13
6595,58.96
6607,63.09
6619,70.58
6631,79.86
6643,87.68
6655,91.03
6667,88.48
6679,80.8
6691,70.54
6703,60.85
6715,54.37
6727,52.37
6738,54.36
6749,58.33
6761,61.47
6773,60.99
6785,55.15
6797,43.84
6809,28.56
6821,12.02
6833,-2.7
6845,-13.05
6857,-17.54
6869,-16.05
6881,-9.69
6893,-0.46
6905,9.32
6917,17.33
6928,21.76
6939,21.47
6951,16.27
6963,7.14
6975,-3.94
6987,-14.41
6999,-21.9
7011,-24.94
7023,-23.61
7035,-19.38
7047,-14.64
7059,-11.6
7071,-11.24
7083,-12.84
7095,-14.39
7107,-13.6
7118,-9.08
7129,-1.06
7141,8.7
7153,17.64
7165,23.47
7177,24.98
7189,22.35
7201,16.79
7213,9.95
7225,3.34
7237,-1.97
7249,-5.38
7261,-6.8
7273,-6.3
7285,-4.16
7297,-0.84
7308,3.17
7319,7.06
7331,9.84
7343,10.44
7355,8.06
7367,2.42
7379,-5.92
7391,-15.63
7403,-25.02
7415,-32.37
7427,-36.53
7439,-37.28
7451,-35.42
7463,-32.37
7475,-29.71
7487,-28.59
7498,-29.3
7509,-31.27
7521,-33.23
7533,-33.75
7545,-31.67
7557,-26.38
7569,-17.78
7581,-6.11
7593,8.07
7605,24.02
7617,40.54
7629,56.05
7641,68.75
7653,76.99
7665,79.73
7677,76.8
7688,69.07
7699,58.09
7711,45.92
7723,34.63
7735,26.01
7747,21.11
7759,20.05
7771,21.92
7783,25.06
7795,27.59
7807,27.97
7819,25.44
7831,20.37
7843,14.36
7855,9.67
7867,8.6
7878,12.72
7889,22.69
7901,38.25
7913,58.51
7925,82.01
7937,106.97
7949,131.34
7961,152.93
7973,169.9
7985,181.43
7997,188.2
8009,192.38
8021,196.83
8033,203.67
8045,213.62
8057,225.53
8068,237.09
8079,245.77
8091,249.79
8103,248.66
8115,243.21
8127,234.77
8139,223.62
8151,209.53
8163,192.14
8175,171.29
8187,147.01
8199,119.21
8211,88.08
8223,54.8
8235,21.75
8247,-9.84
8258,-38.12
8269,-60.57
8281,-74.42
8293,-78.17
8305,-73.06
8317,-62.55
8329,-50.86
8341,-41.66
8353,-40.32
8365,-50.12
8377,-70.89
8389,-99.44
8401,-132.14
8413,-167.32
8425,-204.86
8437,-244.38
8448,-284.01
8459,-324.69
8471,-366.72
8483,-409.03
8495,-449.57
8507,-486.8
8519,-521.58
8531,-556.1
8543,-592.1
8555,-602.4
8567,-566.37
8579,-481.18
8591,-365.11
8603,-242.54
8615,-128.03
8627,-25.47
8638,67.33
8649,154.28
8661,238.54
8673,317.19
8685,385.47
8697,443.05
8709,491.1
8721,532.11
8733,567.14
8745,595.7
8757,616.54
8769,628.33
8781,626.39
8793,606.17
8805,565.32
8817,500.95
8828,416.54
8839,317.5
8851,210.06
8863,100.97
8875,-3.04
8887,-98.17
8899,-182.12
8911,-253.39
8923,-311.32
8935,-355.54
8947,-387.25
8959,-408.4
8971,-420.25
8983,-422.82
8995,-416.02
9007,-399.29
9018,-372.14
9029,-334.84
9041,-288.38
9053,-235.35
9065,-179.35
9077,-123.74
9089,-71.07
9101,-23.32
9113,17.98
9125,51.44
9137,75.61
9149,89.26
9161,91.09
9173,79.76
9185,55.08
9197,18.96
9208,-23.71
9219,-65.23
9231,-96.42
9243,-108.81
9255,-97.48
9267,-63.38
9279,-13.96
9291,38.82
9303,82.34
9315,107.58
9327,111.99
9339,99.53
9351,78.39
9363,57.3
9375,42.14
9387,34.72
9398,33.44
9409,35.19
9421,37.42
9433,39.04
9445,39.83
9457,39.26
9469,35.6
9481,26.27
9493,9.12
9505,-16.38
9517,-49.05
9529,-87.09
9541,-128.94
9553,-174.94
9565,-227.21
9577,-288.81
9588,-361.8
9599,-445.88
9611,-538.03
9623,-632.98
9635,-723.85
9647,-802.46
9659,-859.89
9671,-887.48
9683,-879.1
9695,-833.17
9707,-754.27
9719,-652.48
9731,-541.07
9743,-432.74
9755,-336.53
9767,-256.82
9778,-193.92
9789,-146.21
9801,-111.67
9813,-88.46
9825,-74.27
9837,-66.07
9849,-60.24
9861,-53.63
9873,-44.83
9885,-34.22
9897,-23.36
9909,-13.98
9921,-6.4
9933,0.92
9945,11.06
9957,27.36
9968,51.93
9979,84.83
9991,124.26
10003,167.55
10015,212.39
10027,257.76
10039,303.74
10051,351.21
10063,400.47
10075,451.38
10087,503.51
10099,556.62
10111,610.37
10123,662.83
10135,709.98
10147,746.15
10158,766.56
10169,769.68
10181,758.65
10193,739.33
10205,716.68
10217,691.43
10229,658.97
10241,612.39
10253,546.76
10265,462.68
10277,366.43
10289,267.14
10301,172.78
10313,87.98
10325,13.94
10337,-49.74
10348,-103.57
10359,-147.68
10371,-182.3
10383,-208.73
10395,-229.06
10407,-245.65
10419,-260.58
10431,-275.52
10443,-291.79
10455,-309.74
10467,-328.04
10479,-343.56
10491,-352.75
10503,-354.19
10515,-350.87
10527,-350.07
10538,-359.28
10549,-381.09
10561,-409.84
10573,-433.14
10585,-438.53
10597,-420.09
10609,-382.03
10621,-335.54
10633,-291.78
10645,-255.21
10657,-222.03
10669,-184.7
10681,-138.97
10693,-88.69
10705,-44.55
10717,-18.83
10728,-19.07
10739,-44.61
10751,-87.79
10763,-138.49
10775,-188.11
10787,-231.7
10799,-267.57
10811,-296.18
10823,-319.26
10835,-339.01
10847,-356.91
10859,-372.34
10871,-382.04
10883,-380.49
10895,-362.38
10907,-325.7
10918,-273.36
10929,-212.72
10941,-152.57
10953,-99.52
10965,-56.04
10977,-20.88
10989,8.32
11001,32.59
11013,50.63
11025,60.06
11037,59.81
11049,51.64
11061,39.98
11073,30.01
11085,25.92
11097,29.27
11108,39.12
11119,53.31
11131,69.46
11143,85.83
11155,101.15
11167,114.31
11179,124.06
11191,129.52
11203,130.35
11215,126.76
11227,119.25
11239,107.65
11251,91.23
11263,69.19
11275,41.79
11287,11.23
11298,-18.25
11309,-41.45
11321,-53.94
11333,-53.3
11345,-40.14
11357,-17.25
11369,11.12
11381,40.91
11393,69.05
11405,93.78
11417,114.71
11429,132.25
11441,147.15
11453,160.0
11465,171.39
11477,181.43
11488,190.22
11499,197.94
11511,204.65
11523,210.36
11535,215.01
11547,218.68
11559,221.8
11571,225.32
11583,230.68
11595,239.31
11607,251.77
11619,267.01
11631,282.04
11643,292.86
11655,296.34
11667,291.88
11678,282.02
11689,271.73
11701,266.19
11713,268.35
11725,277.6
11737,290.25
11749,301.35
11761,307.18
11773,306.63
11785,301.01
11797,293.02
11809,285.37
11821,279.62
11833,276.29
11845,275.32
11857,276.17
11868,277.82
11879,278.25
11891,274.46
11903,263.39
11915,243.6
11927,216.23
11939,185.59
11951,157.7
11963,137.76
11975,128.56
11987,129.84
11999,139.5
12011,155.29
12023,175.87
12035,200.26
12047,226.73
12058,252.03
12069,271.91
12081,283.25
12093,286.15
12105,284.08
12117,282.14
12129,283.98
12141,289.15
12153,292.93
12165,288.42
12177,269.85
12189,235.51
12201,188.61
12213,135.64
12225,83.63
12237,37.77
12248,0.05
12259,-30.43
12271,-55.85
12283,-78.36
12295,-99.07
12307,-117.93
12319,-134.08
12331,-146.04
12343,-151.93
12355,-150.1
12367,-140.0
12379,-122.82
12391,-102.05
12403,-82.65
12415,-68.83
12427,-61.84
12438,-58.53
12449,-52.37
12461,-37.17
12473,-10.65
12485,23.34
12497,55.92
12509,77.12
12521,80.58
12533,66.04
12545,38.74
12557,6.49
12569,-23.68
12581,-46.61
12593,-58.74
12605,-57.21
12617,-40.06
12628,-7.8
12639,34.73
12651,78.69
12663,114.29
12675,134.73
12687,138.93
12699,130.9
12711,116.12
12723,97.73
12735,74.9
12747,44.02
12759,2.1
12771,-50.22
12783,-108.64
12795,-167.18
12807,-221.04
12818,-267.89
12829,-307.16
12841,-338.2
12853,-358.77
12865,-365.36
12877,-354.72
12889,-326.05
12901,-282.6
12913,-230.9
12925,-178.9
12937,-133.63
12949,-99.34
12961,-76.73
12973,-64.09
12985,-59.06
12997,-60.0
13008,-67.1
13019,-81.72
13031,-105.32
13043,-138.29
13055,-179.03
13067,-224.04
13079,-268.73
13091,-308.11
13103,-337.49
13115,-352.84
13127,-351.36
13139,-331.58
13151,-293.72
13163,-240.33
13175,-176.48
13187,-109.29
13198,-45.95
13209,8.46
13221,51.72
13233,83.31
13245,102.95
13257,109.23
13269,100.31
13281,76.14
13293,41.3
13305,6.14
13317,-15.98
13329,-14.49
13341,11.35
13353,51.75
13365,90.03
13377,110.42
13388,104.86
13399,76.17
13411,36.41
13423,0.86
13435,-18.35
13447,-19.04
13459,-4.34
13471,22.76
13483,62.31
13495,115.25
13507,179.84
13519,248.88
13531,310.13
13543,349.76
13555,351.54
13567,309.64
13578,233.39
13589,143.89
13601,62.75
13613,2.48
13625,-36.12
13637,-60.35
13649,-79.58
13661,-110.56
13673,-162.2
13685,-230.82
13697,-303.27
13709,-367.33
13721,-418.24
13733,-458.2
13745,-492.37
13757,-525.38
13768,-573.53
13779,-648.68
13791,-750.99
13803,-869.49
13815,-991.21
13827,-1108.08
13839,-1216.64
13851,-1315.45
13863,-1317.83
13875,-1172.0
13887,-894.16
13899,-561.15
13911,-249.34
13923,4.67
13935,197.83
13947,342.69
13958,453.97
13969,544.38
13981,609.46
13993,644.03
14005,651.96
14017,645.54
14029,636.61
14041,629.66
14053,623.76
14065,614.06
14077,597.0
14089,562.23
14101,505.96
14113,434.87
14125,363.18
14137,303.71
14148,259.59
14159,227.73
14171,199.39
14183,167.23
14195,122.76
14207,64.54
14219,-1.99
14231,-68.5
14243,-129.05
14255,-184.31
14267,-222.05
14279,-231.88
14291,-208.72
14303,-158.77
14315,-93.05
14327,-23.35
14338,35.2
14349,81.2
14361,113.25
14373,131.65
14385,137.44
14397,133.98
14409,122.06
14421,103.95
14433,82.19
14445,59.08
14457,37.13
14469,16.77
14481,-1.89
14493,-20.9
14505,-42.29
14517,-66.87
14528,-92.62
14539,-115.22
14551,-128.87
14563,-127.43
14575,-108.1
14587,-71.25
14599,-21.69
14611,33.88
14623,88.83
14635,138.38
14647,179.07
14659,208.35
14671,224.43
14683,225.86
14695,213.46
14707,190.24
14718,161.95
14729,135.65
14741,118.5
14753,114.53
14765,123.46
14777,140.29
14789,156.43
14801,162.91
14813,153.31
14825,126.35
14837,86.35
14849,41.85
14861,1.58
14873,-28.96
14885,-49.74
14897,-65.84
14908,-84.82
14919,-112.96
14931,-151.95
14943,-197.76
14955,-241.44
14967,-272.19
14979,-280.92
14991,-263.11
15003,-219.97
15015,-157.47
15027,-83.96
15039,-7.66
15051,64.79
15063,128.55
15075,180.23
15087,217.5
15098,239.29
15109,246.22
15121,241.85
15133,232.34
15145,225.02
15157,225.28
15169,233.51
15181,244.11
15193,247.0
15205,231.56
15217,191.44
15229,127.88
15241,49.18
15253,-32.41
15265,-105.68
15277,-164.39
15288,-208.1
15299,-240.33
15311,-265.08
15323,-284.41
15335,-297.65
15347,-303.02
15359,-299.27
15371,-287.52
15383,-271.31
15395,-255.44
15407,-244.3
15419,-241.06
15431,-246.98
15443,-261.3
15455,-281.24
15467,-301.15
15478,-313.84
15489,-312.68
15501,-293.89
15513,-258.32
15525,-211.38
15537,-160.95
15549,-114.78
15561,-78.23
15573,-52.3
15585,-35.57
15597,-26.99
15609,-26.57
15621,-34.94
15633,-52.47
15645,-77.34
15657,-106.6
15668,-137.07
15679,-163.53
15691,-182.68
15703,-195.23
15715,-204.82
15727,-214.92
15739,-227.85
15751,-241.5
15763,-252.83
15775,-259.23
15787,-253.25
15799,-230.4
15811,-192.85
15823,-148.1
15835,-103.86
15847,-66.69
15858,-35.19
15869,-6.45
15881,22.24
15893,62.37
15905,121.83
15917,198.8
15929,283.12
15941,363.89
15953,431.22
15965,487.18
15977,536.07
15989,581.99
16001,640.86
16013,724.34
16025,831.63
16037,950.42
16048,1066.21
16059,1164.19
16071,1243.22
16083,1304.01
16095,1265.86
16107,1085.46
16119,784.14
16131,435.56
16143,110.55
16155,-125.52
16167,-295.67
16179,-421.18
16191,-515.37
16203,-585.53
16215,-628.03
16227,-636.69
16238,-615.3
16249,-577.9
16261,-539.69
16273,-514.94
16285,-503.1
16297,-500.97
16309,-505.55
16321,-504.78
16333,-489.26
16345,-458.77
16357,-421.35
16369,-386.05
16381,-361.63
16393,-345.97
16405,-335.49
16417,-327.58
16428,-314.81
16439,-291.8
16451,-259.43
16463,-223.83
16475,-191.37
16487,-167.85
16499,-151.7
16511,-139.93
16523,-130.01
16535,-117.16
16547,-97.98
16559,-72.52
16571,-43.81
16583,-15.1
16595,10.61
16607,33.95
16618,56.25
16629,78.46
16641,101.98
16653,127.33
16665,153.44
16677,178.02
16689,198.91
16701,214.4
16713,224.9
16725,231.95
16737,237.89
16749,245.49
16761,257.16
16773,273.64
16785,293.03
16797,310.93
16808,321.27
16819,318.8
16831,300.93
16843,268.82
16855,227.29
16867,183.2
16879,143.38
16891,112.83
16903,93.87
16915,85.87
16927,85.79
16939,89.17
16951,91.55
16963,90.25
16975,85.35
16987,79.8
16998,78.13
17009,84.57
17021,101.04
17033,126.61
17045,157.75
17057,189.72
17069,218.02
17081,239.02
17093,250.65
17105,252.51
17117,246.22
17129,234.92
17141,222.6
17153,212.47
17165,205.65
17177,200.9
17188,194.93
17199,184.29
17211,166.85
17223,142.61
17235,113.28
17247,81.06
17259,47.79
17271,14.69
17283,-16.78
17295,-44.37
17307,-64.71
17319,-73.97
17331,-69.32
17343,-50.11
17355,-18.57
17367,20.63
17378,61.6
17389,98.83
17401,128.5
17413,149.28
17425,162.06
17437,169.49
17449,175.1
17461,182.27
17473,193.46
17485,209.29
17497,228.29
17509,247.0
17521,260.98
17533,265.69
17545,257.71
17557,235.74
17568,200.56
17579,154.82
17591,102.06
17603,45.81
17615,-11.09
17627,-66.56
17639,-119.0
17651,-167.03
17663,-209.39
17675,-245.11
17687,-273.89
17699,-296.18
17711,-313.34
17723,-327.07
17735,-338.81
17747,-349.15
17758,-357.38
17769,-362.08
17781,-361.88
17793,-356.44
17805,-346.61
17817,-334.31
17829,-321.53
17841,-309.71
17853,-299.69
17865,-291.48
17877,-284.33
17889,-276.68
17901,-265.99
17913,-248.79
17925,-221.81
17937,-183.27
17948,-134.59
17959,-81.7
17971,-34.07
17983,-2.29
17995,5.28
18007,-14.94
18019,-60.6
18031,-124.41
18043,-196.22
18055,-265.3
18067,-322.37
18079,-360.58
18091,-375.94
18103,-367.11
18115,-335.06
18127,-282.76
18138,-214.49
18149,-135.62
18161,-52.18
18173,29.35
18185,102.88
18197,163.97
18209,211.09
18221,246.47
18233,274.76
18245,301.22
18257,328.9
18269,357.06
18281,380.9
18293,393.34
18305,387.62
18317,359.63
18328,309.9
18339,243.6
18351,169.61
18363,98.29
18375,38.68
18387,-3.93
18399,-29.08
18411,-40.49
18423,-43.77
18435,-43.72
18447,-43.04
18459,-42.79
18471,-44.3
18483,-50.85
18495,-67.82
18507,-100.47
18518,-150.69
18529,-214.3
18541,-280.41
18553,-334.23
18565,-362.18
18577,-357.15
18589,-321.69
18601,-266.88
18613,-208.1
18625,-159.02
18637,-127.22
18649,-112.82
18661,-110.37
18673,-112.71
18685,-114.23
18697,-112.36
18708,-106.64
18719,-97.19
18731,-83.41
18743,-64.11
18755,-38.53
18767,-7.45
18779,26.99
18791,62.0
18803,95.59
18815,127.24
18827,157.49
18839,186.73
18851,213.77
18863,235.33
18875,246.57
18887,243.05
18898,222.94
18909,188.26
18921,144.52
18933,98.86
18945,57.45
18957,23.61
18969,-2.19
18981,-21.35
18993,-35.51
19005,-45.55
19017,-52.08
19029,-56.2
19041,-60.21
19053,-66.9
19065,-78.04
19077,-92.54
19088,-106.18
19099,-113.08
19111,-108.43
19123,-91.23
19135,-65.0
19147,-36.2
19159,-10.95
19171,8.02
19183,22.74
19195,38.43
19207,60.41
19219,90.79
19231,126.7
19243,161.34
19255,187.01
19267,198.33
19278,194.66
19289,179.94
19301,160.44
19313,142.02
19325,128.05
19337,118.71
19349,112.1
19361,106.05
19373,99.46
19385,92.99
19397,88.17
19409,86.0
19421,86.14
19433,86.92
19445,86.31
19457,83.39
19468,79.26
19479,76.71
19491,79.08
19503,88.57
19515,104.78
19527,124.66
19539,143.57
19551,156.83
19563,161.66
19575,157.49
19587,145.39
19599,127.08
19611,103.79
19623,76.08
19635,44.5
19647,10.6
19658,-22.86
19669,-51.78
19681,-72.47
19693,-83.23
19705,-85.36
19717,-83.15
19729,-82.56
19741,-89.21
19753,-106.96
19765,-136.98
19777,-177.13
19789,-222.39
19801,-265.52
19813,-298.84
19825,-315.86
19837,-313.29
19848,-291.93
19859,-256.75
19871,-215.75
19883,-177.49
19895,-148.95
19907,-133.71
19919,-131.48
19931,-138.6
19943,-149.01
19955,-156.28
19967,-154.9
19979,-141.85
19991,-116.88
20003,-82.16
20015,-41.38
20027,1.8
20038,43.85
20049,81.78
20061,112.48
20073,133.05
20085,141.44
20097,137.45
20109,123.35
20121,103.41
20133,82.77
20145,65.51
20157,53.28
20169,45.07
20181,38.57
20193,31.69
20205,23.69
20217,15.4
20228,8.46
20239,4.56
20251,4.8
20263,9.87
20275,20.3
20287,36.83
20299,59.88
20311,88.46
20323,119.99
20335,150.14
20347,174.13
20359,187.97
20371,189.65
20383,179.48
20395,159.81
20407,134.29
20418,107.14
20429,82.9
20441,65.59
20453,57.82
20465,59.69
20477,68.37
20489,78.67
20501,84.97
20513,83.36
20525,73.39
20537,58.15
20549,42.68
20561,31.44
20573,26.61
20585,27.26
20597,30.49
20608,32.86
20619,31.85
20631,26.55
20643,17.64
20655,6.67
20667,-4.64
20679,-14.58
20691,-22.25
20703,-27.3
20715,-29.77
20727,-29.75
20739,-27.27
20751,-22.26
20763,-15.25
20775,-7.28
20787,0.16
20798,5.35
20809,7.45
20821,7.41
20833,8.24
20845,13.33
20857,24.9
20869,42.32
20881,62.56
20893,81.71
20905,95.99
20917,103.38
20929,104.43
20941,102.09
20953,99.91
20965,100.63
20977,105.43
20988,114.59
20999,128.51
