seconds,BVP
1,6.57
13,8.79
25,10.05
37,10.88
49,11.64
60,12.44
71,13.25
83,14.04
95,14.87
107,15.88
119,17.18
131,18.75
143,20.4
155,21.88
167,23.02
179,23.86
191,24.71
203,25.94
215,27.71
227,29.88
239,32.0
250,33.56
261,34.21
273,33.97
285,33.12
297,31.88
309,30.26
321,27.96
333,24.58
345,19.96
357,14.43
369,8.8
381,4.02
393,0.84
405,-0.51
417,-0.32
429,0.76
440,1.89
451,2.15
463,0.62
475,-3.52
487,-10.67
499,-20.51
511,-31.81
523,-42.54
535,-50.46
547,-53.96
559,-52.83
571,-48.37
583,-42.96
595,-39.16
607,-38.76
619,-42.25
630,-48.59
641,-55.84
653,-62.17
665,-66.67
677,-69.44
689,-71.34
701,-73.38
713,-76.14
725,-79.82
737,-83.78
749,-86.98
761,-88.74
773,-89.08
785,-88.46
797,-87.42
809,-86.26
820,-84.79
831,-82.74
843,-79.1
855,-72.61
867,-62.8
879,-50.48
891,-37.36
903,-25.32
915,-15.68
927,-8.73
939,-4.21
951,-0.63
963,3.89
975,10.41
987,18.89
999,28.77
1010,39.71
1021,51.74
1033,67.63
1045,84.98
1057,98.69
1069,105.86
1081,107.67
1093,107.15
1105,106.75
1117,107.18
1129,107.58
1141,106.38
1153,102.04
1165,94.93
1177,87.12
1189,80.78
1200,76.86
1211,74.87
1223,73.43
1235,70.92
1247,65.97
1259,57.4
1271,45.06
1283,29.82
1295,13.19
1307,-3.04
1319,-16.98
1331,-26.99
1343,-32.4
1355,-34.02
1367,-33.48
1379,-32.14
1390,-30.61
1401,-28.69
1413,-25.6
1425,-20.66
1437,-13.63
1449,-5.19
1461,3.44
1473,10.92
1485,16.66
1497,20.75
1509,23.56
1521,25.46
1533,26.61
1545,27.11
1557,27.02
1569,27.06
1580,26.95
1591,26.6
1603,25.82
1615,24.18
1627,21.27
1639,16.94
1651,11.46
1663,5.33
1675,-0.91
1687,-6.8
1699,-11.84
1711,-15.65
1723,-18.02
1735,-19.02
1747,-19.01
1759,-18.52
1770,-18.37
1781,-19.5
1793,-22.31
1805,-26.22
1817,-29.88
1829,-31.82
1841,-30.95
1853,-26.8
1865,-19.66
1877,-10.78
1889,-2.04
1901,5.5
1913,11.64
1925,17.45
1937,24.25
1949,33.01
1960,44.02
1971,56.81
1983,69.63
1995,79.78
2007,85.43
2019,86.81
2031,85.82
2043,84.85
2055,85.89
2067,90.07
2079,97.09
2091,103.9
2103,104.65
2115,93.46
2127,66.85
2139,24.69
2150,-30.27
2161,-93.05
2173,-157.39
2185,-211.02
2197,-238.85
2209,-234.1
2221,-203.31
2233,-159.86
2245,-115.43
2257,-77.02
2269,-47.55
2281,-26.93
2293,-13.23
2305,-3.86
2317,1.62
2329,3.26
2340,1.81
2351,-1.55
2363,-5.68
2375,-9.64
2387,-12.39
2399,-13.59
2411,-13.7
2423,-14.4
2435,-16.82
2447,-20.6
2459,-24.0
2471,-24.96
2483,-21.92
2495,-14.34
2507,-2.79
2519,10.76
2530,23.35
2541,33.0
2553,39.31
2565,43.35
2577,46.84
2589,51.42
2601,58.08
2613,66.77
2625,75.98
2637,82.82
2649,84.73
2661,80.17
2673,69.33
2685,54.13
2697,37.76
2709,24.06
2720,16.64
2731,18.18
2743,27.1
2755,41.48
2767,58.37
2779,74.1
2791,84.41
2803,85.05
2815,73.17
2827,48.89
2839,15.91
2851,-19.12
2863,-48.31
2875,-65.8
2887,-69.7
2899,-62.52
2910,-49.73
2921,-37.29
2933,-29.2
2945,-26.76
2957,-29.08
2969,-34.02
2981,-39.83
2993,-45.77
3005,-51.25
3017,-55.37
3029,-56.94
3041,-54.75
3053,-48.37
3065,-38.57
3077,-26.79
3089,-14.82
3100,-4.15
3111,4.3
3123,10.33
3135,14.23
3147,16.99
3159,19.8
3171,23.77
3183,29.62
3195,37.25
3207,45.74
3219,53.68
3231,59.84
3243,61.98
3255,59.35
3267,52.29
3279,41.97
3290,29.84
3301,17.15
3313,4.61
3325,-7.43
3337,-18.69
3349,-28.79
3361,-36.94
3373,-42.56
3385,-45.55
3397,-46.33
3409,-45.69
3421,-44.56
3433,-43.57
3445,-42.96
3457,-42.51
3469,-41.8
3480,-40.66
3491,-39.17
3503,-37.6
3515,-36.16
3527,-34.98
3539,-33.99
3551,-33.03
3563,-31.75
3575,-30.15
3587,-28.74
3599,-28.22
3611,-28.92
3623,-30.59
3635,-32.54
3647,-33.82
3659,-33.53
3670,-30.74
3681,-25.49
3693,-18.92
3705,-12.46
3717,-6.74
3729,-1.4
3741,4.62
3753,12.53
3765,23.18
3777,37.36
3789,54.23
3801,71.31
3813,85.81
3825,96.07
3837,101.89
3849,104.11
3860,104.17
3871,103.91
3883,106.15
3895,112.32
3907,121.46
3919,130.73
3931,136.48
3943,134.85
3955,122.46
3967,97.48
3979,54.98
3991,0.19
4003,-53.05
4015,-91.76
4027,-111.81
4039,-116.64
4050,-112.07
4061,-102.71
4073,-90.98
4085,-77.48
4097,-61.12
4109,-41.93
4121,-21.89
4133,-3.61
4145,11.12
4157,21.55
4169,27.74
4181,30.52
4193,31.47
4205,33.63
4217,38.52
4229,45.37
4240,52.16
4251,56.83
4263,58.09
4275,55.82
4287,51.0
4299,45.37
4311,41.05
4323,38.99
4335,38.05
4347,36.52
4359,33.21
4371,28.04
4383,21.87
4395,15.79
4407,10.37
4419,5.3
4430,1.95
4441,-0.12
4453,-1.49
4465,-2.47
4477,-3.34
4489,-4.77
4501,-7.88
4513,-13.73
4525,-22.55
4537,-33.5
4549,-45.16
4561,-55.53
4573,-62.86
4585,-66.11
4597,-65.15
4609,-60.39
4620,-52.44
4631,-41.98
4643,-29.89
4655,-17.76
4667,-7.37
4679,-0.3
4691,2.51
4703,1.21
4715,-3.01
4727,-8.29
4739,-12.81
4751,-15.3
4763,-15.56
4775,-14.09
4787,-11.76
4799,-9.5
4810,-7.92
4821,-7.26
4833,-7.32
4845,-7.73
4857,-8.15
4869,-8.46
4881,-8.72
4893,-9.04
4905,-9.5
4917,-10.09
4929,-10.69
4941,-11.22
4953,-11.69
4965,-12.27
4977,-13.27
4989,-15.0
5000,-17.65
5011,-21.15
5023,-25.18
5035,-29.15
5047,-32.47
5059,-34.54
5071,-35.02
5083,-33.92
5095,-31.65
5107,-28.86
5119,-26.2
5131,-24.12
5143,-22.74
5155,-22.01
5167,-21.5
5179,-20.52
5190,-18.34
5201,-14.47
5213,-8.88
5225,-2.02
5237,5.26
5249,12.09
5261,17.68
5273,21.96
5285,25.64
5297,29.71
5309,34.74
5321,40.43
5333,45.55
5345,48.29
5357,46.97
5369,40.16
5380,28.2
5391,13.3
5403,-1.55
5415,-14.15
5427,-23.87
5439,-31.48
5451,-38.36
5463,-45.59
5475,-54.57
5487,-64.98
5499,-74.7
5511,-81.25
5523,-83.4
5535,-81.45
5547,-76.67
5559,-70.71
5570,-65.2
5581,-63.28
5593,-66.09
5605,-71.76
5617,-76.93
5629,-79.06
5641,-77.46
5653,-73.1
5665,-68.04
5677,-64.65
5689,-67.27
5701,-77.35
5713,-92.32
5725,-107.63
5737,-119.76
5749,-127.04
5760,-129.06
5771,-125.87
5783,-101.45
5795,-53.26
5807,5.45
5819,57.43
5831,94.8
5843,118.99
5855,134.87
5867,146.64
5879,156.24
5891,163.26
5903,163.32
5915,153.92
5927,136.65
5939,116.06
5950,96.41
5961,80.06
5973,67.15
5985,56.24
5997,45.48
6009,31.75
6021,15.23
6033,-0.61
6045,-11.49
6057,-15.43
6069,-13.37
6081,-8.07
6093,-2.4
6105,1.97
6117,3.77
6129,3.57
6140,3.03
6151,3.45
6163,4.4
6175,4.33
6187,1.55
6199,-4.83
6211,-14.33
6223,-25.8
6235,-36.67
6247,-43.74
6259,-44.5
6271,-38.32
6283,-26.06
6295,-10.33
6307,5.33
6319,17.81
6330,25.53
6341,28.95
6353,29.95
6365,30.72
6377,32.75
6389,37.24
6401,44.08
6413,52.03
6425,59.83
6437,67.04
6449,73.88
6461,80.49
6473,86.52
6485,91.43
6497,95.86
6509,100.52
6520,105.42
6531,109.94
6543,112.99
6555,112.65
6567,106.14
6579,90.68
6591,59.05
6603,12.66
6615,-38.16
6627,-81.14
6639,-109.57
6651,-122.94
6663,-123.9
6675,-115.59
6687,-100.57
6699,-80.78
6710,-57.31
6721,-32.06
6733,-8.24
6745,10.84
6757,23.51
6769,30.19
6781,32.74
6793,33.4
6805,34.73
6817,37.29
6829,40.22
6841,41.15
6853,37.62
6865,28.82
6877,16.0
6889,1.82
6900,-10.89
6911,-20.17
6923,-25.29
6935,-26.87
6947,-26.64
6959,-26.44
6971,-27.19
6983,-28.97
6995,-31.53
7007,-34.93
7019,-38.24
7031,-41.2
7043,-43.66
7055,-45.7
7067,-47.44
7079,-48.75
7090,-49.41
7101,-49.22
7113,-48.0
7125,-45.48
7137,-41.28
7149,-34.69
7161,-25.29
7173,-13.34
7185,0.16
7197,13.6
7209,25.09
7221,33.12
7233,37.02
7245,37.22
7257,34.97
7269,31.56
7280,27.68
7291,23.48
7303,18.75
7315,13.26
7327,6.93
7339,0.03
7351,-6.76
7363,-12.72
7375,-17.62
7387,-21.92
7399,-26.07
7411,-30.13
7423,-33.7
7435,-35.97
7447,-36.01
7459,-32.6
7470,-24.9
7481,-13.17
7493,1.12
7505,16.22
7517,30.6
7529,43.24
7541,53.83
7553,59.61
7565,58.46
7577,51.24
7589,41.54
7601,32.98
7613,28.02
7625,27.42
7637,30.5
7649,34.94
7660,37.11
7671,33.59
7683,22.64
7695,6.13
7707,-13.57
7719,-31.93
7731,-44.2
7743,-47.65
7755,-42.92
7767,-33.62
7779,-23.9
7791,-16.67
7803,-12.95
7815,-12.57
7827,-14.82
7839,-19.83
7850,-28.18
7861,-40.34
7873,-55.11
7885,-68.62
7897,-75.32
7909,-70.72
7921,-54.29
7933,-29.98
7945,-4.93
7957,13.64
7969,21.38
7981,18.56
7993,9.59
8005,0.24
8017,-5.22
8029,-5.76
8040,-2.52
8051,2.91
8063,10.0
8075,19.39
8087,31.9
8099,47.37
8111,63.94
8123,78.31
8135,86.65
8147,86.69
8159,79.01
8171,66.7
8183,53.65
8195,42.77
8207,35.03
8219,29.66
8230,25.06
8241,19.25
8253,11.44
8265,2.99
8277,-3.21
8289,-4.39
8301,0.74
8313,11.52
8325,25.8
8337,40.76
8349,52.61
8361,57.91
8373,54.73
8385,42.49
8397,21.05
8409,-9.14
8420,-46.32
8431,-85.87
8443,-116.12
8455,-126.52
8467,-116.24
8479,-93.9
8491,-70.18
8503,-51.92
8515,-40.09
8527,-31.15
8539,-20.68
8551,-5.62
8563,12.28
8575,28.62
8587,39.36
8599,43.18
8610,41.57
8621,37.57
8633,34.22
8645,31.79
8657,30.68
8669,30.14
8681,29.41
8693,28.31
8705,27.43
8717,27.37
8729,28.25
8741,29.66
8753,31.03
8765,32.34
8777,33.09
8789,32.89
8800,31.41
8811,28.66
8823,24.97
8835,20.86
8847,16.75
8859,12.92
8871,9.87
8883,7.46
8895,7.39
8907,11.29
8919,18.92
8931,28.18
8943,37.15
8955,45.15
8967,52.29
8979,58.92
8990,64.23
9001,67.35
9013,67.17
9025,63.1
9037,55.58
9049,45.81
9061,34.87
9073,22.75
9085,11.12
9097,0.33
9109,-9.54
9121,-18.68
9133,-27.31
9145,-35.43
9157,-42.88
9169,-49.37
9180,-54.49
9191,-57.54
9203,-58.12
9215,-55.95
9227,-51.32
9239,-45.04
9251,-38.1
9263,-31.45
9275,-25.89
9287,-21.94
9299,-19.75
9311,-19.33
9323,-20.32
9335,-22.36
9347,-25.34
9359,-29.44
9370,-35.09
9381,-42.57
9393,-51.62
9405,-61.14
9417,-69.32
9429,-73.81
9441,-72.16
9453,-62.41
9465,-43.61
9477,-16.37
9489,16.9
9501,52.29
9513,85.25
9525,111.77
9537,129.53
9549,138.33
9560,139.79
9571,136.45
9583,130.96
9595,125.55
9607,121.96
9619,121.3
9631,123.77
9643,128.31
9655,132.47
9667,132.95
9679,126.73
9691,112.28
9703,90.25
9715,63.17
9727,34.36
9739,6.71
9750,-18.05
9761,-39.42
9773,-57.53
9785,-72.51
9797,-84.13
9809,-92.07
9821,-96.29
9833,-97.48
9845,-96.94
9857,-96.25
9869,-96.51
9881,-97.88
9893,-99.47
9905,-99.81
9917,-97.6
9929,-92.44
9940,-85.19
9951,-77.55
9963,-71.32
9975,-67.46
9987,-65.62
9999,-64.48
10011,-62.47
10023,-58.79
10035,-53.84
10047,-49.0
10059,-45.7
10071,-44.68
10083,-45.47
10095,-46.74
10107,-47.06
10119,-45.69
10130,-42.93
10141,-39.76
10153,-37.28
10165,-35.95
10177,-35.46
10189,-35.0
10201,-33.84
10213,-31.82
10225,-29.45
10237,-27.57
10249,-26.96
10261,-27.97
10273,-30.49
10285,-34.07
10297,-38.24
10309,-42.61
10320,-46.99
10331,-51.29
10343,-55.43
10355,-59.32
10367,-62.92
10379,-66.24
10391,-69.33
10403,-72.24
10415,-74.91
10427,-77.13
10439,-78.67
10451,-79.33
10463,-79.09
10475,-78.17
10487,-76.97
10499,-75.9
10510,-75.41
10521,-75.8
10533,-77.25
10545,-79.65
10557,-82.32
10569,-83.94
10581,-82.63
10593,-76.48
10605,-64.31
10617,-46.19
10629,-23.55
10641,1.26
10653,25.7
10665,47.75
10677,66.1
10689,80.13
10700,89.72
10711,95.13
10723,96.99
10735,96.36
10747,94.53
10759,92.75
10771,91.89
10783,92.25
10795,93.58
10807,95.38
10819,97.09
10831,98.18
10843,98.27
10855,97.03
10867,94.25
10879,89.81
10890,83.79
10901,76.46
10913,68.29
10925,59.95
10937,52.17
10949,45.49
10961,40.0
10973,35.26
10985,30.35
10997,24.37
11009,16.97
11021,8.61
11033,0.52
11045,-5.9
11057,-9.61
11069,-10.52
11080,-9.33
11091,-7.13
11103,-4.85
11115,-2.85
11127,-1.2
11139,0.09
11151,0.7
11163,0.17
11175,-1.69
11187,-4.43
11199,-7.01
11211,-8.42
11223,-8.32
11235,-7.47
11247,-7.4
11259,-9.6
11270,-14.66
11281,-21.89
11293,-29.54
11305,-35.65
11317,-38.81
11329,-38.58
11341,-35.47
11353,-30.56
11365,-25.2
11377,-20.83
11389,-18.87
11401,-20.36
11413,-25.58
11425,-33.64
11437,-42.33
11449,-48.6
11460,-49.24
11471,-41.97
11483,-26.46
11495,-4.72
11507,18.97
11519,39.22
11531,51.1
11543,51.98
11555,42.57
11567,26.89
11579,10.78
11591,-0.36
11603,-3.56
11615,0.82
11627,9.82
11639,19.6
11650,27.4
11661,32.45
11673,35.87
11685,39.47
11697,44.43
11709,50.49
11721,56.08
11733,59.16
11745,58.13
11757,52.54
11769,42.94
11781,30.51
11793,16.37
11805,1.35
11817,-14.07
11829,-29.43
11840,-44.15
11851,-57.4
11863,-68.4
11875,-76.73
11887,-82.56
11899,-86.62
11911,-89.84
11923,-92.99
11935,-96.44
11947,-100.12
11959,-103.68
11971,-106.67
11983,-108.68
11995,-109.37
12007,-108.41
12019,-105.45
12030,-100.04
12041,-91.79
12053,-80.54
12065,-66.63
12077,-50.87
12089,-34.52
12101,-18.98
12113,-5.44
12125,5.38
12137,13.34
12149,18.91
12161,23.08
12173,27.11
12185,32.11
12197,38.45
12209,45.58
12220,52.16
12231,56.65
12243,58.05
12255,56.42
12267,52.68
12279,48.1
12291,43.53
12303,39.05
12315,34.13
12327,28.19
12339,21.15
12351,13.61
12363,6.61
12375,1.13
12387,-2.31
12399,-3.85
12410,-4.17
12421,-4.16
12433,-4.59
12445,-5.83
12457,-7.81
12469,-10.14
12481,-12.58
12493,-15.13
12505,-18.06
12517,-21.63
12529,-25.77
12541,-29.95
12553,-33.39
12565,-35.28
12577,-35.09
12589,-32.58
12600,-27.66
12611,-20.31
12623,-10.63
12635,0.96
12647,13.68
12659,26.53
12671,38.68
12683,49.72
12695,59.72
12707,68.92
12719,77.39
12731,84.92
12743,91.11
12755,95.8
12767,99.16
12779,101.6
12790,103.36
12801,104.19
12813,103.32
12825,99.82
12837,93.28
12849,84.24
12861,74.1
12873,64.62
12885,57.14
12897,52.0
12909,48.5
12921,45.34
12933,41.47
12945,36.45
12957,30.49
12969,24.28
12980,18.61
12991,14.08
13003,10.88
13015,8.86
13027,7.65
13039,7.09
13051,6.96
13063,6.85
13075,6.17
13087,4.28
13099,0.76
13111,-4.47
13123,-11.15
13135,-18.86
13147,-26.85
13159,-34.76
13170,-42.73
13181,-50.9
13193,-58.72
13205,-64.81
13217,-67.43
13229,-65.25
13241,-58.09
13253,-45.98
13265,-30.34
13277,-13.8
13289,0.92
13301,12.27
13313,20.0
13325,24.68
13337,27.06
13349,27.89
13360,30.18
13371,35.95
13383,44.87
13395,54.76
13407,63.41
13419,69.3
13431,71.59
13443,70.13
13455,65.59
13467,62.98
13479,66.2
13491,75.63
13503,88.97
13515,103.89
13527,118.77
13539,132.14
13550,142.21
13561,147.34
13573,151.55
13585,158.35
13597,168.29
13609,179.92
13621,192.55
13633,206.58
13645,222.19
13657,238.68
13669,225.32
13681,169.8
13693,86.67
13705,4.08
13717,-59.73
13729,-101.18
13740,-124.43
13751,-135.73
13763,-140.85
13775,-144.32
13787,-144.77
13799,-141.53
13811,-137.07
13823,-135.37
13835,-137.96
13847,-143.53
13859,-149.69
13871,-154.64
13883,-157.95
13895,-156.83
13907,-150.49
13919,-140.69
13930,-130.54
13941,-121.49
13953,-113.41
13965,-105.88
13977,-99.15
13989,-94.08
14001,-89.67
14013,-85.35
14025,-81.13
14037,-76.79
14049,-70.43
14061,-59.94
14073,-44.78
14085,-26.85
14097,-9.59
14109,3.79
14120,10.85
14131,11.28
14143,4.73
14155,-5.58
14167,-15.2
14179,-20.39
14191,-19.21
14203,-11.19
14215,2.09
14227,17.65
14239,32.91
14251,46.59
14263,59.06
14275,71.16
14287,83.39
14299,95.91
14310,109.12
14321,121.53
14333,129.99
14345,130.89
14357,120.84
14369,97.49
14381,60.24
14393,10.31
14405,-52.12
14417,-115.25
14429,-163.74
14441,-190.24
14453,-198.57
14465,-197.07
14477,-191.15
14489,-180.67
14500,-162.81
14511,-135.09
14523,-97.36
14535,-54.31
14547,-13.15
14559,21.96
14571,49.47
14583,70.53
14595,88.25
14607,104.47
14619,119.01
14631,130.26
14643,134.81
14655,129.63
14667,114.64
14679,93.51
14690,66.3
14701,38.13
14713,13.74
14725,-4.13
14737,-15.31
14749,-22.44
14761,-29.16
14773,-37.93
14785,-49.14
14797,-61.13
14809,-70.53
14821,-74.61
14833,-72.11
14845,-63.68
14857,-51.92
14869,-40.14
14880,-30.86
14891,-25.15
14903,-22.26
14915,-19.81
14927,-15.01
14939,-6.02
14951,6.9
14963,21.29
14975,34.09
14987,43.05
14999,47.51
15011,48.83
15023,49.49
15035,52.65
15047,60.38
15059,72.16
15070,84.98
15081,95.25
15093,99.95
15105,97.12
15117,86.7
15129,70.06
15141,51.47
15153,36.66
15165,30.89
15177,37.14
15189,56.3
15201,86.37
15213,122.43
15225,158.66
15237,178.61
15249,169.14
15260,131.41
15271,81.61
15283,37.58
15295,8.23
15307,-6.68
15319,-18.22
15331,-35.24
15343,-62.29
15355,-97.71
15367,-136.86
15379,-174.01
15391,-205.01
15403,-221.26
15415,-216.36
15427,-191.74
15439,-155.88
15450,-119.01
15461,-85.98
15473,-56.6
15485,-29.43
15497,-4.8
15509,15.49
15521,29.26
15533,35.09
15545,34.81
15557,32.44
15569,33.22
15581,40.79
15593,55.42
15605,74.18
15617,91.02
15629,100.28
15640,98.12
15651,84.03
15663,60.27
15675,31.15
15687,1.39
15699,-25.07
15711,-45.59
15723,-59.08
15735,-66.26
15747,-69.63
15759,-72.02
15771,-75.68
15783,-81.2
15795,-87.61
15807,-92.91
15819,-94.84
15830,-92.04
15841,-84.81
15853,-75.18
15865,-65.5
15877,-57.28
15889,-50.67
15901,-44.98
15913,-39.51
15925,-33.93
15937,-28.67
15949,-24.57
15961,-22.26
15973,-21.34
15985,-20.53
15997,-18.58
16009,-13.47
16020,-5.71
16031,2.33
16043,8.55
16055,12.66
16067,15.51
16079,17.82
16091,19.37
16103,19.62
16115,17.44
16127,12.58
16139,6.49
16151,1.93
16163,1.96
16175,9.19
16187,25.63
16199,51.58
16210,85.62
16221,121.06
16233,149.33
16245,164.27
16257,164.4
16269,151.26
16281,127.28
16293,95.4
16305,59.77
16317,25.99
16329,-0.24
16341,-14.78
16353,-16.98
16365,-10.37
16377,-1.4
16389,3.66
16400,1.68
16411,-6.59
16423,-17.83
16435,-28.51
16447,-36.49
16459,-41.41
16471,-44.19
16483,-46.02
16495,-47.27
16507,-47.39
16519,-45.49
16531,-41.4
16543,-36.16
16555,-31.43
16567,-28.96
16579,-29.0
16590,-30.84
16601,-32.9
16613,-33.33
16625,-30.94
16637,-25.79
16649,-19.16
16661,-12.78
16673,-8.04
16685,-5.43
16697,-4.65
16709,-4.73
16721,-4.67
16733,-3.92
16745,-2.66
16757,-1.5
16769,-1.01
16780,-1.36
16791,-2.2
16803,-2.9
16815,-2.74
16827,-1.28
16839,1.44
16851,4.91
16863,8.41
16875,11.36
16887,13.61
16899,15.41
16911,16.62
16923,17.31
16935,17.52
16947,17.2
16959,16.29
16970,14.64
16981,12.33
16993,9.66
17005,6.9
17017,4.23
17029,1.96
17041,0.32
17053,-0.51
17065,-0.65
17077,-0.48
17089,-0.2
17101,0.27
17113,0.83
17125,1.34
17137,1.81
17149,2.38
17160,3.22
17171,4.5
17183,6.18
17195,8.74
17207,12.65
17219,17.43
17231,22.21
17243,26.16
17255,29.1
17267,31.33
17279,33.02
17291,33.35
17303,29.66
17315,19.3
17327,0.87
17339,-23.97
17350,-51.14
17361,-75.34
17373,-91.3
17385,-94.91
17397,-84.28
17409,-60.95
17421,-25.8
17433,17.34
17445,62.35
17457,102.42
17469,132.33
17481,149.65
17493,155.06
17505,143.19
17517,117.08
17529,84.35
17540,52.25
17551,25.06
17563,3.85
17575,-12.18
17587,-24.5
17599,-33.64
17611,-39.99
17623,-42.82
17635,-42.42
17647,-40.46
17659,-37.27
17671,-33.9
17683,-31.65
17695,-32.55
17707,-39.37
17719,-54.9
17730,-76.77
17741,-99.86
17753,-117.71
17765,-126.08
17777,-125.08
17789,-117.51
17801,-106.3
17813,-92.54
17825,-75.49
17837,-53.15
17849,-25.59
17861,3.98
17873,30.17
17885,47.85
17897,55.01
17909,53.33
17920,47.06
17931,40.74
17943,37.69
17955,38.42
17967,41.38
17979,44.42
17991,46.11
18003,46.5
18015,46.4
18027,46.86
18039,47.96
18051,49.36
18063,50.17
18075,49.53
18087,46.96
18099,42.59
18110,37.29
18121,32.04
18133,27.73
18145,24.81
18157,23.29
18169,22.73
18181,22.5
18193,22.05
18205,21.17
18217,20.12
18229,19.29
18241,19.18
18253,19.94
18265,21.22
18277,22.29
18289,22.15
18300,19.82
18311,14.47
18323,6.84
18335,-2.33
18347,-12.15
18359,-21.85
18371,-30.97
18383,-39.21
18395,-46.28
18407,-51.86
18419,-55.62
18431,-57.36
18443,-57.26
18455,-55.73
18467,-53.37
18479,-50.8
18490,-48.13
18501,-45.21
18513,-41.81
18525,-37.96
18537,-33.86
18549,-29.86
18561,-26.32
18573,-23.78
18585,-22.93
18597,-23.85
18609,-26.13
18621,-29.13
18633,-32.2
18645,-34.68
18657,-35.86
18669,-35.55
18680,-34.56
18691,-34.67
18703,-36.85
18715,-41.32
18727,-47.61
18739,-54.58
18751,-59.93
18763,-60.01
18775,-51.47
18787,-33.27
18799,-8.14
18811,19.52
18823,44.18
18835,60.78
18847,66.22
18859,60.83
18870,48.7
18881,35.54
18893,26.29
18905,23.76
18917,30.74
18929,48.58
18941,75.78
18953,104.81
18965,121.64
18977,115.17
18989,86.25
19001,49.22
19013,11.37
19025,-22.58
19037,-50.43
19049,-70.38
19060,-82.22
19071,-86.71
19083,-84.12
19095,-74.61
19107,-59.76
19119,-43.43
19131,-28.94
19143,-19.06
19155,-15.46
19167,-18.2
19179,-25.07
19191,-31.66
19203,-33.61
19215,-29.04
19227,-19.65
19239,-8.26
19250,1.92
19261,8.36
19273,9.81
19285,7.1
19297,2.86
19309,0.09
19321,0.46
19333,3.42
19345,7.85
19357,12.34
19369,15.88
19381,18.16
19393,19.77
19405,22.03
19417,26.04
19429,31.89
19440,38.52
19451,44.67
19463,49.22
19475,51.6
19487,51.69
19499,49.84
19511,46.58
19523,42.36
19535,37.39
19547,31.72
19559,25.58
19571,19.47
19583,13.98
19595,9.58
19607,6.47
19619,4.47
19630,3.09
19641,1.71
19653,-0.27
19665,-3.23
19677,-7.17
19689,-11.74
19701,-16.32
19713,-20.15
19725,-22.57
19737,-23.13
19749,-21.79
19761,-18.85
19773,-14.87
19785,-10.45
19797,-6.17
19809,-2.37
19820,0.79
19831,3.33
19843,5.34
19855,6.85
19867,7.82
19879,8.12
19891,7.62
19903,6.23
19915,4.04
19927,1.2
19939,-2.15
19951,-5.92
19963,-10.05
19975,-14.56
19987,-19.51
19999,-24.9
20010,-30.71
20021,-36.72
20033,-42.56
20045,-47.72
20057,-51.58
20069,-53.43
20081,-52.68
20093,-49.06
20105,-42.78
20117,-34.58
20129,-25.43
20141,-16.58
20153,-9.25
20165,-4.32
20177,-2.06
20189,-2.1
20200,-3.57
20211,-5.4
20223,-6.53
20235,-5.81
20247,-2.68
20259,2.5
20271,8.81
20283,15.17
20295,20.79
20307,25.33
20319,28.9
20331,31.97
20343,35.87
20355,41.41
20367,48.23
20379,55.07
20390,60.66
20401,64.33
20413,66.11
20425,66.66
20437,66.81
20449,68.6
20461,73.06
20473,79.42
20485,85.63
20497,89.8
20509,91.12
20521,89.71
20533,86.45
20545,82.38
20557,80.12
20569,81.23
20580,85.16
20591,89.73
20603,92.52
20615,91.6
20627,85.2
20639,72.01
20651,41.76
20663,-6.56
20675,-62.42
20687,-110.21
20699,-139.91
20711,-150.53
20723,-146.84
20735,-136.73
20747,-125.33
20759,-115.46
20770,-106.55
20781,-97.55
20793,-88.45
20805,-80.12
20817,-74.07
20829,-70.14
20841,-67.27
20853,-63.92
20865,-59.01
20877,-51.0
20889,-39.64
20901,-26.34
20913,-13.07
20925,-0.81
20937,11.02
20949,23.44
20960,36.9
20971,50.32
20983,62.24
20995,70.71
