seconds,BVP
6,7.71
18,10.5
30,12.18
42,13.02
54,13.36
66,13.53
78,13.79
90,14.24
102,14.8
114,15.16
126,14.93
138,13.76
149,11.47
160,8.11
172,3.9
184,-0.82
196,-5.63
208,-10.0
220,-13.34
232,-15.01
244,-14.62
256,-12.12
268,-7.95
280,-2.83
292,2.43
304,7.2
316,11.13
328,14.07
339,15.96
350,16.72
362,16.31
374,14.81
386,12.45
398,9.54
410,6.38
422,3.11
434,-0.23
446,-3.64
458,-7.07
470,-10.4
482,-13.52
494,-16.37
506,-19.04
518,-21.69
529,-24.46
540,-27.48
552,-30.74
564,-34.06
576,-37.1
588,-39.31
600,-40.07
612,-38.91
624,-35.64
636,-30.53
648,-24.16
660,-17.28
672,-10.57
684,-4.46
696,0.86
708,5.3
719,8.83
730,11.39
742,12.97
754,13.67
766,13.73
778,13.42
790,12.99
802,12.58
814,12.27
826,12.14
838,12.28
850,12.8
862,13.76
874,15.03
886,16.34
898,17.38
909,17.9
920,17.88
932,17.43
944,16.8
956,16.17
968,15.61
980,15.06
992,14.44
1004,13.7
1016,12.81
1028,11.78
1040,10.63
1052,9.32
1064,7.83
1076,6.21
1088,4.49
1099,2.76
1110,1.01
1122,-0.81
1134,-2.78
1146,-4.88
1158,-7.01
1170,-8.97
1182,-10.58
1194,-11.81
1206,-12.81
1218,-13.86
1230,-15.22
1242,-17.05
1254,-19.34
1266,-21.92
1278,-24.51
1289,-26.72
1300,-28.09
1312,-28.13
1324,-26.4
1336,-22.68
1348,-17.14
1360,-10.3
1372,-2.96
1384,4.06
1396,10.16
1408,15.06
1420,18.82
1432,21.69
1444,23.87
1456,25.49
1468,26.58
1479,27.14
1490,27.22
1502,26.98
1514,26.59
1526,26.22
1538,25.98
1550,25.87
1562,25.89
1574,26.07
1586,26.44
1598,27.03
1610,27.76
1622,28.47
1634,28.94
1646,28.96
1658,28.38
1669,27.16
1680,25.36
1692,23.13
1704,20.65
1716,18.13
1728,15.82
1740,13.9
1752,12.47
1764,11.5
1776,10.83
1788,10.22
1800,9.49
1812,8.63
1824,7.78
1836,7.22
1848,7.11
1859,7.44
1870,8.0
1882,8.44
1894,8.42
1906,7.67
1918,6.06
1930,3.59
1942,0.32
1954,-3.59
1966,-7.97
1978,-12.68
1990,-17.64
2002,-22.86
2014,-28.38
2026,-34.15
2038,-39.85
2049,-44.86
2060,-48.32
2072,-49.47
2084,-47.93
2096,-43.92
2108,-38.24
2120,-32.01
2132,-26.3
2144,-21.84
2156,-18.78
2168,-16.87
2180,-15.7
2192,-14.97
2204,-14.6
2216,-14.75
2228,-15.56
2239,-17.09
2250,-19.2
2262,-21.54
2274,-23.71
2286,-25.32
2298,-26.0
2310,-25.5
2322,-23.67
2334,-20.54
2346,-16.33
2358,-11.35
2370,-5.99
2382,-0.55
2394,4.68
2406,9.47
2418,13.53
2429,16.61
2440,18.51
2452,19.23
2464,19.01
2476,18.23
2488,17.26
2500,16.31
2512,15.34
2524,14.16
2536,12.52
2548,10.31
2560,7.55
2572,4.42
2584,1.12
2596,-2.18
2608,-5.36
2619,-8.34
2630,-11.15
2642,-13.86
2654,-16.64
2666,-19.75
2678,-23.39
2690,-27.57
2702,-31.95
2714,-35.88
2726,-38.55
2738,-39.22
2750,-37.47
2762,-33.33
2774,-27.21
2786,-19.77
2798,-11.74
2809,-3.76
2820,3.66
2832,10.17
2844,15.48
2856,19.42
2868,21.94
2880,23.09
2892,23.07
2904,22.21
2916,20.88
2928,19.45
2940,18.24
2952,17.47
2964,17.17
2976,17.3
2988,17.73
2999,18.34
3010,19.07
3022,19.89
3034,20.74
3046,21.54
3058,22.11
3070,22.26
3082,21.85
3094,20.87
3106,19.46
3118,17.78
3130,15.99
3142,14.11
3154,12.16
3166,10.12
3178,8.08
3189,6.2
3200,4.61
3212,3.33
3224,2.2
3236,1.0
3248,-0.48
3260,-2.32
3272,-4.45
3284,-6.69
3296,-8.89
3308,-11.0
3320,-13.02
3332,-15.02
3344,-17.03
3356,-19.11
3368,-21.38
3379,-23.99
3390,-27.03
3402,-30.36
3414,-33.49
3426,-35.62
3438,-35.85
3450,-33.51
3462,-28.5
3474,-21.31
3486,-12.89
3498,-4.34
3510,3.48
3522,10.06
3534,15.26
3546,19.19
3558,22.03
3569,23.88
3580,24.84
3592,25.03
3604,24.6
3616,23.82
3628,22.95
3640,22.16
3652,21.52
3664,20.99
3676,20.49
3688,20.02
3700,19.66
3712,19.56
3724,19.82
3736,20.45
3748,21.28
3759,22.03
3770,22.41
3782,22.24
3794,21.52
3806,20.38
3818,19.01
3830,17.56
3842,16.07
3854,14.48
3866,12.72
3878,10.74
3890,8.58
3902,6.35
3914,4.16
3926,2.15
3938,0.37
3949,-1.2
3960,-2.64
3972,-4.09
3984,-5.71
3996,-7.59
4008,-9.68
4020,-11.81
4032,-13.74
4044,-15.27
4056,-16.41
4068,-17.34
4080,-18.45
4092,-20.1
4104,-22.55
4116,-25.86
4128,-29.81
4139,-33.9
4150,-37.43
4162,-39.56
4174,-39.52
4186,-36.84
4198,-31.51
4210,-24.0
4222,-15.16
4234,-5.99
4246,2.65
4258,10.1
4270,15.99
4282,20.26
4294,22.97
4306,24.38
4318,24.78
4329,24.46
4340,23.7
4352,22.67
4364,21.5
4376,20.29
4388,19.11
4400,18.06
4412,17.25
4424,16.78
4436,16.73
4448,17.15
4460,18.0
4472,19.12
4484,20.22
4496,20.98
4508,21.09
4519,20.44
4530,19.09
4542,17.32
4554,15.42
4566,13.64
4578,12.05
4590,10.59
4602,9.11
4614,7.45
4626,5.51
4638,3.33
4650,1.05
4662,-1.13
4674,-3.02
4686,-4.52
4698,-5.69
4709,-6.75
4720,-7.89
4732,-9.28
4744,-10.89
4756,-12.57
4768,-14.1
4780,-15.39
4792,-16.54
4804,-17.84
4816,-19.62
4828,-22.15
4840,-25.43
4852,-29.22
4864,-33.01
4876,-36.1
4888,-37.79
4899,-37.51
4910,-34.94
4922,-30.18
4934,-23.68
4946,-16.13
4958,-8.28
4970,-0.81
4982,5.8
4994,11.26
5006,15.45
5018,18.41
5030,20.25
5042,21.1
5054,21.11
5066,20.42
5078,19.17
5089,17.59
5100,16.04
5112,14.98
5124,14.82
5136,15.79
5148,17.8
5160,20.42
5172,23.09
5184,25.3
5196,26.8
5208,27.56
5220,27.77
5232,27.59
5244,27.05
5256,26.01
5268,24.25
5279,21.57
5290,17.93
5302,13.49
5314,8.62
5326,3.76
5338,-0.69
5350,-4.55
5362,-7.79
5374,-10.52
5386,-12.83
5398,-14.76
5410,-16.23
5422,-17.14
5434,-17.46
5446,-17.26
5458,-16.72
5469,-16.11
5480,-15.74
5492,-15.89
5504,-16.72
5516,-18.16
5528,-19.77
5540,-20.67
5552,-19.67
5564,-15.51
5576,-7.34
5588,5.01
5600,20.83
5612,38.71
5624,56.9
5636,73.75
5648,88.04
5659,99.06
5670,106.61
5682,110.79
5694,111.88
5706,110.19
5718,106.09
5730,99.96
5742,92.2
5754,83.19
5766,73.36
5778,63.06
5790,52.67
5802,42.49
5814,32.75
5826,23.63
5838,15.21
5849,7.53
5860,0.6
5872,-5.55
5884,-10.83
5896,-15.14
5908,-18.35
5920,-20.47
5932,-21.61
5944,-22.08
5956,-22.28
5968,-22.54
5980,-23.1
5992,-24.0
6004,-25.19
6016,-26.67
6028,-28.51
6039,-30.83
6050,-33.66
6062,-36.71
6074,-39.45
6086,-41.13
6098,-41.22
6110,-39.57
6122,-36.52
6134,-32.82
6146,-29.23
6158,-26.33
6170,-24.31
6182,-23.02
6194,-22.17
6206,-21.53
6218,-20.98
6229,-20.53
6240,-20.22
6252,-19.95
6264,-19.5
6276,-18.61
6288,-17.02
6300,-14.68
6312,-11.72
6324,-8.49
6336,-5.37
6348,-2.7
6360,-0.68
6372,0.61
6384,1.17
6396,1.05
6408,0.31
6419,-0.97
6430,-2.66
6442,-4.63
6454,-6.71
6466,-8.72
6478,-10.45
6490,-11.72
6502,-12.41
6514,-12.52
6526,-12.17
6538,-11.57
6550,-10.96
6562,-10.49
6574,-10.22
6586,-10.07
6598,-9.95
6609,-9.81
6620,-9.66
6632,-9.6
6644,-9.74
6656,-10.15
6668,-10.85
6680,-11.82
6692,-13.05
6704,-14.53
6716,-16.28
6728,-18.29
6740,-20.49
6752,-22.68
6764,-24.62
6776,-26.06
6788,-26.86
6799,-27.02
6810,-26.66
6822,-25.95
6834,-25.0
6846,-23.87
6858,-22.55
6870,-21.07
6882,-19.45
6894,-17.73
6906,-15.89
6918,-13.91
6930,-11.72
6942,-9.35
6954,-6.89
6966,-4.48
6978,-2.31
6989,-0.53
7000,0.74
7012,1.4
7024,1.47
7036,1.1
7048,0.62
7060,0.43
7072,0.89
7084,2.06
7096,3.67
7108,5.26
7120,6.36
7132,6.8
7144,6.69
7156,6.37
7168,6.15
7179,6.16
7190,6.3
7202,6.39
7214,6.34
7226,6.17
7238,6.04
7250,6.12
7262,6.49
7274,7.07
7286,7.68
7298,8.13
7310,8.3
7322,8.14
7334,7.68
7346,7.04
7358,6.24
7369,5.3
7380,4.15
7392,2.73
7404,1.06
7416,-0.75
7428,-2.51
7440,-4.04
7452,-5.24
7464,-6.1
7476,-6.71
7488,-7.16
7500,-7.56
7512,-7.94
7524,-8.37
7536,-8.87
7548,-9.5
7559,-10.28
7570,-11.21
7582,-12.29
7594,-13.55
7606,-15.04
7618,-16.83
7630,-18.89
7642,-21.08
7654,-23.05
7666,-24.38
7678,-24.67
7690,-23.7
7702,-21.47
7714,-18.21
7726,-14.27
7738,-10.03
7749,-5.83
7760,-1.94
7772,1.4
7784,4.03
7796,5.84
7808,6.83
7820,7.13
7832,6.95
7844,6.53
7856,6.11
7868,5.94
7880,6.18
7892,6.9
7904,8.08
7916,9.56
7928,11.1
7939,12.47
7950,13.51
7962,14.15
7974,14.4
7986,14.3
7998,13.91
8010,13.22
8022,12.25
8034,10.98
8046,9.45
8058,7.72
8070,5.87
8082,3.97
8094,2.03
8106,0.05
8118,-2.01
8129,-4.2
8140,-6.55
8152,-8.98
8164,-11.36
8176,-13.54
8188,-15.42
8200,-17.03
8212,-18.55
8224,-20.28
8236,-22.51
8248,-25.36
8260,-28.66
8272,-31.88
8284,-34.28
8296,-35.09
8308,-33.79
8319,-30.24
8330,-24.76
8342,-17.98
8354,-10.65
8366,-3.42
8378,3.23
8390,9.01
8402,13.76
8414,17.42
8426,19.98
8438,21.46
8450,21.95
8462,21.6
8474,20.59
8486,19.17
8498,17.66
8509,16.4
8520,15.68
8532,15.63
8544,16.23
8556,17.29
8568,18.53
8580,19.68
8592,20.54
8604,21.0
8616,21.05
8628,20.73
8640,20.06
8652,19.09
8664,17.86
8676,16.42
8688,14.84
8699,13.19
8710,11.51
8722,9.78
8734,7.99
8746,6.11
8758,4.15
8770,2.17
8782,0.22
8794,-1.67
8806,-3.56
8818,-5.57
8830,-7.82
8842,-10.3
8854,-12.88
8866,-15.31
8878,-17.4
8889,-19.07
8900,-20.48
8912,-21.95
8924,-23.9
8936,-26.65
8948,-30.3
8960,-34.62
8972,-39.06
8984,-42.79
8996,-44.95
9008,-44.8
9020,-42.0
9032,-36.7
9044,-29.52
9056,-21.38
9068,-13.19
9079,-5.68
9090,0.78
9102,6.08
9114,10.28
9126,13.45
9138,15.64
9150,16.87
9162,17.22
9174,16.87
9186,16.12
9198,15.35
9210,14.85
9222,14.84
9234,15.35
9246,16.3
9258,17.53
9269,18.94
9280,20.46
9292,22.04
9304,23.63
9316,25.13
9328,26.41
9340,27.27
9352,27.59
9364,27.31
9376,26.47
9388,25.2
9400,23.69
9412,22.13
9424,20.62
9436,19.12
9448,17.54
9459,15.8
9470,13.89
9482,11.89
9494,9.93
9506,8.11
9518,6.41
9530,4.7
9542,2.83
9554,0.7
9566,-1.66
9578,-4.11
9590,-6.5
9602,-8.7
9614,-10.73
9626,-12.65
9638,-14.64
9649,-16.83
9660,-19.41
9672,-22.52
9684,-26.28
9696,-30.63
9708,-35.28
9720,-39.59
9732,-42.69
9744,-43.65
9756,-41.82
9768,-37.04
9780,-29.77
9792,-20.89
9804,-11.48
9816,-2.52
9828,5.32
9839,11.7
9850,16.5
9862,19.81
9874,21.75
9886,22.5
9898,22.28
9910,21.37
9922,20.06
9934,18.72
9946,17.69
9958,17.2
9970,17.37
9982,18.14
9994,19.29
10006,20.6
10018,21.84
10029,22.96
10040,23.95
10052,24.87
10064,25.68
10076,26.27
10088,26.48
10100,26.18
10112,25.32
10124,23.96
10136,22.27
10148,20.42
10160,18.57
10172,16.83
10184,15.24
10196,13.75
10208,12.26
10219,10.69
10230,8.96
10242,7.1
10254,5.2
10266,3.41
10278,1.85
10290,0.53
10302,-0.66
10314,-1.92
10326,-3.46
10338,-5.33
10350,-7.5
10362,-9.82
10374,-12.12
10386,-14.29
10398,-16.35
10409,-18.36
10420,-20.42
10432,-22.65
10444,-25.17
10456,-28.07
10468,-31.37
10480,-34.89
10492,-38.16
10504,-40.46
10516,-41.0
10528,-39.13
10540,-34.66
10552,-27.9
10564,-19.6
10576,-10.75
10588,-2.22
10599,5.31
10610,11.54
10622,16.41
10634,19.99
10646,22.37
10658,23.59
10670,23.68
10682,22.76
10694,21.1
10706,19.09
10718,17.21
10730,15.88
10742,15.34
10754,15.63
10766,16.58
10778,17.89
10789,19.27
10800,20.48
10812,21.38
10824,21.92
10836,22.17
10848,22.19
10860,22.06
10872,21.8
10884,21.4
10896,20.78
10908,19.88
10920,18.63
10932,17.06
10944,15.22
10956,13.19
10968,11.04
10979,8.84
10990,6.66
11002,4.59
11014,2.75
11026,1.21
11038,0.03
11050,-0.84
11062,-1.56
11074,-2.4
11086,-3.63
11098,-5.4
11110,-7.7
11122,-10.28
11134,-12.84
11146,-15.11
11158,-17.02
11169,-18.68
11180,-20.33
11192,-22.22
11204,-24.54
11216,-27.39
11228,-30.77
11240,-34.61
11252,-38.68
11264,-42.46
11276,-45.18
11288,-45.88
11300,-43.82
11312,-38.73
11324,-31.04
11336,-21.73
11348,-12.04
11359,-3.05
11370,4.58
11382,10.67
11394,15.34
11406,18.74
11418,21.01
11430,22.15
11442,22.25
11454,21.55
11466,20.49
11478,19.51
11490,18.96
11502,18.89
11514,19.11
11526,19.31
11538,19.29
11549,19.08
11560,18.87
11572,18.96
11584,19.49
11596,20.38
11608,21.38
11620,22.16
11632,22.47
11644,22.24
11656,21.54
11668,20.49
11680,19.2
11692,17.72
11704,16.07
11716,14.33
11728,12.56
11739,10.85
11750,9.22
11762,7.65
11774,6.09
11786,4.49
11798,2.88
11810,1.31
11822,-0.17
11834,-1.54
11846,-2.89
11858,-4.34
11870,-6.04
11882,-8.05
11894,-10.34
11906,-12.77
11918,-15.2
11929,-17.51
11940,-19.68
11952,-21.77
11964,-23.96
11976,-26.41
11988,-29.27
12000,-32.57
12012,-36.13
12024,-39.48
12036,-41.99
12048,-42.9
12060,-41.61
12072,-37.83
12084,-31.74
12096,-23.93
12108,-15.25
12119,-6.53
12130,1.55
12142,8.54
12154,14.19
12166,18.38
12178,21.08
12190,22.35
12202,22.36
12214,21.4
12226,19.87
12238,18.2
12250,16.77
12262,15.81
12274,15.39
12286,15.44
12298,15.85
12309,16.45
12320,17.16
12332,17.94
12344,18.74
12356,19.51
12368,20.14
12380,20.51
12392,20.54
12404,20.19
12416,19.54
12428,18.7
12440,17.82
12452,16.91
12464,15.93
12476,14.69
12488,13.03
12499,10.89
12510,8.38
12522,5.76
12534,3.36
12546,1.46
12558,0.17
12570,-0.64
12582,-1.28
12594,-2.09
12606,-3.4
12618,-5.32
12630,-7.73
12642,-10.36
12654,-12.82
12666,-14.85
12678,-16.32
12689,-17.36
12700,-18.25
12712,-19.37
12724,-21.04
12736,-23.52
12748,-26.83
12760,-30.74
12772,-34.67
12784,-37.78
12796,-39.09
12808,-37.83
12820,-33.71
12832,-27.07
12844,-18.78
12856,-9.93
12868,-1.48
12879,5.93
12890,12.03
12902,16.82
12914,20.33
12926,22.61
12938,23.69
12950,23.67
12962,22.73
12974,21.18
12986,19.4
12998,17.76
13010,16.59
13022,16.06
13034,16.2
13046,16.92
13058,18.01
13069,19.29
13080,20.63
13092,21.97
13104,23.26
13116,24.43
13128,25.32
13140,25.76
13152,25.66
13164,25.06
13176,24.12
13188,23.06
13200,22.04
13212,21.07
13224,20.08
13236,19.01
13248,17.86
13259,16.73
13270,15.75
13282,14.99
13294,14.45
13306,14.05
13318,13.75
13330,13.59
13342,13.68
13354,14.08
13366,14.71
13378,15.31
13390,15.54
13402,15.05
13414,13.63
13426,11.27
13438,8.13
13449,4.46
13460,0.58
13472,-3.2
13484,-6.58
13496,-9.29
13508,-11.2
13520,-12.28
13532,-12.66
13544,-12.51
13556,-12.08
13568,-11.57
13580,-11.11
13592,-10.81
13604,-10.68
13616,-10.72
13628,-10.87
13639,-11.1
13650,-11.37
13662,-11.69
13674,-12.04
13686,-12.37
13698,-12.61
13710,-12.66
13722,-12.45
13734,-11.96
13746,-11.23
13758,-10.37
13770,-9.53
13782,-8.86
13794,-8.48
13806,-8.41
13818,-8.57
13829,-8.82
13840,-9.0
13852,-9.06
13864,-9.03
13876,-9.05
13888,-9.23
13900,-9.63
13912,-10.14
13924,-10.59
13936,-10.77
13948,-10.62
13960,-10.22
13972,-9.83
13984,-9.73
13996,-10.12
14008,-11.01
14019,-12.19
14030,-13.36
14042,-14.22
14054,-14.62
14066,-14.62
14078,-14.41
14090,-14.26
14102,-14.36
14114,-14.76
14126,-15.37
14138,-16.05
14150,-16.72
14162,-17.39
14174,-18.13
14186,-19.0
14198,-19.89
14209,-20.49
14220,-20.34
14232,-19.0
14244,-16.28
14256,-12.31
14268,-7.56
14280,-2.72
14292,1.61
14304,5.04
14316,7.43
14328,8.89
14340,9.54
14352,9.51
14364,8.87
14376,7.7
14388,6.16
14399,4.51
14410,3.1
14422,2.15
14434,1.73
14446,1.71
14458,1.83
14470,1.89
14482,1.76
14494,1.48
14506,1.13
14518,0.76
14530,0.32
14542,-0.29
14554,-1.23
14566,-2.56
14578,-4.26
14589,-6.2
14600,-8.22
14612,-10.17
14624,-11.96
14636,-13.55
14648,-14.94
14660,-16.14
14672,-17.18
14684,-18.1
14696,-18.97
14708,-19.89
14720,-20.94
14732,-22.12
14744,-23.33
14756,-24.41
14768,-25.19
14779,-25.6
14790,-25.73
14802,-25.79
14814,-26.03
14826,-26.68
14838,-27.88
14850,-29.67
14862,-31.95
14874,-34.42
14886,-36.58
14898,-37.75
14910,-37.27
14922,-34.71
14934,-30.03
14946,-23.62
14958,-16.18
14969,-8.46
14980,-1.07
14992,5.66
15004,11.6
15016,16.71
15028,20.94
15040,24.19
15052,26.38
15064,27.49
15076,27.61
15088,26.91
15100,25.61
15112,23.95
15124,22.2
15136,20.58
15148,19.23
15159,18.21
15170,17.49
15182,16.98
15194,16.57
15206,16.19
15218,15.78
15230,15.31
15242,14.68
15254,13.79
15266,12.57
15278,10.97
15290,9.04
15302,6.91
15314,4.7
15326,2.46
15338,0.28
15349,-1.79
15360,-3.61
15372,-5.04
15384,-5.97
15396,-6.39
15408,-6.43
15420,-6.35
15432,-6.4
15444,-6.76
15456,-7.49
15468,-8.49
15480,-9.56
15492,-10.56
15504,-11.41
15516,-12.21
15528,-13.19
15539,-14.63
15550,-16.71
15562,-19.52
15574,-22.97
15586,-26.86
15598,-30.82
15610,-34.38
15622,-36.95
15634,-37.91
15646,-36.76
15658,-33.25
15670,-27.5
15682,-19.96
15694,-11.27
15706,-2.1
15718,6.97
15729,15.48
15740,23.05
15752,29.34
15764,34.11
15776,37.25
15788,38.88
15800,39.28
15812,38.93
15824,38.27
15836,37.74
15848,37.6
15860,37.99
15872,38.93
15884,40.28
15896,41.85
15908,43.42
15919,44.77
15930,45.8
15942,46.44
15954,46.66
15966,46.42
15978,45.63
15990,44.22
16002,42.2
16014,39.74
16026,37.12
16038,34.61
16050,32.39
16062,30.42
16074,28.53
16086,26.52
16098,24.26
16109,21.77
16120,19.17
16132,16.62
16144,14.19
16156,11.9
16168,9.66
16180,7.37
16192,4.91
16204,2.21
16216,-0.75
16228,-3.94
16240,-7.25
16252,-10.56
16264,-13.77
16276,-16.89
16288,-20.0
16299,-23.25
16310,-26.75
16322,-30.51
16334,-34.4
16346,-38.06
16358,-40.99
16370,-42.57
16382,-42.24
16394,-39.72
16406,-35.07
16418,-28.76
16430,-21.47
16442,-13.93
16454,-6.76
16466,-0.34
16478,5.08
16489,9.35
16500,12.33
16512,13.94
16524,14.26
16536,13.62
16548,12.49
16560,11.4
16572,10.7
16584,10.47
16596,10.57
16608,10.78
16620,10.84
16632,10.69
16644,10.36
16656,9.94
16668,9.58
16679,9.32
16690,9.17
16702,9.05
16714,8.89
16726,8.61
16738,8.12
16750,7.37
16762,6.31
16774,4.97
16786,3.41
16798,1.73
16810,0.07
16822,-1.46
16834,-2.81
16846,-4.03
16858,-5.24
16869,-6.6
16880,-8.22
16892,-10.11
16904,-12.23
16916,-14.45
16928,-16.7
16940,-18.87
16952,-20.89
16964,-22.71
16976,-24.29
16988,-25.7
17000,-27.15
17012,-28.95
17024,-31.37
17036,-34.55
17048,-38.28
17059,-41.97
17070,-44.79
17082,-45.84
17094,-44.49
17106,-40.59
17118,-34.51
17130,-27.05
17142,-19.19
17154,-11.71
17166,-5.11
17178,0.49
17190,5.11
17202,8.84
17214,11.65
17226,13.46
17238,14.23
17249,14.06
17260,13.18
17272,11.96
17284,10.76
17296,9.89
17308,9.55
17320,9.83
17332,10.72
17344,12.1
17356,13.81
17368,15.61
17380,17.29
17392,18.67
17404,19.68
17416,20.24
17428,20.31
17439,19.84
17450,18.77
17462,17.15
17474,15.16
17486,13.06
17498,11.19
17510,9.76
17522,8.86
17534,8.37
17546,7.99
17558,7.36
17570,6.16
17582,4.29
17594,1.91
17606,-0.61
17618,-2.87
17629,-4.62
17640,-5.88
17652,-6.92
17664,-8.12
17676,-9.77
17688,-11.9
17700,-14.33
17712,-16.75
17724,-18.95
17736,-20.86
17748,-22.62
17760,-24.47
17772,-26.65
17784,-29.34
17796,-32.61
17808,-36.42
17819,-40.5
17830,-44.32
17842,-47.14
17854,-48.1
17866,-46.53
17878,-42.19
17890,-35.39
17902,-26.92
17914,-17.83
17926,-9.05
17938,-1.22
17950,5.41
17962,10.86
17974,15.25
17986,18.6
17998,20.87
18009,21.97
18020,21.95
18032,21.02
18044,19.63
18056,18.26
18068,17.32
18080,16.96
18092,17.13
18104,17.58
18116,18.09
18128,18.62
18140,19.21
18152,19.99
18164,20.95
18176,21.91
18188,22.51
18199,22.43
18210,21.54
18222,19.93
18234,17.93
18246,15.87
18258,14.02
18270,12.44
18282,11.01
18294,9.54
18306,7.86
18318,5.9
18330,3.68
18342,1.3
18354,-1.11
18366,-3.45
18378,-5.63
18389,-7.63
18400,-9.47
18412,-11.22
18424,-12.91
18436,-14.53
18448,-16.03
18460,-17.39
18472,-18.67
18484,-20.01
18496,-21.59
18508,-23.57
18520,-26.0
18532,-28.88
18544,-32.23
18556,-36.12
18568,-40.61
18579,-45.62
18590,-50.75
18602,-55.24
18614,-58.1
18626,-58.49
18638,-55.95
18650,-50.71
18662,-43.54
18674,-35.49
18686,-27.57
18698,-20.51
18710,-14.7
18722,-10.23
18734,-7.13
18746,-5.36
18758,-4.85
18769,-5.41
18780,-6.64
18792,-7.95
18804,-8.69
18816,-8.29
18828,-6.45
18840,-3.19
18852,1.28
18864,6.72
18876,13.04
18888,20.32
18900,28.76
18912,38.37
18924,48.89
18936,59.64
18948,69.66
18959,77.93
18970,83.7
18982,86.64
18994,86.84
19006,84.68
19018,80.65
19030,75.12
19042,68.29
19054,60.29
19066,51.22
19078,41.4
19090,31.33
19102,21.67
19114,12.96
19126,5.44
19138,-1.03
19149,-6.9
19160,-12.61
19172,-18.42
19184,-24.19
19196,-29.64
19208,-34.5
19220,-38.71
19232,-42.48
19244,-46.11
19256,-49.76
19268,-53.31
19280,-56.39
19292,-58.54
19304,-59.24
19316,-58.09
19328,-54.73
19339,-48.95
19350,-40.85
19362,-30.91
19374,-19.96
19386,-8.96
19398,1.35
19410,10.66
19422,19.18
19434,27.49
19446,36.35
19458,46.46
19470,58.27
19482,71.75
19494,86.25
19506,100.33
19518,112.13
19529,119.79
19540,122.13
19552,119.13
19564,111.88
19576,102.22
19588,92.01
19600,82.59
19612,74.62
19624,68.14
19636,62.88
19648,58.42
19660,54.28
19672,49.9
19684,44.7
19696,38.21
19708,30.3
19719,21.28
19730,11.83
19742,2.73
19754,-5.39
19766,-12.23
19778,-17.87
19790,-22.56
19802,-26.53
19814,-29.85
19826,-32.39
19838,-33.96
19850,-34.41
19862,-33.8
19874,-32.38
19886,-30.59
19898,-28.93
19909,-27.82
19920,-27.49
19932,-27.78
19944,-28.14
19956,-27.79
19968,-25.95
19980,-22.24
19992,-17.03
20004,-11.47
20016,-7.19
20028,-5.77
20040,-8.15
20052,-14.3
20064,-23.22
20076,-33.27
20088,-42.79
20099,-50.45
20110,-55.49
20122,-57.69
20134,-57.19
20146,-54.37
20158,-49.75
20170,-43.93
20182,-37.61
20194,-31.44
20206,-25.92
20218,-21.31
20230,-17.59
20242,-14.57
20254,-12.01
20266,-9.75
20278,-7.76
20289,-6.12
20300,-4.95
20312,-4.37
20324,-4.42
20336,-5.13
20348,-6.52
20360,-8.6
20372,-11.33
20384,-14.59
20396,-18.21
20408,-21.94
20420,-25.63
20432,-29.19
20444,-32.6
20456,-35.76
20468,-38.44
20479,-40.24
20490,-40.74
20502,-39.71
20514,-37.28
20526,-33.96
20538,-30.41
20550,-27.18
20562,-24.38
20574,-21.6
20586,-18.04
20598,-12.84
20610,-5.51
20622,3.88
20634,14.69
20646,26.03
20658,37.08
20669,47.39
20680,56.96
20692,66.01
20704,74.65
20716,82.67
20728,89.45
20740,94.16
20752,96.12
20764,95.15
20776,91.83
20788,87.32
20800,83.02
20812,80.06
20824,78.84
20836,78.86
20848,78.92
20859,77.48
20870,73.15
20882,65.06
20894,52.96
20906,37.39
20918,19.5
20930,0.84
20942,-16.92
20954,-32.47
20966,-45.12
20978,-54.99
20990,-62.68
