seconds,BVP
3,59.09
14,44.18
26,32.32
38,23.63
50,17.02
62,11.5
74,6.95
86,3.92
98,2.74
110,2.87
122,2.82
134,0.82
146,-4.26
158,-12.39
170,-22.47
182,-32.92
193,-42.35
204,-50.03
216,-56.01
228,-60.83
240,-65.11
252,-69.28
264,-73.41
276,-77.4
288,-81.19
300,-84.96
312,-89.05
324,-93.67
336,-98.43
348,-102.09
360,-102.81
372,-98.68
383,-88.6
394,-72.79
406,-52.89
418,-31.46
430,-11.2
442,5.81
454,18.43
466,26.43
478,30.17
490,30.28
502,27.57
514,22.98
526,17.57
538,12.38
550,8.24
562,5.56
573,4.44
584,4.88
596,7.05
608,11.5
620,18.92
632,29.79
644,43.92
656,60.27
668,77.17
680,92.82
692,105.93
704,116.09
716,123.78
728,129.99
740,135.79
752,141.89
763,148.47
774,155.11
786,160.95
798,165.0
810,166.53
822,165.46
834,162.48
846,158.79
858,155.6
870,153.45
882,151.86
894,149.45
906,144.56
918,135.94
930,123.48
942,108.34
953,92.75
964,79.52
976,71.36
988,70.25
1000,76.8
1012,89.83
1024,106.4
1036,122.37
1048,133.54
1060,136.88
1072,131.41
1084,118.33
1096,100.32
1108,80.48
1120,61.31
1132,44.25
1143,29.76
1154,17.77
1166,8.11
1178,0.67
1190,-4.8
1202,-8.79
1214,-12.11
1226,-15.55
1238,-19.52
1250,-23.76
1262,-27.35
1274,-29.25
1286,-28.92
1298,-26.84
1310,-24.59
1322,-24.46
1333,-28.66
1344,-38.58
1356,-54.36
1368,-74.95
1380,-98.37
1392,-122.36
1404,-144.83
1416,-164.3
1428,-180.1
1440,-192.45
1452,-202.25
1464,-210.85
1476,-219.58
1488,-229.36
1500,-240.49
1512,-252.63
1523,-265.08
1534,-277.05
1546,-287.78
1558,-296.45
1570,-302.04
1582,-303.27
1594,-298.84
1606,-287.96
1618,-270.77
1630,-248.51
1642,-223.16
1654,-196.81
1666,-171.0
1678,-146.33
1690,-122.63
1702,-99.31
1713,-75.87
1724,-52.16
1736,-28.37
1748,-4.87
1760,17.98
1772,39.84
1784,60.46
1796,79.61
1808,97.1
1820,112.7
1832,126.26
1844,137.54
1856,146.26
1868,152.06
1880,154.61
1892,153.76
1903,149.63
1914,142.67
1926,133.62
1938,123.35
1950,112.7
1962,102.23
1974,92.26
1986,82.91
1998,74.25
2010,66.45
2022,59.8
2034,54.6
2046,51.0
2058,48.82
2070,47.57
2082,46.61
2093,45.27
2104,42.96
2116,39.15
2128,33.36
2140,25.19
2152,14.59
2164,2.18
2176,-10.54
2188,-21.4
2200,-28.04
2212,-28.69
2224,-22.82
2236,-11.3
2248,3.89
2260,20.34
2272,36.0
2283,49.59
2294,60.63
2306,69.14
2318,75.22
2330,78.86
2342,79.9
2354,78.32
2366,74.49
2378,69.26
2390,63.78
2402,59.21
2414,56.28
2426,55.11
2438,55.27
2450,56.07
2462,56.9
2473,57.44
2484,57.63
2496,57.46
2508,56.86
2520,55.59
2532,53.47
2544,50.49
2556,46.91
2568,43.18
2580,39.65
2592,36.45
2604,33.43
2616,30.29
2628,26.74
2640,22.66
2652,18.04
2663,13.04
2674,7.82
2686,2.59
2698,-2.41
2710,-6.97
2722,-11.03
2734,-14.72
2746,-18.49
2758,-23.0
2770,-28.98
2782,-36.86
2794,-46.49
2806,-56.91
2818,-66.46
2830,-73.11
2842,-75.07
2853,-71.29
2864,-61.88
2876,-47.94
2888,-31.23
2900,-13.58
2912,3.52
2924,19.09
2936,32.61
2948,43.84
2960,52.61
2972,58.89
2984,62.75
2996,64.52
3008,64.66
3020,63.75
3032,62.33
3043,60.77
3054,59.25
3066,57.8
3078,56.37
3090,54.93
3102,53.5
3114,52.15
3126,51.03
3138,50.26
3150,49.92
3162,49.95
3174,50.15
3186,50.2
3198,49.73
3210,48.43
3222,46.16
3233,43.07
3244,39.5
3256,35.86
3268,32.43
3280,29.22
3292,25.9
3304,21.98
3316,16.99
3328,10.76
3340,3.51
3352,-4.15
3364,-11.5
3376,-17.89
3388,-23.05
3400,-27.11
3412,-30.53
3423,-33.93
3434,-37.9
3446,-42.86
3458,-48.84
3470,-55.47
3482,-61.84
3494,-66.69
3506,-68.62
3518,-66.51
3530,-59.87
3542,-49.04
3554,-35.15
3566,-19.86
3578,-4.83
3590,8.62
3602,19.71
3613,28.19
3624,34.18
3636,37.93
3648,39.69
3660,39.69
3672,38.22
3684,35.69
3696,32.68
3708,29.8
3720,27.61
3732,26.37
3744,26.09
3756,26.49
3768,27.24
3780,28.05
3792,28.74
3803,29.2
3814,29.35
3826,29.04
3838,28.06
3850,26.23
3862,23.49
3874,19.99
3886,16.04
3898,12.08
3910,8.47
3922,5.36
3934,2.67
3946,0.08
3958,-2.72
3970,-5.95
3982,-9.54
3993,-13.26
4004,-16.76
4016,-19.76
4028,-22.18
4040,-24.12
4052,-25.88
4064,-27.84
4076,-30.35
4088,-33.58
4100,-37.29
4112,-40.77
4124,-42.9
4136,-42.38
4148,-38.21
4160,-29.99
4172,-18.22
4183,-4.13
4194,10.71
4206,24.79
4218,37.06
4230,47.01
4242,54.55
4254,59.79
4266,62.86
4278,63.8
4290,62.73
4302,59.87
4314,55.71
4326,50.96
4338,46.38
4350,42.63
4362,40.07
4373,38.71
4384,38.26
4396,38.39
4408,38.77
4420,39.21
4432,39.65
4444,40.02
4456,40.19
4468,39.92
4480,38.91
4492,36.93
4504,33.96
4516,30.2
4528,26.07
4540,22.01
4552,18.34
4563,15.05
4574,11.85
4586,8.3
4598,4.03
4610,-1.05
4622,-6.65
4634,-12.24
4646,-17.31
4658,-21.63
4670,-25.43
4682,-29.27
4694,-33.78
4706,-39.42
4718,-46.17
4730,-53.5
4742,-60.37
4753,-65.51
4764,-67.75
4776,-66.24
4788,-60.76
4800,-51.74
4812,-40.23
4824,-27.52
4836,-14.89
4848,-3.31
4860,6.73
4872,15.16
4884,22.12
4896,27.78
4908,32.29
4920,35.83
4932,38.79
4943,41.77
4954,45.45
4966,50.31
4978,56.35
4990,62.99
5002,69.33
5014,74.56
5026,78.32
5038,80.79
5050,82.45
5062,83.64
5074,84.27
5086,83.79
5098,81.47
5110,76.76
5122,69.52
5133,60.01
5144,48.81
5156,36.63
5168,24.32
5180,12.71
5192,2.43
5204,-6.36
5216,-14.22
5228,-22.39
5240,-32.38
5252,-45.34
5264,-61.5
5276,-79.99
5288,-99.11
5300,-116.99
5312,-132.12
5323,-143.78
5334,-151.92
5346,-156.92
5358,-159.13
5370,-158.59
5382,-154.92
5394,-147.38
5406,-135.11
5418,-117.58
5430,-95.07
5442,-68.89
5454,-41.27
5466,-14.7
5478,8.84
5490,28.59
5502,45.07
5513,59.66
5524,73.71
5536,87.92
5548,102.02
5560,114.99
5572,125.52
5584,132.5
5596,135.37
5608,134.21
5620,129.8
5632,123.45
5644,116.85
5656,111.6
5668,108.88
5680,109.1
5692,111.95
5703,116.61
5714,122.06
5726,127.26
5738,131.27
5750,133.17
5762,132.16
5774,127.73
5786,119.9
5798,109.32
5810,97.14
5822,84.63
5834,72.76
5846,61.85
5858,51.55
5870,41.04
5882,29.5
5893,16.43
5904,1.98
5916,-13.16
5928,-27.95
5940,-41.38
5952,-52.82
5964,-62.09
5976,-69.43
5988,-75.45
6000,-81.14
6012,-87.83
6024,-96.97
6036,-109.66
6048,-125.92
6060,-144.21
6072,-161.57
6083,-174.37
6094,-179.65
6106,-176.05
6118,-164.1
6130,-145.63
6142,-122.85
6154,-97.53
6166,-70.99
6178,-44.42
6190,-19.39
6202,2.19
6214,18.55
6226,28.86
6238,33.61
6250,34.46
6262,33.44
6273,32.21
6284,31.44
6296,30.92
6308,29.91
6320,27.81
6332,24.49
6344,20.37
6356,16.09
6368,12.08
6380,8.37
6392,4.5
6404,-0.14
6416,-5.94
6428,-12.82
6440,-20.17
6452,-27.12
6463,-32.83
6474,-36.82
6486,-39.11
6498,-40.16
6510,-40.66
6522,-41.3
6534,-42.55
6546,-44.57
6558,-47.21
6570,-50.23
6582,-53.43
6594,-56.78
6606,-60.32
6618,-63.92
6630,-67.03
6642,-68.71
6653,-67.82
6664,-63.54
6676,-55.74
6688,-45.22
6700,-33.45
6712,-22.1
6724,-12.51
6736,-5.26
6748,-0.26
6760,3.08
6772,5.34
6784,6.83
6796,7.5
6808,7.13
6820,5.58
6832,3.02
6843,-0.02
6854,-2.79
6866,-4.61
6878,-5.13
6890,-4.41
6902,-2.79
6914,-0.72
6926,1.52
6938,3.87
6950,6.47
6962,9.47
6974,12.81
6986,16.23
6998,19.24
7010,21.36
7022,22.32
7033,22.17
7044,21.27
7056,20.08
7068,19.03
7080,18.33
7092,17.93
7104,17.58
7116,17.01
7128,15.92
7140,14.09
7152,11.37
7164,7.61
7176,2.78
7188,-2.88
7200,-8.8
7212,-14.06
7223,-17.48
7234,-18.03
7246,-15.1
7258,-8.77
7270,0.2
7282,10.59
7294,21.06
7306,30.49
7318,38.24
7330,44.12
7342,48.24
7354,50.78
7366,51.93
7378,51.83
7390,50.69
7402,48.92
7413,47.15
7424,46.07
7436,46.31
7448,48.13
7460,51.39
7472,55.5
7484,59.7
7496,63.23
7508,65.64
7520,66.86
7532,67.12
7544,66.75
7556,65.96
7568,64.77
7580,62.98
7592,60.39
7603,56.93
7614,52.74
7626,48.16
7638,43.49
7650,38.9
7662,34.26
7674,29.22
7686,23.37
7698,16.45
7710,8.48
7722,-0.26
7734,-9.32
7746,-18.37
7758,-27.26
7770,-36.0
7782,-44.53
7793,-52.52
7804,-59.29
7816,-64.02
7828,-66.2
7840,-65.95
7852,-64.09
7864,-61.83
7876,-60.15
7888,-59.4
7900,-59.19
7912,-58.77
7924,-57.58
7936,-55.64
7948,-53.52
7960,-51.97
7972,-51.51
7983,-52.14
7994,-53.52
8006,-55.24
8018,-57.12
8030,-59.22
8042,-61.58
8054,-63.95
8066,-65.71
8078,-66.03
8090,-64.23
8102,-60.12
8114,-54.07
8126,-46.84
8138,-39.29
8150,-32.0
8162,-25.18
8173,-18.73
8184,-12.35
8196,-5.81
8208,1.01
8220,7.98
8232,14.8
8244,21.05
8256,26.25
8268,29.96
8280,31.82
8292,31.63
8304,29.35
8316,25.2
8328,19.54
8340,12.89
8352,5.67
8363,-1.78
8374,-9.26
8386,-16.55
8398,-23.2
8410,-28.41
8422,-31.05
8434,-30.01
8446,-24.59
8458,-14.9
8470,-1.91
8482,12.77
8494,27.45
8506,40.81
8518,52.18
8530,61.5
8542,69.1
8553,75.43
8564,80.92
8576,85.84
8588,90.41
8600,94.54
8612,97.79
8624,99.29
8636,97.93
8648,92.71
8660,83.3
8672,70.23
8684,54.79
8696,38.6
8708,23.02
8720,8.82
8732,-3.9
8743,-15.39
8754,-25.97
8766,-35.74
8778,-44.69
8790,-52.77
8802,-60.0
8814,-66.58
8826,-72.61
8838,-78.08
8850,-82.72
8862,-86.18
8874,-88.17
8886,-88.61
8898,-87.68
8910,-85.73
8922,-83.24
8933,-80.64
8944,-78.25
8956,-76.26
8968,-74.72
8980,-73.63
8992,-72.98
9004,-72.86
9016,-73.35
9028,-74.41
9040,-75.72
9052,-76.52
9064,-75.76
9076,-72.33
9088,-65.54
9100,-55.42
9112,-42.83
9123,-29.14
9134,-15.8
9146,-3.83
9158,6.32
9170,14.75
9182,21.86
9194,27.98
9206,33.22
9218,37.5
9230,40.68
9242,42.77
9254,43.99
9266,44.71
9278,45.33
9290,46.2
9302,47.52
9313,49.36
9324,51.7
9336,54.44
9348,57.37
9360,60.15
9372,62.36
9384,63.55
9396,63.37
9408,61.68
9420,58.58
9432,54.41
9444,49.54
9456,44.35
9468,39.11
9480,33.98
9492,29.0
9503,24.17
9514,19.5
9526,15.08
9538,11.09
9550,7.7
9562,5.0
9574,2.82
9586,0.84
9598,-1.34
9610,-3.97
9622,-7.05
9634,-10.24
9646,-13.12
9658,-15.31
9670,-16.66
9682,-17.22
9693,-17.1
9704,-16.35
9716,-14.79
9728,-12.05
9740,-7.67
9752,-1.21
9764,7.56
9776,18.54
9788,31.22
9800,44.64
9812,57.43
9824,68.01
9836,74.89
9848,76.97
9860,73.9
9872,66.18
9883,55.08
9894,42.38
9906,29.84
9918,18.78
9930,9.75
9942,2.63
9954,-2.88
9966,-6.68
9978,-7.84
9990,-4.8
10002,3.78
10014,18.01
10026,36.11
10038,54.56
10050,69.19
10062,76.78
10073,76.15
10084,68.55
10096,56.69
10108,43.5
10120,30.88
10132,19.32
10144,8.36
10156,-2.6
10168,-13.71
10180,-24.54
10192,-34.43
10204,-42.91
10216,-49.92
10228,-55.66
10240,-60.22
10252,-63.41
10263,-64.71
10274,-63.61
10286,-59.99
10298,-54.36
10310,-47.73
10322,-41.36
10334,-36.35
10346,-33.32
10358,-32.31
10370,-32.86
10382,-34.33
10394,-36.11
10406,-37.92
10418,-39.85
10430,-42.26
10442,-45.58
10453,-50.03
10464,-55.46
10476,-61.37
10488,-67.04
10500,-71.71
10512,-74.86
10524,-76.21
10536,-75.81
10548,-73.9
10560,-70.89
10572,-67.33
10584,-63.88
10596,-61.14
10608,-59.52
10620,-59.0
10632,-59.02
10643,-58.69
10654,-57.06
10666,-53.5
10678,-48.0
10690,-41.07
10702,-33.56
10714,-26.28
10726,-19.8
10738,-14.45
10750,-10.4
10762,-7.79
10774,-6.66
10786,-6.83
10798,-7.67
10810,-8.14
10822,-7.07
10833,-3.5
10844,2.96
10856,12.01
10868,22.75
10880,34.04
10892,44.8
10904,54.23
10916,61.82
10928,67.27
10940,70.39
10952,71.06
10964,69.3
10976,65.35
10988,59.72
11000,53.13
11012,46.39
11023,40.19
11034,34.99
11046,30.96
11058,28.03
11070,26.0
11082,24.65
11094,23.78
11106,23.25
11118,22.91
11130,22.63
11142,22.22
11154,21.57
11166,20.64
11178,19.46
11190,18.13
11202,16.66
11213,15.06
11224,13.22
11236,11.05
11248,8.54
11260,5.82
11272,3.1
11284,0.61
11296,-1.56
11308,-3.52
11320,-5.59
11332,-8.18
11344,-11.64
11356,-16.08
11368,-21.19
11380,-26.29
11392,-30.41
11403,-32.56
11414,-32.01
11426,-28.54
11438,-22.5
11450,-14.75
11462,-6.33
11474,1.79
11486,8.94
11498,14.81
11510,19.33
11522,22.56
11534,24.52
11546,25.21
11558,24.61
11570,22.83
11582,20.11
11593,16.84
11604,13.43
11616,10.25
11628,7.56
11640,5.48
11652,4.04
11664,3.19
11676,2.85
11688,2.94
11700,3.35
11712,4.01
11724,4.84
11736,5.8
11748,6.93
11760,8.28
11772,9.84
11783,11.54
11794,13.18
11806,14.49
11818,15.19
11830,15.1
11842,14.14
11854,12.31
11866,9.69
11878,6.34
11890,2.36
11902,-2.14
11914,-6.98
11926,-12.0
11938,-17.1
11950,-22.33
11962,-27.71
11973,-33.12
11984,-38.13
11996,-42.02
12008,-44.05
12020,-43.75
12032,-41.16
12044,-36.75
12056,-31.25
12068,-25.29
12080,-19.17
12092,-12.84
12104,-6.03
12116,1.46
12128,9.58
12140,17.93
12152,25.82
12163,32.44
12174,37.14
12186,39.57
12198,39.95
12210,38.95
12222,37.63
12234,37.0
12246,37.7
12258,39.78
12270,42.77
12282,45.89
12294,48.43
12306,49.99
12318,50.45
12330,49.94
12342,48.63
12353,46.73
12364,44.5
12376,42.26
12388,40.35
12400,39.08
12412,38.61
12424,38.89
12436,39.75
12448,41.02
12460,42.57
12472,44.3
12484,46.08
12496,47.75
12508,49.15
12520,50.35
12532,51.69
12543,53.76
12554,57.09
12566,61.98
12578,68.36
12590,75.92
12602,84.34
12614,93.43
12626,103.07
12638,113.0
12650,122.67
12662,131.35
12674,138.6
12686,144.65
12698,150.51
12710,157.51
12722,166.22
12733,175.8
12744,183.76
12756,186.73
12768,181.78
12780,167.6
12792,144.97
12804,116.26
12816,84.34
12828,51.71
12840,19.91
12852,-10.27
12864,-38.35
12876,-63.85
12888,-86.29
12900,-105.44
12912,-121.54
12923,-135.34
12934,-147.85
12946,-159.94
12958,-171.96
12970,-183.66
12982,-194.22
12994,-202.54
13006,-207.63
13018,-208.87
13030,-206.19
13042,-200.13
13054,-191.56
13066,-181.49
13078,-170.81
13090,-160.24
13102,-150.33
13113,-141.64
13124,-134.67
13136,-129.71
13148,-126.48
13160,-123.92
13172,-120.09
13184,-112.56
13196,-99.26
13208,-79.26
13220,-53.38
13232,-24.03
13244,5.43
13256,31.76
13268,52.61
13280,66.85
13292,74.36
13303,75.66
13314,71.54
13326,62.98
13338,51.2
13350,37.72
13362,24.18
13374,12.02
13386,2.27
13398,-4.62
13410,-8.64
13422,-10.05
13434,-9.3
13446,-7.06
13458,-4.17
13470,-1.61
13482,-0.3
13493,-0.95
13504,-3.88
13516,-8.99
13528,-15.86
13540,-23.89
13552,-32.47
13564,-41.06
13576,-49.29
13588,-56.88
13600,-63.7
13612,-69.77
13624,-75.24
13636,-80.43
13648,-85.68
13660,-91.26
13672,-97.19
13683,-103.25
13694,-108.98
13706,-113.78
13718,-116.87
13730,-117.29
13742,-113.94
13754,-105.84
13766,-92.58
13778,-74.67
13790,-53.66
13802,-31.8
13814,-11.35
13826,6.0
13838,19.58
13850,29.49
13862,36.37
13873,40.82
13884,43.32
13896,44.22
13908,43.97
13920,43.17
13932,42.43
13944,42.19
13956,42.45
13968,42.84
13980,42.82
13992,41.92
14004,40.03
14016,37.38
14028,34.41
14040,31.57
14052,29.08
14063,26.87
14074,24.72
14086,22.42
14098,19.89
14110,17.25
14122,14.67
14134,12.24
14146,9.86
14158,7.23
14170,4.01
14182,-0.09
14194,-5.12
14206,-10.85
14218,-16.73
14230,-21.97
14242,-25.71
14253,-27.25
14264,-26.17
14276,-22.51
14288,-16.74
14300,-9.59
14312,-1.91
14324,5.55
14336,12.21
14348,17.73
14360,21.9
14372,24.63
14384,25.91
14396,25.83
14408,24.61
14420,22.63
14432,20.4
14443,18.41
14454,17.02
14466,16.35
14478,16.31
14490,16.66
14502,17.14
14514,17.63
14526,18.13
14538,18.74
14550,19.53
14562,20.48
14574,21.42
14586,22.12
14598,22.35
14610,22.01
14622,21.18
14633,20.18
14644,19.47
14656,19.56
14668,20.82
14680,23.33
14692,26.77
14704,30.39
14716,33.2
14728,34.13
14740,32.38
14752,27.71
14764,20.61
14776,12.24
14788,4.22
14800,-1.75
14812,-4.4
14823,-3.1
14834,1.99
14846,10.12
14858,20.23
14870,31.2
14882,42.13
14894,52.32
14906,61.23
14918,68.27
14930,72.85
14942,74.39
14954,72.5
14966,67.26
14978,59.25
14990,49.55
15002,39.41
15013,29.97
15024,21.93
15036,15.45
15048,10.22
15060,5.68
15072,1.31
15084,-3.27
15096,-8.22
15108,-13.54
15120,-19.11
15132,-24.73
15144,-30.11
15156,-34.93
15168,-38.93
15180,-41.97
15192,-44.11
15203,-45.59
15214,-46.76
15226,-47.85
15238,-48.97
15250,-50.05
15262,-50.94
15274,-51.53
15286,-51.75
15298,-51.67
15310,-51.45
15322,-51.39
15334,-51.85
15346,-53.14
15358,-55.32
15370,-58.07
15382,-60.56
15393,-61.66
15404,-60.21
15416,-55.52
15428,-47.6
15440,-37.23
15452,-25.79
15464,-14.82
15476,-5.64
15488,0.89
15500,4.5
15512,5.38
15524,4.02
15536,1.05
15548,-2.93
15560,-7.41
15572,-12.1
15583,-16.88
15594,-21.82
15606,-27.0
15618,-32.37
15630,-37.58
15642,-41.9
15654,-44.2
15666,-43.17
15678,-37.65
15690,-27.14
15702,-12.11
15714,5.89
15726,24.57
15738,41.43
15750,54.48
15762,62.68
15773,66.03
15784,65.22
15796,61.26
15808,55.03
15820,47.14
15832,38.01
15844,27.96
15856,17.31
15868,6.4
15880,-4.48
15892,-15.15
15904,-25.52
15916,-35.55
15928,-45.22
15940,-54.43
15952,-62.9
15963,-70.09
15974,-75.24
15986,-77.53
15998,-76.31
16010,-71.37
16022,-62.95
16034,-51.67
16046,-38.19
16058,-23.09
16070,-6.84
16082,9.92
16094,26.24
16106,40.73
16118,51.93
16130,58.73
16142,60.84
16153,58.96
16164,54.57
16176,49.43
16188,45.06
16200,42.45
16212,41.91
16224,43.3
16236,46.22
16248,50.2
16260,54.73
16272,59.28
16284,63.21
16296,65.91
16308,66.93
16320,66.06
16332,63.5
16343,59.78
16354,55.57
16366,51.53
16378,48.15
16390,45.8
16402,44.65
16414,44.76
16426,46.0
16438,48.08
16450,50.5
16462,52.67
16474,54.01
16486,54.11
16498,52.72
16510,49.83
16522,45.51
16533,39.92
16544,33.22
16556,25.65
16568,17.49
16580,8.97
16592,0.17
16604,-9.03
16616,-18.95
16628,-29.89
16640,-42.03
16652,-55.18
16664,-68.79
16676,-82.11
16688,-94.29
16700,-104.55
16712,-112.24
16723,-116.83
16734,-117.98
16746,-115.6
16758,-109.93
16770,-101.56
16782,-91.33
16794,-80.15
16806,-68.8
16818,-57.83
16830,-47.59
16842,-38.27
16854,-30.05
16866,-23.07
16878,-17.5
16890,-13.39
16902,-10.7
16913,-9.23
16924,-8.63
16936,-8.51
16948,-8.5
16960,-8.36
16972,-8.05
16984,-7.76
16996,-7.83
17008,-8.62
17020,-10.39
17032,-13.18
17044,-16.72
17056,-20.4
17068,-23.39
17080,-24.79
17092,-23.95
17103,-20.63
17114,-15.07
17126,-7.93
17138,-0.08
17150,7.65
17162,14.63
17174,20.51
17186,25.15
17198,28.52
17210,30.64
17222,31.51
17234,31.22
17246,29.96
17258,28.05
17270,25.91
17282,23.95
17293,22.46
17304,21.53
17316,21.04
17328,20.81
17340,20.61
17352,20.34
17364,20.0
17376,19.67
17388,19.42
17400,19.25
17412,19.05
17424,18.64
17436,17.78
17448,16.27
17460,13.98
17472,10.99
17483,7.54
17494,3.92
17506,0.49
17518,-2.55
17530,-5.15
17542,-7.42
17554,-9.62
17566,-12.08
17578,-15.12
17590,-18.92
17602,-23.47
17614,-28.35
17626,-32.83
17638,-35.98
17650,-36.89
17662,-35.02
17673,-30.33
17684,-23.36
17696,-15.0
17708,-6.25
17720,2.06
17732,9.39
17744,15.46
17756,20.19
17768,23.61
17780,25.74
17792,26.66
17804,26.52
17816,25.57
17828,24.11
17840,22.49
17852,21.0
17863,19.86
17874,19.12
17886,18.73
17898,18.53
17910,18.41
17922,18.33
17934,18.33
17946,18.45
17958,18.67
17970,18.78
17982,18.49
17994,17.53
18006,15.78
18018,13.4
18030,10.76
18042,8.22
18053,6.04
18064,4.23
18076,2.58
18088,0.82
18100,-1.23
18112,-3.57
18124,-6.05
18136,-8.46
18148,-10.63
18160,-12.52
18172,-14.16
18184,-15.73
18196,-17.42
18208,-19.45
18220,-22.02
18232,-25.24
18243,-29.07
18254,-33.19
18266,-36.99
18278,-39.59
18290,-40.15
18302,-38.05
18314,-33.14
18326,-25.83
18338,-16.97
18350,-7.6
18362,1.27
18374,8.94
18386,15.04
18398,19.53
18410,22.54
18422,24.27
18433,24.94
18444,24.75
18456,23.95
18468,22.78
18480,21.52
18492,20.43
18504,19.71
18516,19.43
18528,19.52
18540,19.85
18552,20.28
18564,20.73
18576,21.21
18588,21.74
18600,22.3
18612,22.77
18623,22.95
18634,22.64
18646,21.73
18658,20.24
18670,18.42
18682,16.54
18694,14.86
18706,13.46
18718,12.22
18730,10.91
18742,9.28
18754,7.25
18766,4.91
18778,2.49
18790,0.29
18802,-1.5
18813,-2.84
18824,-3.9
18836,-4.95
18848,-6.29
18860,-8.11
18872,-10.42
18884,-13.04
18896,-15.67
18908,-18.03
18920,-19.95
18932,-21.43
18944,-22.65
18956,-23.89
18968,-25.47
18980,-27.67
18992,-30.6
19003,-34.12
19014,-37.76
19026,-40.71
19038,-42.01
19050,-40.86
19062,-36.82
19074,-30.12
19086,-21.49
19098,-12.02
19110,-2.73
19122,5.58
19134,12.44
19146,17.67
19158,21.24
19170,23.15
19182,23.51
19193,22.56
19204,20.69
19216,18.43
19228,16.28
19240,14.68
19252,13.81
19264,13.66
19276,14.05
19288,14.71
19300,15.41
19312,16.03
19324,16.59
19336,17.14
19348,17.75
19360,18.39
19372,18.93
19383,19.18
19394,18.96
19406,18.24
19418,17.12
19430,15.82
19442,14.58
19454,13.49
19466,12.5
19478,11.41
19490,10.02
19502,8.22
19514,6.11
19526,3.91
19538,1.87
19550,0.17
19562,-1.18
19573,-2.32
19584,-3.45
19596,-4.7
19608,-6.16
19620,-7.8
19632,-9.53
19644,-11.26
19656,-12.87
19668,-14.29
19680,-15.49
19692,-16.43
19704,-17.22
19716,-18.03
19728,-19.15
19740,-20.92
19752,-23.54
19763,-26.92
19774,-30.55
19786,-33.5
19798,-34.73
19810,-33.42
19822,-29.29
19834,-22.71
19846,-14.53
19858,-5.73
19870,2.87
19882,10.73
19894,17.58
19906,23.25
19918,27.6
19930,30.47
19942,31.8
19953,31.72
19964,30.57
19976,28.81
19988,26.98
20000,25.55
20012,24.85
20024,24.99
20036,25.84
20048,27.04
20060,28.17
20072,28.86
20084,28.9
20096,28.26
20108,27.09
20120,25.62
20132,24.08
20143,22.7
20154,21.69
20166,21.17
20178,21.09
20190,21.15
20202,20.9
20214,19.78
20226,17.35
20238,13.47
20250,8.26
20262,2.08
20274,-4.69
20286,-11.68
20298,-18.61
20310,-25.23
20322,-31.31
20333,-36.59
20344,-40.84
20356,-44.01
20368,-46.22
20380,-47.79
20392,-49.17
20404,-50.84
20416,-53.17
20428,-56.38
20440,-60.55
20452,-65.57
20464,-71.22
20476,-77.16
20488,-82.96
20500,-88.04
20512,-91.78
20523,-93.56
20534,-92.96
20546,-89.83
20558,-84.34
20570,-76.91
20582,-68.04
20594,-58.36
20606,-48.49
20618,-39.17
20630,-31.16
20642,-25.13
20654,-21.4
20666,-19.81
20678,-19.82
20690,-20.69
20702,-21.75
20713,-22.44
20724,-22.28
20736,-20.81
20748,-17.63
20760,-12.6
20772,-6.03
20784,1.42
20796,9.22
20808,17.43
20820,26.92
20832,39.04
20844,54.85
20856,74.36
20868,96.28
20880,118.4
20892,138.46
20903,155.08
20914,168.08
20926,178.23
20938,186.51
20950,193.35
20962,198.36
20974,200.4
20986,198.18
20998,190.87
