seconds,BVP
2,95.79
14,105.33
26,94.88
38,71.47
50,40.09
62,-3.09
74,-59.58
86,-122.23
98,-187.36
110,-245.23
122,-292.37
134,-327.0
145,-347.57
156,-335.21
168,-291.03
180,-255.35
192,-236.95
204,-223.46
216,-208.98
228,-190.19
240,-164.02
252,-127.67
264,-80.93
276,-30.91
288,16.37
300,62.65
312,107.89
324,149.81
335,186.42
346,217.39
358,243.81
370,266.24
382,281.32
394,287.18
406,288.4
418,288.62
430,290.14
442,295.23
454,305.65
466,321.67
478,341.18
490,358.85
502,370.58
514,377.16
525,379.71
536,378.71
548,374.42
560,366.66
572,355.07
584,339.37
596,318.99
608,293.72
620,264.02
632,227.95
644,181.45
656,120.68
668,44.62
680,-42.92
692,-133.04
704,-214.07
715,-274.96
726,-308.51
738,-314.4
750,-298.72
762,-270.86
774,-239.89
786,-211.97
798,-190.03
810,-175.42
822,-169.55
834,-174.08
846,-189.3
858,-211.85
870,-234.18
882,-246.59
894,-241.16
905,-215.42
916,-173.35
928,-123.23
940,-73.5
952,-28.99
964,10.6
976,49.47
988,92.5
1000,142.09
1012,196.55
1024,250.55
1036,297.44
1048,332.08
1060,352.83
1072,362.01
1084,364.31
1095,364.42
1106,365.01
1118,366.24
1130,366.68
1142,364.74
1154,359.42
1166,350.04
1178,335.26
1190,312.53
1202,278.79
1214,232.04
1226,172.88
1238,104.81
1250,32.82
1262,-38.48
1274,-105.97
1285,-167.74
1296,-222.16
1308,-267.04
1320,-299.95
1332,-319.16
1344,-324.14
1356,-315.54
1368,-294.11
1380,-259.87
1392,-212.47
1404,-152.71
1416,-84.38
1428,-15.18
1440,44.35
1452,83.64
1464,95.28
1475,77.57
1486,34.99
1498,-23.26
1510,-86.1
1522,-143.37
1534,-187.9
1546,-216.41
1558,-229.0
1570,-227.97
1582,-216.6
1594,-198.44
1606,-177.12
1618,-156.24
1630,-138.78
1642,-126.23
1654,-117.91
1665,-111.02
1676,-101.87
1688,-87.33
1700,-66.09
1712,-38.92
1724,-7.76
1736,25.18
1748,57.96
1760,88.89
1772,116.46
1784,139.34
1796,156.8
1808,168.93
1820,176.33
1832,179.26
1844,176.88
1855,167.18
1866,148.28
1878,120.05
1890,85.22
1902,49.02
1914,17.33
1926,-5.59
1938,-18.7
1950,-23.98
1962,-24.83
1974,-23.95
1986,-21.83
1998,-16.69
2010,-5.43
2022,14.92
2034,45.95
2045,87.34
2056,136.68
2068,189.69
2080,240.44
2092,282.23
2104,308.86
2116,316.2
2128,303.13
2140,271.32
2152,223.82
2164,163.29
2176,91.63
2188,10.88
2200,-74.54
2212,-156.28
2224,-222.71
2235,-261.85
2246,-265.08
2258,-229.88
2270,-160.38
2282,-65.69
2294,42.47
2306,152.01
2318,251.84
2330,332.79
2342,388.54
2354,416.62
2366,418.72
2378,399.82
2390,366.27
2402,323.41
2414,274.13
2425,218.8
2436,156.64
2448,87.46
2460,12.93
2472,-63.54
2484,-137.75
2496,-205.97
2508,-265.87
2520,-316.87
2532,-359.75
2544,-395.99
2556,-426.76
2568,-452.48
2580,-472.99
2592,-488.13
2604,-498.21
2615,-504.16
2626,-506.96
2638,-506.85
2650,-502.96
2662,-493.64
2674,-477.23
2686,-452.85
2698,-420.56
2710,-381.05
2722,-335.04
2734,-283.24
2746,-226.83
2758,-168.39
2770,-112.4
2782,-64.6
2794,-29.99
2805,-10.69
2816,-4.52
2828,-5.73
2840,-7.11
2852,-2.44
2864,11.78
2876,36.16
2888,69.08
2900,107.51
2912,147.33
2924,183.43
2936,210.31
2948,223.26
2960,219.77
2972,200.55
2984,169.66
2995,133.29
3006,98.38
3018,71.19
3030,56.43
3042,57.07
3054,74.32
3066,107.74
3078,155.35
3090,213.68
3102,277.75
3114,341.24
3126,397.08
3138,438.63
3150,461.31
3162,464.19
3174,450.33
3185,425.48
3196,395.83
3208,365.69
3220,336.68
3232,308.59
3244,280.94
3256,253.98
3268,228.45
3280,204.37
3292,180.35
3304,153.8
3316,122.45
3328,85.93
3340,46.3
3352,7.07
3364,-28.51
3375,-58.96
3386,-84.96
3398,-108.36
3410,-131.0
3422,-153.68
3434,-176.03
3446,-197.0
3458,-215.72
3470,-232.01
3482,-246.44
3494,-259.52
3506,-271.02
3518,-279.82
3530,-284.49
3542,-284.22
3554,-279.48
3565,-272.19
3576,-265.48
3588,-262.27
3600,-263.69
3612,-268.37
3624,-273.27
3636,-275.27
3648,-272.61
3660,-265.06
3672,-253.19
3684,-237.74
3696,-218.36
3708,-192.93
3720,-158.27
3732,-112.2
3744,-55.42
3755,7.7
3766,70.33
3778,125.15
3790,165.43
3802,187.02
3814,189.56
3826,176.24
3838,151.96
3850,121.34
3862,87.38
3874,51.9
3886,17.7
3898,-10.78
3910,-30.94
3922,-43.52
3934,-49.92
3945,-50.11
3956,-43.1
3968,-28.75
3980,-10.64
3992,10.47
4004,32.4
4016,52.59
4028,69.85
4040,85.01
4052,99.87
4064,115.96
4076,130.22
4088,139.6
4100,141.86
4112,135.66
4124,122.12
4135,104.96
4146,89.24
4158,78.9
4170,74.92
4182,75.21
4194,76.92
4206,78.26
4218,78.94
4230,80.32
4242,84.14
4254,91.34
4266,101.15
4278,111.43
4290,119.87
4302,125.55
4314,128.93
4325,130.45
4336,129.64
4348,124.69
4360,112.94
4372,92.07
4384,61.45
4396,22.73
4408,-20.48
4420,-64.16
4432,-105.42
4444,-142.3
4456,-172.79
4468,-193.5
4480,-199.57
4492,-186.27
4504,-151.65
4515,-98.79
4526,-36.42
4538,23.06
4550,67.78
4562,90.13
4574,88.99
4586,69.03
4598,38.15
4610,4.29
4622,-26.86
4634,-52.58
4646,-72.29
4658,-86.19
4670,-94.4
4682,-96.76
4694,-93.28
4705,-84.82
4716,-73.5
4728,-62.23
4740,-53.82
4752,-49.78
4764,-49.67
4776,-51.5
4788,-52.82
4800,-52.05
4812,-49.51
4824,-47.45
4836,-48.89
4848,-56.0
4860,-68.28
4872,-81.87
4884,-90.42
4895,-87.27
4906,-68.2
4918,-33.42
4930,12.32
4942,61.62
4954,107.54
4966,146.03
4978,176.72
4990,201.69
5002,223.22
5014,241.95
5026,256.42
5038,264.03
5050,262.73
5062,252.28
5074,234.33
5085,211.72
5096,187.16
5108,162.54
5120,138.62
5132,115.56
5144,93.76
5156,74.09
5168,57.41
5180,43.44
5192,30.08
5204,13.65
5216,-9.48
5228,-40.77
5240,-77.83
5252,-114.54
5264,-143.27
5275,-158.62
5286,-160.35
5298,-153.69
5310,-146.6
5322,-145.44
5334,-151.84
5346,-162.85
5358,-174.38
5370,-185.21
5382,-198.31
5394,-218.31
5406,-246.91
5418,-279.83
5430,-308.01
5442,-322.57
5454,-320.37
5465,-306.07
5476,-289.26
5488,-278.21
5500,-274.74
5512,-273.85
5524,-267.89
5536,-251.92
5548,-226.55
5560,-196.77
5572,-168.08
5584,-143.2
5596,-121.16
5608,-99.04
5620,-74.56
5632,-47.53
5644,-19.44
5655,8.08
5666,34.48
5678,60.18
5690,85.33
5702,108.71
5714,127.67
5726,139.8
5738,144.86
5750,145.67
5762,146.77
5774,151.49
5786,159.08
5798,163.84
5810,157.36
5822,132.5
5834,87.61
5845,28.44
5856,-33.38
5868,-84.82
5880,-116.2
5892,-124.34
5904,-112.4
5916,-87.43
5928,-56.71
5940,-25.21
5952,5.13
5964,33.99
5976,60.89
5988,84.26
6000,101.75
6012,111.95
6024,115.33
6035,114.19
6046,111.54
6058,109.36
6070,107.34
6082,103.42
6094,95.4
6106,82.85
6118,67.84
6130,53.49
6142,42.12
6154,34.15
6166,28.31
6178,22.69
6190,16.46
6202,10.66
6214,7.96
6225,11.94
6236,24.16
6248,43.25
6260,66.15
6272,89.71
6284,111.39
6296,129.27
6308,141.6
6320,146.55
6332,143.88
6344,133.01
6356,113.99
6368,89.15
6380,62.96
6392,39.48
6404,20.17
6415,3.38
6426,-14.02
6438,-32.15
6450,-50.83
6462,-68.81
6474,-82.48
6486,-86.02
6498,-74.24
6510,-44.22
6522,4.09
6534,67.84
6546,144.21
6558,224.22
6570,293.92
6582,339.72
6594,353.55
6605,333.58
6616,283.95
6628,212.73
6640,111.68
6652,-3.22
6664,-101.61
6676,-161.02
6688,-178.58
6700,-163.98
6712,-131.38
6724,-94.24
6736,-63.5
6748,-46.03
6760,-41.08
6772,-46.88
6784,-61.24
6795,-83.01
6806,-108.61
6818,-133.96
6830,-154.78
6842,-168.08
6854,-173.01
6866,-168.79
6878,-158.97
6890,-149.81
6902,-147.33
6914,-148.85
6926,-152.83
6938,-156.13
6950,-154.23
6962,-142.54
6974,-117.2
6985,-79.79
6996,-37.46
7008,3.61
7020,37.46
7032,58.98
7044,66.16
7056,60.04
7068,44.04
7080,23.53
7092,-0.66
7104,-25.06
7116,-46.41
7128,-62.69
7140,-73.62
7152,-79.05
7164,-78.78
7175,-72.36
7186,-59.41
7198,-40.52
7210,-16.3
7222,12.27
7234,44.14
7246,78.31
7258,114.04
7270,149.43
7282,181.28
7294,205.02
7306,216.22
7318,213.5
7330,198.85
7342,176.47
7354,150.89
7365,125.86
7376,102.97
7388,82.85
7400,65.05
7412,48.29
7424,32.28
7436,16.95
7448,1.48
7460,-15.44
7472,-33.68
7484,-51.54
7496,-64.44
7508,-68.52
7520,-63.44
7532,-51.68
7544,-37.35
7555,-24.82
7566,-16.49
7578,-10.65
7590,-3.19
7602,12.24
7614,39.35
7626,69.09
7638,89.95
7650,95.3
7662,87.67
7674,74.58
7686,71.66
7698,80.99
7710,102.69
7722,135.7
7734,177.63
7745,220.17
7756,258.84
7768,290.07
7780,308.49
7792,310.88
7804,296.63
7816,268.97
7828,231.9
7840,186.38
7852,133.9
7864,77.95
7876,22.23
7888,-33.49
7900,-88.2
7912,-139.19
7924,-182.37
7935,-215.04
7946,-240.0
7958,-259.76
7970,-274.6
7982,-284.32
7994,-294.12
8006,-308.4
8018,-328.72
8030,-353.41
8042,-378.61
8054,-403.17
8066,-423.5
8078,-434.14
8090,-401.58
8102,-317.18
8114,-203.69
8125,-95.44
8136,-23.06
8148,23.69
8160,54.09
8172,73.16
8184,85.69
8196,92.76
8208,91.03
8220,80.9
8232,68.39
8244,61.36
8256,65.56
8268,78.09
8280,93.86
8292,108.63
8304,119.68
8315,123.08
8326,118.41
8338,109.48
8350,101.15
8362,96.88
8374,94.04
8386,88.91
8398,79.1
8410,64.46
8422,45.33
8434,24.92
8446,8.54
8458,0.74
8470,3.42
8482,13.37
8494,26.31
8505,38.96
8516,49.58
8528,56.8
8540,60.37
8552,61.01
8564,59.55
8576,56.98
8588,53.61
8600,50.19
8612,47.59
8624,45.97
8636,44.17
8648,40.66
8660,34.53
8672,25.69
8684,14.75
8695,2.2
8706,-11.26
8718,-24.59
8730,-36.11
8742,-43.72
8754,-45.74
8766,-42.21
8778,-35.74
8790,-30.65
8802,-31.06
8814,-38.58
8826,-51.74
8838,-66.65
8850,-79.01
8862,-86.07
8874,-87.6
8885,-85.9
8896,-83.65
8908,-82.37
8920,-81.39
8932,-79.26
8944,-74.44
8956,-66.33
8968,-55.47
8980,-43.47
8992,-33.13
9004,-26.57
9016,-24.44
9028,-25.33
9040,-28.3
9052,-32.49
9064,-36.98
9075,-39.63
9086,-37.56
9098,-29.67
9110,-16.55
9122,-1.5
9134,10.73
9146,12.57
9158,-2.08
9170,-34.55
9182,-79.29
9194,-125.72
9206,-164.02
9218,-186.91
9230,-192.01
9242,-180.38
9254,-159.24
9265,-137.42
9276,-122.45
9288,-117.66
9300,-110.99
9312,-94.59
9324,-66.55
9336,-41.11
9348,-17.64
9360,6.7
9372,37.68
9384,75.05
9396,115.23
9408,152.51
9420,179.42
9432,191.64
9444,189.49
9455,179.21
9466,166.06
9478,153.29
9490,141.75
9502,130.95
9514,119.74
9526,106.12
9538,90.07
9550,73.5
9562,61.01
9574,54.93
9586,55.63
9598,62.65
9610,74.75
9622,89.05
9634,99.95
9645,101.31
9656,87.25
9668,55.82
9680,7.55
9692,-53.08
9704,-116.21
9716,-169.67
9728,-203.72
9740,-214.25
9752,-202.36
9764,-173.86
9776,-134.43
9788,-90.29
9800,-46.46
9812,-3.75
9824,39.08
9835,82.51
9846,125.66
9858,167.68
9870,207.28
9882,245.52
9894,282.76
9906,303.91
9918,298.21
9930,267.49
9942,223.69
9954,178.25
9966,143.9
9978,115.28
9990,87.69
10002,58.29
10014,25.73
10025,-9.47
10036,-43.16
10048,-72.98
10060,-99.63
10072,-125.38
10084,-153.59
10096,-183.42
10108,-212.65
10120,-239.65
10132,-262.37
10144,-279.4
10156,-291.55
10168,-299.65
10180,-301.49
10192,-292.52
10204,-263.76
10215,-209.89
10226,-134.16
10238,-47.4
10250,35.69
10262,99.35
10274,132.29
10286,132.04
10298,103.84
10310,63.29
10322,27.7
10334,9.93
10346,16.61
10358,48.62
10370,99.96
10382,160.59
10394,220.74
10405,272.72
10416,317.97
10428,361.52
10440,407.5
10452,441.77
10464,451.39
10476,432.59
10488,393.85
10500,361.98
10512,339.58
10524,326.26
10536,320.19
10548,311.79
10560,296.44
10572,274.71
10584,249.96
10595,226.15
10606,205.32
10618,184.63
10630,162.27
10642,135.88
10654,103.73
10666,67.28
10678,31.54
10690,1.66
10702,-20.33
10714,-36.96
10726,-55.62
10738,-81.5
10750,-117.2
10762,-162.33
10774,-213.47
10785,-265.96
10796,-316.59
10808,-364.6
10820,-410.76
10832,-456.26
10844,-498.83
10856,-534.46
10868,-559.51
10880,-572.0
10892,-572.49
10904,-563.96
10916,-550.6
10928,-535.87
10940,-521.48
10952,-505.86
10964,-486.13
10975,-460.03
10986,-427.01
10998,-388.53
11010,-347.08
11022,-304.98
11034,-263.36
11046,-222.55
11058,-182.24
11070,-142.66
11082,-104.98
11094,-70.62
11106,-40.75
11118,-15.62
11130,5.3
11142,22.94
11154,38.05
11165,51.0
11176,61.7
11188,69.91
11200,75.48
11212,78.61
11224,79.78
11236,79.52
11248,78.2
11260,75.75
11272,71.96
11284,66.83
11296,61.14
11308,56.41
11320,54.44
11332,56.3
11344,61.47
11355,67.76
11366,71.99
11378,71.43
11390,64.98
11402,53.74
11414,40.72
11426,29.85
11438,24.61
11450,27.01
11462,37.17
11474,53.64
11486,74.16
11498,96.63
11510,119.76
11522,142.95
11534,165.72
11545,187.46
11556,207.64
11568,226.23
11580,243.72
11592,260.3
11604,274.64
11616,283.27
11628,281.82
11640,267.38
11652,240.98
11664,208.1
11676,176.78
11688,154.06
11700,142.89
11712,141.25
11724,143.89
11735,145.68
11746,144.24
11758,140.64
11770,137.94
11782,138.83
11794,143.79
11806,150.8
11818,156.13
11830,155.63
11842,146.29
11854,127.35
11866,100.76
11878,70.84
11890,43.19
11902,22.73
11914,12.16
11925,10.95
11936,15.67
11948,21.41
11960,23.36
11972,18.12
11984,4.29
11996,-17.64
12008,-45.58
12020,-76.21
12032,-105.56
12044,-129.8
12056,-146.22
12068,-153.89
12080,-153.62
12092,-147.25
12104,-136.72
12115,-123.49
12126,-108.63
12138,-93.29
12150,-78.92
12162,-66.99
12174,-58.39
12186,-53.39
12198,-51.87
12210,-54.1
12222,-60.75
12234,-72.15
12246,-87.04
12258,-102.3
12270,-114.18
12282,-120.51
12294,-122.31
12305,-123.22
12316,-126.72
12328,-133.0
12340,-137.48
12352,-132.45
12364,-110.83
12376,-69.85
12388,-12.18
12400,55.58
12412,125.81
12424,192.12
12436,249.57
12448,293.73
12460,320.16
12472,325.28
12484,308.19
12495,272.12
12506,224.03
12518,172.63
12530,125.65
12542,88.17
12554,62.46
12566,48.6
12578,45.44
12590,50.89
12602,62.04
12614,75.53
12626,88.47
12638,99.34
12650,108.36
12662,117.08
12674,127.34
12685,140.28
12696,156.0
12708,173.63
12720,191.39
12732,206.66
12744,216.01
12756,215.77
12768,203.3
12780,178.42
12792,144.0
12804,105.35
12816,68.24
12828,36.76
12840,12.05
12852,-7.51
12864,-24.94
12875,-43.09
12886,-63.63
12898,-87.23
12910,-114.01
12922,-143.84
12934,-176.06
12946,-209.03
12958,-240.24
12970,-267.39
12982,-289.82
12994,-309.47
13006,-330.37
13018,-356.71
13030,-390.41
13042,-429.5
13054,-468.47
13065,-500.54
13076,-520.83
13088,-528.32
13100,-525.87
13112,-517.87
13124,-507.07
13136,-492.57
13148,-470.06
13160,-434.3
13172,-382.27
13184,-315.33
13196,-239.14
13208,-161.73
13220,-90.45
13232,-29.79
13244,18.97
13255,56.69
13266,84.79
13278,104.24
13290,115.65
13302,120.13
13314,119.9
13326,118.11
13338,118.01
13350,121.73
13362,129.6
13374,140.2
13386,151.01
13398,159.43
13410,163.63
13422,163.02
13434,158.34
13445,151.29
13456,143.78
13468,137.41
13480,133.11
13492,130.97
13504,130.44
13516,130.67
13528,130.78
13540,130.21
13552,128.6
13564,125.86
13576,121.91
13588,116.48
13600,109.24
13612,99.84
13624,87.94
13635,73.03
13646,54.15
13658,29.76
13670,-1.85
13682,-41.59
13694,-88.66
13706,-139.88
13718,-190.29
13730,-234.44
13742,-268.22
13754,-289.95
13766,-300.47
13778,-302.12
13790,-297.36
13802,-287.78
13814,-273.79
13825,-255.16
13836,-231.57
13848,-202.99
13860,-169.5
13872,-131.19
13884,-88.06
13896,-40.37
13908,10.92
13920,63.81
13932,115.08
13944,160.82
13956,197.18
13968,221.28
13980,232.04
13992,230.56
14004,219.92
14015,204.24
14026,187.63
14038,172.93
14050,161.2
14062,151.8
14074,143.12
14086,133.6
14098,122.5
14110,110.22
14122,98.0
14134,87.29
14146,79.03
14158,73.23
14170,69.05
14182,65.09
14194,60.02
14205,53.07
14216,44.24
14228,34.15
14240,23.66
14252,13.45
14264,3.72
14276,-5.66
14288,-14.91
14300,-24.08
14312,-32.96
14324,-41.32
14336,-49.06
14348,-56.38
14360,-63.47
14372,-70.07
14384,-74.71
14395,-74.64
14406,-66.25
14418,-46.39
14430,-13.7
14442,30.45
14454,82.21
14466,136.33
14478,187.83
14490,233.29
14502,271.34
14514,302.36
14526,327.57
14538,348.4
14550,366.0
14562,381.27
14574,394.73
14585,406.41
14596,415.61
14608,420.83
14620,420.16
14632,411.87
14644,395.05
14656,369.75
14668,336.82
14680,297.42
14692,252.71
14704,203.76
14716,151.76
14728,98.21
14740,44.86
14752,-6.67
14764,-55.27
14775,-100.75
14786,-143.82
14798,-185.84
14810,-228.47
14822,-273.65
14834,-323.36
14846,-379.23
14858,-441.44
14870,-507.44
14882,-571.32
14894,-624.66
14906,-658.88
14918,-668.24
14930,-652.03
14942,-614.63
14954,-563.63
14965,-506.73
14976,-449.31
14988,-393.59
15000,-339.49
15012,-286.23
15024,-233.5
15036,-181.54
15048,-130.38
15060,-79.28
15072,-27.02
15084,26.84
15096,80.74
15108,130.67
15120,171.3
15132,197.8
15144,207.85
15155,202.5
15166,185.62
15178,162.38
15190,137.45
15202,114.11
15214,94.36
15226,79.78
15238,72.15
15250,73.52
15262,85.46
15274,108.05
15286,139.34
15298,175.47
15310,211.7
15322,243.66
15334,268.5
15345,285.42
15356,295.36
15368,300.07
15380,300.83
15392,297.61
15404,288.84
15416,272.39
15428,246.8
15440,212.57
15452,172.44
15464,130.56
15476,91.02
15488,56.26
15500,26.39
15512,-0.42
15524,-26.78
15535,-55.06
15546,-86.64
15558,-121.73
15570,-159.2
15582,-196.2
15594,-227.92
15606,-248.22
15618,-251.76
15630,-236.72
15642,-206.71
15654,-170.32
15666,-137.68
15678,-115.94
15690,-105.85
15702,-101.78
15714,-94.95
15725,-78.36
15736,-50.14
15748,-14.0
15760,23.21
15772,55.16
15784,78.35
15796,92.47
15808,98.92
15820,99.13
15832,93.65
15844,82.54
15856,66.38
15868,46.85
15880,26.31
15892,6.91
15904,-10.35
15915,-25.84
15926,-40.78
15938,-56.27
15950,-72.57
15962,-88.91
15974,-103.75
15986,-115.34
15998,-122.07
16010,-122.84
16022,-117.28
16034,-105.81
16046,-89.38
16058,-69.45
16070,-47.63
16082,-25.1
16094,-1.96
16105,22.9
16116,51.07
16128,83.68
16140,120.53
16152,160.6
16164,202.4
16176,244.5
16188,285.61
16200,324.44
16212,359.64
16224,389.26
16236,410.82
16248,421.31
16260,418.63
16272,401.65
16284,370.35
16295,325.68
16306,269.73
16318,206.48
16330,140.66
16342,76.31
16354,15.09
16366,-41.89
16378,-94.62
16390,-143.84
16402,-191.2
16414,-238.53
16426,-286.11
16438,-333.95
16450,-382.23
16462,-431.92
16474,-478.87
16485,-515.49
16496,-533.07
16508,-526.17
16520,-494.52
16532,-440.73
16544,-371.16
16556,-294.92
16568,-223.93
16580,-163.26
16592,-113.36
16604,-72.0
16616,-37.79
16628,-10.08
16640,15.24
16652,43.04
16664,76.73
16675,113.74
16686,154.95
16698,201.02
16710,251.41
16722,302.05
16734,326.86
16746,307.15
16758,246.09
16770,188.75
16782,147.05
16794,122.47
16806,104.58
16818,88.94
16830,72.15
16842,52.7
16854,34.41
16865,22.02
16876,17.2
16888,13.91
16900,9.24
16912,1.87
16924,-7.6
16936,-19.3
16948,-33.56
16960,-48.27
16972,-61.35
16984,-72.4
16996,-85.2
17008,-99.44
17020,-113.08
17032,-123.54
17044,-130.53
17055,-135.45
17066,-138.96
17078,-141.56
17090,-144.03
17102,-148.97
17114,-155.72
17126,-161.96
17138,-164.61
17150,-161.63
17162,-151.89
17174,-134.15
17186,-107.68
17198,-72.81
17210,-31.89
17222,13.04
17234,59.71
17245,105.76
17256,148.65
17268,186.48
17280,218.83
17292,246.25
17304,269.58
17316,288.86
17328,303.86
17340,313.93
17352,318.5
17364,317.36
17376,311.02
17388,300.65
17400,287.63
17412,273.16
17424,258.01
17435,242.51
17446,226.62
17458,210.18
17470,192.93
17482,174.62
17494,155.07
17506,134.42
17518,113.26
17530,92.7
17542,74.0
17554,58.04
17566,44.69
17578,32.49
17590,19.01
17602,1.61
17614,-21.45
17625,-50.35
17636,-83.6
17648,-118.59
17660,-152.27
17672,-181.95
17684,-205.61
17696,-222.02
17708,-230.56
17720,-231.17
17732,-224.46
17744,-211.82
17756,-195.64
17768,-179.12
17780,-165.83
17792,-158.88
17804,-159.93
17815,-168.45
17826,-181.64
17838,-194.86
17850,-202.92
17862,-201.53
17874,-188.79
17886,-166.01
17898,-137.47
17910,-109.05
17922,-86.12
17934,-71.4
17946,-63.99
17958,-59.89
17970,-53.93
17982,-42.09
17994,-23.17
18005,1.07
18016,27.2
18028,51.77
18040,72.53
18052,88.64
18064,99.96
18076,106.37
18088,107.37
18100,102.43
18112,91.52
18124,75.51
18136,56.16
18148,35.84
18160,16.84
18172,0.87
18184,-11.36
18195,-20.23
18206,-26.95
18218,-33.0
18230,-39.55
18242,-46.94
18254,-54.54
18266,-61.11
18278,-65.5
18290,-67.23
18302,-66.82
18314,-65.44
18326,-64.32
18338,-64.02
18350,-64.3
18362,-64.27
18374,-62.98
18385,-60.08
18396,-56.0
18408,-51.78
18420,-48.46
18432,-46.56
18444,-45.87
18456,-45.63
18468,-45.02
18480,-43.62
18492,-41.6
18504,-39.62
18516,-38.5
18528,-38.84
18540,-40.75
18552,-43.76
18564,-46.8
18575,-48.47
18586,-47.32
18598,-42.26
18610,-32.81
18622,-19.32
18634,-2.81
18646,15.2
18658,33.09
18670,49.42
18682,63.0
18694,72.94
18706,78.57
18718,79.46
18730,75.57
18742,67.36
18754,55.84
18765,42.46
18776,28.76
18788,15.97
18800,4.75
18812,-4.79
18824,-12.66
18836,-18.61
18848,-21.87
18860,-21.33
18872,-16.13
18884,-6.26
18896,7.06
18908,21.66
18920,35.12
18932,45.67
18944,52.64
18955,56.46
18966,58.13
18978,58.58
18990,58.28
19002,57.17
19014,54.93
19026,51.4
19038,46.63
19050,40.61
19062,32.95
19074,22.89
19086,9.66
19098,-6.99
19110,-26.29
19122,-46.55
19134,-65.24
19145,-79.79
19156,-88.65
19168,-91.81
19180,-90.63
19192,-86.98
19204,-82.33
19216,-77.21
19228,-71.47
19240,-64.16
19252,-54.16
19264,-40.98
19276,-25.25
19288,-8.49
19300,7.6
19312,21.55
19324,32.45
19335,39.42
19346,42.5
19358,42.63
19370,41.0
19382,38.49
19394,35.35
19406,31.54
19418,26.67
19430,19.98
19442,9.91
19454,-4.04
19466,-20.75
19478,-37.6
19490,-51.57
19502,-59.99
19514,-61.16
19525,-55.15
19536,-39.41
19548,-16.67
19560,7.13
19572,27.33
19584,43.45
19596,57.07
19608,68.68
19620,77.31
19632,81.65
19644,81.5
19656,77.99
19668,74.45
19680,74.23
19692,78.64
19704,86.8
19715,95.21
19726,101.5
19738,105.78
19750,109.39
19762,113.56
19774,119.41
19786,126.77
19798,134.32
19810,139.07
19822,139.23
19834,135.88
19846,132.86
19858,132.89
19870,134.66
19882,137.43
19894,140.25
19905,142.28
19916,140.73
19928,134.46
19940,125.09
19952,117.1
19964,111.39
19976,107.04
19988,102.43
20000,95.78
20012,85.76
20024,67.71
20036,39.25
20048,2.08
20060,-36.87
20072,-75.22
20084,-112.03
20095,-147.32
20106,-181.62
20118,-215.03
20130,-252.06
20142,-294.12
20154,-337.68
20166,-372.89
20178,-396.56
20190,-408.29
20202,-410.03
20214,-405.32
20226,-366.7
20238,-288.01
20250,-188.13
20262,-118.79
20274,-81.87
20285,-70.73
20296,-70.41
20308,-74.14
20320,-79.01
20332,-82.77
20344,-88.0
20356,-94.86
20368,-99.69
20380,-93.93
20392,-77.34
20404,-53.8
20416,-19.57
20428,21.47
20440,62.25
20452,93.61
20464,112.39
20475,120.65
20486,124.57
20498,124.68
20510,120.84
20522,113.65
20534,104.18
20546,94.62
20558,84.61
20570,73.84
20582,62.86
20594,54.77
20606,49.86
20618,47.74
20630,48.02
20642,48.69
20654,48.42
20665,45.77
20676,40.56
20688,33.84
20700,27.89
20712,23.04
20724,18.8
20736,14.43
20748,8.67
20760,1.24
20772,-7.74
20784,-17.51
20796,-26.6
20808,-32.8
20820,-34.33
20832,-30.0
20844,-19.4
20855,-4.01
20866,13.2
20878,28.62
20890,39.39
20902,44.67
20914,45.64
20926,44.45
20938,42.74
20950,41.47
20962,40.08
20974,36.44
20986,27.82
20998,12.59
