seconds,BVP
8,56.61
20,50.47
32,43.26
44,35.66
56,28.43
68,22.15
80,16.93
92,12.54
104,8.7
116,5.17
127,2.0
138,-0.69
150,-2.89
162,-4.93
174,-7.41
186,-10.99
198,-16.09
210,-22.61
222,-30.0
234,-37.38
246,-43.93
258,-49.16
270,-53.09
282,-56.17
294,-59.13
306,-62.7
317,-67.34
328,-73.14
340,-79.65
352,-85.98
364,-90.97
376,-93.45
388,-92.59
400,-88.15
412,-80.55
424,-70.78
436,-60.08
448,-49.54
460,-39.91
472,-31.53
484,-24.53
496,-19.02
507,-15.22
518,-13.37
530,-13.44
542,-15.04
554,-17.27
566,-18.9
578,-18.74
590,-15.93
602,-10.27
614,-2.23
626,7.26
638,17.2
650,26.83
662,35.86
674,44.42
686,52.73
697,60.78
708,68.16
720,74.11
732,78.0
744,79.62
756,79.3
768,77.71
780,75.3
792,72.03
804,67.43
816,60.97
828,52.5
840,42.47
852,31.81
864,21.55
876,12.53
887,5.26
898,0.08
910,-2.63
922,-2.43
934,0.96
946,7.4
958,16.17
970,25.98
982,35.4
994,43.21
1006,48.59
1018,51.29
1030,51.41
1042,49.35
1054,45.7
1066,41.11
1077,36.25
1088,31.68
1100,27.72
1112,24.45
1124,21.71
1136,19.28
1148,17.07
1160,15.05
1172,13.28
1184,11.69
1196,10.07
1208,8.0
1220,5.07
1232,1.03
1244,-4.09
1256,-9.97
1267,-16.12
1278,-22.01
1290,-27.26
1302,-31.71
1314,-35.44
1326,-38.68
1338,-41.72
1350,-44.82
1362,-48.12
1374,-51.67
1386,-55.35
1398,-58.92
1410,-61.9
1422,-63.67
1434,-63.47
1446,-60.62
1457,-54.75
1468,-45.98
1480,-34.94
1492,-22.7
1504,-10.44
1516,0.77
1528,10.23
1540,17.63
1552,23.03
1564,26.58
1576,28.53
1588,29.14
1600,28.74
1612,27.78
1624,26.82
1636,26.43
1647,27.02
1658,28.7
1670,31.3
1682,34.43
1694,37.71
1706,40.85
1718,43.68
1730,45.97
1742,47.33
1754,47.11
1766,44.67
1778,39.64
1790,32.28
1802,23.5
1814,14.53
1826,6.48
1837,-0.2
1848,-5.77
1860,-11.09
1872,-17.06
1884,-24.08
1896,-31.79
1908,-39.1
1920,-44.55
1932,-46.81
1944,-45.16
1956,-39.63
1968,-30.95
1980,-20.28
1992,-8.85
2004,2.26
2016,12.3
2027,20.77
2038,27.47
2050,32.33
2062,35.45
2074,37.01
2086,37.33
2098,36.75
2110,35.59
2122,34.16
2134,32.68
2146,31.34
2158,30.25
2170,29.44
2182,28.83
2194,28.26
2206,27.49
2217,26.29
2228,24.45
2240,21.74
2252,18.04
2264,13.26
2276,7.45
2288,0.84
2300,-6.12
2312,-12.88
2324,-18.86
2336,-23.7
2348,-27.34
2360,-29.99
2372,-32.07
2384,-33.97
2396,-35.87
2407,-37.62
2418,-38.68
2430,-38.29
2442,-35.74
2454,-30.66
2466,-23.18
2478,-13.93
2490,-3.79
2502,6.31
2514,15.72
2526,24.07
2538,31.25
2550,37.19
2562,41.76
2574,44.76
2586,46.05
2597,45.73
2608,44.2
2620,42.07
2632,39.96
2644,38.29
2656,37.18
2668,36.41
2680,35.66
2692,34.61
2704,33.08
2716,31.1
2728,28.8
2740,26.36
2752,23.93
2764,21.6
2776,19.39
2787,17.28
2798,15.19
2810,13.06
2822,10.8
2834,8.4
2846,5.88
2858,3.33
2870,0.78
2882,-1.82
2894,-4.6
2906,-7.78
2918,-11.56
2930,-15.96
2942,-20.74
2954,-25.36
2966,-28.98
2977,-30.72
2988,-29.86
3000,-26.05
3012,-19.5
3024,-10.89
3036,-1.24
3048,8.39
3060,17.09
3072,24.36
3084,29.99
3096,34.01
3108,36.53
3120,37.62
3132,37.32
3144,35.69
3156,32.95
3167,29.45
3178,25.73
3190,22.28
3202,19.51
3214,17.52
3226,16.2
3238,15.3
3250,14.53
3262,13.74
3274,12.88
3286,11.98
3298,10.98
3310,9.76
3322,8.13
3334,5.94
3346,3.21
3357,0.07
3368,-3.24
3380,-6.52
3392,-9.67
3404,-12.71
3416,-15.67
3428,-18.57
3440,-21.36
3452,-23.96
3464,-26.35
3476,-28.53
3488,-30.56
3500,-32.43
3512,-34.11
3524,-35.56
3536,-36.81
3547,-37.94
3558,-39.01
3570,-39.89
3582,-40.14
3594,-39.08
3606,-36.0
3618,-30.46
3630,-22.55
3642,-12.88
3654,-2.45
3666,7.72
3678,16.87
3690,24.6
3702,30.89
3714,35.82
3726,39.42
3737,41.6
3748,42.15
3760,40.96
3772,38.18
3784,34.26
3796,29.79
3808,25.19
3820,20.49
3832,15.34
3844,9.14
3856,1.45
3868,-7.86
3880,-18.45
3892,-29.66
3904,-40.77
3916,-51.05
3927,-59.83
3938,-66.52
3950,-70.66
3962,-72.17
3974,-71.53
3986,-69.72
3998,-67.91
4010,-66.86
4022,-66.42
4034,-65.49
4046,-62.49
4058,-56.18
4070,-46.39
4082,-34.16
4094,-21.19
4106,-8.93
4117,2.17
4128,12.74
4140,23.99
4152,36.84
4164,51.34
4176,66.61
4188,81.38
4200,94.52
4212,105.39
4224,113.6
4236,118.74
4248,120.3
4260,118.07
4272,112.67
4284,105.69
4296,99.25
4307,95.09
4318,93.74
4330,94.32
4342,95.08
4354,94.28
4366,90.99
4378,85.26
4390,77.77
4402,69.31
4414,60.44
4426,51.5
4438,42.84
4450,34.98
4462,28.5
4474,23.7
4486,20.45
4497,18.19
4508,16.12
4520,13.46
4532,9.69
4544,4.64
4556,-1.48
4568,-8.15
4580,-14.66
4592,-20.26
4604,-24.34
4616,-26.65
4628,-27.34
4640,-26.94
4652,-26.13
4664,-25.51
4676,-25.41
4687,-25.87
4698,-26.68
4710,-27.56
4722,-28.34
4734,-28.98
4746,-29.66
4758,-30.79
4770,-32.97
4782,-36.91
4794,-43.2
4806,-52.04
4818,-62.96
4830,-74.7
4842,-85.42
4854,-93.11
4866,-96.21
4877,-94.04
4888,-87.05
4900,-76.61
4912,-64.51
4924,-52.48
4936,-41.67
4948,-32.52
4960,-24.81
4972,-17.93
4984,-11.11
4996,-3.77
5008,4.36
5020,13.14
5032,22.05
5044,30.39
5056,37.51
5067,43.01
5078,46.93
5090,49.53
5102,51.2
5114,52.08
5126,52.08
5138,50.97
5150,48.56
5162,44.98
5174,40.62
5186,35.93
5198,31.26
5210,26.67
5222,22.07
5234,17.37
5246,12.71
5257,8.49
5268,5.15
5280,2.96
5292,1.82
5304,1.28
5316,0.74
5328,-0.24
5340,-1.8
5352,-3.81
5364,-5.99
5376,-8.09
5388,-10.08
5400,-12.12
5412,-14.46
5424,-17.35
5436,-20.92
5447,-25.18
5458,-29.93
5470,-34.82
5482,-39.32
5494,-42.77
5506,-44.52
5518,-44.07
5530,-41.3
5542,-36.5
5554,-30.34
5566,-23.66
5578,-17.26
5590,-11.69
5602,-7.3
5614,-4.22
5626,-2.57
5637,-2.35
5648,-3.5
5660,-5.72
5672,-8.47
5684,-11.1
5696,-13.03
5708,-13.92
5720,-13.7
5732,-12.55
5744,-10.72
5756,-8.42
5768,-5.79
5780,-2.94
5792,0.04
5804,3.03
5816,5.9
5827,8.58
5838,10.99
5850,13.04
5862,14.64
5874,15.69
5886,16.12
5898,15.96
5910,15.34
5922,14.39
5934,13.23
5946,11.89
5958,10.34
5970,8.57
5982,6.61
5994,4.56
6006,2.54
6017,0.59
6028,-1.29
6040,-3.19
6052,-5.16
6064,-7.26
6076,-9.44
6088,-11.6
6100,-13.64
6112,-15.44
6124,-16.89
6136,-17.88
6148,-18.26
6160,-17.79
6172,-16.22
6184,-13.28
6196,-8.8
6207,-2.78
6218,4.55
6230,12.71
6242,20.99
6254,28.57
6266,34.7
6278,38.87
6290,41.05
6302,41.74
6314,41.92
6326,42.7
6338,45.01
6350,49.38
6362,55.79
6374,63.69
6386,72.12
6397,79.93
6408,85.92
6420,89.31
6432,90.02
6444,88.96
6456,87.9
6468,88.88
6480,93.29
6492,101.15
6504,110.95
6516,120.11
6528,126.07
6540,127.24
6552,123.56
6564,116.27
6576,107.3
6587,98.43
6598,91.0
6610,85.72
6622,82.89
6634,82.55
6646,84.52
6658,88.24
6670,92.74
6682,96.73
6694,98.97
6706,98.56
6718,95.16
6730,88.93
6742,80.34
6754,69.95
6766,58.39
6777,46.45
6788,35.24
6800,25.98
6812,19.69
6824,16.57
6836,15.66
6848,15.02
6860,12.48
6872,6.62
6884,-2.48
6896,-13.24
6908,-23.24
6920,-30.26
6932,-32.99
6944,-31.43
6956,-26.78
6967,-21.13
6978,-17.34
6990,-18.72
7002,-28.27
7014,-47.48
7026,-74.89
7038,-105.81
7050,-133.51
7062,-151.89
7074,-158.3
7086,-154.76
7098,-146.95
7110,-141.17
7122,-141.26
7134,-146.97
7146,-154.59
7157,-159.39
7168,-158.1
7180,-150.16
7192,-137.32
7204,-122.11
7216,-106.44
7228,-91.06
7240,-75.95
7252,-61.23
7264,-47.6
7276,-36.41
7288,-29.02
7300,-26.17
7312,-27.53
7324,-31.85
7336,-37.52
7347,-43.42
7358,-49.41
7370,-56.33
7382,-65.18
7394,-76.15
7406,-87.83
7418,-97.32
7430,-101.14
7442,-96.69
7454,-83.41
7466,-63.2
7478,-39.81
7490,-17.5
7502,0.38
7514,12.36
7526,18.93
7537,21.96
7548,23.7
7560,25.92
7572,29.46
7584,34.27
7596,39.81
7608,45.39
7620,50.53
7632,54.95
7644,58.62
7656,61.54
7668,63.77
7680,65.39
7692,66.59
7704,67.64
7716,68.93
7727,70.97
7738,74.37
7750,79.64
7762,86.89
7774,95.46
7786,103.84
7798,109.92
7810,111.76
7822,108.21
7834,99.38
7846,86.41
7858,70.81
7870,53.83
7882,36.15
7894,18.19
7906,0.54
7917,-15.9
7928,-30.2
7940,-42.01
7952,-51.99
7964,-61.56
7976,-72.08
7988,-83.61
8000,-94.3
8012,-100.53
8024,-98.1
8036,-83.87
8048,-57.37
8060,-21.3
8072,18.98
8084,57.11
8096,87.53
8107,106.83
8118,114.07
8130,110.18
8142,97.08
8154,76.93
8166,52.19
8178,25.96
8190,2.18
8202,-14.98
8214,-22.5
8226,-19.74
8238,-8.88
8250,6.04
8262,20.91
8274,33.39
8286,43.64
8297,53.65
8308,65.74
8320,80.96
8332,98.44
8344,115.76
8356,130.13
8368,139.56
8380,143.54
8392,143.01
8404,139.67
8416,135.28
8428,131.11
8440,127.71
8452,124.99
8464,122.5
8476,119.62
8487,115.82
8498,110.67
8510,103.76
8522,94.7
8534,83.09
8546,68.69
8558,51.48
8570,31.79
8582,10.2
8594,-12.69
8606,-36.6
8618,-61.68
8630,-88.23
8642,-116.34
8654,-145.31
8666,-173.64
8677,-199.26
8688,-220.19
8700,-235.18
8712,-244.06
8724,-247.57
8736,-246.95
8748,-243.52
8760,-238.41
8772,-232.56
8784,-226.81
8796,-221.81
8808,-217.92
8820,-214.92
8832,-212.03
8844,-208.08
8856,-202.06
8867,-193.42
8878,-182.33
8890,-169.51
8902,-155.97
8914,-142.7
8926,-130.42
8938,-119.61
8950,-110.53
8962,-103.19
8974,-97.34
8986,-92.45
8998,-87.73
9010,-82.28
9022,-75.45
9034,-67.06
9046,-57.61
9057,-48.16
9068,-40.0
9080,-34.24
9092,-31.41
9104,-31.39
9116,-33.53
9128,-37.06
9140,-41.41
9152,-46.34
9164,-51.7
9176,-57.11
9188,-61.75
9200,-64.65
9212,-65.12
9224,-63.36
9236,-60.48
9247,-57.83
9258,-56.19
9270,-54.96
9282,-52.35
9294,-46.32
9306,-35.93
9318,-22.26
9330,-8.18
9342,2.77
9354,7.86
9366,6.03
9378,-2.14
9390,-15.37
9402,-32.49
9414,-52.79
9426,-75.76
9437,-100.38
9448,-124.82
9460,-146.73
9472,-164.15
9484,-176.25
9496,-183.54
9508,-187.27
9520,-188.52
9532,-187.62
9544,-183.97
9556,-176.72
9568,-165.64
9580,-151.6
9592,-136.45
9604,-122.3
9616,-110.59
9627,-101.47
9638,-94.28
9650,-87.54
9662,-79.81
9674,-70.3
9686,-59.33
9698,-48.2
9710,-38.7
9722,-32.39
9734,-29.93
9746,-31.69
9758,-36.82
9770,-43.6
9782,-50.0
9794,-54.24
9806,-55.29
9817,-52.94
9828,-47.62
9840,-39.87
9852,-31.68
9864,-24.48
9876,-18.85
9888,-14.41
9900,-10.17
9912,-5.26
9924,0.63
9936,7.13
9948,13.88
9960,18.83
9972,20.97
9984,20.52
9996,18.72
10007,17.03
10018,16.22
10030,16.13
10042,15.77
10054,24.46
10066,47.55
10078,86.92
10090,139.32
10102,197.4
10114,253.43
10126,302.04
10138,340.89
10150,367.65
10162,383.44
10174,386.04
10186,372.28
10197,340.18
10208,291.05
10220,230.42
10232,167.07
10244,112.08
10256,75.5
10268,63.33
10280,73.64
10292,98.8
10304,128.23
10316,152.25
10328,165.09
10340,166.01
10352,158.13
10364,146.06
10376,133.89
10387,122.75
10398,112.28
10410,101.89
10422,91.87
10434,83.78
10446,80.1
10458,83.17
10470,94.11
10482,112.07
10494,133.48
10506,153.28
10518,166.34
10530,169.0
10542,160.24
10554,142.09
10566,118.51
10577,93.91
10588,71.22
10600,50.68
10612,30.3
10624,6.94
10636,-22.5
10648,-60.23
10660,-107.15
10672,-162.39
10684,-222.85
10696,-282.96
10708,-335.26
10720,-372.11
10732,-388.09
10744,-381.95
10756,-357.06
10767,-319.97
10778,-278.07
10790,-237.34
10802,-201.32
10814,-171.52
10826,-148.22
10838,-131.15
10850,-119.49
10862,-111.37
10874,-103.81
10886,-93.26
10898,-76.84
10910,-53.58
10922,-25.04
10934,5.06
10946,31.96
10957,51.66
10968,62.18
10980,64.16
10992,60.34
11004,54.36
11016,49.26
11028,46.55
11040,46.07
11052,46.59
11064,46.75
11076,45.75
11088,43.57
11100,40.63
11112,37.28
11124,33.46
11136,28.68
11147,22.27
11158,13.81
11170,3.5
11182,-7.77
11194,-18.47
11206,-26.79
11218,-31.17
11230,-30.64
11242,-25.06
11254,-15.11
11266,-1.9
11278,13.37
11290,29.81
11302,46.83
11314,63.94
11326,80.46
11337,95.36
11348,107.37
11360,115.21
11372,118.18
11384,116.5
11396,111.56
11408,105.63
11420,101.29
11432,100.51
11444,103.87
11456,110.26
11468,117.2
11480,121.8
11492,121.82
11504,116.51
11516,106.67
11527,94.14
11538,80.98
11550,68.72
11562,58.01
11574,48.89
11586,41.25
11598,35.23
11610,31.49
11622,30.86
11634,33.74
11646,39.44
11658,46.0
11670,50.6
11682,50.72
11694,45.32
11706,35.32
11717,23.2
11728,11.61
11740,2.03
11752,-5.82
11764,-13.28
11776,-21.48
11788,-30.3
11800,-38.51
11812,-44.82
11824,-48.85
11836,-51.4
11848,-53.56
11860,-55.58
11872,-56.21
11884,-53.45
11896,-46.06
11907,-34.82
11918,-22.55
11930,-12.73
11942,-7.45
11954,-6.15
11966,-5.87
11978,-2.89
11990,5.2
12002,18.24
12014,33.63
12026,47.66
12038,57.22
12050,60.99
12062,59.6
12074,54.99
12086,49.24
12097,43.64
12108,38.55
12120,33.78
12132,29.24
12144,25.37
12156,23.04
12168,23.05
12180,25.64
12192,30.15
12204,35.18
12216,39.11
12228,40.61
12240,39.05
12252,34.58
12264,27.84
12276,19.78
12287,11.28
12298,3.02
12310,-4.55
12322,-11.24
12334,-17.03
12346,-22.06
12358,-26.59
12370,-31.01
12382,-35.69
12394,-40.85
12406,-46.32
12418,-51.41
12430,-54.97
12442,-55.69
12454,-52.54
12466,-45.14
12477,-33.9
12488,-19.97
12500,-4.9
12512,9.68
12524,22.41
12536,32.44
12548,39.52
12560,43.93
12572,46.35
12584,47.64
12596,48.63
12608,50.0
12620,52.12
12632,55.05
12644,58.54
12656,62.1
12667,65.08
12678,66.96
12690,67.49
12702,66.92
12714,65.88
12726,65.25
12738,65.73
12750,67.53
12762,70.29
12774,73.25
12786,75.5
12798,76.4
12810,75.74
12822,73.66
12834,70.52
12846,66.59
12857,61.92
12868,56.39
12880,49.79
12892,42.0
12904,33.01
12916,22.97
12928,12.12
12940,0.79
12952,-10.63
12964,-21.71
12976,-31.95
12988,-40.96
13000,-48.58
13012,-54.89
13024,-60.09
13036,-64.35
13047,-67.54
13058,-69.16
13070,-68.53
13082,-65.1
13094,-58.78
13106,-50.11
13118,-40.17
13130,-30.18
13142,-21.18
13154,-13.74
13166,-7.89
13178,-3.37
13190,0.13
13202,2.8
13214,4.62
13226,5.45
13237,5.21
13248,3.94
13260,1.88
13272,-0.7
13284,-3.52
13296,-6.34
13308,-8.87
13320,-10.85
13332,-12.11
13344,-12.64
13356,-12.63
13368,-12.35
13380,-11.97
13392,-11.43
13404,-10.47
13416,-8.65
13427,-5.8
13438,-2.28
13450,1.03
13462,3.11
13474,3.24
13486,1.44
13498,-1.55
13510,-4.55
13522,-6.19
13534,-5.68
13546,-3.08
13558,0.92
13570,5.41
13582,9.61
13594,13.22
13606,16.13
13617,18.04
13628,19.23
13640,19.84
13652,20.06
13664,20.28
13676,21.22
13688,23.74
13700,28.55
13712,35.84
13724,44.89
13736,55.62
13748,67.68
13760,80.43
13772,93.04
13784,104.54
13796,114.08
13807,121.3
13818,126.35
13830,129.55
13842,133.1
13854,139.05
13866,148.59
13878,161.58
13890,176.62
13902,191.75
13914,205.23
13926,215.98
13938,215.33
13950,198.27
13962,163.84
13974,116.19
13986,63.31
13997,13.49
14008,-27.87
14020,-59.37
14032,-80.36
14044,-95.79
14056,-109.04
14068,-121.63
14080,-133.27
14092,-142.78
14104,-149.08
14116,-151.97
14128,-151.88
14140,-150.32
14152,-150.01
14164,-152.87
14176,-160.28
14187,-172.56
14198,-188.83
14210,-206.81
14222,-223.2
14234,-234.13
14246,-236.65
14258,-225.94
14270,-199.91
14282,-161.23
14294,-116.97
14306,-76.11
14318,-45.75
14330,-30.29
14342,-27.98
14354,-34.9
14366,-46.7
14377,-59.43
14388,-70.09
14400,-75.45
14412,-74.2
14424,-66.81
14436,-55.45
14448,-43.04
14460,-32.92
14472,-27.62
14484,-28.26
14496,-34.1
14508,-42.63
14520,-50.55
14532,-54.43
14544,-51.73
14556,-41.17
14567,-23.51
14578,-1.07
14590,22.43
14602,43.02
14614,57.47
14626,64.06
14638,63.07
14650,56.4
14662,46.73
14674,36.29
14686,26.5
14698,17.83
14710,10.33
14722,4.17
14734,-0.29
14746,-2.67
14757,-2.94
14768,-1.68
14780,-0.08
14792,0.62
14804,-0.32
14816,-2.85
14828,-6.13
14840,-9.08
14852,-10.79
14864,-10.95
14876,-9.78
14888,-7.82
14900,-5.58
14912,-3.33
14924,-1.1
14936,1.13
14947,3.3
14958,5.18
14970,6.55
14982,7.28
14994,7.47
15006,7.47
15018,7.78
15030,8.85
15042,11.02
15054,14.33
15066,18.49
15078,22.98
15090,27.17
15102,30.51
15114,32.6
15126,33.29
15137,32.67
15148,31.09
15160,29.11
15172,27.51
15184,27.09
15196,28.48
15208,31.9
15220,36.98
15232,42.89
15244,48.55
15256,52.98
15268,55.56
15280,56.14
15292,55.04
15304,52.95
15316,50.8
15327,49.6
15338,50.24
15350,53.22
15362,58.44
15374,65.09
15386,71.87
15398,77.36
15410,80.36
15422,80.24
15434,76.92
15446,70.78
15458,62.54
15470,53.06
15482,43.46
15494,35.11
15506,29.51
15517,27.98
15528,31.07
15540,38.15
15552,47.14
15564,54.89
15576,57.91
15588,53.48
15600,40.56
15612,20.26
15624,-4.36
15636,-29.12
15648,-49.89
15660,-63.65
15672,-69.1
15684,-66.73
15696,-58.58
15707,-47.74
15718,-37.9
15730,-32.82
15742,-35.33
15754,-46.46
15766,-64.68
15778,-86.15
15790,-105.89
15802,-119.6
15814,-125.14
15826,-122.99
15838,-115.48
15850,-105.3
15862,-94.31
15874,-83.16
15886,-71.79
15897,-60.29
15908,-49.26
15920,-39.6
15932,-31.84
15944,-25.58
15956,-19.59
15968,-12.32
15980,-2.73
15992,9.22
16004,22.45
16016,35.14
16028,45.38
16040,51.81
16052,54.07
16064,52.93
16076,49.86
16087,46.43
16098,43.78
16110,42.21
16122,41.25
16134,39.89
16146,37.09
16158,32.31
16170,25.79
16182,18.54
16194,12.07
16206,7.71
16218,6.04
16230,6.51
16242,7.68
16254,7.7
16266,5.16
16277,-0.59
16288,-9.29
16300,-20.15
16312,-32.15
16324,-44.26
16336,-55.41
16348,-64.37
16360,-69.87
16372,-70.97
16384,-67.53
16396,-60.39
16408,-51.27
16420,-42.25
16432,-35.13
16444,-30.94
16456,-29.65
16467,-30.28
16478,-31.29
16490,-31.15
16502,-28.87
16514,-24.28
16526,-18.08
16538,-11.41
16550,-5.51
16562,-1.23
16574,1.04
16586,1.32
16598,-0.2
16610,-3.33
16622,-7.89
16634,-13.68
16646,-20.36
16657,-27.44
16668,-34.33
16680,-40.5
16692,-45.34
16704,-48.24
16716,-48.64
16728,-46.25
16740,-41.44
16752,-35.26
16764,-29.32
16776,-25.18
16788,-23.8
16800,-25.29
16812,-29.03
16824,-34.15
16836,-39.8
16847,-45.25
16858,-49.51
16870,-51.18
16882,-48.61
16894,-40.62
16906,-27.22
16918,-9.97
16930,8.41
16942,25.04
16954,37.87
16966,46.11
16978,50.2
16990,51.07
17002,49.73
17014,46.92
17026,43.21
17037,39.12
17048,35.15
17060,31.6
17072,28.5
17084,25.72
17096,23.19
17108,21.11
17120,19.96
17132,20.29
17144,22.26
17156,25.47
17168,28.92
17180,31.4
17192,31.89
17204,29.94
17216,25.85
17227,20.54
17238,15.26
17250,11.25
17262,9.4
17274,10.18
17286,13.6
17298,19.22
17310,26.2
17322,33.41
17334,39.48
17346,43.01
17358,42.89
17370,38.58
17382,30.35
17394,19.16
17406,6.32
17417,-6.9
17428,-19.69
17440,-31.68
17452,-42.82
17464,-53.04
17476,-61.95
17488,-68.75
17500,-72.36
17512,-71.8
17524,-66.47
17536,-56.5
17548,-42.92
17560,-27.42
17572,-11.93
17584,1.79
17596,12.51
17607,19.68
17618,23.23
17630,23.46
17642,20.86
17654,16.12
17666,10.29
17678,4.61
17690,0.42
17702,-1.33
17714,-0.44
17726,2.39
17738,5.84
17750,8.55
17762,9.71
17774,9.47
17786,8.9
17797,9.46
17808,12.3
17820,17.6
17832,24.3
17844,30.3
17856,33.19
17868,31.09
17880,23.46
17892,11.41
17904,-2.53
17916,-15.1
17928,-23.27
17940,-25.08
17952,-20.18
17964,-9.84
17976,3.42
17987,16.65
17998,27.24
18010,33.61
18022,35.36
18034,33.08
18046,27.88
18058,20.88
18070,12.9
18082,4.58
18094,-3.52
18106,-10.71
18118,-16.29
18130,-19.81
18142,-21.28
18154,-21.3
18166,-20.77
18177,-20.55
18188,-21.16
18200,-22.55
18212,-24.31
18224,-25.83
18236,-26.53
18248,-25.96
18260,-23.76
18272,-19.63
18284,-13.41
18296,-5.26
18308,4.27
18320,14.28
18332,23.76
18344,31.95
18356,38.5
18367,43.34
18378,46.44
18390,47.4
18402,45.36
18414,39.41
18426,29.12
18438,15.14
18450,-0.64
18462,-15.55
18474,-26.92
18486,-33.09
18498,-33.86
18510,-30.6
18522,-25.53
18534,-20.94
18546,-18.42
18557,-18.42
18568,-20.3
18580,-22.73
18592,-24.2
18604,-23.46
18616,-19.79
18628,-13.07
18640,-3.86
18652,6.53
18664,16.39
18676,23.94
18688,28.06
18700,28.65
18712,26.9
18724,24.84
18736,24.53
18747,27.11
18758,32.09
18770,37.54
18782,40.83
18794,39.83
18806,33.75
18818,23.63
18830,11.85
18842,1.33
18854,-5.48
18866,-7.5
18878,-4.71
18890,2.1
18902,12.03
18914,23.86
18926,36.24
18937,47.47
18948,55.69
18960,59.09
18972,56.09
18984,46.44
18996,31.41
19008,13.94
19020,-3.04
19032,-17.4
19044,-28.53
19056,-37.27
19068,-45.6
19080,-56.51
19092,-72.19
19104,-93.23
19116,-117.85
19127,-143.6
19138,-167.62
19150,-187.46
19162,-201.08
19174,-207.2
19186,-206.2
19198,-198.77
19210,-185.66
19222,-166.71
19234,-142.61
19246,-114.64
19258,-84.66
19270,-54.62
19282,-21.49
19294,14.94
19306,52.8
19317,83.64
19328,104.66
19340,115.2
19352,116.97
19364,111.38
19376,100.9
19388,89.35
19400,80.55
19412,78.26
19424,84.82
19436,100.84
19448,123.4
19460,147.31
19472,166.73
19484,177.15
19496,176.27
19507,163.32
19518,139.56
19530,107.58
19542,71.42
19554,34.75
19566,0.67
19578,-28.64
19590,-51.99
19602,-69.5
19614,-82.9
19626,-94.49
19638,-106.1
19650,-117.87
19662,-128.69
19674,-136.49
19686,-139.08
19697,-135.09
19708,-124.51
19720,-108.78
19732,-89.8
19744,-69.33
19756,-48.53
19768,-28.72
19780,-11.58
19792,0.91
19804,7.26
19816,7.3
19828,2.34
19840,-5.29
19852,-13.39
19864,-20.78
19876,-27.38
19887,-33.19
19898,-36.93
19910,-35.54
19922,-25.26
19934,-3.74
19946,27.99
19958,65.12
19970,100.62
19982,127.92
19994,143.38
20006,147.04
20018,141.5
20030,129.95
20042,114.48
20054,95.61
20066,73.18
20077,47.53
20088,20.13
20100,-6.7
20112,-30.84
20124,-51.32
20136,-68.55
20148,-83.77
20160,-97.97
20172,-111.11
20184,-121.91
20196,-128.46
20208,-129.08
20220,-123.2
20232,-111.64
20244,-96.24
20256,-79.23
20267,-62.43
20278,-46.88
20290,-32.8
20302,-19.86
20314,-7.63
20326,4.03
20338,14.8
20350,23.98
20362,30.73
20374,34.37
20386,34.66
20398,31.87
20410,26.71
20422,20.13
20434,13.05
20446,6.23
20457,0.19
20468,-4.76
20480,-8.38
20492,-10.51
20504,-11.08
20516,-10.22
20528,-8.38
20540,-6.25
20552,-4.56
20564,-3.86
20576,-4.26
20588,-5.45
20600,-6.86
20612,-7.89
20624,-8.19
20636,-7.69
20647,-6.52
20658,-4.82
20670,-2.69
20682,-0.2
20694,2.56
20706,5.36
20718,7.88
20730,9.76
20742,10.65
20754,10.31
20766,8.74
20778,6.26
20790,3.55
20802,1.5
20814,0.99
20826,2.57
20837,6.21
20848,11.27
20860,16.73
20872,21.58
20884,25.05
20896,26.86
20908,27.08
20920,25.99
20932,23.92
20944,21.2
20956,18.18
20968,15.38
20980,13.42
20992,12.92
