seconds,BVP
3,-6.72
15,-7.9
27,-9.17
39,-10.46
51,-11.61
63,-12.45
75,-12.74
87,-12.31
99,-11.02
111,-8.9
123,-6.08
135,-2.81
147,0.61
159,3.82
170,6.52
181,8.47
193,9.55
205,9.79
217,9.36
229,8.52
241,7.6
253,6.8
265,6.21
277,5.75
289,5.24
301,4.53
313,3.62
325,2.7
337,2.07
349,2.04
360,2.77
371,4.15
383,5.87
395,7.5
407,8.67
419,9.16
431,8.96
443,8.17
455,6.98
467,5.56
479,3.99
491,2.3
503,0.46
515,-1.58
527,-3.79
539,-6.11
550,-8.39
561,-10.44
573,-12.01
585,-12.86
597,-12.8
609,-11.68
621,-9.52
633,-6.51
645,-2.97
657,0.68
669,4.06
681,6.89
693,9.02
705,10.38
717,11.02
729,10.99
740,10.43
751,9.5
763,8.39
775,7.29
787,6.28
799,5.4
811,4.61
823,3.88
835,3.21
847,2.61
859,2.13
871,1.78
883,1.54
895,1.36
907,1.21
919,1.03
930,0.75
941,0.29
953,-0.38
965,-1.26
977,-2.27
989,-3.27
1001,-4.18
1013,-5.01
1025,-5.86
1037,-6.84
1049,-8.0
1061,-9.21
1073,-10.25
1085,-10.8
1097,-10.62
1109,-9.6
1120,-7.75
1131,-5.2
1143,-2.17
1155,1.1
1167,4.33
1179,7.25
1191,9.62
1203,11.3
1215,12.24
1227,12.48
1239,12.08
1251,11.1
1263,9.64
1275,7.82
1287,5.87
1299,4.08
1310,2.69
1321,1.83
1333,1.46
1345,1.39
1357,1.4
1369,1.29
1381,0.93
1393,0.33
1405,-0.45
1417,-1.32
1429,-2.19
1441,-3.0
1453,-3.72
1465,-4.4
1477,-5.1
1489,-5.93
1500,-6.98
1511,-8.27
1523,-9.78
1535,-11.4
1547,-12.96
1559,-14.27
1571,-15.12
1583,-15.33
1595,-14.77
1607,-13.44
1619,-11.44
1631,-8.93
1643,-6.13
1655,-3.19
1667,-0.27
1679,2.53
1690,5.06
1701,7.16
1713,8.65
1725,9.41
1737,9.4
1749,8.69
1761,7.46
1773,5.95
1785,4.42
1797,3.07
1809,2.03
1821,1.31
1833,0.88
1845,0.66
1857,0.63
1869,0.75
1880,1.0
1891,1.31
1903,1.53
1915,1.49
1927,1.04
1939,0.2
1951,-0.88
1963,-1.95
1975,-2.78
1987,-3.3
1999,-3.63
2011,-3.98
2023,-4.58
2035,-5.59
2047,-7.03
2059,-8.82
2070,-10.79
2081,-12.71
2093,-14.26
2105,-15.12
2117,-14.98
2129,-13.69
2141,-11.31
2153,-8.1
2165,-4.48
2177,-0.91
2189,2.29
2201,4.94
2213,6.99
2225,8.48
2237,9.46
2249,9.9
2260,9.79
2271,9.15
2283,8.09
2295,6.85
2307,5.71
2319,4.91
2331,4.55
2343,4.58
2355,4.79
2367,4.97
2379,4.98
2391,4.85
2403,4.72
2415,4.7
2427,4.79
2439,4.84
2450,4.65
2461,4.09
2473,3.21
2485,2.22
2497,1.38
2509,0.84
2521,0.59
2533,0.45
2545,0.19
2557,-0.32
2569,-1.13
2581,-2.2
2593,-3.45
2605,-4.8
2617,-6.12
2629,-7.18
2640,-7.7
2651,-7.43
2663,-6.21
2675,-4.11
2687,-1.39
2699,1.6
2711,4.51
2723,7.06
2735,9.1
2747,10.52
2759,11.28
2771,11.37
2783,10.83
2795,9.8
2807,8.46
2819,7.01
2830,5.66
2841,4.53
2853,3.67
2865,3.08
2877,2.72
2889,2.53
2901,2.5
2913,2.62
2925,2.84
2937,3.11
2949,3.32
2961,3.37
2973,3.19
2985,2.73
2997,2.02
3009,1.11
3020,0.07
3031,-0.98
3043,-1.95
3055,-2.72
3067,-3.28
3079,-3.67
3091,-4.02
3103,-4.5
3115,-5.23
3127,-6.25
3139,-7.49
3151,-8.76
3163,-9.77
3175,-10.21
3187,-9.82
3199,-8.52
3210,-6.37
3221,-3.65
3233,-0.68
3245,2.22
3257,4.82
3269,6.97
3281,8.6
3293,9.63
3305,9.99
3317,9.7
3329,8.83
3341,7.62
3353,6.3
3365,5.11
3377,4.15
3389,3.44
3400,2.94
3411,2.61
3423,2.44
3435,2.45
3447,2.63
3459,2.92
3471,3.2
3483,3.33
3495,3.22
3507,2.85
3519,2.26
3531,1.57
3543,0.9
3555,0.32
3567,-0.15
3579,-0.57
3590,-1.01
3601,-1.53
3613,-2.16
3625,-2.91
3637,-3.7
3649,-4.45
3661,-5.11
3673,-5.64
3685,-6.1
3697,-6.59
3709,-7.23
3721,-8.07
3733,-9.04
3745,-9.93
3757,-10.49
3769,-10.41
3780,-9.52
3791,-7.77
3803,-5.29
3815,-2.37
3827,0.64
3839,3.38
3851,5.61
3863,7.24
3875,8.28
3887,8.79
3899,8.83
3911,8.4
3923,7.52
3935,6.26
3947,4.82
3959,3.46
3970,2.44
3981,1.86
3993,1.74
4005,1.93
4017,2.31
4029,2.78
4041,3.31
4053,3.86
4065,4.38
4077,4.79
4089,4.97
4101,4.86
4113,4.47
4125,3.86
4137,3.13
4149,2.4
4160,1.71
4171,1.09
4183,0.49
4195,-0.14
4207,-0.85
4219,-1.68
4231,-2.63
4243,-3.64
4255,-4.63
4267,-5.55
4279,-6.36
4291,-7.11
4303,-7.9
4315,-8.8
4327,-9.87
4339,-11.05
4350,-12.17
4361,-13.02
4373,-13.38
4385,-13.12
4397,-12.19
4409,-10.63
4421,-8.56
4433,-6.12
4445,-3.49
4457,-0.89
4469,1.49
4481,3.43
4493,4.79
4505,5.52
4517,5.62
4529,5.2
4540,4.38
4551,3.33
4563,2.22
4575,1.2
4587,0.36
4599,-0.22
4611,-0.52
4623,-0.52
4635,-0.23
4647,0.31
4659,1.0
4671,1.69
4683,2.18
4695,2.37
4707,2.23
4719,1.89
4730,1.46
4741,1.1
4753,0.86
4765,0.72
4777,0.64
4789,0.55
4801,0.41
4813,0.15
4825,-0.28
4837,-0.89
4849,-1.66
4861,-2.52
4873,-3.34
4885,-4.01
4897,-4.44
4909,-4.66
4920,-4.74
4931,-4.85
4943,-5.13
4955,-5.72
4967,-6.59
4979,-7.63
4991,-8.64
5003,-9.44
5015,-9.95
5027,-10.22
5039,-10.42
5051,-10.74
5063,-11.33
5075,-12.18
5087,-13.14
5099,-13.95
5110,-14.29
5121,-13.85
5133,-12.42
5145,-9.98
5157,-6.71
5169,-2.98
5181,0.77
5193,4.13
5205,6.82
5217,8.75
5229,9.95
5241,10.55
5253,10.66
5265,10.37
5277,9.77
5289,8.97
5300,8.16
5311,7.47
5323,7.05
5335,6.88
5347,6.91
5359,7.01
5371,7.11
5383,7.22
5395,7.37
5407,7.6
5419,7.93
5431,8.31
5443,8.6
5455,8.68
5467,8.46
5479,7.91
5490,7.1
5501,6.15
5513,5.19
5525,4.35
5537,3.69
5549,3.16
5561,2.69
5573,2.17
5585,1.54
5597,0.75
5609,-0.21
5621,-1.28
5633,-2.43
5645,-3.58
5657,-4.66
5669,-5.62
5680,-6.42
5691,-7.1
5703,-7.77
5715,-8.56
5727,-9.55
5739,-10.74
5751,-11.95
5763,-12.83
5775,-12.98
5787,-12.06
5799,-9.92
5811,-6.7
5823,-2.81
5835,1.27
5847,5.04
5859,8.2
5870,10.61
5881,12.22
5893,13.08
5905,13.21
5917,12.68
5929,11.65
5941,10.4
5953,9.23
5965,8.37
5977,7.96
5989,7.93
6001,8.18
6013,8.56
6025,9.03
6037,9.59
6049,10.27
6060,11.04
6071,11.79
6083,12.36
6095,12.59
6107,12.38
6119,11.71
6131,10.67
6143,9.39
6155,8.03
6167,6.7
6179,5.54
6191,4.57
6203,3.76
6215,3.03
6227,2.26
6239,1.36
6250,0.36
6261,-0.65
6273,-1.56
6285,-2.28
6297,-2.84
6309,-3.34
6321,-3.95
6333,-4.81
6345,-5.93
6357,-7.21
6369,-8.52
6381,-9.69
6393,-10.64
6405,-11.35
6417,-11.9
6429,-12.38
6440,-12.92
6451,-13.64
6463,-14.66
6475,-16.0
6487,-17.61
6499,-19.28
6511,-20.61
6523,-21.17
6535,-20.52
6547,-18.43
6559,-14.95
6571,-10.42
6583,-5.38
6595,-0.4
6607,4.04
6619,7.68
6630,10.44
6641,12.38
6653,13.56
6665,14.02
6677,13.83
6689,13.07
6701,11.91
6713,10.62
6725,9.5
6737,8.76
6749,8.54
6761,8.81
6773,9.46
6785,10.34
6797,11.32
6809,12.26
6820,13.03
6831,13.48
6843,13.53
6855,13.15
6867,12.45
6879,11.53
6891,10.49
6903,9.39
6915,8.24
6927,7.04
6939,5.84
6951,4.72
6963,3.72
6975,2.82
6987,1.91
6999,0.9
7010,-0.22
7021,-1.39
7033,-2.48
7045,-3.38
7057,-4.01
7069,-4.41
7081,-4.66
7093,-4.91
7105,-5.3
7117,-5.97
7129,-6.94
7141,-8.15
7153,-9.41
7165,-10.55
7177,-11.48
7189,-12.24
7200,-13.01
7211,-13.96
7223,-15.22
7235,-16.77
7247,-18.48
7259,-20.17
7271,-21.7
7283,-22.9
7295,-23.62
7307,-23.66
7319,-22.81
7331,-20.92
7343,-17.96
7355,-14.05
7367,-9.49
7379,-4.71
7390,-0.15
7401,3.82
7413,6.92
7425,9.08
7437,10.31
7449,10.73
7461,10.47
7473,9.67
7485,8.51
7497,7.18
7509,5.93
7521,4.95
7533,4.38
7545,4.22
7557,4.37
7569,4.7
7580,5.1
7591,5.56
7603,6.09
7615,6.74
7627,7.46
7639,8.12
7651,8.53
7663,8.52
7675,8.02
7687,7.11
7699,5.98
7711,4.86
7723,3.95
7735,3.35
7747,3.03
7759,2.9
7770,2.79
7781,2.56
7793,2.14
7805,1.53
7817,0.8
7829,0.1
7841,-0.48
7853,-0.89
7865,-1.16
7877,-1.38
7889,-1.65
7901,-2.01
7913,-2.49
7925,-3.06
7937,-3.71
7949,-4.44
7960,-5.24
7971,-6.1
7983,-6.92
7995,-7.61
8007,-8.12
8019,-8.47
8031,-8.81
8043,-9.31
8055,-10.15
8067,-11.31
8079,-12.62
8091,-13.77
8103,-14.33
8115,-13.98
8127,-12.58
8139,-10.14
8150,-6.88
8161,-3.16
8173,0.68
8185,4.29
8197,7.42
8209,9.89
8221,11.61
8233,12.53
8245,12.7
8257,12.17
8269,11.08
8281,9.66
8293,8.2
8305,6.97
8317,6.17
8329,5.82
8340,5.81
8351,5.95
8363,6.13
8375,6.36
8387,6.72
8399,7.32
8411,8.11
8423,8.94
8435,9.56
8447,9.78
8459,9.55
8471,8.96
8483,8.2
8495,7.42
8507,6.72
8519,6.05
8530,5.35
8541,4.55
8553,3.63
8565,2.68
8577,1.76
8589,0.95
8601,0.22
8613,-0.49
8625,-1.25
8637,-2.1
8649,-3.01
8661,-3.91
8673,-4.71
8685,-5.38
8697,-5.9
8709,-6.31
8720,-6.69
8731,-7.11
8743,-7.65
8755,-8.36
8767,-9.29
8779,-10.41
8791,-11.58
8803,-12.57
8815,-13.09
8827,-12.85
8839,-11.66
8851,-9.47
8863,-6.44
8875,-2.86
8887,0.91
8899,4.5
8910,7.61
8921,10.05
8933,11.71
8945,12.58
8957,12.7
8969,12.17
8981,11.14
8993,9.79
9005,8.34
9017,6.99
9029,5.9
9041,5.17
9053,4.81
9065,4.83
9077,5.18
9089,5.77
9100,6.44
9111,7.01
9123,7.31
9135,7.24
9147,6.81
9159,6.12
9171,5.33
9183,4.55
9195,3.85
9207,3.23
9219,2.67
9231,2.15
9243,1.63
9255,1.06
9267,0.4
9279,-0.41
9290,-1.37
9301,-2.42
9313,-3.45
9325,-4.4
9337,-5.23
9349,-5.98
9361,-6.72
9373,-7.47
9385,-8.21
9397,-8.88
9409,-9.47
9421,-10.01
9433,-10.57
9445,-11.21
9457,-11.96
9469,-12.77
9480,-13.59
9491,-14.43
9503,-15.33
9515,-16.35
9527,-17.46
9539,-18.48
9551,-19.09
9563,-18.91
9575,-17.64
9587,-15.2
9599,-11.78
9611,-7.78
9623,-3.69
9635,0.08
9647,3.28
9659,5.85
9670,7.81
9681,9.22
9693,10.11
9705,10.48
9717,10.33
9729,9.71
9741,8.74
9753,7.6
9765,6.5
9777,5.65
9789,5.22
9801,5.33
9813,5.98
9825,7.02
9837,8.24
9849,9.39
9860,10.28
9871,10.77
9883,10.87
9895,10.61
9907,10.06
9919,9.3
9931,8.41
9943,7.5
9955,6.61
9967,5.77
9979,4.93
9991,4.02
10003,2.99
10015,1.88
10027,0.76
10039,-0.26
10050,-1.08
10061,-1.68
10073,-2.08
10085,-2.4
10097,-2.72
10109,-3.14
10121,-3.67
10133,-4.3
10145,-4.97
10157,-5.64
10169,-6.32
10181,-7.05
10193,-7.86
10205,-8.73
10217,-9.56
10229,-10.26
10240,-10.74
10251,-11.04
10263,-11.27
10275,-11.63
10287,-12.3
10299,-13.41
10311,-14.93
10323,-16.7
10335,-18.44
10347,-19.79
10359,-20.4
10371,-19.95
10383,-18.31
10395,-15.5
10407,-11.75
10419,-7.4
10430,-2.89
10441,1.41
10453,5.19
10465,8.3
10477,10.67
10489,12.26
10501,13.02
10513,12.91
10525,11.96
10537,10.33
10549,8.35
10561,6.43
10573,4.92
10585,4.05
10597,3.84
10609,4.12
10620,4.71
10631,5.43
10643,6.19
10655,6.91
10667,7.51
10679,7.9
10691,8.05
10703,7.96
10715,7.71
10727,7.41
10739,7.06
10751,6.58
10763,5.86
10775,4.86
10787,3.65
10799,2.4
10810,1.35
10821,0.61
10833,0.22
10845,0.03
10857,-0.11
10869,-0.35
10881,-0.71
10893,-1.17
10905,-1.63
10917,-2.03
10929,-2.37
10941,-2.69
10953,-3.06
10965,-3.55
10977,-4.17
10989,-4.91
11000,-5.69
11011,-6.47
11023,-7.19
11035,-7.79
11047,-8.25
11059,-8.52
11071,-8.63
11083,-8.67
11095,-8.84
11107,-9.36
11119,-10.37
11131,-11.83
11143,-13.46
11155,-14.82
11167,-15.43
11179,-14.95
11190,-13.31
11201,-10.63
11213,-7.19
11225,-3.31
11237,0.73
11249,4.68
11261,8.3
11273,11.36
11285,13.71
11297,15.26
11309,16.06
11321,16.2
11333,15.76
11345,14.84
11357,13.54
11369,11.99
11380,10.43
11391,9.11
11403,8.28
11415,8.04
11427,8.34
11439,9.0
11451,9.81
11463,10.59
11475,11.19
11487,11.56
11499,11.66
11511,11.46
11523,10.97
11535,10.24
11547,9.36
11559,8.45
11570,7.62
11581,6.9
11593,6.28
11605,5.67
11617,4.97
11629,4.09
11641,2.98
11653,1.7
11665,0.37
11677,-0.88
11689,-1.9
11701,-2.62
11713,-3.09
11725,-3.42
11737,-3.75
11749,-4.22
11760,-4.85
11771,-5.61
11783,-6.43
11795,-7.23
11807,-8.0
11819,-8.83
11831,-9.87
11843,-11.19
11855,-12.74
11867,-14.32
11879,-15.57
11891,-16.14
11903,-15.76
11915,-14.34
11927,-11.95
11939,-8.82
11950,-5.24
11961,-1.53
11973,1.98
11985,5.01
11997,7.37
12009,8.98
12021,9.89
12033,10.21
12045,10.05
12057,9.49
12069,8.58
12081,7.4
12093,6.1
12105,4.88
12117,3.97
12129,3.51
12140,3.53
12151,3.95
12163,4.64
12175,5.46
12187,6.28
12199,7.0
12211,7.51
12223,7.76
12235,7.74
12247,7.48
12259,7.06
12271,6.47
12283,5.71
12295,4.76
12307,3.64
12319,2.47
12330,1.42
12341,0.65
12353,0.19
12365,-0.09
12377,-0.41
12389,-0.96
12401,-1.79
12413,-2.76
12425,-3.64
12437,-4.26
12449,-4.61
12461,-4.83
12473,-5.15
12485,-5.73
12497,-6.56
12509,-7.54
12520,-8.5
12531,-9.31
12543,-9.98
12555,-10.58
12567,-11.27
12579,-12.14
12591,-13.25
12603,-14.6
12615,-16.11
12627,-17.63
12639,-18.94
12651,-19.74
12663,-19.74
12675,-18.63
12687,-16.31
12699,-12.83
12710,-8.51
12721,-3.83
12733,0.69
12745,4.63
12757,7.75
12769,10.01
12781,11.51
12793,12.34
12805,12.59
12817,12.3
12829,11.52
12841,10.39
12853,9.13
12865,8.02
12877,7.27
12889,7.01
12900,7.23
12911,7.79
12923,8.51
12935,9.21
12947,9.75
12959,10.07
12971,10.16
12983,10.04
12995,9.76
13007,9.32
13019,8.7
13031,7.88
13043,6.84
13055,5.67
13067,4.49
13079,3.45
13090,2.63
13101,2.02
13113,1.51
13125,0.96
13137,0.28
13149,-0.51
13161,-1.33
13173,-2.06
13185,-2.67
13197,-3.21
13209,-3.76
13221,-4.41
13233,-5.15
13245,-5.89
13257,-6.57
13269,-7.16
13280,-7.77
13291,-8.52
13303,-9.49
13315,-10.66
13327,-11.9
13339,-13.07
13351,-14.09
13363,-15.03
13375,-16.02
13387,-17.23
13399,-18.62
13411,-20.0
13423,-20.94
13435,-21.02
13447,-19.9
13459,-17.49
13470,-13.96
13481,-9.69
13493,-5.13
13505,-0.67
13517,3.38
13529,6.8
13541,9.45
13553,11.22
13565,12.03
13577,11.93
13589,11.1
13601,9.86
13613,8.54
13625,7.4
13637,6.57
13649,6.04
13660,5.74
13671,5.66
13683,5.78
13695,6.11
13707,6.59
13719,7.1
13731,7.49
13743,7.66
13755,7.6
13767,7.38
13779,7.08
13791,6.76
13803,6.37
13815,5.89
13827,5.27
13839,4.55
13850,3.78
13861,3.03
13873,2.35
13885,1.71
13897,1.13
13909,0.59
13921,0.08
13933,-0.44
13945,-1.02
13957,-1.69
13969,-2.43
13981,-3.2
13993,-3.91
14005,-4.5
14017,-4.98
14029,-5.38
14040,-5.75
14051,-6.1
14063,-6.41
14075,-6.68
14087,-6.96
14099,-7.38
14111,-8.13
14123,-9.3
14135,-10.84
14147,-12.54
14159,-14.01
14171,-14.83
14183,-14.68
14195,-13.4
14207,-11.08
14219,-7.98
14230,-4.43
14241,-0.81
14253,2.62
14265,5.65
14277,8.2
14289,10.19
14301,11.58
14313,12.34
14325,12.44
14337,11.94
14349,10.97
14361,9.73
14373,8.5
14385,7.51
14397,6.96
14409,6.87
14420,7.19
14431,7.71
14443,8.24
14455,8.66
14467,8.95
14479,9.17
14491,9.39
14503,9.59
14515,9.65
14527,9.41
14539,8.76
14551,7.73
14563,6.47
14575,5.17
14587,3.98
14599,2.96
14610,2.06
14621,1.22
14633,0.39
14645,-0.44
14657,-1.27
14669,-2.12
14681,-3.0
14693,-3.93
14705,-4.89
14717,-5.82
14729,-6.68
14741,-7.45
14753,-8.14
14765,-8.8
14777,-9.48
14789,-10.25
14800,-11.13
14811,-12.16
14823,-13.28
14835,-14.37
14847,-15.18
14859,-15.41
14871,-14.78
14883,-13.12
14895,-10.42
14907,-6.85
14919,-2.71
14931,1.58
14943,5.54
14955,8.75
14967,10.96
14979,12.13
14990,12.44
15001,12.19
15013,11.64
15025,10.96
15037,10.19
15049,9.33
15061,8.42
15073,7.64
15085,7.2
15097,7.24
15109,7.74
15121,8.49
15133,9.22
15145,9.7
15157,9.83
15169,9.66
15180,9.31
15191,8.89
15203,8.42
15215,7.84
15227,7.02
15239,5.95
15251,4.65
15263,3.27
15275,1.95
15287,0.81
15299,-0.14
15311,-0.95
15323,-1.65
15335,-2.32
15347,-2.95
15359,-3.58
15370,-4.22
15381,-4.92
15393,-5.7
15405,-6.56
15417,-7.46
15429,-8.37
15441,-9.27
15453,-10.13
15465,-10.93
15477,-11.63
15489,-12.19
15501,-12.67
15513,-13.24
15525,-14.11
15537,-15.45
15549,-17.23
15560,-19.16
15571,-20.76
15583,-21.5
15595,-21.01
15607,-19.2
15619,-16.2
15631,-12.32
15643,-7.96
15655,-3.47
15667,0.8
15679,4.59
15691,7.7
15703,10.0
15715,11.44
15727,12.08
15739,11.98
15750,11.29
15761,10.15
15773,8.8
15785,7.48
15797,6.47
15809,5.97
15821,6.06
15833,6.69
15845,7.67
15857,8.78
15869,9.78
15881,10.51
15893,10.87
15905,10.87
15917,10.56
15929,10.03
15940,9.34
15951,8.52
15963,7.58
15975,6.56
15987,5.47
15999,4.4
16011,3.4
16023,2.49
16035,1.64
16047,0.82
16059,0.03
16071,-0.71
16083,-1.32
16095,-1.76
16107,-2.02
16119,-2.15
16130,-2.3
16141,-2.6
16153,-3.13
16165,-3.95
16177,-5.0
16189,-6.2
16201,-7.45
16213,-8.66
16225,-9.74
16237,-10.65
16249,-11.36
16261,-11.91
16273,-12.41
16285,-13.03
16297,-13.9
16309,-15.08
16320,-16.47
16331,-17.79
16343,-18.7
16355,-18.84
16367,-18.0
16379,-16.08
16391,-13.17
16403,-9.45
16415,-5.25
16427,-0.96
16439,3.01
16451,6.3
16463,8.73
16475,10.26
16487,11.04
16499,11.22
16510,10.97
16521,10.36
16533,9.5
16545,8.53
16557,7.64
16569,7.07
16581,6.94
16593,7.22
16605,7.74
16617,8.29
16629,8.67
16641,8.81
16653,8.78
16665,8.66
16677,8.54
16689,8.44
16700,8.27
16711,7.92
16723,7.27
16735,6.33
16747,5.15
16759,3.9
16771,2.73
16783,1.77
16795,1.04
16807,0.48
16819,0.01
16831,-0.44
16843,-0.92
16855,-1.39
16867,-1.85
16879,-2.29
16890,-2.73
16901,-3.22
16913,-3.79
16925,-4.44
16937,-5.13
16949,-5.81
16961,-6.44
16973,-6.96
16985,-7.41
16997,-7.82
17009,-8.28
17021,-8.85
17033,-9.56
17045,-10.37
17057,-11.26
17069,-12.2
17080,-13.18
17091,-14.21
17103,-15.21
17115,-15.97
17127,-16.17
17139,-15.48
17151,-13.66
17163,-10.75
17175,-7.0
17187,-2.88
17199,1.15
17211,4.74
17223,7.69
17235,9.96
17247,11.54
17259,12.47
17270,12.77
17281,12.5
17293,11.79
17305,10.8
17317,9.75
17329,8.77
17341,7.97
17353,7.4
17365,7.09
17377,7.09
17389,7.46
17401,8.18
17413,9.15
17425,10.14
17437,10.95
17449,11.38
17460,11.36
17471,10.93
17483,10.18
17495,9.22
17507,8.14
17519,7.01
17531,5.91
17543,4.92
17555,4.1
17567,3.48
17579,3.01
17591,2.61
17603,2.19
17615,1.65
17627,0.93
17639,-0.03
17650,-1.19
17661,-2.46
17673,-3.7
17685,-4.75
17697,-5.53
17709,-6.03
17721,-6.36
17733,-6.69
17745,-7.18
17757,-7.96
17769,-9.07
17781,-10.42
17793,-11.85
17805,-13.05
17817,-13.65
17829,-13.3
17840,-11.79
17851,-9.15
17863,-5.69
17875,-1.87
17887,1.79
17899,4.91
17911,7.32
17923,9.05
17935,10.2
17947,10.88
17959,11.15
17971,10.99
17983,10.37
17995,9.4
18007,8.23
18019,7.1
18030,6.21
18041,5.67
18053,5.51
18065,5.65
18077,5.99
18089,6.43
18101,6.91
18113,7.34
18125,7.66
18137,7.8
18149,7.72
18161,7.4
18173,6.9
18185,6.22
18197,5.42
18209,4.53
18220,3.62
18231,2.76
18243,2.02
18255,1.38
18267,0.77
18279,0.07
18291,-0.77
18303,-1.73
18315,-2.68
18327,-3.46
18339,-3.99
18351,-4.33
18363,-4.65
18375,-5.1
18387,-5.79
18399,-6.65
18410,-7.5
18421,-8.23
18433,-8.79
18445,-9.25
18457,-9.76
18469,-10.43
18481,-11.29
18493,-12.31
18505,-13.44
18517,-14.61
18529,-15.74
18541,-16.62
18553,-16.93
18565,-16.35
18577,-14.65
18589,-11.82
18600,-8.16
18611,-4.1
18623,-0.13
18635,3.39
18647,6.28
18659,8.46
18671,9.93
18683,10.69
18695,10.73
18707,10.14
18719,9.07
18731,7.77
18743,6.53
18755,5.56
18767,5.0
18779,4.88
18790,5.17
18801,5.74
18813,6.41
18825,7.02
18837,7.4
18849,7.51
18861,7.4
18873,7.2
18885,7.05
18897,6.99
18909,6.96
18921,6.82
18933,6.44
18945,5.77
18957,4.88
18969,3.93
18980,3.05
18991,2.35
19003,1.84
19015,1.47
19027,1.15
19039,0.81
19051,0.39
19063,-0.13
19075,-0.72
19087,-1.3
19099,-1.8
19111,-2.19
19123,-2.5
19135,-2.84
19147,-3.35
19159,-4.14
19170,-5.2
19181,-6.43
19193,-7.69
19205,-8.82
19217,-9.74
19229,-10.47
19241,-11.04
19253,-11.54
19265,-12.04
19277,-12.61
19289,-13.3
19301,-14.09
19313,-14.92
19325,-15.63
19337,-15.94
19349,-15.57
19360,-14.34
19371,-12.2
19383,-9.28
19395,-5.85
19407,-2.23
19419,1.31
19431,4.51
19443,7.2
19455,9.23
19467,10.52
19479,11.04
19491,10.84
19503,10.03
19515,8.81
19527,7.44
19539,6.16
19550,5.18
19561,4.6
19573,4.44
19585,4.64
19597,5.06
19609,5.59
19621,6.11
19633,6.54
19645,6.84
19657,6.99
19669,6.96
19681,6.76
19693,6.4
19705,5.9
19717,5.29
19729,4.59
19740,3.87
19751,3.16
19763,2.5
19775,1.89
19787,1.27
19799,0.55
19811,-0.29
19823,-1.19
19835,-2.02
19847,-2.63
19859,-2.94
19871,-3.01
19883,-3.04
19895,-3.22
19907,-3.7
19919,-4.45
19930,-5.28
19941,-5.98
19953,-6.44
19965,-6.7
19977,-6.9
19989,-7.24
20001,-7.77
20013,-8.4
20025,-8.98
20037,-9.42
20049,-9.72
20061,-10.07
20073,-10.68
20085,-11.68
20097,-13.01
20109,-14.44
20120,-15.62
20131,-16.23
20143,-16.04
20155,-14.95
20167,-13.03
20179,-10.44
20191,-7.4
20203,-4.18
20215,-1.03
20227,1.84
20239,4.27
20251,6.19
20263,7.53
20275,8.31
20287,8.54
20299,8.28
20310,7.66
20321,6.85
20333,6.02
20345,5.37
20357,5.0
20369,4.94
20381,5.16
20393,5.59
20405,6.17
20417,6.85
20429,7.55
20441,8.18
20453,8.64
20465,8.87
20477,8.84
20489,8.61
20500,8.24
20511,7.76
20523,7.19
20535,6.51
20547,5.73
20559,4.91
20571,4.18
20583,3.63
20595,3.28
20607,3.02
20619,2.7
20631,2.2
20643,1.51
20655,0.7
20667,-0.15
20679,-0.98
20690,-1.82
20701,-2.73
20713,-3.75
20725,-4.85
20737,-5.9
20749,-6.77
20761,-7.4
20773,-7.8
20785,-8.08
20797,-8.42
20809,-8.96
20821,-9.76
20833,-10.8
20845,-11.91
20857,-12.85
20869,-13.28
20880,-12.92
20891,-11.56
20903,-9.24
20915,-6.16
20927,-2.73
20939,0.67
20951,3.71
20963,6.21
20975,8.14
20987,9.51
20999,10.35
