seconds,BVP
4,14.27
16,14.9
28,15.42
40,15.79
52,16.02
64,16.1
76,15.96
88,15.48
100,14.56
111,13.16
122,11.33
134,9.16
146,6.77
158,4.28
170,1.75
182,-0.76
194,-3.19
206,-5.51
218,-7.73
230,-9.9
242,-12.14
254,-14.59
266,-17.38
278,-20.56
290,-23.98
301,-27.27
312,-29.85
324,-31.06
336,-30.39
348,-27.61
360,-22.9
372,-16.77
384,-9.87
396,-2.85
408,3.78
420,9.73
432,14.81
444,18.87
456,21.81
468,23.57
480,24.2
491,23.89
502,22.97
514,21.85
526,20.89
538,20.3
550,20.1
562,20.14
574,20.19
586,20.1
598,19.83
610,19.44
622,19.05
634,18.68
646,18.28
658,17.68
670,16.72
681,15.25
692,13.22
704,10.71
716,7.87
728,4.95
740,2.16
752,-0.35
764,-2.58
776,-4.63
788,-6.78
800,-9.26
812,-12.21
824,-15.57
836,-19.11
848,-22.44
860,-25.12
871,-26.79
882,-27.19
894,-26.21
906,-23.8
918,-20.1
930,-15.32
942,-9.83
954,-4.11
966,1.35
978,6.12
990,9.88
1002,12.55
1014,14.16
1026,14.89
1038,14.92
1050,14.47
1061,13.71
1072,12.84
1084,12.01
1096,11.36
1108,10.92
1120,10.69
1132,10.59
1144,10.52
1156,10.44
1168,10.31
1180,10.13
1192,9.88
1204,9.5
1216,8.86
1228,7.84
1240,6.33
1251,4.31
1262,1.88
1274,-0.78
1286,-3.43
1298,-5.88
1310,-8.03
1322,-9.94
1334,-11.75
1346,-13.68
1358,-15.92
1370,-18.57
1382,-21.52
1394,-24.5
1406,-27.08
1418,-28.83
1430,-29.35
1441,-28.49
1452,-26.25
1464,-22.84
1476,-18.58
1488,-13.82
1500,-8.89
1512,-4.09
1524,0.32
1536,4.13
1548,7.15
1560,9.23
1572,10.35
1584,10.57
1596,10.06
1608,9.11
1620,8.01
1631,7.05
1642,6.4
1654,6.12
1666,6.1
1678,6.24
1690,6.41
1702,6.52
1714,6.57
1726,6.56
1738,6.48
1750,6.27
1762,5.82
1774,5.05
1786,3.92
1798,2.44
1810,0.72
1821,-1.16
1832,-3.1
1844,-5.1
1856,-7.18
1868,-9.41
1880,-11.89
1892,-14.64
1904,-17.65
1916,-20.73
1928,-23.6
1940,-25.91
1952,-27.3
1964,-27.48
1976,-26.32
1988,-23.82
2000,-20.1
2011,-15.46
2022,-10.24
2034,-4.85
2046,0.29
2058,4.8
2070,8.38
2082,10.85
2094,12.13
2106,12.3
2118,11.57
2130,10.22
2142,8.61
2154,7.03
2166,5.73
2178,4.8
2190,4.25
2201,4.03
2212,4.07
2224,4.34
2236,4.79
2248,5.32
2260,5.72
2272,5.79
2284,5.29
2296,4.16
2308,2.44
2320,0.36
2332,-1.84
2344,-3.89
2356,-5.7
2368,-7.29
2380,-8.78
2391,-10.39
2402,-12.29
2414,-14.61
2426,-17.33
2438,-20.26
2450,-23.04
2462,-25.17
2474,-26.12
2486,-25.48
2498,-23.12
2510,-19.19
2522,-14.14
2534,-8.57
2546,-3.08
2558,1.82
2570,5.81
2581,8.77
2592,10.72
2604,11.78
2616,12.11
2628,11.91
2640,11.31
2652,10.43
2664,9.36
2676,8.17
2688,6.97
2700,5.9
2712,5.15
2724,4.86
2736,5.07
2748,5.66
2760,6.38
2771,6.91
2782,6.98
2794,6.46
2806,5.39
2818,3.95
2830,2.35
2842,0.73
2854,-0.82
2866,-2.32
2878,-3.83
2890,-5.41
2902,-7.18
2914,-9.3
2926,-11.91
2938,-15.0
2950,-18.34
2961,-21.42
2972,-23.58
2984,-24.15
2996,-22.7
3008,-19.19
3020,-14.01
3032,-7.84
3044,-1.49
3056,4.29
3068,9.02
3080,12.47
3092,14.7
3104,15.92
3116,16.35
3128,16.17
3140,15.46
3151,14.28
3162,12.72
3174,10.93
3186,9.12
3198,7.46
3210,6.09
3222,5.1
3234,4.52
3246,4.32
3258,4.39
3270,4.5
3282,4.41
3294,3.91
3306,2.92
3318,1.52
3330,-0.09
3341,-1.69
3352,-3.11
3364,-4.27
3376,-5.2
3388,-5.97
3400,-6.73
3412,-7.66
3424,-8.96
3436,-10.83
3448,-13.35
3460,-16.36
3472,-19.44
3484,-21.9
3496,-23.06
3508,-22.39
3520,-19.76
3531,-15.49
3542,-10.27
3554,-4.87
3566,0.01
3578,3.97
3590,6.86
3602,8.77
3614,9.83
3626,10.15
3638,9.81
3650,8.9
3662,7.63
3674,6.26
3686,5.04
3698,4.17
3710,3.66
3721,3.44
3732,3.37
3744,3.37
3756,3.45
3768,3.66
3780,3.97
3792,4.28
3804,4.36
3816,3.98
3828,3.06
3840,1.64
3852,-0.05
3864,-1.8
3876,-3.46
3888,-4.99
3900,-6.49
3911,-8.12
3922,-9.99
3934,-12.18
3946,-14.66
3958,-17.29
3970,-19.84
3982,-21.94
3994,-23.17
4006,-23.16
4018,-21.65
4030,-18.61
4042,-14.23
4054,-8.91
4066,-3.14
4078,2.55
4090,7.68
4101,11.92
4112,15.02
4124,16.89
4136,17.56
4148,17.21
4160,16.07
4172,14.51
4184,12.89
4196,11.51
4208,10.57
4220,10.12
4232,10.11
4244,10.46
4256,11.04
4268,11.71
4280,12.35
4291,12.73
4302,12.65
4314,12.02
4326,10.82
4338,9.19
4350,7.36
4362,5.5
4374,3.68
4386,1.88
4398,-0.01
4410,-2.07
4422,-4.4
4434,-7.06
4446,-10.15
4458,-13.7
4470,-17.61
4481,-21.62
4492,-25.28
4504,-28.11
4516,-29.64
4528,-29.58
4540,-27.85
4552,-24.56
4564,-19.98
4576,-14.51
4588,-8.64
4600,-2.9
4612,2.21
4624,6.34
4636,9.32
4648,11.19
4660,12.07
4671,12.18
4682,11.72
4694,10.92
4706,10.03
4718,9.34
4730,9.06
4742,9.28
4754,9.91
4766,10.7
4778,11.35
4790,11.67
4802,11.63
4814,11.37
4826,11.06
4838,10.81
4850,10.56
4861,10.13
4872,9.33
4884,8.05
4896,6.32
4908,4.3
4920,2.2
4932,0.2
4944,-1.65
4956,-3.41
4968,-5.21
4980,-7.21
4992,-9.57
5004,-12.36
5016,-15.55
5028,-18.95
5040,-22.18
5051,-24.68
5062,-25.88
5074,-25.31
5086,-22.79
5098,-18.51
5110,-12.98
5122,-6.86
5134,-0.83
5146,4.62
5158,9.2
5170,12.83
5182,15.48
5194,17.19
5206,17.99
5218,17.97
5230,17.32
5241,16.32
5252,15.29
5264,14.55
5276,14.3
5288,14.64
5300,15.48
5312,16.61
5324,17.75
5336,18.63
5348,19.04
5360,18.92
5372,18.32
5384,17.36
5396,16.16
5408,14.77
5420,13.14
5431,11.2
5442,8.93
5454,6.44
5466,3.94
5478,1.71
5490,-0.09
5502,-1.52
5514,-2.77
5526,-4.17
5538,-5.97
5550,-8.3
5562,-11.14
5574,-14.36
5586,-17.74
5598,-21.03
5610,-23.94
5621,-26.11
5632,-27.2
5644,-26.94
5656,-25.25
5668,-22.24
5680,-18.25
5692,-13.71
5704,-9.09
5716,-4.73
5728,-0.92
5740,2.18
5752,4.51
5764,6.1
5776,7.04
5788,7.51
5800,7.75
5811,7.99
5822,8.43
5834,9.14
5846,10.12
5858,11.25
5870,12.41
5882,13.46
5894,14.35
5906,15.04
5918,15.59
5930,16.03
5942,16.39
5954,16.65
5966,16.65
5978,16.2
5990,15.09
6001,13.23
6012,10.74
6024,7.91
6036,5.12
6048,2.66
6060,0.65
6072,-1.02
6084,-2.61
6096,-4.41
6108,-6.61
6120,-9.31
6132,-12.43
6144,-15.78
6156,-19.07
6168,-21.95
6180,-24.0
6191,-24.87
6202,-24.31
6214,-22.25
6226,-18.82
6238,-14.34
6250,-9.24
6262,-3.96
6274,1.05
6286,5.41
6298,8.82
6310,11.07
6322,12.09
6334,11.93
6346,10.82
6358,9.12
6370,7.22
6381,5.51
6392,4.21
6404,3.4
6416,3.03
6428,2.95
6440,3.03
6452,3.14
6464,3.18
6476,3.05
6488,2.62
6500,1.78
6512,0.48
6524,-1.17
6536,-2.93
6548,-4.48
6560,-5.55
6571,-6.06
6582,-6.11
6594,-5.94
6606,-5.8
6618,-5.81
6630,-5.96
6642,-6.19
6654,-6.51
6666,-7.02
6678,-7.9
6690,-9.19
6702,-10.69
6714,-11.91
6726,-12.25
6738,-11.17
6750,-8.47
6761,-4.3
6772,0.92
6784,6.65
6796,12.44
6808,17.93
6820,22.83
6832,26.86
6844,29.7
6856,31.06
6868,30.84
6880,29.17
6892,26.43
6904,23.19
6916,19.99
6928,17.24
6940,15.18
6951,13.89
6962,13.33
6974,13.42
6986,14.04
6998,15.05
7010,16.31
7022,17.67
7034,19.03
7046,20.29
7058,21.4
7070,22.34
7082,23.1
7094,23.73
7106,24.22
7118,24.55
7130,24.61
7141,24.22
7152,23.14
7164,21.2
7176,18.3
7188,14.56
7200,10.29
7212,5.88
7224,1.84
7236,-1.42
7248,-3.5
7260,-4.09
7272,-2.99
7284,-0.17
7296,4.24
7308,9.95
7320,16.6
7331,23.81
7342,31.24
7354,38.6
7366,45.71
7378,52.5
7390,59.04
7402,65.57
7414,72.46
7426,80.09
7438,88.78
7450,98.61
7462,109.54
7474,121.42
7486,134.21
7498,148.08
7510,163.45
7521,180.83
7532,200.61
7544,222.82
7556,246.9
7568,271.73
7580,295.69
7592,316.93
7604,333.55
7616,343.89
7628,346.78
7640,341.78
7652,329.4
7664,311.07
7676,288.87
7688,265.02
7700,241.3
7711,218.59
7722,196.88
7734,175.5
7746,153.72
7758,131.14
7770,107.89
7782,84.48
7794,61.5
7806,39.2
7818,17.37
7830,-4.63
7842,-27.6
7854,-52.11
7866,-78.25
7878,-105.54
7890,-133.22
7901,-160.5
7912,-186.96
7924,-212.72
7936,-238.36
7948,-264.81
7960,-293.23
7972,-324.86
7984,-360.55
7996,-400.2
8008,-441.98
8020,-482.06
8032,-515.17
8044,-536.06
8056,-541.21
8068,-530.12
8080,-505.44
8091,-471.87
8102,-434.41
8114,-396.89
8126,-361.33
8138,-328.32
8150,-297.9
8162,-270.23
8174,-245.72
8186,-224.66
8198,-206.72
8210,-190.86
8222,-175.64
8234,-159.82
8246,-142.82
8258,-124.92
8270,-107.06
8281,-90.32
8292,-75.41
8304,-62.43
8316,-50.91
8328,-40.17
8340,-29.69
8352,-19.45
8364,-9.85
8376,-1.58
8388,4.82
8400,9.19
8412,11.83
8424,13.41
8436,14.63
8448,16.05
8460,17.86
8471,19.91
8482,21.81
8494,23.14
8506,23.61
8518,23.21
8530,22.19
8542,20.95
8554,19.85
8566,19.06
8578,18.47
8590,17.74
8602,16.5
8614,14.49
8626,11.68
8638,8.25
8650,4.52
8661,0.82
8672,-2.56
8684,-5.27
8696,-6.97
8708,-7.37
8720,-6.3
8732,-3.79
8744,-0.08
8756,4.49
8768,9.56
8780,14.87
8792,20.22
8804,25.46
8816,30.37
8828,34.7
8840,38.21
8851,40.72
8862,42.23
8874,42.89
8886,42.94
8898,42.68
8910,42.33
8922,42.04
8934,41.84
8946,41.66
8958,41.35
8970,40.73
8982,39.66
8994,38.06
9006,35.91
9018,33.3
9030,30.34
9041,27.17
9052,23.92
9064,20.63
9076,17.3
9088,13.79
9100,9.93
9112,5.58
9124,0.72
9136,-4.39
9148,-9.29
9160,-13.4
9172,-16.18
9184,-17.27
9196,-16.51
9208,-13.95
9220,-9.75
9231,-4.21
9242,2.22
9254,8.93
9266,15.25
9278,20.58
9290,24.52
9302,26.98
9314,28.11
9326,28.16
9338,27.35
9350,25.83
9362,23.74
9374,21.3
9386,18.88
9398,16.8
9410,15.32
9421,14.44
9432,13.96
9444,13.62
9456,13.23
9468,12.7
9480,12.07
9492,11.39
9504,10.68
9516,9.85
9528,8.73
9540,7.06
9552,4.61
9564,1.19
9576,-3.21
9588,-8.4
9600,-13.9
9611,-19.03
9622,-22.98
9634,-25.02
9646,-24.69
9658,-21.89
9670,-16.92
9682,-10.43
9694,-3.22
9706,3.9
9718,10.3
9730,15.57
9742,19.56
9754,22.29
9766,23.94
9778,24.7
9790,24.8
9801,24.44
9812,23.81
9824,23.09
9836,22.43
9848,21.95
9860,21.7
9872,21.65
9884,21.67
9896,21.61
9908,21.36
9920,20.84
9932,20.03
9944,18.91
9956,17.41
9968,15.43
9980,12.87
9991,9.71
10002,6.06
10014,2.15
10026,-1.8
10038,-5.64
10050,-9.42
10062,-13.33
10074,-17.58
10086,-22.2
10098,-26.96
10110,-31.24
10122,-34.24
10134,-35.21
10146,-33.73
10158,-29.83
10170,-23.96
10181,-16.84
10192,-9.19
10204,-1.61
10216,5.51
10228,11.93
10240,17.44
10252,21.89
10264,25.16
10276,27.2
10288,28.16
10300,28.31
10312,28.05
10324,27.75
10336,27.66
10348,27.89
10360,28.31
10371,28.71
10382,28.83
10394,28.53
10406,27.77
10418,26.64
10430,25.2
10442,23.44
10454,21.26
10466,18.56
10478,15.25
10490,11.38
10502,7.07
10514,2.45
10526,-2.39
10538,-7.45
10550,-12.72
10561,-18.18
10572,-23.71
10584,-29.1
10596,-34.12
10608,-38.63
10620,-42.69
10632,-46.62
10644,-50.85
10656,-55.8
10668,-61.63
10680,-68.11
10692,-74.55
10704,-79.94
10716,-83.13
10728,-83.08
10740,-79.08
10751,-70.95
10762,-59.0
10774,-44.05
10786,-27.18
10798,-9.57
10810,7.7
10822,23.75
10834,37.97
10846,50.07
10858,59.96
10870,67.74
10882,73.68
10894,78.11
10906,81.43
10918,83.99
10930,86.11
10941,87.99
10952,89.71
10964,91.21
10976,92.36
10988,93.02
11000,93.08
11012,92.55
11024,91.49
11036,89.97
11048,88.04
11060,85.67
11072,82.82
11084,79.48
11096,75.68
11108,71.51
11120,67.07
11131,62.42
11142,57.61
11154,52.69
11166,47.72
11178,42.79
11190,37.99
11202,33.32
11214,28.73
11226,24.12
11238,19.33
11250,14.26
11262,8.9
11274,3.3
11286,-2.37
11298,-7.99
11310,-13.46
11321,-18.77
11332,-23.96
11344,-29.15
11356,-34.51
11368,-40.19
11380,-46.26
11392,-52.57
11404,-58.7
11416,-63.92
11428,-67.32
11440,-68.06
11452,-65.59
11464,-59.88
11476,-51.48
11488,-41.31
11500,-30.45
11511,-19.83
11522,-10.06
11534,-1.43
11546,6.01
11558,12.28
11570,17.46
11582,21.58
11594,24.78
11606,27.29
11618,29.41
11630,31.42
11642,33.49
11654,35.66
11666,37.83
11678,39.94
11690,41.95
11701,43.86
11712,45.66
11724,47.22
11736,48.34
11748,48.79
11760,48.45
11772,47.34
11784,45.64
11796,43.56
11808,41.27
11820,38.78
11832,36.03
11844,32.94
11856,29.52
11868,25.87
11880,22.18
11891,18.59
11902,15.18
11914,11.89
11926,8.66
11938,5.43
11950,2.19
11962,-1.04
11974,-4.25
11986,-7.49
11998,-10.86
12010,-14.45
12022,-18.27
12034,-22.32
12046,-26.61
12058,-31.14
12070,-35.96
12081,-41.05
12092,-46.13
12104,-50.71
12116,-54.05
12128,-55.38
12140,-54.12
12152,-50.03
12164,-43.29
12176,-34.43
12188,-24.2
12200,-13.43
12212,-2.9
12224,6.71
12236,14.89
12248,21.38
12260,26.15
12271,29.38
12282,31.41
12294,32.6
12306,33.26
12318,33.65
12330,33.97
12342,34.38
12354,34.99
12366,35.79
12378,36.68
12390,37.44
12402,37.9
12414,37.96
12426,37.62
12438,36.97
12450,36.0
12461,34.61
12472,32.61
12484,29.85
12496,26.38
12508,22.48
12520,18.57
12532,14.97
12544,11.83
12556,9.03
12568,6.28
12580,3.27
12592,-0.14
12604,-3.94
12616,-7.95
12628,-11.94
12640,-15.75
12651,-19.29
12662,-22.66
12674,-26.01
12686,-29.59
12698,-33.65
12710,-38.39
12722,-43.84
12734,-49.74
12746,-55.5
12758,-60.16
12770,-62.6
12782,-61.83
12794,-57.25
12806,-48.91
12818,-37.55
12830,-24.38
12841,-10.8
12852,2.0
12864,13.15
12876,22.21
12888,29.08
12900,33.88
12912,36.83
12924,38.27
12936,38.55
12948,38.1
12960,37.27
12972,36.39
12984,35.65
12996,35.14
13008,34.9
13020,34.85
13031,34.94
13042,35.09
13054,35.24
13066,35.36
13078,35.41
13090,35.34
13102,35.02
13114,34.31
13126,33.03
13138,31.12
13150,28.62
13162,25.69
13174,22.6
13186,19.57
13198,16.72
13210,14.02
13221,11.31
13232,8.41
13244,5.18
13256,1.65
13268,-2.05
13280,-5.71
13292,-9.15
13304,-12.31
13316,-15.23
13328,-18.08
13340,-21.03
13352,-24.24
13364,-27.83
13376,-31.82
13388,-36.16
13400,-40.66
13411,-44.98
13422,-48.64
13434,-51.09
13446,-51.83
13458,-50.5
13470,-47.0
13482,-41.46
13494,-34.26
13506,-25.94
13518,-17.15
13530,-8.55
13542,-0.72
13554,5.95
13566,11.25
13578,15.16
13590,17.78
13601,19.27
13612,19.88
13624,19.89
13636,19.64
13648,19.47
13660,19.6
13672,20.15
13684,20.99
13696,21.92
13708,22.69
13720,23.13
13732,23.24
13744,23.13
13756,22.93
13768,22.65
13780,22.17
13791,21.25
13802,19.68
13814,17.39
13826,14.54
13838,11.43
13850,8.41
13862,5.65
13874,3.15
13886,0.74
13898,-1.78
13910,-4.5
13922,-7.34
13934,-10.08
13946,-12.51
13958,-14.55
13970,-16.27
13981,-17.89
13992,-19.7
14004,-21.89
14016,-24.52
14028,-27.53
14040,-30.71
14052,-33.74
14064,-36.21
14076,-37.67
14088,-37.65
14100,-35.82
14112,-32.08
14124,-26.59
14136,-19.81
14148,-12.4
14160,-5.07
14171,1.56
14182,7.04
14194,11.19
14206,14.02
14218,15.76
14230,16.68
14242,17.03
14254,16.94
14266,16.48
14278,15.68
14290,14.71
14302,13.81
14314,13.28
14326,13.35
14338,14.01
14350,15.02
14361,16.02
14372,16.66
14384,16.8
14396,16.49
14408,15.86
14420,15.03
14432,14.0
14444,12.68
14456,10.96
14468,8.87
14480,6.52
14492,4.1
14504,1.78
14516,-0.33
14528,-2.25
14540,-4.04
14551,-5.78
14562,-7.55
14574,-9.39
14586,-11.36
14598,-13.49
14610,-15.8
14622,-18.3
14634,-20.92
14646,-23.51
14658,-25.76
14670,-27.25
14682,-27.52
14694,-26.18
14706,-23.12
14718,-18.53
14730,-12.9
14741,-6.86
14752,-1.02
14764,4.2
14776,8.55
14788,11.96
14800,14.42
14812,15.93
14824,16.53
14836,16.32
14848,15.53
14860,14.44
14872,13.4
14884,12.64
14896,12.28
14908,12.27
14920,12.45
14931,12.66
14942,12.78
14954,12.81
14966,12.78
14978,12.73
14990,12.61
15002,12.28
15014,11.59
15026,10.42
15038,8.78
15050,6.74
15062,4.47
15074,2.13
15086,-0.12
15098,-2.21
15110,-4.07
15121,-5.68
15132,-7.1
15144,-8.45
15156,-9.86
15168,-11.51
15180,-13.5
15192,-15.87
15204,-18.54
15216,-21.32
15228,-23.91
15240,-25.91
15252,-26.86
15264,-26.35
15276,-24.05
15288,-19.96
15300,-14.36
15311,-7.9
15322,-1.37
15334,4.53
15346,9.34
15358,12.97
15370,15.54
15382,17.26
15394,18.24
15406,18.47
15418,17.94
15430,16.76
15442,15.2
15454,13.64
15466,12.45
15478,11.77
15490,11.54
15501,11.56
15512,11.62
15524,11.59
15536,11.39
15548,10.99
15560,10.31
15572,9.21
15584,7.63
15596,5.59
15608,3.21
15620,0.67
15632,-1.84
15644,-4.23
15656,-6.46
15668,-8.58
15680,-10.67
15691,-12.8
15702,-15.0
15714,-17.32
15726,-19.8
15738,-22.46
15750,-25.3
15762,-28.22
15774,-31.01
15786,-33.3
15798,-34.72
15810,-34.98
15822,-33.94
15834,-31.76
15846,-28.72
15858,-25.22
15870,-21.59
15881,-18.09
15892,-14.95
15904,-12.33
15916,-10.43
15928,-9.38
15940,-9.19
15952,-9.73
15964,-10.75
15976,-11.91
15988,-12.96
16000,-13.74
16012,-14.23
16024,-14.53
16036,-14.75
16048,-14.97
16060,-15.2
16071,-15.39
16082,-15.49
16094,-15.51
16106,-15.52
16118,-15.68
16130,-16.17
16142,-17.18
16154,-18.84
16166,-21.21
16178,-24.19
16190,-27.53
16202,-30.86
16214,-33.86
16226,-36.37
16238,-38.53
16250,-40.73
16261,-43.45
16272,-46.93
16284,-51.01
16296,-55.06
16308,-58.18
16320,-59.52
16332,-58.62
16344,-55.52
16356,-50.77
16368,-45.11
16380,-39.27
16392,-33.71
16404,-28.6
16416,-23.9
16428,-19.59
16440,-15.71
16451,-12.39
16462,-9.79
16474,-7.96
16486,-6.82
16498,-6.14
16510,-5.65
16522,-4.99
16534,-3.69
16546,-1.11
16558,3.48
16570,10.67
16582,20.61
16594,32.86
16606,46.42
16618,60.09
16630,72.91
16641,84.49
16652,94.98
16664,104.78
16676,114.22
16688,123.25
16700,131.55
16712,138.66
16724,144.4
16736,148.91
16748,152.65
16760,156.1
16772,159.64
16784,163.42
16796,167.52
16808,172.16
16820,177.76
16831,185.0
16842,194.66
16854,207.45
16866,223.93
16878,244.39
16890,268.83
16902,296.77
16914,326.89
16926,356.83
16938,383.18
16950,402.17
16962,410.61
16974,407.02
16986,392.11
16998,368.59
17010,340.14
17021,310.29
17032,281.43
17044,254.7
17056,230.25
17068,207.91
17080,187.46
17092,168.78
17104,151.57
17116,135.24
17128,118.98
17140,102.08
17152,84.27
17164,65.78
17176,47.15
17188,28.91
17200,11.18
17211,-6.38
17222,-24.44
17234,-43.66
17246,-64.31
17258,-86.15
17270,-108.52
17282,-130.7
17294,-152.31
17306,-173.49
17318,-194.87
17330,-217.28
17342,-241.27
17354,-266.9
17366,-293.76
17378,-321.11
17390,-348.33
17401,-375.2
17412,-402.03
17424,-429.57
17436,-458.98
17448,-491.53
17460,-528.25
17472,-569.29
17484,-613.31
17496,-657.23
17508,-696.67
17520,-727.16
17532,-745.54
17544,-750.98
17556,-745.03
17568,-730.79
17580,-711.42
17591,-689.08
17602,-664.52
17614,-637.41
17626,-607.23
17638,-573.83
17650,-537.64
17662,-499.49
17674,-460.19
17686,-420.36
17698,-380.49
17710,-341.11
17722,-302.89
17734,-266.6
17746,-232.98
17758,-202.44
17770,-174.87
17781,-149.67
17792,-125.93
17804,-102.77
17816,-79.71
17828,-56.85
17840,-34.72
17852,-13.99
17864,4.92
17876,22.12
17888,38.21
17900,54.03
17912,70.28
17924,87.23
17936,104.63
17948,121.83
17960,138.18
17971,153.26
17982,167.13
17994,180.39
18006,194.0
18018,209.03
18030,226.19
18042,245.34
18054,265.17
18066,283.32
18078,296.94
18090,303.62
18102,302.28
18114,293.46
18126,279.11
18138,261.68
18150,243.19
18161,224.7
18172,206.21
18184,187.16
18196,167.07
18208,145.93
18220,124.41
18232,103.8
18244,85.81
18256,72.2
18268,64.49
18280,63.58
18292,69.34
18304,80.67
18316,95.64
18328,111.95
18340,127.47
18351,140.6
18362,150.46
18374,156.74
18386,159.58
18398,159.38
18410,156.69
18422,152.2
18434,146.67
18446,140.83
18458,135.28
18470,130.36
18482,126.08
18494,122.21
18506,118.41
18518,114.45
18530,110.32
18541,106.21
18552,102.36
18564,98.85
18576,95.45
18588,91.66
18600,86.97
18612,81.05
18624,73.96
18636,66.13
18648,58.14
18660,50.54
18672,43.56
18684,37.06
18696,30.55
18708,23.4
18720,15.0
18731,5.03
18742,-6.22
18754,-17.81
18766,-28.06
18778,-34.95
18790,-36.62
18802,-31.97
18814,-21.11
18826,-5.35
18838,13.18
18850,32.15
18862,49.69
18874,64.65
18886,76.67
18898,85.8
18910,92.2
18921,95.99
18932,97.3
18944,96.47
18956,94.17
18968,91.27
18980,88.65
18992,86.83
19004,85.84
19016,85.29
19028,84.6
19040,83.33
19052,81.33
19064,78.78
19076,76.0
19088,73.28
19100,70.65
19111,67.92
19122,64.68
19134,60.51
19146,55.13
19158,48.57
19170,41.15
19182,33.47
19194,26.13
19206,19.55
19218,13.8
19230,8.58
19242,3.4
19254,-2.34
19266,-9.07
19278,-17.0
19290,-25.98
19301,-35.4
19312,-44.18
19324,-50.85
19336,-53.86
19348,-52.03
19360,-44.93
19372,-33.1
19384,-17.89
19396,-1.15
19408,15.38
19420,30.3
19432,42.78
19444,52.46
19456,59.26
19468,63.32
19480,64.93
19491,64.46
19502,62.45
19514,59.5
19526,56.2
19538,53.08
19550,50.53
19562,48.71
19574,47.64
19586,47.14
19598,46.98
19610,46.86
19622,46.5
19634,45.67
19646,44.17
19658,41.89
19670,38.83
19681,35.07
19692,30.79
19704,26.21
19716,21.51
19728,16.79
19740,12.02
19752,7.1
19764,1.94
19776,-3.49
19788,-9.06
19800,-14.61
19812,-19.91
19824,-24.85
19836,-29.44
19848,-33.9
19860,-38.6
19871,-44.04
19882,-50.58
19894,-58.27
19906,-66.52
19918,-74.07
19930,-79.16
19942,-80.0
19954,-75.39
19966,-65.16
19978,-50.34
19990,-32.79
20002,-14.65
20014,2.27
20026,16.84
20038,28.67
20050,37.77
20061,44.35
20072,48.58
20084,50.66
20096,50.95
20108,49.99
20120,48.51
20132,47.2
20144,46.51
20156,46.5
20168,46.91
20180,47.33
20192,47.45
20204,47.23
20216,46.86
20228,46.57
20240,46.42
20251,46.21
20262,45.53
20274,44.0
20286,41.44
20298,38.04
20310,34.19
20322,30.33
20334,26.71
20346,23.3
20358,19.88
20370,16.17
20382,12.09
20394,7.73
20406,3.38
20418,-0.68
20430,-4.33
20441,-7.63
20452,-10.82
20464,-14.18
20476,-17.89
20488,-22.0
20500,-26.36
20512,-30.76
20524,-34.97
20536,-38.85
20548,-42.37
20560,-45.66
20572,-48.98
20584,-52.76
20596,-57.43
20608,-63.32
20620,-70.44
20631,-78.21
20642,-85.46
20654,-90.53
20666,-91.75
20678,-87.93
20690,-78.82
20702,-65.24
20714,-48.87
20726,-31.7
20738,-15.48
20750,-1.32
20762,10.41
20774,19.86
20786,27.36
20798,33.25
20810,37.63
20821,40.61
20832,42.31
20844,43.0
20856,43.09
20868,42.96
20880,42.82
20892,42.69
20904,42.42
20916,41.85
20928,40.96
20940,39.91
20952,38.98
20964,38.37
20976,38.12
20988,37.96
