seconds,BVP
11,-29.2
23,-14.34
35,-1.24
46,9.64
57,18.35
69,25.16
81,30.24
93,33.66
105,35.47
117,35.88
129,35.28
141,34.17
153,32.96
165,31.92
177,31.17
189,30.7
201,30.57
213,30.8
225,31.39
236,32.21
247,33.03
259,33.52
271,33.47
283,32.76
295,31.37
307,29.34
319,26.68
331,23.48
343,19.86
355,16.09
367,12.48
379,9.32
391,6.65
403,4.26
415,1.73
426,-1.39
437,-5.4
449,-10.25
461,-15.59
473,-20.87
485,-25.61
497,-29.54
509,-32.74
521,-35.6
533,-38.67
545,-42.49
557,-47.46
569,-53.65
581,-60.76
593,-68.01
605,-74.2
616,-77.88
627,-77.69
639,-72.83
651,-63.36
663,-50.23
675,-35.03
687,-19.51
699,-5.15
711,7.12
723,16.96
735,24.39
747,29.66
759,33.1
771,35.0
783,35.66
795,35.41
806,34.55
817,33.4
829,32.22
841,31.14
853,30.25
865,29.52
877,28.94
889,28.52
901,28.35
913,28.5
925,29.0
937,29.72
949,30.35
961,30.53
973,29.89
985,28.25
996,25.6
1007,22.17
1019,18.36
1031,14.56
1043,11.1
1055,8.15
1067,5.64
1079,3.27
1091,0.66
1103,-2.52
1115,-6.38
1127,-10.75
1139,-15.25
1151,-19.42
1163,-23.03
1175,-26.14
1186,-29.16
1197,-32.67
1209,-37.24
1221,-43.16
1233,-50.31
1245,-58.1
1257,-65.51
1269,-71.25
1281,-74.0
1293,-72.73
1305,-66.93
1317,-56.86
1329,-43.49
1341,-28.38
1353,-13.23
1365,0.46
1376,11.74
1387,20.27
1399,26.26
1411,30.16
1423,32.43
1435,33.33
1447,33.02
1459,31.66
1471,29.57
1483,27.33
1495,25.63
1507,25.02
1519,25.68
1531,27.39
1543,29.56
1555,31.53
1566,32.74
1577,32.97
1589,32.19
1601,30.61
1613,28.39
1625,25.71
1637,22.68
1649,19.3
1661,15.62
1673,11.68
1685,7.51
1697,3.15
1709,-1.3
1721,-5.78
1733,-10.21
1745,-14.52
1756,-18.62
1767,-22.45
1779,-26.05
1791,-29.61
1803,-33.48
1815,-38.12
1827,-43.78
1839,-50.27
1851,-56.8
1863,-62.05
1875,-64.5
1887,-62.94
1899,-56.92
1911,-46.89
1923,-33.99
1935,-19.74
1946,-5.57
1957,7.4
1969,18.46
1981,27.22
1993,33.49
2005,37.28
2017,38.81
2029,38.48
2041,36.86
2053,34.58
2065,32.21
2077,30.17
2089,28.7
2101,27.87
2113,27.69
2125,28.04
2136,28.82
2147,29.89
2159,31.05
2171,32.05
2183,32.55
2195,32.15
2207,30.54
2219,27.65
2231,23.73
2243,19.31
2255,14.99
2267,11.16
2279,7.8
2291,4.53
2303,0.88
2315,-3.52
2326,-8.67
2337,-14.24
2349,-19.83
2361,-25.1
2373,-30.03
2385,-34.86
2397,-39.96
2409,-45.73
2421,-52.41
2433,-60.03
2445,-68.23
2457,-76.19
2469,-82.64
2481,-86.05
2493,-85.0
2505,-78.67
2516,-67.22
2527,-51.81
2539,-34.29
2551,-16.67
2563,-0.63
2575,12.82
2587,23.35
2599,31.15
2611,36.6
2623,40.12
2635,42.06
2647,42.71
2659,42.41
2671,41.58
2683,40.7
2695,40.18
2706,40.25
2717,40.9
2729,41.9
2741,42.93
2753,43.74
2765,44.25
2777,44.58
2789,44.85
2801,45.03
2813,44.88
2825,43.95
2837,41.85
2849,38.46
2861,34.01
2873,28.98
2885,23.93
2896,19.23
2907,14.93
2919,10.83
2931,6.62
2943,2.03
2955,-3.06
2967,-8.58
2979,-14.31
2991,-19.98
3003,-25.3
3015,-30.11
3027,-34.43
3039,-38.6
3051,-43.13
3063,-48.63
3075,-55.46
3086,-63.51
3097,-72.05
3109,-79.77
3121,-85.0
3133,-86.09
3145,-81.95
3157,-72.37
3169,-58.17
3181,-41.07
3193,-23.14
3205,-6.33
3217,8.09
3229,19.63
3241,28.45
3253,35.0
3265,39.73
3276,42.85
3287,44.44
3299,44.63
3311,43.73
3323,42.26
3335,40.82
3347,39.89
3359,39.65
3371,40.04
3383,40.78
3395,41.6
3407,42.38
3419,43.13
3431,43.98
3443,44.96
3455,45.88
3466,46.29
3477,45.68
3489,43.6
3501,39.96
3513,35.05
3525,29.47
3537,23.88
3549,18.81
3561,14.48
3573,10.76
3585,7.33
3597,3.77
3609,-0.22
3621,-4.72
3633,-9.68
3645,-14.81
3656,-19.79
3667,-24.31
3679,-28.27
3691,-31.78
3703,-35.25
3715,-39.25
3727,-44.37
3739,-50.98
3751,-59.03
3763,-67.91
3775,-76.38
3787,-82.84
3799,-85.55
3811,-83.26
3823,-75.51
3835,-62.86
3846,-46.8
3857,-29.3
3869,-12.28
3881,2.86
3893,15.43
3905,25.31
3917,32.71
3929,37.82
3941,40.71
3953,41.52
3965,40.49
3977,38.24
3989,35.56
4001,33.28
4013,32.0
4025,31.89
4036,32.79
4047,34.28
4059,35.97
4071,37.6
4083,39.07
4095,40.34
4107,41.25
4119,41.53
4131,40.83
4143,38.87
4155,35.64
4167,31.47
4179,26.89
4191,22.43
4203,18.38
4215,14.64
4226,10.84
4237,6.56
4249,1.6
4261,-3.9
4273,-9.47
4285,-14.6
4297,-19.01
4309,-22.73
4321,-26.13
4333,-29.76
4345,-34.12
4357,-39.58
4369,-46.2
4381,-53.7
4393,-61.31
4405,-67.81
4416,-71.73
4427,-71.7
4439,-66.9
4451,-57.39
4463,-44.18
4475,-28.94
4487,-13.52
4499,0.57
4511,12.4
4523,21.68
4535,28.51
4547,33.16
4559,35.86
4571,36.82
4583,36.2
4595,34.34
4606,31.73
4617,29.03
4629,26.91
4641,25.81
4653,25.85
4665,26.84
4677,28.37
4689,30.06
4701,31.65
4713,32.97
4725,33.92
4737,34.28
4749,33.75
4761,32.09
4773,29.2
4785,25.29
4796,20.7
4807,15.81
4819,10.83
4831,5.75
4843,0.44
4855,-5.18
4867,-11.04
4879,-16.83
4891,-22.2
4903,-26.87
4915,-30.78
4927,-34.13
4939,-37.29
4951,-40.8
4963,-45.22
4975,-50.97
4986,-58.2
4997,-66.51
5009,-74.84
5021,-81.52
5033,-84.71
5045,-82.94
5057,-75.69
5069,-63.59
5081,-48.21
5093,-31.55
5105,-15.41
5117,-0.98
5129,11.18
5141,20.98
5153,28.53
5165,33.97
5176,37.5
5187,39.47
5199,40.36
5211,40.75
5223,41.16
5235,41.9
5247,43.04
5259,44.43
5271,45.85
5283,47.05
5295,47.9
5307,48.38
5319,48.52
5331,48.42
5343,48.12
5355,47.51
5366,46.3
5377,44.12
5389,40.66
5401,35.89
5413,30.1
5425,23.87
5437,17.85
5449,12.47
5461,7.81
5473,3.6
5485,-0.62
5497,-5.2
5509,-10.2
5521,-15.43
5533,-20.49
5545,-25.05
5556,-28.96
5567,-32.33
5579,-35.51
5591,-38.98
5603,-43.33
5615,-49.05
5627,-56.33
5639,-64.89
5651,-73.72
5663,-81.23
5675,-85.51
5687,-84.98
5699,-78.83
5711,-67.37
5723,-51.94
5735,-34.45
5746,-16.82
5757,-0.52
5769,13.58
5781,25.16
5793,34.21
5805,40.82
5817,45.07
5829,47.14
5841,47.33
5853,46.14
5865,44.23
5877,42.24
5889,40.64
5901,39.64
5913,39.15
5925,38.95
5936,38.82
5947,38.68
5959,38.56
5971,38.56
5983,38.66
5995,38.69
6007,38.29
6019,37.01
6031,34.49
6043,30.56
6055,25.38
6067,19.37
6079,13.13
6091,7.22
6103,1.95
6115,-2.67
6126,-6.96
6137,-11.38
6149,-16.26
6161,-21.7
6173,-27.46
6185,-33.11
6197,-38.23
6209,-42.58
6221,-46.24
6233,-49.6
6245,-53.19
6257,-57.54
6269,-62.97
6281,-69.49
6293,-76.76
6305,-83.94
6316,-89.79
6327,-92.83
6339,-91.67
6351,-85.42
6363,-74.07
6375,-58.47
6387,-40.08
6399,-20.56
6411,-1.4
6423,16.26
6435,31.58
6447,43.85
6459,52.55
6471,57.42
6483,58.75
6495,57.41
6506,54.79
6517,52.34
6529,51.18
6541,51.85
6553,54.16
6565,57.31
6577,60.0
6589,60.81
6601,58.55
6613,52.72
6625,43.85
6637,33.42
6649,23.49
6661,15.79
6673,11.09
6685,8.83
6696,7.5
6707,5.36
6719,1.33
6731,-4.6
6743,-11.54
6755,-18.32
6767,-24.06
6779,-28.55
6791,-32.1
6803,-35.2
6815,-38.12
6827,-40.75
6839,-42.83
6851,-44.21
6863,-45.13
6875,-46.28
6886,-48.54
6897,-52.68
6909,-58.96
6921,-66.96
6933,-75.6
6945,-83.33
6957,-88.59
6969,-90.07
6981,-87.14
6993,-79.89
7005,-69.1
7017,-55.93
7029,-41.66
7041,-27.34
7053,-13.68
7065,-1.08
7076,10.24
7087,20.02
7099,27.98
7111,33.83
7123,37.46
7135,39.07
7147,39.23
7159,38.69
7171,38.3
7183,38.62
7195,39.86
7207,41.85
7219,44.11
7231,46.1
7243,47.39
7255,47.77
7266,47.2
7277,45.75
7289,43.47
7301,40.42
7313,36.64
7325,32.29
7337,27.6
7349,22.89
7361,18.46
7373,14.44
7385,10.81
7397,7.43
7409,4.2
7421,1.1
7433,-1.76
7445,-4.32
7456,-6.66
7467,-9.1
7479,-12.19
7491,-16.47
7503,-22.14
7515,-28.86
7527,-35.55
7539,-40.67
7551,-42.62
7563,-40.19
7575,-33.09
7587,-21.94
7599,-8.12
7611,6.74
7623,21.18
7635,34.18
7646,45.24
7657,54.21
7669,61.1
7681,65.98
7693,69.02
7705,70.5
7717,70.85
7729,70.63
7741,70.34
7753,70.38
7765,70.9
7777,71.84
7789,73.08
7801,74.54
7813,76.29
7825,78.5
7836,81.32
7847,84.75
7859,88.5
7871,92.13
7883,95.26
7895,97.77
7907,99.94
7919,102.28
7931,105.35
7943,109.47
7955,114.58
7967,120.32
7979,126.29
7991,132.22
8003,138.17
8015,144.57
8026,152.08
8037,161.52
8049,173.77
8061,189.5
8073,208.81
8085,230.72
8097,252.94
8109,272.02
8121,284.18
8133,286.51
8145,277.88
8157,259.26
8169,233.28
8181,203.29
8193,172.35
8205,142.72
8216,115.75
8227,92.03
8239,71.75
8251,54.62
8263,39.97
8275,26.72
8287,13.6
8299,-0.48
8311,-16.08
8323,-33.11
8335,-50.84
8347,-68.21
8359,-84.13
8371,-97.81
8383,-108.99
8395,-117.9
8406,-125.13
8417,-131.28
8429,-136.74
8441,-141.66
8453,-146.01
8465,-149.81
8477,-153.2
8489,-156.37
8501,-159.45
8513,-162.45
8525,-165.15
8537,-167.27
8549,-168.62
8561,-169.02
8573,-168.41
8585,-166.72
8596,-163.93
8607,-160.06
8619,-155.3
8631,-150.04
8643,-144.81
8655,-140.13
8667,-136.4
8679,-133.68
8691,-131.77
8703,-130.24
8715,-128.65
8727,-126.64
8739,-124.1
8751,-121.41
8763,-119.2
8775,-118.23
8786,-119.23
8797,-122.68
8809,-128.54
8821,-135.89
8833,-142.81
8845,-146.83
8857,-145.9
8869,-138.84
8881,-125.79
8893,-108.16
8905,-88.14
8917,-68.19
8929,-50.22
8941,-35.23
8953,-23.47
8965,-15.19
8976,-10.23
8987,-8.13
8999,-8.19
9011,-9.62
9023,-12.03
9035,-15.01
9047,-18.13
9059,-21.03
9071,-24.86
9083,-30.39
9095,-37.53
9107,-45.52
9119,-53.33
9131,-61.2
9143,-69.39
9155,-77.87
9166,-86.54
9177,-97.86
9189,-112.99
9201,-130.85
9213,-148.82
9225,-163.77
9237,-175.56
9249,-184.56
9261,-190.77
9273,-194.02
9285,-198.19
9297,-205.17
9309,-213.77
9321,-221.09
9333,-224.04
9345,-224.72
9356,-225.92
9367,-229.5
9379,-236.41
9391,-251.74
9403,-276.79
9415,-307.31
9427,-335.53
9439,-352.76
9451,-357.52
9463,-350.77
9475,-334.55
9487,-277.85
9499,-174.27
9511,-44.64
9523,77.3
9535,156.94
9546,203.79
9557,229.67
9569,243.07
9581,250.71
9593,255.32
9605,253.08
9617,242.54
9629,226.86
9641,212.04
9653,204.78
9665,204.83
9677,210.32
9689,219.59
9701,231.4
9713,241.2
9725,247.01
9736,250.57
9747,255.55
9759,265.78
9771,279.6
9783,294.14
9795,306.97
9807,316.23
9819,318.39
9831,311.92
9843,298.21
9855,280.61
9867,263.3
9879,247.42
9891,233.28
9903,220.92
9915,209.92
9926,198.29
9937,184.34
9949,167.3
9961,147.18
9973,124.64
9985,99.6
9997,72.71
10009,45.61
10021,20.29
10033,-2.11
10045,-21.15
10057,-37.12
10069,-50.69
10081,-62.41
10093,-72.8
10105,-81.82
10116,-89.06
10127,-94.17
10139,-97.14
10151,-98.31
10163,-98.21
10175,-97.37
10187,-96.2
10199,-94.95
10211,-93.54
10223,-91.44
10235,-87.67
10247,-80.99
10259,-70.51
10271,-56.18
10283,-38.99
10295,-20.66
10306,-3.03
10317,12.65
10329,25.95
10341,37.12
10353,46.47
10365,53.89
10377,58.69
10389,59.86
10401,56.59
10413,48.68
10425,36.59
10437,21.3
10449,3.89
10461,-14.66
10473,-33.55
10485,-52.08
10496,-69.57
10507,-85.37
10519,-99.0
10531,-110.3
10543,-119.55
10555,-127.33
10567,-134.34
10579,-140.89
10591,-146.61
10603,-150.27
10615,-150.03
10627,-144.07
10639,-131.32
10651,-112.07
10663,-88.01
10675,-61.76
10686,-36.08
10697,-13.01
10709,6.42
10721,22.14
10733,34.53
10745,44.04
10757,50.94
10769,55.43
10781,57.89
10793,58.95
10805,59.38
10817,59.88
10829,60.8
10841,62.09
10853,63.45
10865,64.63
10876,65.55
10887,66.37
10899,67.33
10911,68.5
10923,69.63
10935,70.21
10947,69.69
10959,67.78
10971,64.64
10983,60.88
10995,57.25
11007,54.36
11019,52.34
11031,50.87
11043,49.34
11055,47.12
11066,43.83
11077,39.52
11089,34.62
11101,29.8
11113,25.77
11125,23.07
11137,21.8
11149,21.52
11161,21.27
11173,19.8
11185,16.03
11197,9.45
11209,0.61
11221,-9.02
11233,-17.35
11245,-22.35
11256,-22.78
11267,-18.53
11279,-10.74
11291,-1.32
11303,7.68
11315,14.65
11327,18.74
11339,19.87
11351,18.37
11363,14.69
11375,9.16
11387,1.96
11399,-6.7
11411,-16.41
11423,-26.51
11435,-36.22
11446,-44.74
11457,-51.51
11469,-56.21
11481,-58.81
11493,-59.51
11505,-58.7
11517,-56.91
11529,-54.68
11541,-52.43
11553,-50.31
11565,-48.15
11577,-45.63
11589,-42.51
11601,-38.85
11613,-35.07
11625,-31.74
11636,-29.35
11647,-28.03
11659,-27.63
11671,-27.94
11683,-28.95
11695,-30.92
11707,-34.31
11719,-39.46
11731,-46.34
11743,-54.51
11755,-63.26
11767,-71.85
11779,-79.56
11791,-85.73
11803,-89.56
11815,-90.08
11826,-86.3
11837,-77.63
11849,-64.19
11861,-46.97
11873,-27.69
11885,-8.31
11897,9.54
11909,24.87
11921,37.32
11933,46.97
11945,53.99
11957,58.46
11969,60.43
11981,60.06
11993,57.82
12005,54.51
12016,51.1
12027,48.48
12039,47.22
12051,47.41
12063,48.65
12075,50.3
12087,51.61
12099,52.09
12111,51.53
12123,50.0
12135,47.77
12147,44.97
12159,41.63
12171,37.6
12183,32.71
12195,26.95
12206,20.51
12217,13.82
12229,7.29
12241,1.26
12253,-4.15
12265,-9.12
12277,-13.91
12289,-18.91
12301,-24.47
12313,-30.86
12325,-38.19
12337,-46.3
12349,-54.58
12361,-61.92
12373,-66.82
12385,-67.75
12396,-63.62
12407,-54.2
12419,-40.22
12431,-23.19
12443,-4.99
12455,12.66
12467,28.46
12479,41.63
12491,51.81
12503,58.9
12515,62.96
12527,64.28
12539,63.35
12551,60.92
12563,57.8
12575,54.81
12586,52.55
12597,51.35
12609,51.23
12621,51.93
12633,53.04
12645,54.15
12657,54.93
12669,55.16
12681,54.75
12693,53.66
12705,51.87
12717,49.34
12729,46.0
12741,41.79
12753,36.65
12765,30.6
12776,23.8
12787,16.54
12799,9.18
12811,2.08
12823,-4.55
12835,-10.66
12847,-16.42
12859,-22.17
12871,-28.3
12883,-35.12
12895,-42.79
12907,-51.18
12919,-59.69
12931,-67.21
12943,-72.26
12955,-73.32
12966,-69.32
12977,-60.07
12989,-46.38
13001,-29.87
13013,-12.49
13025,4.06
13037,18.64
13049,30.74
13061,40.36
13073,47.66
13085,52.84
13097,56.02
13109,57.35
13121,57.09
13133,55.67
13145,53.61
13156,51.47
13167,49.65
13179,48.39
13191,47.65
13203,47.29
13215,47.09
13227,46.84
13239,46.34
13251,45.42
13263,43.93
13275,41.73
13287,38.79
13299,35.16
13311,31.01
13323,26.52
13335,21.84
13346,17.04
13357,12.09
13369,6.9
13381,1.45
13393,-4.22
13405,-9.97
13417,-15.6
13429,-20.92
13441,-25.83
13453,-30.42
13465,-34.96
13477,-39.92
13489,-45.83
13501,-52.97
13513,-61.21
13525,-69.71
13536,-77.02
13547,-81.37
13559,-81.2
13571,-75.69
13583,-65.1
13595,-50.63
13607,-34.06
13619,-17.17
13631,-1.32
13643,12.7
13655,24.54
13667,34.05
13679,41.15
13691,45.79
13703,48.11
13715,48.49
13726,47.6
13737,46.2
13749,44.93
13761,44.16
13773,43.98
13785,44.23
13797,44.66
13809,45.09
13821,45.44
13833,45.72
13845,45.95
13857,46.03
13869,45.71
13881,44.66
13893,42.53
13905,39.21
13916,34.83
13927,29.75
13939,24.41
13951,19.17
13963,14.16
13975,9.34
13987,4.49
13999,-0.56
14011,-5.92
14023,-11.51
14035,-17.15
14047,-22.55
14059,-27.47
14071,-31.75
14083,-35.49
14095,-38.97
14106,-42.66
14117,-47.07
14129,-52.5
14141,-58.88
14153,-65.55
14165,-71.39
14177,-74.96
14189,-74.92
14201,-70.44
14213,-61.45
14225,-48.71
14237,-33.65
14249,-17.93
14261,-3.13
14273,9.68
14285,19.98
14296,27.74
14307,33.25
14319,36.84
14331,38.81
14343,39.4
14355,38.89
14367,37.66
14379,36.24
14391,35.14
14403,34.72
14415,35.06
14427,35.9
14439,36.81
14451,37.35
14463,37.26
14475,36.47
14486,35.06
14497,33.14
14509,30.77
14521,27.9
14533,24.49
14545,20.51
14557,16.01
14569,11.09
14581,5.94
14593,0.78
14605,-4.25
14617,-9.0
14629,-13.41
14641,-17.46
14653,-21.17
14665,-24.62
14676,-27.95
14687,-31.39
14699,-35.23
14711,-39.7
14723,-44.97
14735,-50.84
14747,-56.65
14759,-61.34
14771,-63.64
14783,-62.46
14795,-57.26
14807,-48.31
14819,-36.58
14831,-23.47
14843,-10.38
14855,1.66
14866,12.06
14877,20.63
14889,27.32
14901,32.09
14913,34.84
14925,35.53
14937,34.35
14949,31.82
14961,28.69
14973,25.78
14985,23.72
14997,22.73
15009,22.67
15021,23.11
15033,23.62
15045,23.88
15056,23.8
15067,23.4
15079,22.69
15091,21.59
15103,19.92
15115,17.51
15127,14.28
15139,10.34
15151,5.92
15163,1.29
15175,-3.36
15187,-7.94
15199,-12.45
15211,-16.9
15223,-21.3
15235,-25.65
15246,-30.05
15257,-34.72
15269,-39.97
15281,-46.02
15293,-52.77
15305,-59.68
15317,-65.75
15329,-69.75
15341,-70.5
15353,-67.27
15365,-59.97
15377,-49.21
15389,-36.1
15401,-22.04
15413,-8.33
15425,4.01
15436,14.36
15447,22.45
15459,28.31
15471,32.08
15483,33.97
15495,34.28
15507,33.43
15519,31.92
15531,30.33
15543,29.08
15555,28.44
15567,28.4
15579,28.8
15591,29.37
15603,29.84
15615,29.99
15626,29.64
15637,28.68
15649,27.06
15661,24.81
15673,22.0
15685,18.79
15697,15.27
15709,11.5
15721,7.43
15733,2.96
15745,-1.97
15757,-7.32
15769,-12.88
15781,-18.36
15793,-23.47
15805,-28.02
15816,-32.04
15827,-35.75
15839,-39.51
15851,-43.71
15863,-48.69
15875,-54.62
15887,-61.32
15899,-68.16
15911,-74.03
15923,-77.51
15935,-77.26
15947,-72.45
15959,-63.08
15971,-50.05
15983,-34.97
15995,-19.58
16006,-5.35
16017,6.84
16029,16.73
16041,24.47
16053,30.32
16065,34.47
16077,37.06
16089,38.18
16101,38.11
16113,37.29
16125,36.27
16137,35.55
16149,35.38
16161,35.69
16173,36.13
16185,36.31
16196,36.01
16207,35.32
16219,34.52
16231,33.92
16243,33.64
16255,33.5
16267,33.11
16279,32.04
16291,30.04
16303,27.12
16315,23.62
16327,19.97
16339,16.55
16351,13.57
16363,10.99
16375,8.56
16386,5.94
16397,2.82
16409,-1.0
16421,-5.51
16433,-10.53
16445,-15.71
16457,-20.69
16469,-25.23
16481,-29.28
16493,-33.14
16505,-37.29
16517,-42.31
16529,-48.54
16541,-55.97
16553,-63.99
16565,-71.48
16576,-76.97
16587,-79.02
16599,-76.61
16611,-69.48
16623,-58.22
16635,-44.15
16647,-28.88
16659,-13.92
16671,-0.32
16683,11.4
16695,21.12
16707,28.85
16719,34.58
16731,38.27
16743,40.02
16755,40.15
16766,39.22
16777,37.91
16789,36.77
16801,36.13
16813,36.01
16825,36.23
16837,36.57
16849,36.87
16861,37.06
16873,37.16
16885,37.17
16897,37.05
16909,36.7
16921,36.0
16933,34.8
16945,32.99
16956,30.51
16967,27.41
16979,23.76
16991,19.79
17003,15.72
17015,11.77
17027,8.08
17039,4.69
17051,1.5
17063,-1.68
17075,-5.05
17087,-8.72
17099,-12.67
17111,-16.71
17123,-20.59
17135,-24.08
17146,-27.08
17157,-29.7
17169,-32.24
17181,-35.07
17193,-38.59
17205,-43.08
17217,-48.58
17229,-54.82
17241,-61.05
17253,-66.16
17265,-68.84
17277,-68.03
17289,-63.17
17301,-54.53
17313,-43.1
17325,-30.3
17336,-17.55
17347,-5.9
17359,4.04
17371,12.07
17383,18.18
17395,22.38
17407,24.71
17419,25.27
17431,24.35
17443,22.41
17455,20.02
17467,17.75
17479,15.92
17491,14.63
17503,13.75
17515,13.05
17526,12.35
17537,11.59
17549,10.82
17561,10.07
17573,9.21
17585,7.95
17597,5.89
17609,2.74
17621,-1.46
17633,-6.39
17645,-11.48
17657,-16.21
17669,-20.31
17681,-23.87
17693,-27.2
17705,-30.64
17716,-34.34
17727,-38.14
17739,-41.68
17751,-44.54
17763,-46.47
17775,-47.42
17787,-47.62
17799,-47.52
17811,-47.64
17823,-48.5
17835,-50.47
17847,-53.65
17859,-57.71
17871,-61.84
17883,-64.89
17895,-65.53
17906,-62.68
17917,-55.79
17929,-45.04
17941,-31.26
17953,-15.68
17965,0.42
17977,16.01
17989,30.4
18001,43.19
18013,54.19
18025,63.22
18037,70.12
18049,74.8
18061,77.31
18073,77.92
18085,77.12
18096,75.49
18107,73.62
18119,71.89
18131,70.42
18143,69.07
18155,67.59
18167,65.82
18179,63.83
18191,61.86
18203,60.22
18215,58.99
18227,57.9
18239,56.39
18251,53.83
18263,49.89
18275,44.7
18286,39.01
18297,33.85
18309,30.15
18321,28.41
18333,28.5
18345,29.76
18357,31.38
18369,32.81
18381,33.98
18393,35.3
18405,37.41
18417,40.91
18429,46.07
18441,52.79
18453,60.57
18465,68.56
18476,75.49
18487,79.87
18499,80.34
18511,76.33
18523,68.49
18535,58.82
18547,50.06
18559,44.78
18571,44.3
18583,48.38
18595,55.58
18607,64.07
18619,72.54
18631,80.57
18643,88.25
18655,95.44
18666,101.25
18677,103.96
18689,101.69
18701,93.36
18713,79.42
18725,61.93
18737,43.8
18749,27.86
18761,15.88
18773,8.28
18785,4.5
18797,3.57
18809,4.56
18821,6.72
18833,9.08
18845,10.31
18856,8.77
18867,3.17
18879,-6.79
18891,-20.19
18903,-35.22
18915,-50.09
18927,-63.69
18939,-75.82
18951,-86.75
18963,-96.76
18975,-105.77
18987,-113.66
18999,-120.72
19011,-127.9
19023,-136.59
19035,-147.82
19046,-161.78
19057,-177.69
19069,-194.18
19081,-209.97
19093,-224.19
19105,-236.33
19117,-245.9
19129,-252.21
19141,-254.59
19153,-252.77
19165,-247.1
19177,-238.34
19189,-227.15
19201,-213.67
19213,-197.5
19225,-178.17
19236,-155.79
19247,-131.32
19259,-106.37
19271,-82.61
19283,-61.14
19295,-42.33
19307,-25.92
19319,-11.39
19331,1.64
19343,13.35
19355,23.78
19367,32.99
19379,41.12
19391,48.38
19403,54.93
19415,60.9
19426,66.32
19437,71.19
19449,75.46
19461,79.04
19473,81.74
19485,83.41
19497,83.9
19509,83.16
19521,81.23
19533,78.23
19545,74.31
19557,69.5
19569,63.84
19581,57.36
19593,50.15
19605,42.46
19616,34.57
19627,26.7
19639,19.0
19651,11.48
19663,4.14
19675,-2.98
19687,-9.83
19699,-16.38
19711,-22.75
19723,-29.22
19735,-36.15
19747,-43.82
19759,-52.11
19771,-60.43
19783,-67.63
19795,-72.37
19806,-73.47
19817,-70.33
19829,-63.1
19841,-52.66
19853,-40.33
19865,-27.48
19877,-15.18
19889,-4.14
19901,5.28
19913,12.91
19925,18.69
19937,22.54
19949,24.54
19961,24.92
19973,24.15
19985,22.82
19996,21.55
20007,20.79
20019,20.71
20031,21.17
20043,21.87
20055,22.44
20067,22.69
20079,22.6
20091,22.3
20103,21.89
20115,21.34
20127,20.4
20139,18.79
20151,16.25
20163,12.76
20175,8.51
20186,3.92
20197,-0.53
20209,-4.49
20221,-7.77
20233,-10.43
20245,-12.78
20257,-15.29
20269,-18.44
20281,-22.59
20293,-27.92
20305,-34.26
20317,-41.09
20329,-47.56
20341,-52.57
20353,-54.99
20365,-53.97
20376,-49.12
20387,-40.73
20399,-29.64
20411,-17.0
20423,-4.05
20435,8.23
20447,19.16
20459,28.35
20471,35.54
20483,40.56
20495,43.36
20507,44.04
20519,43.0
20531,40.83
20543,38.26
20555,35.93
20566,34.23
20577,33.3
20589,33.02
20601,33.13
20613,33.41
20625,33.7
20637,33.97
20649,34.22
20661,34.41
20673,34.34
20685,33.64
20697,31.84
20709,28.55
20721,23.69
20733,17.57
20745,10.91
20756,4.55
20767,-0.9
20779,-5.38
20791,-9.41
20803,-13.93
20815,-19.85
20827,-27.6
20839,-36.73
20851,-45.9
20863,-53.23
20875,-56.76
20887,-55.0
20899,-47.39
20911,-34.53
20923,-18.2
20935,-1.06
20946,13.77
20957,23.51
20969,26.53
20981,22.92
20993,14.57
