seconds,BVP
0,-154.68
12,-148.95
24,-151.95
36,-161.94
48,-173.0
60,-177.55
72,-169.33
84,-145.78
96,-108.37
108,-61.19
120,-8.9
132,44.82
144,97.29
156,145.9
167,187.13
178,216.7
190,230.99
202,229.07
214,214.01
226,192.89
238,174.07
250,164.03
262,165.63
274,178.14
286,198.72
298,224.07
310,251.67
322,279.69
334,306.74
346,330.72
357,348.71
368,358.08
380,357.99
392,350.01
404,337.57
416,324.84
428,315.17
440,311.34
452,313.73
464,320.16
476,326.87
488,330.15
500,327.23
512,316.17
524,296.19
536,267.32
547,233.6
558,198.45
570,162.8
582,125.62
594,86.01
606,44.19
618,1.15
630,-40.31
642,-76.21
654,-94.94
666,-87.76
678,-53.75
690,0.41
702,65.41
714,132.46
726,193.75
737,245.15
748,284.69
760,322.9
772,366.93
784,414.5
796,456.33
808,485.14
820,499.69
832,502.45
844,500.15
856,498.37
868,514.33
880,556.91
892,620.23
904,687.78
916,744.61
927,782.69
938,798.9
950,796.75
962,695.86
974,470.92
986,170.43
998,-119.09
1010,-341.44
1022,-488.03
1034,-568.05
1046,-614.33
1058,-643.8
1070,-664.85
1082,-668.58
1094,-651.18
1106,-618.83
1117,-585.9
1128,-563.5
1140,-555.76
1152,-561.66
1164,-575.15
1176,-592.82
1188,-603.78
1200,-603.2
1212,-595.26
1224,-588.6
1236,-586.79
1248,-586.82
1260,-581.37
1272,-561.24
1284,-523.31
1296,-464.19
1307,-387.09
1318,-301.59
1330,-219.65
1342,-141.76
1354,-74.61
1366,-25.62
1378,4.24
1390,17.97
1402,23.22
1414,26.11
1426,29.48
1438,33.49
1450,38.09
1462,43.63
1474,50.23
1486,59.17
1497,69.71
1508,80.28
1520,88.12
1532,90.23
1544,84.59
1556,71.41
1568,52.23
1580,28.23
1592,4.06
1604,-16.45
1616,-31.49
1628,-41.17
1640,-46.63
1652,-49.35
1664,-50.54
1676,-51.63
1687,-53.16
1698,-54.8
1710,-56.86
1722,-60.17
1734,-65.33
1746,-72.17
1758,-79.51
1770,-85.59
1782,-88.75
1794,-87.39
1806,-80.02
1818,-66.38
1830,-47.27
1842,-24.31
1854,0.52
1866,25.22
1877,48.04
1888,67.66
1900,83.51
1912,95.79
1924,104.8
1936,110.82
1948,114.18
1960,115.51
1972,115.72
1984,115.81
1996,116.42
2008,117.48
2020,118.36
2032,117.97
2044,115.41
2056,110.36
2067,103.25
2078,94.86
2090,85.9
2102,76.68
2114,67.09
2126,56.97
2138,46.29
2150,35.34
2162,24.58
2174,14.34
2186,4.62
2198,-4.83
2210,-14.24
2222,-23.59
2234,-32.48
2246,-40.41
2257,-46.95
2268,-51.93
2280,-55.35
2292,-57.15
2304,-57.0
2316,-54.42
2328,-49.12
2340,-41.33
2352,-32.01
2364,-22.66
2376,-14.7
2388,-9.01
2400,-5.46
2412,-2.96
2424,-0.02
2436,4.67
2447,11.65
2458,20.49
2470,29.98
2482,38.73
2494,45.73
2506,50.72
2518,54.03
2530,56.15
2542,57.32
2554,57.39
2566,56.19
2578,54.06
2590,52.23
2602,52.54
2614,56.53
2626,64.4
2637,74.46
2648,83.53
2660,88.14
2672,85.96
2684,76.45
2696,60.57
2708,39.73
2720,14.93
2732,-13.53
2744,-45.37
2756,-79.59
2768,-114.22
2780,-147.19
2792,-177.5
2804,-205.69
2816,-232.83
2827,-258.61
2838,-279.54
2850,-288.99
2862,-279.4
2874,-246.04
2886,-190.18
2898,-119.88
2910,-47.75
2922,13.5
2934,55.28
2946,75.53
2958,78.15
2970,70.28
2982,58.95
2994,48.83
3006,41.69
3017,37.19
3028,34.28
3040,32.13
3052,30.41
3064,29.04
3076,28.03
3088,27.71
3100,29.38
3112,35.47
3124,48.88
3136,71.6
3148,103.27
3160,140.59
3172,177.93
3184,209.09
3196,229.1
3207,235.42
3218,228.01
3230,208.59
3242,179.87
3254,145.01
3266,107.61
3278,71.56
3290,40.58
3302,17.51
3314,3.44
3326,-2.62
3338,-3.26
3350,-1.8
3362,-1.36
3374,-4.06
3386,-10.93
3397,-21.9
3408,-36.15
3420,-52.44
3432,-69.44
3444,-86.03
3456,-101.53
3468,-115.75
3480,-128.76
3492,-140.43
3504,-150.17
3516,-156.78
3528,-158.8
3540,-155.07
3552,-145.33
3564,-130.55
3576,-112.55
3587,-93.32
3598,-74.28
3610,-55.69
3622,-36.89
3634,-16.84
3646,4.94
3658,27.88
3670,50.32
3682,70.04
3694,85.07
3706,94.43
3718,98.26
3730,97.62
3742,93.95
3754,88.58
3766,82.56
3777,76.69
3788,71.67
3800,68.11
3812,66.43
3824,66.62
3836,68.15
3848,70.01
3860,70.97
3872,69.91
3884,66.11
3896,59.52
3908,50.85
3920,41.51
3932,33.3
3944,27.97
3956,26.64
3967,29.48
3978,35.7
3990,43.8
4002,52.17
4014,59.44
4026,64.65
4038,67.12
4050,66.28
4062,61.63
4074,52.9
4086,40.41
4098,25.3
4110,9.44
4122,-4.97
4134,-15.96
4146,-22.35
4157,-23.9
4168,-21.27
4180,-15.52
4192,-7.82
4204,0.79
4216,9.54
4228,17.76
4240,24.94
4252,30.73
4264,35.07
4276,38.24
4288,40.8
4300,43.34
4312,46.35
4324,49.93
4336,53.79
4347,57.34
4358,59.82
4370,60.48
4382,58.68
4394,54.06
4406,46.51
4418,36.1
4430,23.03
4442,7.51
4454,-10.18
4466,-29.68
4478,-50.48
4490,-71.91
4502,-93.12
4514,-113.12
4526,-130.75
4537,-144.87
4548,-154.51
4560,-159.22
4572,-159.32
4584,-155.99
4596,-150.98
4608,-146.04
4620,-142.31
4632,-140.06
4644,-138.67
4656,-137.09
4668,-134.18
4680,-128.97
4692,-120.58
4704,-108.41
4716,-92.37
4727,-73.33
4738,-53.2
4750,-34.48
4762,-19.4
4774,-8.83
4786,-1.92
4798,3.41
4810,9.2
4822,16.21
4834,23.33
4846,28.06
4858,27.7
4870,20.7
4882,7.3
4894,-10.77
4906,-31.23
4917,-52.41
4928,-73.87
4940,-96.14
4952,-120.04
4964,-145.74
4976,-172.31
4988,-197.98
5000,-220.98
5012,-240.24
5024,-255.8
5036,-268.33
5048,-278.33
5060,-285.51
5072,-288.8
5084,-287.02
5096,-279.81
5107,-268.16
5118,-254.16
5130,-240.13
5142,-227.62
5154,-216.75
5166,-206.34
5178,-194.41
5190,-178.99
5202,-158.8
5214,-133.66
5226,-104.38
5238,-72.48
5250,-39.72
5262,-7.5
5274,23.53
5286,53.6
5297,83.39
5308,113.44
5320,143.48
5332,172.23
5344,197.66
5356,217.75
5368,231.26
5380,238.17
5392,239.7
5404,237.68
5416,233.87
5428,229.42
5440,224.77
5452,219.83
5464,214.46
5476,208.68
5487,202.69
5498,196.63
5510,190.41
5522,183.66
5534,175.95
5546,167.02
5558,156.95
5570,146.19
5582,135.3
5594,124.81
5606,115.05
5618,106.12
5630,97.95
5642,90.44
5654,83.49
5666,77.07
5677,71.14
5688,65.72
5700,60.88
5712,56.8
5724,53.73
5736,52.14
5748,52.44
5760,54.64
5772,58.24
5784,62.21
5796,65.16
5808,65.65
5820,62.76
5832,56.5
5844,48.21
5856,40.21
5867,35.03
5878,34.4
5890,38.47
5902,45.1
5914,50.05
5926,48.11
5938,34.86
5950,8.94
5962,-27.19
5974,-67.46
5986,-103.67
5998,-127.42
6010,-132.28
6022,-115.32
6034,-77.43
6046,-22.84
6057,43.06
6068,113.56
6080,181.16
6092,238.85
6104,282.01
6116,309.45
6128,322.93
6140,325.98
6152,321.83
6164,314.11
6176,304.0
6188,289.78
6200,268.92
6212,241.09
6224,208.92
6236,175.83
6247,144.44
6258,114.63
6270,87.55
6282,62.92
6294,38.29
6306,10.24
6318,-22.73
6330,-59.6
6342,-98.14
6354,-134.31
6366,-163.33
6378,-175.16
6390,-161.2
6402,-119.39
6414,-55.33
6426,21.18
6437,99.43
6448,169.07
6460,223.39
6472,230.94
6484,177.82
6496,80.33
6508,-26.25
6520,-114.89
6532,-176.82
6544,-212.08
6556,-232.4
6568,-244.43
6580,-251.45
6592,-250.57
6604,-239.71
6616,-220.23
6627,-197.29
6638,-175.36
6650,-155.96
6662,-138.82
6674,-121.78
6686,-103.44
6698,-80.01
6710,-49.54
6722,-14.03
6734,21.47
6746,52.49
6758,76.97
6770,94.51
6782,106.69
6794,115.22
6806,123.97
6817,136.14
6828,152.69
6840,172.33
6852,193.37
6864,214.52
6876,234.2
6888,250.89
6900,262.46
6912,267.83
6924,266.45
6936,258.03
6948,242.7
6960,221.61
6972,196.66
6984,169.53
6996,141.47
7007,112.77
7018,83.51
7030,53.71
7042,23.27
7054,-7.88
7066,-39.6
7078,-71.57
7090,-103.5
7102,-135.12
7114,-166.31
7126,-197.06
7138,-227.65
7150,-258.6
7162,-290.47
7174,-323.39
7186,-356.46
7197,-387.45
7208,-413.12
7220,-430.11
7232,-436.16
7244,-430.87
7256,-415.88
7268,-394.1
7280,-368.65
7292,-341.89
7304,-315.0
7316,-288.28
7328,-261.58
7340,-234.78
7352,-208.02
7364,-181.51
7376,-155.5
7387,-130.12
7398,-105.55
7410,-82.1
7422,-60.3
7434,-40.88
7446,-24.7
7458,-12.44
7470,-4.46
7482,-0.59
7494,-0.1
7506,-1.96
7518,-5.14
7530,-8.98
7542,-13.45
7554,-19.02
7566,-26.43
7577,-36.32
7588,-48.88
7600,-63.7
7612,-79.82
7624,-95.77
7636,-109.83
7648,-120.2
7660,-125.25
7672,-123.82
7684,-115.53
7696,-100.92
7708,-81.52
7720,-59.43
7732,-36.89
7744,-15.66
7756,3.28
7767,19.83
7778,34.49
7790,47.94
7802,60.57
7814,72.36
7826,82.91
7838,91.73
7850,98.58
7862,103.53
7874,106.87
7886,108.86
7898,109.66
7910,109.33
7922,107.98
7934,105.97
7946,103.78
7957,101.86
7968,100.34
7980,98.98
7992,97.26
8004,94.73
8016,91.24
8028,87.06
8040,82.77
8052,78.98
8064,76.09
8076,74.21
8088,73.11
8100,72.39
8112,71.53
8124,70.11
8136,67.95
8147,65.33
8158,63.08
8170,62.49
8182,65.0
8194,71.82
8206,83.52
8218,99.67
8230,118.88
8242,138.97
8254,157.47
8266,172.3
8278,182.28
8290,187.46
8302,189.01
8314,188.67
8326,188.14
8337,188.42
8348,189.49
8360,190.41
8372,189.77
8384,186.19
8396,178.83
8408,167.79
8420,154.53
8432,141.73
8444,132.77
8456,130.63
8468,136.44
8480,148.49
8492,162.28
8504,171.89
8516,172.17
8527,160.89
8538,139.64
8550,113.12
8562,87.14
8574,66.34
8586,52.74
8598,45.56
8610,42.21
8622,39.73
8634,35.84
8646,29.3
8658,19.86
8670,7.75
8682,-6.53
8694,-22.4
8706,-39.21
8717,-56.25
8728,-72.95
8740,-89.11
8752,-105.05
8764,-121.62
8776,-139.87
8788,-160.66
8800,-184.17
8812,-209.65
8824,-235.57
8836,-260.03
8848,-281.43
8860,-299.05
8872,-313.43
8884,-326.23
8896,-339.66
8907,-355.41
8918,-373.71
8930,-392.71
8942,-408.78
8954,-417.57
8966,-415.62
8978,-401.66
8990,-377.11
9002,-345.46
9014,-310.85
9026,-276.73
9038,-245.04
9050,-216.36
9062,-190.59
9074,-167.75
9086,-148.27
9097,-132.77
9108,-121.51
9120,-113.91
9132,-108.52
9144,-103.32
9156,-96.24
9168,-85.81
9180,-71.48
9192,-53.7
9204,-33.65
9216,-12.84
9228,7.34
9240,25.91
9252,42.37
9264,56.57
9276,68.57
9287,78.48
9298,86.46
9310,92.7
9322,97.47
9334,101.15
9346,104.08
9358,106.58
9370,108.72
9382,110.4
9394,111.38
9406,111.48
9418,110.82
9430,109.85
9442,109.24
9454,109.49
9466,110.58
9477,111.82
9488,112.14
9500,110.55
9512,106.61
9524,100.51
9536,92.83
9548,83.88
9560,73.38
9572,60.5
9584,44.33
9596,24.69
9608,2.42
9620,-20.6
9632,-42.02
9644,-59.68
9656,-72.26
9667,-79.51
9678,-82.28
9690,-82.28
9702,-81.62
9714,-82.27
9726,-85.32
9738,-90.41
9750,-95.55
9762,-97.41
9774,-92.28
9786,-77.26
9798,-51.32
9810,-15.75
9822,26.03
9834,69.48
9846,110.03
9857,144.11
9868,169.77
9880,186.73
9892,195.99
9904,199.2
9916,198.11
9928,194.07
9940,187.99
9952,180.42
9964,171.69
9976,162.11
9988,151.88
10000,141.07
10012,129.56
10024,117.16
10036,103.76
10047,89.42
10058,74.35
10070,58.85
10082,43.06
10094,26.95
10106,10.35
10118,-6.69
10130,-23.67
10142,-39.52
10154,-52.77
10166,-62.01
10178,-66.34
10190,-65.78
10202,-61.17
10214,-53.88
10226,-45.45
10237,-37.14
10248,-29.78
10260,-23.8
10272,-19.28
10284,-16.15
10296,-14.21
10308,-13.2
10320,-12.86
10332,-12.89
10344,-12.99
10356,-12.98
10368,-12.77
10380,-12.38
10392,-11.94
10404,-11.54
10416,-11.15
10427,-10.54
10438,-9.37
10450,-7.33
10462,-4.26
10474,-0.33
10486,4.09
10498,8.58
10510,12.85
10522,16.8
10534,20.43
10546,23.72
10558,26.47
10570,28.3
10582,28.75
10594,27.43
10606,24.1
10617,18.78
10628,11.8
10640,3.82
10652,-4.11
10664,-10.75
10676,-14.92
10688,-15.93
10700,-13.84
10712,-9.39
10724,-3.77
10736,1.84
10748,6.68
10760,10.48
10772,13.29
10784,15.28
10796,16.44
10807,16.68
10818,15.95
10830,14.45
10842,12.69
10854,11.39
10866,11.14
10878,12.18
10890,14.22
10902,16.54
10914,18.35
10926,19.09
10938,18.69
10950,17.5
10962,16.14
10974,15.09
10986,14.49
10997,14.11
11008,13.53
11020,12.4
11032,10.63
11044,8.39
11056,5.96
11068,3.48
11080,0.89
11092,-2.11
11104,-5.88
11116,-10.62
11128,-16.12
11140,-21.65
11152,-26.11
11164,-28.27
11176,-27.25
11187,-22.82
11198,-15.6
11210,-6.83
11222,2.01
11234,9.72
11246,15.6
11258,19.56
11270,21.89
11282,23.0
11294,23.18
11306,22.64
11318,21.55
11330,20.23
11342,19.09
11354,18.6
11366,19.06
11377,20.56
11388,22.91
11400,25.71
11412,28.55
11424,31.08
11436,33.08
11448,34.43
11460,35.05
11472,34.91
11484,33.94
11496,32.1
11508,29.34
11520,25.7
11532,21.21
11544,15.97
11556,10.08
11567,3.65
11578,-3.24
11590,-10.48
11602,-17.85
11614,-24.99
11626,-31.39
11638,-36.42
11650,-39.43
11662,-39.92
11674,-37.75
11686,-33.19
11698,-26.98
11710,-20.09
11722,-13.52
11734,-8.0
11746,-3.82
11757,-0.89
11768,1.11
11780,2.56
11792,3.79
11804,5.05
11816,6.6
11828,8.76
11840,11.77
11852,15.67
11864,20.13
11876,24.45
11888,27.72
11900,29.14
11912,28.32
11924,25.41
11936,21.01
11947,15.85
11958,10.53
11970,5.31
11982,0.14
11994,-5.22
12006,-10.97
12018,-17.15
12030,-23.68
12042,-30.47
12054,-37.4
12066,-44.39
12078,-51.23
12090,-57.42
12102,-62.19
12114,-64.67
12126,-64.21
12137,-60.7
12148,-54.67
12160,-47.17
12172,-39.39
12184,-32.31
12196,-26.42
12208,-21.69
12220,-17.82
12232,-14.47
12244,-11.48
12256,-8.95
12268,-7.04
12280,-5.85
12292,-5.32
12304,-5.22
12316,-5.33
12327,-5.62
12338,-6.28
12350,-7.64
12362,-9.89
12374,-13.0
12386,-16.54
12398,-19.9
12410,-22.47
12422,-23.91
12434,-24.31
12446,-24.08
12458,-23.84
12470,-24.17
12482,-25.48
12494,-27.91
12506,-31.4
12517,-35.66
12528,-40.15
12540,-44.15
12552,-46.74
12564,-47.05
12576,-44.5
12588,-38.97
12600,-30.9
12612,-21.11
12624,-10.49
12636,0.28
12648,10.88
12660,21.26
12672,31.4
12684,41.15
12696,50.09
12707,57.73
12718,63.72
12730,68.1
12742,71.32
12754,74.15
12766,77.34
12778,81.42
12790,86.57
12802,92.61
12814,99.19
12826,105.94
12838,112.62
12850,119.09
12862,125.29
12874,131.16
12886,136.59
12897,141.42
12908,145.54
12920,148.9
12932,151.49
12944,153.39
12956,154.66
12968,155.43
12980,155.94
12992,156.61
13004,158.0
13016,160.57
13028,164.43
13040,169.03
13052,173.15
13064,175.14
13076,173.38
13087,166.76
13098,155.01
13110,138.71
13122,119.04
13134,97.47
13146,75.34
13158,53.71
13170,33.31
13182,14.55
13194,-2.29
13206,-17.07
13218,-29.81
13230,-40.69
13242,-50.09
13254,-58.44
13266,-66.18
13277,-73.5
13288,-80.46
13300,-87.02
13312,-93.28
13324,-99.61
13336,-106.61
13348,-114.92
13360,-124.83
13372,-136.2
13384,-148.32
13396,-160.33
13408,-171.35
13420,-180.79
13432,-188.27
13444,-193.53
13456,-196.18
13467,-195.82
13478,-192.14
13490,-185.07
13502,-174.95
13514,-162.46
13526,-148.39
13538,-133.46
13550,-118.23
13562,-103.18
13574,-88.88
13586,-76.09
13598,-65.64
13610,-58.3
13622,-54.42
13634,-53.87
13646,-56.12
13657,-60.47
13668,-66.35
13680,-73.43
13692,-81.63
13704,-90.86
13716,-100.91
13728,-111.31
13740,-121.35
13752,-130.38
13764,-137.89
13776,-143.79
13788,-148.24
13800,-151.53
13812,-153.85
13824,-155.13
13836,-155.02
13847,-153.06
13858,-148.77
13870,-141.86
13882,-132.2
13894,-119.77
13906,-104.67
13918,-87.11
13930,-67.59
13942,-46.94
13954,-26.3
13966,-6.85
13978,10.43
13990,25.05
14002,36.96
14014,46.43
14026,53.77
14037,59.29
14048,63.23
14060,65.9
14072,67.7
14084,69.08
14096,70.36
14108,71.67
14120,72.85
14132,73.61
14144,73.63
14156,72.7
14168,70.75
14180,67.84
14192,64.1
14204,59.71
14216,54.85
14227,49.71
14238,44.48
14250,39.3
14262,34.16
14274,28.97
14286,23.59
14298,18.06
14310,12.69
14322,8.21
14334,5.64
14346,6.01
14358,9.94
14370,17.35
14382,27.42
14394,38.72
14406,49.63
14417,58.8
14428,65.44
14440,69.45
14452,71.13
14464,70.89
14476,69.19
14488,66.51
14500,63.27
14512,59.87
14524,56.69
14536,54.05
14548,52.19
14560,51.15
14572,50.71
14584,50.63
14596,50.77
14607,50.95
14618,50.87
14630,50.18
14642,48.61
14654,46.23
14666,43.35
14678,40.32
14690,37.57
14702,35.88
14714,35.48
14726,35.91
14738,36.27
14750,35.88
14762,34.87
14774,34.07
14786,34.49
14797,37.52
14808,45.34
14820,59.08
14832,78.32
14844,101.23
14856,125.31
14868,148.19
14880,167.29
14892,179.35
14904,182.07
14916,175.87
14928,161.96
14940,141.87
14952,117.63
14964,92.06
14976,69.21
14987,52.0
14998,40.14
15010,31.71
15022,25.32
15034,18.7
15046,9.6
15058,-2.82
15070,-16.95
15082,-27.97
15094,-31.02
15106,-23.61
15118,-17.97
15130,-20.25
15142,-28.36
15154,-34.93
15166,-35.8
15177,-32.92
15188,-29.53
15200,-20.54
15212,-8.8
15224,5.47
15236,25.55
15248,53.61
15260,89.14
15272,129.96
15284,163.95
15296,184.8
15308,189.41
15320,177.38
15332,153.38
15344,126.15
15356,103.44
15367,89.28
15378,83.39
15390,83.13
15402,87.59
15414,97.01
15426,111.68
15438,132.51
15450,159.37
15462,188.89
15474,214.97
15486,231.03
15498,232.71
15510,220.29
15522,196.73
15534,165.48
15546,130.04
15557,92.95
15568,55.17
15580,16.44
15592,-23.93
15604,-66.48
15616,-110.39
15628,-154.31
15640,-196.51
15652,-234.32
15664,-264.7
15676,-285.09
15688,-293.93
15700,-290.83
15712,-276.35
15724,-251.42
15736,-217.81
15747,-178.63
15758,-138.24
15770,-102.02
15782,-75.1
15794,-60.71
15806,-58.93
15818,-66.7
15830,-79.05
15842,-91.25
15854,-100.48
15866,-106.37
15878,-110.29
15890,-114.06
15902,-118.99
15914,-125.39
15926,-132.95
15937,-141.37
15948,-150.89
15960,-162.4
15972,-177.22
15984,-196.72
15996,-221.78
16008,-252.17
16020,-285.98
16032,-319.38
16044,-346.99
16056,-363.0
16068,-362.71
16080,-344.06
16092,-308.5
16104,-260.83
16116,-208.0
16127,-157.22
16138,-114.14
16150,-81.65
16162,-59.63
16174,-45.65
16186,-36.32
16198,-28.51
16210,-20.18
16222,-10.5
16234,0.58
16246,12.78
16258,25.82
16270,39.34
16282,52.74
16294,65.14
16306,75.51
16317,83.15
16328,87.96
16340,90.49
16352,91.68
16364,92.56
16376,93.78
16388,95.45
16400,97.06
16412,97.71
16424,96.41
16436,92.45
16448,85.77
16460,76.98
16472,67.01
16484,56.68
16496,46.25
16507,35.39
16518,23.65
16530,11.02
16542,-1.66
16554,-12.96
16566,-21.43
16578,-26.36
16590,-28.07
16602,-27.57
16614,-25.78
16626,-22.84
16638,-18.04
16650,-10.36
16662,0.74
16674,14.79
16686,30.34
16697,45.58
16708,59.1
16720,70.38
16732,79.79
16744,88.09
16756,96.01
16768,103.82
16780,111.39
16792,118.39
16804,124.57
16816,129.9
16828,134.49
16840,138.53
16852,142.12
16864,145.26
16876,147.93
16887,150.15
16898,151.96
16910,153.42
16922,154.44
16934,154.69
16946,153.62
16958,150.56
16970,144.91
16982,136.36
16994,124.92
17006,110.85
17018,94.54
17030,76.4
17042,56.91
17054,36.66
17066,16.51
17077,-2.5
17088,-19.27
17100,-32.93
17112,-43.08
17124,-49.8
17136,-53.59
17148,-55.12
17160,-55.06
17172,-54.06
17184,-52.66
17196,-51.34
17208,-50.52
17220,-50.41
17232,-50.98
17244,-51.98
17256,-53.05
17267,-53.91
17278,-54.42
17290,-54.61
17302,-54.6
17314,-54.48
17326,-54.31
17338,-54.07
17350,-53.74
17362,-53.25
17374,-52.59
17386,-51.75
17398,-50.74
17410,-49.61
17422,-48.46
17434,-47.39
17446,-46.55
17457,-46.13
17468,-46.29
17480,-47.08
17492,-48.26
17504,-49.32
17516,-49.44
17528,-47.82
17540,-44.0
17552,-38.02
17564,-30.53
17576,-22.51
17588,-14.99
17600,-8.66
17612,-3.89
17624,-0.68
17636,1.04
17647,1.34
17658,0.3
17670,-1.94
17682,-5.1
17694,-8.72
17706,-12.31
17718,-15.55
17730,-18.33
17742,-20.83
17754,-23.38
17766,-26.25
17778,-29.55
17790,-33.14
17802,-36.71
17814,-39.94
17826,-42.62
17837,-44.7
17848,-46.35
17860,-47.86
17872,-49.57
17884,-51.74
17896,-54.51
17908,-57.73
17920,-60.91
17932,-63.36
17944,-64.24
17956,-62.89
17968,-59.03
17980,-52.86
17992,-44.98
18004,-36.14
18016,-27.02
18027,-18.08
18038,-9.55
18050,-1.57
18062,5.67
18074,11.94
18086,17.04
18098,20.92
18110,23.78
18122,25.98
18134,27.95
18146,29.99
18158,32.19
18170,34.37
18182,36.24
18194,37.48
18206,37.89
18217,37.5
18228,36.46
18240,35.0
18252,33.31
18264,31.4
18276,29.05
18288,25.95
18300,21.76
18312,16.38
18324,10.0
18336,3.26
18348,-2.89
18360,-7.41
18372,-9.43
18384,-8.52
18396,-4.84
18407,0.93
18418,7.82
18430,14.88
18442,21.4
18454,27.0
18466,31.56
18478,35.05
18490,37.45
18502,38.69
18514,38.78
18526,37.92
18538,36.5
18550,35.03
18562,33.9
18574,33.33
18586,33.19
18597,33.23
18608,33.22
18620,33.11
18632,33.07
18644,33.36
18656,34.23
18668,35.66
18680,37.42
18692,39.09
18704,40.25
18716,40.66
18728,40.29
18740,39.47
18752,38.76
18764,38.96
18776,40.95
18787,45.44
18798,52.8
18810,62.88
18822,75.02
18834,88.25
18846,101.5
18858,113.81
18870,124.31
18882,132.05
18894,135.94
18906,134.71
18918,127.21
18930,112.83
18942,91.74
18954,65.09
18966,34.73
18977,2.82
18988,-28.7
19000,-58.37
19012,-85.38
19024,-109.36
19036,-130.23
19048,-147.95
19060,-162.56
19072,-174.23
19084,-183.39
19096,-190.74
19108,-197.12
19120,-203.3
19132,-209.84
19144,-216.94
19156,-224.46
19167,-231.96
19178,-238.76
19190,-243.95
19202,-246.56
19214,-245.73
19226,-240.98
19238,-232.4
19250,-220.59
19262,-206.43
19274,-190.69
19286,-173.82
19298,-155.84
19310,-136.7
19322,-116.54
19334,-95.92
19346,-75.76
19357,-57.07
19368,-40.5
19380,-26.18
19392,-13.73
19404,-2.53
19416,7.88
19428,17.61
19440,26.42
19452,33.93
19464,40.0
19476,44.74
19488,48.59
19500,52.02
19512,55.28
19524,58.31
19536,60.82
19547,62.47
19558,63.09
19570,62.79
19582,61.85
19594,60.54
19606,59.06
19618,57.43
19630,55.74
19642,54.26
19654,53.53
19666,54.27
19678,57.14
19690,62.43
19702,69.87
19714,78.72
19726,87.9
19737,96.28
19748,102.93
19760,107.23
19772,108.94
19784,108.23
19796,105.62
19808,101.92
19820,97.98
19832,94.5
19844,91.79
19856,89.69
19868,87.63
19880,84.79
19892,80.46
19904,74.28
19916,66.53
19927,58.08
19938,50.22
19950,44.16
19962,40.42
19974,38.44
19986,36.46
19998,32.07
20010,23.08
20022,8.43
20034,-11.32
20046,-34.2
20058,-57.49
20070,-78.74
20082,-96.4
20094,-110.05
20106,-120.03
20117,-126.93
20128,-131.15
20140,-132.64
20152,-130.9
20164,-125.17
20176,-114.67
20188,-98.99
20200,-78.42
20212,-54.19
20224,-28.43
20236,-3.71
20248,17.64
20260,34.12
20272,45.35
20284,51.89
20296,54.81
20307,55.23
20318,54.04
20330,51.95
20342,49.6
20354,47.54
20366,46.22
20378,45.76
20390,45.86
20402,45.95
20414,45.44
20426,43.99
20438,41.57
20450,38.47
20462,35.05
20474,31.54
20486,28.03
20497,24.52
20508,21.16
20520,18.34
20532,16.72
20544,17.03
20556,19.83
20568,25.22
20580,32.86
20592,42.02
20604,51.87
20616,61.68
20628,70.91
20640,79.2
20652,86.3
20664,92.04
20676,96.36
20687,99.41
20698,101.67
20710,103.83
20722,106.61
20734,110.53
20746,115.71
20758,121.86
20770,128.5
20782,135.25
20794,142.02
20806,149.09
20818,156.83
20830,165.43
20842,174.7
20854,184.09
20866,193.02
20877,201.12
20888,208.47
20900,215.53
20912,222.88
20924,231.05
20936,240.33
20948,250.91
20960,262.65
20972,274.86
20984,285.98
20996,293.71
