seconds,BVP
4,-30.17
16,-34.67
27,-39.01
38,-43.75
50,-49.17
62,-55.09
74,-60.96
86,-65.91
98,-68.93
110,-69.15
122,-66.05
134,-59.64
146,-50.53
158,-39.81
170,-28.78
182,-18.63
194,-10.19
206,-3.84
217,0.48
228,3.04
240,4.26
252,4.48
264,4.01
276,3.13
288,2.06
300,1.09
312,0.45
324,0.29
336,0.69
348,1.54
360,2.68
372,3.88
384,4.94
396,5.73
407,6.22
418,6.47
430,6.48
442,6.25
454,5.69
466,4.69
478,3.21
490,1.28
502,-0.98
514,-3.34
526,-5.61
538,-7.68
550,-9.57
562,-11.43
574,-13.39
586,-15.49
597,-17.64
608,-19.72
620,-21.67
632,-23.61
644,-25.8
656,-28.5
668,-31.69
680,-35.03
692,-37.79
704,-39.15
716,-38.42
728,-35.34
740,-30.12
752,-23.32
764,-15.71
776,-7.96
787,-0.65
798,5.85
810,11.33
822,15.61
834,18.61
846,20.29
858,20.76
870,20.31
882,19.31
894,18.2
906,17.29
918,16.72
930,16.45
942,16.29
954,16.09
966,15.73
977,15.23
988,14.67
1000,14.08
1012,13.43
1024,12.58
1036,11.37
1048,9.71
1060,7.57
1072,5.08
1084,2.35
1096,-0.5
1108,-3.41
1120,-6.34
1132,-9.18
1144,-11.8
1156,-14.01
1167,-15.8
1178,-17.28
1190,-18.7
1202,-20.38
1214,-22.57
1226,-25.45
1238,-29.08
1250,-33.33
1262,-37.8
1274,-41.78
1286,-44.31
1298,-44.46
1310,-41.62
1322,-35.79
1334,-27.64
1346,-18.29
1357,-8.94
1368,-0.51
1380,6.48
1392,11.95
1404,16.04
1416,18.98
1428,20.97
1440,22.15
1452,22.66
1464,22.69
1476,22.51
1488,22.46
1500,22.86
1512,23.88
1524,25.49
1536,27.43
1547,29.34
1558,30.95
1570,32.15
1582,32.97
1594,33.53
1606,33.81
1618,33.7
1630,33.03
1642,31.67
1654,29.68
1666,27.23
1678,24.5
1690,21.57
1702,18.4
1714,14.84
1726,10.78
1737,6.21
1748,1.35
1760,-3.47
1772,-7.88
1784,-11.64
1796,-14.85
1808,-17.73
1820,-20.75
1832,-24.32
1844,-28.6
1856,-33.42
1868,-38.09
1880,-41.54
1892,-42.58
1904,-40.18
1916,-33.89
1927,-24.02
1938,-11.56
1950,2.07
1962,15.47
1974,27.63
1986,38.12
1998,47.05
2010,54.81
2022,61.77
2034,68.16
2046,74.02
2058,79.37
2070,84.28
2082,88.93
2094,93.57
2106,98.41
2117,103.56
2128,108.96
2140,114.43
2152,119.66
2164,124.23
2176,127.63
2188,129.43
2200,129.37
2212,127.4
2224,123.63
2236,118.14
2248,110.8
2260,101.12
2272,88.37
2284,71.9
2296,51.5
2307,27.62
2318,1.36
2330,-25.79
2342,-52.43
2354,-77.6
2366,-100.89
2378,-122.3
2390,-141.92
2402,-159.72
2414,-175.4
2426,-188.42
2438,-198.18
2450,-204.21
2462,-206.25
2474,-204.35
2486,-198.78
2497,-190.09
2508,-179.02
2520,-166.5
2532,-153.44
2544,-140.56
2556,-128.18
2568,-116.23
2580,-104.28
2592,-91.79
2604,-78.42
2616,-64.13
2628,-49.31
2640,-34.6
2652,-20.7
2664,-8.12
2676,2.83
2687,12.2
2698,20.19
2710,27.03
2722,32.86
2734,37.75
2746,41.7
2758,44.76
2770,47.13
2782,49.03
2794,50.74
2806,52.44
2818,54.14
2830,55.72
2842,56.96
2854,57.65
2866,57.69
2877,57.17
2888,56.27
2900,55.2
2912,54.05
2924,52.68
2936,50.81
2948,48.13
2960,44.58
2972,40.36
2984,35.91
2996,31.79
3008,28.37
3020,25.7
3032,23.43
3044,21.06
3056,18.12
3067,14.44
3078,10.19
3090,5.8
3102,1.73
3114,-1.72
3126,-4.52
3138,-6.94
3150,-9.38
3162,-12.29
3174,-16.02
3186,-20.74
3198,-26.4
3210,-32.56
3222,-38.4
3234,-42.78
3246,-44.52
3257,-42.72
3268,-37.18
3280,-28.49
3292,-17.9
3304,-6.9
3316,3.22
3328,11.63
3340,18.04
3352,22.57
3364,25.51
3376,27.2
3388,27.94
3400,28.03
3412,27.75
3424,27.36
3436,27.0
3447,26.74
3458,26.51
3470,26.2
3482,25.74
3494,25.1
3506,24.35
3518,23.62
3530,23.08
3542,22.87
3554,23.0
3566,23.35
3578,23.62
3590,23.43
3602,22.52
3614,20.84
3626,18.63
3637,16.31
3648,14.24
3660,12.59
3672,11.21
3684,9.76
3696,7.91
3708,5.5
3720,2.61
3732,-0.55
3744,-3.73
3756,-6.77
3768,-9.61
3780,-12.23
3792,-14.66
3804,-16.96
3816,-19.38
3827,-22.29
3838,-26.03
3850,-30.68
3862,-35.78
3874,-40.37
3886,-43.16
3898,-43.0
3910,-39.29
3922,-32.23
3934,-22.81
3946,-12.4
3958,-2.41
3970,6.16
3982,12.82
3994,17.58
4006,20.74
4017,22.76
4028,24.05
4040,24.93
4052,25.69
4064,26.5
4076,27.55
4088,28.85
4100,30.34
4112,31.83
4124,33.03
4136,33.69
4148,33.66
4160,32.99
4172,31.88
4184,30.66
4196,29.61
4207,28.88
4218,28.46
4230,28.17
4242,27.81
4254,27.25
4266,26.49
4278,25.61
4290,24.78
4302,24.12
4314,23.65
4326,23.29
4338,22.96
4350,22.6
4362,22.23
4374,21.89
4386,21.54
4397,20.98
4408,19.84
4420,17.68
4432,14.18
4444,9.3
4456,3.31
4468,-3.25
4480,-9.79
4492,-15.81
4504,-21.11
4516,-25.68
4528,-29.73
4540,-33.53
4552,-37.38
4564,-41.58
4576,-46.36
4587,-51.75
4598,-57.45
4610,-62.68
4622,-66.29
4634,-67.12
4646,-64.31
4658,-57.78
4670,-48.34
4682,-37.37
4694,-26.48
4706,-16.99
4718,-9.57
4730,-4.26
4742,-0.66
4754,1.81
4766,3.69
4777,5.38
4788,7.09
4800,8.91
4812,10.77
4824,12.5
4836,13.9
4848,14.81
4860,15.2
4872,15.2
4884,15.08
4896,15.1
4908,15.43
4920,16.07
4932,16.93
4944,17.9
4956,18.87
4967,19.74
4978,20.42
4990,20.71
5002,20.44
5014,19.5
5026,17.96
5038,16.07
5050,14.17
5062,12.53
5074,11.19
5086,10.01
5098,8.68
5110,6.96
5122,4.77
5134,2.24
5146,-0.41
5157,-2.97
5168,-5.35
5180,-7.6
5192,-9.77
5204,-11.87
5216,-13.86
5228,-15.67
5240,-17.29
5252,-18.81
5264,-20.45
5276,-22.37
5288,-24.59
5300,-26.94
5312,-29.19
5324,-31.1
5336,-32.61
5347,-33.9
5358,-35.33
5370,-37.36
5382,-40.35
5394,-44.44
5406,-49.33
5418,-54.23
5430,-57.99
5442,-59.38
5454,-57.44
5466,-51.85
5478,-43.11
5490,-32.35
5502,-21.06
5514,-10.57
5526,-1.8
5537,4.92
5548,9.77
5560,13.24
5572,15.94
5584,18.38
5596,20.87
5608,23.47
5620,26.07
5632,28.47
5644,30.42
5656,31.82
5668,32.67
5680,33.17
5692,33.63
5704,34.4
5716,35.7
5727,37.41
5738,39.03
5750,39.67
5762,38.42
5774,34.55
5786,27.88
5798,18.88
5810,8.42
5822,-2.37
5834,-12.44
5846,-20.96
5858,-27.41
5870,-31.57
5882,-33.49
5894,-33.48
5906,-31.97
5917,-29.53
5928,-26.64
5940,-23.65
5952,-20.76
5964,-18.05
5976,-15.49
5988,-13.11
6000,-10.93
6012,-9.07
6024,-7.67
6036,-6.86
6048,-6.75
6060,-7.35
6072,-8.56
6084,-10.2
6096,-12.02
6107,-13.78
6118,-15.3
6130,-16.59
6142,-17.89
6154,-19.65
6166,-22.35
6178,-26.21
6190,-30.97
6202,-35.74
6214,-39.18
6226,-39.94
6238,-37.13
6250,-30.71
6262,-21.52
6274,-11.05
6286,-0.91
6297,7.68
6308,14.24
6320,18.88
6332,22.19
6344,24.69
6356,26.66
6368,28.1
6380,28.82
6392,28.77
6404,28.1
6416,27.18
6428,26.38
6440,25.95
6452,25.89
6464,26.02
6476,26.21
6487,26.39
6498,26.64
6510,27.04
6522,27.56
6534,28.0
6546,28.08
6558,27.51
6570,26.21
6582,24.28
6594,22.02
6606,19.74
6618,17.65
6630,15.76
6642,13.9
6654,11.86
6666,9.45
6677,6.72
6688,3.86
6700,1.1
6712,-1.37
6724,-3.53
6736,-5.52
6748,-7.59
6760,-9.92
6772,-12.55
6784,-15.35
6796,-18.11
6808,-20.67
6820,-23.04
6832,-25.47
6844,-28.35
6856,-32.07
6867,-36.87
6878,-42.62
6890,-48.73
6902,-54.28
6914,-58.15
6926,-59.33
6938,-57.23
6950,-51.82
6962,-43.67
6974,-33.79
6986,-23.31
6998,-13.31
7010,-4.53
7022,2.6
7034,7.97
7046,11.69
7057,14.05
7068,15.42
7080,16.22
7092,16.82
7104,17.48
7116,18.28
7128,19.18
7140,20.03
7152,20.7
7164,21.11
7176,21.3
7188,21.35
7200,21.33
7212,21.28
7224,21.29
7236,21.42
7247,21.7
7258,22.01
7270,22.08
7282,21.55
7294,20.18
7306,17.91
7318,14.97
7330,11.75
7342,8.63
7354,5.84
7366,3.4
7378,1.12
7390,-1.25
7402,-3.89
7414,-6.88
7426,-10.21
7437,-13.78
7448,-17.42
7460,-20.97
7472,-24.25
7484,-27.22
7496,-30.05
7508,-33.13
7520,-36.92
7532,-41.75
7544,-47.52
7556,-53.56
7568,-58.65
7580,-61.34
7592,-60.46
7604,-55.51
7616,-46.92
7627,-35.94
7638,-24.14
7650,-13.03
7662,-3.59
7674,3.83
7686,9.32
7698,13.21
7710,15.9
7722,17.75
7734,19.08
7746,20.19
7758,21.34
7770,22.65
7782,24.11
7794,25.55
7806,26.74
7817,27.46
7828,27.64
7840,27.37
7852,26.85
7864,26.32
7876,25.92
7888,25.72
7900,25.64
7912,25.53
7924,25.19
7936,24.44
7948,23.11
7960,21.14
7972,18.55
7984,15.47
7996,12.13
8007,8.81
8018,5.74
8030,3.06
8042,0.73
8054,-1.38
8066,-3.44
8078,-5.59
8090,-7.86
8102,-10.29
8114,-12.77
8126,-15.18
8138,-17.42
8150,-19.37
8162,-21.04
8174,-22.54
8186,-24.17
8197,-26.35
8208,-29.52
8220,-33.87
8232,-39.17
8244,-44.66
8256,-49.11
8268,-51.18
8280,-49.76
8292,-44.35
8304,-35.27
8316,-23.58
8328,-10.68
8340,2.05
8352,13.59
8364,23.48
8376,31.72
8387,38.59
8398,44.45
8410,49.62
8422,54.38
8434,59.04
8446,63.92
8458,69.31
8470,75.34
8482,81.84
8494,88.33
8506,94.18
8518,98.86
8530,102.24
8542,104.61
8554,106.54
8566,108.56
8577,110.88
8588,113.24
8600,115.04
8612,115.54
8624,114.2
8636,110.8
8648,105.45
8660,98.48
8672,90.33
8684,81.42
8696,72.14
8708,62.84
8720,53.8
8732,45.21
8744,37.05
8756,29.17
8767,21.28
8778,13.11
8790,4.43
8802,-4.78
8814,-14.39
8826,-24.17
8838,-33.94
8850,-43.63
8862,-53.3
8874,-63.03
8886,-72.84
8898,-82.67
8910,-92.3
8922,-101.44
8934,-109.83
8946,-117.22
8957,-123.42
8968,-128.19
8980,-131.19
8992,-131.88
9004,-129.59
9016,-123.72
9028,-113.91
9040,-100.29
9052,-83.64
9064,-65.26
9076,-46.74
9088,-29.55
9100,-14.71
9112,-2.54
9124,7.27
9136,15.38
9147,22.46
9158,28.93
9170,34.9
9182,40.21
9194,44.75
9206,48.55
9218,51.71
9230,54.35
9242,56.43
9254,57.7
9266,57.89
9278,56.83
9290,54.64
9302,51.67
9314,48.32
9326,44.86
9337,41.3
9348,37.45
9360,33.02
9372,27.8
9384,21.74
9396,14.86
9408,7.27
9420,-0.9
9432,-9.47
9444,-18.18
9456,-26.66
9468,-34.5
9480,-41.32
9492,-46.94
9504,-51.47
9516,-55.22
9527,-58.65
9538,-62.16
9550,-65.89
9562,-69.69
9574,-73.18
9586,-75.9
9598,-77.46
9610,-77.67
9622,-76.57
9634,-74.45
9646,-71.77
9658,-69.07
9670,-66.77
9682,-64.95
9694,-63.23
9706,-60.68
9717,-56.05
9728,-48.25
9740,-36.82
9752,-22.25
9764,-5.85
9776,10.5
9788,25.06
9800,36.65
9812,44.95
9824,50.45
9836,54.09
9848,56.87
9860,59.54
9872,62.44
9884,65.57
9896,68.66
9907,71.37
9918,73.35
9930,74.3
9942,74.02
9954,72.44
9966,69.56
9978,65.67
9990,61.16
10002,56.5
10014,52.03
10026,47.74
10038,43.32
10050,38.19
10062,31.85
10074,24.02
10086,14.82
10097,4.72
10108,-5.58
10120,-15.39
10132,-24.17
10144,-31.57
10156,-37.56
10168,-42.38
10180,-46.49
10192,-50.41
10204,-54.52
10216,-58.96
10228,-63.57
10240,-68.02
10252,-72.04
10264,-75.66
10276,-79.28
10287,-83.6
10298,-89.29
10310,-96.7
10322,-105.56
10334,-114.82
10346,-122.89
10358,-127.96
10370,-128.56
10382,-124.02
10394,-114.65
10406,-101.72
10418,-86.98
10430,-72.27
10442,-58.97
10454,-47.82
10466,-38.86
10477,-31.71
10488,-25.76
10500,-20.46
10512,-15.51
10524,-10.71
10536,-6.05
10548,-1.56
10560,2.76
10572,6.85
10584,10.68
10596,14.18
10608,17.31
10620,20.13
10632,22.85
10644,25.7
10656,28.89
10667,32.42
10678,36.12
10690,39.59
10702,42.46
10714,44.39
10726,45.25
10738,45.11
10750,44.14
10762,42.57
10774,40.6
10786,38.37
10798,35.95
10810,33.4
10822,30.68
10834,27.72
10846,24.42
10857,20.58
10868,16.08
10880,10.88
10892,5.1
10904,-0.99
10916,-7.06
10928,-12.79
10940,-18.06
10952,-22.98
10964,-27.86
10976,-33.09
10988,-39.1
11000,-46.16
11012,-54.2
11024,-62.69
11036,-70.64
11047,-76.66
11058,-79.26
11070,-77.33
11082,-70.48
11094,-59.22
11106,-44.83
11118,-28.94
11130,-13.11
11142,1.56
11154,14.58
11166,25.94
11178,35.9
11190,44.79
11202,52.82
11214,60.01
11226,66.2
11237,71.12
11248,74.56
11260,76.45
11272,76.96
11284,76.36
11296,74.97
11308,73.08
11320,70.91
11332,68.62
11344,66.45
11356,64.64
11368,63.34
11380,62.49
11392,61.74
11404,60.56
11416,58.5
11427,55.39
11438,51.43
11450,47.07
11462,42.79
11474,38.9
11486,35.36
11498,31.93
11510,28.28
11522,24.23
11534,19.82
11546,15.27
11558,10.93
11570,7.07
11582,3.84
11594,1.21
11606,-1.02
11617,-3.21
11628,-5.73
11640,-8.96
11652,-13.01
11664,-17.73
11676,-22.71
11688,-27.47
11700,-31.61
11712,-35.0
11724,-37.83
11736,-40.49
11748,-43.46
11760,-47.14
11772,-51.62
11784,-56.6
11796,-61.3
11807,-64.56
11818,-65.12
11830,-62.0
11842,-54.91
11854,-44.38
11866,-31.67
11878,-18.39
11890,-6.05
11902,4.4
11914,12.6
11926,18.76
11938,23.36
11950,26.92
11962,29.83
11974,32.35
11986,34.58
11997,36.64
12008,38.62
12020,40.56
12032,42.37
12044,43.86
12056,44.78
12068,44.9
12080,44.25
12092,43.09
12104,41.81
12116,40.83
12128,40.36
12140,40.4
12152,40.65
12164,40.73
12176,40.24
12187,38.94
12198,36.85
12210,34.19
12222,31.34
12234,28.66
12246,26.35
12258,24.37
12270,22.4
12282,20.08
12294,17.23
12306,13.9
12318,10.49
12330,7.42
12342,4.93
12354,2.92
12366,0.97
12377,-1.45
12388,-4.7
12400,-8.82
12412,-13.52
12424,-18.27
12436,-22.59
12448,-26.23
12460,-29.27
12472,-32.03
12484,-34.97
12496,-38.51
12508,-42.92
12520,-48.21
12532,-54.08
12544,-59.83
12556,-64.41
12567,-66.58
12578,-65.26
12590,-59.92
12602,-50.8
12614,-38.96
12626,-25.99
12638,-13.51
12650,-2.75
12662,5.65
12674,11.73
12686,15.96
12698,18.96
12710,21.37
12722,23.6
12734,25.89
12746,28.27
12757,30.67
12768,32.9
12780,34.74
12792,36.04
12804,36.68
12816,36.71
12828,36.26
12840,35.57
12852,34.93
12864,34.62
12876,34.81
12888,35.52
12900,36.57
12912,37.61
12924,38.22
12936,38.0
12947,36.81
12958,34.76
12970,32.24
12982,29.72
12994,27.61
13006,25.99
13018,24.62
13030,23.09
13042,20.99
13054,18.2
13066,14.93
13078,11.57
13090,8.44
13102,5.64
13114,2.98
13126,0.07
13137,-3.38
13148,-7.46
13160,-11.98
13172,-16.57
13184,-20.93
13196,-24.85
13208,-28.29
13220,-31.3
13232,-33.95
13244,-36.36
13256,-38.79
13268,-41.67
13280,-45.41
13292,-50.11
13304,-55.27
13316,-59.8
13327,-62.19
13338,-61.07
13350,-55.78
13362,-46.64
13374,-34.87
13386,-22.17
13398,-10.2
13410,-0.16
13422,7.42
13434,12.6
13446,15.86
13458,17.87
13470,19.28
13482,20.63
13494,22.18
13506,23.91
13517,25.56
13528,26.82
13540,27.46
13552,27.47
13564,27.05
13576,26.49
13588,26.09
13600,25.99
13612,26.22
13624,26.7
13636,27.28
13648,27.78
13660,27.93
13672,27.53
13684,26.34
13696,24.29
13707,21.48
13718,18.16
13730,14.7
13742,11.45
13754,8.65
13766,6.39
13778,4.63
13790,3.18
13802,1.76
13814,0.08
13826,-2.08
13838,-4.79
13850,-7.96
13862,-11.36
13874,-14.69
13886,-17.72
13897,-20.37
13908,-22.65
13920,-24.72
13932,-26.8
13944,-29.2
13956,-32.24
13968,-36.23
13980,-41.26
13992,-47.04
14004,-52.82
14016,-57.42
14028,-59.5
14040,-58.06
14052,-52.65
14064,-43.68
14076,-32.23
14087,-19.8
14098,-7.88
14110,2.41
14122,10.47
14134,16.23
14146,20.0
14158,22.25
14170,23.48
14182,24.06
14194,24.3
14206,24.41
14218,24.52
14230,24.73
14242,25.01
14254,25.32
14266,25.59
14277,25.76
14288,25.82
14300,25.82
14312,25.8
14324,25.74
14336,25.57
14348,25.18
14360,24.39
14372,23.03
14384,20.99
14396,18.2
14408,14.76
14420,10.85
14432,6.7
14444,2.61
14456,-1.19
14467,-4.6
14478,-7.6
14490,-10.21
14502,-12.45
14514,-14.31
14526,-15.8
14538,-17.02
14550,-18.17
14562,-19.55
14574,-21.49
14586,-24.27
14598,-28.13
14610,-33.1
14622,-38.92
14634,-45.05
14646,-50.56
14657,-54.35
14668,-55.3
14680,-52.68
14692,-46.39
14704,-37.07
14716,-26.0
14728,-14.69
14740,-4.54
14752,3.57
14764,9.35
14776,13.05
14788,15.2
14800,16.39
14812,17.04
14824,17.4
14836,17.62
14847,17.83
14858,18.19
14870,18.8
14882,19.63
14894,20.48
14906,21.12
14918,21.37
14930,21.28
14942,21.09
14954,21.05
14966,21.26
14978,21.59
14990,21.69
15002,21.22
15014,19.97
15026,17.99
15037,15.44
15048,12.61
15060,9.66
15072,6.64
15084,3.47
15096,0.01
15108,-3.82
15120,-8.02
15132,-12.43
15144,-16.79
15156,-20.8
15168,-24.24
15180,-27.05
15192,-29.34
15204,-31.47
15216,-33.92
15227,-37.15
15238,-41.54
15250,-47.07
15262,-53.26
15274,-59.08
15286,-63.2
15298,-64.26
15310,-61.41
15322,-54.6
15334,-44.63
15346,-32.93
15358,-21.07
15370,-10.3
15382,-1.32
15394,5.77
15406,11.26
15417,15.62
15428,19.24
15440,22.43
15452,25.4
15464,28.32
15476,31.29
15488,34.33
15500,37.34
15512,40.13
15524,42.42
15536,43.99
15548,44.78
15560,44.89
15572,44.65
15584,44.44
15596,44.51
15607,44.89
15618,45.29
15630,45.26
15642,44.32
15654,42.19
15666,38.86
15678,34.63
15690,29.89
15702,25.02
15714,20.32
15726,15.9
15738,11.74
15750,7.77
15762,3.93
15774,0.16
15786,-3.45
15797,-6.78
15808,-9.7
15820,-12.12
15832,-14.16
15844,-16.06
15856,-18.23
15868,-20.98
15880,-24.51
15892,-28.77
15904,-33.46
15916,-38.19
15928,-42.52
15940,-46.18
15952,-49.14
15964,-51.71
15976,-54.4
15987,-57.84
15998,-62.46
16010,-68.21
16022,-74.38
16034,-79.63
16046,-82.34
16058,-81.15
16070,-75.43
16082,-65.51
16094,-52.66
16106,-38.6
16118,-25.06
16130,-13.25
16142,-3.75
16154,3.5
16166,8.95
16177,13.24
16188,16.98
16200,20.67
16212,24.58
16224,28.78
16236,33.06
16248,37.07
16260,40.46
16272,43.0
16284,44.66
16296,45.55
16308,45.84
16320,45.73
16332,45.34
16344,44.83
16356,44.34
16367,44.0
16378,43.85
16390,43.82
16402,43.7
16414,43.23
16426,42.23
16438,40.61
16450,38.44
16462,35.82
16474,32.9
16486,29.78
16498,26.6
16510,23.52
16522,20.65
16534,18.06
16546,15.65
16557,13.25
16568,10.67
16580,7.8
16592,4.77
16604,1.81
16616,-0.81
16628,-2.97
16640,-4.8
16652,-6.59
16664,-8.69
16676,-11.38
16688,-14.72
16700,-18.6
16712,-22.79
16724,-26.98
16736,-30.93
16747,-34.48
16758,-37.61
16770,-40.57
16782,-43.79
16794,-47.76
16806,-52.79
16818,-58.69
16830,-64.65
16842,-69.31
16854,-71.12
16866,-68.91
16878,-62.3
16890,-51.85
16902,-38.95
16914,-25.36
16926,-12.69
16937,-2.07
16948,6.05
16960,11.84
16972,15.81
16984,18.56
16996,20.64
17008,22.43
17020,24.17
17032,26.01
17044,27.99
17056,30.05
17068,32.02
17080,33.64
17092,34.72
17104,35.15
17116,35.04
17127,34.64
17138,34.27
17150,34.16
17162,34.37
17174,34.76
17186,35.01
17198,34.79
17210,33.88
17222,32.28
17234,30.17
17246,27.86
17258,25.57
17270,23.43
17282,21.4
17294,19.32
17306,17.03
17317,14.52
17328,11.82
17340,9.1
17352,6.44
17364,3.85
17376,1.27
17388,-1.43
17400,-4.37
17412,-7.59
17424,-11.06
17436,-14.63
17448,-18.13
17460,-21.37
17472,-24.22
17484,-26.73
17496,-29.14
17507,-31.87
17518,-35.39
17530,-40.05
17542,-45.78
17554,-51.96
17566,-57.43
17578,-60.74
17590,-60.59
17602,-56.31
17614,-48.1
17626,-37.05
17638,-24.78
17650,-12.99
17662,-2.96
17674,4.69
17686,10.0
17697,13.5
17708,15.86
17720,17.7
17732,19.41
17744,21.11
17756,22.69
17768,23.95
17780,24.76
17792,25.14
17804,25.22
17816,25.19
17828,25.19
17840,25.26
17852,25.41
17864,25.59
17876,25.82
17887,26.06
17898,26.26
17910,26.27
17922,25.89
17934,24.97
17946,23.44
17958,21.32
17970,18.72
17982,15.76
17994,12.57
18006,9.31
18018,6.19
18030,3.38
18042,1.04
18054,-0.9
18066,-2.68
18077,-4.61
18088,-7.02
18100,-10.05
18112,-13.61
18124,-17.45
18136,-21.24
18148,-24.7
18160,-27.74
18172,-30.51
18184,-33.33
18196,-36.63
18208,-40.76
18220,-45.85
18232,-51.7
18244,-57.66
18256,-62.75
18267,-65.8
18278,-65.76
18290,-62.02
18302,-54.62
18314,-44.23
18326,-32.07
18338,-19.55
18350,-7.99
18362,1.66
18374,8.96
18386,13.97
18398,17.18
18410,19.32
18422,21.11
18434,23.09
18446,25.53
18457,28.34
18468,31.23
18480,33.79
18492,35.73
18504,36.89
18516,37.35
18528,37.31
18540,37.05
18552,36.82
18564,36.75
18576,36.88
18588,37.11
18600,37.26
18612,37.1
18624,36.41
18636,35.06
18647,33.04
18658,30.46
18670,27.55
18682,24.61
18694,21.92
18706,19.64
18718,17.72
18730,15.93
18742,13.92
18754,11.42
18766,8.36
18778,4.91
18790,1.42
18802,-1.78
18814,-4.51
18826,-6.88
18837,-9.2
18848,-11.82
18860,-14.98
18872,-18.64
18884,-22.51
18896,-26.25
18908,-29.58
18920,-32.56
18932,-35.57
18944,-39.15
18956,-43.76
18968,-49.37
18980,-55.37
18992,-60.5
19004,-63.34
19016,-62.65
19027,-57.91
19038,-49.45
19050,-38.3
19062,-25.83
19074,-13.36
19086,-1.92
19098,7.85
19110,15.59
19122,21.16
19134,24.64
19146,26.31
19158,26.69
19170,26.45
19182,26.29
19194,26.71
19206,27.89
19217,29.64
19228,31.47
19240,32.8
19252,33.2
19264,32.58
19276,31.25
19288,29.78
19300,28.72
19312,28.4
19324,28.79
19336,29.5
19348,30.04
19360,30.02
19372,29.29
19384,27.96
19396,26.24
19407,24.29
19418,22.16
19430,19.86
19442,17.32
19454,14.58
19466,11.73
19478,8.92
19490,6.28
19502,3.9
19514,1.77
19526,-0.23
19538,-2.31
19550,-4.71
19562,-7.63
19574,-11.11
19586,-14.99
19597,-18.97
19608,-22.71
19620,-25.93
19632,-28.56
19644,-30.7
19656,-32.58
19668,-34.52
19680,-36.91
19692,-40.1
19704,-44.22
19716,-49.0
19728,-53.62
19740,-56.82
19752,-57.24
19764,-53.91
19776,-46.62
19787,-36.06
19798,-23.62
19810,-10.96
19822,0.5
19834,9.82
19846,16.72
19858,21.35
19870,24.21
19882,25.85
19894,26.79
19906,27.4
19918,27.89
19930,28.39
19942,28.94
19954,29.55
19966,30.17
19977,30.64
19988,30.7
20000,30.19
20012,29.04
20024,27.42
20036,25.68
20048,24.19
20060,23.16
20072,22.52
20084,21.99
20096,21.17
20108,19.73
20120,17.54
20132,14.68
20144,11.47
20156,8.28
20167,5.38
20178,2.89
20190,0.69
20202,-1.55
20214,-4.18
20226,-7.44
20238,-11.34
20250,-15.66
20262,-20.01
20274,-23.95
20286,-27.19
20298,-29.71
20310,-31.75
20322,-33.79
20334,-36.4
20346,-39.99
20357,-44.65
20368,-49.94
20380,-54.91
20392,-58.31
20404,-58.93
20416,-55.97
20428,-49.37
20440,-39.8
20452,-28.46
20464,-16.75
20476,-5.91
20488,3.18
20500,10.12
20512,14.91
20524,17.84
20536,19.36
20547,19.98
20558,20.09
20570,19.99
20582,19.85
20594,19.7
20606,19.53
20618,19.35
20630,19.21
20642,19.15
20654,19.25
20666,19.49
20678,19.89
20690,20.38
20702,20.9
20714,21.27
20726,21.18
20737,20.29
20748,18.34
20760,15.37
20772,11.71
20784,7.91
20796,4.5
20808,1.73
20820,-0.48
20832,-2.54
20844,-4.95
20856,-8.05
20868,-11.91
20880,-16.31
20892,-20.8
20904,-25.02
20916,-28.74
20927,-32.01
20938,-35.17
20950,-38.68
20962,-42.94
20974,-48.12
20986,-53.98
20998,-59.79
