seconds,BVP
6,-44.76
18,-45.78
30,-42.83
42,-36.23
54,-27.33
66,-18.06
78,-10.11
90,-4.27
101,-0.29
112,2.77
124,5.93
136,9.64
148,13.7
160,17.38
172,19.96
184,21.08
196,20.89
208,19.93
220,18.8
232,17.91
244,17.35
256,16.94
268,16.49
280,15.93
291,15.37
302,14.98
314,14.86
326,14.83
338,14.51
350,13.5
362,11.65
374,9.2
386,6.72
398,4.79
410,3.7
422,3.22
434,2.74
446,1.56
458,-0.79
470,-4.3
481,-8.56
492,-12.97
504,-16.92
516,-19.98
528,-21.83
540,-22.26
552,-21.14
564,-18.44
576,-14.36
588,-9.36
600,-4.08
612,0.84
624,4.94
636,8.1
648,10.52
660,12.59
671,14.62
682,16.77
694,18.86
706,20.51
718,21.32
730,21.13
742,20.09
754,18.57
766,16.96
778,15.49
790,14.17
802,12.85
814,11.3
826,9.41
838,7.19
850,4.81
861,2.44
872,0.19
884,-1.96
896,-4.06
908,-6.18
920,-8.44
932,-10.87
944,-13.34
956,-15.68
968,-17.76
980,-19.6
992,-21.4
1004,-23.2
1016,-25.06
1028,-27.02
1040,-28.96
1051,-30.6
1062,-31.65
1074,-31.94
1086,-31.5
1098,-30.46
1110,-28.39
1122,-24.94
1134,-19.91
1146,-13.36
1158,-5.46
1170,3.46
1182,12.86
1194,22.07
1206,30.54
1218,38.65
1230,46.64
1241,54.36
1252,61.51
1264,68.14
1276,74.75
1288,81.98
1300,90.13
1312,98.75
1324,107.58
1336,115.46
1348,120.74
1360,122.03
1372,118.92
1384,111.83
1396,101.46
1408,88.38
1420,67.19
1431,37.6
1442,4.28
1454,-26.16
1466,-49.49
1478,-65.0
1490,-73.77
1502,-77.5
1514,-77.43
1526,-74.44
1538,-68.93
1550,-62.52
1562,-57.74
1574,-56.99
1586,-61.07
1598,-68.71
1610,-76.93
1621,-82.39
1632,-83.26
1644,-79.45
1656,-72.57
1668,-64.36
1680,-55.5
1692,-45.44
1704,-33.34
1716,-19.39
1728,-4.21
1740,10.45
1752,22.87
1764,31.62
1776,36.15
1788,36.89
1800,35.21
1811,32.79
1822,31.17
1834,30.16
1846,29.59
1858,29.04
1870,27.72
1882,24.88
1894,20.04
1906,13.12
1918,4.54
1930,-4.85
1942,-13.75
1954,-19.67
1966,-20.53
1978,-16.45
1990,-9.65
2001,-3.13
2012,0.65
2024,0.62
2036,-2.84
2048,-8.34
2060,-14.22
2072,-19.47
2084,-24.14
2096,-28.62
2108,-33.02
2120,-36.89
2132,-39.22
2144,-39.04
2156,-35.91
2168,-30.72
2180,-24.19
2191,-17.33
2202,-10.63
2214,-3.96
2226,3.07
2238,10.37
2250,17.09
2262,21.96
2274,23.65
2286,22.35
2298,19.32
2310,16.04
2322,13.13
2334,9.99
2346,5.47
2358,-1.01
2370,-8.66
2381,-15.58
2392,-19.78
2404,-20.68
2416,-19.27
2428,-17.43
2440,-16.59
2452,-16.9
2464,-17.18
2476,-15.8
2488,-11.74
2500,-5.19
2512,2.4
2524,9.25
2536,14.11
2548,16.87
2560,18.26
2571,19.21
2582,20.3
2594,21.4
2606,22.1
2618,22.05
2630,21.68
2642,21.64
2654,22.9
2666,25.99
2678,30.64
2690,35.76
2702,40.1
2714,42.81
2726,43.75
2738,43.36
2750,42.26
2761,40.88
2772,39.26
2784,37.14
2796,34.16
2808,30.11
2820,25.04
2832,19.28
2844,13.42
2856,8.31
2868,5.06
2880,4.67
2892,7.7
2904,13.76
2916,21.71
2928,30.04
2940,37.52
2951,43.6
2962,48.51
2974,52.92
2986,57.56
2998,62.79
3010,68.32
3022,73.54
3034,77.72
3046,80.3
3058,81.04
3070,79.96
3082,77.25
3094,72.99
3106,68.6
3118,65.33
3130,64.24
3141,66.0
3152,70.71
3164,77.91
3176,86.71
3188,96.04
3200,104.85
3212,112.28
3224,117.51
3236,119.94
3248,119.32
3260,115.75
3272,109.64
3284,101.51
3296,91.73
3308,80.3
3320,66.85
3331,50.66
3342,31.11
3354,8.16
3366,-17.56
3378,-44.9
3390,-72.64
3402,-99.95
3414,-126.51
3426,-152.36
3438,-177.7
3450,-202.69
3462,-227.15
3474,-250.57
3486,-272.22
3498,-291.39
3510,-307.59
3521,-320.61
3532,-330.54
3544,-337.69
3556,-342.73
3568,-345.78
3580,-346.01
3592,-341.69
3604,-330.91
3616,-312.42
3628,-286.29
3640,-253.91
3652,-217.71
3664,-181.03
3676,-146.24
3688,-114.05
3700,-83.69
3711,-54.16
3722,-25.12
3734,2.8
3746,28.33
3758,50.14
3770,66.21
3782,75.71
3794,79.48
3806,79.49
3818,77.64
3830,75.24
3842,73.2
3854,72.28
3866,72.8
3878,72.78
3890,69.97
3901,63.14
3912,52.81
3924,40.51
3936,28.33
3948,17.98
3960,10.49
3972,14.97
3984,33.94
3996,61.83
4008,88.76
4020,107.82
4032,117.06
4044,117.59
4056,111.03
4068,99.4
4080,85.06
4091,68.64
4102,50.52
4114,29.83
4126,7.89
4138,-13.93
4150,-34.22
4162,-52.04
4174,-66.6
4186,-78.27
4198,-90.38
4210,-106.59
4222,-128.37
4234,-153.43
4246,-177.63
4258,-193.55
4270,-198.11
4281,-192.73
4292,-182.15
4304,-172.46
4316,-166.71
4328,-162.75
4340,-154.19
4352,-134.75
4364,-101.73
4376,-57.84
4388,-8.87
4400,39.96
4412,83.67
4424,118.33
4436,141.1
4448,150.58
4460,147.14
4471,133.18
4482,112.07
4494,87.46
4506,64.3
4518,45.19
4530,30.6
4542,20.05
4554,13.68
4566,12.33
4578,16.68
4590,26.37
4602,40.72
4614,63.12
4626,96.02
4638,139.36
4650,190.08
4661,243.8
4672,296.83
4684,347.38
4696,395.27
4708,440.67
4720,487.12
4732,533.27
4744,572.43
4756,595.59
4768,596.91
4780,577.26
4792,543.19
4804,503.3
4816,434.65
4828,330.14
4840,199.81
4851,66.03
4862,-50.92
4874,-140.77
4886,-201.9
4898,-238.0
4910,-255.87
4922,-263.45
4934,-262.55
4946,-255.24
4958,-243.87
4970,-231.43
4982,-220.26
4994,-211.52
5006,-205.83
5018,-203.94
5030,-206.65
5041,-210.62
5052,-213.04
5064,-212.56
5076,-209.33
5088,-203.77
5100,-196.1
5112,-186.77
5124,-176.83
5136,-167.54
5148,-157.39
5160,-145.02
5172,-129.96
5184,-112.99
5196,-95.57
5208,-79.23
5220,-65.34
5231,-54.74
5242,-47.41
5254,-41.25
5266,-34.22
5278,-25.25
5290,-14.58
5302,-3.21
5314,7.89
5326,18.18
5338,27.58
5350,36.19
5362,44.25
5374,51.31
5386,56.23
5398,57.81
5410,55.59
5421,50.4
5432,44.17
5444,39.11
5456,36.84
5468,37.75
5480,41.05
5492,45.3
5504,49.19
5516,52.06
5528,53.95
5540,55.15
5552,55.68
5564,55.07
5576,52.63
5588,48.0
5600,41.46
5611,33.86
5622,26.11
5634,18.67
5646,11.22
5658,2.88
5670,-7.16
5682,-19.03
5694,-31.79
5706,-43.6
5718,-52.36
5730,-56.52
5742,-55.66
5754,-50.62
5766,-43.08
5778,-34.79
5790,-26.95
5801,-19.92
5812,-13.44
5824,-7.04
5836,-0.45
5848,6.35
5860,13.4
5872,20.9
5884,29.08
5896,37.81
5908,46.25
5920,53.02
5932,56.69
5944,56.52
5956,52.9
5968,47.21
5980,41.18
5991,36.11
6002,32.39
6014,29.56
6026,26.87
6038,23.81
6050,20.29
6062,16.59
6074,13.17
6086,10.45
6098,8.77
6110,8.36
6122,9.37
6134,11.78
6146,15.36
6158,19.58
6170,23.55
6181,26.46
6192,27.73
6204,27.07
6216,24.44
6228,19.92
6240,13.87
6252,6.96
6264,-0.03
6276,-6.55
6288,-12.04
6300,-16.06
6312,-18.45
6324,-19.51
6336,-19.89
6348,-20.48
6360,-22.23
6371,-26.01
6382,-32.76
6394,-42.38
6406,-53.51
6418,-64.03
6430,-72.11
6442,-76.91
6454,-78.87
6466,-79.26
6478,-79.55
6490,-81.33
6502,-84.8
6514,-88.8
6526,-91.58
6538,-91.81
6550,-88.98
6561,-83.13
6572,-74.43
6584,-59.52
6596,-38.23
6608,-13.72
6620,9.32
6632,27.89
6644,41.24
6656,49.88
6668,54.47
6680,55.41
6692,54.14
6704,50.06
6716,43.29
6728,34.95
6740,26.77
6751,20.13
6762,15.65
6774,13.17
6786,12.01
6798,11.02
6810,8.8
6822,4.89
6834,-0.22
6846,-5.41
6858,-9.59
6870,-12.18
6882,-13.05
6894,-12.5
6906,-10.89
6918,-8.96
6930,-6.98
6941,-4.85
6952,-2.37
6964,0.48
6976,3.49
6988,6.35
7000,8.9
7012,11.08
7024,12.71
7036,13.78
7048,14.43
7060,14.78
7072,14.88
7084,14.74
7096,14.31
7108,13.63
7120,12.74
7131,11.62
7142,10.37
7154,9.09
7166,7.89
7178,6.84
7190,5.94
7202,5.21
7214,4.66
7226,4.31
7238,4.15
7250,4.0
7262,3.62
7274,2.77
7286,1.37
7298,-0.39
7310,-2.0
7321,-2.83
7332,-2.34
7344,-0.32
7356,3.06
7368,7.33
7380,11.93
7392,16.4
7404,20.45
7416,23.9
7428,26.57
7440,28.21
7452,28.52
7464,27.36
7476,24.85
7488,21.47
7500,17.87
7511,14.63
7522,12.08
7534,10.23
7546,8.81
7558,7.55
7570,6.28
7582,5.03
7594,3.96
7606,3.17
7618,2.64
7630,2.2
7642,1.6
7654,0.65
7666,-0.73
7678,-2.52
7690,-4.73
7701,-7.42
7712,-10.65
7724,-14.46
7736,-18.66
7748,-22.93
7760,-26.82
7772,-29.96
7784,-32.21
7796,-33.64
7808,-34.41
7820,-34.66
7832,-34.38
7844,-33.41
7856,-31.62
7868,-29.01
7880,-25.79
7891,-22.35
7902,-19.09
7914,-16.35
7926,-14.27
7938,-12.84
7950,-11.89
7962,-11.15
7974,-10.27
7986,-8.84
7998,-6.55
8010,-3.18
8022,1.25
8034,6.53
8046,12.25
8058,17.95
8070,23.21
8081,27.73
8092,31.4
8104,34.3
8116,36.58
8128,38.43
8140,39.96
8152,41.2
8164,42.08
8176,42.5
8188,42.35
8200,41.54
8212,40.06
8224,37.97
8236,35.47
8248,32.85
8260,30.47
8271,28.61
8282,27.41
8294,26.68
8306,26.02
8318,24.9
8330,22.88
8342,19.78
8354,15.75
8366,11.16
8378,6.43
8390,1.83
8402,-2.67
8414,-7.32
8426,-12.44
8438,-18.26
8450,-24.79
8461,-31.83
8472,-39.08
8484,-46.23
8496,-53.01
8508,-59.26
8520,-64.85
8532,-69.67
8544,-73.7
8556,-76.94
8568,-79.45
8580,-81.29
8592,-82.46
8604,-82.9
8616,-82.51
8628,-81.19
8640,-78.83
8651,-75.27
8662,-70.32
8674,-63.84
8686,-55.78
8698,-46.35
8710,-36.0
8722,-25.34
8734,-15.02
8746,-5.53
8758,2.8
8770,9.89
8782,15.78
8794,20.62
8806,24.58
8818,27.83
8830,30.59
8841,33.11
8852,35.63
8864,38.34
8876,41.33
8888,44.57
8900,47.86
8912,50.99
8924,53.71
8936,55.87
8948,57.41
8960,58.34
8972,58.72
8984,58.61
8996,58.07
9008,57.15
9020,55.9
9031,54.37
9042,52.64
9054,50.75
9066,48.76
9078,46.65
9090,44.4
9102,41.87
9114,38.9
9126,35.35
9138,31.16
9150,26.43
9162,21.4
9174,16.37
9186,11.6
9198,7.2
9210,3.08
9221,-0.96
9232,-5.16
9244,-9.72
9256,-14.66
9268,-19.86
9280,-25.05
9292,-29.97
9304,-34.4
9316,-38.21
9328,-41.39
9340,-44.05
9352,-46.38
9364,-48.7
9376,-51.36
9388,-54.63
9400,-58.52
9411,-62.69
9422,-66.4
9434,-68.69
9446,-68.75
9458,-66.18
9470,-61.2
9482,-54.55
9494,-47.18
9506,-39.9
9518,-33.18
9530,-27.11
9542,-21.6
9554,-16.5
9566,-11.71
9578,-7.2
9590,-2.88
9601,1.33
9612,5.54
9624,9.75
9636,13.86
9648,17.72
9660,21.19
9672,24.14
9684,26.55
9696,28.37
9708,29.56
9720,30.19
9732,30.41
9744,30.5
9756,30.75
9768,31.35
9780,32.32
9791,33.47
9802,34.56
9814,35.35
9826,35.78
9838,35.85
9850,35.69
9862,35.4
9874,35.06
9886,34.73
9898,34.39
9910,34.02
9922,33.55
9934,32.97
9946,32.3
9958,31.68
9970,31.18
9981,30.89
9992,30.77
10004,30.72
10016,30.66
10028,30.56
10040,30.48
10052,30.44
10064,30.4
10076,30.18
10088,29.54
10100,28.28
10112,26.34
10124,23.77
10136,20.75
10148,17.41
10160,13.82
10171,10.02
10182,5.99
10194,1.72
10206,-2.78
10218,-7.43
10230,-12.16
10242,-16.85
10254,-21.43
10266,-25.83
10278,-30.04
10290,-34.0
10302,-37.52
10314,-40.25
10326,-41.71
10338,-41.46
10350,-39.29
10361,-35.38
10372,-30.28
10384,-24.74
10396,-19.47
10408,-14.94
10420,-11.31
10432,-8.49
10444,-6.31
10456,-4.69
10468,-3.57
10480,-2.94
10492,-2.73
10504,-2.82
10516,-2.97
10528,-3.01
10540,-2.83
10551,-2.38
10562,-1.73
10574,-0.88
10586,0.21
10598,1.63
10610,3.48
10622,5.75
10634,8.27
10646,10.66
10658,12.46
10670,13.26
10682,12.97
10694,11.87
10706,10.59
10718,9.83
10730,10.09
10741,11.44
10752,13.54
10764,15.8
10776,17.67
10788,18.85
10800,19.28
10812,19.08
10824,18.4
10836,17.33
10848,15.93
10860,14.3
10872,12.58
10884,10.81
10896,8.89
10908,6.59
10920,3.62
10931,-0.16
10942,-4.61
10954,-9.33
10966,-13.81
10978,-17.7
10990,-20.87
11002,-23.49
11014,-25.85
11026,-28.17
11038,-30.5
11050,-32.72
11062,-34.59
11074,-35.96
11086,-36.81
11098,-37.31
11110,-37.71
11121,-38.3
11132,-39.26
11144,-40.65
11156,-42.38
11168,-44.24
11180,-45.94
11192,-47.19
11204,-47.72
11216,-47.34
11228,-45.88
11240,-43.24
11252,-39.36
11264,-34.34
11276,-28.48
11288,-22.24
11300,-16.22
11311,-10.93
11322,-6.64
11334,-3.32
11346,-0.66
11358,1.71
11370,4.07
11382,6.49
11394,8.84
11406,10.93
11418,12.64
11430,13.96
11442,14.96
11454,15.76
11466,16.43
11478,16.95
11490,17.29
11501,17.38
11512,17.23
11524,16.9
11536,16.49
11548,16.1
11560,15.81
11572,15.6
11584,15.4
11596,15.05
11608,14.39
11620,13.36
11632,11.97
11644,10.35
11656,8.68
11668,7.12
11680,5.76
11691,4.61
11702,3.61
11714,2.76
11726,2.06
11738,1.57
11750,1.27
11762,1.08
11774,0.79
11786,0.26
11798,-0.56
11810,-1.61
11822,-2.74
11834,-3.79
11846,-4.63
11858,-5.27
11870,-5.78
11881,-6.26
11892,-6.78
11904,-7.42
11916,-8.34
11928,-9.6
11940,-11.13
11952,-12.68
11964,-13.98
11976,-14.82
11988,-15.25
12000,-15.54
12012,-16.09
12024,-17.45
12036,-19.8
12048,-22.73
12060,-25.45
12071,-27.14
12082,-27.35
12094,-26.16
12106,-24.09
12118,-21.83
12130,-20.16
12142,-19.37
12154,-19.08
12166,-18.61
12178,-17.42
12190,-15.46
12202,-13.04
12214,-10.55
12226,-8.14
12238,-6.08
12250,-4.35
12261,-2.75
12272,-1.06
12284,0.81
12296,2.98
12308,5.79
12320,9.6
12332,16.66
12344,26.73
12356,36.9
12368,43.31
12380,43.9
12392,39.39
12404,32.32
12416,25.43
12428,19.67
12440,15.06
12451,10.71
12462,6.09
12474,1.46
12486,-2.37
12498,-4.94
12510,-6.76
12522,-8.34
12534,-9.91
12546,-11.46
12558,-12.42
12570,-11.82
12582,-9.18
12594,-4.98
12606,-0.47
12618,3.28
12630,6.18
12641,8.97
12652,12.47
12664,16.44
12676,19.58
12688,20.27
12700,17.77
12712,12.81
12724,7.35
12736,3.59
12748,2.73
12760,4.56
12772,7.67
12784,10.42
12796,11.68
12808,11.12
12820,8.98
12831,5.81
12842,2.3
12854,-0.82
12866,-2.63
12878,-2.29
12890,0.64
12902,5.88
12914,12.4
12926,18.65
12938,23.23
12950,25.28
12962,24.79
12974,22.38
12986,18.94
12998,15.23
13010,11.72
13021,8.73
13032,6.53
13044,5.45
13056,5.52
13068,6.37
13080,7.26
13092,7.44
13104,6.56
13116,4.86
13128,3.11
13140,2.1
13152,2.41
13164,4.0
13176,6.38
13188,8.97
13200,11.35
13211,13.4
13222,15.19
13234,16.87
13246,17.71
13258,17.48
13270,16.16
13282,14.05
13294,11.62
13306,9.25
13318,7.06
13330,4.85
13342,2.27
13354,-0.92
13366,-4.65
13378,-8.64
13390,-12.4
13401,-15.38
13412,-17.19
13424,-17.69
13436,-17.02
13448,-15.52
13460,-13.7
13472,-12.18
13484,-11.56
13496,-12.02
13508,-13.24
13520,-14.61
13532,-15.5
13544,-15.55
13556,-14.63
13568,-12.76
13580,-10.06
13591,-6.52
13602,-1.81
13614,4.43
13626,12.02
13638,19.97
13650,26.7
13662,30.73
13674,31.29
13686,28.31
13698,22.37
13710,14.45
13722,5.52
13734,-3.94
13746,-13.87
13758,-24.23
13770,-34.56
13781,-41.99
13792,-43.61
13804,-38.87
13816,-29.97
13828,-19.63
13840,-9.44
13852,0.25
13864,9.45
13876,18.0
13888,25.25
13900,29.82
13912,30.5
13924,27.01
13936,20.3
13948,12.14
13960,4.44
13971,-1.51
13982,-5.19
13994,-6.83
14006,-7.38
14018,-7.92
14030,-9.06
14042,-10.7
14054,-12.49
14066,-13.73
14078,-14.16
14090,-14.07
14102,-14.22
14114,-15.71
14126,-19.34
14138,-25.19
14150,-32.44
14161,-39.61
14172,-45.07
14184,-47.53
14196,-46.12
14208,-40.45
14220,-30.66
14232,-17.4
14244,-2.21
14256,12.51
14268,23.89
14280,29.31
14292,27.28
14304,18.09
14316,3.7
14328,-13.61
14340,-30.43
14351,-43.8
14362,-51.99
14374,-54.6
14386,-52.14
14398,-45.58
14410,-36.0
14422,-24.59
14434,-12.57
14446,-1.08
14458,8.8
14470,16.28
14482,21.0
14494,23.07
14506,22.88
14518,20.97
14530,17.88
14541,14.2
14552,10.56
14564,7.44
14576,5.1
14588,3.59
14600,2.77
14612,2.33
14624,1.93
14636,1.26
14648,0.19
14660,-1.19
14672,-2.7
14684,-4.06
14696,-4.98
14708,-5.26
14720,-4.81
14731,-3.67
14742,-1.96
14754,0.22
14766,2.73
14778,5.39
14790,7.95
14802,10.18
14814,11.92
14826,13.13
14838,13.87
14850,14.21
14862,14.24
14874,13.96
14886,13.26
14898,11.98
14910,9.96
14921,7.18
14932,3.77
14944,0.01
14956,-3.8
14968,-7.41
14980,-10.76
14992,-14.0
15004,-17.46
15016,-21.51
15028,-26.35
15040,-31.8
15052,-37.14
15064,-41.26
15076,-42.85
15088,-40.93
15100,-35.22
15111,-26.36
15122,-15.73
15134,-4.99
15146,4.51
15158,12.21
15170,18.36
15182,23.82
15194,29.49
15206,35.85
15218,42.78
15230,49.72
15242,55.97
15254,61.09
15266,65.11
15278,68.56
15290,72.31
15301,77.28
15312,84.01
15324,92.48
15336,101.9
15348,110.94
15360,118.19
15372,122.75
15384,124.72
15396,125.23
15408,126.04
15420,128.81
15432,134.41
15444,142.33
15456,150.53
15468,155.67
15480,153.74
15491,141.07
15502,115.83
15514,79.19
15526,35.75
15538,-7.49
15550,-43.33
15562,-66.84
15574,-77.09
15586,-76.96
15598,-71.61
15610,-66.1
15622,-63.69
15634,-65.37
15646,-70.53
15658,-78.07
15670,-87.12
15681,-97.06
15692,-107.12
15704,-116.05
15716,-122.17
15728,-124.01
15740,-120.89
15752,-113.33
15764,-102.89
15776,-91.67
15788,-81.54
15800,-73.56
15812,-67.73
15824,-63.19
15836,-58.77
15848,-53.56
15860,-47.37
15871,-40.61
15882,-33.98
15894,-27.97
15906,-22.58
15918,-17.45
15930,-12.14
15942,-6.53
15954,-0.96
15966,3.87
15978,7.3
15990,9.02
16002,9.31
16014,8.93
16026,8.76
16038,9.44
16050,11.16
16061,13.69
16072,16.59
16084,19.46
16096,22.08
16108,24.45
16120,26.61
16132,28.59
16144,30.35
16156,31.85
16168,33.09
16180,34.1
16192,34.93
16204,35.58
16216,35.96
16228,35.94
16240,35.36
16251,34.12
16262,32.2
16274,29.69
16286,26.78
16298,23.69
16310,20.61
16322,17.63
16334,14.69
16346,11.59
16358,8.06
16370,3.89
16382,-0.97
16394,-6.37
16406,-12.0
16418,-17.46
16430,-22.43
16441,-26.73
16452,-30.31
16464,-33.3
16476,-35.87
16488,-38.16
16500,-40.27
16512,-42.22
16524,-43.95
16536,-45.25
16548,-45.78
16560,-45.07
16572,-42.66
16584,-38.33
16596,-32.26
16608,-25.01
16620,-17.39
16631,-10.11
16642,-3.54
16654,2.37
16666,7.88
16678,13.24
16690,18.41
16702,23.11
16714,26.99
16726,29.86
16738,31.89
16750,33.56
16762,35.43
16774,37.88
16786,40.97
16798,44.44
16810,47.86
16821,50.84
16832,53.15
16844,54.72
16856,55.75
16868,56.61
16880,57.85
16892,60.0
16904,63.3
16916,67.53
16928,71.86
16940,74.93
16952,75.24
16964,71.5
16976,62.99
16988,49.81
17000,32.96
17011,14.26
17022,-4.03
17034,-19.64
17046,-30.97
17058,-37.49
17070,-39.89
17082,-39.72
17094,-38.66
17106,-37.81
17118,-37.4
17130,-36.86
17142,-35.51
17154,-32.96
17166,-29.43
17178,-25.51
17190,-21.8
17201,-18.59
17212,-15.82
17224,-13.39
17236,-11.38
17248,-10.15
17260,-10.21
17272,-11.88
17284,-15.1
17296,-19.39
17308,-24.06
17320,-28.53
17332,-32.52
17344,-36.01
17356,-39.02
17368,-41.45
17380,-42.98
17391,-43.14
17402,-41.52
17414,-37.97
17426,-32.66
17438,-26.09
17450,-18.94
17462,-11.88
17474,-5.49
17486,-0.15
17498,3.9
17510,6.63
17522,8.12
17534,8.6
17546,8.39
17558,7.9
17570,7.54
17581,7.64
17592,8.29
17604,9.28
17616,10.05
17628,9.85
17640,7.94
17652,3.87
17664,-2.32
17676,-10.04
17688,-18.38
17700,-26.48
17712,-33.96
17724,-41.23
17736,-49.41
17748,-59.83
17760,-73.41
17771,-89.98
17782,-108.08
17794,-125.2
17806,-138.35
17818,-144.73
17830,-142.27
17842,-130.07
17854,-108.5
17866,-79.29
17878,-45.35
17890,-10.31
17902,22.24
17914,49.57
17926,70.4
17938,85.0
17950,94.69
17961,101.15
17972,105.73
17984,109.2
17996,111.87
18008,113.86
18020,115.28
18032,116.14
18044,116.15
18056,114.67
18068,110.81
18080,103.76
18092,93.3
18104,79.94
18116,64.92
18128,49.79
18140,35.8
18151,23.46
18162,12.4
18174,1.72
18186,-9.38
18198,-21.03
18210,-32.42
18222,-42.05
18234,-48.34
18246,-50.42
18258,-48.55
18270,-44.18
18282,-39.65
18294,-37.57
18306,-40.04
18318,-48.15
18330,-61.61
18341,-78.78
18352,-97.14
18364,-113.87
18376,-126.57
18388,-133.77
18400,-135.17
18412,-131.58
18424,-124.58
18436,-116.0
18448,-107.37
18460,-99.38
18472,-91.58
18484,-82.62
18496,-70.96
18508,-55.72
18520,-37.44
18531,-17.97
18542,0.18
18554,15.02
18566,25.81
18578,33.15
18590,38.29
18602,42.1
18614,44.6
18626,44.97
18638,42.36
18650,36.77
18662,29.4
18674,22.43
18686,18.14
18698,18.05
18710,22.42
18721,30.34
18732,40.37
18744,51.25
18756,62.4
18768,74.01
18780,86.58
18792,100.11
18804,113.63
18816,124.96
18828,131.09
18840,128.86
18852,115.59
18864,89.43
18876,49.55
18888,-3.55
18900,-67.47
18911,-137.18
18922,-205.07
18934,-262.15
18946,-300.55
18958,-316.28
18970,-310.67
18982,-289.75
18994,-261.5
19006,-232.5
19018,-205.63
19030,-179.84
19042,-152.11
19054,-119.96
19066,-83.22
19078,-44.06
19090,-5.74
19101,29.13
19112,59.51
19124,85.77
19136,108.72
19148,128.7
19160,145.2
19172,157.16
19184,163.81
19196,165.39
19208,163.29
19220,159.66
19232,156.58
19244,155.15
19256,155.21
19268,155.57
19280,154.71
19291,151.6
19302,146.12
19314,138.96
19326,131.19
19338,123.72
19350,116.99
19362,110.9
19374,105.06
19386,98.98
19398,92.38
19410,85.16
19422,77.51
19434,69.82
19446,62.56
19458,56.2
19470,50.97
19481,46.81
19492,43.35
19504,40.08
19516,36.58
19528,32.64
19540,28.32
19552,23.8
19564,19.23
19576,14.63
19588,9.84
19600,4.6
19612,-1.32
19624,-8.11
19636,-15.81
19648,-24.31
19660,-33.44
19671,-42.95
19682,-52.71
19694,-62.7
19706,-73.02
19718,-83.69
19730,-94.47
19742,-104.74
19754,-113.6
19766,-120.13
19778,-123.71
19790,-124.17
19802,-121.73
19814,-116.71
19826,-109.3
19838,-99.5
19850,-87.29
19861,-72.92
19872,-57.01
19884,-40.5
19896,-24.29
19908,-9.03
19920,4.98
19932,17.59
19944,28.56
19956,37.52
19968,44.14
19980,48.35
19992,50.53
20004,51.46
20016,51.95
20028,52.62
20040,53.69
20051,55.08
20062,56.64
20074,58.41
20086,60.61
20098,63.57
20110,67.49
20122,72.3
20134,77.61
20146,82.83
20158,87.28
20170,90.32
20182,91.44
20194,90.31
20206,86.77
20218,80.83
20230,72.63
20241,62.48
20252,50.85
20264,38.39
20276,25.88
20288,13.99
20300,3.1
20312,-6.88
20324,-16.55
20336,-26.78
20348,-38.3
20360,-51.24
20372,-64.9
20384,-77.88
20396,-88.56
20408,-95.77
20420,-99.28
20431,-99.79
20442,-98.54
20454,-96.65
20466,-94.6
20478,-92.22
20490,-89.06
20502,-84.89
20514,-80.06
20526,-75.38
20538,-71.69
20550,-69.31
20562,-67.81
20574,-66.14
20586,-63.21
20598,-58.37
20610,-51.68
20621,-43.88
20632,-35.97
20644,-28.81
20656,-22.86
20668,-18.11
20680,-14.25
20692,-10.87
20704,-7.54
20716,-3.8
20728,0.91
20740,7.12
20752,15.06
20764,24.31
20776,33.71
20788,41.62
20800,46.45
20811,47.37
20822,44.55
20834,39.11
20846,32.47
20858,25.79
20870,19.56
20882,13.69
20894,7.87
20906,1.96
20918,-3.79
20930,-8.77
20942,-12.31
20954,-13.94
20966,-13.54
20978,-11.4
20990,-7.99
