seconds,BVP
10,-20.57
21,-13.96
32,-7.98
44,-3.03
56,0.76
68,3.42
80,5.06
92,5.78
104,5.72
116,5.0
128,3.77
140,2.13
152,0.15
164,-2.13
176,-4.68
188,-7.4
200,-10.18
211,-12.84
222,-15.24
234,-17.3
246,-19.01
258,-20.48
270,-21.84
282,-23.33
294,-25.2
306,-27.67
318,-30.83
330,-34.51
342,-38.18
354,-41.02
366,-42.06
378,-40.57
390,-36.3
401,-29.61
412,-21.36
424,-12.58
436,-4.19
448,3.25
460,9.51
472,14.59
484,18.51
496,21.28
508,22.92
520,23.55
532,23.41
544,22.82
556,22.12
568,21.49
580,20.99
591,20.55
602,20.08
614,19.54
626,18.93
638,18.27
650,17.55
662,16.72
674,15.66
686,14.23
698,12.31
710,9.78
722,6.53
734,2.53
746,-2.12
758,-7.07
770,-11.68
781,-15.08
792,-16.37
804,-14.92
816,-10.55
828,-3.63
840,5.07
852,14.65
864,24.27
876,33.34
888,41.39
900,47.98
912,52.62
924,54.86
936,54.53
948,51.91
960,47.75
971,42.99
982,38.44
994,34.44
1006,30.82
1018,27.08
1030,22.76
1042,17.71
1054,12.16
1066,6.55
1078,1.23
1090,-3.76
1102,-8.69
1114,-13.96
1126,-19.82
1138,-26.31
1150,-33.16
1161,-40.0
1172,-46.37
1184,-51.79
1196,-55.78
1208,-57.81
1220,-57.43
1232,-54.4
1244,-48.87
1256,-41.4
1268,-32.86
1280,-24.13
1292,-15.94
1304,-8.76
1316,-2.82
1328,1.79
1340,4.99
1351,6.79
1362,7.34
1374,6.98
1386,6.19
1398,5.44
1410,5.04
1422,5.03
1434,5.23
1446,5.42
1458,5.41
1470,5.19
1482,4.84
1494,4.43
1506,3.94
1518,3.21
1530,2.0
1541,0.02
1552,-2.94
1564,-6.89
1576,-11.58
1588,-16.44
1600,-20.6
1612,-23.17
1624,-23.44
1636,-21.13
1648,-16.53
1660,-10.31
1672,-3.38
1684,3.42
1696,9.46
1708,14.37
1720,17.95
1731,20.14
1742,20.98
1754,20.59
1766,19.23
1778,17.23
1790,14.98
1802,12.79
1814,10.85
1826,9.19
1838,7.72
1850,6.3
1862,4.81
1874,3.24
1886,1.59
1898,-0.09
1910,-1.83
1921,-3.76
1932,-6.13
1944,-9.23
1956,-13.21
1968,-17.97
1980,-23.05
1992,-27.63
2004,-30.74
2016,-31.56
2028,-29.66
2040,-25.16
2052,-18.72
2064,-11.28
2076,-3.8
2088,2.98
2100,8.63
2111,12.98
2122,16.04
2134,17.86
2146,18.59
2158,18.41
2170,17.58
2182,16.41
2194,15.12
2206,13.83
2218,12.54
2230,11.16
2242,9.62
2254,7.94
2266,6.22
2278,4.62
2290,3.2
2301,1.93
2312,0.66
2324,-0.85
2336,-2.84
2348,-5.48
2360,-8.88
2372,-12.98
2384,-17.53
2396,-22.01
2408,-25.69
2420,-27.76
2432,-27.57
2444,-24.85
2456,-19.86
2468,-13.3
2480,-6.05
2491,1.05
2502,7.39
2514,12.63
2526,16.57
2538,19.13
2550,20.27
2562,20.08
2574,18.82
2586,16.9
2598,14.76
2610,12.72
2622,10.86
2634,9.09
2646,7.27
2658,5.34
2670,3.41
2681,1.66
2692,0.24
2704,-0.9
2716,-1.97
2728,-3.26
2740,-5.03
2752,-7.42
2764,-10.49
2776,-14.21
2788,-18.48
2800,-22.99
2812,-27.17
2824,-30.22
2836,-31.27
2848,-29.75
2860,-25.57
2871,-19.2
2882,-11.53
2894,-3.53
2906,4.05
2918,10.75
2930,16.43
2942,21.07
2954,24.64
2966,27.03
2978,28.17
2990,28.11
3002,27.12
3014,25.6
3026,23.99
3038,22.54
3050,21.25
3061,19.92
3072,18.31
3084,16.28
3096,13.92
3108,11.45
3120,9.08
3132,6.87
3144,4.64
3156,2.09
3168,-1.11
3180,-5.14
3192,-9.99
3204,-15.34
3216,-20.65
3228,-25.22
3240,-28.26
3251,-29.16
3262,-27.57
3274,-23.58
3286,-17.66
3298,-10.54
3310,-3.06
3322,4.03
3334,10.18
3346,15.05
3358,18.47
3370,20.42
3382,21.03
3394,20.58
3406,19.45
3418,18.07
3430,16.81
3441,15.84
3452,15.17
3464,14.58
3476,13.8
3488,12.62
3500,10.99
3512,9.04
3524,7.05
3536,5.21
3548,3.59
3560,2.02
3572,0.16
3584,-2.37
3596,-5.83
3608,-10.26
3620,-15.36
3631,-20.54
3642,-24.96
3654,-27.68
3666,-27.96
3678,-25.45
3690,-20.35
3702,-13.33
3714,-5.41
3726,2.43
3738,9.44
3750,15.24
3762,19.75
3774,23.0
3786,25.03
3798,25.89
3810,25.67
3821,24.57
3832,23.0
3844,21.36
3856,19.98
3868,18.97
3880,18.16
3892,17.25
3904,15.96
3916,14.19
3928,12.03
3940,9.74
3952,7.54
3964,5.49
3976,3.44
3988,1.06
4000,-1.96
4011,-5.83
4022,-10.56
4034,-15.89
4046,-21.33
4058,-26.17
4070,-29.59
4082,-30.83
4094,-29.42
4106,-25.38
4118,-19.2
4130,-11.76
4142,-4.02
4154,3.25
4166,9.56
4178,14.72
4190,18.72
4201,21.56
4212,23.28
4224,23.92
4236,23.63
4248,22.67
4260,21.36
4272,19.97
4284,18.68
4296,17.49
4308,16.25
4320,14.75
4332,12.88
4344,10.67
4356,8.29
4368,5.99
4380,3.89
4391,1.95
4402,-0.09
4414,-2.6
4426,-5.89
4438,-10.11
4450,-15.11
4462,-20.45
4474,-25.46
4486,-29.33
4498,-31.29
4510,-30.79
4522,-27.71
4534,-22.4
4546,-15.59
4558,-8.2
4570,-1.05
4581,5.31
4592,10.65
4604,14.97
4616,18.35
4628,20.78
4640,22.23
4652,22.64
4664,22.11
4676,20.89
4688,19.33
4700,17.79
4712,16.43
4724,15.19
4736,13.78
4748,11.93
4760,9.51
4771,6.66
4782,3.75
4794,1.18
4806,-0.81
4818,-2.3
4830,-3.63
4842,-5.29
4854,-7.7
4866,-11.08
4878,-15.4
4890,-20.38
4902,-25.55
4914,-30.2
4926,-33.52
4938,-34.74
4950,-33.35
4961,-29.33
4972,-23.2
4984,-15.85
4996,-8.27
5008,-1.22
5020,4.9
5032,10.04
5044,14.29
5056,17.71
5068,20.22
5080,21.71
5092,22.12
5104,21.6
5116,20.48
5128,19.14
5140,17.93
5151,16.96
5162,16.17
5174,15.31
5186,14.14
5198,12.52
5210,10.52
5222,8.38
5234,6.35
5246,4.59
5258,3.0
5270,1.34
5282,-0.73
5294,-3.47
5306,-6.96
5318,-11.08
5330,-15.59
5341,-20.16
5352,-24.38
5364,-27.76
5376,-29.75
5388,-29.79
5400,-27.55
5412,-23.05
5424,-16.77
5436,-9.51
5448,-2.18
5460,4.5
5472,10.16
5484,14.72
5496,18.3
5508,21.02
5520,22.92
5531,23.92
5542,24.0
5554,23.26
5566,21.99
5578,20.55
5590,19.31
5602,18.42
5614,17.82
5626,17.29
5638,16.53
5650,15.38
5662,13.83
5674,12.01
5686,10.09
5698,8.15
5710,6.19
5721,4.08
5732,1.74
5744,-0.92
5756,-3.94
5768,-7.35
5780,-11.21
5792,-15.53
5804,-20.12
5816,-24.48
5828,-27.85
5840,-29.43
5852,-28.62
5864,-25.32
5876,-19.96
5888,-13.33
5900,-6.35
5911,0.25
5922,6.07
5934,10.95
5946,14.9
5958,17.94
5970,20.06
5982,21.23
5994,21.45
6006,20.82
6018,19.55
6030,17.94
6042,16.26
6054,14.78
6066,13.63
6078,12.77
6090,12.05
6101,11.19
6112,9.98
6124,8.27
6136,6.12
6148,3.66
6160,1.09
6172,-1.47
6184,-4.03
6196,-6.66
6208,-9.47
6220,-12.56
6232,-15.96
6244,-19.71
6256,-23.77
6268,-28.0
6280,-32.04
6291,-35.35
6302,-37.22
6314,-37.06
6326,-34.62
6338,-30.09
6350,-24.1
6362,-17.5
6374,-11.04
6386,-5.23
6398,-0.24
6410,3.94
6422,7.35
6434,9.95
6446,11.62
6458,12.3
6470,12.05
6481,11.14
6492,9.95
6504,8.83
6516,7.97
6528,7.34
6540,6.83
6552,6.27
6564,5.57
6576,4.72
6588,3.76
6600,2.67
6612,1.41
6624,-0.08
6636,-1.83
6648,-3.79
6660,-5.89
6671,-8.07
6682,-10.37
6694,-12.94
6706,-15.92
6718,-19.39
6730,-23.21
6742,-26.96
6754,-29.98
6766,-31.51
6778,-30.93
6790,-28.01
6802,-23.0
6814,-16.59
6826,-9.68
6838,-3.13
6850,2.52
6861,7.05
6872,10.53
6884,13.09
6896,14.8
6908,15.63
6920,15.57
6932,14.73
6944,13.38
6956,11.92
6968,10.67
6980,9.77
6992,9.13
7004,8.51
7016,7.65
7028,6.43
7040,4.89
7051,3.21
7062,1.51
7074,-0.13
7086,-1.8
7098,-3.63
7110,-5.75
7122,-8.24
7134,-11.13
7146,-14.46
7158,-18.19
7170,-22.22
7182,-26.21
7194,-29.62
7206,-31.78
7218,-32.1
7230,-30.29
7241,-26.45
7252,-21.05
7264,-14.78
7276,-8.31
7288,-2.16
7300,3.32
7312,7.91
7324,11.47
7336,13.89
7348,15.12
7360,15.22
7372,14.43
7384,13.12
7396,11.72
7408,10.6
7420,9.96
7431,9.74
7442,9.71
7454,9.51
7466,8.87
7478,7.68
7490,6.02
7502,4.1
7514,2.17
7526,0.39
7538,-1.25
7550,-2.88
7562,-4.73
7574,-7.04
7586,-9.97
7598,-13.57
7610,-17.74
7621,-22.15
7632,-26.29
7644,-29.45
7656,-30.93
7668,-30.2
7680,-27.09
7692,-21.88
7704,-15.24
7716,-8.04
7728,-1.06
7740,5.18
7752,10.46
7764,14.76
7776,18.14
7788,20.59
7800,22.02
7811,22.39
7822,21.75
7834,20.38
7846,18.68
7858,17.06
7870,15.81
7882,14.94
7894,14.22
7906,13.32
7918,11.97
7930,10.12
7942,7.97
7954,5.87
7966,4.08
7978,2.68
7990,1.5
8001,0.17
8012,-1.71
8024,-4.38
8036,-7.96
8048,-12.31
8060,-17.12
8072,-21.9
8084,-25.97
8096,-28.58
8108,-29.07
8120,-27.1
8132,-22.8
8144,-16.77
8156,-9.87
8168,-2.95
8180,3.4
8191,8.87
8202,13.41
8214,16.96
8226,19.48
8238,20.86
8250,21.05
8262,20.2
8274,18.65
8286,16.8
8298,15.03
8310,13.52
8322,12.26
8334,11.08
8346,9.82
8358,8.36
8370,6.69
8381,4.89
8392,3.06
8404,1.27
8416,-0.5
8428,-2.33
8440,-4.38
8452,-6.83
8464,-9.83
8476,-13.46
8488,-17.61
8500,-21.98
8512,-26.04
8524,-29.09
8536,-30.48
8548,-29.71
8560,-26.67
8571,-21.67
8582,-15.35
8594,-8.47
8606,-1.73
8618,4.35
8630,9.47
8642,13.46
8654,16.18
8666,17.54
8678,17.58
8690,16.52
8702,14.8
8714,12.91
8726,11.3
8738,10.11
8750,9.23
8761,8.38
8772,7.28
8784,5.82
8796,4.06
8808,2.2
8820,0.4
8832,-1.27
8844,-2.87
8856,-4.56
8868,-6.57
8880,-9.07
8892,-12.25
8904,-16.09
8916,-20.38
8928,-24.67
8940,-28.28
8951,-30.51
8962,-30.79
8974,-28.89
8986,-24.94
8998,-19.42
9010,-12.97
9022,-6.27
9034,0.12
9046,5.8
9058,10.53
9070,14.19
9082,16.72
9094,18.09
9106,18.33
9118,17.58
9130,16.13
9141,14.35
9152,12.62
9164,11.15
9176,9.96
9188,8.85
9200,7.59
9212,6.03
9224,4.2
9236,2.24
9248,0.27
9260,-1.72
9272,-3.86
9284,-6.37
9296,-9.43
9308,-13.1
9320,-17.37
9331,-22.05
9342,-26.81
9354,-31.11
9366,-34.26
9378,-35.57
9390,-34.58
9402,-31.24
9414,-25.95
9426,-19.38
9438,-12.32
9450,-5.38
9462,1.03
9474,6.68
9486,11.41
9498,15.11
9510,17.69
9521,19.14
9532,19.56
9544,19.17
9556,18.25
9568,17.08
9580,15.85
9592,14.68
9604,13.53
9616,12.3
9628,10.88
9640,9.16
9652,7.14
9664,4.92
9676,2.64
9688,0.41
9700,-1.74
9711,-3.92
9722,-6.37
9734,-9.32
9746,-12.98
9758,-17.33
9770,-22.12
9782,-26.85
9794,-30.78
9806,-33.15
9818,-33.32
9830,-30.96
9842,-26.19
9854,-19.55
9866,-11.82
9878,-3.82
9890,3.83
9901,10.74
9912,16.77
9924,21.86
9936,25.93
9948,28.81
9960,30.4
9972,30.69
9984,29.93
9996,28.55
10008,27.05
10020,25.77
10032,24.79
10044,23.95
10056,22.93
10068,21.48
10080,19.49
10091,17.04
10102,14.32
10114,11.54
10126,8.84
10138,6.26
10150,3.77
10162,1.28
10174,-1.34
10186,-4.3
10198,-7.81
10210,-12.01
10222,-16.88
10234,-22.09
10246,-27.01
10258,-30.79
10270,-32.61
10281,-31.89
10292,-28.47
10304,-22.73
10316,-15.39
10328,-7.41
10340,0.34
10352,7.28
10364,13.18
10376,18.05
10388,22.0
10400,25.05
10412,27.15
10424,28.2
10436,28.2
10448,27.34
10460,25.95
10471,24.35
10482,22.76
10494,21.24
10506,19.7
10518,18.05
10530,16.27
10542,14.39
10554,12.5
10566,10.66
10578,8.84
10590,6.95
10602,4.86
10614,2.47
10626,-0.3
10638,-3.51
10650,-7.16
10661,-11.25
10672,-15.71
10684,-20.38
10696,-24.97
10708,-28.99
10720,-31.8
10732,-32.72
10744,-31.27
10756,-27.36
10768,-21.4
10780,-14.21
10792,-6.71
10804,0.28
10816,6.35
10828,11.41
10840,15.57
10851,18.91
10862,21.38
10874,22.84
10886,23.17
10898,22.49
10910,21.13
10922,19.56
10934,18.17
10946,17.1
10958,16.26
10970,15.41
10982,14.31
10994,12.87
11006,11.12
11018,9.17
11030,7.16
11041,5.09
11052,2.92
11064,0.54
11076,-2.1
11088,-5.04
11100,-8.28
11112,-11.8
11124,-15.67
11136,-19.93
11148,-24.48
11160,-29.01
11172,-32.93
11184,-35.48
11196,-35.95
11208,-33.93
11220,-29.53
11231,-23.28
11242,-16.01
11254,-8.54
11266,-1.46
11278,4.88
11290,10.38
11302,14.99
11314,18.68
11326,21.45
11338,23.34
11350,24.46
11362,24.97
11374,24.97
11386,24.53
11398,23.7
11410,22.53
11421,21.15
11432,19.7
11444,18.3
11456,17.03
11468,15.87
11480,14.74
11492,13.53
11504,12.13
11516,10.39
11528,8.24
11540,5.66
11552,2.71
11564,-0.45
11576,-3.66
11588,-6.83
11600,-10.04
11611,-13.46
11622,-17.33
11634,-21.73
11646,-26.48
11658,-31.1
11670,-34.85
11682,-36.97
11694,-36.85
11706,-34.22
11718,-29.24
11730,-22.51
11742,-14.85
11754,-7.08
11766,0.12
11778,6.38
11790,11.6
11801,15.84
11812,19.24
11824,21.88
11836,23.82
11848,25.06
11860,25.62
11872,25.58
11884,25.03
11896,24.13
11908,23.01
11920,21.78
11932,20.52
11944,19.23
11956,17.91
11968,16.56
11980,15.17
11991,13.7
12002,12.09
12014,10.2
12026,7.92
12038,5.21
12050,2.13
12062,-1.13
12074,-4.38
12086,-7.49
12098,-10.54
12110,-13.77
12122,-17.49
12134,-21.88
12146,-26.77
12158,-31.63
12170,-35.6
12181,-37.79
12192,-37.56
12204,-34.75
12216,-29.73
12228,-23.25
12240,-16.24
12252,-9.49
12264,-3.56
12276,1.41
12288,5.51
12300,8.97
12312,12.02
12324,14.76
12336,17.12
12348,18.98
12360,20.2
12371,20.77
12382,20.78
12394,20.39
12406,19.76
12418,19.01
12430,18.17
12442,17.26
12454,16.28
12466,15.25
12478,14.19
12490,13.09
12502,11.87
12514,10.44
12526,8.72
12538,6.66
12550,4.32
12561,1.76
12572,-0.96
12584,-3.86
12596,-7.01
12608,-10.52
12620,-14.35
12632,-18.26
12644,-21.78
12656,-24.25
12668,-25.06
12680,-23.77
12692,-20.36
12704,-15.16
12716,-8.82
12728,-2.16
12740,4.09
12751,9.34
12762,13.3
12774,15.96
12786,17.47
12798,18.09
12810,18.03
12822,17.43
12834,16.37
12846,14.93
12858,13.27
12870,11.56
12882,10.0
12894,8.66
12906,7.49
12918,6.28
12930,4.82
12941,2.96
12952,0.7
12964,-1.87
12976,-4.58
12988,-7.31
13000,-10.0
13012,-12.66
13024,-15.36
13036,-18.11
13048,-20.99
13060,-24.03
13072,-27.34
13084,-30.99
13096,-34.89
13108,-38.76
13120,-42.01
13131,-43.92
13142,-43.81
13154,-41.29
13166,-36.46
13178,-29.82
13190,-22.13
13202,-14.17
13214,-6.52
13226,0.48
13238,6.64
13250,11.87
13262,16.05
13274,19.1
13286,21.02
13298,21.94
13310,22.17
13321,22.01
13332,21.71
13344,21.39
13356,21.01
13368,20.46
13380,19.65
13392,18.55
13404,17.18
13416,15.61
13428,13.92
13440,12.12
13452,10.16
13464,7.93
13476,5.29
13488,2.11
13500,-1.68
13511,-6.1
13522,-11.05
13534,-16.32
13546,-21.64
13558,-26.61
13570,-30.79
13582,-33.67
13594,-34.83
13606,-34.04
13618,-31.33
13630,-27.07
13642,-21.82
13654,-16.22
13666,-10.74
13678,-5.69
13690,-1.23
13701,2.57
13712,5.59
13724,7.72
13736,8.88
13748,9.16
13760,8.88
13772,8.46
13784,8.32
13796,8.67
13808,9.46
13820,10.46
13832,11.33
13844,11.88
13856,12.06
13868,11.94
13880,11.62
13891,11.13
13902,10.36
13914,9.14
13926,7.26
13938,4.57
13950,1.07
13962,-3.07
13974,-7.46
13986,-11.53
13998,-14.6
14010,-16.04
14022,-15.46
14034,-12.83
14046,-8.46
14058,-2.94
14070,3.06
14081,8.94
14092,14.25
14104,18.72
14116,22.17
14128,24.51
14140,25.71
14152,25.9
14164,25.34
14176,24.42
14188,23.49
14200,22.78
14212,22.26
14224,21.76
14236,20.99
14248,19.8
14260,18.22
14271,16.47
14282,14.79
14294,13.34
14306,12.11
14318,10.9
14330,9.43
14342,7.4
14354,4.59
14366,0.87
14378,-3.67
14390,-8.67
14402,-13.49
14414,-17.27
14426,-19.21
14438,-18.8
14450,-16.02
14461,-11.35
14472,-5.6
14484,0.37
14496,5.9
14508,10.6
14520,14.32
14532,17.05
14544,18.79
14556,19.56
14568,19.4
14580,18.41
14592,16.76
14604,14.58
14616,11.96
14628,8.96
14640,5.63
14651,2.12
14662,-1.4
14674,-4.71
14686,-7.64
14698,-10.12
14710,-12.21
14722,-14.05
14734,-15.89
14746,-17.97
14758,-20.55
14770,-23.85
14782,-27.93
14794,-32.62
14806,-37.46
14818,-41.79
14830,-44.8
14841,-45.86
14852,-44.6
14864,-41.12
14876,-35.89
14888,-29.66
14900,-23.16
14912,-16.97
14924,-11.37
14936,-6.43
14948,-2.12
14960,1.55
14972,4.48
14984,6.53
14996,7.64
15008,7.95
15020,7.79
15031,7.54
15042,7.44
15054,7.49
15066,7.5
15078,7.23
15090,6.54
15102,5.54
15114,4.43
15126,3.46
15138,2.68
15150,1.93
15162,0.86
15174,-0.91
15186,-3.69
15198,-7.52
15210,-12.12
15221,-16.97
15232,-21.31
15244,-24.38
15256,-25.53
15268,-24.46
15280,-21.19
15292,-16.13
15304,-9.92
15316,-3.28
15328,3.17
15340,8.94
15352,13.73
15364,17.44
15376,20.05
15388,21.64
15400,22.33
15411,22.29
15422,21.68
15434,20.66
15446,19.37
15458,17.89
15470,16.27
15482,14.51
15494,12.59
15506,10.56
15518,8.47
15530,6.44
15542,4.59
15554,2.96
15566,1.51
15578,0.06
15590,-1.66
15601,-3.96
15612,-7.05
15624,-10.95
15636,-15.39
15648,-19.85
15660,-23.58
15672,-25.82
15684,-26.02
15696,-23.94
15708,-19.79
15720,-14.11
15732,-7.59
15744,-0.89
15756,5.5
15768,11.29
15780,16.28
15791,20.3
15802,23.21
15814,24.9
15826,25.39
15838,24.86
15850,23.65
15862,22.13
15874,20.62
15886,19.31
15898,18.2
15910,17.18
15922,16.06
15934,14.66
15946,12.86
15958,10.68
15970,8.23
15981,5.72
15992,3.32
16004,1.09
16016,-1.11
16028,-3.59
16040,-6.61
16052,-10.32
16064,-14.6
16076,-19.0
16088,-22.9
16100,-25.62
16112,-26.64
16124,-25.66
16136,-22.71
16148,-18.08
16160,-12.29
16171,-5.94
16182,0.39
16194,6.23
16206,11.26
16218,15.33
16230,18.35
16242,20.29
16254,21.17
16266,21.07
16278,20.18
16290,18.82
16302,17.36
16314,16.14
16326,15.3
16338,14.8
16350,14.41
16361,13.83
16372,12.87
16384,11.51
16396,9.91
16408,8.3
16420,6.84
16432,5.49
16444,4.03
16456,2.12
16468,-0.54
16480,-4.06
16492,-8.35
16504,-13.08
16516,-17.74
16528,-21.72
16540,-24.42
16551,-25.37
16562,-24.35
16574,-21.47
16586,-17.14
16598,-11.96
16610,-6.55
16622,-1.39
16634,3.21
16646,7.08
16658,10.1
16670,12.17
16682,13.22
16694,13.32
16706,12.64
16718,11.52
16730,10.31
16741,9.26
16752,8.48
16764,7.92
16776,7.48
16788,7.04
16800,6.5
16812,5.81
16824,4.92
16836,3.84
16848,2.63
16860,1.41
16872,0.28
16884,-0.74
16896,-1.78
16908,-3.1
16920,-4.98
16931,-7.57
16942,-10.73
16954,-13.98
16966,-16.64
16978,-18.03
16990,-17.65
17002,-15.34
17014,-11.31
17026,-6.03
17038,-0.1
17050,5.87
17062,11.37
17074,15.99
17086,19.43
17098,21.56
17110,22.42
17121,22.2
17132,21.24
17144,19.92
17156,18.57
17168,17.33
17180,16.23
17192,15.2
17204,14.11
17216,12.9
17228,11.53
17240,10.01
17252,8.42
17264,6.87
17276,5.48
17288,4.31
17300,3.31
17311,2.29
17322,0.96
17334,-0.96
17346,-3.66
17358,-7.09
17370,-10.98
17382,-14.83
17394,-18.02
17406,-19.97
17418,-20.19
17430,-18.45
17442,-14.83
17454,-9.71
17466,-3.69
17478,2.57
17490,8.47
17501,13.57
17512,17.57
17524,20.31
17536,21.72
17548,21.86
17560,20.98
17572,19.45
17584,17.71
17596,16.09
17608,14.72
17620,13.52
17632,12.24
17644,10.66
17656,8.67
17668,6.32
17680,3.79
17691,1.24
17702,-1.21
17714,-3.53
17726,-5.8
17738,-8.12
17750,-10.7
17762,-13.76
17774,-17.49
17786,-21.88
17798,-26.6
17810,-31.0
17822,-34.23
17834,-35.52
17846,-34.51
17858,-31.37
17870,-26.75
17881,-21.56
17892,-16.63
17904,-12.47
17916,-9.23
17928,-6.83
17940,-5.14
17952,-4.1
17964,-3.77
17976,-4.15
17988,-5.17
18000,-6.58
18012,-8.06
18024,-9.35
18036,-10.34
18048,-11.05
18060,-11.58
18071,-11.99
18082,-12.31
18094,-12.54
18106,-12.71
18118,-12.97
18130,-13.49
18142,-14.48
18154,-16.07
18166,-18.27
18178,-20.89
18190,-23.54
18202,-25.72
18214,-26.8
18226,-26.31
18238,-23.97
18250,-19.87
18261,-14.47
18272,-8.46
18284,-2.57
18296,2.63
18308,6.79
18320,9.83
18332,11.84
18344,12.97
18356,13.41
18368,13.31
18380,12.77
18392,11.88
18404,10.64
18416,9.1
18428,7.29
18440,5.35
18451,3.41
18462,1.57
18474,-0.11
18486,-1.72
18498,-3.35
18510,-5.11
18522,-7.09
18534,-9.33
18546,-11.87
18558,-14.71
18570,-17.74
18582,-20.66
18594,-22.97
18606,-24.03
18618,-23.27
18630,-20.42
18641,-15.69
18652,-9.71
18664,-3.36
18676,2.49
18688,7.25
18700,10.76
18712,13.19
18724,14.89
18736,16.17
18748,17.14
18760,17.76
18772,17.88
18784,17.42
18796,16.46
18808,15.18
18820,13.79
18831,12.42
18842,11.02
18854,9.48
18866,7.7
18878,5.69
18890,3.6
18902,1.55
18914,-0.49
18926,-2.72
18938,-5.45
18950,-8.85
18962,-12.76
18974,-16.6
18986,-19.51
18998,-20.68
19010,-19.63
19021,-16.41
19032,-11.54
19044,-5.81
19056,0.01
19068,5.34
19080,9.89
19092,13.6
19104,16.51
19116,18.65
19128,20.02
19140,20.61
19152,20.41
19164,19.47
19176,17.93
19188,16.01
19200,13.97
19211,12.02
19222,10.32
19234,8.89
19246,7.69
19258,6.62
19270,5.59
19282,4.48
19294,3.19
19306,1.6
19318,-0.41
19330,-2.87
19342,-5.64
19354,-8.39
19366,-10.64
19378,-11.84
19390,-11.56
19401,-9.64
19412,-6.22
19424,-1.73
19436,3.24
19448,8.11
19460,12.43
19472,15.93
19484,18.52
19496,20.22
19508,21.08
19520,21.17
19532,20.55
19544,19.32
19556,17.6
19568,15.58
19580,13.42
19591,11.25
19602,9.13
19614,7.07
19626,5.07
19638,3.18
19650,1.44
19662,-0.14
19674,-1.64
19686,-3.26
19698,-5.29
19710,-7.96
19722,-11.33
19734,-15.19
19746,-19.01
19758,-22.08
19770,-23.7
19781,-23.38
19792,-20.98
19804,-16.79
19816,-11.38
19828,-5.46
19840,0.31
19852,5.41
19864,9.59
19876,12.75
19888,14.93
19900,16.25
19912,16.81
19924,16.69
19936,16.0
19948,14.82
19960,13.27
19971,11.55
19982,9.84
19994,8.29
20006,6.99
20018,5.89
20030,4.89
20042,3.82
20054,2.52
20066,0.87
20078,-1.28
20090,-4.02
20102,-7.4
20114,-11.29
20126,-15.39
20138,-19.16
20150,-21.95
20161,-23.19
20172,-22.58
20184,-20.19
20196,-16.44
20208,-11.96
20220,-7.43
20232,-3.31
20244,0.13
20256,2.88
20268,4.98
20280,6.5
20292,7.41
20304,7.71
20316,7.38
20328,6.55
20340,5.38
20351,4.09
20362,2.88
20374,1.84
20386,0.96
20398,0.19
20410,-0.52
20422,-1.2
20434,-1.88
20446,-2.64
20458,-3.6
20470,-4.97
20482,-6.92
20494,-9.52
20506,-12.64
20518,-15.89
20530,-18.63
20541,-20.23
20552,-20.16
20564,-18.21
20576,-14.58
20588,-9.74
20600,-4.4
20612,0.77
20624,5.24
20636,8.69
20648,11.05
20660,12.44
20672,13.06
20684,13.09
20696,12.68
20708,11.84
20720,10.56
20731,8.9
20742,6.97
20754,5.03
20766,3.32
20778,2.01
20790,1.1
20802,0.44
20814,-0.24
20826,-1.17
20838,-2.52
20850,-4.39
20862,-6.78
20874,-9.62
20886,-12.72
20898,-15.76
20910,-18.23
20921,-19.58
20932,-19.34
20944,-17.27
20956,-13.52
20968,-8.56
20980,-3.05
20992,2.33
