seconds,BVP
6,27.13
18,22.46
30,18.17
42,14.02
54,9.62
66,4.66
78,-1.03
90,-7.37
102,-14.11
114,-20.9
126,-27.29
138,-32.8
150,-36.9
161,-39.09
172,-38.97
184,-36.4
196,-31.56
208,-24.99
220,-17.44
232,-9.65
244,-2.18
256,4.69
268,10.89
280,16.43
292,21.32
304,25.43
316,28.65
328,30.9
340,32.29
351,33.0
362,33.28
374,33.29
386,33.05
398,32.5
410,31.56
422,30.27
434,28.77
446,27.22
458,25.74
470,24.29
482,22.74
494,20.91
506,18.73
518,16.19
530,13.4
541,10.39
552,7.11
564,3.38
576,-1.0
588,-6.08
600,-11.65
612,-17.15
624,-21.85
636,-24.98
648,-26.01
660,-24.77
672,-21.5
684,-16.74
696,-11.2
708,-5.57
720,-0.35
731,4.06
742,7.43
754,9.69
766,10.88
778,11.21
790,11.0
802,10.57
814,10.1
826,9.52
838,8.54
850,6.8
862,4.12
874,0.58
886,-3.44
898,-7.54
910,-11.42
921,-15.13
932,-18.88
944,-23.01
956,-27.73
968,-33.03
980,-38.74
992,-44.62
1004,-50.47
1016,-56.12
1028,-61.52
1040,-66.68
1052,-71.69
1064,-76.71
1076,-81.84
1088,-87.03
1100,-91.95
1111,-96.04
1122,-98.53
1134,-98.68
1146,-95.87
1158,-89.74
1170,-80.16
1182,-67.4
1194,-52.06
1206,-35.04
1218,-17.39
1230,-0.08
1242,16.15
1254,30.88
1266,43.87
1278,54.94
1290,63.83
1301,70.26
1312,74.14
1324,75.67
1336,75.38
1348,74.03
1360,72.35
1372,70.86
1384,69.76
1396,68.96
1408,68.09
1420,66.65
1432,64.16
1444,60.25
1456,54.89
1468,48.38
1480,41.26
1491,34.15
1502,27.57
1514,21.81
1526,16.91
1538,12.77
1550,9.23
1562,6.13
1574,3.28
1586,0.48
1598,-2.48
1610,-5.83
1622,-9.62
1634,-13.72
1646,-17.82
1658,-21.43
1670,-24.05
1681,-25.27
1692,-24.87
1704,-22.84
1716,-19.42
1728,-15.01
1740,-10.09
1752,-5.12
1764,-0.48
1776,3.58
1788,6.94
1800,9.61
1812,11.62
1824,13.01
1836,13.85
1848,14.23
1860,14.31
1871,14.3
1882,14.42
1894,14.74
1906,15.19
1918,15.47
1930,15.25
1942,14.32
1954,12.69
1966,10.69
1978,8.74
1990,7.19
2002,6.15
2014,5.47
2026,4.79
2038,3.8
2050,2.29
2061,0.24
2072,-2.2
2084,-4.85
2096,-7.49
2108,-10.07
2120,-12.68
2132,-15.58
2144,-19.06
2156,-23.15
2168,-27.5
2180,-31.27
2192,-33.38
2204,-32.87
2216,-29.35
2228,-23.09
2240,-14.93
2251,-6.04
2262,2.56
2274,10.14
2286,16.32
2298,21.0
2310,24.16
2322,25.86
2334,26.23
2346,25.49
2358,23.96
2370,22.02
2382,20.08
2394,18.46
2406,17.3
2418,16.55
2430,15.95
2441,15.25
2452,14.28
2464,13.06
2476,11.73
2488,10.45
2500,9.25
2512,7.97
2524,6.3
2536,3.99
2548,0.94
2560,-2.7
2572,-6.65
2584,-10.61
2596,-14.47
2608,-18.35
2620,-22.51
2631,-27.2
2642,-32.43
2654,-37.92
2666,-43.09
2678,-47.17
2690,-49.43
2702,-49.34
2714,-46.72
2726,-41.8
2738,-35.17
2750,-27.66
2762,-20.16
2774,-13.44
2786,-7.99
2798,-3.98
2810,-1.34
2821,0.12
2832,0.65
2844,0.48
2856,-0.25
2868,-1.35
2880,-2.66
2892,-4.02
2904,-5.29
2916,-6.36
2928,-7.12
2940,-7.51
2952,-7.48
2964,-7.05
2976,-6.29
2988,-5.41
3000,-4.62
3011,-4.18
3022,-4.28
3034,-4.99
3046,-6.25
3058,-7.9
3070,-9.8
3082,-11.92
3094,-14.36
3106,-17.33
3118,-21.09
3130,-25.84
3142,-31.51
3154,-37.66
3166,-43.43
3178,-47.65
3190,-49.14
3201,-47.12
3212,-41.48
3224,-32.9
3236,-22.7
3248,-12.36
3260,-3.16
3272,4.15
3284,9.38
3296,12.73
3308,14.59
3320,15.3
3332,15.14
3344,14.29
3356,12.87
3368,10.92
3380,8.52
3391,5.74
3402,2.73
3414,-0.27
3426,-3.02
3438,-5.32
3450,-7.05
3462,-8.17
3474,-8.72
3486,-8.83
3498,-8.69
3510,-8.59
3522,-8.8
3534,-9.47
3546,-10.5
3558,-11.51
3570,-12.03
3581,-11.71
3592,-10.54
3604,-8.91
3616,-7.32
3628,-6.06
3640,-5.0
3652,-3.53
3664,-0.8
3676,3.89
3688,10.8
3700,19.66
3712,29.81
3724,40.43
3736,50.82
3748,60.38
3760,68.69
3771,75.39
3782,80.16
3794,82.79
3806,83.21
3818,81.58
3830,78.3
3842,73.95
3854,69.21
3866,64.71
3878,60.9
3890,57.95
3902,55.71
3914,53.81
3926,51.82
3938,49.41
3950,46.5
3961,43.21
3972,39.81
3984,36.54
3996,33.44
4008,30.32
4020,26.84
4032,22.6
4044,17.31
4056,10.93
4068,3.78
4080,-3.57
4092,-10.26
4104,-15.33
4116,-17.9
4128,-17.42
4140,-13.8
4151,-7.52
4162,0.52
4174,9.21
4186,17.52
4198,24.74
4210,30.53
4222,34.79
4234,37.56
4246,38.81
4258,38.45
4270,36.52
4282,33.23
4294,29.08
4306,24.69
4318,20.67
4330,17.33
4341,14.64
4352,12.29
4364,9.93
4376,7.32
4388,4.44
4400,1.45
4412,-1.44
4424,-4.17
4436,-6.8
4448,-9.54
4460,-12.63
4472,-16.21
4484,-20.33
4496,-24.94
4508,-29.99
4520,-35.28
4531,-40.44
4542,-44.78
4554,-47.43
4566,-47.51
4578,-44.54
4590,-38.67
4602,-30.72
4614,-21.91
4626,-13.42
4638,-6.11
4650,-0.32
4662,3.95
4674,6.9
4686,8.68
4698,9.36
4710,9.04
4721,7.97
4732,6.52
4744,5.19
4756,4.36
4768,4.17
4780,4.47
4792,4.9
4804,4.98
4816,4.44
4828,3.23
4840,1.63
4852,0.04
4864,-1.21
4876,-2.01
4888,-2.57
4900,-3.31
4911,-4.73
4922,-7.26
4934,-11.1
4946,-16.13
4958,-21.87
4970,-27.48
4982,-31.95
4994,-34.29
5006,-33.85
5018,-30.47
5030,-24.53
5042,-16.81
5054,-8.28
5066,0.18
5078,7.93
5090,14.62
5101,20.15
5112,24.54
5124,27.82
5136,29.93
5148,30.82
5160,30.44
5172,28.94
5184,26.64
5196,24.03
5208,21.5
5220,19.27
5232,17.24
5244,15.12
5256,12.62
5268,9.6
5280,6.21
5291,2.75
5302,-0.4
5314,-3.05
5326,-5.2
5338,-7.17
5350,-9.36
5362,-12.21
5374,-16.03
5386,-20.92
5398,-26.71
5410,-32.9
5422,-38.73
5434,-43.25
5446,-45.49
5458,-44.73
5470,-40.7
5481,-33.75
5492,-24.73
5504,-14.8
5516,-5.09
5528,3.6
5540,10.89
5552,16.79
5564,21.45
5576,24.99
5588,27.42
5600,28.7
5612,28.83
5624,27.88
5636,26.05
5648,23.64
5660,20.96
5671,18.3
5682,15.86
5694,13.73
5706,11.91
5718,10.3
5730,8.69
5742,6.85
5754,4.62
5766,1.9
5778,-1.29
5790,-4.82
5802,-8.62
5814,-12.67
5826,-17.03
5838,-21.85
5850,-27.27
5861,-33.3
5872,-39.78
5884,-46.23
5896,-51.86
5908,-55.7
5920,-56.72
5932,-54.18
5944,-47.89
5956,-38.33
5968,-26.63
5980,-14.27
5992,-2.67
6004,7.15
6016,14.77
6028,20.36
6040,24.4
6051,27.42
6062,29.79
6074,31.62
6086,32.87
6098,33.39
6110,33.15
6122,32.18
6134,30.58
6146,28.57
6158,26.3
6170,23.96
6182,21.63
6194,19.36
6206,17.02
6218,14.46
6230,11.42
6241,7.71
6252,3.25
6264,-1.88
6276,-7.4
6288,-12.93
6300,-18.08
6312,-22.65
6324,-26.7
6336,-30.65
6348,-35.12
6360,-40.72
6372,-47.69
6384,-55.61
6396,-63.36
6408,-69.36
6420,-72.17
6431,-71.01
6442,-66.0
6454,-58.12
6466,-48.75
6478,-39.23
6490,-30.42
6502,-22.74
6514,-16.24
6526,-10.91
6538,-6.69
6550,-3.62
6562,-1.64
6574,-0.59
6586,-0.22
6598,-0.21
6610,-0.31
6621,-0.39
6632,-0.46
6644,-0.59
6656,-0.9
6668,-1.45
6680,-2.21
6692,-3.08
6704,-3.93
6716,-4.75
6728,-5.68
6740,-6.99
6752,-8.97
6764,-11.79
6776,-15.45
6788,-19.68
6800,-24.2
6811,-28.74
6822,-33.25
6834,-37.85
6846,-42.83
6858,-48.51
6870,-55.07
6882,-62.5
6894,-70.43
6906,-78.12
6918,-84.48
6930,-88.28
6942,-88.49
6954,-84.55
6966,-76.59
6978,-65.36
6990,-52.01
7001,-37.68
7012,-23.33
7024,-9.6
7036,3.11
7048,14.49
7060,24.28
7072,32.37
7084,38.9
7096,44.43
7108,49.82
7120,56.04
7132,63.8
7144,73.36
7156,84.4
7168,96.23
7180,107.87
7191,118.38
7202,126.98
7214,133.21
7226,137.05
7238,138.79
7250,139.04
7262,138.42
7274,137.3
7286,135.62
7298,132.94
7310,128.61
7322,122.09
7334,113.18
7346,102.07
7358,89.21
7370,75.11
7381,60.26
7392,45.02
7404,29.75
7416,14.87
7428,0.88
7440,-11.54
7452,-21.66
7464,-28.8
7476,-32.47
7488,-32.56
7500,-29.36
7512,-23.58
7524,-16.13
7536,-7.99
7548,-0.1
7560,6.76
7571,11.86
7582,14.66
7594,14.79
7606,12.31
7618,7.63
7630,1.5
7642,-5.25
7654,-11.94
7666,-18.26
7678,-24.22
7690,-30.04
7702,-35.93
7714,-41.91
7726,-47.8
7738,-53.3
7750,-58.14
7761,-62.15
7772,-65.38
7784,-67.99
7796,-70.2
7808,-72.21
7820,-74.14
7832,-75.98
7844,-77.6
7856,-78.73
7868,-79.07
7880,-78.36
7892,-76.54
7904,-73.73
7916,-70.33
7928,-66.83
7940,-63.67
7951,-61.17
7962,-59.31
7974,-57.77
7986,-55.88
7998,-52.71
8010,-47.25
8022,-38.69
8034,-26.78
8046,-12.01
8058,4.43
8070,20.93
8082,36.03
8094,48.67
8106,58.43
8118,65.36
8130,69.75
8141,71.96
8152,72.35
8164,71.35
8176,69.45
8188,67.17
8200,64.89
8212,62.71
8224,60.5
8236,58.0
8248,55.04
8260,51.57
8272,47.67
8284,43.43
8296,38.85
8308,33.84
8320,28.31
8331,22.19
8342,15.43
8354,7.98
8366,-0.2
8378,-9.1
8390,-18.64
8402,-28.68
8414,-39.08
8426,-49.8
8438,-60.89
8450,-72.42
8462,-84.22
8474,-95.81
8486,-106.32
8498,-114.71
8510,-120.05
8521,-121.63
8532,-119.22
8544,-112.93
8556,-103.25
8568,-90.81
8580,-76.42
8592,-61.01
8604,-45.54
8616,-31.05
8628,-18.48
8640,-8.52
8652,-1.49
8664,2.72
8676,4.65
8688,5.09
8700,4.94
8711,5.04
8722,6.07
8734,8.6
8746,13.02
8758,19.5
8770,27.89
8782,37.69
8794,48.0
8806,57.78
8818,66.04
8830,72.08
8842,75.68
8854,76.91
8866,76.13
8878,73.73
8890,69.96
8901,64.9
8912,58.43
8924,50.27
8936,40.06
8948,27.64
8960,13.24
8972,-2.08
8984,-16.2
8996,-26.15
9008,-28.82
9020,-21.95
9032,-5.07
9044,20.11
9056,50.21
9068,81.26
9080,109.95
9091,134.49
9102,154.67
9114,171.33
9126,185.56
9138,197.95
9150,208.43
9162,216.4
9174,221.24
9186,222.61
9198,220.7
9210,216.08
9222,209.28
9234,200.18
9246,187.61
9258,169.49
9270,143.58
9281,108.61
9292,65.27
9304,16.43
9316,-33.45
9328,-79.63
9340,-118.32
9352,-147.45
9364,-166.58
9376,-176.45
9388,-178.47
9400,-174.59
9412,-167.23
9424,-159.05
9436,-152.34
9448,-148.13
9460,-145.85
9471,-144.02
9482,-142.1
9494,-141.92
9506,-147.76
9518,-164.38
9530,-193.81
9542,-232.96
9554,-273.46
9566,-304.53
9578,-317.12
9590,-307.63
9602,-278.79
9614,-237.73
9626,-192.55
9638,-149.18
9650,-110.37
9661,-76.54
9672,-47.56
9684,-24.01
9696,-7.1
9708,2.43
9720,5.41
9732,4.44
9744,3.13
9756,4.61
9768,10.19
9780,18.86
9792,27.96
9804,34.67
9816,37.42
9828,36.64
9840,34.27
9851,32.57
9862,32.71
9874,34.09
9886,34.6
9898,31.69
9910,23.7
9922,10.63
9934,-5.83
9946,-23.07
9958,-38.47
9970,-50.24
9982,-57.73
9994,-61.36
10006,-62.14
10018,-61.26
10030,-59.66
10041,-57.78
10052,-55.49
10064,-52.23
10076,-47.32
10088,-40.34
10100,-31.42
10112,-21.32
10124,-11.22
10136,-2.25
10148,4.88
10160,10.19
10172,14.37
10184,18.51
10196,23.86
10208,31.49
10220,42.04
10231,55.51
10242,71.12
10254,87.28
10266,101.83
10278,112.53
10290,117.74
10302,116.91
10314,110.81
10326,101.18
10338,90.12
10350,79.36
10362,69.86
10374,61.83
10386,54.95
10398,48.8
10410,43.19
10421,38.36
10432,35.12
10444,34.77
10456,38.8
10468,48.33
10480,63.5
10492,83.0
10504,104.26
10516,124.13
10528,139.82
10540,149.78
10552,154.0
10564,153.63
10576,150.23
10588,145.14
10600,139.04
10611,131.88
10622,123.22
10634,112.5
10646,99.43
10658,84.22
10670,67.76
10682,51.52
10694,37.28
10706,26.6
10718,20.33
10730,18.47
10742,20.25
10754,24.56
10766,30.34
10778,36.67
10790,42.81
10801,47.98
10812,51.47
10824,52.85
10836,52.14
10848,49.95
10860,47.2
10872,44.86
10884,43.55
10896,43.56
10908,44.71
10920,46.51
10932,48.33
10944,49.81
10956,50.8
10968,51.32
10980,51.52
10991,51.76
11002,52.62
11014,54.6
11026,57.92
11038,62.29
11050,67.32
11062,72.39
11074,76.73
11086,79.55
11098,80.17
11110,78.51
11122,74.59
11134,68.38
11146,59.55
11158,48.07
11170,33.99
11181,17.63
11192,-0.28
11204,-18.36
11216,-33.93
11228,-45.04
11240,-51.08
11252,-52.77
11264,-49.43
11276,-39.59
11288,-21.79
11300,3.67
11312,33.69
11324,64.46
11336,90.19
11348,105.25
11360,105.82
11371,94.65
11382,77.57
11394,60.35
11406,45.8
11418,33.72
11430,25.55
11442,21.46
11454,20.72
11466,20.57
11478,21.96
11490,25.4
11502,30.05
11514,33.07
11526,31.52
11538,27.77
11550,23.61
11561,18.63
11572,8.31
11584,-7.39
11596,-27.36
11608,-49.24
11620,-70.37
11632,-112.63
11644,-178.95
11656,-254.71
11668,-304.5
11680,-331.86
11692,-345.12
11704,-355.28
11716,-363.7
11728,-367.54
11740,-362.12
11751,-339.64
11762,-297.3
11774,-238.72
11786,-173.65
11798,-107.28
11810,-42.84
11822,17.82
11834,71.87
11846,115.77
11858,148.89
11870,169.82
11882,176.96
11894,168.76
11906,150.59
11918,130.52
11930,116.41
11941,112.12
11952,116.65
11964,126.52
11976,135.26
11988,136.0
12000,123.68
12012,100.28
12024,71.57
12036,43.77
12048,20.06
12060,-0.04
12072,-18.16
12084,-36.31
12096,-55.41
12108,-75.48
12120,-94.65
12131,-111.33
12142,-124.85
12154,-135.38
12166,-142.76
12178,-145.83
12190,-143.47
12202,-135.78
12214,-124.9
12226,-113.9
12238,-105.94
12250,-102.81
12262,-104.37
12274,-108.73
12286,-113.24
12298,-115.59
12310,-114.34
12321,-109.07
12332,-100.28
12344,-89.24
12356,-77.81
12368,-68.06
12380,-61.58
12392,-58.86
12404,-59.07
12416,-60.29
12428,-60.28
12440,-57.39
12452,-51.18
12464,-42.46
12476,-32.71
12488,-23.18
12500,-13.88
12511,-3.16
12522,11.98
12534,34.88
12546,67.82
12558,110.78
12570,161.01
12582,213.48
12594,262.01
12606,300.78
12618,325.82
12630,335.9
12642,333.1
12654,322.56
12666,311.7
12678,308.44
12690,318.88
12701,344.99
12712,383.45
12724,426.35
12736,463.78
12748,487.28
12760,492.57
12772,480.41
12784,455.38
12796,423.44
12808,389.53
12820,356.41
12832,324.97
12844,295.1
12856,266.75
12868,240.01
12880,214.83
12891,190.45
12902,165.4
12914,137.96
12926,107.09
12938,72.97
12950,37.01
12962,1.38
12974,-31.94
12986,-61.93
12998,-88.84
13010,-113.87
13022,-138.4
13034,-163.26
13046,-188.25
13058,-212.27
13070,-233.67
13081,-250.88
13092,-262.81
13104,-269.0
13116,-269.73
13128,-265.78
13140,-258.37
13152,-248.8
13164,-238.35
13176,-227.98
13188,-218.37
13200,-209.98
13212,-203.14
13224,-198.12
13236,-194.96
13248,-193.35
13260,-192.42
13271,-190.95
13282,-187.74
13294,-181.98
13306,-173.6
13318,-163.04
13330,-151.08
13342,-138.44
13354,-125.68
13366,-113.19
13378,-101.25
13390,-90.07
13402,-79.67
13414,-69.85
13426,-60.14
13438,-50.07
13450,-39.36
13461,-28.1
13472,-16.61
13484,-5.27
13496,5.68
13508,16.16
13520,25.97
13532,34.69
13544,41.66
13556,46.28
13568,48.45
13580,48.81
13592,48.49
13604,48.7
13616,50.16
13628,52.89
13640,56.4
13651,60.11
13662,63.66
13674,67.05
13686,70.3
13698,73.15
13710,74.95
13722,74.82
13734,72.04
13746,66.44
13758,58.46
13770,48.83
13782,38.23
13794,26.93
13806,14.84
13818,1.85
13830,-11.77
13841,-25.24
13852,-37.53
13864,-47.85
13876,-56.09
13888,-62.85
13900,-68.99
13912,-75.15
13924,-81.37
13936,-87.21
13948,-92.13
13960,-95.89
13972,-98.71
13984,-100.95
13996,-102.87
14008,-104.3
14020,-104.82
14031,-104.03
14042,-101.83
14054,-98.63
14066,-95.03
14078,-91.67
14090,-88.9
14102,-86.8
14114,-85.28
14126,-84.25
14138,-83.7
14150,-83.65
14162,-84.05
14174,-84.65
14186,-85.1
14198,-85.02
14210,-84.21
14221,-82.73
14232,-80.83
14244,-78.83
14256,-76.89
14268,-75.06
14280,-73.32
14292,-71.73
14304,-70.54
14316,-70.03
14328,-70.34
14340,-71.34
14352,-72.57
14364,-73.43
14376,-73.4
14388,-72.17
14400,-69.72
14411,-66.23
14422,-61.95
14434,-57.08
14446,-51.76
14458,-46.09
14470,-40.28
14482,-34.66
14494,-29.68
14506,-25.74
14518,-23.07
14530,-21.63
14542,-21.14
14554,-21.18
14566,-21.41
14578,-21.56
14590,-21.55
14601,-21.38
14612,-20.94
14624,-20.12
14636,-18.75
14648,-16.79
14660,-14.43
14672,-12.08
14684,-10.24
14696,-9.25
14708,-9.17
14720,-9.73
14732,-10.55
14744,-11.37
14756,-12.11
14768,-12.95
14780,-14.02
14791,-15.24
14802,-16.28
14814,-16.66
14826,-16.03
14838,-14.4
14850,-12.13
14862,-9.83
14874,-8.1
14886,-7.31
14898,-7.55
14910,-8.64
14922,-10.25
14934,-12.04
14946,-13.69
14958,-14.96
14970,-15.74
14981,-16.15
14992,-16.42
15004,-16.94
15016,-18.02
15028,-19.85
15040,-22.39
15052,-25.47
15064,-28.77
15076,-31.95
15088,-34.69
15100,-36.76
15112,-38.0
15124,-38.45
15136,-38.32
15148,-38.04
15160,-38.13
15171,-38.98
15182,-40.59
15194,-42.42
15206,-43.57
15218,-43.16
15230,-40.78
15242,-36.74
15254,-31.99
15266,-27.71
15278,-24.79
15290,-23.57
15302,-23.77
15314,-24.91
15326,-26.66
15338,-29.0
15350,-32.12
15361,-36.08
15372,-40.65
15384,-45.38
15396,-49.8
15408,-53.74
15420,-57.38
15432,-61.1
15444,-65.17
15456,-69.54
15468,-73.9
15480,-77.87
15492,-81.25
15504,-84.1
15516,-86.66
15528,-89.31
15540,-92.34
15551,-95.87
15562,-99.79
15574,-103.74
15586,-107.13
15598,-109.32
15610,-109.79
15622,-108.31
15634,-105.02
15646,-100.12
15658,-93.77
15670,-85.92
15682,-76.38
15694,-65.12
15706,-52.4
15718,-38.9
15730,-25.44
15741,-12.77
15752,-1.29
15764,8.85
15776,17.71
15788,25.34
15800,31.69
15812,36.63
15824,40.06
15836,42.1
15848,43.03
15860,43.37
15872,43.58
15884,43.97
15896,44.56
15908,45.01
15920,44.88
15931,43.84
15942,41.79
15954,38.96
15966,35.75
15978,32.51
15990,29.41
16002,26.41
16014,23.37
16026,20.17
16038,16.87
16050,13.71
16062,11.08
16074,9.44
16086,9.29
16098,11.01
16110,14.74
16121,20.32
16132,27.3
16144,35.06
16156,42.93
16168,50.3
16180,56.79
16192,62.18
16204,66.41
16216,69.53
16228,71.63
16240,72.89
16252,73.48
16264,73.56
16276,73.21
16288,72.44
16300,71.2
16311,69.42
16322,66.99
16334,63.86
16346,60.0
16358,55.48
16370,50.43
16382,45.06
16394,39.62
16406,34.3
16418,29.24
16430,24.41
16442,19.72
16454,15.12
16466,10.53
16478,6.0
16490,1.63
16501,-2.47
16512,-6.15
16524,-9.22
16536,-11.37
16548,-12.17
16560,-11.16
16572,-8.03
16584,-2.84
16596,3.98
16608,11.65
16620,19.3
16632,26.26
16644,32.22
16656,37.26
16668,41.66
16680,45.7
16691,49.48
16702,52.9
16714,55.8
16726,58.05
16738,59.68
16750,60.87
16762,61.81
16774,62.69
16786,63.63
16798,64.63
16810,65.57
16822,66.27
16834,66.61
16846,66.5
16858,65.97
16870,65.1
16881,63.96
16892,62.54
16904,60.74
16916,58.45
16928,55.5
16940,51.79
16952,47.29
16964,42.05
16976,36.27
16988,30.35
17000,24.8
17012,20.23
17024,17.14
17036,15.82
17048,16.35
17060,18.63
17071,22.48
17082,27.57
17094,33.48
17106,39.54
17118,44.99
17130,49.14
17142,51.63
17154,52.54
17166,52.38
17178,51.71
17190,50.95
17202,50.15
17214,49.1
17226,47.48
17238,45.12
17250,42.15
17261,38.89
17272,35.75
17284,32.98
17296,30.66
17308,28.75
17320,27.16
17332,25.85
17344,24.92
17356,24.55
17368,24.96
17380,26.34
17392,28.8
17404,32.34
17416,36.79
17428,41.9
17440,47.37
17451,53.01
17462,58.79
17474,64.96
17486,72.02
17498,80.47
17510,90.78
17522,103.03
17534,116.86
17546,131.43
17558,145.65
17570,158.45
17582,169.07
17594,177.26
17606,183.18
17618,187.22
17630,189.73
17641,190.95
17652,191.04
17664,190.22
17676,188.77
17688,187.01
17700,185.05
17712,182.7
17724,179.44
17736,174.74
17748,168.19
17760,159.79
17772,149.92
17784,139.13
17796,127.97
17808,116.77
17820,105.62
17831,94.4
17842,82.78
17854,70.17
17866,55.82
17878,38.97
17890,19.31
17902,-2.72
17914,-25.73
17926,-47.66
17938,-66.41
17950,-80.58
17962,-89.88
17974,-95.13
17986,-97.76
17998,-99.16
18010,-100.16
18021,-100.98
18032,-101.48
18044,-101.56
18056,-101.37
18068,-101.32
18080,-101.69
18092,-102.43
18104,-103.04
18116,-102.79
18128,-101.18
18140,-98.28
18152,-94.74
18164,-91.58
18176,-89.66
18188,-89.25
18200,-89.95
18211,-90.88
18222,-91.24
18234,-90.6
18246,-89.16
18258,-87.44
18270,-86.03
18282,-85.36
18294,-85.57
18306,-86.71
18318,-88.8
18330,-91.89
18342,-95.93
18354,-100.55
18366,-104.97
18378,-108.22
18390,-109.46
18401,-108.42
18412,-105.54
18424,-101.79
18436,-98.19
18448,-95.35
18460,-93.34
18472,-91.79
18484,-90.36
18496,-89.08
18508,-88.37
18520,-88.9
18532,-91.24
18544,-95.67
18556,-102.09
18568,-110.06
18580,-118.92
18591,-127.72
18602,-135.36
18614,-140.55
18626,-142.14
18638,-139.41
18650,-132.34
18662,-121.67
18674,-108.74
18686,-95.19
18698,-82.48
18710,-71.66
18722,-63.17
18734,-56.89
18746,-52.23
18758,-48.37
18770,-44.39
18781,-39.46
18792,-33.0
18804,-24.73
18816,-14.8
18828,-3.67
18840,7.94
18852,19.33
18864,30.08
18876,40.12
18888,49.7
18900,59.13
18912,68.57
18924,77.84
18936,86.57
18948,94.36
18960,100.98
18971,106.41
18982,110.71
18994,113.83
19006,115.59
19018,115.61
19030,113.54
19042,109.18
19054,102.45
19066,93.42
19078,82.19
19090,68.88
19102,53.74
19114,37.21
19126,20.02
19138,3.05
19150,-12.75
19161,-26.51
19172,-37.47
19184,-45.04
19196,-48.76
19208,-48.33
19220,-43.69
19232,-35.12
19244,-23.2
19256,-8.84
19268,6.76
19280,22.21
19292,36.08
19304,47.0
19316,54.0
19328,56.84
19340,56.0
19351,52.64
19362,48.26
19374,44.18
19386,41.18
19398,39.32
19410,37.95
19422,36.12
19434,33.0
19446,28.21
19458,21.9
19470,14.57
19482,6.8
19494,-1.03
19506,-8.71
19518,-16.15
19530,-23.17
19541,-29.45
19552,-34.68
19564,-38.6
19576,-41.17
19588,-42.56
19600,-42.98
19612,-42.54
19624,-41.24
19636,-38.96
19648,-35.71
19660,-31.63
19672,-27.01
19684,-22.2
19696,-17.5
19708,-13.09
19720,-9.03
19731,-5.37
19742,-2.13
19754,0.52
19766,2.38
19778,3.17
19790,2.62
19802,0.67
19814,-2.46
19826,-6.25
19838,-9.99
19850,-13.01
19862,-15.0
19874,-16.16
19886,-17.24
19898,-19.2
19910,-22.82
19921,-28.34
19932,-35.3
19944,-42.7
19956,-49.39
19968,-54.47
19980,-57.49
19992,-58.49
20004,-57.86
20016,-56.17
20028,-54.08
20040,-52.25
20052,-51.26
20064,-51.51
20076,-53.16
20088,-56.11
20100,-60.01
20111,-64.42
20122,-68.96
20134,-73.3
20146,-77.16
20158,-80.31
20170,-82.55
20182,-83.82
20194,-84.34
20206,-84.61
20218,-85.22
20230,-86.66
20242,-88.99
20254,-91.82
20266,-94.47
20278,-96.3
20290,-97.0
20301,-96.69
20312,-95.77
20324,-94.68
20336,-93.71
20348,-93.01
20360,-92.64
20372,-92.66
20384,-93.08
20396,-93.63
20408,-93.76
20420,-92.47
20432,-88.6
20444,-81.18
20456,-69.77
20468,-54.65
20480,-36.79
20491,-17.52
20502,1.74
20514,19.76
20526,35.64
20538,48.78
20550,58.79
20562,65.51
20574,69.04
20586,69.81
20598,68.7
20610,66.81
20622,65.19
20634,64.44
20646,64.44
20658,64.39
20670,63.18
20681,59.96
20692,54.56
20704,47.54
20716,39.93
20728,32.62
20740,25.95
20752,19.63
20764,12.97
20776,5.3
20788,-3.65
20800,-13.62
20812,-23.81
20824,-33.03
20836,-39.88
20848,-42.88
20860,-40.8
20871,-33.09
20882,-20.17
20894,-3.43
20906,15.13
20918,33.55
20930,50.51
20942,65.46
20954,78.26
20966,88.83
20978,96.73
20990,101.38
