seconds,BVP
6,-55.8
17,-47.6
28,-36.07
40,-22.42
52,-8.09
64,5.61
76,17.74
88,27.8
100,35.67
112,41.52
124,45.64
136,48.36
148,49.95
160,50.64
172,50.59
184,49.95
196,48.88
207,47.51
218,46.01
230,44.5
242,43.05
254,41.7
266,40.5
278,39.51
290,38.79
302,38.38
314,38.26
326,38.29
338,38.25
350,37.86
362,36.86
374,35.09
386,32.53
397,29.28
408,25.56
420,21.61
432,17.62
444,13.72
456,9.93
468,6.2
480,2.42
492,-1.52
504,-5.7
516,-10.13
528,-14.76
540,-19.49
552,-24.18
564,-28.72
576,-33.05
587,-37.23
598,-41.37
610,-45.64
622,-50.25
634,-55.35
646,-60.98
658,-66.85
670,-72.32
682,-76.35
694,-77.67
706,-75.2
718,-68.46
730,-57.8
742,-44.39
754,-29.86
766,-15.81
777,-3.31
788,7.16
800,15.69
812,22.61
824,28.23
836,32.71
848,36.07
860,38.31
872,39.49
884,39.79
896,39.43
908,38.6
920,37.47
932,36.13
944,34.63
956,33.05
967,31.48
978,30.09
990,29.03
1002,28.38
1014,28.1
1026,28.01
1038,27.86
1050,27.46
1062,26.69
1074,25.59
1086,24.24
1098,22.77
1110,21.2
1122,19.48
1134,17.53
1146,15.29
1157,12.8
1168,10.19
1180,7.63
1192,5.27
1204,3.16
1216,1.18
1228,-0.92
1240,-3.45
1252,-6.69
1264,-10.72
1276,-15.39
1288,-20.4
1300,-25.38
1312,-30.04
1324,-34.31
1336,-38.33
1347,-42.4
1358,-46.9
1370,-52.18
1382,-58.44
1394,-65.6
1406,-73.19
1418,-80.29
1430,-85.65
1442,-87.94
1454,-86.19
1466,-80.15
1478,-70.42
1490,-58.32
1502,-45.45
1514,-33.19
1526,-22.42
1537,-13.41
1548,-6.05
1560,0.02
1572,5.17
1584,9.74
1596,14.04
1608,18.27
1620,22.54
1632,26.75
1644,30.76
1656,34.48
1668,37.98
1680,41.57
1692,45.69
1704,50.67
1716,56.6
1727,63.32
1738,70.54
1750,77.9
1762,85.12
1774,91.96
1786,98.15
1798,103.35
1810,107.26
1822,109.61
1834,110.36
1846,109.61
1858,107.64
1870,104.73
1882,101.11
1894,96.9
1906,92.07
1917,86.52
1928,80.08
1940,72.6
1952,63.96
1964,54.1
1976,43.15
1988,31.45
2000,19.48
2012,7.76
2024,-3.37
2036,-13.9
2048,-24.2
2060,-34.94
2072,-46.73
2084,-59.85
2096,-74.04
2107,-88.38
2118,-101.57
2130,-112.15
2142,-118.88
2154,-121.04
2166,-118.58
2178,-112.12
2190,-102.81
2202,-91.97
2214,-80.91
2226,-70.59
2238,-61.59
2250,-54.09
2262,-48.02
2274,-43.15
2286,-39.22
2297,-35.97
2308,-33.19
2320,-30.73
2332,-28.51
2344,-26.49
2356,-24.7
2368,-23.1
2380,-21.63
2392,-20.19
2404,-18.69
2416,-17.07
2428,-15.34
2440,-13.52
2452,-11.69
2464,-9.97
2476,-8.53
2487,-7.61
2498,-7.42
2510,-8.05
2522,-9.39
2534,-11.16
2546,-13.0
2558,-14.62
2570,-15.94
2582,-17.04
2594,-18.09
2606,-19.23
2618,-20.51
2630,-21.84
2642,-23.13
2654,-24.31
2666,-25.33
2677,-26.21
2688,-26.96
2700,-27.61
2712,-28.22
2724,-28.98
2736,-30.21
2748,-32.36
2760,-35.89
2772,-41.0
2784,-47.42
2796,-54.2
2808,-59.86
2820,-62.72
2832,-61.36
2844,-55.16
2856,-44.5
2867,-30.57
2878,-15.03
2890,0.47
2902,14.72
2914,27.05
2926,37.28
2938,45.64
2950,52.56
2962,58.59
2974,64.23
2986,69.87
2998,75.67
3010,81.52
3022,87.06
3034,91.78
3046,95.16
3057,96.84
3068,96.78
3080,95.18
3092,92.46
3104,89.07
3116,85.34
3128,81.45
3140,77.44
3152,73.25
3164,68.83
3176,64.19
3188,59.33
3200,54.23
3212,48.83
3224,43.08
3236,36.96
3247,30.6
3258,24.23
3270,18.09
3282,12.26
3294,6.65
3306,0.89
3318,-5.39
3330,-12.44
3342,-20.17
3354,-28.14
3366,-35.69
3378,-42.21
3390,-47.4
3402,-51.4
3414,-54.71
3426,-57.96
3437,-61.7
3448,-66.19
3460,-71.29
3472,-76.5
3484,-80.96
3496,-83.61
3508,-83.41
3520,-79.57
3532,-71.85
3544,-60.7
3556,-47.16
3568,-32.65
3580,-18.55
3592,-5.91
3604,4.73
3616,13.28
3627,19.91
3638,24.91
3650,28.52
3662,30.9
3674,32.29
3686,32.93
3698,33.09
3710,33.02
3722,32.82
3734,32.44
3746,31.77
3758,30.7
3770,29.26
3782,27.61
3794,26.01
3806,24.73
3817,23.9
3828,23.57
3840,23.59
3852,23.75
3864,23.77
3876,23.44
3888,22.6
3900,21.22
3912,19.36
3924,17.18
3936,14.84
3948,12.45
3960,10.04
3972,7.5
3984,4.66
3996,1.41
4007,-2.25
4018,-6.15
4030,-10.06
4042,-13.75
4054,-17.12
4066,-20.23
4078,-23.27
4090,-26.48
4102,-30.07
4114,-34.22
4126,-38.91
4138,-43.91
4150,-48.59
4162,-52.04
4174,-53.1
4186,-50.81
4197,-44.76
4208,-35.3
4220,-23.52
4232,-10.84
4244,1.34
4256,12.11
4268,21.02
4280,27.99
4292,33.09
4304,36.43
4316,38.13
4328,38.45
4340,37.76
4352,36.56
4364,35.31
4376,34.23
4387,33.33
4398,32.47
4410,31.5
4422,30.41
4434,29.34
4446,28.51
4458,28.14
4470,28.35
4482,29.06
4494,30.04
4506,30.85
4518,31.06
4530,30.32
4542,28.54
4554,25.87
4566,22.63
4577,19.17
4588,15.65
4600,12.08
4612,8.25
4624,3.95
4636,-0.95
4648,-6.4
4660,-12.15
4672,-17.84
4684,-23.15
4696,-27.94
4708,-32.4
4720,-37.02
4732,-42.46
4744,-49.29
4756,-57.65
4767,-67.02
4778,-76.22
4790,-83.65
4802,-87.78
4814,-87.57
4826,-82.8
4838,-74.14
4850,-62.93
4862,-50.79
4874,-39.21
4886,-29.18
4898,-21.16
4910,-15.15
4922,-10.89
4934,-8.05
4946,-6.38
4957,-5.67
4968,-5.68
4980,-6.16
4992,-6.78
5004,-7.26
5016,-7.37
5028,-6.98
5040,-6.08
5052,-4.66
5064,-2.76
5076,-0.36
5088,2.53
5100,5.82
5112,9.36
5124,13.01
5136,16.58
5147,19.92
5158,22.88
5170,25.33
5182,27.23
5194,28.55
5206,29.3
5218,29.49
5230,29.12
5242,28.12
5254,26.3
5266,23.48
5278,19.51
5290,14.45
5302,8.56
5314,2.22
5326,-4.19
5337,-10.34
5348,-16.08
5360,-21.47
5372,-26.76
5384,-32.27
5396,-38.26
5408,-44.85
5420,-51.91
5432,-58.96
5444,-64.76
5456,-67.83
5468,-66.92
5480,-61.46
5492,-51.79
5504,-39.0
5516,-24.7
5527,-10.61
5538,1.81
5550,12.34
5562,21.26
5574,28.98
5586,35.55
5598,40.83
5610,44.61
5622,46.73
5634,47.07
5646,45.59
5658,43.35
5670,41.42
5682,40.35
5694,39.98
5706,39.84
5717,39.78
5728,40.02
5740,41.08
5752,43.44
5764,48.63
5776,57.69
5788,70.46
5800,85.56
5812,101.3
5824,116.66
5836,131.49
5848,146.45
5860,153.82
5872,148.09
5884,128.58
5896,100.3
5907,69.99
5918,42.23
5930,18.92
5942,0.34
5954,-13.51
5966,-22.94
5978,-27.26
5990,-26.44
6002,-21.64
6014,-15.27
6026,-9.95
6038,-6.64
6050,-6.8
6062,-10.89
6074,-18.68
6086,-28.33
6097,-37.67
6108,-44.82
6120,-48.77
6132,-49.13
6144,-46.0
6156,-40.11
6168,-32.58
6180,-24.83
6192,-17.62
6204,-11.3
6216,-5.93
6228,-1.74
6240,1.15
6252,2.84
6264,3.38
6276,2.88
6287,1.32
6298,-1.0
6310,-3.75
6322,-6.62
6334,-9.54
6346,-12.45
6358,-15.34
6370,-18.24
6382,-21.2
6394,-24.36
6406,-27.83
6418,-31.71
6430,-35.96
6442,-40.32
6454,-44.16
6466,-46.65
6477,-46.98
6488,-44.67
6500,-39.82
6512,-33.04
6524,-25.38
6536,-17.93
6548,-11.57
6560,-6.76
6572,-3.61
6584,-1.97
6596,-1.64
6608,-2.41
6620,-4.11
6632,-6.54
6644,-9.34
6656,-12.03
6667,-14.07
6678,-15.14
6690,-15.27
6702,-14.93
6714,-14.92
6726,-16.04
6738,-18.86
6750,-23.46
6762,-29.42
6774,-35.88
6786,-41.79
6798,-46.09
6810,-47.84
6822,-46.47
6834,-41.87
6846,-34.48
6857,-25.18
6868,-15.09
6880,-5.23
6892,3.8
6904,11.92
6916,19.37
6928,26.45
6940,33.18
6952,39.14
6964,43.69
6976,46.15
6988,46.25
7000,44.28
7012,41.04
7024,37.53
7036,34.58
7047,32.54
7058,31.33
7070,30.49
7082,29.51
7094,28.12
7106,26.43
7118,24.81
7130,23.68
7142,23.24
7154,23.3
7166,23.38
7178,22.87
7190,21.19
7202,18.07
7214,13.67
7226,8.64
7237,3.97
7248,0.79
7260,0.14
7272,2.6
7284,8.04
7296,15.59
7308,23.85
7320,31.38
7332,36.81
7344,38.78
7356,36.05
7368,27.75
7380,13.68
7392,-5.48
7404,-28.49
7416,-53.58
7427,-78.64
7438,-101.63
7450,-120.84
7462,-134.99
7474,-143.07
7486,-144.43
7498,-139.11
7510,-128.49
7522,-114.47
7534,-98.64
7546,-81.71
7558,-63.76
7570,-44.88
7582,-25.46
7594,-6.42
7606,10.75
7617,23.82
7628,31.07
7640,32.17
7652,28.37
7664,22.02
7676,15.91
7688,13.35
7700,17.54
7712,32.77
7724,58.32
7736,86.2
7748,105.08
7760,107.51
7772,93.43
7784,68.17
7796,39.4
7807,13.82
7818,-5.24
7830,-18.39
7842,-28.04
7854,-35.9
7866,-43.44
7878,-48.58
7890,-49.73
7902,-46.71
7914,-40.71
7926,-33.95
7938,-28.8
7950,-26.35
7962,-25.86
7974,-25.29
7986,-22.53
7997,-16.98
8008,-9.41
8020,-0.96
8032,6.35
8044,10.63
8056,11.06
8068,8.26
8080,3.98
8092,0.45
8104,-0.71
8116,1.38
8128,6.88
8140,15.12
8152,24.94
8164,35.11
8176,44.79
8187,53.6
8198,61.51
8210,68.34
8222,73.75
8234,77.37
8246,78.82
8258,78.04
8270,75.46
8282,71.87
8294,68.12
8306,64.84
8318,61.99
8330,59.12
8342,55.67
8354,51.28
8366,46.13
8377,40.79
8388,35.91
8400,31.94
8412,28.94
8424,26.71
8436,25.01
8448,23.75
8460,22.95
8472,22.69
8484,22.84
8496,23.05
8508,22.86
8520,21.93
8532,20.15
8544,17.62
8556,14.54
8567,11.04
8578,7.15
8590,2.87
8602,-1.74
8614,-6.49
8626,-11.09
8638,-15.26
8650,-18.91
8662,-22.2
8674,-25.54
8686,-29.52
8698,-34.72
8710,-41.55
8722,-50.1
8734,-60.13
8746,-71.1
8757,-82.24
8768,-92.66
8780,-101.37
8792,-107.45
8804,-110.09
8816,-108.83
8828,-103.72
8840,-95.36
8852,-84.78
8864,-73.19
8876,-61.6
8888,-50.55
8900,-40.15
8912,-30.25
8924,-20.85
8936,-12.34
8947,-5.5
8958,-1.19
8970,0.15
8982,-1.29
8994,-4.69
9006,-8.96
9018,-13.14
9030,-16.7
9042,-19.45
9054,-21.33
9066,-22.17
9078,-21.73
9090,-19.92
9102,-16.99
9114,-13.59
9126,-10.51
9137,-8.27
9148,-7.01
9160,-6.43
9172,-6.02
9184,-5.31
9196,-4.04
9208,-2.21
9220,-0.02
9232,2.25
9244,4.32
9256,6.01
9268,7.21
9280,8.0
9292,8.71
9304,9.77
9316,11.54
9327,14.12
9338,17.22
9350,20.27
9362,22.56
9374,23.38
9386,22.33
9398,19.58
9410,15.82
9422,12.15
9434,9.72
9446,9.34
9458,11.4
9470,15.61
9482,21.03
9494,26.46
9506,31.04
9517,34.35
9528,36.28
9540,36.77
9552,35.55
9564,32.54
9576,27.72
9588,21.08
9600,12.84
9612,4.04
9624,-4.15
9636,-10.89
9648,-16.07
9660,-20.49
9672,-24.42
9684,-27.97
9696,-31.12
9707,-33.69
9718,-34.66
9730,-33.23
9742,-29.33
9754,-23.8
9766,-18.44
9778,-13.53
9790,-8.69
9802,-3.25
9814,3.46
9826,12.82
9838,25.72
9850,41.97
9862,60.29
9874,78.16
9886,94.88
9897,110.46
9908,124.96
9920,131.04
9932,122.92
9944,99.71
9956,66.45
9968,35.92
9980,9.64
9992,-12.42
10004,-29.98
10016,-43.74
10028,-53.15
10040,-57.05
10052,-55.19
10064,-48.58
10076,-39.15
10087,-29.71
10098,-20.81
10110,-12.07
10122,-3.08
10134,6.37
10146,16.71
10158,27.87
10170,38.97
10182,48.45
10194,54.03
10206,55.17
10218,52.37
10230,46.64
10242,39.24
10254,31.62
10266,24.69
10277,18.66
10288,13.21
10300,7.68
10312,2.63
10324,-1.02
10336,-2.66
10348,-2.42
10360,-1.06
10372,0.22
10384,0.33
10396,-1.23
10408,-4.36
10420,-8.04
10432,-11.23
10444,-13.47
10456,-14.81
10467,-15.51
10478,-15.62
10490,-14.76
10502,-12.48
10514,-8.82
10526,-4.41
10538,-0.52
10550,1.56
10562,1.2
10574,-1.13
10586,-4.06
10598,-6.03
10610,-6.11
10622,-4.51
10634,-2.36
10646,-1.24
10657,-2.35
10668,-6.13
10680,-12.2
10692,-19.62
10704,-27.34
10716,-34.39
10728,-39.99
10740,-43.5
10752,-44.42
10764,-42.46
10776,-37.65
10788,-30.43
10800,-21.64
10812,-12.33
10824,-3.45
10836,4.35
10847,10.93
10858,16.53
10870,21.64
10882,26.66
10894,31.82
10906,37.07
10918,42.19
10930,46.99
10942,51.43
10954,55.74
10966,60.35
10978,65.78
10990,72.38
11002,80.18
11014,88.78
11026,97.48
11037,105.47
11048,112.02
11060,116.64
11072,119.06
11084,119.19
11096,117.04
11108,112.69
11120,106.44
11132,98.77
11144,90.26
11156,81.37
11168,72.24
11180,62.53
11192,51.68
11204,39.13
11216,24.76
11227,9.01
11238,-7.26
11250,-23.14
11262,-38.11
11274,-52.2
11286,-65.89
11298,-79.7
11310,-93.86
11322,-108.18
11334,-122.19
11346,-135.36
11358,-147.28
11370,-157.54
11382,-165.49
11394,-170.13
11406,-170.23
11417,-164.85
11428,-153.78
11440,-137.88
11452,-118.88
11464,-98.87
11476,-79.69
11488,-62.53
11500,-47.81
11512,-35.41
11524,-24.99
11536,-16.15
11548,-8.55
11560,-1.89
11572,4.04
11584,9.35
11596,14.0
11607,17.79
11618,20.5
11630,21.94
11642,22.07
11654,20.93
11666,18.64
11678,15.34
11690,11.16
11702,6.24
11714,0.67
11726,-5.5
11738,-12.37
11750,-20.08
11762,-28.75
11774,-38.36
11786,-48.66
11797,-59.21
11808,-69.48
11820,-79.04
11832,-87.6
11844,-95.0
11856,-101.17
11868,-105.87
11880,-108.73
11892,-109.29
11904,-107.15
11916,-102.22
11928,-94.76
11940,-85.36
11952,-74.75
11964,-63.55
11976,-52.06
11987,-40.27
11998,-27.9
12010,-14.63
12022,-0.23
12034,15.31
12046,31.81
12058,48.95
12070,66.26
12082,83.08
12094,98.66
12106,112.2
12118,123.11
12130,131.15
12142,136.46
12154,139.39
12166,140.27
12177,139.16
12188,135.83
12200,130.0
12212,121.55
12224,110.77
12236,98.35
12248,85.17
12260,72.12
12272,59.86
12284,48.78
12296,38.98
12308,30.41
12320,22.88
12332,16.07
12344,9.67
12356,3.33
12367,-3.17
12378,-9.94
12390,-17.02
12402,-24.4
12414,-32.13
12426,-40.35
12438,-49.2
12450,-58.74
12462,-68.84
12474,-79.18
12486,-89.34
12498,-98.99
12510,-107.95
12522,-116.18
12534,-123.75
12546,-130.7
12557,-137.1
12568,-143.0
12580,-148.51
12592,-153.56
12604,-157.85
12616,-160.59
12628,-160.66
12640,-156.93
12652,-148.63
12664,-135.7
12676,-118.69
12688,-98.43
12700,-75.61
12712,-50.67
12724,-24.02
12736,3.56
12747,30.54
12758,54.82
12770,74.14
12782,86.8
12794,92.17
12806,90.78
12818,84.1
12830,74.12
12842,62.93
12854,52.38
12866,43.9
12878,38.36
12890,35.99
12902,36.49
12914,39.22
12926,43.48
12937,48.7
12948,54.59
12960,60.96
12972,67.59
12984,74.04
12996,79.68
13008,83.81
13020,85.9
13032,85.8
13044,83.82
13056,80.66
13068,77.07
13080,73.64
13092,70.58
13104,67.77
13116,64.98
13127,62.08
13138,59.17
13150,56.44
13162,53.92
13174,51.28
13186,47.79
13198,42.62
13210,35.17
13222,25.36
13234,13.74
13246,1.31
13258,-10.7
13270,-21.12
13282,-28.97
13294,-33.46
13306,-34.09
13317,-30.68
13328,-23.46
13340,-13.14
13352,-0.92
13364,11.73
13376,23.32
13388,32.61
13400,38.87
13412,41.85
13424,41.73
13436,38.97
13448,34.22
13460,28.31
13472,22.24
13484,17.12
13496,13.91
13507,13.11
13518,14.49
13530,17.07
13542,19.52
13554,20.73
13566,20.26
13578,18.46
13590,16.25
13602,14.44
13614,13.35
13626,12.54
13638,11.09
13650,8.11
13662,3.21
13674,-3.21
13686,-10.12
13697,-16.27
13708,-20.6
13720,-22.64
13732,-22.54
13744,-20.93
13756,-18.58
13768,-16.09
13780,-13.77
13792,-11.73
13804,-10.12
13816,-9.28
13828,-9.71
13840,-11.84
13852,-15.8
13864,-21.07
13876,-26.64
13887,-31.12
13898,-33.11
13910,-31.59
13922,-26.11
13934,-16.92
13946,-4.92
13958,8.5
13970,21.63
13982,32.79
13994,40.65
14006,44.52
14018,44.5
14030,41.42
14042,36.52
14054,31.09
14066,26.08
14077,21.9
14088,18.45
14100,15.4
14112,12.51
14124,9.86
14136,7.85
14148,6.89
14160,7.19
14172,8.48
14184,10.12
14196,11.21
14208,10.99
14220,9.01
14232,5.21
14244,-0.15
14256,-6.7
14267,-14.05
14278,-21.9
14290,-29.91
14302,-37.77
14314,-45.1
14326,-51.57
14338,-56.95
14350,-61.14
14362,-64.16
14374,-66.04
14386,-66.81
14398,-66.51
14410,-65.22
14422,-63.23
14434,-61.05
14446,-59.37
14457,-58.95
14468,-60.2
14480,-63.03
14492,-66.58
14504,-69.42
14516,-69.94
14528,-66.89
14540,-59.85
14552,-49.39
14564,-36.81
14576,-23.61
14588,-10.98
14600,0.4
14612,10.31
14624,18.7
14636,25.47
14647,30.46
14658,33.6
14670,35.06
14682,35.32
14694,34.93
14706,34.35
14718,33.74
14730,33.0
14742,31.94
14754,30.49
14766,28.79
14778,27.15
14790,25.91
14802,25.25
14814,25.15
14826,25.32
14837,25.34
14848,24.78
14860,23.38
14872,21.08
14884,18.08
14896,14.64
14908,11.04
14920,7.42
14932,3.82
14944,0.2
14956,-3.56
14968,-7.6
14980,-12.07
14992,-17.14
15004,-22.87
15016,-29.23
15027,-36.03
15038,-42.97
15050,-49.76
15062,-56.2
15074,-62.22
15086,-67.77
15098,-72.78
15110,-77.03
15122,-80.07
15134,-81.24
15146,-79.76
15158,-74.89
15170,-66.13
15182,-53.44
15194,-37.39
15206,-19.06
15217,0.08
15228,18.64
15240,35.51
15252,50.1
15264,62.2
15276,71.91
15288,79.36
15300,84.69
15312,88.06
15324,89.77
15336,90.27
15348,90.11
15360,89.79
15372,89.65
15384,89.86
15396,90.38
15407,91.15
15418,92.06
15430,92.98
15442,93.73
15454,94.05
15466,93.62
15478,92.19
15490,89.6
15502,85.88
15514,81.23
15526,75.91
15538,70.16
15550,64.06
15562,57.56
15574,50.46
15586,42.55
15597,33.71
15608,23.93
15620,13.34
15632,2.19
15644,-9.2
15656,-20.38
15668,-30.87
15680,-40.18
15692,-47.91
15704,-53.93
15716,-58.45
15728,-62.02
15740,-65.4
15752,-69.3
15764,-74.11
15776,-79.64
15787,-85.07
15798,-89.08
15810,-90.23
15822,-87.46
15834,-80.4
15846,-69.62
15858,-56.43
15870,-42.49
15882,-29.26
15894,-17.71
15906,-8.17
15918,-0.5
15930,5.56
15942,10.24
15954,13.63
15966,15.74
15977,16.68
15988,16.68
16000,16.07
16012,15.19
16024,14.28
16036,13.4
16048,12.54
16060,11.66
16072,10.74
16084,9.86
16096,9.1
16108,8.52
16120,8.03
16132,7.49
16144,6.67
16156,5.42
16167,3.69
16178,1.51
16190,-1.03
16202,-3.87
16214,-6.97
16226,-10.34
16238,-13.97
16250,-17.8
16262,-21.71
16274,-25.57
16286,-29.25
16298,-32.72
16310,-36.07
16322,-39.54
16334,-43.41
16346,-47.84
16357,-52.66
16368,-57.22
16380,-60.47
16392,-61.19
16404,-58.45
16416,-51.98
16428,-42.34
16440,-30.75
16452,-18.67
16464,-7.34
16476,2.46
16488,10.43
16500,16.56
16512,20.92
16524,23.55
16536,24.5
16547,23.88
16558,21.96
16570,19.16
16582,15.94
16594,12.65
16606,9.51
16618,6.56
16630,3.73
16642,0.94
16654,-1.85
16666,-4.67
16678,-7.54
16690,-10.44
16702,-13.32
16714,-15.99
16726,-18.12
16737,-19.33
16748,-19.34
16760,-18.15
16772,-16.1
16784,-13.82
16796,-11.94
16808,-10.89
16820,-10.75
16832,-11.26
16844,-12.09
16856,-12.98
16868,-13.93
16880,-15.14
16892,-16.91
16904,-19.53
16916,-23.19
16927,-27.88
16938,-33.3
16950,-38.78
16962,-43.28
16974,-45.54
16986,-44.4
16998,-39.2
17010,-30.01
17022,-17.64
17034,-3.45
17046,11.11
17058,24.77
17070,36.65
17082,46.25
17094,53.4
17106,58.23
17117,60.96
17128,61.99
17140,61.74
17152,60.59
17164,58.81
17176,56.58
17188,53.98
17200,51.06
17212,47.92
17224,44.69
17236,41.55
17248,38.67
17260,36.16
17272,34.0
17284,32.08
17296,30.23
17307,28.28
17318,26.16
17330,23.86
17342,21.42
17354,18.8
17366,15.92
17378,12.61
17390,8.78
17402,4.49
17414,-0.05
17426,-4.53
17438,-8.68
17450,-12.34
17462,-15.52
17474,-18.38
17486,-21.13
17497,-24.03
17508,-27.33
17520,-31.22
17532,-35.72
17544,-40.56
17556,-45.1
17568,-48.36
17580,-49.3
17592,-47.07
17604,-41.37
17616,-32.56
17628,-21.61
17640,-9.85
17652,1.42
17664,11.21
17676,19.01
17687,24.72
17698,28.54
17710,30.81
17722,31.88
17734,32.05
17746,31.57
17758,30.62
17770,29.4
17782,28.04
17794,26.66
17806,25.27
17818,23.86
17830,22.37
17842,20.84
17854,19.39
17866,18.2
17877,17.4
17888,17.0
17900,16.78
17912,16.42
17924,15.61
17936,14.19
17948,12.22
17960,9.98
17972,7.79
17984,5.89
17996,4.31
18008,2.89
18020,1.33
18032,-0.69
18044,-3.34
18056,-6.61
18067,-10.27
18078,-13.96
18090,-17.33
18102,-20.11
18114,-22.27
18126,-24.01
18138,-25.71
18150,-27.83
18162,-30.73
18174,-34.42
18186,-38.46
18198,-41.95
18210,-43.69
18222,-42.58
18234,-38.0
18246,-30.05
18257,-19.58
18268,-7.94
18280,3.43
18292,13.39
18304,21.24
18316,26.79
18328,30.21
18340,31.89
18352,32.27
18364,31.78
18376,30.78
18388,29.58
18400,28.4
18412,27.34
18424,26.41
18436,25.5
18447,24.46
18458,23.15
18470,21.55
18482,19.78
18494,18.13
18506,16.87
18518,16.17
18530,15.92
18542,15.78
18554,15.3
18566,14.18
18578,12.32
18590,9.9
18602,7.21
18614,4.47
18626,1.75
18637,-1.02
18648,-4.0
18660,-7.24
18672,-10.65
18684,-14.07
18696,-17.3
18708,-20.21
18720,-22.77
18732,-24.99
18744,-26.97
18756,-28.88
18768,-30.98
18780,-33.6
18792,-36.95
18804,-40.99
18816,-45.21
18827,-48.61
18838,-49.95
18850,-48.1
18862,-42.49
18874,-33.33
18886,-21.6
18898,-8.74
18910,3.8
18922,14.85
18934,23.77
18946,30.42
18958,35.0
18970,37.86
18982,39.37
18994,39.83
19006,39.46
19017,38.43
19028,36.91
19040,35.1
19052,33.2
19064,31.41
19076,29.87
19088,28.62
19100,27.62
19112,26.76
19124,26.0
19136,25.33
19148,24.84
19160,24.63
19172,24.71
19184,24.94
19196,25.09
19207,24.83
19218,23.89
19230,22.15
19242,19.68
19254,16.7
19266,13.48
19278,10.24
19290,7.08
19302,3.95
19314,0.72
19326,-2.74
19338,-6.43
19350,-10.22
19362,-13.88
19374,-17.15
19386,-19.84
19397,-21.93
19408,-23.52
19420,-24.84
19432,-26.18
19444,-27.85
19456,-30.06
19468,-32.75
19480,-35.47
19492,-37.35
19504,-37.24
19516,-34.09
19528,-27.29
19540,-17.05
19552,-4.33
19564,9.39
19576,22.55
19587,33.94
19598,42.95
19610,49.51
19622,53.87
19634,56.44
19646,57.51
19658,57.28
19670,55.79
19682,53.09
19694,49.2
19706,44.21
19718,38.31
19730,31.83
19742,25.18
19754,18.8
19766,13.06
19777,8.13
19788,3.97
19800,0.38
19812,-2.86
19824,-5.86
19836,-8.64
19848,-11.09
19860,-13.11
19872,-14.72
19884,-16.0
19896,-17.12
19908,-18.2
19920,-19.26
19932,-20.23
19944,-21.06
19956,-21.72
19967,-22.28
19978,-22.87
19990,-23.58
20002,-24.46
20014,-25.49
20026,-26.69
20038,-28.06
20050,-29.67
20062,-31.57
20074,-33.76
20086,-36.16
20098,-38.67
20110,-41.29
20122,-44.15
20134,-47.51
20146,-51.67
20157,-56.76
20168,-62.49
20180,-68.11
20192,-72.52
20204,-74.53
20216,-73.28
20228,-68.54
20240,-60.78
20252,-51.03
20264,-40.58
20276,-30.58
20288,-21.87
20300,-14.89
20312,-9.75
20324,-6.33
20336,-4.34
20347,-3.37
20358,-3.0
20370,-2.87
20382,-2.78
20394,-2.73
20406,-2.85
20418,-3.3
20430,-4.11
20442,-5.13
20454,-6.06
20466,-6.55
20478,-6.25
20490,-5.01
20502,-2.86
20514,-0.02
20526,3.23
20537,6.65
20548,10.1
20560,13.56
20572,17.09
20584,20.69
20596,24.32
20608,27.78
20620,30.84
20632,33.2
20644,34.57
20656,34.77
20668,33.69
20680,31.41
20692,28.17
20704,24.37
20716,20.39
20727,16.5
20738,12.73
20750,8.94
20762,4.88
20774,0.31
20786,-4.91
20798,-10.73
20810,-16.88
20822,-22.85
20834,-27.82
20846,-30.94
20858,-31.5
20870,-29.21
20882,-24.37
20894,-17.78
20906,-10.5
20917,-3.48
20928,2.62
20940,7.55
20952,11.3
20964,14.0
20976,15.85
20988,17.08
