seconds,BVP
10,108.0
21,123.16
32,136.47
44,146.78
56,153.84
68,157.89
80,159.08
92,157.19
104,151.84
116,142.97
128,131.18
140,117.62
152,103.36
164,88.87
176,73.66
188,56.63
200,36.65
211,13.17
222,-13.36
234,-41.62
246,-69.75
258,-95.91
270,-118.7
282,-137.48
294,-152.33
306,-163.99
318,-173.48
330,-181.63
342,-188.72
354,-194.16
366,-196.79
378,-195.34
390,-189.11
401,-178.4
412,-164.48
424,-149.01
436,-133.41
448,-118.43
460,-104.09
472,-90.16
484,-76.49
496,-63.35
508,-51.21
520,-40.48
532,-31.24
544,-23.16
556,-15.77
568,-8.61
580,-1.45
591,5.86
602,13.47
614,21.64
626,30.72
638,40.92
650,52.13
662,63.71
674,74.65
686,83.74
698,89.97
710,92.79
722,92.22
734,88.73
746,82.93
758,75.28
770,65.94
781,54.75
792,41.43
804,25.9
816,8.5
828,-9.88
840,-27.96
852,-44.39
864,-58.14
876,-68.96
888,-77.43
900,-84.68
912,-91.81
924,-99.24
936,-106.47
948,-112.17
960,-114.9
971,-113.66
982,-108.34
994,-99.61
1006,-88.48
1018,-75.83
1030,-62.09
1042,-47.39
1054,-31.75
1066,-15.44
1078,0.94
1090,16.56
1102,30.65
1114,42.74
1126,52.69
1138,60.53
1150,66.32
1161,69.93
1172,71.08
1184,69.5
1196,65.11
1208,58.29
1220,49.9
1232,41.28
1244,33.88
1256,28.86
1268,26.69
1280,26.88
1292,28.02
1304,28.2
1316,25.7
1328,19.66
1340,10.39
1351,-0.74
1362,-11.9
1374,-21.6
1386,-29.15
1398,-34.72
1410,-38.99
1422,-42.56
1434,-45.67
1446,-48.11
1458,-49.6
1470,-50.07
1482,-49.89
1494,-49.6
1506,-49.58
1518,-49.82
1530,-49.87
1541,-49.21
1552,-47.64
1564,-45.42
1576,-43.15
1588,-41.35
1600,-40.14
1612,-39.15
1624,-37.81
1636,-35.72
1648,-33.06
1660,-30.55
1672,-29.27
1684,-30.25
1696,-34.03
1708,-40.41
1720,-48.36
1731,-56.04
1742,-61.17
1754,-61.56
1766,-55.83
1778,-43.98
1790,-27.46
1802,-8.84
1814,9.05
1826,24.01
1838,34.97
1850,42.07
1862,46.17
1874,48.34
1886,49.36
1898,49.59
1910,49.14
1921,48.09
1932,46.65
1944,45.14
1956,43.88
1968,43.11
1980,42.79
1992,42.74
2004,42.61
2016,42.06
2028,40.82
2040,38.86
2052,36.33
2064,33.59
2076,30.97
2088,28.58
2100,26.18
2111,23.23
2122,19.15
2134,13.62
2146,6.7
2158,-1.22
2170,-9.66
2182,-18.19
2194,-26.45
2206,-33.94
2218,-39.88
2230,-43.36
2242,-43.71
2254,-40.88
2266,-35.52
2278,-28.75
2290,-21.59
2301,-14.55
2312,-7.61
2324,-0.48
2336,6.96
2348,14.44
2360,21.37
2372,27.12
2384,31.26
2396,33.71
2408,34.58
2420,34.06
2432,32.36
2444,29.68
2456,26.29
2468,22.59
2480,19.03
2491,16.1
2502,14.11
2514,13.13
2526,12.96
2538,13.11
2550,13.03
2562,12.26
2574,10.63
2586,8.28
2598,5.61
2610,3.14
2622,1.36
2634,0.64
2646,1.21
2658,3.12
2670,6.21
2681,10.07
2692,14.13
2704,17.71
2716,20.29
2728,21.66
2740,21.93
2752,21.42
2764,20.43
2776,19.07
2788,17.2
2800,14.53
2812,10.75
2824,5.73
2836,-0.41
2848,-7.24
2860,-14.08
2871,-20.06
2882,-24.25
2894,-25.85
2906,-24.37
2918,-19.76
2930,-12.43
2942,-3.18
2954,6.93
2966,16.83
2978,25.59
2990,32.64
3002,37.85
3014,41.48
3026,44.04
3038,45.99
3050,47.51
3061,48.41
3072,48.34
3084,47.01
3096,44.47
3108,41.21
3120,37.93
3132,35.28
3144,33.6
3156,32.81
3168,32.53
3180,32.31
3192,31.74
3204,30.5
3216,28.43
3228,25.47
3240,21.72
3251,17.45
3262,13.0
3274,8.69
3286,4.71
3298,1.03
3310,-2.45
3322,-5.9
3334,-9.4
3346,-12.94
3358,-16.45
3370,-19.92
3382,-23.37
3394,-26.88
3406,-30.56
3418,-34.43
3430,-38.51
3441,-42.81
3452,-47.34
3464,-52.14
3476,-57.16
3488,-62.27
3500,-67.14
3512,-71.2
3524,-73.69
3536,-73.78
3548,-70.94
3560,-65.1
3572,-56.85
3584,-47.25
3596,-37.47
3608,-28.32
3620,-20.11
3631,-12.64
3642,-5.53
3654,1.45
3666,8.14
3678,14.08
3690,18.74
3702,21.71
3714,22.88
3726,22.44
3738,20.76
3750,18.29
3762,15.43
3774,12.48
3786,9.65
3798,7.1
3810,5.02
3821,3.6
3832,3.08
3844,3.67
3856,5.43
3868,8.22
3880,11.78
3892,15.69
3904,19.53
3916,22.97
3928,25.8
3940,28.05
3952,29.87
3964,31.49
3976,33.05
3988,34.52
4000,35.74
4011,36.45
4022,36.43
4034,35.54
4046,33.61
4058,30.41
4070,25.65
4082,19.08
4094,10.61
4106,0.54
4118,-10.52
4130,-21.66
4142,-31.89
4154,-40.26
4166,-46.04
4178,-48.79
4190,-48.56
4201,-45.85
4212,-41.57
4224,-36.74
4236,-32.21
4248,-28.43
4260,-25.4
4272,-22.9
4284,-20.68
4296,-18.76
4308,-17.34
4320,-16.67
4332,-16.85
4344,-17.69
4356,-18.81
4368,-19.93
4380,-20.99
4391,-22.25
4402,-24.06
4414,-26.54
4426,-29.44
4438,-32.01
4450,-33.37
4462,-32.87
4474,-30.41
4486,-26.59
4498,-22.45
4510,-19.11
4522,-17.36
4534,-17.42
4546,-18.96
4558,-21.32
4570,-23.84
4581,-26.09
4592,-27.95
4604,-29.58
4616,-31.26
4628,-33.15
4640,-35.19
4652,-37.14
4664,-38.72
4676,-39.79
4688,-40.55
4700,-41.51
4712,-43.36
4724,-46.68
4736,-51.74
4748,-58.34
4760,-65.87
4771,-73.4
4782,-79.88
4794,-84.24
4806,-85.6
4818,-83.45
4830,-77.74
4842,-69.03
4854,-58.36
4866,-46.93
4878,-35.75
4890,-25.42
4902,-16.11
4914,-7.71
4926,-0.1
4938,6.69
4950,12.46
4961,17.0
4972,20.23
4984,22.28
4996,23.45
5008,24.1
5020,24.54
5032,24.93
5044,25.28
5056,25.5
5068,25.5
5080,25.2
5092,24.64
5104,23.93
5116,23.11
5128,22.06
5140,20.5
5151,18.04
5162,14.37
5174,9.48
5186,3.69
5198,-2.37
5210,-8.02
5222,-12.75
5234,-16.45
5246,-19.4
5258,-22.12
5270,-25.06
5282,-28.37
5294,-31.82
5306,-34.9
5318,-37.15
5330,-38.4
5341,-38.92
5352,-39.25
5364,-40.06
5376,-41.84
5388,-44.79
5400,-48.78
5412,-53.42
5424,-58.03
5436,-61.74
5448,-63.59
5460,-62.75
5472,-58.76
5484,-51.75
5496,-42.43
5508,-31.86
5520,-21.2
5531,-11.25
5542,-2.43
5554,5.23
5566,11.87
5578,17.71
5590,22.89
5602,27.53
5614,31.68
5626,35.34
5638,38.4
5650,40.72
5662,42.17
5674,42.78
5686,42.77
5698,42.49
5710,42.28
5721,42.32
5732,42.54
5744,42.69
5756,42.56
5768,42.03
5780,41.17
5792,40.1
5804,38.85
5816,37.26
5828,35.06
5840,31.99
5852,28.02
5864,23.39
5876,18.5
5888,13.77
5900,9.43
5911,5.48
5922,1.69
5934,-2.24
5946,-6.55
5958,-11.41
5970,-16.95
5982,-23.25
5994,-30.32
6006,-37.93
6018,-45.52
6030,-52.17
6042,-56.84
6054,-58.65
6066,-57.25
6078,-52.87
6090,-46.28
6101,-38.47
6112,-30.32
6124,-22.4
6136,-14.95
6148,-8.03
6160,-1.67
6172,4.05
6184,8.98
6196,13.0
6208,16.12
6220,18.55
6232,20.54
6244,22.39
6256,24.3
6268,26.33
6280,28.47
6291,30.66
6302,32.79
6314,34.74
6326,36.39
6338,37.59
6350,38.21
6362,38.14
6374,37.35
6386,35.83
6398,33.62
6410,30.77
6422,27.37
6434,23.63
6446,19.78
6458,16.08
6470,12.67
6481,9.49
6492,6.33
6504,2.87
6516,-1.18
6528,-6.02
6540,-11.7
6552,-18.14
6564,-25.12
6576,-32.18
6588,-38.64
6600,-43.6
6612,-46.19
6624,-45.74
6636,-42.09
6648,-35.66
6660,-27.26
6671,-17.95
6682,-8.61
6694,0.16
6706,8.04
6718,14.88
6730,20.54
6742,24.92
6754,27.99
6766,29.93
6778,31.1
6790,31.98
6802,32.95
6814,34.18
6826,35.57
6838,36.89
6850,37.93
6861,38.57
6872,38.86
6884,38.91
6896,38.8
6908,38.55
6920,38.1
6932,37.39
6944,36.33
6956,34.82
6968,32.75
6980,30.03
6992,26.67
7004,22.83
7016,18.75
7028,14.66
7040,10.73
7051,6.94
7062,3.15
7074,-0.93
7086,-5.57
7098,-10.98
7110,-17.2
7122,-23.98
7134,-30.76
7146,-36.67
7158,-40.72
7170,-42.05
7182,-40.15
7194,-35.09
7206,-27.49
7218,-18.33
7230,-8.65
7241,0.68
7252,9.1
7264,16.34
7276,22.3
7288,26.95
7300,30.25
7312,32.15
7324,32.76
7336,32.31
7348,31.22
7360,29.98
7372,28.99
7384,28.51
7396,28.54
7408,28.93
7420,29.49
7431,30.05
7442,30.53
7454,30.93
7466,31.2
7478,31.21
7490,30.75
7502,29.51
7514,27.28
7526,24.01
7538,19.89
7550,15.32
7562,10.78
7574,6.64
7586,3.05
7598,-0.15
7610,-3.28
7621,-6.78
7632,-10.96
7644,-16.01
7656,-21.88
7668,-28.26
7680,-34.54
7692,-39.82
7704,-42.98
7716,-43.02
7728,-39.32
7740,-32.0
7752,-21.84
7764,-10.12
7776,1.89
7788,13.28
7800,23.67
7811,33.17
7822,42.02
7834,50.36
7846,58.06
7858,64.79
7870,70.25
7882,74.34
7894,77.35
7906,79.89
7918,82.74
7930,86.55
7942,91.7
7954,98.2
7966,105.83
7978,114.26
7990,123.15
8001,132.26
8012,141.3
8024,150.02
8036,158.21
8048,165.85
8060,173.27
8072,181.02
8084,189.71
8096,199.75
8108,211.07
8120,223.08
8132,234.71
8144,244.64
8156,251.47
8168,254.02
8180,251.53
8191,243.8
8202,231.09
8214,214.08
8226,193.5
8238,170.08
8250,144.41
8262,117.17
8274,89.17
8286,61.42
8298,34.85
8310,10.11
8322,-12.76
8334,-34.22
8346,-54.98
8358,-75.65
8370,-96.44
8381,-117.03
8392,-136.81
8404,-155.09
8416,-171.4
8428,-185.66
8440,-198.14
8452,-209.27
8464,-219.37
8476,-228.33
8488,-235.48
8500,-239.76
8512,-240.0
8524,-235.49
8536,-226.25
8548,-213.17
8560,-197.65
8571,-181.24
8582,-165.14
8594,-150.06
8606,-136.25
8618,-123.77
8630,-112.66
8642,-103.09
8654,-95.23
8666,-89.15
8678,-84.68
8690,-81.47
8702,-79.19
8714,-77.69
8726,-77.09
8738,-77.62
8750,-79.39
8761,-82.06
8772,-84.7
8784,-86.02
8796,-84.71
8808,-79.95
8820,-71.78
8832,-61.0
8844,-48.89
8856,-36.68
8868,-25.24
8880,-14.91
8892,-5.69
8904,2.6
8916,10.01
8928,16.46
8940,21.77
8951,25.79
8962,28.58
8974,30.37
8986,31.6
8998,32.73
9010,34.08
9022,35.68
9034,37.3
9046,38.5
9058,38.91
9070,38.31
9082,36.66
9094,34.05
9106,30.54
9118,26.17
9130,20.98
9141,15.1
9152,8.88
9164,2.68
9176,-3.16
9188,-8.5
9200,-13.4
9212,-18.07
9224,-22.74
9236,-27.54
9248,-32.43
9260,-37.15
9272,-41.22
9284,-43.97
9296,-44.64
9308,-42.61
9320,-37.65
9331,-30.05
9342,-20.63
9354,-10.48
9366,-0.69
9378,7.9
9390,14.89
9402,20.21
9414,24.05
9426,26.69
9438,28.41
9450,29.44
9462,29.96
9474,30.06
9486,29.72
9498,28.81
9510,27.19
9521,24.77
9532,21.7
9544,18.37
9556,15.4
9568,13.41
9580,12.79
9592,13.55
9604,15.21
9616,17.03
9628,18.28
9640,18.48
9652,17.56
9664,15.77
9676,13.4
9688,10.62
9700,7.39
9711,3.52
9722,-1.21
9734,-6.9
9746,-13.48
9758,-20.73
9770,-28.33
9782,-35.75
9794,-42.3
9806,-47.12
9818,-49.41
9830,-48.63
9842,-44.74
9854,-38.17
9866,-29.7
9878,-20.19
9890,-10.38
9901,-0.79
9912,8.25
9924,16.47
9936,23.68
9948,29.73
9960,34.53
9972,38.08
9984,40.37
9996,41.43
10008,41.32
10020,40.13
10032,38.06
10044,35.4
10056,32.51
10068,29.73
10080,27.27
10091,25.2
10102,23.45
10114,21.85
10126,20.15
10138,18.1
10150,15.47
10162,12.16
10174,8.19
10186,3.79
10198,-0.72
10210,-4.92
10222,-8.51
10234,-11.36
10246,-13.59
10258,-15.51
10270,-17.52
10281,-19.9
10292,-22.66
10304,-25.44
10316,-27.6
10328,-28.35
10340,-27.09
10352,-23.57
10364,-18.02
10376,-10.99
10388,-3.22
10400,4.66
10412,12.19
10424,19.12
10436,25.31
10448,30.64
10460,34.93
10471,37.99
10482,39.67
10494,39.96
10506,39.02
10518,37.13
10530,34.69
10542,32.12
10554,29.71
10566,27.67
10578,26.01
10590,24.65
10602,23.41
10614,22.16
10626,20.78
10638,19.22
10650,17.51
10661,15.7
10672,13.88
10684,12.09
10696,10.27
10708,8.25
10720,5.79
10732,2.74
10744,-0.89
10756,-4.89
10768,-8.93
10780,-12.67
10792,-15.96
10804,-18.89
10816,-21.77
10828,-24.98
10840,-28.81
10851,-33.26
10862,-38.01
10874,-42.39
10886,-45.53
10898,-46.62
10910,-45.15
10922,-41.07
10934,-34.92
10946,-27.61
10958,-20.1
10970,-13.21
10982,-7.31
10994,-2.42
11006,1.7
11018,5.35
11030,8.71
11041,11.83
11052,14.56
11064,16.76
11076,18.3
11088,19.22
11100,19.63
11112,19.66
11124,19.34
11136,18.52
11148,16.97
11160,14.48
11172,11.09
11184,7.11
11196,3.11
11208,-0.29
11220,-2.6
11231,-3.63
11242,-3.49
11254,-2.49
11266,-1.04
11278,0.39
11290,1.38
11302,1.54
11314,0.63
11326,-1.38
11338,-4.22
11350,-7.39
11362,-10.32
11374,-12.62
11386,-14.24
11398,-15.45
11410,-16.7
11421,-18.33
11432,-20.33
11444,-22.33
11456,-23.71
11468,-23.89
11480,-22.58
11492,-19.94
11504,-16.43
11516,-12.69
11528,-9.21
11540,-6.19
11552,-3.51
11564,-0.87
11576,2.02
11588,5.25
11600,8.6
11611,11.66
11622,14.04
11634,15.49
11646,16.06
11658,16.01
11670,15.64
11682,15.16
11694,14.56
11706,13.78
11718,12.75
11730,11.54
11742,10.37
11754,9.39
11766,8.61
11778,7.89
11790,6.96
11801,5.65
11812,3.98
11824,2.25
11836,0.76
11848,-0.27
11860,-0.86
11872,-1.3
11884,-1.97
11896,-3.12
11908,-4.8
11920,-6.81
11932,-8.82
11944,-10.56
11956,-11.93
11968,-13.01
11980,-14.07
11991,-15.42
12002,-17.33
12014,-19.95
12026,-23.29
12038,-27.14
12050,-30.99
12062,-34.13
12074,-35.76
12086,-35.23
12098,-32.32
12110,-27.31
12122,-20.91
12134,-13.99
12146,-7.32
12158,-1.38
12170,3.65
12181,7.77
12192,11.04
12204,13.51
12216,15.18
12228,16.13
12240,16.48
12252,16.38
12264,16.0
12276,15.5
12288,14.95
12300,14.44
12312,13.98
12324,13.58
12336,13.26
12348,13.05
12360,12.97
12371,13.02
12382,13.12
12394,13.12
12406,12.83
12418,12.1
12430,10.87
12442,9.24
12454,7.4
12466,5.62
12478,4.14
12490,3.15
12502,2.66
12514,2.56
12526,2.54
12538,2.26
12550,1.42
12561,-0.12
12572,-2.3
12584,-4.91
12596,-7.7
12608,-10.43
12620,-13.0
12632,-15.37
12644,-17.6
12656,-19.82
12668,-22.06
12680,-24.27
12692,-26.19
12704,-27.34
12716,-27.22
12728,-25.44
12740,-21.96
12751,-17.14
12762,-11.61
12774,-6.08
12786,-1.08
12798,3.18
12810,6.75
12822,9.81
12834,12.5
12846,14.79
12858,16.6
12870,17.79
12882,18.34
12894,18.35
12906,18.05
12918,17.69
12930,17.51
12941,17.67
12952,18.25
12964,19.24
12976,20.58
12988,22.13
13000,23.74
13012,25.24
13024,26.48
13036,27.34
13048,27.74
13060,27.6
13072,26.89
13084,25.63
13096,24.01
13108,22.27
13120,20.67
13131,19.34
13142,18.19
13154,16.96
13166,15.33
13178,13.04
13190,10.07
13202,6.62
13214,3.02
13226,-0.39
13238,-3.42
13250,-6.04
13262,-8.43
13274,-10.84
13286,-13.56
13298,-16.82
13310,-20.73
13321,-25.19
13332,-29.94
13344,-34.53
13356,-38.36
13368,-40.8
13380,-41.33
13392,-39.69
13404,-35.99
13416,-30.69
13428,-24.53
13440,-18.29
13452,-12.56
13464,-7.71
13476,-3.83
13488,-0.91
13500,1.1
13511,2.24
13522,2.58
13534,2.34
13546,1.87
13558,1.59
13570,1.83
13582,2.66
13594,3.9
13606,5.24
13618,6.4
13630,7.29
13642,8.09
13654,9.1
13666,10.63
13678,12.77
13690,15.33
13701,17.87
13712,19.88
13724,20.93
13736,20.85
13748,19.79
13760,18.1
13772,16.19
13784,14.38
13796,12.73
13808,11.07
13820,9.2
13832,6.96
13844,4.43
13856,1.83
13868,-0.61
13880,-2.77
13891,-4.74
13902,-6.81
13914,-9.27
13926,-12.32
13938,-15.96
13950,-20.07
13962,-24.39
13974,-28.54
13986,-32.1
13998,-34.58
14010,-35.52
14022,-34.65
14034,-31.94
14046,-27.69
14058,-22.37
14070,-16.52
14081,-10.59
14092,-4.92
14104,0.17
14116,4.41
14128,7.53
14140,9.39
14152,10.06
14164,9.88
14176,9.3
14188,8.74
14200,8.43
14212,8.35
14224,8.34
14236,8.25
14248,8.04
14260,7.78
14271,7.62
14282,7.63
14294,7.79
14306,7.98
14318,8.08
14330,8.03
14342,7.8
14354,7.4
14366,6.75
14378,5.8
14390,4.52
14402,3.02
14414,1.5
14426,0.23
14438,-0.62
14450,-1.09
14461,-1.45
14472,-2.09
14484,-3.3
14496,-5.17
14508,-7.53
14520,-9.99
14532,-12.17
14544,-13.86
14556,-15.1
14568,-16.17
14580,-17.44
14592,-19.29
14604,-21.96
14616,-25.5
14628,-29.66
14640,-33.97
14651,-37.73
14662,-40.18
14674,-40.65
14686,-38.77
14698,-34.6
14710,-28.62
14722,-21.62
14734,-14.48
14746,-7.9
14758,-2.35
14770,2.05
14782,5.37
14794,7.77
14806,9.42
14818,10.41
14830,10.79
14841,10.62
14852,10.04
14864,9.26
14876,8.53
14888,8.1
14900,8.09
14912,8.52
14924,9.24
14936,10.06
14948,10.78
14960,11.33
14972,11.68
14984,11.92
14996,12.13
15008,12.31
15020,12.39
15031,12.2
15042,11.62
15054,10.59
15066,9.13
15078,7.35
15090,5.4
15102,3.38
15114,1.38
15126,-0.59
15138,-2.52
15150,-4.45
15162,-6.38
15174,-8.34
15186,-10.33
15198,-12.33
15210,-14.32
15221,-16.26
15232,-18.14
15244,-19.98
15256,-21.84
15268,-23.83
15280,-26.15
15292,-28.98
15304,-32.4
15316,-36.19
15328,-39.79
15340,-42.36
15352,-43.02
15364,-41.13
15376,-36.59
15388,-29.88
15400,-21.91
15411,-13.73
15422,-6.19
15434,0.23
15446,5.49
15458,9.75
15470,13.24
15482,16.05
15494,18.15
15506,19.47
15518,20.02
15530,19.96
15542,19.61
15554,19.22
15566,18.93
15578,18.67
15590,18.31
15601,17.79
15612,17.22
15624,16.86
15636,16.91
15648,17.39
15660,18.12
15672,18.78
15684,19.11
15696,19.04
15708,18.66
15720,18.16
15732,17.68
15744,17.29
15756,16.94
15768,16.59
15780,16.17
15791,15.65
15802,14.93
15814,13.92
15826,12.52
15838,10.62
15850,8.19
15862,5.23
15874,1.77
15886,-2.1
15898,-6.32
15910,-10.89
15922,-15.97
15934,-21.77
15946,-28.53
15958,-36.26
15970,-44.62
15981,-52.97
15992,-60.42
16004,-65.99
16016,-68.72
16028,-67.69
16040,-62.05
16052,-51.08
16064,-34.49
16076,-12.61
16088,13.4
16100,41.69
16112,70.06
16124,96.38
16136,119.03
16148,137.04
16160,150.02
16171,158.01
16182,161.3
16194,160.34
16206,155.71
16218,148.11
16230,138.28
16242,126.91
16254,114.54
16266,101.39
16278,87.47
16290,72.63
16302,56.79
16314,40.17
16326,23.46
16338,7.66
16350,-6.03
16361,-16.66
16372,-23.83
16384,-27.79
16396,-29.36
16408,-29.6
16420,-29.5
16432,-29.65
16444,-30.18
16456,-30.88
16468,-31.44
16480,-31.61
16492,-31.33
16504,-30.72
16516,-29.96
16528,-29.25
16540,-28.74
16551,-28.53
16562,-28.68
16574,-29.24
16586,-30.19
16598,-31.48
16610,-32.97
16622,-34.52
16634,-36.02
16646,-37.55
16658,-39.38
16670,-41.93
16682,-45.59
16694,-50.52
16706,-56.31
16718,-61.98
16730,-66.04
16741,-66.97
16752,-63.69
16764,-56.03
16776,-44.83
16788,-31.74
16800,-18.61
16812,-6.99
16824,2.27
16836,9.06
16848,13.72
16860,16.73
16872,18.49
16884,19.22
16896,19.1
16908,18.37
16920,17.37
16931,16.52
16942,16.12
16954,16.25
16966,16.81
16978,17.52
16990,18.12
17002,18.44
17014,18.48
17026,18.36
17038,18.2
17050,18.08
17062,17.98
17074,17.76
17086,17.26
17098,16.42
17110,15.23
17121,13.84
17132,12.43
17144,11.17
17156,10.2
17168,9.53
17180,9.14
17192,8.91
17204,8.68
17216,8.3
17228,7.58
17240,6.43
17252,4.84
17264,2.89
17276,0.68
17288,-1.73
17300,-4.42
17311,-7.57
17322,-11.37
17334,-15.85
17346,-20.87
17358,-26.17
17370,-31.49
17382,-36.64
17394,-41.38
17406,-45.32
17418,-47.7
17430,-47.58
17442,-44.11
17454,-37.05
17466,-27.01
17478,-15.37
17490,-3.87
17501,6.1
17512,13.82
17524,19.39
17536,23.36
17548,26.32
17560,28.54
17572,29.97
17584,30.36
17596,29.65
17608,28.02
17620,25.97
17632,24.05
17644,22.71
17656,22.07
17668,21.95
17680,22.04
17691,22.05
17702,21.87
17714,21.56
17726,21.22
17738,20.84
17750,20.31
17762,19.46
17774,18.17
17786,16.47
17798,14.57
17810,12.74
17822,11.18
17834,9.94
17846,8.96
17858,8.13
17870,7.39
17881,6.77
17892,6.3
17904,5.98
17916,5.72
17928,5.4
17940,4.91
17952,4.28
17964,3.61
17976,3.01
17988,2.5
18000,1.91
18012,0.93
18024,-0.75
18036,-3.38
18048,-7.09
18060,-11.91
18071,-17.76
18082,-24.44
18094,-31.47
18106,-38.02
18118,-42.91
18130,-44.89
18142,-43.11
18154,-37.49
18166,-28.86
18178,-18.72
18190,-8.7
18202,-0.02
18214,6.79
18226,11.86
18238,15.58
18250,18.31
18261,20.17
18272,21.05
18284,20.87
18296,19.7
18308,17.89
18320,15.91
18332,14.2
18344,13.0
18356,12.35
18368,12.1
18380,12.02
18392,11.87
18404,11.48
18416,10.76
18428,9.68
18440,8.3
18451,6.7
18462,4.99
18474,3.25
18486,1.51
18498,-0.22
18510,-1.96
18522,-3.75
18534,-5.57
18546,-7.39
18558,-9.14
18570,-10.74
18582,-12.15
18594,-13.4
18606,-14.56
18618,-15.76
18630,-17.08
18641,-18.54
18652,-20.05
18664,-21.5
18676,-22.84
18688,-24.17
18700,-25.69
18712,-27.69
18724,-30.44
18736,-34.19
18748,-39.1
18760,-45.27
18772,-52.6
18784,-60.69
18796,-68.64
18808,-75.06
18820,-78.3
18831,-76.87
18842,-70.06
18854,-58.18
18866,-42.61
18878,-25.34
18890,-8.4
18902,6.73
18914,19.28
18926,29.13
18938,36.48
18950,41.53
18962,44.42
18974,45.25
18986,44.25
18998,41.89
19010,38.79
19021,35.56
19032,32.67
19044,30.32
19056,28.49
19068,27.04
19080,25.8
19092,24.58
19104,23.25
19116,21.7
19128,19.87
19140,17.75
19152,15.43
19164,13.01
19176,10.61
19188,8.3
19200,6.12
19211,4.04
19222,1.95
19234,-0.29
19246,-2.8
19258,-5.67
19270,-8.82
19282,-12.02
19294,-15.04
19306,-17.67
19318,-19.96
19330,-22.17
19342,-24.65
19354,-27.71
19366,-31.43
19378,-35.59
19390,-39.79
19401,-43.61
19412,-46.83
19424,-49.52
19436,-52.1
19448,-55.21
19460,-59.53
19472,-65.56
19484,-73.32
19496,-82.12
19508,-90.5
19520,-96.46
19532,-98.02
19544,-93.88
19556,-83.96
19568,-69.53
19580,-52.77
19591,-36.05
19602,-21.17
19614,-8.97
19626,0.62
19638,8.14
19650,14.08
19662,18.63
19674,21.75
19686,23.42
19698,23.9
19710,23.76
19722,23.67
19734,24.11
19746,25.18
19758,26.59
19770,27.92
19781,28.82
19792,29.18
19804,29.17
19816,29.02
19828,28.93
19840,28.91
19852,28.76
19864,28.22
19876,27.06
19888,25.17
19900,22.58
19912,19.52
19924,16.3
19936,13.22
19948,10.51
19960,8.22
19971,6.2
19982,4.17
19994,1.83
20006,-1.02
20018,-4.43
20030,-8.22
20042,-12.16
20054,-16.0
20066,-19.59
20078,-22.93
20090,-26.14
20102,-29.46
20114,-33.21
20126,-37.68
20138,-43.2
20150,-49.85
20161,-57.35
20172,-64.82
20184,-70.9
20196,-73.95
20208,-72.61
20220,-66.3
20232,-55.51
20244,-41.65
20256,-26.6
20268,-12.1
20280,0.74
20292,11.48
20304,20.18
20316,27.06
20328,32.21
20340,35.58
20351,37.19
20362,37.26
20374,36.31
20386,35.1
20398,34.26
20410,34.22
20422,35.01
20434,36.37
20446,37.92
20458,39.31
20470,40.35
20482,40.97
20494,41.17
20506,40.98
20518,40.38
20530,39.33
20541,37.81
20552,35.79
20564,33.25
20576,30.19
20588,26.65
20600,22.71
20612,18.55
20624,14.4
20636,10.47
20648,6.88
20660,3.58
20672,0.4
20684,-2.98
20696,-6.81
20708,-11.2
20720,-16.06
20731,-21.1
20742,-25.95
20754,-30.34
20766,-34.18
20778,-37.7
20790,-41.3
20802,-45.49
20814,-50.77
20826,-57.51
20838,-65.77
20850,-75.11
20862,-84.49
20874,-92.22
20886,-96.28
20898,-94.98
20910,-87.55
20921,-74.67
20932,-58.32
20944,-41.17
20956,-25.67
20968,-13.26
20980,-4.13
20992,2.52
