seconds,BVP
4,-3.23
16,-5.16
28,-7.26
39,-9.59
50,-12.11
62,-14.72
74,-17.26
86,-19.54
98,-21.4
110,-22.76
122,-23.65
134,-24.27
146,-24.94
158,-26.02
170,-27.84
182,-30.56
194,-34.14
206,-38.2
218,-42.11
229,-44.98
240,-45.95
252,-44.35
264,-40.01
276,-33.29
288,-25.03
300,-16.31
312,-8.13
324,-1.2
336,4.16
348,7.95
360,10.41
372,11.86
384,12.55
396,12.67
408,12.35
419,11.71
430,10.91
442,10.19
454,9.76
466,9.79
478,10.32
490,11.21
502,12.25
514,13.26
526,14.11
538,14.8
550,15.39
562,15.9
574,16.31
586,16.51
598,16.36
609,15.79
620,14.83
632,13.61
644,12.29
656,11.03
668,9.84
680,8.62
692,7.22
704,5.52
716,3.53
728,1.41
740,-0.6
752,-2.27
764,-3.47
776,-4.23
788,-4.71
799,-5.11
810,-5.63
822,-6.39
834,-7.47
846,-8.93
858,-10.88
870,-13.35
882,-16.16
894,-18.87
906,-20.79
918,-21.15
930,-19.43
942,-15.54
954,-9.9
966,-3.23
978,3.65
989,10.1
1000,15.74
1012,20.43
1024,24.14
1036,26.87
1048,28.63
1060,29.47
1072,29.56
1084,29.11
1096,28.41
1108,27.66
1120,27.02
1132,26.58
1144,26.31
1156,26.18
1168,26.17
1179,26.3
1190,26.65
1202,27.38
1214,28.56
1226,30.11
1238,31.76
1250,33.1
1262,33.74
1274,33.46
1286,32.35
1298,30.7
1310,28.98
1322,27.52
1334,26.47
1346,25.74
1358,25.14
1369,24.43
1380,23.43
1392,22.04
1404,20.16
1416,17.69
1428,14.54
1440,10.7
1452,6.23
1464,1.35
1476,-3.68
1488,-8.6
1500,-13.17
1512,-17.21
1524,-20.48
1536,-22.73
1548,-23.69
1559,-23.24
1570,-21.49
1582,-18.88
1594,-16.06
1606,-13.69
1618,-12.3
1630,-12.14
1642,-13.16
1654,-15.22
1666,-18.12
1678,-21.74
1690,-26.0
1702,-30.84
1714,-36.12
1726,-41.66
1738,-47.25
1749,-52.71
1760,-57.89
1772,-62.69
1784,-66.99
1796,-70.65
1808,-73.52
1820,-75.44
1832,-76.27
1844,-75.97
1856,-74.56
1868,-72.17
1880,-68.97
1892,-65.23
1904,-61.22
1916,-57.21
1928,-53.38
1939,-49.79
1950,-46.38
1962,-42.99
1974,-39.52
1986,-35.93
1998,-32.31
2010,-28.83
2022,-25.63
2034,-22.8
2046,-20.37
2058,-18.34
2070,-16.73
2082,-15.57
2094,-14.86
2106,-14.54
2118,-14.52
2129,-14.64
2140,-14.83
2152,-15.07
2164,-15.44
2176,-16.14
2188,-17.39
2200,-19.33
2212,-21.92
2224,-24.76
2236,-27.15
2248,-28.15
2260,-26.93
2272,-23.07
2284,-16.72
2296,-8.58
2308,0.4
2319,9.33
2330,17.64
2342,25.15
2354,31.91
2366,37.95
2378,43.16
2390,47.31
2402,50.15
2414,51.62
2426,51.86
2438,51.22
2450,50.08
2462,48.79
2474,47.51
2486,46.32
2498,45.19
2509,44.09
2520,43.02
2532,41.99
2544,40.98
2556,39.9
2568,38.65
2580,37.11
2592,35.23
2604,33.05
2616,30.73
2628,28.45
2640,26.4
2652,24.7
2664,23.39
2676,22.42
2688,21.65
2699,20.95
2710,20.22
2722,19.39
2734,18.48
2746,17.59
2758,16.89
2770,16.52
2782,16.56
2794,16.98
2806,17.61
2818,18.2
2830,18.51
2842,18.38
2854,17.82
2866,16.97
2878,16.08
2889,15.36
2900,14.98
2912,14.95
2924,15.21
2936,15.58
2948,15.79
2960,15.52
2972,14.45
2984,12.42
2996,9.52
3008,6.17
3020,2.99
3032,0.6
3044,-0.61
3056,-0.59
3068,0.41
3079,2.01
3090,3.87
3102,5.82
3114,7.82
3126,9.86
3138,11.81
3150,13.44
3162,14.5
3174,14.86
3186,14.57
3198,13.9
3210,13.22
3222,12.84
3234,12.95
3246,13.52
3258,14.41
3269,15.42
3280,16.38
3292,17.21
3304,17.9
3316,18.43
3328,18.78
3340,18.9
3352,18.68
3364,18.07
3376,17.06
3388,15.71
3400,14.14
3412,12.46
3424,10.76
3436,9.08
3448,7.39
3459,5.66
3470,3.85
3482,1.96
3494,0.01
3506,-1.92
3518,-3.77
3530,-5.5
3542,-7.07
3554,-8.45
3566,-9.64
3578,-10.66
3590,-11.57
3602,-12.45
3614,-13.38
3626,-14.43
3638,-15.65
3649,-17.05
3660,-18.63
3672,-20.39
3684,-22.34
3696,-24.56
3708,-27.18
3720,-30.31
3732,-33.95
3744,-37.86
3756,-41.59
3768,-44.48
3780,-45.87
3792,-45.26
3804,-42.52
3816,-37.86
3828,-31.77
3839,-24.89
3850,-17.84
3862,-11.13
3874,-5.15
3886,-0.13
3898,3.76
3910,6.46
3922,7.95
3934,8.36
3946,7.86
3958,6.69
3970,5.1
3982,3.39
3994,1.8
4006,0.53
4018,-0.29
4029,-0.67
4040,-0.72
4052,-0.6
4064,-0.44
4076,-0.22
4088,0.15
4100,0.79
4112,1.72
4124,2.75
4136,3.54
4148,3.82
4160,3.5
4172,2.74
4184,1.92
4196,1.4
4208,1.32
4219,1.54
4230,1.66
4242,1.18
4254,-0.37
4266,-3.31
4278,-7.78
4290,-13.74
4302,-20.96
4314,-29.13
4326,-37.86
4338,-46.64
4350,-54.8
4362,-61.49
4374,-65.82
4386,-67.17
4398,-65.46
4409,-61.18
4420,-55.26
4432,-48.62
4444,-41.95
4456,-35.61
4468,-29.8
4480,-24.76
4492,-20.77
4504,-18.08
4516,-16.55
4528,-15.68
4540,-14.65
4552,-12.77
4564,-9.76
4576,-5.84
4588,-1.51
4599,2.83
4610,7.08
4622,11.48
4634,16.37
4646,21.96
4658,28.12
4670,34.45
4682,40.42
4694,45.59
4706,49.76
4718,52.96
4730,55.33
4742,57.01
4754,58.05
4766,58.42
4778,58.14
4789,57.27
4800,56.0
4812,54.55
4824,53.1
4836,51.76
4848,50.5
4860,49.24
4872,47.79
4884,45.99
4896,43.76
4908,41.11
4920,38.19
4932,35.23
4944,32.51
4956,30.3
4968,28.83
4979,28.2
4990,28.32
5002,28.91
5014,29.45
5026,29.31
5038,27.98
5050,25.14
5062,20.82
5074,15.37
5086,9.29
5098,3.24
5110,-2.11
5122,-6.08
5134,-7.99
5146,-7.28
5158,-3.66
5169,2.76
5180,11.35
5192,21.03
5204,30.55
5216,38.79
5228,45.09
5240,49.35
5252,52.0
5264,53.74
5276,55.26
5288,57.08
5300,59.51
5312,62.68
5324,66.62
5336,71.23
5348,76.19
5359,80.96
5370,84.81
5382,87.05
5394,87.29
5406,85.48
5418,81.94
5430,77.07
5442,71.12
5454,64.08
5466,55.7
5478,45.71
5490,33.99
5502,20.8
5514,6.67
5526,-7.69
5538,-21.6
5549,-34.58
5560,-46.36
5572,-56.84
5584,-65.99
5596,-73.72
5608,-79.97
5620,-84.76
5632,-88.24
5644,-90.66
5656,-92.3
5668,-93.32
5680,-93.72
5692,-93.44
5704,-92.45
5716,-90.89
5728,-89.08
5739,-87.43
5750,-86.25
5762,-85.66
5774,-85.53
5786,-85.52
5798,-85.18
5810,-83.97
5822,-81.34
5834,-76.85
5846,-70.2
5858,-61.4
5870,-50.85
5882,-39.25
5894,-27.52
5906,-16.52
5918,-6.9
5929,1.08
5940,7.48
5952,12.6
5964,16.75
5976,20.16
5988,22.91
6000,24.96
6012,26.24
6024,26.79
6036,26.73
6048,26.27
6060,25.64
6072,25.01
6084,24.44
6096,23.97
6108,23.57
6119,23.26
6130,23.03
6142,22.85
6154,22.66
6166,22.31
6178,21.66
6190,20.63
6202,19.28
6214,17.74
6226,16.21
6238,14.8
6250,13.49
6262,12.13
6274,10.56
6286,8.69
6298,6.55
6309,4.29
6320,2.1
6332,0.12
6344,-1.64
6356,-3.23
6368,-4.75
6380,-6.28
6392,-7.87
6404,-9.47
6416,-11.01
6428,-12.45
6440,-13.81
6452,-15.2
6464,-16.73
6476,-18.5
6488,-20.5
6499,-22.68
6510,-24.94
6522,-27.25
6534,-29.51
6546,-31.54
6558,-33.0
6570,-33.38
6582,-32.21
6594,-29.27
6606,-24.75
6618,-19.2
6630,-13.32
6642,-7.76
6654,-2.83
6666,1.35
6678,4.82
6689,7.59
6700,9.58
6712,10.72
6724,11.07
6736,10.82
6748,10.3
6760,9.81
6772,9.52
6784,9.41
6796,9.39
6808,9.43
6820,9.58
6832,9.98
6844,10.69
6856,11.64
6868,12.57
6879,13.15
6890,13.21
6902,12.75
6914,12.01
6926,11.28
6938,10.74
6950,10.38
6962,10.0
6974,9.36
6986,8.34
6998,7.02
7010,5.6
7022,4.28
7034,3.18
7046,2.22
7058,1.27
7069,0.24
7080,-0.91
7092,-2.13
7104,-3.42
7116,-4.81
7128,-6.38
7140,-8.17
7152,-10.12
7164,-12.09
7176,-13.9
7188,-15.46
7200,-16.84
7212,-18.26
7224,-19.94
7236,-22.0
7248,-24.32
7259,-26.58
7270,-28.26
7282,-28.88
7294,-28.07
7306,-25.67
7318,-21.87
7330,-17.07
7342,-11.82
7354,-6.69
7366,-2.14
7378,1.57
7390,4.34
7402,6.2
7414,7.23
7426,7.54
7438,7.2
7449,6.34
7460,5.11
7472,3.71
7484,2.35
7496,1.2
7508,0.38
7520,-0.01
7532,0.07
7544,0.62
7556,1.56
7568,2.75
7580,3.98
7592,5.06
7604,5.86
7616,6.34
7628,6.53
7639,6.46
7650,6.17
7662,5.68
7674,5.02
7686,4.23
7698,3.42
7710,2.64
7722,1.87
7734,1.03
7746,0.01
7758,-1.24
7770,-2.7
7782,-4.25
7794,-5.79
7806,-7.19
7818,-8.41
7829,-9.43
7840,-10.24
7852,-10.86
7864,-11.38
7876,-11.99
7888,-12.9
7900,-14.29
7912,-16.24
7924,-18.6
7936,-21.03
7948,-23.06
7960,-24.17
7972,-23.99
7984,-22.29
7996,-19.13
8008,-14.8
8019,-9.72
8030,-4.4
8042,0.71
8054,5.27
8066,9.06
8078,12.03
8090,14.14
8102,15.43
8114,15.91
8126,15.68
8138,14.88
8150,13.76
8162,12.6
8174,11.61
8186,10.94
8198,10.59
8209,10.49
8220,10.54
8232,10.66
8244,10.83
8256,11.05
8268,11.29
8280,11.5
8292,11.57
8304,11.43
8316,11.08
8328,10.57
8340,9.97
8352,9.35
8364,8.67
8376,7.88
8388,6.9
8399,5.74
8410,4.46
8422,3.17
8434,1.93
8446,0.73
8458,-0.49
8470,-1.81
8482,-3.23
8494,-4.68
8506,-6.06
8518,-7.26
8530,-8.26
8542,-9.13
8554,-9.97
8566,-10.92
8578,-12.07
8589,-13.51
8600,-15.3
8612,-17.43
8624,-19.85
8636,-22.39
8648,-24.73
8660,-26.43
8672,-27.04
8684,-26.15
8696,-23.6
8708,-19.52
8720,-14.37
8732,-8.78
8744,-3.41
8756,1.28
8768,5.06
8779,7.92
8790,9.92
8802,11.11
8814,11.48
8826,11.1
8838,10.13
8850,8.89
8862,7.74
8874,6.96
8886,6.62
8898,6.62
8910,6.73
8922,6.76
8934,6.63
8946,6.4
8958,6.19
8969,6.11
8980,6.21
8992,6.44
9004,6.71
9016,6.89
9028,6.91
9040,6.66
9052,6.09
9064,5.14
9076,3.85
9088,2.3
9100,0.68
9112,-0.8
9124,-1.95
9136,-2.7
9148,-3.11
9159,-3.35
9170,-3.61
9182,-4.04
9194,-4.62
9206,-5.27
9218,-5.87
9230,-6.38
9242,-6.85
9254,-7.38
9266,-8.03
9278,-8.83
9290,-9.8
9302,-10.97
9314,-12.46
9326,-14.37
9338,-16.67
9349,-19.11
9360,-21.16
9372,-22.2
9384,-21.7
9396,-19.45
9408,-15.6
9420,-10.58
9432,-4.92
9444,0.86
9456,6.35
9468,11.24
9480,15.31
9492,18.41
9504,20.56
9516,21.88
9528,22.56
9539,22.78
9550,22.65
9562,22.15
9574,21.3
9586,20.14
9598,18.87
9610,17.7
9622,16.83
9634,16.36
9646,16.29
9658,16.54
9670,16.95
9682,17.27
9694,17.21
9706,16.44
9718,14.76
9729,12.16
9740,8.9
9752,5.43
9764,2.15
9776,-0.75
9788,-3.4
9800,-6.07
9812,-8.94
9824,-11.85
9836,-14.28
9848,-15.58
9860,-15.32
9872,-13.49
9884,-10.53
9896,-7.06
9908,-3.49
9919,0.14
9930,4.16
9942,9.03
9954,15.08
9966,22.31
9978,30.43
9990,39.0
10002,47.65
10014,56.1
10026,64.37
10038,72.7
10050,81.56
10062,91.54
10074,103.02
10086,115.88
10098,129.29
10109,141.78
10120,151.62
10132,157.38
10144,158.33
10156,154.5
10168,146.46
10180,135.01
10192,120.91
10204,104.96
10216,88.07
10228,71.35
10240,55.96
10252,42.68
10264,31.63
10276,22.18
10288,13.18
10299,3.47
10310,-7.71
10322,-20.49
10334,-34.33
10346,-48.29
10358,-61.25
10370,-72.16
10382,-80.31
10394,-85.4
10406,-87.67
10418,-87.79
10430,-86.68
10442,-85.24
10454,-84.05
10466,-83.41
10478,-83.36
10489,-83.89
10500,-85.06
10512,-86.89
10524,-89.28
10536,-91.89
10548,-94.21
10560,-95.73
10572,-96.25
10584,-95.87
10596,-94.96
10608,-93.83
10620,-92.57
10632,-91.02
10644,-88.94
10656,-86.19
10668,-82.83
10679,-78.99
10690,-74.77
10702,-70.14
10714,-64.93
10726,-59.08
10738,-52.73
10750,-46.31
10762,-40.38
10774,-35.43
10786,-31.69
10798,-29.12
10810,-27.4
10822,-26.23
10834,-25.4
10846,-24.91
10858,-24.88
10869,-25.45
10880,-26.67
10892,-28.41
10904,-30.31
10916,-31.97
10928,-33.11
10940,-33.65
10952,-33.81
10964,-33.97
10976,-34.46
10988,-35.48
11000,-36.95
11012,-38.62
11024,-40.21
11036,-41.55
11048,-42.67
11059,-43.72
11070,-44.94
11082,-46.46
11094,-48.32
11106,-50.44
11118,-52.73
11130,-55.14
11142,-57.64
11154,-60.18
11166,-62.64
11178,-64.79
11190,-66.41
11202,-67.32
11214,-67.54
11226,-67.27
11238,-66.73
11249,-66.03
11260,-64.99
11272,-63.13
11284,-59.74
11296,-54.19
11308,-46.18
11320,-35.92
11332,-24.14
11344,-11.8
11356,0.12
11368,10.87
11380,20.08
11392,27.64
11404,33.64
11416,38.19
11428,41.39
11439,43.34
11450,44.26
11462,44.49
11474,44.49
11486,44.68
11498,45.28
11510,46.27
11522,47.4
11534,48.39
11546,49.08
11558,49.5
11570,49.8
11582,50.14
11594,50.57
11606,50.91
11618,50.9
11629,50.25
11640,48.79
11652,46.54
11664,43.72
11676,40.63
11688,37.58
11700,34.75
11712,32.13
11724,29.55
11736,26.77
11748,23.64
11760,20.18
11772,16.62
11784,13.21
11796,10.17
11808,7.55
11819,5.21
11830,2.92
11842,0.45
11854,-2.38
11866,-5.69
11878,-9.52
11890,-13.86
11902,-18.51
11914,-23.04
11926,-26.82
11938,-29.08
11950,-29.19
11962,-26.89
11974,-22.36
11986,-16.22
11998,-9.26
12009,-2.24
12020,4.39
12032,10.4
12044,15.69
12056,20.14
12068,23.56
12080,25.73
12092,26.62
12104,26.42
12116,25.57
12128,24.6
12140,23.97
12152,23.92
12164,24.44
12176,25.37
12188,26.49
12199,27.65
12210,28.73
12222,29.7
12234,30.53
12246,31.2
12258,31.67
12270,31.88
12282,31.76
12294,31.3
12306,30.52
12318,29.53
12330,28.49
12342,27.47
12354,26.49
12366,25.47
12378,24.3
12389,22.88
12400,21.19
12412,19.24
12424,17.12
12436,14.95
12448,12.89
12460,11.09
12472,9.64
12484,8.52
12496,7.57
12508,6.54
12520,5.16
12532,3.3
12544,1.01
12556,-1.53
12568,-4.13
12579,-6.65
12590,-9.06
12602,-11.4
12614,-13.76
12626,-16.28
12638,-19.15
12650,-22.57
12662,-26.62
12674,-31.06
12686,-35.31
12698,-38.46
12710,-39.57
12722,-38.01
12734,-33.69
12746,-27.13
12758,-19.22
12769,-10.93
12780,-3.02
12792,4.09
12804,10.2
12816,15.25
12828,19.2
12840,21.97
12852,23.59
12864,24.21
12876,24.12
12888,23.78
12900,23.58
12912,23.83
12924,24.61
12936,25.81
12948,27.2
12959,28.56
12970,29.76
12982,30.79
12994,31.75
13006,32.73
13018,33.75
13030,34.66
13042,35.2
13054,35.14
13066,34.35
13078,32.93
13090,31.11
13102,29.16
13114,27.3
13126,25.6
13138,24.01
13149,22.43
13160,20.85
13172,19.31
13184,17.91
13196,16.74
13208,15.81
13220,15.03
13232,14.27
13244,13.37
13256,12.23
13268,10.84
13280,9.22
13292,7.52
13304,5.85
13316,4.32
13328,2.95
13339,1.66
13350,0.37
13362,-1.04
13374,-2.63
13386,-4.39
13398,-6.29
13410,-8.28
13422,-10.29
13434,-12.28
13446,-14.22
13458,-16.16
13470,-18.21
13482,-20.58
13494,-23.44
13506,-26.7
13518,-29.95
13529,-32.43
13540,-33.34
13552,-32.07
13564,-28.52
13576,-23.13
13588,-16.63
13600,-9.82
13612,-3.23
13624,2.86
13636,8.38
13648,13.22
13660,17.14
13672,19.88
13684,21.23
13696,21.28
13708,20.33
13719,18.92
13730,17.54
13742,16.57
13754,16.13
13766,16.16
13778,16.52
13790,17.08
13802,17.79
13814,18.69
13826,19.78
13838,20.97
13850,22.02
13862,22.63
13874,22.57
13886,21.86
13898,20.71
13909,19.49
13920,18.46
13932,17.66
13944,16.97
13956,16.2
13968,15.3
13980,14.34
13992,13.49
14004,12.8
14016,12.16
14028,11.36
14040,10.19
14052,8.67
14064,6.97
14076,5.39
14088,4.09
14099,3.04
14110,2.07
14122,1.0
14134,-0.28
14146,-1.72
14158,-3.23
14170,-4.77
14182,-6.38
14194,-8.14
14206,-10.12
14218,-12.25
14230,-14.38
14242,-16.34
14254,-18.05
14266,-19.65
14278,-21.43
14289,-23.73
14300,-26.71
14312,-30.17
14324,-33.51
14336,-35.82
14348,-36.21
14360,-34.13
14372,-29.6
14384,-23.21
14396,-15.89
14408,-8.6
14420,-2.04
14432,3.46
14444,7.87
14456,11.27
14468,13.77
14479,15.39
14490,16.21
14502,16.35
14514,16.04
14526,15.56
14538,15.14
14550,14.9
14562,14.84
14574,14.87
14586,14.93
14598,15.03
14610,15.28
14622,15.78
14634,16.59
14646,17.65
14658,18.79
14669,19.75
14680,20.33
14692,20.42
14704,20.03
14716,19.3
14728,18.34
14740,17.23
14752,16.04
14764,14.78
14776,13.48
14788,12.19
14800,10.96
14812,9.84
14824,8.84
14836,7.97
14848,7.18
14859,6.42
14870,5.67
14882,4.93
14894,4.2
14906,3.46
14918,2.63
14930,1.66
14942,0.54
14954,-0.69
14966,-1.91
14978,-3.01
14990,-3.98
15002,-4.9
15014,-5.93
15026,-7.28
15038,-9.04
15049,-11.16
15060,-13.47
15072,-15.72
15084,-17.73
15096,-19.42
15108,-20.87
15120,-22.26
15132,-23.84
15144,-25.82
15156,-28.25
15168,-30.96
15180,-33.52
15192,-35.37
15204,-35.91
15216,-34.74
15228,-31.76
15239,-27.27
15250,-21.8
15262,-16.02
15274,-10.52
15286,-5.71
15298,-1.78
15310,1.25
15322,3.44
15334,4.85
15346,5.56
15358,5.67
15370,5.28
15382,4.53
15394,3.6
15406,2.68
15418,1.93
15429,1.48
15440,1.38
15452,1.63
15464,2.15
15476,2.85
15488,3.61
15500,4.33
15512,4.94
15524,5.39
15536,5.61
15548,5.57
15560,5.28
15572,4.79
15584,4.26
15596,3.9
15608,3.88
15619,4.3
15630,5.11
15642,6.09
15654,6.96
15666,7.5
15678,7.63
15690,7.42
15702,7.08
15714,6.79
15726,6.61
15738,6.5
15750,6.28
15762,5.84
15774,5.12
15786,4.23
15798,3.35
15809,2.66
15820,2.21
15832,1.94
15844,1.64
15856,1.07
15868,0.07
15880,-1.36
15892,-3.1
15904,-4.94
15916,-6.65
15928,-8.11
15940,-9.34
15952,-10.44
15964,-11.56
15976,-12.83
15988,-14.37
15999,-16.28
16010,-18.59
16022,-21.21
16034,-23.86
16046,-26.08
16058,-27.29
16070,-26.99
16082,-24.95
16094,-21.28
16106,-16.45
16118,-11.08
16130,-5.78
16142,-1.01
16154,2.98
16166,6.1
16178,8.38
16189,9.92
16200,10.83
16212,11.28
16224,11.38
16236,11.27
16248,10.98
16260,10.59
16272,10.16
16284,9.8
16296,9.61
16308,9.69
16320,10.08
16332,10.72
16344,11.51
16356,12.38
16368,13.25
16379,14.08
16390,14.8
16402,15.36
16414,15.63
16426,15.51
16438,14.95
16450,14.0
16462,12.79
16474,11.47
16486,10.22
16498,9.16
16510,8.32
16522,7.67
16534,7.11
16546,6.51
16558,5.77
16569,4.84
16580,3.74
16592,2.54
16604,1.33
16616,0.2
16628,-0.8
16640,-1.65
16652,-2.38
16664,-3.02
16676,-3.61
16688,-4.23
16700,-4.94
16712,-5.84
16724,-6.96
16736,-8.3
16748,-9.78
16759,-11.28
16770,-12.69
16782,-13.95
16794,-15.06
16806,-16.13
16818,-17.38
16830,-18.99
16842,-21.05
16854,-23.32
16866,-25.31
16878,-26.36
16890,-25.89
16902,-23.63
16914,-19.69
16926,-14.58
16938,-9.0
16949,-3.63
16960,1.03
16972,4.75
16984,7.47
16996,9.29
17008,10.34
17020,10.77
17032,10.7
17044,10.23
17056,9.45
17068,8.51
17080,7.54
17092,6.73
17104,6.23
17116,6.12
17128,6.38
17139,6.9
17150,7.56
17162,8.27
17174,8.98
17186,9.65
17198,10.25
17210,10.69
17222,10.87
17234,10.68
17246,10.08
17258,9.16
17270,8.07
17282,6.99
17294,6.05
17306,5.22
17318,4.42
17329,3.51
17340,2.43
17352,1.21
17364,-0.0
17376,-1.04
17388,-1.82
17400,-2.36
17412,-2.83
17424,-3.39
17436,-4.17
17448,-5.17
17460,-6.29
17472,-7.4
17484,-8.39
17496,-9.27
17508,-10.07
17519,-10.87
17530,-11.72
17542,-12.66
17554,-13.78
17566,-15.21
17578,-17.06
17590,-19.27
17602,-21.49
17614,-23.16
17626,-23.63
17638,-22.45
17650,-19.54
17662,-15.27
17674,-10.25
17686,-5.13
17698,-0.39
17709,3.7
17720,7.03
17732,9.57
17744,11.34
17756,12.33
17768,12.59
17780,12.23
17792,11.4
17804,10.3
17816,9.15
17828,8.15
17840,7.45
17852,7.11
17864,7.1
17876,7.3
17888,7.63
17899,8.05
17910,8.57
17922,9.22
17934,9.99
17946,10.74
17958,11.29
17970,11.44
17982,11.12
17994,10.37
18006,9.35
18018,8.24
18030,7.25
18042,6.45
18054,5.81
18066,5.18
18078,4.36
18089,3.17
18100,1.61
18112,-0.19
18124,-1.97
18136,-3.46
18148,-4.56
18160,-5.28
18172,-5.81
18184,-6.36
18196,-7.07
18208,-7.98
18220,-9.02
18232,-10.07
18244,-11.07
18256,-12.03
18268,-12.99
18279,-14.03
18290,-15.19
18302,-16.49
18314,-17.99
18326,-19.79
18338,-21.98
18350,-24.57
18362,-27.32
18374,-29.69
18386,-30.99
18398,-30.57
18410,-28.12
18422,-23.81
18434,-18.27
18446,-12.32
18458,-6.71
18469,-1.91
18480,1.98
18492,5.05
18504,7.48
18516,9.35
18528,10.65
18540,11.33
18552,11.37
18564,10.9
18576,10.14
18588,9.35
18600,8.74
18612,8.41
18624,8.34
18636,8.48
18648,8.78
18659,9.21
18670,9.81
18682,10.53
18694,11.3
18706,11.95
18718,12.34
18730,12.37
18742,12.02
18754,11.38
18766,10.57
18778,9.69
18790,8.86
18802,8.1
18814,7.4
18826,6.67
18838,5.79
18849,4.63
18860,3.18
18872,1.57
18884,0.0
18896,-1.26
18908,-2.08
18920,-2.46
18932,-2.62
18944,-2.82
18956,-3.31
18968,-4.21
18980,-5.5
18992,-7.04
19004,-8.65
19016,-10.18
19028,-11.52
19039,-12.64
19050,-13.58
19062,-14.49
19074,-15.57
19086,-17.06
19098,-19.11
19110,-21.75
19122,-24.74
19134,-27.58
19146,-29.58
19158,-30.08
19170,-28.6
19182,-25.08
19194,-19.91
19206,-13.82
19218,-7.64
19229,-2.09
19240,2.44
19252,5.88
19264,8.41
19276,10.26
19288,11.53
19300,12.22
19312,12.3
19324,11.83
19336,11.06
19348,10.35
19360,10.04
19372,10.23
19384,10.81
19396,11.5
19408,12.11
19419,12.58
19430,13.05
19442,13.67
19454,14.51
19466,15.43
19478,16.17
19490,16.49
19502,16.28
19514,15.61
19526,14.68
19538,13.64
19550,12.6
19562,11.56
19574,10.5
19586,9.41
19598,8.34
19609,7.32
19620,6.33
19632,5.3
19644,4.1
19656,2.69
19668,1.12
19680,-0.46
19692,-1.88
19704,-3.04
19716,-3.98
19728,-4.81
19740,-5.65
19752,-6.57
19764,-7.55
19776,-8.58
19788,-9.65
19799,-10.85
19810,-12.26
19822,-13.94
19834,-15.88
19846,-18.02
19858,-20.27
19870,-22.53
19882,-24.61
19894,-26.2
19906,-26.9
19918,-26.31
19930,-24.18
19942,-20.58
19954,-15.88
19966,-10.65
19978,-5.51
19989,-0.93
20000,2.85
20012,5.8
20024,8.0
20036,9.54
20048,10.45
20060,10.77
20072,10.56
20084,9.98
20096,9.27
20108,8.65
20120,8.32
20132,8.31
20144,8.53
20156,8.9
20168,9.37
20179,9.99
20190,10.81
20202,11.76
20214,12.69
20226,13.36
20238,13.6
20250,13.38
20262,12.78
20274,11.98
20286,11.08
20298,10.15
20310,9.18
20322,8.18
20334,7.15
20346,6.1
20358,4.98
20369,3.77
20380,2.45
20392,1.13
20404,-0.06
20416,-1.01
20428,-1.75
20440,-2.48
20452,-3.43
20464,-4.7
20476,-6.21
20488,-7.71
20500,-8.97
20512,-9.93
20524,-10.77
20536,-11.79
20548,-13.33
20559,-15.5
20570,-18.22
20582,-21.14
20594,-23.8
20606,-25.68
20618,-26.35
20630,-25.5
20642,-23.05
20654,-19.17
20666,-14.27
20678,-8.91
20690,-3.69
20702,0.96
20714,4.81
20726,7.81
20738,10.06
20749,11.66
20760,12.68
20772,13.16
20784,13.13
20796,12.7
20808,12.08
20820,11.51
20832,11.21
20844,11.27
20856,11.68
20868,12.32
20880,13.09
20892,13.93
20904,14.83
20916,15.78
20928,16.7
20939,17.43
20950,17.78
20962,17.61
20974,16.89
20986,15.75
20998,14.43
