seconds,BVP
6,-160.41
18,-152.15
30,-141.27
42,-129.18
54,-116.94
66,-104.94
78,-93.0
90,-80.7
102,-67.78
114,-54.3
126,-40.66
138,-27.43
149,-15.12
160,-4.06
172,5.59
184,13.87
196,20.89
208,26.81
220,31.76
232,35.87
244,39.27
256,42.03
268,44.14
280,45.41
292,45.4
304,43.45
316,38.85
328,31.11
339,20.3
350,7.26
362,-6.38
374,-18.43
386,-26.59
398,-28.98
410,-24.52
422,-13.2
434,4.05
446,25.56
458,49.37
470,73.57
482,96.44
494,116.66
506,133.26
518,145.79
529,154.3
540,159.49
552,162.44
564,164.4
576,166.32
588,168.67
600,171.37
612,173.95
624,175.76
636,176.12
648,174.16
660,168.87
672,159.2
684,144.54
696,125.18
708,102.44
719,78.34
730,54.76
742,32.68
754,11.8
766,-9.09
778,-31.32
790,-55.41
802,-80.64
814,-105.33
826,-127.47
838,-145.52
850,-158.75
862,-167.19
874,-171.16
886,-170.86
898,-166.33
909,-157.62
920,-145.17
932,-130.13
944,-114.2
956,-99.21
968,-86.57
980,-76.86
992,-69.75
1004,-64.34
1016,-59.67
1028,-55.07
1040,-50.29
1052,-45.39
1064,-40.47
1076,-35.36
1088,-29.63
1099,-22.64
1110,-13.85
1122,-3.05
1134,9.46
1146,23.04
1158,36.94
1170,50.72
1182,64.4
1194,78.42
1206,93.22
1218,108.83
1230,124.53
1242,138.98
1254,150.61
1266,158.13
1278,160.89
1289,158.92
1300,152.74
1312,143.04
1324,130.48
1336,115.6
1348,98.8
1360,80.23
1372,59.68
1384,36.55
1396,9.94
1408,-20.83
1420,-55.75
1432,-93.82
1444,-133.08
1456,-171.25
1468,-206.42
1479,-237.6
1490,-264.71
1502,-288.2
1514,-308.35
1526,-324.86
1538,-336.89
1550,-343.52
1562,-344.41
1574,-340.2
1586,-332.54
1598,-323.41
1610,-314.38
1622,-306.01
1634,-297.69
1646,-288.11
1658,-275.9
1669,-260.27
1680,-241.18
1692,-219.16
1704,-194.84
1716,-168.66
1728,-140.79
1740,-111.29
1752,-80.17
1764,-47.29
1776,-12.37
1788,24.77
1800,63.49
1812,101.69
1824,135.64
1836,160.87
1848,173.73
1859,173.13
1870,161.35
1882,143.47
1894,125.67
1906,113.19
1918,109.12
1930,114.26
1942,127.84
1954,148.38
1966,174.06
1978,202.53
1990,230.78
2002,255.47
2014,273.75
2026,284.31
2038,287.78
2049,286.2
2060,281.89
2072,276.2
2084,268.98
2096,259.01
2108,244.95
2120,226.3
2132,203.76
2144,178.84
2156,153.21
2168,128.21
2180,104.68
2192,83.19
2204,64.18
2216,47.86
2228,33.98
2239,21.59
2250,9.16
2262,-4.82
2274,-21.17
2286,-39.5
2298,-58.27
2310,-75.36
2322,-88.92
2334,-98.09
2346,-103.16
2358,-105.37
2370,-106.18
2382,-106.73
2394,-107.5
2406,-108.4
2418,-109.05
2429,-109.12
2440,-108.54
2452,-107.51
2464,-106.43
2476,-105.68
2488,-105.43
2500,-105.55
2512,-105.59
2524,-104.85
2536,-102.62
2548,-98.32
2560,-91.68
2572,-82.81
2584,-72.18
2596,-60.49
2608,-48.55
2619,-37.2
2630,-27.16
2642,-19.01
2654,-13.11
2666,-9.47
2678,-7.79
2690,-7.41
2702,-7.53
2714,-7.41
2726,-6.6
2738,-5.02
2750,-2.96
2762,-0.79
2774,1.2
2786,2.98
2798,4.73
2809,6.72
2820,9.04
2832,11.41
2844,13.16
2856,13.34
2868,11.04
2880,5.75
2892,-2.32
2904,-12.02
2916,-21.49
2928,-28.56
2940,-31.43
2952,-29.18
2964,-21.99
2976,-10.94
2988,2.37
2999,16.34
3010,29.66
3022,41.42
3034,51.06
3046,58.27
3058,62.96
3070,65.19
3082,65.12
3094,62.94
3106,58.83
3118,52.91
3130,45.34
3142,36.37
3154,26.31
3166,15.48
3178,4.13
3189,-7.51
3200,-19.14
3212,-30.23
3224,-40.04
3236,-47.84
3248,-53.17
3260,-56.12
3272,-57.33
3284,-57.76
3296,-58.36
3308,-59.7
3320,-61.88
3332,-64.51
3344,-66.88
3356,-68.1
3368,-67.15
3379,-63.07
3390,-55.05
3402,-42.73
3414,-26.36
3426,-6.99
3438,13.7
3450,33.64
3462,50.82
3474,63.71
3486,71.41
3498,73.77
3510,71.21
3522,64.66
3534,55.31
3546,44.58
3558,33.82
3569,24.25
3580,16.65
3592,11.28
3604,7.92
3616,5.95
3628,4.66
3640,3.41
3652,1.8
3664,-0.35
3676,-3.01
3688,-6.09
3700,-9.43
3712,-12.84
3724,-16.03
3736,-18.6
3748,-20.02
3759,-19.8
3770,-17.56
3782,-13.25
3794,-7.18
3806,0.04
3818,7.67
3830,15.03
3842,21.66
3854,27.28
3866,31.75
3878,34.91
3890,36.58
3902,36.66
3914,35.22
3926,32.63
3938,29.48
3949,26.42
3960,23.94
3972,22.18
3984,20.87
3996,19.57
4008,17.84
4020,15.46
4032,12.54
4044,9.47
4056,6.75
4068,4.93
4080,4.39
4092,5.26
4104,7.35
4116,10.14
4128,12.89
4139,14.89
4150,15.71
4162,15.43
4174,14.51
4186,13.65
4198,13.42
4210,14.08
4222,15.48
4234,17.27
4246,19.09
4258,20.73
4270,22.18
4282,23.46
4294,24.59
4306,25.41
4318,25.73
4329,25.35
4340,24.23
4352,22.5
4364,20.39
4376,18.22
4388,16.14
4400,14.18
4412,12.24
4424,10.2
4436,7.98
4448,5.66
4460,3.4
4472,1.39
4484,-0.28
4496,-1.62
4508,-2.73
4519,-3.77
4530,-4.86
4542,-6.15
4554,-7.73
4566,-9.68
4578,-12.0
4590,-14.48
4602,-16.75
4614,-18.21
4626,-18.32
4638,-16.74
4650,-13.54
4662,-9.18
4674,-4.34
4686,0.31
4698,4.29
4709,7.37
4720,9.51
4732,10.76
4744,11.14
4756,10.78
4768,9.85
4780,8.66
4792,7.58
4804,6.87
4816,6.64
4828,6.76
4840,6.97
4852,6.96
4864,6.58
4876,5.82
4888,4.83
4899,3.82
4910,2.92
4922,2.13
4934,1.31
4946,0.32
4958,-0.99
4970,-2.63
4982,-4.55
4994,-6.61
5006,-8.65
5018,-10.49
5030,-11.89
5042,-12.61
5054,-12.43
5066,-11.25
5078,-9.15
5089,-6.37
5100,-3.31
5112,-0.31
5124,2.29
5136,4.29
5148,5.57
5160,6.07
5172,5.8
5184,4.9
5196,3.6
5208,2.2
5220,1.02
5232,0.26
5244,-0.04
5256,0.08
5268,0.45
5279,0.93
5290,1.4
5302,1.77
5314,1.96
5326,1.94
5338,1.68
5350,1.16
5362,0.39
5374,-0.66
5386,-2.01
5398,-3.72
5410,-5.76
5422,-8.05
5434,-10.4
5446,-12.52
5458,-14.1
5469,-14.82
5480,-14.44
5492,-12.85
5504,-10.12
5516,-6.52
5528,-2.51
5540,1.36
5552,4.59
5564,6.84
5576,7.99
5588,8.1
5600,7.37
5612,6.02
5624,4.3
5636,2.43
5648,0.66
5659,-0.79
5670,-1.77
5682,-2.22
5694,-2.22
5706,-1.93
5718,-1.55
5730,-1.21
5742,-0.98
5754,-0.84
5766,-0.77
5778,-0.79
5790,-0.93
5802,-1.28
5814,-1.92
5826,-2.92
5838,-4.29
5849,-6.02
5860,-8.01
5872,-10.07
5884,-11.89
5896,-13.11
5908,-13.35
5920,-12.34
5932,-10.08
5944,-6.79
5956,-2.93
5968,0.96
5980,4.34
5992,6.86
6004,8.32
6016,8.73
6028,8.17
6039,6.86
6050,5.07
6062,3.13
6074,1.4
6086,0.14
6098,-0.56
6110,-0.74
6122,-0.57
6134,-0.21
6146,0.22
6158,0.7
6170,1.22
6182,1.7
6194,2.05
6206,2.18
6218,2.03
6229,1.6
6240,0.91
6252,-0.02
6264,-1.24
6276,-2.79
6288,-4.66
6300,-6.76
6312,-8.88
6324,-10.75
6336,-12.1
6348,-12.67
6360,-12.26
6372,-10.77
6384,-8.24
6396,-4.87
6408,-1.04
6419,2.78
6430,6.09
6442,8.49
6454,9.68
6466,9.61
6478,8.37
6490,6.23
6502,3.55
6514,0.8
6526,-1.64
6538,-3.47
6550,-4.53
6562,-4.8
6574,-4.38
6586,-3.48
6598,-2.41
6609,-1.49
6620,-0.99
6632,-1.04
6644,-1.58
6656,-2.41
6668,-3.24
6680,-3.92
6692,-4.44
6704,-4.98
6716,-5.77
6728,-6.95
6740,-8.49
6752,-10.21
6764,-11.83
6776,-13.06
6788,-13.65
6799,-13.43
6810,-12.29
6822,-10.19
6834,-7.25
6846,-3.67
6858,0.21
6870,3.98
6882,7.22
6894,9.57
6906,10.81
6918,10.84
6930,9.73
6942,7.75
6954,5.29
6966,2.78
6978,0.62
6989,-0.91
7000,-1.71
7012,-1.82
7024,-1.41
7036,-0.72
7048,0.01
7060,0.56
7072,0.84
7084,0.82
7096,0.57
7108,0.14
7120,-0.44
7132,-1.21
7144,-2.22
7156,-3.5
7168,-5.03
7179,-6.8
7190,-8.81
7202,-11.05
7214,-13.45
7226,-15.75
7238,-17.49
7250,-18.09
7262,-17.05
7274,-14.23
7286,-9.93
7298,-4.81
7310,0.29
7322,4.69
7334,7.93
7346,9.86
7358,10.52
7369,10.07
7380,8.71
7392,6.7
7404,4.39
7416,2.13
7428,0.28
7440,-0.97
7452,-1.56
7464,-1.61
7476,-1.3
7488,-0.86
7500,-0.41
7512,-0.03
7524,0.26
7536,0.44
7548,0.5
7559,0.36
7570,-0.02
7582,-0.73
7594,-1.83
7606,-3.36
7618,-5.33
7630,-7.73
7642,-10.43
7654,-13.18
7666,-15.57
7678,-17.14
7690,-17.44
7702,-16.2
7714,-13.41
7726,-9.37
7738,-4.57
7749,0.38
7760,4.9
7772,8.49
7784,10.84
7796,11.79
7808,11.34
7820,9.68
7832,7.14
7844,4.16
7856,1.22
7868,-1.27
7880,-3.07
7892,-4.08
7904,-4.41
7916,-4.28
7928,-3.92
7939,-3.57
7950,-3.34
7962,-3.28
7974,-3.4
7986,-3.64
7998,-4.01
8010,-4.53
8022,-5.32
8034,-6.5
8046,-8.25
8058,-10.64
8070,-13.63
8082,-16.95
8094,-20.11
8106,-22.52
8118,-23.57
8129,-22.86
8140,-20.28
8152,-16.08
8164,-10.74
8176,-4.89
8188,0.85
8200,5.94
8212,9.97
8224,12.61
8236,13.62
8248,12.94
8260,10.73
8272,7.48
8284,3.86
8296,0.64
8308,-1.56
8319,-2.54
8330,-2.43
8342,-1.72
8354,-0.91
8366,-0.37
8378,-0.23
8390,-0.42
8402,-0.84
8414,-1.42
8426,-2.22
8438,-3.28
8450,-4.62
8462,-6.22
8474,-8.1
8486,-10.32
8498,-12.95
8509,-15.92
8520,-18.92
8532,-21.43
8544,-22.76
8556,-22.4
8568,-20.1
8580,-16.03
8592,-10.65
8604,-4.55
8616,1.64
8628,7.34
8640,12.04
8652,15.31
8664,16.86
8676,16.63
8688,14.84
8699,12.0
8710,8.77
8722,5.81
8734,3.62
8746,2.43
8758,2.18
8770,2.59
8782,3.28
8794,3.93
8806,4.35
8818,4.44
8830,4.26
8842,3.86
8854,3.24
8866,2.34
8878,1.05
8889,-0.74
8900,-3.14
8912,-6.13
8924,-9.64
8936,-13.42
8948,-17.04
8960,-19.92
8972,-21.36
8984,-20.78
8996,-17.88
9008,-12.83
9020,-6.28
9032,0.81
9044,7.47
9056,12.95
9068,16.91
9079,19.38
9090,20.57
9102,20.79
9114,20.21
9126,18.93
9138,16.99
9150,14.51
9162,11.7
9174,8.94
9186,6.77
9198,5.73
9210,6.18
9222,8.09
9234,10.94
9246,13.78
9258,15.56
9269,15.54
9280,13.63
9292,10.47
9304,7.14
9316,4.65
9328,3.41
9340,3.01
9352,2.45
9364,0.68
9376,-2.67
9388,-6.99
9400,-10.74
9412,-12.13
9424,-9.78
9436,-3.2
9448,7.06
9459,19.66
9470,32.7
9482,43.77
9494,50.07
9506,49.11
9518,39.84
9530,23.93
9542,6.33
9554,-5.98
9566,-6.53
9578,7.79
9590,35.1
9602,69.2
9614,102.07
9626,126.9
9638,140.07
9649,141.22
9660,131.88
9672,113.89
9684,88.63
9696,57.45
9708,22.4
9720,-13.43
9732,-46.49
9744,-73.99
9756,-94.8
9768,-109.62
9780,-120.2
9792,-128.3
9804,-134.8
9816,-139.48
9828,-141.36
9839,-139.4
9850,-132.98
9862,-122.26
9874,-108.18
9886,-92.27
9898,-76.35
9910,-62.17
9922,-50.95
9934,-43.04
9946,-37.7
9958,-33.4
9970,-28.4
9982,-21.45
9994,-12.29
10006,-1.7
10018,9.05
10029,18.8
10040,27.12
10052,34.39
10064,41.49
10076,49.13
10088,57.21
10100,64.58
10112,69.29
10124,69.3
10136,63.23
10148,51.0
10160,33.77
10172,13.53
10184,-7.63
10196,-28.0
10208,-46.29
10219,-61.35
10230,-71.84
10242,-76.36
10254,-73.93
10266,-64.65
10278,-50.0
10290,-32.45
10302,-14.59
10314,1.87
10326,16.51
10338,30.1
10350,43.68
10362,57.8
10374,71.96
10386,84.67
10398,93.89
10409,97.63
10420,94.38
10432,83.47
10444,65.27
10456,41.34
10468,14.57
10480,-11.13
10492,-31.41
10504,-42.57
10516,-42.72
10528,-32.51
10540,-15.01
10552,5.35
10564,24.3
10576,39.11
10588,49.12
10599,55.57
10610,60.71
10622,66.98
10634,76.37
10646,90.08
10658,108.24
10670,129.58
10682,151.4
10694,170.01
10706,181.74
10718,184.15
10730,176.92
10742,161.86
10754,142.19
10766,121.26
10778,101.55
10789,84.23
10800,69.3
10812,56.08
10824,43.58
10836,30.78
10848,16.72
10860,0.61
10872,-17.99
10884,-39.03
10896,-61.95
10908,-85.9
10920,-110.0
10932,-133.59
10944,-156.25
10956,-177.73
10968,-197.68
10979,-215.56
10990,-230.58
11002,-241.81
11014,-248.3
11026,-249.15
11038,-243.61
11050,-231.12
11062,-211.65
11074,-185.88
11086,-155.48
11098,-122.93
11110,-91.07
11122,-62.35
11134,-38.3
11146,-19.24
11158,-4.41
11169,7.58
11180,18.23
11192,28.74
11204,39.84
11216,51.75
11228,64.36
11240,77.41
11252,90.62
11264,103.51
11276,115.3
11288,124.74
11300,130.28
11312,130.55
11324,124.9
11336,113.87
11348,99.11
11359,82.97
11370,67.88
11382,55.7
11394,47.48
11406,43.41
11418,43.02
11430,45.38
11442,49.37
11454,53.95
11466,58.36
11478,62.27
11490,65.75
11502,69.02
11514,72.32
11526,75.71
11538,79.16
11549,82.59
11560,85.96
11572,89.18
11584,91.99
11596,94.02
11608,95.05
11620,95.34
11632,95.93
11644,98.38
11656,104.12
11668,113.54
11680,125.37
11692,136.8
11704,144.29
11716,144.8
11728,136.75
11739,120.43
11750,97.65
11762,71.03
11774,43.21
11786,16.46
11798,-7.52
11810,-27.46
11822,-42.54
11834,-52.41
11846,-57.22
11858,-57.7
11870,-55.07
11882,-50.76
11894,-46.16
11906,-42.27
11918,-39.5
11929,-37.6
11940,-35.92
11952,-33.74
11964,-30.7
11976,-27.04
11988,-23.55
12000,-21.29
12012,-21.25
12024,-24.06
12036,-29.93
12048,-38.55
12060,-49.12
12072,-60.46
12084,-71.21
12096,-80.18
12108,-86.74
12119,-90.93
12130,-93.36
12142,-94.73
12154,-95.53
12166,-95.76
12178,-95.2
12190,-93.67
12202,-91.39
12214,-88.97
12226,-87.14
12238,-86.27
12250,-86.14
12262,-85.9
12274,-84.46
12286,-80.91
12298,-74.96
12309,-67.06
12320,-58.22
12332,-49.63
12344,-42.26
12356,-36.57
12368,-32.55
12380,-29.91
12392,-28.37
12404,-27.85
12416,-28.44
12428,-30.16
12440,-32.81
12452,-35.79
12464,-38.27
12476,-39.5
12488,-39.07
12499,-37.07
12510,-34.01
12522,-30.61
12534,-27.47
12546,-24.89
12558,-22.79
12570,-20.93
12582,-19.05
12594,-17.07
12606,-15.17
12618,-13.64
12630,-12.79
12642,-12.72
12654,-13.33
12666,-14.3
12678,-15.14
12689,-15.23
12700,-13.89
12712,-10.54
12724,-4.81
12736,3.19
12748,12.9
12760,23.32
12772,33.23
12784,41.52
12796,47.38
12808,50.42
12820,50.67
12832,48.47
12844,44.38
12856,39.08
12868,33.33
12879,27.92
12890,23.45
12902,20.29
12914,18.49
12926,17.81
12938,17.84
12950,18.11
12962,18.25
12974,18.02
12986,17.31
12998,16.13
13010,14.5
13022,12.45
13034,10.02
13046,7.31
13058,4.45
13069,1.63
13080,-0.94
13092,-3.12
13104,-4.82
13116,-6.0
13128,-6.6
13140,-6.58
13152,-5.83
13164,-4.3
13176,-1.97
13188,1.05
13200,4.47
13212,7.93
13224,10.95
13236,13.15
13248,14.24
13259,14.18
13270,13.08
13282,11.18
13294,8.82
13306,6.31
13318,3.97
13330,2.06
13342,0.76
13354,0.16
13366,0.19
13378,0.65
13390,1.25
13402,1.78
13414,2.05
13426,2.02
13438,1.69
13449,1.1
13460,0.29
13472,-0.71
13484,-1.88
13496,-3.21
13508,-4.7
13520,-6.38
13532,-8.22
13544,-10.15
13556,-11.99
13568,-13.44
13580,-14.18
13592,-13.92
13604,-12.51
13616,-9.95
13628,-6.47
13639,-2.43
13650,1.69
13662,5.41
13674,8.26
13686,9.96
13698,10.38
13710,9.6
13722,7.89
13734,5.64
13746,3.32
13758,1.32
13770,-0.06
13782,-0.69
13794,-0.6
13806,0.11
13818,1.26
13829,2.68
13840,4.16
13852,5.53
13864,6.6
13876,7.24
13888,7.39
13900,7.06
13912,6.32
13924,5.23
13936,3.9
13948,2.37
13960,0.7
13972,-1.06
13984,-2.88
13996,-4.72
14008,-6.52
14019,-8.13
14030,-9.36
14042,-9.92
14054,-9.54
14066,-8.07
14078,-5.57
14090,-2.33
14102,1.18
14114,4.44
14126,7.0
14138,8.57
14150,9.05
14162,8.52
14174,7.15
14186,5.2
14198,2.97
14209,0.83
14220,-0.88
14232,-1.86
14244,-1.97
14256,-1.27
14268,-0.05
14280,1.34
14292,2.49
14304,3.17
14316,3.3
14328,2.95
14340,2.26
14352,1.36
14364,0.31
14376,-0.89
14388,-2.23
14399,-3.66
14410,-5.06
14422,-6.26
14434,-7.19
14446,-7.87
14458,-8.49
14470,-9.3
14482,-10.44
14494,-11.81
14506,-13.07
14518,-13.71
14530,-13.29
14542,-11.58
14554,-8.7
14566,-5.05
14578,-1.15
14589,2.5
14600,5.53
14612,7.7
14624,8.84
14636,8.88
14648,7.79
14660,5.77
14672,3.22
14684,0.71
14696,-1.21
14708,-2.14
14720,-2.01
14732,-1.05
14744,0.32
14756,1.65
14768,2.65
14779,3.23
14790,3.42
14802,3.29
14814,2.85
14826,2.09
14838,0.97
14850,-0.46
14862,-2.04
14874,-3.57
14886,-4.85
14898,-5.8
14910,-6.48
14922,-7.04
14934,-7.71
14946,-8.68
14958,-9.95
14969,-11.32
14980,-12.4
14992,-12.7
15004,-11.8
15016,-9.55
15028,-6.14
15040,-2.04
15052,2.11
15064,5.75
15076,8.51
15088,10.2
15100,10.81
15112,10.39
15124,9.07
15136,7.01
15148,4.5
15159,1.91
15170,-0.37
15182,-2.03
15194,-2.91
15206,-3.03
15218,-2.52
15230,-1.59
15242,-0.45
15254,0.66
15266,1.53
15278,1.96
15290,1.81
15302,1.08
15314,-0.07
15326,-1.4
15338,-2.68
15349,-3.78
15360,-4.77
15372,-5.86
15384,-7.31
15396,-9.24
15408,-11.57
15420,-13.98
15432,-15.98
15444,-17.09
15456,-16.97
15468,-15.48
15480,-12.74
15492,-9.04
15504,-4.8
15516,-0.48
15528,3.47
15539,6.63
15550,8.68
15562,9.44
15574,8.9
15586,7.28
15598,5.0
15610,2.57
15622,0.41
15634,-1.15
15646,-1.98
15658,-2.13
15670,-1.76
15682,-1.06
15694,-0.26
15706,0.46
15718,0.95
15729,1.11
15740,0.93
15752,0.44
15764,-0.26
15776,-1.11
15788,-2.07
15800,-3.15
15812,-4.37
15824,-5.76
15836,-7.31
15848,-8.99
15860,-10.85
15872,-12.93
15884,-15.24
15896,-17.67
15908,-19.85
15919,-21.26
15930,-21.35
15942,-19.7
15954,-16.27
15966,-11.44
15978,-5.86
15990,-0.3
16002,4.55
16014,8.25
16026,10.57
16038,11.45
16050,10.98
16062,9.38
16074,6.97
16086,4.19
16098,1.54
16109,-0.59
16120,-1.93
16132,-2.43
16144,-2.23
16156,-1.54
16168,-0.62
16180,0.32
16192,1.12
16204,1.68
16216,1.91
16228,1.73
16240,1.1
16252,0.06
16264,-1.31
16276,-2.89
16288,-4.57
16299,-6.28
16310,-8.02
16322,-9.83
16334,-11.81
16346,-14.03
16358,-16.48
16370,-18.94
16382,-20.99
16394,-22.03
16406,-21.5
16418,-19.1
16430,-14.96
16442,-9.61
16454,-3.79
16466,1.76
16478,6.5
16489,10.12
16500,12.48
16512,13.46
16524,13.01
16536,11.21
16548,8.35
16560,5.0
16572,1.82
16584,-0.6
16596,-1.89
16608,-2.01
16620,-1.2
16632,0.16
16644,1.63
16656,2.84
16668,3.56
16679,3.72
16690,3.42
16702,2.85
16714,2.19
16726,1.47
16738,0.64
16750,-0.44
16762,-1.85
16774,-3.58
16786,-5.5
16798,-7.48
16810,-9.46
16822,-11.38
16834,-13.21
16846,-14.75
16858,-15.65
16869,-15.43
16880,-13.69
16892,-10.23
16904,-5.16
16916,1.14
16928,8.18
16940,15.47
16952,22.53
16964,28.84
16976,33.81
16988,36.81
17000,37.31
17012,35.19
17024,30.97
17036,25.91
17048,21.78
17059,20.32
17070,22.59
17082,28.47
17094,36.59
17106,44.64
17118,50.05
17130,50.68
17142,45.39
17154,34.31
17166,18.67
17178,0.53
17190,-17.83
17202,-34.39
17214,-47.9
17226,-58.0
17238,-65.22
17249,-70.57
17260,-75.11
17272,-79.37
17284,-83.15
17296,-85.44
17308,-84.63
17320,-78.9
17332,-66.77
17344,-47.65
17356,-22.28
17368,7.0
17380,36.74
17392,63.1
17404,83.0
17416,94.97
17428,99.43
17439,98.28
17450,94.01
17462,88.72
17474,83.66
17486,79.13
17498,74.98
17510,70.98
17522,67.12
17534,63.5
17546,60.12
17558,56.68
17570,52.61
17582,47.28
17594,40.27
17606,31.54
17618,21.44
17629,10.68
17640,0.09
17652,-9.57
17664,-17.79
17676,-24.46
17688,-29.89
17700,-34.68
17712,-39.48
17724,-44.72
17736,-50.47
17748,-56.4
17760,-61.93
17772,-66.29
17784,-68.78
17796,-68.75
17808,-65.69
17819,-59.36
17830,-49.87
17842,-37.9
17854,-24.56
17866,-11.24
17878,0.84
17890,10.87
17902,18.58
17914,24.05
17926,27.32
17938,28.06
17950,25.5
17962,18.58
17974,6.5
17986,-10.88
17998,-32.68
18009,-57.06
18020,-81.61
18032,-103.92
18044,-122.0
18056,-134.61
18068,-141.3
18080,-142.17
18092,-137.64
18104,-128.35
18116,-115.16
18128,-99.35
18140,-82.77
18152,-67.68
18164,-56.4
18176,-50.61
18188,-50.86
18199,-56.35
18210,-65.16
18222,-74.92
18234,-83.34
18246,-88.64
18258,-89.37
18270,-84.09
18282,-71.15
18294,-48.95
18306,-16.67
18318,24.76
18330,72.33
18342,121.2
18354,165.85
18366,201.42
18378,224.76
18389,234.94
18400,233.01
18412,221.45
18424,203.44
18436,182.25
18448,160.82
18460,141.45
18472,125.69
18484,114.34
18496,107.52
18508,104.79
18520,105.19
18532,107.33
18544,109.36
18556,109.3
18568,105.42
18579,96.79
18590,83.53
18602,66.74
18614,47.96
18626,28.6
18638,9.37
18650,-9.67
18662,-28.89
18674,-48.47
18686,-68.0
18698,-86.5
18710,-102.71
18722,-115.61
18734,-124.68
18746,-129.85
18758,-131.2
18769,-128.73
18780,-122.38
18792,-112.42
18804,-99.79
18816,-86.07
18828,-73.11
18840,-62.33
18852,-54.3
18864,-48.72
18876,-44.89
18888,-42.24
18900,-40.59
18912,-40.05
18924,-40.71
18936,-42.41
18948,-44.82
18959,-47.68
18970,-51.03
18982,-55.13
18994,-60.26
19006,-66.34
19018,-72.73
19030,-78.22
19042,-81.26
19054,-80.25
19066,-73.97
19078,-62.01
19090,-45.07
19102,-24.9
19114,-3.85
19126,16.02
19138,33.69
19149,49.57
19160,65.17
19172,82.21
19184,101.69
19196,123.18
19208,144.87
19220,164.14
19232,178.31
19244,185.45
19256,184.68
19268,176.26
19280,161.31
19292,141.56
19304,118.99
19316,95.6
19328,73.28
19339,53.79
19350,38.72
19362,29.36
19374,26.5
19386,30.13
19398,39.33
19410,52.37
19422,67.1
19434,81.4
19446,93.54
19458,102.41
19470,107.46
19482,108.42
19494,105.14
19506,97.5
19518,85.52
19529,69.58
19540,50.65
19552,30.27
19564,10.42
19576,-6.99
19588,-20.51
19600,-29.48
19612,-34.23
19624,-35.76
19636,-35.45
19648,-34.55
19660,-33.91
19672,-33.89
19684,-34.48
19696,-35.51
19708,-36.88
19719,-38.6
19730,-40.79
19742,-43.45
19754,-46.33
19766,-48.92
19778,-50.58
19790,-50.84
19802,-49.59
19814,-47.16
19826,-44.2
19838,-41.43
19850,-39.4
19862,-38.35
19874,-38.23
19886,-38.82
19898,-39.84
19909,-41.1
19920,-42.55
19932,-44.28
19944,-46.49
19956,-49.41
19968,-53.14
19980,-57.47
19992,-61.81
20004,-65.25
20016,-66.81
20028,-65.81
20040,-62.21
20052,-56.78
20064,-50.94
20076,-46.3
20088,-44.21
20099,-45.31
20110,-49.36
20122,-55.41
20134,-62.08
20146,-68.02
20158,-72.2
20170,-74.06
20182,-73.57
20194,-71.12
20206,-67.42
20218,-63.1
20230,-58.37
20242,-52.6
20254,-44.36
20266,-31.83
20278,-13.77
20289,9.64
20300,36.34
20312,62.88
20324,85.37
20336,100.7
20348,107.24
20360,104.86
20372,94.38
20384,77.02
20396,54.21
20408,27.8
20420,0.45
20432,-24.54
20444,-43.87
20456,-55.31
20468,-58.48
20479,-55.04
20490,-47.99
20502,-40.53
20514,-34.87
20526,-31.64
20538,-30.06
20550,-28.57
20562,-25.79
20574,-21.1
20586,-14.82
20598,-7.84
20610,-1.07
20622,5.11
20634,11.02
20646,17.48
20658,25.41
20669,35.23
20680,46.57
20692,58.3
20704,68.85
20716,76.85
20728,81.64
20740,83.4
20752,83.05
20764,81.73
20776,80.38
20788,79.49
20800,79.1
20812,79.01
20824,78.75
20836,77.74
20848,75.37
20859,71.45
20870,66.79
20882,63.39
20894,64.09
20906,71.36
20918,85.77
20930,105.03
20942,124.17
20954,137.14
20966,138.92
20978,127.24
20990,102.98
