seconds,BVP
9,1.84
21,-2.91
33,-7.58
45,-11.93
57,-15.72
69,-18.83
80,-21.26
91,-23.15
103,-24.74
115,-26.26
127,-27.9
139,-29.74
151,-31.74
163,-33.67
175,-35.23
187,-36.01
199,-35.69
211,-34.14
223,-31.57
235,-28.44
247,-25.45
259,-23.18
270,-21.98
281,-21.84
293,-22.48
305,-23.49
317,-24.51
329,-25.37
341,-26.04
353,-26.63
365,-27.15
377,-27.48
389,-27.34
401,-26.42
413,-24.49
425,-21.54
437,-17.83
449,-13.85
460,-10.16
471,-7.28
483,-5.5
495,-4.87
507,-5.15
519,-5.88
531,-6.46
543,-6.35
555,-5.21
567,-2.97
579,0.09
591,3.51
603,6.76
615,9.4
627,11.09
639,11.64
650,10.92
661,8.92
673,5.83
685,1.97
697,-2.17
709,-6.13
721,-9.49
733,-12.01
745,-13.57
757,-14.1
769,-13.62
781,-12.28
793,-10.42
805,-8.56
817,-7.25
829,-6.84
840,-7.39
851,-8.62
863,-10.1
875,-11.41
887,-12.34
899,-12.83
911,-12.95
923,-12.74
935,-12.15
947,-11.07
959,-9.43
971,-7.25
983,-4.67
995,-1.92
1007,0.77
1019,3.18
1030,5.14
1041,6.53
1053,7.28
1065,7.44
1077,7.18
1089,6.75
1101,6.43
1113,6.38
1125,6.57
1137,6.7
1149,6.38
1161,5.24
1173,3.08
1185,-0.03
1197,-3.83
1209,-7.98
1220,-12.17
1231,-16.22
1243,-20.03
1255,-23.55
1267,-26.7
1279,-29.39
1291,-31.51
1303,-32.92
1315,-33.51
1327,-33.16
1339,-31.77
1351,-29.35
1363,-26.0
1375,-21.97
1387,-17.53
1399,-12.92
1410,-8.24
1421,-3.49
1433,1.4
1445,6.42
1457,11.37
1469,15.89
1481,19.57
1493,22.03
1505,23.09
1517,22.79
1529,21.34
1541,19.02
1553,16.08
1565,12.72
1577,9.08
1589,5.42
1600,2.06
1611,-0.62
1623,-2.41
1635,-3.41
1647,-4.04
1659,-4.89
1671,-6.44
1683,-8.75
1695,-11.45
1707,-13.82
1719,-15.2
1731,-15.16
1743,-13.59
1755,-10.59
1767,-6.28
1779,-0.74
1790,5.89
1801,13.2
1813,20.46
1825,26.72
1837,31.1
1849,33.1
1861,32.68
1873,30.23
1885,26.32
1897,21.55
1909,16.39
1921,11.15
1933,6.05
1945,1.25
1957,-3.14
1969,-7.01
1980,-10.34
1991,-13.2
2003,-15.86
2015,-18.72
2027,-22.19
2039,-26.52
2051,-31.55
2063,-36.68
2075,-40.96
2087,-43.37
2099,-43.16
2111,-40.09
2123,-34.49
2135,-27.11
2147,-18.9
2159,-10.84
2170,-3.75
2181,1.72
2193,5.18
2205,6.53
2217,5.97
2229,4.0
2241,1.27
2253,-1.57
2265,-3.99
2277,-5.71
2289,-6.67
2301,-7.01
2313,-6.93
2325,-6.64
2337,-6.3
2349,-6.05
2360,-6.02
2371,-6.32
2383,-7.02
2395,-8.11
2407,-9.46
2419,-10.88
2431,-12.08
2443,-12.81
2455,-12.84
2467,-12.01
2479,-10.33
2491,-7.99
2503,-5.34
2515,-2.83
2527,-0.87
2539,0.33
2550,0.79
2561,0.73
2573,0.45
2585,0.15
2597,-0.1
2609,-0.35
2621,-0.64
2633,-1.02
2645,-1.42
2657,-1.8
2669,-2.17
2681,-2.53
2693,-2.92
2705,-3.32
2717,-3.72
2729,-4.07
2740,-4.41
2751,-4.77
2763,-5.13
2775,-5.32
2787,-5.07
2799,-4.06
2811,-2.12
2823,0.64
2835,3.84
2847,6.95
2859,9.45
2871,11.01
2883,11.54
2895,11.13
2907,10.02
2919,8.45
2930,6.68
2941,4.97
2953,3.59
2965,2.77
2977,2.56
2989,2.86
3001,3.36
3013,3.68
3025,3.53
3037,2.78
3049,1.55
3061,0.12
3073,-1.13
3085,-1.9
3097,-1.97
3109,-1.32
3120,-0.08
3131,1.53
3143,3.26
3155,4.97
3167,6.63
3179,8.26
3191,9.89
3203,11.41
3215,12.57
3227,13.01
3239,12.36
3251,10.34
3263,6.91
3275,2.27
3287,-3.04
3299,-8.23
3310,-12.46
3321,-15.08
3333,-15.89
3345,-15.19
3357,-13.63
3369,-11.98
3381,-10.74
3393,-10.06
3405,-9.73
3417,-9.47
3429,-9.09
3441,-8.56
3453,-7.95
3465,-7.24
3477,-6.24
3489,-4.68
3500,-2.32
3511,0.84
3523,4.56
3535,8.45
3547,12.16
3559,15.46
3571,18.34
3583,20.79
3595,22.75
3607,24.03
3619,24.33
3631,23.39
3643,21.16
3655,17.81
3667,13.77
3679,9.56
3690,5.71
3701,2.59
3713,0.3
3725,-1.26
3737,-2.4
3749,-3.41
3761,-4.49
3773,-5.61
3785,-6.52
3797,-6.89
3809,-6.43
3821,-5.08
3833,-2.98
3845,-0.42
3857,2.22
3869,4.57
3880,6.3
3891,7.19
3903,7.11
3915,6.13
3927,4.49
3939,2.54
3951,0.66
3963,-0.96
3975,-2.32
3987,-3.58
3999,-4.99
4011,-6.7
4023,-8.71
4035,-10.87
4047,-13.01
4059,-15.07
4070,-17.06
4081,-19.07
4093,-21.06
4105,-22.89
4117,-24.25
4129,-24.79
4141,-24.22
4153,-22.4
4165,-19.38
4177,-15.36
4189,-10.63
4201,-5.53
4213,-0.44
4225,4.34
4237,8.5
4249,11.85
4260,14.29
4271,15.8
4283,16.48
4295,16.45
4307,15.9
4319,14.98
4331,13.81
4343,12.43
4355,10.83
4367,8.96
4379,6.81
4391,4.42
4403,1.88
4415,-0.65
4427,-2.99
4439,-4.96
4450,-6.44
4461,-7.36
4473,-7.7
4485,-7.46
4497,-6.6
4509,-5.03
4521,-2.62
4533,0.73
4545,4.94
4557,9.73
4569,14.62
4581,19.04
4593,22.51
4605,24.75
4617,25.71
4629,25.6
4640,24.78
4651,23.66
4663,22.67
4675,22.11
4687,22.13
4699,22.62
4711,23.28
4723,23.68
4735,23.51
4747,22.63
4759,21.2
4771,19.53
4783,17.98
4795,16.83
4807,16.16
4819,15.91
4830,15.92
4841,15.94
4853,15.75
4865,15.22
4877,14.29
4889,13.06
4901,11.75
4913,10.62
4925,9.89
4937,9.63
4949,9.79
4961,10.21
4973,10.75
4985,11.27
4997,11.61
5009,11.59
5020,11.02
5031,9.76
5043,7.89
5055,5.67
5067,3.49
5079,1.74
5091,0.58
5103,-0.06
5115,-0.47
5127,-0.98
5139,-1.83
5151,-3.11
5163,-4.74
5175,-6.54
5187,-8.29
5199,-9.75
5210,-10.76
5221,-11.27
5233,-11.39
5245,-11.37
5257,-11.48
5269,-11.91
5281,-12.67
5293,-13.49
5305,-13.96
5317,-13.6
5329,-12.06
5341,-9.28
5353,-5.49
5365,-1.24
5377,2.84
5389,6.17
5400,8.42
5411,9.54
5423,9.7
5435,9.2
5447,8.29
5459,7.16
5471,5.87
5483,4.49
5495,3.16
5507,2.06
5519,1.37
5531,1.16
5543,1.32
5555,1.55
5567,1.5
5579,0.87
5590,-0.4
5601,-2.15
5613,-4.07
5625,-5.83
5637,-7.24
5649,-8.28
5661,-9.08
5673,-9.84
5685,-10.7
5697,-11.73
5709,-12.9
5721,-14.12
5733,-15.26
5745,-16.15
5757,-16.58
5769,-16.38
5780,-15.46
5791,-13.84
5803,-11.72
5815,-9.38
5827,-7.16
5839,-5.35
5851,-4.18
5863,-3.81
5875,-4.3
5887,-5.61
5899,-7.6
5911,-10.03
5923,-12.54
5935,-14.81
5947,-16.49
5959,-17.36
5970,-17.29
5981,-16.35
5993,-14.71
6005,-12.71
6017,-10.74
6029,-9.13
6041,-8.09
6053,-7.64
6065,-7.64
6077,-7.92
6089,-8.38
6101,-8.99
6113,-9.81
6125,-10.8
6137,-11.82
6149,-12.56
6160,-12.65
6171,-11.79
6183,-9.89
6195,-7.13
6207,-3.87
6219,-0.55
6231,2.51
6243,5.21
6255,7.63
6267,9.92
6279,12.08
6291,13.94
6303,15.16
6315,15.42
6327,14.6
6339,12.85
6350,10.57
6361,8.29
6373,6.42
6385,5.22
6397,4.77
6409,5.05
6421,6.03
6433,7.69
6445,10.05
6457,13.05
6469,16.54
6481,20.2
6493,23.71
6505,26.74
6517,29.13
6529,30.85
6540,32.03
6551,32.92
6563,33.8
6575,34.89
6587,36.26
6599,37.77
6611,39.05
6623,39.65
6635,39.2
6647,37.53
6659,34.79
6671,31.34
6683,27.6
6695,23.93
6707,20.5
6719,17.3
6730,14.29
6741,11.48
6753,8.92
6765,6.71
6777,4.86
6789,3.32
6801,1.98
6813,0.75
6825,-0.38
6837,-1.36
6849,-2.14
6861,-2.72
6873,-3.21
6885,-3.8
6897,-4.68
6909,-5.91
6920,-7.42
6931,-8.96
6943,-10.25
6955,-11.06
6967,-11.28
6979,-10.98
6991,-10.37
7003,-9.78
7015,-9.5
7027,-9.7
7039,-10.39
7051,-11.35
7063,-12.24
7075,-12.7
7087,-12.46
7099,-11.45
7110,-9.79
7121,-7.75
7133,-5.64
7145,-3.77
7157,-2.29
7169,-1.29
7181,-0.75
7193,-0.65
7205,-0.97
7217,-1.67
7229,-2.73
7241,-4.1
7253,-5.71
7265,-7.41
7277,-9.08
7289,-10.56
7300,-11.69
7311,-12.36
7323,-12.53
7335,-12.26
7347,-11.71
7359,-11.11
7371,-10.65
7383,-10.46
7395,-10.57
7407,-10.93
7419,-11.44
7431,-12.05
7443,-12.69
7455,-13.32
7467,-13.9
7479,-14.33
7490,-14.58
7501,-14.66
7513,-14.66
7525,-14.71
7537,-14.9
7549,-15.27
7561,-15.7
7573,-16.12
7585,-16.48
7597,-16.86
7609,-17.42
7621,-18.29
7633,-19.5
7645,-20.9
7657,-22.3
7669,-23.45
7680,-24.2
7691,-24.41
7703,-23.97
7715,-22.85
7727,-21.05
7739,-18.67
7751,-15.89
7763,-12.93
7775,-9.89
7787,-6.81
7799,-3.64
7811,-0.35
7823,3.02
7835,6.39
7847,9.71
7859,13.03
7870,16.5
7881,20.25
7893,24.33
7905,28.65
7917,33.03
7929,37.26
7941,41.2
7953,44.72
7965,47.68
7977,49.91
7989,51.2
8001,51.36
8013,50.37
8025,48.46
8037,46.06
8049,43.72
8060,41.87
8071,40.64
8083,39.73
8095,38.38
8107,35.57
8119,30.37
8131,22.25
8143,11.32
8155,-1.67
8167,-15.47
8179,-28.73
8191,-40.26
8203,-49.31
8215,-55.61
8227,-59.3
8239,-60.8
8250,-60.68
8261,-59.51
8273,-57.72
8285,-55.56
8297,-53.03
8309,-50.07
8321,-46.65
8333,-42.95
8345,-39.4
8357,-36.45
8369,-34.41
8381,-33.28
8393,-32.76
8405,-32.37
8417,-31.7
8429,-30.52
8440,-28.85
8451,-26.9
8463,-24.89
8475,-22.97
8487,-21.17
8499,-19.42
8511,-17.64
8523,-15.8
8535,-13.99
8547,-12.4
8559,-11.23
8571,-10.64
8583,-10.66
8595,-11.12
8607,-11.77
8619,-12.33
8630,-12.6
8641,-12.55
8653,-12.26
8665,-11.92
8677,-11.68
8689,-11.65
8701,-11.79
8713,-12.01
8725,-12.13
8737,-12.07
8749,-11.79
8761,-11.33
8773,-10.75
8785,-10.06
8797,-9.25
8809,-8.26
8820,-7.05
8831,-5.52
8843,-3.51
8855,-0.72
8867,3.12
8879,8.12
8891,14.01
8903,20.16
8915,25.72
8927,29.98
8939,32.66
8951,34.02
8963,34.7
8975,35.46
8987,36.78
8999,38.71
9010,40.81
9021,42.48
9033,43.17
9045,42.68
9057,41.24
9069,39.38
9081,37.73
9093,36.71
9105,36.37
9117,36.44
9129,36.51
9141,36.28
9153,35.73
9165,35.03
9177,34.35
9189,33.65
9200,32.64
9211,30.9
9223,28.13
9235,24.35
9247,19.93
9259,15.48
9271,11.54
9283,8.35
9295,5.81
9307,3.55
9319,1.24
9331,-1.22
9343,-3.65
9355,-5.72
9367,-7.12
9379,-7.83
9390,-8.12
9401,-8.4
9413,-9.05
9425,-10.22
9437,-11.7
9449,-13.12
9461,-14.06
9473,-14.24
9485,-13.56
9497,-12.12
9509,-10.14
9521,-7.93
9533,-5.87
9545,-4.3
9557,-3.46
9569,-3.44
9580,-4.09
9591,-5.17
9603,-6.43
9615,-7.7
9627,-8.97
9639,-10.27
9651,-11.64
9663,-13.03
9675,-14.34
9687,-15.48
9699,-16.44
9711,-17.34
9723,-18.32
9735,-19.5
9747,-20.88
9759,-22.39
9770,-23.94
9781,-25.5
9793,-27.01
9805,-28.37
9817,-29.32
9829,-29.51
9841,-28.69
9853,-26.83
9865,-24.19
9877,-21.29
9889,-18.62
9901,-16.51
9913,-14.96
9925,-13.79
9937,-12.76
9949,-11.72
9960,-10.63
9971,-9.49
9983,-8.18
9995,-6.5
10007,-4.25
10019,-1.36
10031,1.98
10043,5.38
10055,8.4
10067,10.7
10079,12.2
10091,13.0
10103,13.26
10115,13.13
10127,12.68
10139,11.96
10150,11.07
10161,10.2
10173,9.52
10185,9.08
10197,8.7
10209,8.07
10221,6.79
10233,4.62
10245,1.55
10257,-2.22
10269,-6.38
10281,-10.68
10293,-14.98
10305,-19.3
10317,-23.73
10329,-28.32
10340,-33.0
10351,-37.51
10363,-41.47
10375,-44.41
10387,-46.02
10399,-46.12
10411,-44.82
10423,-42.36
10435,-39.08
10447,-35.27
10459,-31.16
10471,-26.84
10483,-22.32
10495,-17.57
10507,-12.55
10519,-7.23
10530,-1.69
10541,3.98
10553,9.59
10565,14.95
10577,19.83
10589,24.02
10601,27.29
10613,29.46
10625,30.49
10637,30.49
10649,29.76
10661,28.71
10673,27.69
10685,26.88
10697,26.23
10709,25.53
10720,24.56
10731,23.23
10743,21.62
10755,19.9
10767,18.24
10779,16.64
10791,14.98
10803,13.13
10815,11.07
10827,9.06
10839,7.53
10851,6.98
10863,7.72
10875,9.73
10887,12.69
10899,16.05
10910,19.29
10921,22.04
10933,24.1
10945,25.44
10957,26.04
10969,25.91
10981,25.08
10993,23.71
11005,22.1
11017,20.62
11029,19.59
11041,19.14
11053,19.08
11065,18.99
11077,18.34
11089,16.74
11100,14.03
11111,10.41
11123,6.23
11135,1.9
11147,-2.27
11159,-6.1
11171,-9.43
11183,-12.11
11195,-13.95
11207,-14.74
11219,-14.42
11231,-13.11
11243,-11.13
11255,-8.9
11267,-6.84
11279,-5.23
11290,-4.23
11301,-3.77
11313,-3.71
11325,-3.86
11337,-4.08
11349,-4.29
11361,-4.46
11373,-4.58
11385,-4.52
11397,-4.09
11409,-3.12
11421,-1.54
11433,0.41
11445,2.21
11457,3.27
11469,3.07
11480,1.53
11491,-1.02
11503,-3.9
11515,-6.37
11527,-7.88
11539,-8.23
11551,-7.54
11563,-6.11
11575,-4.25
11587,-2.13
11599,0.15
11611,2.48
11623,4.71
11635,6.56
11647,7.78
11659,8.23
11670,7.9
11681,6.93
11693,5.52
11705,3.89
11717,2.23
11729,0.69
11741,-0.53
11753,-1.24
11765,-1.25
11777,-0.46
11789,1.02
11801,2.89
11813,4.64
11825,5.73
11837,5.76
11849,4.67
11860,2.8
11871,0.78
11883,-0.67
11895,-1.11
11907,-0.5
11919,0.76
11931,2.04
11943,2.79
11955,2.74
11967,1.96
11979,0.75
11991,-0.55
12003,-1.74
12015,-2.82
12027,-3.89
12039,-4.99
12050,-6.04
12061,-6.89
12073,-7.35
12085,-7.41
12097,-7.19
12109,-6.89
12121,-6.71
12133,-6.71
12145,-6.83
12157,-6.98
12169,-7.04
12181,-6.95
12193,-6.64
12205,-6.03
12217,-5.04
12229,-3.71
12240,-2.18
12251,-0.74
12263,0.33
12275,0.88
12287,0.93
12299,0.62
12311,0.11
12323,-0.6
12335,-1.58
12347,-2.9
12359,-4.51
12371,-6.19
12383,-7.56
12395,-8.3
12407,-8.27
12419,-7.56
12430,-6.5
12441,-5.45
12453,-4.7
12465,-4.38
12477,-4.49
12489,-4.91
12501,-5.52
12513,-6.13
12525,-6.51
12537,-6.35
12549,-5.4
12561,-3.52
12573,-0.84
12585,2.23
12597,5.16
12609,7.45
12620,8.81
12631,9.2
12643,8.71
12655,7.43
12667,5.42
12679,2.64
12691,-0.82
12703,-4.72
12715,-8.64
12727,-12.12
12739,-14.85
12751,-16.72
12763,-17.76
12775,-18.1
12787,-17.88
12799,-17.25
12810,-16.39
12821,-15.63
12833,-15.33
12845,-15.73
12857,-16.83
12869,-18.3
12881,-19.56
12893,-20.08
12905,-19.51
12917,-17.84
12929,-15.34
12941,-12.38
12953,-9.24
12965,-6.09
12977,-3.0
12989,-0.05
13000,2.61
13011,4.84
13023,6.6
13035,8.03
13047,9.43
13059,11.09
13071,13.01
13083,14.8
13095,15.75
13107,15.15
13119,12.61
13131,8.32
13143,2.9
13155,-2.87
13167,-8.34
13179,-13.2
13190,-17.31
13201,-20.64
13213,-23.06
13225,-24.43
13237,-24.69
13249,-23.95
13261,-22.32
13273,-19.78
13285,-15.98
13297,-10.3
13309,-2.17
13321,8.68
13333,22.02
13345,37.08
13357,52.77
13369,67.78
13380,80.84
13391,90.94
13403,97.47
13415,100.41
13427,100.26
13439,97.75
13451,93.44
13463,87.44
13475,79.44
13487,68.96
13499,55.83
13511,40.47
13523,23.78
13535,6.88
13547,-9.17
13559,-23.52
13570,-35.39
13581,-44.01
13593,-48.76
13605,-49.38
13617,-46.33
13629,-40.76
13641,-34.21
13653,-28.14
13665,-23.45
13677,-20.32
13689,-18.43
13701,-17.32
13713,-16.66
13725,-16.37
13737,-16.43
13749,-16.74
13760,-17.04
13771,-16.98
13783,-16.37
13795,-15.24
13807,-13.82
13819,-12.4
13831,-11.18
13843,-10.16
13855,-9.2
13867,-8.18
13879,-7.12
13891,-6.22
13903,-5.75
13915,-5.9
13927,-6.58
13939,-7.46
13950,-8.07
13961,-7.99
13973,-7.03
13985,-5.3
13997,-3.14
14009,-0.96
14021,0.88
14033,2.16
14045,2.82
14057,2.92
14069,2.61
14081,2.02
14093,1.31
14105,0.6
14117,-0.02
14129,-0.48
14140,-0.78
14151,-0.91
14163,-0.91
14175,-0.84
14187,-0.76
14199,-0.75
14211,-0.88
14223,-1.23
14235,-1.88
14247,-2.89
14259,-4.3
14271,-6.1
14283,-8.16
14295,-10.22
14307,-11.93
14319,-12.87
14330,-12.71
14341,-11.22
14353,-8.46
14365,-4.66
14377,-0.3
14389,4.03
14401,7.71
14413,10.27
14425,11.52
14437,11.6
14449,10.99
14461,10.26
14473,10.01
14485,10.67
14497,12.48
14509,15.48
14520,19.55
14531,24.4
14543,29.59
14555,34.62
14567,38.98
14579,42.24
14591,44.13
14603,44.5
14615,43.31
14627,40.63
14639,36.6
14651,31.55
14663,25.99
14675,20.56
14687,15.93
14699,12.56
14710,10.64
14721,9.97
14733,10.11
14745,10.45
14757,10.38
14769,9.47
14781,7.55
14793,4.76
14805,1.48
14817,-1.83
14829,-4.77
14841,-7.13
14853,-8.92
14865,-10.27
14877,-11.36
14889,-12.35
14900,-13.33
14911,-14.31
14923,-15.31
14935,-16.36
14947,-17.46
14959,-18.61
14971,-19.72
14983,-20.74
14995,-21.66
15007,-22.48
15019,-23.23
15031,-23.81
15043,-23.93
15055,-23.23
15067,-21.36
15079,-18.2
15090,-13.99
15101,-9.23
15113,-4.56
15125,-0.51
15137,2.71
15149,5.17
15161,7.15
15173,8.93
15185,10.66
15197,12.29
15209,13.67
15221,14.66
15233,15.23
15245,15.48
15257,15.54
15269,15.5
15280,15.27
15291,14.71
15303,13.65
15315,12.12
15327,10.29
15339,8.43
15351,6.66
15363,4.92
15375,2.97
15387,0.62
15399,-2.06
15411,-4.59
15423,-6.29
15435,-6.57
15447,-5.24
15459,-2.62
15470,0.57
15481,3.52
15493,5.59
15505,6.56
15517,6.5
15529,5.75
15541,4.63
15553,3.41
15565,2.25
15577,1.22
15589,0.34
15601,-0.39
15613,-0.98
15625,-1.47
15637,-1.9
15649,-2.34
15660,-2.86
15671,-3.55
15683,-4.43
15695,-5.5
15707,-6.71
15719,-8.03
15731,-9.49
15743,-11.1
15755,-12.84
15767,-14.55
15779,-15.95
15791,-16.73
15803,-16.65
15815,-15.7
15827,-14.13
15839,-12.35
15850,-10.8
15861,-9.8
15873,-9.37
15885,-9.35
15897,-9.43
15909,-9.28
15921,-8.72
15933,-7.67
15945,-6.16
15957,-4.31
15969,-2.22
15981,-0.01
15993,2.19
16005,4.24
16017,6.0
16029,7.36
16040,8.28
16051,8.8
16063,9.02
16075,9.04
16087,8.87
16099,8.51
16111,8.02
16123,7.67
16135,7.86
16147,9.03
16159,11.41
16171,14.82
16183,18.73
16195,22.39
16207,25.11
16219,26.48
16230,26.44
16241,25.2
16253,23.02
16265,20.18
16277,16.89
16289,13.42
16301,10.05
16313,7.14
16325,4.97
16337,3.64
16349,3.07
16361,3.02
16373,3.17
16385,3.24
16397,3.03
16409,2.4
16420,1.33
16431,-0.14
16443,-1.94
16455,-3.93
16467,-5.94
16479,-7.72
16491,-9.0
16503,-9.55
16515,-9.22
16527,-8.04
16539,-6.24
16551,-4.17
16563,-2.23
16575,-0.73
16587,0.15
16599,0.45
16610,0.28
16621,-0.19
16633,-0.86
16645,-1.68
16657,-2.6
16669,-3.57
16681,-4.48
16693,-5.25
16705,-5.83
16717,-6.25
16729,-6.58
16741,-6.91
16753,-7.32
16765,-7.86
16777,-8.61
16789,-9.62
16800,-10.94
16811,-12.52
16823,-14.19
16835,-15.6
16847,-16.35
16859,-16.11
16871,-14.76
16883,-12.48
16895,-9.68
16907,-6.86
16919,-4.44
16931,-2.66
16943,-1.55
16955,-0.98
16967,-0.78
16979,-0.82
16990,-1.06
17001,-1.48
17013,-2.03
17025,-2.63
17037,-3.13
17049,-3.44
17061,-3.55
17073,-3.53
17085,-3.52
17097,-3.64
17109,-3.94
17121,-4.42
17133,-5.08
17145,-5.98
17157,-7.17
17169,-8.64
17180,-10.22
17191,-11.57
17203,-12.23
17215,-11.8
17227,-10.16
17239,-7.51
17251,-4.35
17263,-1.29
17275,1.14
17287,2.69
17299,3.4
17311,3.52
17323,3.34
17335,3.06
17347,2.73
17359,2.3
17370,1.73
17381,1.03
17393,0.28
17405,-0.38
17417,-0.87
17429,-1.21
17441,-1.5
17453,-1.88
17465,-2.42
17477,-3.11
17489,-3.9
17501,-4.73
17513,-5.54
17525,-6.3
17537,-6.95
17549,-7.36
17560,-7.34
17571,-6.71
17583,-5.37
17595,-3.39
17607,-1.01
17619,1.44
17631,3.65
17643,5.44
17655,6.74
17667,7.55
17679,7.91
17691,7.84
17703,7.33
17715,6.43
17727,5.27
17739,3.99
17750,2.74
17761,1.6
17773,0.61
17785,-0.27
17797,-1.07
17809,-1.81
17821,-2.46
17833,-3.04
17845,-3.58
17857,-4.16
17869,-4.86
17881,-5.71
17893,-6.57
17905,-7.18
17917,-7.21
17929,-6.47
17940,-4.96
17951,-2.95
17963,-0.87
17975,0.86
17987,1.99
17999,2.54
18011,2.68
18023,2.64
18035,2.53
18047,2.35
18059,2.01
18071,1.49
18083,0.83
18095,0.18
18107,-0.32
18119,-0.63
18130,-0.79
18141,-0.92
18153,-1.14
18165,-1.47
18177,-1.93
18189,-2.54
18201,-3.34
18213,-4.43
18225,-5.81
18237,-7.31
18249,-8.58
18261,-9.19
18273,-8.79
18285,-7.25
18297,-4.76
18309,-1.76
18320,1.28
18331,3.91
18343,5.85
18355,6.99
18367,7.36
18379,7.07
18391,6.29
18403,5.23
18415,4.08
18427,3.04
18439,2.17
18451,1.51
18463,0.96
18475,0.43
18487,-0.16
18499,-0.82
18510,-1.52
18521,-2.21
18533,-2.88
18545,-3.56
18557,-4.33
18569,-5.26
18581,-6.34
18593,-7.41
18605,-8.21
18617,-8.47
18629,-8.02
18641,-6.81
18653,-5.0
18665,-2.84
18677,-0.58
18689,1.57
18700,3.49
18711,5.09
18723,6.29
18735,7.0
18747,7.17
18759,6.82
18771,6.04
18783,5.02
18795,3.97
18807,3.05
18819,2.35
18831,1.81
18843,1.36
18855,0.92
18867,0.44
18879,-0.06
18890,-0.6
18901,-1.23
18913,-2.04
18925,-3.1
18937,-4.34
18949,-5.58
18961,-6.52
18973,-6.89
18985,-6.55
18997,-5.53
19009,-3.97
19021,-2.1
19033,-0.13
19045,1.77
19057,3.43
19069,4.71
19080,5.5
19091,5.77
19103,5.56
19115,5.0
19127,4.24
19139,3.42
19151,2.63
19163,1.89
19175,1.23
19187,0.66
19199,0.17
19211,-0.29
19223,-0.77
19235,-1.36
19247,-2.11
19259,-3.0
19270,-4.03
19281,-5.11
19293,-6.17
19305,-7.11
19317,-7.78
19329,-8.06
19341,-7.82
19353,-7.0
19365,-5.62
19377,-3.79
19389,-1.66
19401,0.56
19413,2.59
19425,4.21
19437,5.23
19449,5.62
19460,5.51
19471,5.18
19483,4.88
19495,4.78
19507,4.83
19519,4.93
19531,4.91
19543,4.72
19555,4.42
19567,4.1
19579,3.88
19591,3.75
19603,3.65
19615,3.5
19627,3.23
19639,2.8
19650,2.19
19661,1.4
19673,0.46
19685,-0.53
19697,-1.43
19709,-2.02
19721,-2.1
19733,-1.55
19745,-0.41
19757,1.16
19769,2.85
19781,4.42
19793,5.71
19805,6.73
19817,7.58
19829,8.4
19840,9.2
19851,9.92
19863,10.37
19875,10.39
19887,9.95
19899,9.16
19911,8.21
19923,7.31
19935,6.57
19947,5.94
19959,5.31
19971,4.54
19983,3.54
19995,2.29
20007,0.8
20019,-0.88
20030,-2.67
20041,-4.44
20053,-5.96
20065,-6.94
20077,-7.1
20089,-6.31
20101,-4.68
20113,-2.54
20125,-0.32
20137,1.58
20149,2.94
20161,3.74
20173,4.07
20185,4.05
20197,3.75
20209,3.2
20220,2.37
20231,1.31
20243,0.13
20255,-0.99
20267,-1.92
20279,-2.61
20291,-3.14
20303,-3.61
20315,-4.15
20327,-4.77
20339,-5.41
20351,-5.97
20363,-6.36
20375,-6.63
20387,-6.91
20399,-7.38
20410,-8.1
20421,-8.95
20433,-9.62
20445,-9.75
20457,-9.05
20469,-7.45
20481,-5.16
20493,-2.53
20505,0.02
20517,2.16
20529,3.72
20541,4.64
20553,5.01
20565,4.94
20577,4.6
20589,4.11
20600,3.55
20611,2.99
20623,2.47
20635,2.01
20647,1.64
20659,1.39
20671,1.24
20683,1.14
20695,1.01
20707,0.71
20719,0.15
20731,-0.74
20743,-1.97
20755,-3.52
20767,-5.26
20779,-7.03
20790,-8.56
20801,-9.55
20813,-9.72
20825,-8.88
20837,-7.0
20849,-4.25
20861,-0.98
20873,2.32
20885,5.21
20897,7.36
20909,8.62
20921,9.08
20933,8.92
20945,8.37
20957,7.58
20969,6.63
20980,5.52
20991,4.3
