seconds,BVP
5,9.98
17,10.27
29,10.72
41,11.05
53,11.08
65,10.83
76,10.46
87,10.23
99,10.23
111,10.37
123,10.42
135,10.11
147,9.33
159,8.13
171,6.77
183,5.56
195,4.82
207,4.68
219,5.08
231,5.7
243,6.07
255,5.73
266,4.4
277,2.06
289,-1.09
301,-4.76
313,-8.77
325,-13.12
337,-17.88
349,-23.08
361,-28.6
373,-34.15
385,-39.39
397,-44.0
409,-47.76
421,-50.49
433,-51.99
445,-52.04
456,-50.53
467,-47.46
479,-43.05
491,-37.62
503,-31.46
515,-24.7
527,-17.28
539,-9.11
551,-0.18
563,9.29
575,18.8
587,27.74
599,35.58
611,42.0
623,46.95
635,50.57
646,53.05
657,54.56
669,55.19
681,55.06
693,54.36
705,53.37
717,52.36
729,51.5
741,50.79
753,50.09
765,49.3
777,48.35
789,47.32
801,46.36
813,45.66
825,45.47
836,46.08
847,47.65
859,50.07
871,52.73
883,54.56
895,54.25
907,50.72
919,43.53
931,33.07
943,20.37
955,6.68
967,-6.9
979,-19.67
991,-31.34
1003,-41.81
1015,-51.01
1026,-58.82
1037,-65.12
1049,-69.92
1061,-73.35
1073,-75.64
1085,-77.04
1097,-77.77
1109,-77.97
1121,-77.66
1133,-76.85
1145,-75.49
1157,-73.49
1169,-70.78
1181,-67.26
1193,-62.86
1205,-57.55
1216,-51.39
1227,-44.54
1239,-37.3
1251,-30.06
1263,-23.25
1275,-17.16
1287,-11.9
1299,-7.34
1311,-3.14
1323,1.06
1335,5.48
1347,10.13
1359,14.81
1371,19.2
1383,23.03
1395,26.07
1406,28.2
1417,29.38
1429,29.58
1441,28.88
1453,27.46
1465,25.56
1477,23.48
1489,21.51
1501,19.87
1513,18.74
1525,18.24
1537,18.36
1549,18.96
1561,19.71
1573,20.17
1585,20.0
1596,19.04
1607,17.41
1619,15.39
1631,13.28
1643,11.27
1655,9.39
1667,7.63
1679,5.96
1691,4.46
1703,3.23
1715,2.35
1727,1.8
1739,1.44
1751,1.12
1763,0.7
1775,0.18
1786,-0.35
1797,-0.76
1809,-0.95
1821,-0.87
1833,-0.58
1845,-0.19
1857,0.22
1869,0.57
1881,0.86
1893,1.11
1905,1.32
1917,1.47
1929,1.54
1941,1.49
1953,1.32
1965,1.06
1976,0.75
1987,0.46
1999,0.31
2011,0.41
2023,0.87
2035,1.75
2047,3.05
2059,4.68
2071,6.51
2083,8.4
2095,10.24
2107,11.97
2119,13.52
2131,14.81
2143,15.74
2155,16.28
2166,16.44
2177,16.36
2189,16.2
2201,16.14
2213,16.28
2225,16.65
2237,17.23
2249,17.96
2261,18.76
2273,19.57
2285,20.33
2297,20.98
2309,21.53
2321,22.05
2333,22.69
2345,23.64
2356,25.05
2367,26.94
2379,29.24
2391,31.8
2403,34.55
2415,37.52
2427,40.89
2439,44.91
2451,49.74
2463,55.36
2475,61.44
2487,67.36
2499,72.33
2511,75.63
2523,76.88
2535,76.24
2546,74.41
2557,72.48
2569,71.6
2581,72.62
2593,75.78
2605,80.73
2617,86.73
2629,92.99
2641,99.03
2653,104.87
2665,110.88
2677,117.4
2689,124.3
2701,130.76
2713,135.28
2725,135.91
2736,130.68
2747,117.84
2759,96.23
2771,65.55
2783,26.75
2795,-17.61
2807,-63.42
2819,-105.63
2831,-139.44
2843,-161.69
2855,-171.75
2867,-171.56
2879,-164.59
2891,-154.42
2903,-143.55
2915,-133.03
2926,-122.98
2937,-113.34
2949,-104.53
2961,-97.32
2973,-92.39
2985,-89.77
2997,-88.71
3009,-88.05
3021,-86.85
3033,-84.83
3045,-82.4
3057,-80.27
3069,-78.94
3081,-78.38
3093,-78.05
3105,-77.21
3116,-75.3
3127,-72.17
3139,-68.04
3151,-63.41
3163,-58.77
3175,-54.44
3187,-50.45
3199,-46.63
3211,-42.7
3223,-38.46
3235,-33.91
3247,-29.21
3259,-24.6
3271,-20.23
3283,-16.04
3295,-11.77
3306,-7.12
3317,-1.94
3329,3.65
3341,9.28
3353,14.45
3365,18.8
3377,22.26
3389,24.99
3401,27.32
3413,29.52
3425,31.71
3437,33.92
3449,36.1
3461,38.25
3473,40.43
3485,42.75
3496,45.36
3507,48.43
3519,52.1
3531,56.37
3543,60.98
3555,65.24
3567,68.16
3579,68.71
3591,66.27
3603,61.03
3615,54.05
3627,47.04
3639,41.64
3651,38.92
3663,38.99
3675,41.03
3686,43.75
3697,45.9
3709,46.68
3721,45.91
3733,44.03
3745,41.8
3757,40.18
3769,39.97
3781,41.55
3793,44.58
3805,47.89
3817,49.72
3829,48.21
3841,42.23
3853,31.77
3865,18.04
3876,2.99
3887,-11.42
3899,-23.76
3911,-33.26
3923,-39.71
3935,-43.12
3947,-43.6
3959,-41.51
3971,-37.58
3983,-32.94
3995,-28.81
4007,-26.11
4019,-25.16
4031,-25.75
4043,-27.41
4055,-29.74
4066,-32.62
4077,-36.12
4089,-40.2
4101,-44.63
4113,-48.95
4125,-52.66
4137,-55.49
4149,-57.41
4161,-58.57
4173,-59.21
4185,-59.8
4197,-61.2
4209,-64.83
4221,-72.2
4233,-83.97
4245,-99.11
4256,-114.64
4267,-126.56
4279,-131.41
4291,-127.86
4303,-117.03
4315,-101.75
4327,-84.85
4339,-67.88
4351,-50.91
4363,-33.33
4375,-15.04
4387,2.91
4399,18.72
4411,30.79
4423,38.65
4435,43.11
4446,45.58
4457,47.2
4469,48.29
4481,48.41
4493,46.92
4505,43.52
4517,38.63
4529,33.18
4541,28.28
4553,24.72
4565,22.76
4577,22.16
4589,22.39
4601,22.89
4613,23.27
4625,23.41
4636,23.35
4647,23.25
4659,23.25
4671,23.45
4683,23.84
4695,24.31
4707,24.7
4719,24.89
4731,24.86
4743,24.67
4755,24.39
4767,24.0
4779,23.32
4791,22.11
4803,20.14
4815,17.41
4826,14.14
4837,10.75
4849,7.68
4861,5.23
4873,3.47
4885,2.3
4897,1.53
4909,1.03
4921,0.75
4933,0.69
4945,0.87
4957,1.26
4969,1.77
4981,2.34
4993,2.91
5005,3.56
5016,4.38
5027,5.51
5039,7.07
5051,9.11
5063,11.64
5075,14.61
5087,17.87
5099,21.16
5111,24.19
5123,26.68
5135,28.51
5147,29.77
5159,30.7
5171,31.58
5183,32.53
5195,33.45
5206,34.04
5217,34.04
5229,33.28
5241,31.81
5253,29.77
5265,27.28
5277,24.29
5289,20.65
5301,16.21
5313,10.94
5325,4.94
5337,-1.62
5349,-8.59
5361,-15.88
5373,-23.37
5385,-30.77
5396,-37.54
5407,-42.94
5419,-46.31
5431,-47.38
5443,-46.37
5455,-44.03
5467,-41.31
5479,-39.03
5491,-37.59
5503,-37.02
5515,-37.04
5527,-37.35
5539,-37.84
5551,-38.58
5563,-39.71
5575,-41.21
5586,-42.77
5597,-43.76
5609,-43.49
5621,-41.44
5633,-37.59
5645,-32.47
5657,-26.99
5669,-22.07
5681,-18.25
5693,-15.46
5705,-13.15
5717,-10.66
5729,-7.54
5741,-3.85
5753,-0.03
5765,3.46
5776,6.42
5787,9.08
5799,11.87
5811,15.12
5823,18.7
5835,22.02
5847,24.28
5859,24.93
5871,23.96
5883,21.92
5895,19.6
5907,17.66
5919,16.32
5931,15.41
5943,14.56
5955,13.46
5966,12.06
5977,10.45
5989,8.76
6001,7.06
6013,5.3
6025,3.5
6037,1.74
6049,0.23
6061,-0.77
6073,-1.04
6085,-0.46
6097,0.99
6109,3.19
6121,5.87
6133,8.58
6145,10.77
6156,11.92
6167,11.68
6179,10.04
6191,7.31
6203,4.05
6215,0.97
6227,-1.35
6239,-2.48
6251,-2.22
6263,-0.62
6275,2.04
6287,5.31
6299,8.67
6311,11.64
6323,13.96
6335,15.62
6346,16.77
6357,17.6
6369,18.1
6381,18.07
6393,17.17
6405,15.22
6417,12.34
6429,9.03
6441,5.98
6453,3.78
6465,2.63
6477,2.31
6489,2.29
6501,1.97
6513,0.93
6525,-0.99
6536,-3.72
6547,-7.06
6559,-10.77
6571,-14.61
6583,-18.39
6595,-21.99
6607,-25.36
6619,-28.51
6631,-31.46
6643,-34.2
6655,-36.6
6667,-38.47
6679,-39.6
6691,-39.91
6703,-39.49
6715,-38.64
6726,-37.66
6737,-36.71
6749,-35.68
6761,-34.19
6773,-31.82
6785,-28.33
6797,-23.73
6809,-18.29
6821,-12.33
6833,-6.0
6845,0.78
6857,8.23
6869,16.52
6881,25.56
6893,34.91
6905,43.84
6916,51.55
6927,57.32
6939,60.66
6951,61.43
6963,59.86
6975,56.5
6987,52.21
6999,48.07
7011,45.17
7023,44.43
7035,46.16
7047,49.9
7059,54.41
7071,57.98
7083,58.97
7095,56.34
7106,49.99
7117,40.65
7129,29.66
7141,18.48
7153,8.42
7165,0.44
7177,-4.91
7189,-7.54
7201,-7.79
7213,-6.3
7225,-3.87
7237,-1.24
7249,1.11
7261,2.95
7273,4.26
7285,5.0
7296,5.18
7307,4.87
7319,4.31
7331,3.85
7343,3.82
7355,4.26
7367,4.83
7379,4.97
7391,4.27
7403,2.67
7415,0.56
7427,-1.55
7439,-3.44
7451,-5.42
7463,-8.24
7475,-12.67
7486,-19.07
7497,-27.17
7509,-36.23
7521,-45.48
7533,-54.42
7545,-62.92
7557,-70.92
7569,-78.11
7581,-83.82
7593,-87.2
7605,-87.76
7617,-85.7
7629,-81.94
7641,-77.78
7653,-74.18
7665,-71.28
7676,-68.35
7687,-64.14
7699,-57.56
7711,-48.32
7723,-37.21
7735,-25.87
7747,-16.26
7759,-9.96
7771,-7.68
7783,-9.13
7795,-13.21
7807,-18.42
7819,-23.31
7831,-26.77
7843,-28.25
7855,-27.7
7866,-25.47
7877,-22.09
7889,-18.14
7901,-14.16
7913,-10.6
7925,-7.9
7937,-6.54
7949,-7.03
7961,-9.66
7973,-14.31
7985,-20.3
7997,-26.46
8009,-31.49
8021,-34.35
8033,-34.6
8045,-32.37
8056,-28.17
8067,-22.53
8079,-16.0
8091,-9.03
8103,-2.28
8115,3.39
8127,7.1
8139,8.25
8151,6.79
8163,3.14
8175,-2.0
8187,-7.83
8199,-13.44
8211,-17.89
8223,-20.24
8235,-19.83
8246,-16.64
8257,-11.37
8269,-5.25
8281,0.57
8293,5.35
8305,8.99
8317,11.75
8329,13.77
8341,14.83
8353,14.48
8365,12.45
8377,8.99
8389,4.94
8401,1.35
8413,-1.0
8425,-1.97
8436,-2.01
8447,-1.79
8459,-1.95
8471,-2.67
8483,-3.69
8495,-4.49
8507,-4.58
8519,-3.71
8531,-2.03
8543,0.11
8555,2.29
8567,4.32
8579,6.27
8591,8.3
8603,10.56
8615,13.01
8626,15.46
8637,17.66
8649,19.44
8661,20.79
8673,21.76
8685,22.46
8697,22.93
8709,23.22
8721,23.41
8733,23.68
8745,24.28
8757,25.46
8769,27.34
8781,29.84
8793,32.7
8805,35.51
8816,37.9
8827,39.56
8839,40.39
8851,40.4
8863,39.72
8875,38.5
8887,36.84
8899,34.81
8911,32.51
8923,30.11
8935,27.87
8947,26.07
8959,24.92
8971,24.45
8983,24.49
8995,24.7
9006,24.71
9017,24.25
9029,23.29
9041,21.99
9053,20.69
9065,19.8
9077,19.62
9089,20.3
9101,21.8
9113,23.87
9125,26.22
9137,28.54
9149,30.7
9161,32.71
9173,34.75
9185,37.02
9196,39.63
9207,42.4
9219,44.67
9231,45.28
9243,42.77
9255,35.83
9267,23.81
9279,7.2
9291,-12.28
9303,-32.01
9315,-49.18
9327,-61.49
9339,-67.77
9351,-68.14
9363,-63.77
9375,-56.36
9386,-47.63
9397,-38.95
9409,-31.15
9421,-24.52
9433,-18.97
9445,-14.14
9457,-9.59
9469,-4.89
9481,0.24
9493,5.83
9505,11.7
9517,17.45
9529,22.51
9541,26.34
9553,28.53
9565,28.92
9576,27.7
9587,25.33
9599,22.48
9611,19.81
9623,17.79
9635,16.66
9647,16.35
9659,16.64
9671,17.25
9683,18.01
9695,18.93
9707,20.17
9719,22.0
9731,24.59
9743,28.0
9755,32.03
9766,36.27
9777,40.22
9789,43.49
9801,45.96
9813,47.88
9825,49.7
9837,51.9
9849,54.77
9861,58.33
9873,62.33
9885,66.33
9897,69.85
9909,72.39
9921,73.55
9933,73.12
9945,71.21
9956,68.27
9967,65.05
9979,62.38
9991,60.91
10003,60.86
10015,61.99
10027,63.66
10039,65.09
10051,65.55
10063,64.55
10075,61.9
10087,57.68
10099,52.17
10111,45.77
10123,38.91
10135,32.0
10146,25.37
10157,19.24
10169,13.65
10181,8.51
10193,3.69
10205,-0.89
10217,-5.17
10229,-8.87
10241,-11.64
10253,-13.19
10265,-13.48
10277,-12.75
10289,-11.41
10301,-9.93
10313,-8.61
10325,-7.57
10336,-6.8
10347,-6.25
10359,-6.0
10371,-6.21
10383,-7.12
10395,-8.88
10407,-11.51
10419,-14.85
10431,-18.62
10443,-22.52
10455,-26.31
10467,-29.92
10479,-33.37
10491,-36.69
10503,-39.88
10515,-42.83
10526,-45.3
10537,-47.07
10549,-48.01
10561,-48.16
10573,-47.68
10585,-46.82
10597,-45.84
10609,-44.91
10621,-44.19
10633,-43.77
10645,-43.73
10657,-44.08
10669,-44.74
10681,-45.54
10693,-46.24
10705,-46.63
10716,-46.58
10727,-46.09
10739,-45.23
10751,-44.07
10763,-42.61
10775,-40.82
10787,-38.76
10799,-36.6
10811,-34.72
10823,-33.59
10835,-33.51
10847,-34.5
10859,-36.19
10871,-37.89
10883,-38.8
10895,-38.36
10906,-36.41
10917,-33.22
10929,-29.46
10941,-25.87
10953,-23.13
10965,-21.67
10977,-21.62
10989,-22.9
11001,-25.21
11013,-28.15
11025,-31.26
11037,-34.09
11049,-36.26
11061,-37.41
11073,-37.25
11085,-35.58
11096,-32.28
11107,-27.34
11119,-20.97
11131,-13.6
11143,-5.84
11155,1.53
11167,7.76
11179,12.23
11191,14.71
11203,15.41
11215,14.99
11227,14.41
11239,14.62
11251,16.18
11263,19.08
11275,22.78
11286,26.53
11297,29.73
11309,32.24
11321,34.37
11333,36.6
11345,39.27
11357,42.28
11369,45.2
11381,47.42
11393,48.46
11405,48.0
11417,45.85
11429,41.84
11441,35.78
11453,27.65
11465,17.76
11476,6.83
11487,-4.16
11499,-14.33
11511,-23.19
11523,-30.74
11535,-37.32
11547,-43.35
11559,-49.05
11571,-54.44
11583,-59.35
11595,-63.56
11607,-66.8
11619,-68.74
11631,-69.03
11643,-67.32
11655,-63.49
11666,-57.72
11677,-50.57
11689,-42.74
11701,-34.94
11713,-27.68
11725,-21.2
11737,-15.53
11749,-10.52
11761,-5.98
11773,-1.67
11785,2.56
11797,6.79
11809,10.93
11821,14.82
11833,18.34
11845,21.5
11856,24.48
11867,27.5
11879,30.62
11891,33.56
11903,35.8
11915,36.7
11927,35.87
11939,33.34
11951,29.61
11963,25.46
11975,21.68
11987,18.83
11999,17.08
12011,16.29
12023,16.18
12035,16.51
12046,17.26
12057,18.58
12069,20.67
12081,23.59
12093,27.16
12105,30.99
12117,34.58
12129,37.5
12141,39.51
12153,40.57
12165,40.67
12177,39.85
12189,38.1
12201,35.33
12213,31.3
12225,25.5
12236,17.14
12247,5.41
12259,-10.11
12271,-28.93
12283,-49.55
12295,-69.67
12307,-86.87
12319,-99.37
12331,-106.4
12343,-108.29
12355,-106.03
12367,-100.71
12379,-93.22
12391,-84.16
12403,-73.93
12415,-62.86
12426,-51.26
12437,-39.35
12449,-27.26
12461,-15.08
12473,-2.92
12485,8.98
12497,20.16
12509,30.0
12521,37.76
12533,42.84
12545,44.96
12557,44.31
12569,41.49
12581,37.35
12593,32.72
12605,28.09
12616,23.59
12627,19.14
12639,14.71
12651,10.53
12663,7.11
12675,4.95
12687,4.22
12699,4.62
12711,5.42
12723,5.82
12735,5.31
12747,3.81
12759,1.67
12771,-0.64
12783,-2.72
12795,-4.41
12806,-5.74
12817,-6.78
12829,-7.54
12841,-7.95
12853,-7.94
12865,-7.58
12877,-7.06
12889,-6.7
12901,-6.74
12913,-7.3
12925,-8.33
12937,-9.6
12949,-10.92
12961,-12.25
12973,-13.71
12985,-15.54
12996,-17.92
13007,-20.87
13019,-24.2
13031,-27.54
13043,-30.41
13055,-32.28
13067,-32.66
13079,-31.2
13091,-27.94
13103,-23.42
13115,-18.67
13127,-14.79
13139,-12.46
13151,-11.55
13163,-11.11
13175,-9.78
13186,-6.47
13197,-0.89
13209,6.32
13221,13.96
13233,20.75
13245,25.91
13257,29.22
13269,30.97
13281,31.58
13293,31.35
13305,30.41
13317,28.78
13329,26.54
13341,23.92
13353,21.32
13365,19.13
13376,17.61
13387,16.69
13399,16.05
13411,15.23
13423,13.84
13435,11.74
13447,9.1
13459,6.34
13471,3.88
13483,1.97
13495,0.61
13507,-0.41
13519,-1.35
13531,-2.33
13543,-3.26
13555,-3.84
13566,-3.72
13577,-2.68
13589,-0.77
13601,1.67
13613,4.19
13625,6.34
13637,7.87
13649,8.72
13661,8.97
13673,8.75
13685,8.23
13697,7.66
13709,7.27
13721,7.28
13733,7.73
13745,8.38
13756,8.7
13767,8.12
13779,6.28
13791,3.26
13803,-0.42
13815,-3.96
13827,-6.63
13839,-8.02
13851,-8.11
13863,-7.19
13875,-5.67
13887,-3.9
13899,-2.13
13911,-0.48
13923,0.99
13935,2.28
13946,3.41
13957,4.43
13969,5.35
13981,6.2
13993,6.95
14005,7.54
14017,7.84
14029,7.65
14041,6.75
14053,4.96
14065,2.28
14077,-1.08
14089,-4.71
14101,-8.11
14113,-10.87
14125,-12.7
14136,-13.42
14147,-12.91
14159,-11.08
14171,-8.05
14183,-4.18
14195,-0.17
14207,3.24
14219,5.56
14231,6.79
14243,7.42
14255,8.09
14267,9.3
14279,11.11
14291,13.14
14303,14.86
14315,15.9
14326,16.24
14337,16.2
14349,16.19
14361,16.38
14373,16.58
14385,16.22
14397,14.62
14409,11.34
14421,6.49
14433,0.83
14445,-4.57
14457,-8.65
14469,-10.92
14481,-11.65
14493,-11.73
14505,-12.21
14516,-13.82
14527,-16.69
14539,-20.38
14551,-24.17
14563,-27.3
14575,-29.19
14587,-29.4
14599,-27.63
14611,-23.68
14623,-17.6
14635,-9.76
14647,-0.87
14659,8.19
14671,16.5
14683,23.28
14695,28.03
14706,30.6
14717,31.12
14729,30.02
14741,27.92
14753,25.54
14765,23.52
14777,22.27
14789,21.86
14801,22.04
14813,22.33
14825,22.15
14837,21.03
14849,18.8
14861,15.66
14873,12.09
14885,8.67
14896,5.7
14907,3.11
14919,0.4
14931,-3.04
14943,-7.63
14955,-13.37
14967,-19.75
14979,-25.92
14991,-30.96
15003,-34.22
15015,-35.54
15027,-35.38
15039,-34.61
15051,-34.28
15063,-35.16
15075,-37.49
15086,-40.89
15097,-44.52
15109,-47.38
15121,-48.76
15133,-48.48
15145,-46.94
15157,-44.92
15169,-43.31
15181,-42.82
15193,-43.78
15205,-46.18
15217,-49.7
15229,-53.83
15241,-58.01
15253,-61.66
15265,-64.15
15276,-64.77
15287,-62.75
15299,-57.53
15311,-48.94
15323,-37.42
15335,-23.91
15347,-9.63
15359,4.29
15371,17.05
15383,28.33
15395,38.32
15407,47.62
15419,57.09
15431,67.6
15443,79.78
15455,93.78
15466,109.0
15477,124.11
15489,137.24
15501,146.36
15513,149.87
15525,147.07
15537,138.35
15549,125.03
15561,108.98
15573,91.94
15585,74.99
15597,58.21
15609,40.77
15621,21.06
15633,-2.64
15645,-31.51
15656,-65.3
15667,-101.8
15679,-137.01
15691,-166.11
15703,-185.01
15715,-191.86
15727,-187.63
15739,-175.56
15751,-159.74
15763,-143.43
15775,-128.23
15787,-114.23
15799,-100.76
15811,-87.42
15823,-74.25
15835,-61.57
15846,-49.42
15857,-37.39
15869,-24.89
15881,-11.75
15893,1.44
15905,13.41
15917,22.76
15929,28.49
15941,30.55
15953,29.85
15965,27.87
15977,26.1
15989,25.54
16001,26.41
16013,28.24
16025,30.18
16036,31.45
16047,31.63
16059,30.79
16071,29.37
16083,27.94
16095,26.96
16107,26.62
16119,26.88
16131,27.62
16143,28.67
16155,30.0
16167,31.61
16179,33.53
16191,35.77
16203,38.25
16215,40.86
16226,43.46
16237,45.91
16249,48.1
16261,49.99
16273,51.59
16285,53.01
16297,54.36
16309,55.75
16321,57.18
16333,58.63
16345,60.01
16357,61.25
16369,62.36
16381,63.43
16393,64.58
16405,65.81
16416,67.0
16427,67.87
16439,68.13
16451,67.61
16463,66.32
16475,64.48
16487,62.39
16499,60.22
16511,57.94
16523,55.25
16535,51.67
16547,46.6
16559,39.41
16571,29.58
16583,16.82
16595,1.32
16606,-16.1
16617,-33.99
16629,-50.57
16641,-64.28
16653,-74.2
16665,-80.3
16677,-83.31
16689,-84.27
16701,-84.03
16713,-82.96
16725,-80.95
16737,-77.73
16749,-73.2
16761,-67.62
16773,-61.56
16785,-55.69
16796,-50.47
16807,-45.96
16819,-41.82
16831,-37.51
16843,-32.47
16855,-26.39
16867,-19.21
16879,-11.18
16891,-2.7
16903,5.77
16915,13.79
16927,20.96
16939,26.94
16951,31.44
16963,34.3
16975,35.55
16986,35.44
16997,34.43
17009,33.06
17021,31.84
17033,31.07
17045,30.79
17057,30.83
17069,30.9
17081,30.68
17093,29.9
17105,28.3
17117,25.69
17129,21.93
17141,17.07
17153,11.45
17165,5.66
17176,0.4
17187,-3.75
17199,-6.56
17211,-8.15
17223,-8.93
17235,-9.31
17247,-9.61
17259,-9.95
17271,-10.4
17283,-11.01
17295,-11.89
17307,-13.13
17319,-14.73
17331,-16.52
17343,-18.24
17355,-19.65
17366,-20.59
17377,-21.01
17389,-20.99
17401,-20.58
17413,-19.79
17425,-18.59
17437,-16.93
17449,-14.81
17461,-12.36
17473,-9.78
17485,-7.36
17497,-5.36
17509,-3.93
17521,-3.06
17533,-2.6
17545,-2.26
17556,-1.71
17567,-0.72
17579,0.78
17591,2.66
17603,4.51
17615,5.79
17627,5.89
17639,4.33
17651,0.89
17663,-4.23
17675,-10.41
17687,-16.77
17699,-22.3
17711,-26.14
17723,-27.74
17735,-26.99
17746,-24.21
17757,-20.1
17769,-15.56
17781,-11.4
17793,-8.16
17805,-5.99
17817,-4.68
17829,-3.82
17841,-3.02
17853,-1.96
17865,-0.44
17877,1.67
17889,4.46
17901,8.0
17913,12.18
17925,16.77
17936,21.45
17947,25.92
17959,30.09
17971,34.03
17983,38.01
17995,42.25
18007,46.86
18019,51.76
18031,56.67
18043,61.17
18055,64.83
18067,67.28
18079,68.33
18091,68.11
18103,67.12
18115,66.14
18126,66.04
18137,67.48
18149,70.62
18161,75.07
18173,79.99
18185,84.46
18197,87.85
18209,90.17
18221,92.03
18233,94.37
18245,97.96
18257,102.88
18269,108.32
18281,112.88
18293,115.07
18305,114.06
18316,110.11
18327,104.56
18339,99.41
18351,96.72
18363,98.03
18375,104.01
18387,114.21
18399,126.99
18411,139.7
18423,149.18
18435,152.71
18447,148.94
18459,138.53
18471,123.67
18483,106.9
18495,89.6
18506,70.97
18517,48.12
18529,17.39
18541,-23.71
18553,-74.68
18565,-131.45
18577,-187.24
18589,-234.67
18601,-268.07
18613,-285.11
18625,-287.04
18637,-277.6
18649,-261.23
18661,-241.57
18673,-220.79
18685,-199.95
18696,-179.77
18707,-161.25
18719,-145.69
18731,-134.02
18743,-126.21
18755,-121.06
18767,-116.67
18779,-111.3
18791,-104.14
18803,-95.53
18815,-86.7
18827,-79.18
18839,-74.0
18851,-71.29
18863,-70.3
18875,-69.65
18886,-67.99
18897,-64.5
18909,-59.24
18921,-53.08
18933,-47.35
18945,-43.3
18957,-41.61
18969,-42.12
18981,-43.97
18993,-45.89
19005,-46.72
19017,-45.74
19029,-42.83
19041,-38.28
19053,-32.64
19065,-26.41
19076,-20.06
19087,-14.0
19099,-8.73
19111,-4.76
19123,-2.43
19135,-1.77
19147,-2.4
19159,-3.66
19171,-4.85
19183,-5.47
19195,-5.32
19207,-4.49
19219,-3.18
19231,-1.6
19243,0.16
19255,2.06
19266,4.29
19277,7.11
19289,10.84
19301,15.77
19313,21.94
19325,29.08
19337,36.55
19349,43.55
19361,49.3
19373,53.34
19385,55.62
19397,56.46
19409,56.35
19421,55.78
19433,55.04
19445,54.19
19456,53.14
19467,51.81
19479,50.2
19491,48.39
19503,46.52
19515,44.65
19527,42.74
19539,40.69
19551,38.38
19563,35.81
19575,33.12
19587,30.51
19599,28.14
19611,26.06
19623,24.19
19635,22.35
19646,20.35
19657,18.12
19669,15.68
19681,13.16
19693,10.75
19705,8.62
19717,6.87
19729,5.5
19741,4.42
19753,3.52
19765,2.69
19777,1.88
19789,1.1
19801,0.33
19813,-0.47
19825,-1.37
19836,-2.37
19847,-3.43
19859,-4.38
19871,-5.05
19883,-5.4
19895,-5.59
19907,-5.96
19919,-6.84
19931,-8.39
19943,-10.41
19955,-12.46
19967,-13.97
19979,-14.56
19991,-14.21
20003,-13.29
20015,-12.51
20026,-12.58
20037,-13.95
20049,-16.59
20061,-19.84
20073,-22.57
20085,-23.54
20097,-21.9
20109,-17.56
20121,-11.37
20133,-4.83
20145,0.41
20157,3.08
20169,2.64
20181,-0.6
20193,-5.61
20205,-10.93
20216,-15.1
20227,-16.96
20239,-15.99
20251,-12.41
20263,-7.13
20275,-1.37
20287,3.68
20299,7.24
20311,9.06
20323,9.32
20335,8.33
20347,6.38
20359,3.71
20371,0.62
20383,-2.47
20395,-5.12
20406,-7.04
20417,-8.18
20429,-8.82
20441,-9.31
20453,-9.87
20465,-10.48
20477,-10.89
20489,-10.85
20501,-10.32
20513,-9.47
20525,-8.53
20537,-7.42
20549,-5.75
20561,-2.84
20573,1.76
20585,8.03
20596,15.25
20607,22.28
20619,27.92
20631,31.32
20643,32.2
20655,30.76
20667,27.53
20679,23.09
20691,17.98
20703,12.68
20715,7.58
20727,2.93
20739,-1.12
20751,-4.58
20763,-7.54
20775,-10.11
20786,-12.46
20797,-14.71
20809,-16.96
20821,-19.24
20833,-21.46
20845,-23.42
20857,-24.77
20869,-25.16
20881,-24.37
20893,-22.33
20905,-19.16
20917,-15.0
20929,-9.92
20941,-3.9
20953,3.05
20965,10.67
20976,18.42
20987,25.5
20999,31.11
