seconds,BVP
8,-111.96
20,-108.19
32,-100.73
44,-90.05
56,-77.14
68,-63.19
80,-49.26
91,-36.09
102,-24.2
114,-13.92
126,-5.55
138,0.78
150,5.12
162,7.83
174,9.53
186,10.92
198,12.56
210,14.76
222,17.52
234,20.65
246,23.91
258,27.12
270,30.23
281,33.27
292,36.25
304,39.1
316,41.59
328,43.41
340,44.22
352,43.78
364,42.04
376,39.13
388,35.35
400,31.07
412,26.64
424,22.28
436,18.06
448,13.95
460,9.86
471,5.8
482,1.86
494,-1.78
506,-4.89
518,-7.3
530,-8.95
542,-9.9
554,-10.31
566,-10.42
578,-10.57
590,-11.08
602,-12.28
614,-14.41
626,-17.54
638,-21.51
650,-25.85
661,-29.83
672,-32.54
684,-33.14
696,-31.08
708,-26.3
720,-19.3
732,-10.96
744,-2.32
756,5.74
768,12.69
780,18.37
792,22.81
804,26.07
816,28.17
828,29.04
840,28.71
851,27.34
862,25.27
874,22.96
886,20.83
898,19.24
910,18.34
922,18.19
934,18.7
946,19.73
958,21.04
970,22.36
982,23.41
994,23.91
1006,23.69
1018,22.7
1030,21.02
1041,18.88
1052,16.54
1064,14.33
1076,12.46
1088,11.01
1100,9.86
1112,8.77
1124,7.53
1136,6.06
1148,4.44
1160,2.86
1172,1.46
1184,0.22
1196,-1.1
1208,-2.88
1220,-5.56
1231,-9.45
1242,-14.67
1254,-20.99
1266,-27.84
1278,-34.33
1290,-39.41
1302,-42.18
1314,-42.13
1326,-39.38
1338,-34.59
1350,-28.74
1362,-22.74
1374,-17.17
1386,-12.16
1398,-7.56
1410,-3.15
1421,1.18
1432,5.36
1444,9.22
1456,12.62
1468,15.55
1480,18.13
1492,20.54
1504,22.98
1516,25.54
1528,28.17
1540,30.72
1552,33.02
1564,34.92
1576,36.41
1588,37.53
1600,38.32
1611,38.8
1622,38.97
1634,38.8
1646,38.24
1658,37.31
1670,36.0
1682,34.27
1694,32.07
1706,29.34
1718,26.1
1730,22.45
1742,18.53
1754,14.52
1766,10.56
1778,6.74
1790,3.1
1801,-0.37
1812,-3.74
1824,-7.08
1836,-10.39
1848,-13.45
1860,-15.77
1872,-16.67
1884,-15.48
1896,-11.89
1908,-6.1
1920,1.17
1932,8.87
1944,15.99
1956,21.75
1968,25.73
1980,27.77
1991,27.87
2002,26.12
2014,22.69
2026,17.95
2038,12.46
2050,6.93
2062,2.07
2074,-1.59
2086,-3.9
2098,-5.01
2110,-5.35
2122,-5.37
2134,-5.39
2146,-5.54
2158,-5.76
2170,-5.93
2181,-5.97
2192,-5.94
2204,-6.0
2216,-6.33
2228,-7.08
2240,-8.27
2252,-9.8
2264,-11.49
2276,-13.11
2288,-14.47
2300,-15.49
2312,-16.25
2324,-16.98
2336,-17.98
2348,-19.53
2360,-21.73
2371,-24.44
2382,-27.24
2394,-29.53
2406,-30.62
2418,-29.94
2430,-27.22
2442,-22.56
2454,-16.43
2466,-9.53
2478,-2.59
2490,3.79
2502,9.22
2514,13.49
2526,16.5
2538,18.22
2550,18.66
2561,17.92
2572,16.26
2584,14.11
2596,11.94
2608,10.16
2620,8.95
2632,8.3
2644,8.0
2656,7.84
2668,7.66
2680,7.46
2692,7.33
2704,7.37
2716,7.6
2728,7.96
2740,8.3
2751,8.41
2762,8.12
2774,7.32
2786,5.96
2798,4.12
2810,1.95
2822,-0.29
2834,-2.35
2846,-4.09
2858,-5.51
2870,-6.76
2882,-8.11
2894,-9.84
2906,-12.08
2918,-14.7
2930,-17.34
2941,-19.37
2952,-20.13
2964,-19.1
2976,-16.06
2988,-11.24
3000,-5.2
3012,1.29
3024,7.41
3036,12.56
3048,16.37
3060,18.77
3072,19.87
3084,19.87
3096,19.03
3108,17.59
3120,15.84
3131,14.05
3142,12.52
3154,11.46
3166,10.95
3178,10.98
3190,11.44
3202,12.18
3214,13.12
3226,14.25
3238,15.52
3250,16.84
3262,17.93
3274,18.44
3286,18.03
3298,16.55
3310,14.08
3321,10.9
3332,7.4
3344,3.9
3356,0.62
3368,-2.33
3380,-4.89
3392,-6.97
3404,-8.54
3416,-9.62
3428,-10.37
3440,-11.05
3452,-11.97
3464,-13.32
3476,-15.05
3488,-16.82
3500,-18.05
3511,-18.14
3522,-16.62
3534,-13.38
3546,-8.7
3558,-3.2
3570,2.36
3582,7.31
3594,11.19
3606,13.77
3618,15.02
3630,15.02
3642,13.89
3654,11.86
3666,9.25
3678,6.51
3690,4.08
3701,2.33
3712,1.43
3724,1.32
3736,1.8
3748,2.56
3760,3.32
3772,3.89
3784,4.19
3796,4.28
3808,4.25
3820,4.22
3832,4.21
3844,4.15
3856,3.9
3868,3.26
3880,2.13
3891,0.53
3902,-1.39
3914,-3.42
3926,-5.36
3938,-7.1
3950,-8.6
3962,-9.93
3974,-11.19
3986,-12.54
3998,-14.14
4010,-16.13
4022,-18.5
4034,-20.96
4046,-23.02
4058,-24.07
4070,-23.63
4081,-21.53
4092,-18.01
4104,-13.6
4116,-8.9
4128,-4.42
4140,-0.46
4152,2.83
4164,5.38
4176,7.12
4188,7.93
4200,7.78
4212,6.73
4224,5.04
4236,3.08
4248,1.23
4260,-0.18
4271,-0.97
4282,-1.14
4294,-0.81
4306,-0.17
4318,0.56
4330,1.23
4342,1.76
4354,2.13
4366,2.38
4378,2.52
4390,2.52
4402,2.34
4414,1.94
4426,1.3
4438,0.44
4450,-0.62
4461,-1.9
4472,-3.44
4484,-5.21
4496,-7.16
4508,-9.13
4520,-10.96
4532,-12.56
4544,-13.98
4556,-15.36
4568,-16.92
4580,-18.74
4592,-20.73
4604,-22.64
4616,-24.02
4628,-24.41
4640,-23.43
4651,-20.87
4662,-16.79
4674,-11.53
4686,-5.64
4698,0.18
4710,5.33
4722,9.38
4734,12.17
4746,13.73
4758,14.23
4770,13.83
4782,12.72
4794,11.14
4806,9.43
4818,7.97
4830,7.12
4841,7.07
4852,7.76
4864,8.95
4876,10.33
4888,11.64
4900,12.72
4912,13.52
4924,14.03
4936,14.2
4948,14.01
4960,13.48
4972,12.68
4984,11.76
4996,10.84
5008,9.93
5020,8.94
5031,7.7
5042,6.08
5054,4.09
5066,1.82
5078,-0.54
5090,-2.81
5102,-4.85
5114,-6.62
5126,-8.14
5138,-9.52
5150,-10.93
5162,-12.55
5174,-14.59
5186,-17.14
5198,-20.06
5210,-22.94
5221,-25.15
5232,-25.97
5244,-24.93
5256,-21.98
5268,-17.55
5280,-12.34
5292,-7.14
5304,-2.48
5316,1.38
5328,4.44
5340,6.75
5352,8.29
5364,9.0
5376,8.86
5388,8.02
5400,6.81
5411,5.66
5422,4.89
5434,4.61
5446,4.77
5458,5.21
5470,5.78
5482,6.44
5494,7.18
5506,7.97
5518,8.74
5530,9.38
5542,9.8
5554,9.97
5566,9.94
5578,9.76
5590,9.43
5601,8.93
5612,8.22
5624,7.32
5636,6.32
5648,5.33
5660,4.47
5672,3.72
5684,2.95
5696,1.92
5708,0.47
5720,-1.43
5732,-3.57
5744,-5.61
5756,-7.19
5768,-8.16
5780,-8.61
5791,-8.91
5802,-9.45
5814,-10.51
5826,-12.14
5838,-14.17
5850,-16.31
5862,-18.24
5874,-19.63
5886,-20.14
5898,-19.41
5910,-17.13
5922,-13.24
5934,-8.05
5946,-2.21
5958,3.43
5970,8.17
5981,11.63
5992,13.87
6004,15.16
6016,15.78
6028,15.86
6040,15.32
6052,14.14
6064,12.44
6076,10.61
6088,9.12
6100,8.36
6112,8.44
6124,9.25
6136,10.48
6148,11.84
6160,13.16
6171,14.38
6182,15.47
6194,16.35
6206,16.87
6218,16.88
6230,16.31
6242,15.19
6254,13.71
6266,12.08
6278,10.44
6290,8.85
6302,7.29
6314,5.71
6326,4.1
6338,2.5
6350,1.03
6361,-0.26
6372,-1.38
6384,-2.4
6396,-3.43
6408,-4.48
6420,-5.55
6432,-6.52
6444,-7.3
6456,-7.88
6468,-8.32
6480,-8.74
6492,-9.3
6504,-10.16
6516,-11.41
6528,-13.07
6540,-15.1
6551,-17.29
6562,-19.34
6574,-20.83
6586,-21.33
6598,-20.52
6610,-18.32
6622,-14.94
6634,-10.81
6646,-6.42
6658,-2.27
6670,1.29
6682,4.03
6694,5.82
6706,6.62
6718,6.46
6730,5.48
6741,3.92
6752,2.11
6764,0.36
6776,-1.05
6788,-1.94
6800,-2.22
6812,-1.92
6824,-1.1
6836,0.1
6848,1.55
6860,3.13
6872,4.73
6884,6.28
6896,7.68
6908,8.82
6920,9.58
6931,9.85
6942,9.55
6954,8.68
6966,7.34
6978,5.63
6990,3.69
7002,1.61
7014,-0.52
7026,-2.71
7038,-4.94
7050,-7.24
7062,-9.54
7074,-11.72
7086,-13.54
7098,-14.75
7110,-15.11
7121,-14.51
7132,-13.02
7144,-10.88
7156,-8.44
7168,-6.14
7180,-4.33
7192,-3.22
7204,-2.79
7216,-2.78
7228,-2.77
7240,-2.3
7252,-0.95
7264,1.51
7276,5.08
7288,9.55
7300,14.51
7311,19.5
7322,24.04
7334,27.71
7346,30.13
7358,31.05
7370,30.39
7382,28.26
7394,24.97
7406,21.05
7418,17.05
7430,13.44
7442,10.52
7454,8.31
7466,6.73
7478,5.62
7490,4.87
7501,4.43
7512,4.22
7524,4.14
7536,4.06
7548,3.88
7560,3.6
7572,3.31
7584,3.07
7596,2.88
7608,2.63
7620,2.13
7632,1.22
7644,-0.1
7656,-1.74
7668,-3.54
7680,-5.43
7691,-7.4
7702,-9.51
7714,-11.78
7726,-14.1
7738,-16.28
7750,-18.15
7762,-19.61
7774,-20.67
7786,-21.47
7798,-22.14
7810,-22.82
7822,-23.61
7834,-24.65
7846,-26.05
7858,-27.86
7870,-29.96
7881,-32.03
7892,-33.53
7904,-33.88
7916,-32.63
7928,-29.61
7940,-24.98
7952,-19.22
7964,-13.0
7976,-7.01
7988,-1.77
8000,2.4
8012,5.41
8024,7.37
8036,8.47
8048,8.94
8060,8.99
8071,8.8
8082,8.54
8094,8.37
8106,8.38
8118,8.63
8130,9.1
8142,9.7
8154,10.39
8166,11.1
8178,11.83
8190,12.55
8202,13.25
8214,13.84
8226,14.22
8238,14.28
8250,14.0
8261,13.39
8272,12.53
8284,11.53
8296,10.47
8308,9.41
8320,8.36
8332,7.29
8344,6.18
8356,5.01
8368,3.77
8380,2.52
8392,1.32
8404,0.26
8416,-0.59
8428,-1.22
8440,-1.69
8451,-2.08
8462,-2.46
8474,-2.81
8486,-3.07
8498,-3.2
8510,-3.23
8522,-3.3
8534,-3.66
8546,-4.53
8558,-6.0
8570,-7.98
8582,-10.16
8594,-12.09
8606,-13.31
8618,-13.44
8630,-12.3
8641,-9.89
8652,-6.46
8664,-2.44
8676,1.69
8688,5.43
8700,8.43
8712,10.51
8724,11.73
8736,12.28
8748,12.48
8760,12.64
8772,12.96
8784,13.54
8796,14.34
8808,15.28
8820,16.28
8831,17.3
8842,18.37
8854,19.53
8866,20.76
8878,21.94
8890,22.87
8902,23.34
8914,23.16
8926,22.24
8938,20.59
8950,18.28
8962,15.4
8974,12.05
8986,8.33
8998,4.37
9010,0.39
9021,-3.33
9032,-6.5
9044,-8.91
9056,-10.46
9068,-11.21
9080,-11.38
9092,-11.24
9104,-11.06
9116,-11.03
9128,-11.23
9140,-11.6
9152,-12.03
9164,-12.36
9176,-12.44
9188,-12.21
9200,-11.73
9211,-11.14
9222,-10.64
9234,-10.45
9246,-10.72
9258,-11.44
9270,-12.42
9282,-13.34
9294,-13.75
9306,-13.24
9318,-11.56
9330,-8.65
9342,-4.71
9354,-0.13
9366,4.61
9378,9.09
9390,13.08
9401,16.58
9412,19.78
9424,22.84
9436,25.76
9448,28.27
9460,29.84
9472,29.98
9484,28.47
9496,25.53
9508,21.84
9520,18.24
9532,15.43
9544,13.79
9556,13.24
9568,13.49
9580,14.12
9591,14.8
9602,15.32
9614,15.52
9626,15.23
9638,14.29
9650,12.58
9662,10.09
9674,6.98
9686,3.55
9698,0.12
9710,-3.04
9722,-5.84
9734,-8.29
9746,-10.41
9758,-12.13
9770,-13.22
9781,-13.4
9792,-12.49
9804,-10.66
9816,-8.39
9828,-6.37
9840,-5.21
9852,-5.22
9864,-6.34
9876,-8.26
9888,-10.64
9900,-13.24
9912,-16.01
9924,-18.97
9936,-22.09
9948,-25.24
9960,-28.14
9971,-30.43
9982,-31.74
9994,-31.76
10006,-30.25
10018,-27.18
10030,-22.7
10042,-17.19
10054,-11.18
10066,-5.3
10078,-0.1
10090,4.02
10102,6.8
10114,8.17
10126,8.18
10138,7.0
10150,4.86
10161,2.09
10172,-0.98
10184,-3.96
10196,-6.5
10208,-8.34
10220,-9.31
10232,-9.39
10244,-8.62
10256,-7.13
10268,-5.07
10280,-2.64
10292,-0.09
10304,2.32
10316,4.31
10328,5.67
10340,6.29
10351,6.24
10362,5.72
10374,5.03
10386,4.44
10398,4.11
10410,4.11
10422,4.39
10434,4.83
10446,5.27
10458,5.55
10470,5.52
10482,5.04
10494,4.07
10506,2.64
10518,0.86
10530,-1.1
10541,-3.04
10552,-4.8
10564,-6.28
10576,-7.48
10588,-8.45
10600,-9.33
10612,-10.23
10624,-11.26
10636,-12.51
10648,-14.0
10660,-15.72
10672,-17.61
10684,-19.48
10696,-21.01
10708,-21.81
10720,-21.42
10731,-19.53
10742,-16.08
10754,-11.37
10766,-5.99
10778,-0.68
10790,3.93
10802,7.42
10814,9.73
10826,11.06
10838,11.73
10850,11.98
10862,11.97
10874,11.71
10886,11.22
10898,10.56
10910,9.9
10921,9.42
10932,9.22
10944,9.28
10956,9.51
10968,9.79
10980,10.09
10992,10.46
11004,10.96
11016,11.58
11028,12.2
11040,12.61
11052,12.65
11064,12.23
11076,11.42
11088,10.4
11100,9.33
11111,8.36
11122,7.52
11134,6.81
11146,6.12
11158,5.38
11170,4.56
11182,3.65
11194,2.7
11206,1.79
11218,0.97
11230,0.22
11242,-0.49
11254,-1.2
11266,-1.93
11278,-2.61
11290,-3.21
11301,-3.69
11312,-4.16
11324,-4.78
11336,-5.73
11348,-7.12
11360,-8.88
11372,-10.76
11384,-12.42
11396,-13.44
11408,-13.5
11420,-12.42
11432,-10.21
11444,-7.08
11456,-3.38
11468,0.49
11480,4.18
11491,7.41
11502,10.03
11514,11.96
11526,13.16
11538,13.62
11550,13.35
11562,12.42
11574,11.0
11586,9.35
11598,7.75
11610,6.45
11622,5.59
11634,5.17
11646,5.08
11658,5.16
11670,5.28
11681,5.39
11692,5.52
11704,5.7
11716,5.94
11728,6.15
11740,6.19
11752,5.92
11764,5.26
11776,4.23
11788,2.97
11800,1.65
11812,0.43
11824,-0.55
11836,-1.26
11848,-1.77
11860,-2.18
11871,-2.66
11882,-3.34
11894,-4.26
11906,-5.37
11918,-6.53
11930,-7.57
11942,-8.41
11954,-9.02
11966,-9.49
11978,-9.93
11990,-10.44
12002,-11.08
12014,-11.93
12026,-13.01
12038,-14.3
12050,-15.68
12061,-16.89
12072,-17.59
12084,-17.39
12096,-16.03
12108,-13.43
12120,-9.75
12132,-5.38
12144,-0.8
12156,3.53
12168,7.24
12180,10.14
12192,12.16
12204,13.35
12216,13.84
12228,13.75
12240,13.26
12251,12.54
12262,11.75
12274,11.05
12286,10.59
12298,10.47
12310,10.74
12322,11.38
12334,12.3
12346,13.35
12358,14.38
12370,15.31
12382,16.07
12394,16.69
12406,17.16
12418,17.45
12430,17.5
12441,17.24
12452,16.66
12464,15.81
12476,14.86
12488,13.95
12500,13.2
12512,12.66
12524,12.33
12536,12.15
12548,12.04
12560,11.94
12572,11.73
12584,11.3
12596,10.51
12608,9.27
12620,7.54
12631,5.38
12642,2.98
12654,0.61
12666,-1.54
12678,-3.36
12690,-4.92
12702,-6.45
12714,-8.15
12726,-10.11
12738,-12.23
12750,-14.22
12762,-15.67
12774,-16.25
12786,-15.73
12798,-14.06
12810,-11.39
12821,-7.94
12832,-4.05
12844,-0.03
12856,3.83
12868,7.33
12880,10.33
12892,12.8
12904,14.79
12916,16.35
12928,17.55
12940,18.43
12952,19.07
12964,19.59
12976,20.19
12988,21.1
13000,22.53
13011,24.61
13022,27.37
13034,30.68
13046,34.29
13058,37.89
13070,41.14
13082,43.72
13094,45.36
13106,45.92
13118,45.37
13130,43.76
13142,41.19
13154,37.78
13166,33.65
13178,28.94
13190,23.89
13201,18.77
13212,13.91
13224,9.52
13236,5.7
13248,2.39
13260,-0.56
13272,-3.28
13284,-5.76
13296,-7.9
13308,-9.54
13320,-10.59
13332,-11.11
13344,-11.32
13356,-11.55
13368,-12.14
13380,-13.33
13391,-15.23
13402,-17.82
13414,-20.99
13426,-24.57
13438,-28.36
13450,-32.05
13462,-35.21
13474,-37.36
13486,-38.05
13498,-37.07
13510,-34.5
13522,-30.77
13534,-26.51
13546,-22.39
13558,-18.87
13570,-16.16
13581,-14.12
13592,-12.45
13604,-10.83
13616,-9.11
13628,-7.32
13640,-5.69
13652,-4.48
13664,-3.89
13676,-4.0
13688,-4.7
13700,-5.77
13712,-6.98
13724,-8.12
13736,-9.1
13748,-9.89
13760,-10.55
13771,-11.14
13782,-11.71
13794,-12.24
13806,-12.68
13818,-12.92
13830,-12.96
13842,-12.82
13854,-12.63
13866,-12.49
13878,-12.41
13890,-12.32
13902,-12.03
13914,-11.41
13926,-10.4
13938,-9.11
13950,-7.72
13961,-6.37
13972,-5.14
13984,-3.98
13996,-2.81
14008,-1.63
14020,-0.55
14032,0.2
14044,0.33
14056,-0.41
14068,-2.12
14080,-4.8
14092,-8.28
14104,-12.31
14116,-16.53
14128,-20.5
14140,-23.77
14151,-25.93
14162,-26.74
14174,-26.18
14186,-24.53
14198,-22.23
14210,-19.77
14222,-17.54
14234,-15.76
14246,-14.42
14258,-13.42
14270,-12.69
14282,-12.22
14294,-12.08
14306,-12.35
14318,-12.99
14330,-13.82
14341,-14.61
14352,-15.11
14364,-15.23
14376,-15.02
14388,-14.63
14400,-14.23
14412,-13.84
14424,-13.4
14436,-12.81
14448,-12.04
14460,-11.19
14472,-10.5
14484,-10.16
14496,-10.27
14508,-10.74
14520,-11.31
14531,-11.7
14542,-11.71
14554,-11.31
14566,-10.62
14578,-9.87
14590,-9.24
14602,-8.83
14614,-8.64
14626,-8.59
14638,-8.6
14650,-8.65
14662,-8.77
14674,-8.99
14686,-9.31
14698,-9.66
14710,-9.92
14721,-9.99
14732,-9.87
14744,-9.65
14756,-9.5
14768,-9.63
14780,-10.17
14792,-11.14
14804,-12.42
14816,-13.77
14828,-14.85
14840,-15.24
14852,-14.53
14864,-12.44
14876,-8.91
14888,-4.18
14900,1.27
14911,6.8
14922,11.78
14934,15.68
14946,18.22
14958,19.35
14970,19.2
14982,18.05
14994,16.25
15006,14.11
15018,11.88
15030,9.74
15042,7.81
15054,6.14
15066,4.79
15078,3.8
15090,3.19
15101,2.97
15112,3.09
15124,3.51
15136,4.16
15148,4.97
15160,5.84
15172,6.67
15184,7.37
15196,7.86
15208,8.09
15220,8.11
15232,7.94
15244,7.69
15256,7.41
15268,7.17
15280,7.04
15291,7.09
15302,7.34
15314,7.75
15326,8.19
15338,8.5
15350,8.54
15362,8.24
15374,7.66
15386,6.91
15398,6.16
15410,5.54
15422,5.1
15434,4.84
15446,4.66
15458,4.51
15470,4.27
15481,3.84
15492,3.06
15504,1.74
15516,-0.22
15528,-2.78
15540,-5.61
15552,-8.16
15564,-9.77
15576,-9.92
15588,-8.43
15600,-5.53
15612,-1.81
15624,2.05
15636,5.48
15648,8.16
15660,10.02
15671,11.12
15682,11.57
15694,11.45
15706,10.85
15718,9.86
15730,8.71
15742,7.57
15754,6.64
15766,6.01
15778,5.65
15790,5.52
15802,5.55
15814,5.71
15826,6.04
15838,6.56
15850,7.27
15861,8.09
15872,8.86
15884,9.38
15896,9.49
15908,9.13
15920,8.34
15932,7.25
15944,5.97
15956,4.6
15968,3.18
15980,1.7
15992,0.23
16004,-1.17
16016,-2.41
16028,-3.45
16040,-4.3
16051,-5.06
16062,-5.79
16074,-6.56
16086,-7.35
16098,-8.13
16110,-8.86
16122,-9.52
16134,-10.1
16146,-10.6
16158,-11.0
16170,-11.3
16182,-11.56
16194,-11.88
16206,-12.41
16218,-13.28
16230,-14.57
16241,-16.2
16252,-17.94
16264,-19.41
16276,-20.15
16288,-19.81
16300,-18.17
16312,-15.31
16324,-11.55
16336,-7.32
16348,-3.12
16360,0.7
16372,3.92
16384,6.45
16396,8.27
16408,9.37
16420,9.77
16431,9.55
16442,8.89
16454,8.02
16466,7.2
16478,6.65
16490,6.46
16502,6.62
16514,7.05
16526,7.62
16538,8.2
16550,8.71
16562,9.11
16574,9.38
16586,9.55
16598,9.66
16610,9.73
16621,9.74
16632,9.62
16644,9.27
16656,8.58
16668,7.47
16680,6.02
16692,4.43
16704,2.99
16716,2.07
16728,1.9
16740,2.55
16752,3.89
16764,5.58
16776,7.21
16788,8.44
16800,9.06
16811,9.05
16822,8.51
16834,7.58
16846,6.38
16858,4.97
16870,3.37
16882,1.58
16894,-0.43
16906,-2.64
16918,-5.02
16930,-7.44
16942,-9.65
16954,-11.27
16966,-11.89
16978,-11.19
16990,-9.06
17001,-5.66
17012,-1.4
17024,3.18
17036,7.51
17048,11.18
17060,13.91
17072,15.68
17084,16.58
17096,16.76
17108,16.39
17120,15.59
17132,14.46
17144,13.17
17156,11.92
17168,10.95
17180,10.45
17191,10.43
17202,10.76
17214,11.22
17226,11.6
17238,11.79
17250,11.76
17262,11.54
17274,11.14
17286,10.52
17298,9.64
17310,8.49
17322,7.17
17334,5.83
17346,4.6
17358,3.52
17370,2.55
17381,1.62
17392,0.65
17404,-0.38
17416,-1.46
17428,-2.56
17440,-3.66
17452,-4.78
17464,-5.91
17476,-7.04
17488,-8.08
17500,-8.92
17512,-9.49
17524,-9.83
17536,-10.02
17548,-10.18
17560,-10.39
17571,-10.63
17582,-10.86
17594,-11.08
17606,-11.35
17618,-11.81
17630,-12.53
17642,-13.45
17654,-14.3
17666,-14.71
17678,-14.32
17690,-12.91
17702,-10.49
17714,-7.28
17726,-3.61
17738,0.15
17750,3.68
17761,6.75
17772,9.22
17784,11.07
17796,12.32
17808,13.05
17820,13.34
17832,13.28
17844,12.97
17856,12.55
17868,12.15
17880,11.86
17892,11.7
17904,11.62
17916,11.55
17928,11.46
17940,11.36
17951,11.3
17962,11.32
17974,11.42
17986,11.53
17998,11.61
18010,11.6
18022,11.45
18034,11.14
18046,10.64
18058,9.93
18070,9.05
18082,8.0
18094,6.83
18106,5.55
18118,4.16
18130,2.68
18141,1.16
18152,-0.3
18164,-1.62
18176,-2.76
18188,-3.76
18200,-4.65
18212,-5.44
18224,-6.08
18236,-6.5
18248,-6.69
18260,-6.72
18272,-6.77
18284,-7.02
18296,-7.63
18308,-8.6
18320,-9.86
18331,-11.26
18342,-12.71
18354,-14.16
18366,-15.62
18378,-17.04
18390,-18.22
18402,-18.83
18414,-18.47
18426,-16.87
18438,-14.06
18450,-10.35
18462,-6.3
18474,-2.51
18486,0.66
18498,3.13
18510,5.0
18521,6.46
18532,7.56
18544,8.26
18556,8.48
18568,8.23
18580,7.7
18592,7.21
18604,7.04
18616,7.36
18628,8.16
18640,9.29
18652,10.56
18664,11.84
18676,13.07
18688,14.22
18700,15.23
18711,16.0
18722,16.46
18734,16.58
18746,16.47
18758,16.29
18770,16.24
18782,16.45
18794,16.94
18806,17.62
18818,18.36
18830,19.01
18842,19.49
18854,19.77
18866,19.88
18878,19.93
18890,20.03
18901,20.33
18912,20.91
18924,21.79
18936,22.79
18948,23.66
18960,24.07
18972,23.81
18984,22.83
18996,21.3
19008,19.57
19020,18.01
19032,16.88
19044,16.24
19056,15.91
19068,15.53
19080,14.76
19091,13.34
19102,11.26
19114,8.74
19126,6.2
19138,4.13
19150,2.97
19162,2.94
19174,3.97
19186,5.7
19198,7.5
19210,8.71
19222,8.77
19234,7.34
19246,4.45
19258,0.37
19270,-4.47
19281,-9.56
19292,-14.46
19304,-18.85
19316,-22.55
19328,-25.54
19340,-27.91
19352,-29.8
19364,-31.35
19376,-32.63
19388,-33.67
19400,-34.46
19412,-34.99
19424,-35.29
19436,-35.4
19448,-35.36
19460,-35.15
19471,-34.78
19482,-34.28
19494,-33.7
19506,-33.16
19518,-32.77
19530,-32.55
19542,-32.48
19554,-32.48
19566,-32.49
19578,-32.5
19590,-32.54
19602,-32.63
19614,-32.71
19626,-32.7
19638,-32.46
19650,-31.93
19661,-31.14
19672,-30.2
19684,-29.3
19696,-28.62
19708,-28.31
19720,-28.42
19732,-28.86
19744,-29.4
19756,-29.7
19768,-29.31
19780,-27.88
19792,-25.2
19804,-21.34
19816,-16.63
19828,-11.59
19840,-6.75
19851,-2.5
19862,0.98
19874,3.71
19886,5.83
19898,7.43
19910,8.57
19922,9.23
19934,9.43
19946,9.26
19958,8.92
19970,8.66
19982,8.67
19994,9.01
20006,9.6
20018,10.29
20030,10.95
20041,11.52
20052,12.04
20064,12.58
20076,13.14
20088,13.68
20100,14.12
20112,14.42
20124,14.58
20136,14.62
20148,14.57
20160,14.39
20172,14.05
20184,13.5
20196,12.75
20208,11.82
20220,10.76
20231,9.6
20242,8.33
20254,6.93
20266,5.4
20278,3.78
20290,2.11
20302,0.42
20314,-1.3
20326,-3.11
20338,-5.1
20350,-7.35
20362,-9.89
20374,-12.6
20386,-15.22
20398,-17.38
20410,-18.62
20421,-18.61
20432,-17.17
20444,-14.44
20456,-10.76
20468,-6.64
20480,-2.61
20492,0.92
20504,3.69
20516,5.63
20528,6.87
20540,7.59
20552,8.0
20564,8.25
20576,8.44
20588,8.57
20600,8.64
20611,8.61
20622,8.49
20634,8.3
20646,8.09
20658,7.88
20670,7.73
20682,7.69
20694,7.82
20706,8.15
20718,8.67
20730,9.28
20742,9.82
20754,10.11
20766,9.97
20778,9.29
20790,8.09
20801,6.52
20812,4.79
20824,3.18
20836,1.84
20848,0.85
20860,0.13
20872,-0.48
20884,-1.12
20896,-1.85
20908,-2.65
20920,-3.41
20932,-4.05
20944,-4.6
20956,-5.14
20968,-5.85
20980,-6.86
20991,-8.25
