seconds,BVP
7,-7.27
19,-7.77
31,-8.33
43,-9.05
55,-9.92
67,-10.86
79,-11.7
90,-12.36
101,-12.85
113,-13.31
125,-13.91
137,-14.8
149,-16.02
161,-17.45
173,-18.85
185,-19.84
197,-20.05
209,-19.14
221,-16.94
233,-13.52
245,-9.18
257,-4.42
269,0.22
280,4.29
291,7.51
303,9.83
315,11.37
327,12.32
339,12.85
351,13.03
363,12.9
375,12.48
387,11.81
399,11.03
411,10.32
423,9.85
435,9.67
447,9.74
459,9.93
470,10.14
481,10.31
493,10.42
505,10.48
517,10.44
529,10.2
541,9.7
553,8.92
565,7.96
577,6.97
589,6.07
601,5.3
613,4.61
625,3.91
637,3.09
649,2.16
660,1.14
671,0.09
683,-0.93
695,-1.88
707,-2.76
719,-3.54
731,-4.22
743,-4.87
755,-5.57
767,-6.41
779,-7.39
791,-8.44
803,-9.43
815,-10.25
827,-10.91
839,-11.54
850,-12.29
861,-13.26
873,-14.43
885,-15.7
897,-16.9
909,-17.84
921,-18.37
933,-18.26
945,-17.32
957,-15.41
969,-12.52
981,-8.87
993,-4.87
1005,-0.99
1017,2.41
1029,5.16
1040,7.29
1051,8.89
1063,10.07
1075,10.84
1087,11.15
1099,11.0
1111,10.42
1123,9.59
1135,8.67
1147,7.85
1159,7.22
1171,6.82
1183,6.63
1195,6.63
1207,6.82
1219,7.2
1230,7.75
1241,8.36
1253,8.92
1265,9.27
1277,9.33
1289,9.07
1301,8.57
1313,7.9
1325,7.11
1337,6.21
1349,5.19
1361,4.02
1373,2.73
1385,1.39
1397,0.07
1409,-1.15
1420,-2.21
1431,-3.13
1443,-3.91
1455,-4.58
1467,-5.21
1479,-5.81
1491,-6.46
1503,-7.25
1515,-8.27
1527,-9.64
1539,-11.36
1551,-13.29
1563,-15.13
1575,-16.5
1587,-17.01
1599,-16.43
1610,-14.74
1621,-12.08
1633,-8.75
1645,-5.03
1657,-1.23
1669,2.38
1681,5.55
1693,8.09
1705,9.92
1717,11.09
1729,11.74
1741,11.99
1753,11.94
1765,11.59
1777,10.93
1789,10.02
1800,9.01
1811,8.13
1823,7.56
1835,7.36
1847,7.43
1859,7.64
1871,7.83
1883,7.95
1895,8.0
1907,8.02
1919,8.03
1931,7.98
1943,7.78
1955,7.34
1967,6.57
1979,5.49
1990,4.15
2001,2.67
2013,1.2
2025,-0.13
2037,-1.24
2049,-2.16
2061,-3.0
2073,-3.91
2085,-5.0
2097,-6.3
2109,-7.72
2121,-9.09
2133,-10.26
2145,-11.12
2157,-11.7
2169,-12.15
2180,-12.66
2191,-13.42
2203,-14.51
2215,-15.87
2227,-17.31
2239,-18.51
2251,-19.12
2263,-18.8
2275,-17.33
2287,-14.66
2299,-10.99
2311,-6.69
2323,-2.28
2335,1.77
2347,5.13
2359,7.66
2370,9.43
2381,10.59
2393,11.29
2405,11.59
2417,11.48
2429,10.99
2441,10.2
2453,9.32
2465,8.57
2477,8.16
2489,8.14
2501,8.47
2513,8.99
2525,9.5
2537,9.88
2549,10.03
2560,9.93
2571,9.59
2583,9.05
2595,8.35
2607,7.55
2619,6.65
2631,5.68
2643,4.65
2655,3.59
2667,2.52
2679,1.5
2691,0.59
2703,-0.22
2715,-0.9
2727,-1.52
2739,-2.13
2750,-2.81
2761,-3.6
2773,-4.49
2785,-5.45
2797,-6.38
2809,-7.25
2821,-8.05
2833,-8.82
2845,-9.65
2857,-10.59
2869,-11.67
2881,-12.83
2893,-14.02
2905,-15.13
2917,-16.01
2929,-16.49
2940,-16.34
2951,-15.32
2963,-13.26
2975,-10.17
2987,-6.23
2999,-1.82
3011,2.56
3023,6.45
3035,9.53
3047,11.69
3059,12.98
3071,13.56
3083,13.6
3095,13.22
3107,12.52
3119,11.56
3130,10.48
3141,9.46
3153,8.67
3165,8.23
3177,8.12
3189,8.24
3201,8.42
3213,8.57
3225,8.66
3237,8.69
3249,8.7
3261,8.65
3273,8.47
3285,8.06
3297,7.44
3309,6.66
3320,5.83
3331,5.05
3343,4.32
3355,3.57
3367,2.65
3379,1.5
3391,0.19
3403,-1.1
3415,-2.14
3427,-2.77
3439,-2.99
3451,-3.0
3463,-3.12
3475,-3.61
3487,-4.59
3499,-5.96
3510,-7.51
3521,-8.96
3533,-10.17
3545,-11.11
3557,-11.85
3569,-12.49
3581,-13.12
3593,-13.8
3605,-14.66
3617,-15.77
3629,-17.16
3641,-18.71
3653,-20.07
3665,-20.82
3677,-20.6
3689,-19.24
3700,-16.83
3711,-13.64
3723,-9.98
3735,-6.11
3747,-2.22
3759,1.5
3771,4.82
3783,7.49
3795,9.31
3807,10.21
3819,10.29
3831,9.77
3843,8.92
3855,7.98
3867,7.17
3879,6.67
3890,6.58
3901,6.94
3913,7.69
3925,8.65
3937,9.59
3949,10.3
3961,10.64
3973,10.6
3985,10.24
3997,9.66
4009,8.95
4021,8.16
4033,7.36
4045,6.58
4057,5.85
4069,5.19
4080,4.6
4091,4.05
4103,3.51
4115,2.96
4127,2.36
4139,1.69
4151,0.97
4163,0.21
4175,-0.55
4187,-1.3
4199,-2.02
4211,-2.69
4223,-3.33
4235,-3.96
4247,-4.62
4259,-5.35
4270,-6.2
4281,-7.17
4293,-8.29
4305,-9.56
4317,-10.99
4329,-12.54
4341,-14.1
4353,-15.4
4365,-16.09
4377,-15.85
4389,-14.46
4401,-11.94
4413,-8.55
4425,-4.73
4437,-0.91
4449,2.53
4460,5.36
4471,7.51
4483,8.97
4495,9.83
4507,10.21
4519,10.24
4531,10.01
4543,9.64
4555,9.22
4567,8.82
4579,8.52
4591,8.33
4603,8.26
4615,8.27
4627,8.36
4639,8.5
4650,8.73
4661,9.04
4673,9.39
4685,9.69
4697,9.82
4709,9.67
4721,9.2
4733,8.4
4745,7.36
4757,6.18
4769,4.97
4781,3.81
4793,2.74
4805,1.79
4817,0.96
4829,0.26
4840,-0.34
4851,-0.84
4863,-1.33
4875,-1.87
4887,-2.52
4899,-3.3
4911,-4.18
4923,-5.11
4935,-6.05
4947,-6.99
4959,-7.93
4971,-8.88
4983,-9.8
4995,-10.63
5007,-11.33
5019,-11.94
5030,-12.58
5041,-13.43
5053,-14.58
5065,-15.99
5077,-17.43
5089,-18.48
5101,-18.68
5113,-17.64
5125,-15.23
5137,-11.6
5149,-7.19
5161,-2.59
5173,1.64
5185,5.11
5197,7.68
5209,9.42
5220,10.51
5231,11.12
5243,11.39
5255,11.36
5267,11.1
5279,10.67
5291,10.18
5303,9.76
5315,9.52
5327,9.53
5339,9.78
5351,10.22
5363,10.79
5375,11.4
5387,12.02
5399,12.56
5410,12.98
5421,13.18
5433,13.1
5445,12.69
5457,11.93
5469,10.9
5481,9.66
5493,8.36
5505,7.1
5517,6.03
5529,5.19
5541,4.62
5553,4.27
5565,4.07
5577,3.9
5589,3.64
5600,3.18
5611,2.48
5623,1.57
5635,0.55
5647,-0.47
5659,-1.39
5671,-2.22
5683,-3.05
5695,-3.97
5707,-5.06
5719,-6.29
5731,-7.57
5743,-8.78
5755,-9.82
5767,-10.69
5779,-11.46
5790,-12.25
5801,-13.18
5813,-14.36
5825,-15.8
5837,-17.47
5849,-19.16
5861,-20.55
5873,-21.24
5885,-20.86
5897,-19.19
5909,-16.29
5921,-12.45
5933,-8.16
5945,-3.88
5957,0.01
5969,3.34
5980,6.05
5991,8.2
6003,9.8
6015,10.88
6027,11.44
6039,11.51
6051,11.15
6063,10.54
6075,9.85
6087,9.29
6099,9.01
6111,9.06
6123,9.37
6135,9.83
6147,10.29
6159,10.67
6170,10.95
6181,11.19
6193,11.37
6205,11.43
6217,11.24
6229,10.71
6241,9.79
6253,8.59
6265,7.25
6277,5.93
6289,4.71
6301,3.58
6313,2.51
6325,1.49
6337,0.5
6349,-0.43
6360,-1.34
6371,-2.25
6383,-3.21
6395,-4.21
6407,-5.15
6419,-5.96
6431,-6.57
6443,-7.03
6455,-7.46
6467,-7.98
6479,-8.62
6491,-9.31
6503,-9.96
6515,-10.47
6527,-10.83
6539,-11.12
6550,-11.47
6561,-12.02
6573,-12.86
6585,-14.01
6597,-15.43
6609,-16.97
6621,-18.42
6633,-19.48
6645,-19.84
6657,-19.23
6669,-17.52
6681,-14.75
6693,-11.16
6705,-7.12
6717,-3.06
6729,0.63
6740,3.73
6751,6.14
6763,7.94
6775,9.27
6787,10.23
6799,10.84
6811,11.08
6823,10.91
6835,10.4
6847,9.71
6859,9.08
6871,8.68
6883,8.56
6895,8.67
6907,8.86
6919,9.06
6930,9.26
6941,9.5
6953,9.8
6965,10.12
6977,10.33
6989,10.31
7001,10.01
7013,9.44
7025,8.66
7037,7.7
7049,6.59
7061,5.33
7073,3.97
7085,2.61
7097,1.37
7109,0.36
7120,-0.41
7131,-1.01
7143,-1.55
7155,-2.11
7167,-2.75
7179,-3.48
7191,-4.24
7203,-4.99
7215,-5.71
7227,-6.38
7239,-7.05
7251,-7.82
7263,-8.75
7275,-9.89
7287,-11.21
7299,-12.62
7310,-14.0
7321,-15.28
7333,-16.4
7345,-17.26
7357,-17.67
7369,-17.38
7381,-16.16
7393,-13.94
7405,-10.87
7417,-7.3
7429,-3.63
7441,-0.23
7453,2.73
7465,5.21
7477,7.19
7489,8.68
7500,9.61
7511,9.98
7523,9.84
7535,9.39
7547,8.87
7559,8.47
7571,8.27
7583,8.26
7595,8.33
7607,8.43
7619,8.54
7631,8.73
7643,9.03
7655,9.46
7667,9.9
7679,10.2
7690,10.16
7701,9.68
7713,8.79
7725,7.65
7737,6.49
7749,5.52
7761,4.85
7773,4.45
7785,4.16
7797,3.79
7809,3.17
7821,2.23
7833,1.01
7845,-0.33
7857,-1.63
7869,-2.74
7880,-3.56
7891,-4.06
7903,-4.31
7915,-4.41
7927,-4.51
7939,-4.76
7951,-5.27
7963,-6.09
7975,-7.16
7987,-8.36
7999,-9.55
8011,-10.59
8023,-11.44
8035,-12.16
8047,-12.9
8059,-13.84
8070,-15.05
8081,-16.48
8093,-17.87
8105,-18.87
8117,-19.12
8129,-18.37
8141,-16.52
8153,-13.68
8165,-10.08
8177,-6.02
8189,-1.85
8201,2.09
8213,5.5
8225,8.18
8237,10.01
8249,11.0
8260,11.28
8271,11.0
8283,10.35
8295,9.49
8307,8.55
8319,7.7
8331,7.11
8343,6.89
8355,7.05
8367,7.5
8379,8.06
8391,8.54
8403,8.79
8415,8.77
8427,8.56
8439,8.27
8450,7.99
8461,7.79
8473,7.64
8485,7.45
8497,7.13
8509,6.61
8521,5.87
8533,4.96
8545,3.97
8557,3.01
8569,2.14
8581,1.39
8593,0.73
8605,0.11
8617,-0.49
8629,-1.11
8640,-1.77
8651,-2.49
8663,-3.24
8675,-3.99
8687,-4.66
8699,-5.23
8711,-5.71
8723,-6.19
8735,-6.71
8747,-7.32
8759,-7.99
8771,-8.65
8783,-9.23
8795,-9.76
8807,-10.3
8819,-10.94
8830,-11.74
8841,-12.69
8853,-13.73
8865,-14.76
8877,-15.65
8889,-16.25
8901,-16.33
8913,-15.66
8925,-14.04
8937,-11.38
8949,-7.87
8961,-3.84
8973,0.29
8985,4.11
8997,7.38
9009,9.94
9020,11.77
9031,12.84
9043,13.16
9055,12.8
9067,11.91
9079,10.74
9091,9.6
9103,8.78
9115,8.42
9127,8.53
9139,8.99
9151,9.65
9163,10.36
9175,11.04
9187,11.64
9199,12.13
9210,12.49
9221,12.69
9233,12.71
9245,12.48
9257,11.97
9269,11.14
9281,10.01
9293,8.67
9305,7.26
9317,5.92
9329,4.72
9341,3.67
9353,2.67
9365,1.65
9377,0.58
9389,-0.49
9400,-1.5
9411,-2.41
9423,-3.24
9435,-4.06
9447,-4.96
9459,-5.95
9471,-6.98
9483,-7.98
9495,-8.9
9507,-9.77
9519,-10.69
9531,-11.76
9543,-13.08
9555,-14.6
9567,-16.16
9579,-17.48
9590,-18.2
9601,-18.01
9613,-16.69
9625,-14.27
9637,-10.95
9649,-7.12
9661,-3.21
9673,0.41
9685,3.51
9697,6.03
9709,7.98
9721,9.39
9733,10.27
9745,10.63
9757,10.51
9769,10.04
9780,9.37
9791,8.68
9803,8.08
9815,7.62
9827,7.28
9839,7.06
9851,6.95
9863,6.96
9875,7.09
9887,7.29
9899,7.49
9911,7.59
9923,7.57
9935,7.42
9947,7.21
9959,6.96
9970,6.63
9981,6.15
9993,5.44
10005,4.47
10017,3.28
10029,1.98
10041,0.69
10053,-0.51
10065,-1.61
10077,-2.61
10089,-3.55
10101,-4.44
10113,-5.3
10125,-6.15
10137,-7.03
10149,-7.94
10160,-8.86
10171,-9.71
10183,-10.4
10195,-10.92
10207,-11.32
10219,-11.72
10231,-12.24
10243,-12.97
10255,-13.93
10267,-15.1
10279,-16.41
10291,-17.71
10303,-18.74
10315,-19.16
10327,-18.6
10339,-16.84
10350,-13.9
10361,-10.06
10373,-5.79
10385,-1.57
10397,2.23
10409,5.46
10421,8.04
10433,9.99
10445,11.26
10457,11.84
10469,11.73
10481,11.06
10493,10.03
10505,8.92
10517,7.91
10529,7.16
10540,6.71
10551,6.55
10563,6.65
10575,6.98
10587,7.49
10599,8.07
10611,8.6
10623,8.95
10635,9.02
10647,8.79
10659,8.26
10671,7.48
10683,6.49
10695,5.38
10707,4.22
10719,3.12
10730,2.11
10741,1.2
10753,0.32
10765,-0.64
10777,-1.74
10789,-2.94
10801,-4.13
10813,-5.15
10825,-5.88
10837,-6.34
10849,-6.63
10861,-6.93
10873,-7.34
10885,-7.86
10897,-8.4
10909,-8.88
10920,-9.25
10931,-9.6
10943,-10.06
10955,-10.77
10967,-11.75
10979,-12.99
10991,-14.38
11003,-15.87
11015,-17.41
11027,-18.88
11039,-20.08
11051,-20.69
11063,-20.33
11075,-18.77
11087,-15.98
11099,-12.2
11110,-7.86
11121,-3.47
11133,0.56
11145,3.96
11157,6.62
11169,8.54
11181,9.77
11193,10.38
11205,10.48
11217,10.16
11229,9.56
11241,8.81
11253,8.04
11265,7.38
11277,6.94
11289,6.77
11300,6.9
11311,7.28
11323,7.87
11335,8.54
11347,9.19
11359,9.71
11371,10.02
11383,10.12
11395,10.03
11407,9.79
11419,9.45
11431,9.05
11443,8.61
11455,8.15
11467,7.7
11479,7.24
11490,6.76
11501,6.2
11513,5.52
11525,4.71
11537,3.78
11549,2.77
11561,1.71
11573,0.65
11585,-0.36
11597,-1.26
11609,-2.03
11621,-2.62
11633,-3.05
11645,-3.35
11657,-3.62
11669,-3.96
11680,-4.44
11691,-5.13
11703,-6.0
11715,-7.03
11727,-8.17
11739,-9.34
11751,-10.42
11763,-11.19
11775,-11.37
11787,-10.68
11799,-8.98
11811,-6.27
11823,-2.81
11835,1.06
11847,4.96
11859,8.56
11870,11.67
11881,14.14
11893,15.89
11905,16.88
11917,17.11
11929,16.67
11941,15.71
11953,14.45
11965,13.15
11977,12.0
11989,11.13
12001,10.6
12013,10.35
12025,10.28
12037,10.22
12049,10.1
12060,9.85
12071,9.52
12083,9.21
12095,8.97
12107,8.79
12119,8.57
12131,8.18
12143,7.5
12155,6.51
12167,5.3
12179,4.02
12191,2.81
12203,1.71
12215,0.7
12227,-0.31
12239,-1.37
12250,-2.51
12261,-3.68
12273,-4.85
12285,-5.98
12297,-7.03
12309,-7.94
12321,-8.67
12333,-9.18
12345,-9.58
12357,-10.04
12369,-10.83
12381,-12.11
12393,-13.84
12405,-15.79
12417,-17.61
12429,-18.9
12440,-19.42
12451,-19.01
12463,-17.66
12475,-15.44
12487,-12.5
12499,-9.08
12511,-5.44
12523,-1.89
12535,1.36
12547,4.12
12559,6.26
12571,7.68
12583,8.29
12595,8.11
12607,7.22
12619,5.89
12630,4.4
12641,3.06
12653,2.05
12665,1.48
12677,1.35
12689,1.62
12701,2.24
12713,3.09
12725,4.02
12737,4.84
12749,5.43
12761,5.69
12773,5.66
12785,5.39
12797,4.93
12809,4.33
12820,3.64
12831,2.97
12843,2.42
12855,2.05
12867,1.83
12879,1.67
12891,1.42
12903,0.97
12915,0.27
12927,-0.66
12939,-1.76
12951,-2.97
12963,-4.22
12975,-5.45
12987,-6.6
12999,-7.58
13010,-8.39
13021,-9.05
13033,-9.66
13045,-10.3
13057,-10.99
13069,-11.76
13081,-12.58
13093,-13.48
13105,-14.5
13117,-15.68
13129,-16.93
13141,-18.06
13153,-18.71
13165,-18.51
13177,-17.17
13189,-14.6
13200,-10.97
13211,-6.67
13223,-2.15
13235,2.14
13247,5.92
13259,9.02
13271,11.43
13283,13.18
13295,14.27
13307,14.72
13319,14.56
13331,13.92
13343,13.05
13355,12.27
13367,11.82
13379,11.81
13390,12.11
13401,12.51
13413,12.81
13425,12.93
13437,12.9
13449,12.84
13461,12.78
13473,12.63
13485,12.24
13497,11.49
13509,10.38
13521,9.07
13533,7.78
13545,6.71
13557,5.91
13569,5.37
13580,4.98
13591,4.66
13603,4.38
13615,4.11
13627,3.83
13639,3.48
13651,3.01
13663,2.34
13675,1.44
13687,0.3
13699,-1.02
13711,-2.46
13723,-3.91
13735,-5.28
13747,-6.5
13759,-7.56
13770,-8.51
13781,-9.46
13793,-10.57
13805,-11.91
13817,-13.5
13829,-15.25
13841,-17.03
13853,-18.67
13865,-20.01
13877,-20.89
13889,-21.19
13901,-20.74
13913,-19.48
13925,-17.36
13937,-14.47
13949,-11.01
13960,-7.21
13971,-3.34
13983,0.36
13995,3.69
14007,6.48
14019,8.55
14031,9.76
14043,10.05
14055,9.49
14067,8.3
14079,6.82
14091,5.41
14103,4.37
14115,3.92
14127,4.12
14139,4.89
14150,6.07
14161,7.47
14173,8.84
14185,9.96
14197,10.65
14209,10.8
14221,10.36
14233,9.42
14245,8.12
14257,6.67
14269,5.31
14281,4.23
14293,3.57
14305,3.3
14317,3.29
14329,3.29
14340,3.09
14351,2.5
14363,1.53
14375,0.26
14387,-1.12
14399,-2.39
14411,-3.41
14423,-4.1
14435,-4.51
14447,-4.74
14459,-4.93
14471,-5.27
14483,-5.93
14495,-7.0
14507,-8.46
14519,-10.1
14530,-11.55
14541,-12.4
14553,-12.26
14565,-10.98
14577,-8.65
14589,-5.57
14601,-2.14
14613,1.32
14625,4.59
14637,7.51
14649,9.94
14661,11.7
14673,12.57
14685,12.45
14697,11.42
14709,9.76
14720,7.89
14731,6.22
14743,5.07
14755,4.52
14767,4.53
14779,4.96
14791,5.62
14803,6.37
14815,7.1
14827,7.72
14839,8.17
14851,8.38
14863,8.28
14875,7.82
14887,7.01
14899,5.9
14910,4.58
14921,3.08
14933,1.44
14945,-0.35
14957,-2.23
14969,-4.13
14981,-5.89
14993,-7.32
15005,-8.32
15017,-8.87
15029,-9.1
15041,-9.2
15053,-9.44
15065,-10.04
15077,-11.1
15089,-12.58
15100,-14.25
15111,-15.74
15123,-16.59
15135,-16.44
15147,-15.07
15159,-12.55
15171,-9.16
15183,-5.32
15195,-1.45
15207,2.13
15219,5.25
15231,7.84
15243,9.88
15255,11.39
15267,12.37
15279,12.85
15290,12.88
15301,12.57
15313,12.03
15325,11.33
15337,10.53
15349,9.66
15361,8.76
15373,7.93
15385,7.27
15397,6.87
15409,6.73
15421,6.77
15433,6.82
15445,6.69
15457,6.27
15469,5.55
15480,4.61
15491,3.58
15503,2.55
15515,1.54
15527,0.5
15539,-0.61
15551,-1.84
15563,-3.12
15575,-4.37
15587,-5.48
15599,-6.43
15611,-7.24
15623,-7.98
15635,-8.76
15647,-9.61
15659,-10.54
15670,-11.54
15681,-12.55
15693,-13.52
15705,-14.35
15717,-14.89
15729,-14.95
15741,-14.32
15753,-12.82
15765,-10.41
15777,-7.21
15789,-3.55
15801,0.2
15813,3.65
15825,6.55
15837,8.77
15849,10.32
15860,11.24
15871,11.55
15883,11.26
15895,10.41
15907,9.16
15919,7.75
15931,6.51
15943,5.7
15955,5.42
15967,5.63
15979,6.13
15991,6.69
16003,7.14
16015,7.37
16027,7.39
16039,7.23
16050,6.96
16061,6.63
16073,6.3
16085,5.95
16097,5.56
16109,5.09
16121,4.47
16133,3.7
16145,2.8
16157,1.83
16169,0.88
16181,-0.04
16193,-0.92
16205,-1.8
16217,-2.72
16229,-3.64
16240,-4.47
16251,-5.11
16263,-5.5
16275,-5.68
16287,-5.83
16299,-6.11
16311,-6.7
16323,-7.67
16335,-8.99
16347,-10.53
16359,-12.11
16371,-13.57
16383,-14.73
16395,-15.43
16407,-15.47
16419,-14.72
16430,-13.13
16441,-10.78
16453,-7.85
16465,-4.56
16477,-1.19
16489,2.06
16501,4.99
16513,7.43
16525,9.23
16537,10.24
16549,10.46
16561,10.01
16573,9.2
16585,8.37
16597,7.82
16609,7.66
16620,7.83
16631,8.13
16643,8.36
16655,8.4
16667,8.26
16679,7.99
16691,7.69
16703,7.35
16715,6.95
16727,6.41
16739,5.76
16751,5.03
16763,4.32
16775,3.7
16787,3.17
16799,2.67
16810,2.12
16821,1.46
16833,0.66
16845,-0.22
16857,-1.11
16869,-1.98
16881,-2.82
16893,-3.68
16905,-4.6
16917,-5.55
16929,-6.49
16941,-7.37
16953,-8.21
16965,-9.04
16977,-9.93
16989,-10.92
17000,-11.99
17011,-13.01
17023,-13.91
17035,-14.63
17047,-15.25
17059,-15.86
17071,-16.56
17083,-17.25
17095,-17.68
17107,-17.53
17119,-16.48
17131,-14.4
17143,-11.43
17155,-7.89
17167,-4.21
17179,-0.77
17190,2.19
17201,4.62
17213,6.57
17225,8.11
17237,9.24
17249,9.93
17261,10.14
17273,9.89
17285,9.28
17297,8.53
17309,7.84
17321,7.36
17333,7.13
17345,7.12
17357,7.24
17369,7.43
17380,7.66
17391,7.89
17403,8.05
17415,8.09
17427,7.93
17439,7.53
17451,6.89
17463,6.09
17475,5.18
17487,4.25
17499,3.35
17511,2.5
17523,1.73
17535,1.01
17547,0.29
17559,-0.46
17570,-1.25
17581,-2.08
17593,-2.88
17605,-3.6
17617,-4.2
17629,-4.67
17641,-5.04
17653,-5.34
17665,-5.6
17677,-5.88
17689,-6.24
17701,-6.73
17713,-7.41
17725,-8.28
17737,-9.24
17749,-10.11
17760,-10.65
17771,-10.58
17783,-9.75
17795,-8.1
17807,-5.77
17819,-2.98
17831,-0.07
17843,2.7
17855,5.16
17867,7.26
17879,8.98
17891,10.34
17903,11.28
17915,11.73
17927,11.59
17939,10.91
17950,9.83
17961,8.61
17973,7.55
17985,6.85
17997,6.54
18009,6.5
18021,6.57
18033,6.62
18045,6.61
18057,6.58
18069,6.6
18081,6.66
18093,6.7
18105,6.6
18117,6.3
18129,5.77
18140,5.08
18151,4.32
18163,3.53
18175,2.75
18187,1.93
18199,1.01
18211,-0.06
18223,-1.31
18235,-2.72
18247,-4.19
18259,-5.59
18271,-6.76
18283,-7.62
18295,-8.17
18307,-8.54
18319,-8.86
18330,-9.26
18341,-9.8
18353,-10.48
18365,-11.29
18377,-12.24
18389,-13.31
18401,-14.45
18413,-15.51
18425,-16.21
18437,-16.26
18449,-15.41
18461,-13.59
18473,-10.94
18485,-7.75
18497,-4.36
18509,-1.07
18520,1.89
18531,4.39
18543,6.37
18555,7.79
18567,8.67
18579,9.03
18591,8.95
18603,8.56
18615,7.98
18627,7.34
18639,6.73
18651,6.18
18663,5.72
18675,5.37
18687,5.15
18699,5.06
18710,5.14
18721,5.37
18733,5.72
18745,6.11
18757,6.41
18769,6.48
18781,6.22
18793,5.61
18805,4.69
18817,3.6
18829,2.5
18841,1.49
18853,0.61
18865,-0.17
18877,-0.86
18889,-1.55
18900,-2.23
18911,-2.92
18923,-3.61
18935,-4.3
18947,-4.99
18959,-5.68
18971,-6.36
18983,-7.01
18995,-7.61
19007,-8.13
19019,-8.62
19031,-9.11
19043,-9.69
19055,-10.43
19067,-11.41
19079,-12.65
19090,-14.09
19101,-15.56
19113,-16.82
19125,-17.55
19137,-17.45
19149,-16.35
19161,-14.21
19173,-11.19
19185,-7.61
19197,-3.85
19209,-0.25
19221,2.9
19233,5.46
19245,7.42
19257,8.81
19269,9.72
19280,10.24
19291,10.43
19303,10.36
19315,10.07
19327,9.63
19339,9.13
19351,8.7
19363,8.45
19375,8.43
19387,8.64
19399,8.94
19411,9.18
19423,9.22
19435,9.05
19447,8.73
19459,8.39
19470,8.11
19481,7.82
19493,7.41
19505,6.74
19517,5.81
19529,4.79
19541,3.9
19553,3.33
19565,3.09
19577,3.01
19589,2.81
19601,2.26
19613,1.29
19625,0.05
19637,-1.23
19649,-2.35
19660,-3.2
19671,-3.85
19683,-4.42
19695,-5.05
19707,-5.82
19719,-6.75
19731,-7.79
19743,-8.86
19755,-9.87
19767,-10.76
19779,-11.46
19791,-11.97
19803,-12.38
19815,-12.88
19827,-13.67
19839,-14.84
19850,-16.28
19861,-17.67
19873,-18.58
19885,-18.64
19897,-17.64
19909,-15.63
19921,-12.79
19933,-9.42
19945,-5.76
19957,-2.06
19969,1.48
19981,4.66
19993,7.28
20005,9.2
20017,10.4
20029,10.93
20040,10.93
20051,10.57
20063,10.04
20075,9.47
20087,8.99
20099,8.67
20111,8.52
20123,8.48
20135,8.49
20147,8.48
20159,8.4
20171,8.25
20183,8.06
20195,7.84
20207,7.59
20219,7.26
20230,6.83
20241,6.29
20253,5.7
20265,5.11
20277,4.56
20289,4.05
20301,3.53
20313,2.95
20325,2.28
20337,1.54
20349,0.79
20361,0.13
20373,-0.37
20385,-0.68
20397,-0.82
20409,-0.89
20420,-1.0
20431,-1.25
20443,-1.69
20455,-2.3
20467,-3.02
20479,-3.78
20491,-4.5
20503,-5.16
20515,-5.77
20527,-6.33
20539,-6.88
20551,-7.45
20563,-8.1
20575,-8.82
20587,-9.53
20599,-10.01
20610,-9.93
20621,-8.97
20633,-6.97
20645,-4.01
20657,-0.43
20669,3.29
20681,6.71
20693,9.56
20705,11.75
20717,13.3
20729,14.28
20741,14.73
20753,14.63
20765,14.01
20777,12.96
20789,11.71
20800,10.53
20811,9.63
20823,9.11
20835,8.9
20847,8.85
20859,8.81
20871,8.73
20883,8.64
20895,8.63
20907,8.71
20919,8.84
20931,8.89
20943,8.7
20955,8.22
20967,7.47
20979,6.56
20990,5.59
