seconds,BVP
8,-0.49
20,-2.21
32,-4.11
44,-6.48
56,-9.44
68,-12.86
80,-16.21
92,-18.75
104,-19.72
116,-18.62
128,-15.39
140,-10.37
152,-4.25
163,2.17
174,8.08
186,12.93
198,16.39
210,18.36
222,18.91
234,18.18
246,16.39
258,13.91
270,11.19
282,8.72
294,6.96
306,6.09
318,6.07
330,6.59
342,7.25
353,7.74
364,7.91
376,7.83
388,7.6
400,7.31
412,6.86
424,6.1
436,4.87
448,3.16
460,1.03
472,-1.36
484,-3.87
496,-6.38
508,-8.82
520,-11.21
532,-13.54
543,-15.89
554,-18.25
566,-20.66
578,-23.03
590,-25.16
602,-26.63
614,-26.86
626,-25.35
638,-21.81
650,-16.42
662,-9.75
674,-2.68
686,3.89
698,9.23
710,13.0
722,15.2
733,16.09
744,15.97
756,15.12
768,13.76
780,12.1
792,10.4
804,8.91
816,7.87
828,7.38
840,7.43
852,7.89
864,8.58
876,9.33
888,10.01
900,10.5
912,10.69
923,10.38
934,9.38
946,7.64
958,5.28
970,2.66
982,0.13
994,-2.01
1006,-3.63
1018,-4.79
1030,-5.74
1042,-6.74
1054,-8.0
1066,-9.67
1078,-11.8
1090,-14.36
1102,-17.12
1113,-19.61
1124,-21.11
1136,-20.93
1148,-18.59
1160,-14.19
1172,-8.36
1184,-2.08
1196,3.73
1208,8.4
1220,11.75
1232,13.91
1244,15.08
1256,15.35
1268,14.6
1280,12.78
1292,10.13
1303,7.17
1314,4.62
1326,3.13
1338,2.85
1350,3.54
1362,4.6
1374,5.47
1386,5.93
1398,6.11
1410,6.3
1422,6.64
1434,6.97
1446,6.83
1458,5.81
1470,3.84
1482,1.33
1493,-1.09
1504,-2.76
1516,-3.49
1528,-3.52
1540,-3.38
1552,-3.58
1564,-4.42
1576,-5.82
1588,-7.58
1600,-9.56
1612,-11.65
1624,-13.76
1636,-15.57
1648,-16.55
1660,-16.05
1672,-13.65
1683,-9.37
1694,-3.85
1706,1.95
1718,7.12
1730,11.18
1742,14.11
1754,16.13
1766,17.39
1778,17.84
1790,17.24
1802,15.43
1814,12.64
1826,9.45
1838,6.67
1850,4.94
1862,4.46
1873,4.94
1884,5.81
1896,6.56
1908,6.94
1920,7.04
1932,7.17
1944,7.54
1956,8.1
1968,8.58
1980,8.55
1992,7.69
2004,5.97
2016,3.66
2028,1.14
2040,-1.24
2052,-3.36
2063,-5.3
2074,-7.22
2086,-9.22
2098,-11.28
2110,-13.29
2122,-15.2
2134,-16.99
2146,-18.66
2158,-20.09
2170,-20.91
2182,-20.58
2194,-18.55
2206,-14.66
2218,-9.18
2230,-2.88
2242,3.34
2253,8.68
2264,12.69
2276,15.22
2288,16.36
2300,16.24
2312,14.98
2324,12.69
2336,9.58
2348,6.1
2360,2.82
2372,0.34
2384,-0.97
2396,-1.08
2408,-0.34
2420,0.74
2432,1.63
2443,2.07
2454,2.12
2466,1.98
2478,1.94
2490,2.02
2502,2.07
2514,1.84
2526,1.21
2538,0.25
2550,-0.77
2562,-1.61
2574,-2.19
2586,-2.65
2598,-3.3
2610,-4.45
2622,-6.31
2633,-8.85
2644,-11.81
2656,-14.73
2668,-17.04
2680,-18.12
2692,-17.53
2704,-15.07
2716,-10.98
2728,-5.81
2740,-0.34
2752,4.69
2764,8.8
2776,11.78
2788,13.65
2800,14.55
2812,14.58
2823,13.81
2834,12.41
2846,10.54
2858,8.5
2870,6.6
2882,5.1
2894,4.08
2906,3.56
2918,3.37
2930,3.35
2942,3.4
2954,3.38
2966,3.29
2978,3.1
2990,2.8
3002,2.34
3013,1.63
3024,0.62
3036,-0.67
3048,-2.17
3060,-3.72
3072,-5.19
3084,-6.53
3096,-7.71
3108,-8.83
3120,-10.01
3132,-11.38
3144,-13.03
3156,-15.0
3168,-17.21
3180,-19.37
3192,-20.96
3203,-21.38
3214,-20.17
3226,-17.16
3238,-12.68
3250,-7.43
3262,-2.21
3274,2.37
3286,6.01
3298,8.74
3310,10.72
3322,11.95
3334,12.38
3346,11.88
3358,10.44
3370,8.35
3382,6.09
3393,4.13
3404,2.74
3416,1.97
3428,1.62
3440,1.54
3452,1.64
3464,1.89
3476,2.36
3488,3.01
3500,3.66
3512,4.03
3524,3.93
3536,3.28
3548,2.23
3560,1.07
3572,0.04
3583,-0.78
3594,-1.5
3606,-2.37
3618,-3.64
3630,-5.44
3642,-7.78
3654,-10.57
3666,-13.69
3678,-16.92
3690,-19.87
3702,-21.99
3714,-22.58
3726,-21.11
3738,-17.4
3750,-11.81
3762,-5.12
3773,1.71
3784,7.84
3796,12.78
3808,16.28
3820,18.29
3832,18.83
3844,17.95
3856,15.82
3868,12.84
3880,9.6
3892,6.74
3904,4.79
3916,3.98
3928,4.16
3940,4.96
3952,5.91
3963,6.64
3974,7.0
3986,7.04
3998,6.88
4010,6.59
4022,6.21
4034,5.64
4046,4.78
4058,3.57
4070,2.11
4082,0.52
4094,-1.06
4106,-2.56
4118,-3.99
4130,-5.43
4142,-6.92
4153,-8.46
4164,-10.07
4176,-11.73
4188,-13.54
4200,-15.54
4212,-17.51
4224,-19.05
4236,-19.54
4248,-18.43
4260,-15.49
4272,-10.99
4284,-5.59
4296,-0.1
4308,4.78
4320,8.7
4332,11.57
4343,13.38
4354,14.09
4366,13.57
4378,11.85
4390,9.18
4402,6.1
4414,3.25
4426,1.23
4438,0.28
4450,0.38
4462,1.27
4474,2.67
4486,4.27
4498,5.86
4510,7.27
4522,8.34
4533,9.04
4544,9.36
4556,9.36
4568,9.15
4580,8.77
4592,8.18
4604,7.34
4616,6.18
4628,4.75
4640,3.22
4652,1.77
4664,0.52
4676,-0.57
4688,-1.67
4700,-3.01
4712,-4.74
4723,-6.85
4734,-9.28
4746,-11.83
4758,-14.27
4770,-16.3
4782,-17.61
4794,-17.86
4806,-16.82
4818,-14.44
4830,-10.97
4842,-6.92
4854,-2.89
4866,0.63
4878,3.35
4890,5.24
4902,6.38
4913,6.87
4924,6.76
4936,6.03
4948,4.71
4960,3.03
4972,1.39
4984,0.27
4996,0.01
5008,0.69
5020,2.12
5032,3.9
5044,5.64
5056,7.07
5068,8.11
5080,8.74
5092,8.98
5103,8.85
5114,8.24
5126,7.13
5138,5.55
5150,3.64
5162,1.6
5174,-0.38
5186,-2.13
5198,-3.62
5210,-4.89
5222,-6.02
5234,-7.14
5246,-8.33
5258,-9.65
5270,-11.19
5282,-13.06
5293,-15.27
5304,-17.72
5316,-20.05
5328,-21.65
5340,-21.91
5352,-20.38
5364,-17.01
5376,-12.17
5388,-6.58
5400,-0.98
5412,4.02
5424,8.05
5436,11.02
5448,12.93
5460,13.79
5472,13.58
5483,12.38
5494,10.44
5506,8.21
5518,6.24
5530,4.98
5542,4.62
5554,5.02
5566,5.81
5578,6.63
5590,7.22
5602,7.52
5614,7.61
5626,7.61
5638,7.53
5650,7.33
5662,6.86
5673,6.05
5684,4.91
5696,3.51
5708,2.02
5720,0.53
5732,-0.75
5744,-1.73
5756,-2.39
5768,-2.81
5780,-3.18
5792,-3.75
5804,-4.74
5816,-6.31
5828,-8.49
5840,-11.16
5852,-14.09
5863,-16.9
5874,-19.11
5886,-20.19
5898,-19.69
5910,-17.34
5922,-13.25
5934,-7.88
5946,-1.99
5958,3.61
5970,8.26
5982,11.66
5994,13.82
6006,14.88
6018,14.98
6030,14.17
6042,12.46
6053,9.95
6064,6.96
6076,3.98
6088,1.63
6100,0.31
6112,0.18
6124,0.99
6136,2.32
6148,3.69
6160,4.83
6172,5.67
6184,6.27
6196,6.67
6208,6.82
6220,6.53
6232,5.6
6243,3.94
6254,1.7
6266,-0.83
6278,-3.28
6290,-5.37
6302,-7.05
6314,-8.41
6326,-9.56
6338,-10.67
6350,-11.76
6362,-12.84
6374,-13.89
6386,-14.92
6398,-15.99
6410,-17.08
6422,-18.12
6433,-18.79
6444,-18.72
6456,-17.5
6468,-14.93
6480,-11.09
6492,-6.34
6504,-1.31
6516,3.42
6528,7.36
6540,10.32
6552,12.3
6564,13.49
6576,14.01
6588,13.84
6600,12.97
6612,11.42
6623,9.43
6634,7.38
6646,5.75
6658,4.89
6670,4.93
6682,5.71
6694,6.83
6706,7.91
6718,8.62
6730,8.83
6742,8.56
6754,7.96
6766,7.13
6778,6.16
6790,5.07
6802,3.75
6813,2.15
6824,0.19
6836,-2.02
6848,-4.34
6860,-6.57
6872,-8.61
6884,-10.42
6896,-12.06
6908,-13.52
6920,-14.84
6932,-16.06
6944,-17.27
6956,-18.6
6968,-20.15
6980,-21.77
6992,-23.12
7003,-23.61
7014,-22.7
7026,-20.13
7038,-16.05
7050,-10.93
7062,-5.41
7074,-0.02
7086,4.92
7098,9.24
7110,12.82
7122,15.41
7134,16.74
7146,16.63
7158,15.13
7170,12.6
7182,9.63
7193,6.87
7204,4.74
7216,3.52
7228,3.19
7240,3.65
7252,4.67
7264,6.01
7276,7.38
7288,8.53
7300,9.29
7312,9.55
7324,9.36
7336,8.71
7348,7.6
7360,5.98
7372,3.85
7383,1.33
7394,-1.29
7406,-3.69
7418,-5.7
7430,-7.24
7442,-8.47
7454,-9.67
7466,-11.05
7478,-12.75
7490,-14.78
7502,-17.08
7514,-19.53
7526,-21.96
7538,-23.97
7550,-25.12
7562,-24.88
7573,-22.86
7584,-18.99
7596,-13.56
7608,-7.18
7620,-0.63
7632,5.38
7644,10.36
7656,14.05
7668,16.42
7680,17.55
7692,17.56
7704,16.54
7716,14.64
7728,12.15
7740,9.51
7752,7.19
7763,5.6
7774,4.94
7786,5.14
7798,5.92
7810,6.88
7822,7.71
7834,8.27
7846,8.61
7858,8.85
7870,9.05
7882,9.09
7894,8.7
7906,7.67
7918,5.9
7930,3.62
7942,1.19
7953,-0.98
7964,-2.74
7976,-4.2
7988,-5.64
8000,-7.39
8012,-9.47
8024,-11.73
8036,-13.94
8048,-16.0
8060,-17.97
8072,-19.94
8084,-21.81
8096,-23.13
8108,-23.24
8120,-21.54
8132,-17.78
8143,-12.29
8154,-5.81
8166,0.8
8178,6.84
8190,11.92
8202,15.92
8214,18.75
8226,20.32
8238,20.51
8250,19.26
8262,16.75
8274,13.42
8286,9.92
8298,6.85
8310,4.64
8322,3.35
8333,2.8
8344,2.65
8356,2.61
8368,2.6
8380,2.67
8392,2.91
8404,3.3
8416,3.66
8428,3.56
8440,2.65
8452,0.74
8464,-2.07
8476,-5.39
8488,-8.79
8500,-11.94
8512,-14.73
8523,-17.24
8534,-19.63
8546,-22.0
8558,-24.35
8570,-26.68
8582,-28.99
8594,-31.36
8606,-33.79
8618,-36.07
8630,-37.7
8642,-38.0
8654,-36.41
8666,-32.76
8678,-27.43
8690,-21.22
8702,-14.96
8713,-9.3
8724,-4.45
8736,-0.31
8748,3.28
8760,6.38
8772,8.97
8784,11.05
8796,12.92
8808,15.12
8820,18.19
8832,22.39
8844,27.44
8856,32.62
8868,37.19
8880,40.74
8892,43.31
8903,45.3
8914,46.99
8926,48.24
8938,48.61
8950,47.51
8962,44.66
8974,40.31
8986,35.18
8998,30.15
9010,25.94
9022,22.83
9034,20.71
9046,19.16
9058,17.74
9070,16.03
9082,13.78
9093,10.91
9104,7.57
9116,4.16
9128,1.27
9140,-0.44
9152,-0.49
9164,1.29
9176,4.52
9188,8.48
9200,12.28
9212,15.21
9224,16.99
9236,17.79
9248,18.1
9260,18.36
9272,18.79
9283,19.33
9294,19.83
9306,20.14
9318,20.34
9330,20.73
9342,21.7
9354,23.58
9366,26.41
9378,29.9
9390,33.49
9402,36.62
9414,38.9
9426,40.3
9438,41.13
9450,41.84
9462,42.77
9473,43.97
9484,45.19
9496,45.99
9508,46.02
9520,45.17
9532,43.5
9544,41.24
9556,38.67
9568,36.01
9580,33.53
9592,31.52
9604,30.05
9616,28.84
9628,27.09
9640,23.58
9652,17.06
9663,6.85
9674,-6.75
9686,-22.32
9698,-37.57
9710,-50.13
9722,-58.27
9734,-61.41
9746,-60.25
9758,-56.44
9770,-51.94
9782,-48.44
9794,-46.85
9806,-47.19
9818,-48.88
9830,-51.07
9842,-53.01
9853,-54.24
9864,-54.54
9876,-53.86
9888,-52.16
9900,-49.48
9912,-45.97
9924,-41.93
9936,-37.82
9948,-34.14
9960,-31.39
9972,-29.79
9984,-29.31
9996,-29.61
10008,-30.21
10020,-30.65
10032,-30.74
10043,-30.55
10054,-30.32
10066,-30.4
10078,-30.95
10090,-31.98
10102,-33.34
10114,-34.92
10126,-36.64
10138,-38.39
10150,-39.85
10162,-40.45
10174,-39.53
10186,-36.51
10198,-31.27
10210,-24.21
10222,-16.22
10233,-8.3
10244,-1.31
10256,4.25
10268,8.27
10280,10.82
10292,12.02
10304,11.94
10316,10.65
10328,8.31
10340,5.29
10352,2.22
10364,-0.28
10376,-1.76
10388,-2.12
10400,-1.67
10412,-0.88
10423,-0.27
10434,-0.06
10446,-0.26
10458,-0.71
10470,-1.35
10482,-2.2
10494,-3.42
10506,-5.09
10518,-7.09
10530,-9.09
10542,-10.67
10554,-11.49
10566,-11.5
10578,-10.94
10590,-10.23
10602,-9.86
10613,-10.21
10624,-11.46
10636,-13.56
10648,-16.14
10660,-18.59
10672,-20.15
10684,-20.1
10696,-17.91
10708,-13.5
10720,-7.24
10732,0.14
10744,7.65
10756,14.32
10768,19.42
10780,22.59
10792,23.8
10803,23.31
10814,21.5
10826,18.82
10838,15.76
10850,12.76
10862,10.2
10874,8.36
10886,7.4
10898,7.2
10910,7.51
10922,8.01
10934,8.53
10946,9.02
10958,9.57
10970,10.2
10982,10.81
10993,11.15
11004,10.94
11016,10.04
11028,8.54
11040,6.72
11052,4.91
11064,3.33
11076,2.09
11088,1.13
11100,0.35
11112,-0.47
11124,-1.48
11136,-2.81
11148,-4.45
11160,-6.08
11172,-7.09
11183,-6.7
11194,-4.27
11206,0.4
11218,6.9
11230,14.34
11242,21.55
11254,27.48
11266,31.55
11278,33.61
11290,33.89
11302,32.73
11314,30.48
11326,27.37
11338,23.66
11350,19.66
11362,15.77
11373,12.44
11384,10.01
11396,8.62
11408,8.11
11420,8.08
11432,8.13
11444,7.89
11456,7.12
11468,5.76
11480,3.84
11492,1.42
11504,-1.39
11516,-4.5
11528,-7.73
11540,-10.93
11552,-13.93
11563,-16.66
11574,-19.11
11586,-21.34
11598,-23.44
11610,-25.48
11622,-27.45
11634,-29.19
11646,-30.34
11658,-30.37
11670,-28.8
11682,-25.32
11694,-20.03
11706,-13.4
11718,-6.22
11730,0.66
11742,6.51
11753,10.91
11764,13.65
11776,14.67
11788,14.04
11800,11.93
11812,8.72
11824,5.03
11836,1.54
11848,-1.09
11860,-2.47
11872,-2.56
11884,-1.59
11896,-0.01
11908,1.72
11920,3.2
11932,4.16
11943,4.49
11954,4.19
11966,3.34
11978,2.11
11990,0.72
12002,-0.62
12014,-1.76
12026,-2.73
12038,-3.66
12050,-4.79
12062,-6.36
12074,-8.56
12086,-11.42
12098,-14.84
12110,-18.51
12122,-21.89
12133,-24.26
12144,-24.84
12156,-23.06
12168,-18.77
12180,-12.37
12192,-4.71
12204,3.17
12216,10.38
12228,16.34
12240,20.8
12252,23.74
12264,25.19
12276,25.16
12288,23.79
12300,21.38
12312,18.46
12323,15.7
12334,13.71
12346,12.8
12358,12.93
12370,13.8
12382,15.04
12394,16.38
12406,17.67
12418,18.85
12430,19.87
12442,20.52
12454,20.49
12466,19.49
12478,17.42
12490,14.44
12502,10.94
12513,7.4
12524,4.22
12536,1.58
12548,-0.59
12560,-2.55
12572,-4.6
12584,-6.99
12596,-9.9
12608,-13.32
12620,-16.98
12632,-20.33
12644,-22.51
12656,-22.65
12668,-20.16
12680,-14.97
12692,-7.71
12703,0.54
12714,8.56
12726,15.43
12738,20.59
12750,23.91
12762,25.44
12774,25.25
12786,23.39
12798,20.02
12810,15.55
12822,10.71
12834,6.29
12846,3.0
12858,1.15
12870,0.64
12882,1.0
12893,1.61
12904,1.92
12916,1.69
12928,0.93
12940,-0.14
12952,-1.27
12964,-2.35
12976,-3.47
12988,-4.78
13000,-6.41
13012,-8.32
13024,-10.3
13036,-12.04
13048,-13.33
13060,-14.08
13072,-14.48
13083,-14.83
13094,-15.43
13106,-16.56
13118,-18.15
13130,-19.9
13142,-21.16
13154,-21.15
13166,-19.22
13178,-15.11
13190,-9.09
13202,-1.85
13214,5.58
13226,12.32
13238,17.75
13250,21.66
13262,24.14
13273,25.37
13284,25.49
13296,24.56
13308,22.66
13320,19.99
13332,16.94
13344,13.99
13356,11.58
13368,9.97
13380,9.26
13392,9.27
13404,9.75
13416,10.47
13428,11.23
13440,11.88
13452,12.24
13463,12.13
13474,11.36
13486,9.9
13498,7.83
13510,5.39
13522,2.93
13534,0.77
13546,-0.94
13558,-2.16
13570,-3.08
13582,-3.97
13594,-5.01
13606,-6.37
13618,-8.09
13630,-10.13
13642,-12.47
13653,-14.99
13664,-17.46
13676,-19.43
13688,-20.36
13700,-19.7
13712,-17.13
13724,-12.65
13736,-6.66
13748,0.09
13760,6.76
13772,12.55
13784,16.95
13796,19.62
13808,20.56
13820,19.92
13832,18.04
13843,15.41
13854,12.53
13866,9.91
13878,7.93
13890,6.77
13902,6.37
13914,6.52
13926,6.9
13938,7.26
13950,7.48
13962,7.5
13974,7.31
13986,6.86
13998,5.96
14010,4.49
14022,2.45
14033,0.04
14044,-2.39
14056,-4.49
14068,-6.09
14080,-7.24
14092,-8.19
14104,-9.21
14116,-10.45
14128,-11.91
14140,-13.54
14152,-15.26
14164,-17.04
14176,-18.88
14188,-20.61
14200,-21.84
14212,-22.01
14223,-20.55
14234,-17.16
14246,-11.96
14258,-5.52
14270,1.36
14282,7.87
14294,13.38
14306,17.53
14318,20.12
14330,21.1
14342,20.48
14354,18.48
14366,15.5
14378,12.18
14390,9.22
14402,7.19
14413,6.29
14424,6.31
14436,6.87
14448,7.49
14460,7.88
14472,7.99
14484,7.93
14496,7.75
14508,7.36
14520,6.55
14532,5.1
14544,2.98
14556,0.3
14568,-2.62
14580,-5.47
14592,-8.04
14603,-10.2
14614,-12.01
14626,-13.56
14638,-15.0
14650,-16.41
14662,-17.89
14674,-19.5
14686,-21.19
14698,-22.78
14710,-23.82
14722,-23.73
14734,-21.97
14746,-18.31
14758,-12.94
14770,-6.54
14782,0.06
14793,6.04
14804,10.86
14816,14.3
14828,16.36
14840,17.1
14852,16.53
14864,14.76
14876,11.99
14888,8.69
14900,5.52
14912,3.04
14924,1.62
14936,1.21
14948,1.54
14960,2.19
14972,2.87
14983,3.47
14994,4.02
15006,4.57
15018,5.08
15030,5.36
15042,5.11
15054,4.13
15066,2.43
15078,0.24
15090,-2.1
15102,-4.23
15114,-5.89
15126,-7.03
15138,-7.76
15150,-8.34
15162,-9.09
15173,-10.37
15184,-12.32
15196,-14.88
15208,-17.55
15220,-19.5
15232,-19.85
15244,-17.98
15256,-13.81
15268,-7.91
15280,-1.22
15292,5.24
15304,10.78
15316,15.07
15328,18.11
15340,19.97
15352,20.66
15363,20.07
15374,18.19
15386,15.17
15398,11.47
15410,7.74
15422,4.61
15434,2.49
15446,1.43
15458,1.26
15470,1.59
15482,2.12
15494,2.7
15506,3.31
15518,4.02
15530,4.77
15542,5.29
15553,5.19
15564,4.13
15576,1.99
15588,-0.97
15600,-4.17
15612,-6.99
15624,-8.92
15636,-9.84
15648,-9.96
15660,-9.76
15672,-9.8
15684,-10.48
15696,-11.97
15708,-14.08
15720,-16.36
15732,-18.2
15743,-18.94
15754,-18.07
15766,-15.43
15778,-11.21
15790,-5.94
15802,-0.39
15814,4.73
15826,8.87
15838,11.74
15850,13.28
15862,13.57
15874,12.75
15886,10.97
15898,8.4
15910,5.37
15922,2.3
15933,-0.33
15944,-2.17
15956,-3.04
15968,-3.06
15980,-2.55
15992,-1.85
16004,-1.24
16016,-0.84
16028,-0.59
16040,-0.43
16052,-0.33
16064,-0.34
16076,-0.62
16088,-1.25
16100,-2.25
16112,-3.56
16123,-5.0
16134,-6.42
16146,-7.74
16158,-8.93
16170,-10.01
16182,-11.11
16194,-12.45
16206,-14.17
16218,-16.32
16230,-18.74
16242,-20.95
16254,-22.25
16266,-21.9
16278,-19.5
16290,-15.12
16302,-9.33
16313,-2.98
16324,3.06
16336,8.25
16348,12.4
16360,15.52
16372,17.62
16384,18.54
16396,18.1
16408,16.22
16420,13.18
16432,9.59
16444,6.3
16456,4.03
16468,3.13
16480,3.47
16492,4.54
16503,5.76
16514,6.67
16526,7.12
16538,7.17
16550,6.99
16562,6.67
16574,6.12
16586,5.2
16598,3.78
16610,1.93
16622,-0.11
16634,-2.03
16646,-3.61
16658,-4.81
16670,-5.75
16682,-6.61
16693,-7.54
16704,-8.62
16716,-9.94
16728,-11.57
16740,-13.47
16752,-15.41
16764,-16.89
16776,-17.26
16788,-15.96
16800,-12.84
16812,-8.26
16824,-2.98
16836,2.12
16848,6.43
16860,9.66
16872,11.82
16883,12.99
16894,13.21
16906,12.4
16918,10.54
16930,7.81
16942,4.57
16954,1.4
16966,-1.14
16978,-2.7
16990,-3.24
17002,-2.95
17014,-2.17
17026,-1.19
17038,-0.15
17050,0.85
17062,1.75
17073,2.45
17084,2.75
17096,2.43
17108,1.37
17120,-0.33
17132,-2.39
17144,-4.5
17156,-6.41
17168,-8.05
17180,-9.43
17192,-10.68
17204,-11.9
17216,-13.22
17228,-14.68
17240,-16.24
17252,-17.69
17263,-18.66
17274,-18.67
17286,-17.27
17298,-14.36
17310,-10.15
17322,-5.24
17334,-0.35
17346,3.91
17358,7.23
17370,9.56
17382,11.0
17394,11.68
17406,11.6
17418,10.75
17430,9.13
17442,6.92
17453,4.44
17464,2.11
17476,0.36
17488,-0.53
17500,-0.54
17512,0.17
17524,1.29
17536,2.49
17548,3.45
17560,3.92
17572,3.74
17584,2.83
17596,1.27
17608,-0.72
17620,-2.82
17632,-4.73
17643,-6.26
17654,-7.49
17666,-8.61
17678,-9.87
17690,-11.47
17702,-13.51
17714,-15.96
17726,-18.67
17738,-21.34
17750,-23.45
17762,-24.35
17774,-23.37
17786,-20.12
17798,-14.68
17810,-7.71
17822,-0.21
17833,6.79
17844,12.58
17856,16.83
17868,19.5
17880,20.66
17892,20.4
17904,18.82
17916,16.13
17928,12.72
17940,9.15
17952,5.93
17964,3.46
17976,1.88
17988,1.12
18000,0.98
18012,1.21
18023,1.63
18034,2.04
18046,2.31
18058,2.36
18070,2.22
18082,1.91
18094,1.4
18106,0.55
18118,-0.79
18130,-2.73
18142,-5.18
18154,-7.87
18166,-10.48
18178,-12.8
18190,-14.91
18202,-17.11
18213,-19.68
18224,-22.6
18236,-25.32
18248,-26.94
18260,-26.44
18272,-23.29
18284,-17.6
18296,-10.18
18308,-2.23
18320,5.12
18332,11.08
18344,15.37
18356,18.09
18368,19.44
18380,19.56
18392,18.5
18403,16.3
18414,13.23
18426,9.77
18438,6.58
18450,4.23
18462,3.06
18474,3.03
18486,3.78
18498,4.82
18510,5.71
18522,6.25
18534,6.36
18546,6.13
18558,5.6
18570,4.78
18582,3.56
18593,1.97
18604,0.07
18616,-1.93
18628,-3.78
18640,-5.33
18652,-6.57
18664,-7.7
18676,-9.04
18688,-10.93
18700,-13.51
18712,-16.61
18724,-19.76
18736,-22.22
18748,-23.27
18760,-22.42
18772,-19.51
18783,-14.83
18794,-8.91
18806,-2.41
18818,4.1
18830,10.12
18842,15.31
18854,19.38
18866,22.1
18878,23.33
18890,23.03
18902,21.38
18914,18.8
18926,15.87
18938,13.19
18950,11.22
18962,10.17
18973,9.92
18984,10.16
18996,10.49
19008,10.63
19020,10.54
19032,10.28
19044,9.95
19056,9.48
19068,8.7
19080,7.44
19092,5.65
19104,3.54
19116,1.44
19128,-0.27
19140,-1.46
19152,-2.26
19163,-3.04
19174,-4.16
19186,-5.89
19198,-8.26
19210,-11.13
19222,-14.29
19234,-17.46
19246,-20.3
19258,-22.31
19270,-22.88
19282,-21.45
19294,-17.79
19306,-12.13
19318,-5.22
19330,1.93
19342,8.37
19353,13.45
19364,16.94
19376,18.88
19388,19.4
19400,18.66
19412,16.76
19424,13.98
19436,10.78
19448,7.81
19460,5.66
19472,4.72
19484,5.01
19496,6.23
19508,7.98
19520,9.83
19532,11.54
19543,12.99
19554,14.14
19566,14.96
19578,15.38
19590,15.23
19602,14.36
19614,12.71
19626,10.33
19638,7.44
19650,4.35
19662,1.41
19674,-1.15
19686,-3.25
19698,-5.01
19710,-6.62
19722,-8.31
19733,-10.25
19744,-12.55
19756,-15.14
19768,-17.73
19780,-19.8
19792,-20.71
19804,-19.88
19816,-17.07
19828,-12.56
19840,-6.95
19852,-1.07
19864,4.37
19876,8.96
19888,12.5
19900,14.88
19912,15.98
19923,15.67
19934,13.93
19946,11.07
19958,7.69
19970,4.54
19982,2.31
19994,1.39
20006,1.77
20018,3.08
20030,4.82
20042,6.46
20054,7.7
20066,8.38
20078,8.54
20090,8.3
20102,7.83
20113,7.26
20124,6.67
20136,6.08
20148,5.42
20160,4.63
20172,3.6
20184,2.28
20196,0.71
20208,-1.02
20220,-2.76
20232,-4.4
20244,-5.92
20256,-7.4
20268,-9.02
20280,-10.93
20292,-13.18
20303,-15.6
20314,-17.78
20326,-19.12
20338,-19.03
20350,-17.11
20362,-13.25
20374,-7.76
20386,-1.29
20398,5.34
20410,11.34
20422,16.14
20434,19.4
20446,21.02
20458,21.07
20470,19.69
20482,17.17
20493,13.8
20504,10.1
20516,6.58
20528,3.86
20540,2.39
20552,2.31
20564,3.36
20576,5.01
20588,6.66
20600,7.87
20612,8.55
20624,8.8
20636,8.83
20648,8.69
20660,8.28
20672,7.4
20683,5.88
20694,3.78
20706,1.33
20718,-1.07
20730,-3.12
20742,-4.61
20754,-5.57
20766,-6.27
20778,-6.97
20790,-7.97
20802,-9.4
20814,-11.22
20826,-13.29
20838,-15.45
20850,-17.45
20862,-18.97
20873,-19.67
20884,-19.07
20896,-16.92
20908,-13.16
20920,-8.14
20932,-2.46
20944,3.08
20956,7.88
20968,11.58
20980,14.03
20992,15.29
