seconds,BVP
6,-19.28
18,-21.67
30,-22.93
42,-22.53
54,-20.06
66,-15.46
78,-9.12
89,-1.82
100,5.48
112,11.91
124,16.89
136,20.22
148,21.97
160,22.28
172,21.38
184,19.46
196,16.85
208,13.98
220,11.4
232,9.59
244,8.86
256,9.2
268,10.31
279,11.75
290,13.05
302,13.88
314,14.06
326,13.64
338,12.73
350,11.48
362,10.0
374,8.32
386,6.46
398,4.37
410,2.03
422,-0.63
434,-3.65
446,-6.99
458,-10.5
469,-13.8
480,-16.34
492,-17.5
504,-16.8
516,-14.05
528,-9.49
540,-3.73
552,2.47
564,8.41
576,13.53
588,17.5
600,20.15
612,21.4
624,21.24
636,19.78
648,17.31
659,14.33
670,11.43
682,9.19
694,7.94
706,7.71
718,8.25
730,9.16
742,10.01
754,10.53
766,10.6
778,10.27
790,9.59
802,8.65
814,7.44
826,5.9
838,3.96
849,1.6
860,-1.12
872,-4.11
884,-7.23
896,-10.34
908,-13.32
920,-15.99
932,-18.06
944,-19.09
956,-18.65
968,-16.43
980,-12.47
992,-7.17
1004,-1.24
1016,4.55
1028,9.57
1039,13.45
1050,16.04
1062,17.3
1074,17.28
1086,16.05
1098,13.84
1110,11.03
1122,8.14
1134,5.71
1146,4.12
1158,3.55
1170,3.88
1182,4.82
1194,5.92
1206,6.73
1218,6.91
1229,6.31
1240,5.0
1252,3.23
1264,1.26
1276,-0.71
1288,-2.59
1300,-4.42
1312,-6.29
1324,-8.29
1336,-10.52
1348,-13.02
1360,-15.77
1372,-18.58
1384,-21.04
1396,-22.55
1408,-22.48
1419,-20.4
1430,-16.34
1442,-10.74
1454,-4.39
1466,1.89
1478,7.41
1490,11.75
1502,14.73
1514,16.34
1526,16.62
1538,15.67
1550,13.68
1562,10.93
1574,7.85
1586,4.94
1598,2.72
1609,1.55
1620,1.52
1632,2.4
1644,3.77
1656,5.11
1668,6.01
1680,6.28
1692,5.91
1704,5.0
1716,3.65
1728,1.93
1740,-0.16
1752,-2.59
1764,-5.27
1776,-8.11
1788,-11.04
1799,-14.05
1810,-17.13
1822,-20.15
1834,-22.82
1846,-24.63
1858,-25.0
1870,-23.5
1882,-19.98
1894,-14.7
1906,-8.29
1918,-1.56
1930,4.67
1942,9.77
1954,13.36
1966,15.36
1978,15.92
1989,15.29
2000,13.73
2012,11.54
2024,8.96
2036,6.29
2048,3.86
2060,2.02
2072,1.07
2084,1.11
2096,1.99
2108,3.29
2120,4.47
2132,5.04
2144,4.78
2156,3.77
2168,2.3
2179,0.71
2190,-0.82
2202,-2.28
2214,-3.87
2226,-5.77
2238,-8.11
2250,-10.85
2262,-13.81
2274,-16.74
2286,-19.34
2298,-21.28
2310,-22.2
2322,-21.76
2334,-19.7
2346,-16.0
2358,-10.91
2369,-4.99
2380,1.02
2392,6.42
2404,10.67
2416,13.51
2428,14.97
2440,15.2
2452,14.45
2464,12.92
2476,10.82
2488,8.39
2500,5.98
2512,3.99
2524,2.78
2536,2.53
2548,3.16
2559,4.34
2570,5.64
2582,6.61
2594,6.98
2606,6.65
2618,5.7
2630,4.28
2642,2.59
2654,0.81
2666,-0.92
2678,-2.61
2690,-4.31
2702,-6.16
2714,-8.29
2726,-10.73
2738,-13.36
2749,-15.85
2760,-17.74
2772,-18.54
2784,-17.82
2796,-15.39
2808,-11.34
2820,-6.07
2832,-0.2
2844,5.58
2856,10.62
2868,14.46
2880,16.81
2892,17.56
2904,16.8
2916,14.74
2928,11.79
2939,8.46
2950,5.34
2962,2.94
2974,1.59
2986,1.33
2998,1.99
3010,3.21
3022,4.56
3034,5.68
3046,6.29
3058,6.29
3070,5.71
3082,4.7
3094,3.45
3106,2.08
3118,0.63
3129,-0.99
3140,-2.91
3152,-5.25
3164,-8.06
3176,-11.22
3188,-14.48
3200,-17.46
3212,-19.68
3224,-20.66
3236,-20.04
3248,-17.68
3260,-13.75
3272,-8.74
3284,-3.3
3296,1.92
3308,6.43
3319,9.89
3330,12.16
3342,13.14
3354,12.81
3366,11.24
3378,8.64
3390,5.45
3402,2.19
3414,-0.56
3426,-2.35
3438,-3.03
3450,-2.7
3462,-1.71
3474,-0.48
3486,0.58
3498,1.2
3509,1.29
3520,0.89
3532,0.08
3544,-1.07
3556,-2.51
3568,-4.23
3580,-6.25
3592,-8.54
3604,-11.11
3616,-13.93
3628,-16.98
3640,-20.11
3652,-22.96
3664,-24.98
3676,-25.55
3688,-24.15
3699,-20.64
3710,-15.37
3722,-9.07
3734,-2.6
3746,3.25
3758,8.02
3770,11.51
3782,13.71
3794,14.64
3806,14.33
3818,12.84
3830,10.38
3842,7.36
3854,4.35
3866,1.9
3878,0.41
3889,-0.02
3900,0.45
3912,1.42
3924,2.45
3936,3.12
3948,3.16
3960,2.46
3972,1.12
3984,-0.61
3996,-2.44
4008,-4.13
4020,-5.61
4032,-7.02
4044,-8.65
4056,-10.82
4068,-13.73
4079,-17.25
4090,-20.95
4102,-24.11
4114,-25.94
4126,-25.8
4138,-23.39
4150,-18.84
4162,-12.73
4174,-5.87
4186,0.93
4198,6.96
4210,11.8
4222,15.24
4234,17.22
4246,17.77
4258,17.02
4269,15.17
4280,12.56
4292,9.65
4304,6.92
4316,4.82
4328,3.63
4340,3.4
4352,3.96
4364,4.94
4376,5.92
4388,6.53
4400,6.52
4412,5.84
4424,4.58
4436,2.92
4448,1.05
4459,-0.91
4470,-2.94
4482,-5.07
4494,-7.37
4506,-9.91
4518,-12.74
4530,-15.83
4542,-18.99
4554,-21.85
4566,-23.86
4578,-24.45
4590,-23.13
4602,-19.76
4614,-14.54
4626,-8.08
4638,-1.16
4649,5.41
4660,11.01
4672,15.19
4684,17.72
4696,18.54
4708,17.76
4720,15.67
4732,12.79
4744,9.77
4756,7.21
4768,5.56
4780,4.95
4792,5.23
4804,6.05
4816,6.99
4828,7.71
4839,7.98
4850,7.71
4862,6.92
4874,5.72
4886,4.28
4898,2.76
4910,1.31
4922,-0.08
4934,-1.54
4946,-3.27
4958,-5.5
4970,-8.37
4982,-11.84
4994,-15.66
5006,-19.36
5018,-22.32
5029,-23.89
5040,-23.57
5052,-21.08
5064,-16.54
5076,-10.41
5088,-3.44
5100,3.51
5112,9.68
5124,14.52
5136,17.72
5148,19.23
5160,19.13
5172,17.65
5184,15.12
5196,12.01
5208,8.86
5219,6.24
5230,4.6
5242,4.16
5254,4.86
5266,6.32
5278,8.0
5290,9.39
5302,10.12
5314,10.06
5326,9.34
5338,8.17
5350,6.74
5362,5.13
5374,3.35
5386,1.27
5398,-1.14
5409,-3.91
5420,-6.95
5432,-10.18
5444,-13.45
5456,-16.55
5468,-19.13
5480,-20.69
5492,-20.72
5504,-18.86
5516,-15.07
5528,-9.74
5540,-3.58
5552,2.63
5564,8.2
5576,12.72
5588,15.99
5599,18.0
5610,18.79
5622,18.43
5634,17.05
5646,14.91
5658,12.43
5670,10.13
5682,8.49
5694,7.79
5706,8.01
5718,8.88
5730,9.97
5742,10.86
5754,11.26
5766,11.07
5778,10.35
5789,9.21
5800,7.81
5812,6.25
5824,4.59
5836,2.8
5848,0.78
5860,-1.59
5872,-4.4
5884,-7.64
5896,-11.09
5908,-14.3
5920,-16.65
5932,-17.59
5944,-16.74
5956,-14.06
5968,-9.78
5979,-4.45
5990,1.33
6002,6.93
6014,11.83
6026,15.62
6038,18.02
6050,18.87
6062,18.23
6074,16.32
6086,13.59
6098,10.59
6110,7.84
6122,5.7
6134,4.3
6146,3.55
6158,3.26
6169,3.23
6180,3.28
6192,3.27
6204,3.12
6216,2.76
6228,2.16
6240,1.33
6252,0.31
6264,-0.91
6276,-2.37
6288,-4.22
6300,-6.64
6312,-9.74
6324,-13.44
6336,-17.43
6348,-21.12
6359,-23.83
6370,-24.88
6382,-23.83
6394,-20.62
6406,-15.61
6418,-9.47
6430,-3.07
6442,2.81
6454,7.6
6466,11.07
6478,13.19
6490,14.11
6502,13.98
6514,12.96
6526,11.22
6538,9.03
6549,6.75
6560,4.84
6572,3.64
6584,3.33
6596,3.76
6608,4.54
6620,5.21
6632,5.38
6644,4.92
6656,3.94
6668,2.71
6680,1.5
6692,0.46
6704,-0.44
6716,-1.4
6728,-2.67
6739,-4.51
6750,-7.07
6762,-10.35
6774,-14.16
6786,-18.06
6798,-21.36
6810,-23.27
6822,-23.08
6834,-20.48
6846,-15.66
6858,-9.3
6870,-2.37
6882,4.22
6894,9.78
6906,13.94
6918,16.62
6929,17.85
6940,17.76
6952,16.5
6964,14.34
6976,11.63
6988,8.82
7000,6.36
7012,4.62
7024,3.79
7036,3.84
7048,4.59
7060,5.68
7072,6.74
7084,7.39
7096,7.42
7108,6.79
7119,5.58
7130,4.0
7142,2.21
7154,0.31
7166,-1.72
7178,-3.97
7190,-6.54
7202,-9.47
7214,-12.74
7226,-16.11
7238,-19.19
7250,-21.45
7262,-22.31
7274,-21.35
7286,-18.46
7298,-13.86
7309,-8.11
7320,-1.93
7332,3.96
7344,9.0
7356,12.86
7368,15.35
7380,16.44
7392,16.14
7404,14.65
7416,12.28
7428,9.49
7440,6.8
7452,4.65
7464,3.31
7476,2.79
7488,2.96
7499,3.53
7510,4.24
7522,4.86
7534,5.22
7546,5.26
7558,4.99
7570,4.43
7582,3.61
7594,2.53
7606,1.13
7618,-0.62
7630,-2.78
7642,-5.32
7654,-8.23
7666,-11.43
7678,-14.78
7689,-18.0
7700,-20.64
7712,-22.12
7724,-21.92
7736,-19.72
7748,-15.6
7760,-10.02
7772,-3.71
7784,2.53
7796,8.06
7808,12.44
7820,15.46
7832,17.05
7844,17.26
7856,16.22
7868,14.23
7879,11.68
7890,9.08
7902,6.87
7914,5.36
7926,4.63
7938,4.6
7950,5.04
7962,5.71
7974,6.37
7986,6.83
7998,6.96
8010,6.67
8022,5.95
8034,4.86
8046,3.49
8058,1.94
8069,0.24
8080,-1.62
8092,-3.71
8104,-6.13
8116,-8.91
8128,-11.98
8140,-15.1
8152,-17.88
8164,-19.75
8176,-20.16
8188,-18.74
8200,-15.48
8212,-10.81
8224,-5.43
8236,-0.11
8248,4.56
8259,8.25
8270,10.91
8282,12.54
8294,13.12
8306,12.59
8318,10.97
8330,8.54
8342,5.8
8354,3.38
8366,1.78
8378,1.19
8390,1.44
8402,2.13
8414,2.85
8426,3.29
8438,3.36
8449,3.12
8460,2.62
8472,1.89
8484,0.91
8496,-0.39
8508,-2.02
8520,-3.96
8532,-6.17
8544,-8.68
8556,-11.5
8568,-14.57
8580,-17.65
8592,-20.25
8604,-21.79
8616,-21.73
8628,-19.81
8639,-16.19
8650,-11.33
8662,-5.89
8674,-0.44
8686,4.58
8698,8.89
8710,12.28
8722,14.52
8734,15.43
8746,14.93
8758,13.16
8770,10.5
8782,7.51
8794,4.71
8806,2.51
8818,1.11
8829,0.51
8840,0.53
8852,0.91
8864,1.38
8876,1.66
8888,1.58
8900,1.02
8912,0.03
8924,-1.3
8936,-2.81
8948,-4.42
8960,-6.11
8972,-8.03
8984,-10.37
8996,-13.29
9008,-16.76
9019,-20.48
9030,-23.85
9042,-26.13
9054,-26.6
9066,-24.82
9078,-20.8
9090,-14.96
9102,-8.07
9114,-1.01
9126,5.46
9138,10.81
9150,14.75
9162,17.18
9174,18.1
9186,17.63
9198,15.99
9209,13.52
9220,10.68
9232,8.0
9244,5.91
9256,4.65
9268,4.23
9280,4.4
9292,4.84
9304,5.18
9316,5.17
9328,4.73
9340,3.89
9352,2.73
9364,1.34
9376,-0.22
9388,-2.0
9399,-4.08
9410,-6.58
9422,-9.58
9434,-13.1
9446,-16.99
9458,-20.95
9470,-24.47
9482,-26.89
9494,-27.6
9506,-26.14
9518,-22.47
9530,-16.93
9542,-10.2
9554,-3.14
9566,3.5
9578,9.13
9589,13.39
9600,16.06
9612,17.05
9624,16.44
9636,14.47
9648,11.62
9660,8.5
9672,5.79
9684,3.98
9696,3.29
9708,3.57
9720,4.41
9732,5.33
9744,5.92
9756,5.96
9768,5.45
9779,4.53
9790,3.38
9802,2.14
9814,0.85
9826,-0.56
9838,-2.21
9850,-4.26
9862,-6.82
9874,-9.92
9886,-13.5
9898,-17.33
9910,-21.02
9922,-23.98
9934,-25.61
9946,-25.37
9958,-23.0
9969,-18.6
9980,-12.62
9992,-5.78
10004,1.12
10016,7.37
10028,12.42
10040,15.97
10052,17.93
10064,18.36
10076,17.44
10088,15.46
10100,12.82
10112,9.99
10124,7.45
10136,5.61
10148,4.74
10159,4.88
10170,5.81
10182,7.16
10194,8.44
10206,9.24
10218,9.31
10230,8.66
10242,7.46
10254,5.97
10266,4.37
10278,2.72
10290,0.92
10302,-1.21
10314,-3.86
10326,-7.1
10338,-10.81
10349,-14.69
10360,-18.24
10372,-20.88
10384,-21.99
10396,-21.14
10408,-18.15
10420,-13.21
10432,-6.86
10444,0.15
10456,7.02
10468,13.06
10480,17.79
10492,20.97
10504,22.48
10516,22.4
10528,20.94
10539,18.48
10550,15.54
10562,12.71
10574,10.5
10586,9.21
10598,8.91
10610,9.42
10622,10.38
10634,11.4
10646,12.16
10658,12.5
10670,12.37
10682,11.82
10694,10.91
10706,9.7
10718,8.17
10729,6.3
10740,4.04
10752,1.32
10764,-1.89
10776,-5.62
10788,-9.71
10800,-13.84
10812,-17.47
10824,-19.93
10836,-20.59
10848,-19.12
10860,-15.54
10872,-10.26
10884,-3.98
10896,2.56
10908,8.68
10919,13.85
10930,17.66
10942,19.84
10954,20.25
10966,18.95
10978,16.26
10990,12.74
11002,9.1
11014,6.06
11026,4.15
11038,3.54
11050,4.04
11062,5.16
11074,6.32
11086,7.01
11098,7.01
11109,6.29
11120,5.08
11132,3.66
11144,2.26
11156,0.95
11168,-0.39
11180,-2.01
11192,-4.18
11204,-7.1
11216,-10.75
11228,-14.85
11240,-18.91
11252,-22.27
11264,-24.23
11276,-24.25
11288,-22.07
11299,-17.81
11310,-11.97
11322,-5.29
11334,1.42
11346,7.44
11358,12.24
11370,15.51
11382,17.14
11394,17.13
11406,15.66
11418,13.06
11430,9.85
11442,6.63
11454,4.01
11466,2.38
11478,1.84
11489,2.17
11500,2.93
11512,3.62
11524,3.88
11536,3.55
11548,2.76
11560,1.72
11572,0.66
11584,-0.39
11596,-1.54
11608,-3.05
11620,-5.15
11632,-7.94
11644,-11.34
11656,-15.1
11668,-18.85
11679,-22.12
11690,-24.35
11702,-25.01
11714,-23.72
11726,-20.38
11738,-15.26
11750,-8.97
11762,-2.27
11774,4.1
11786,9.58
11798,13.85
11810,16.75
11822,18.22
11834,18.27
11846,16.99
11858,14.6
11869,11.5
11880,8.2
11892,5.28
11904,3.2
11916,2.2
11928,2.24
11940,3.0
11952,4.01
11964,4.78
11976,4.96
11988,4.43
12000,3.28
12012,1.76
12024,0.09
12036,-1.62
12048,-3.44
12059,-5.55
12070,-8.12
12082,-11.24
12094,-14.88
12106,-18.78
12118,-22.45
12130,-25.27
12142,-26.55
12154,-25.73
12166,-22.58
12178,-17.28
12190,-10.46
12202,-3.04
12214,4.03
12226,9.99
12238,14.44
12249,17.27
12260,18.59
12272,18.64
12284,17.66
12296,15.92
12308,13.77
12320,11.64
12332,9.97
12344,9.1
12356,9.18
12368,10.09
12380,11.45
12392,12.85
12404,13.93
12416,14.52
12428,14.67
12439,14.53
12450,14.23
12462,13.8
12474,13.16
12486,12.2
12498,10.88
12510,9.27
12522,7.48
12534,5.63
12546,3.82
12558,2.16
12570,0.91
12582,0.55
12594,1.76
12606,5.21
12618,11.26
12629,19.73
12640,29.9
12652,40.7
12664,51.07
12676,60.32
12688,68.25
12700,75.02
12712,80.92
12724,86.11
12736,90.53
12748,94.06
12760,96.68
12772,98.62
12784,100.34
12796,102.24
12808,104.45
12819,106.64
12830,108.15
12842,108.25
12854,106.52
12866,103.01
12878,98.19
12890,92.69
12902,86.94
12914,81.06
12926,74.92
12938,68.47
12950,61.79
12962,55.02
12974,47.93
12986,39.57
12998,28.36
13009,12.69
13020,-8.16
13032,-33.28
13044,-60.11
13056,-85.18
13068,-105.37
13080,-118.95
13092,-126.04
13104,-128.15
13116,-127.41
13128,-125.7
13140,-124.36
13152,-124.23
13164,-125.89
13176,-129.64
13188,-135.33
13199,-142.14
13210,-148.6
13222,-152.94
13234,-153.69
13246,-150.18
13258,-142.7
13270,-132.34
13282,-120.53
13294,-108.66
13306,-97.78
13318,-88.4
13330,-80.58
13342,-74.0
13354,-68.16
13366,-62.69
13378,-57.57
13389,-53.17
13400,-50.11
13412,-48.87
13424,-49.56
13436,-51.69
13448,-54.38
13460,-56.58
13472,-57.49
13484,-56.67
13496,-54.01
13508,-49.68
13520,-43.98
13532,-37.25
13544,-29.88
13556,-22.26
13568,-14.8
13579,-7.88
13590,-1.83
13602,3.12
13614,6.87
13626,9.47
13638,11.17
13650,12.34
13662,13.39
13674,14.69
13686,16.46
13698,18.76
13710,21.52
13722,24.54
13734,27.52
13746,30.1
13758,31.91
13769,32.62
13780,32.08
13792,30.34
13804,27.71
13816,24.63
13828,21.57
13840,18.86
13852,16.61
13864,14.64
13876,12.6
13888,10.16
13900,7.23
13912,4.05
13924,1.28
13936,-0.22
13948,0.3
13959,3.17
13970,8.19
13982,14.62
13994,21.51
14006,27.95
14018,33.25
14030,37.04
14042,39.09
14054,39.3
14066,37.67
14078,34.4
14090,29.94
14102,25.03
14114,20.5
14126,16.98
14138,14.74
14149,13.56
14160,12.98
14172,12.47
14184,11.7
14196,10.59
14208,9.29
14220,7.95
14232,6.67
14244,5.43
14256,4.13
14268,2.65
14280,0.86
14292,-1.42
14304,-4.38
14316,-8.14
14328,-12.61
14339,-17.39
14350,-21.71
14362,-24.65
14374,-25.35
14386,-23.36
14398,-18.79
14410,-12.27
14422,-4.78
14434,2.72
14446,9.44
14458,14.91
14470,18.9
14482,21.3
14494,22.06
14506,21.23
14518,18.99
14529,15.77
14540,12.21
14552,9.03
14564,6.82
14576,5.8
14588,5.84
14600,6.5
14612,7.24
14624,7.63
14636,7.46
14648,6.77
14660,5.74
14672,4.6
14684,3.49
14696,2.41
14708,1.2
14719,-0.37
14730,-2.57
14742,-5.56
14754,-9.33
14766,-13.65
14778,-18.03
14790,-21.75
14802,-24.02
14814,-24.15
14826,-21.8
14838,-17.03
14850,-10.39
14862,-2.69
14874,5.14
14886,12.3
14898,18.23
14909,22.51
14920,24.93
14932,25.4
14944,24.01
14956,21.13
14968,17.37
14980,13.51
14992,10.32
15004,8.3
15016,7.6
15028,7.96
15040,8.9
15052,9.86
15064,10.47
15076,10.54
15088,10.12
15099,9.32
15110,8.24
15122,6.88
15134,5.21
15146,3.18
15158,0.79
15170,-1.9
15182,-4.89
15194,-8.18
15206,-11.74
15218,-15.35
15230,-18.55
15242,-20.65
15254,-20.91
15266,-18.86
15278,-14.52
15289,-8.38
15300,-1.27
15312,5.98
15324,12.68
15336,18.4
15348,22.85
15360,25.82
15372,27.11
15384,26.66
15396,24.65
15408,21.53
15420,17.98
15432,14.67
15444,12.09
15456,10.42
15468,9.61
15479,9.38
15490,9.46
15502,9.6
15514,9.62
15526,9.4
15538,8.84
15550,7.88
15562,6.49
15574,4.69
15586,2.48
15598,-0.07
15610,-2.96
15622,-6.16
15634,-9.69
15646,-13.48
15658,-17.3
15669,-20.76
15680,-23.29
15692,-24.28
15704,-23.24
15716,-19.98
15728,-14.68
15740,-7.91
15752,-0.5
15764,6.69
15776,12.96
15788,17.83
15800,21.08
15812,22.65
15824,22.57
15836,20.98
15848,18.15
15859,14.55
15870,10.82
15882,7.66
15894,5.61
15906,4.87
15918,5.22
15930,6.17
15942,7.17
15954,7.79
15966,7.85
15978,7.42
15990,6.61
16002,5.51
16014,4.12
16026,2.38
16038,0.24
16049,-2.3
16060,-5.21
16072,-8.47
16084,-12.08
16096,-15.88
16108,-19.55
16120,-22.46
16132,-23.87
16144,-23.14
16156,-19.97
16168,-14.59
16180,-7.69
16192,-0.19
16204,7.03
16216,13.27
16228,18.1
16239,21.25
16250,22.61
16262,22.13
16274,20.01
16286,16.68
16298,12.81
16310,9.14
16322,6.33
16334,4.73
16346,4.39
16358,5.05
16370,6.26
16382,7.53
16394,8.44
16406,8.73
16418,8.36
16429,7.37
16440,5.91
16452,4.02
16464,1.69
16476,-1.19
16488,-4.7
16500,-8.83
16512,-13.35
16524,-17.84
16536,-21.76
16548,-24.52
16560,-25.61
16572,-24.7
16584,-21.67
16596,-16.71
16608,-10.24
16619,-2.88
16630,4.68
16642,11.74
16654,17.66
16666,21.96
16678,24.36
16690,24.81
16702,23.55
16714,21.02
16726,17.81
16738,14.48
16750,11.47
16762,9.05
16774,7.28
16786,6.08
16798,5.29
16809,4.71
16820,4.1
16832,3.28
16844,2.12
16856,0.57
16868,-1.26
16880,-3.22
16892,-5.22
16904,-7.24
16916,-9.49
16928,-12.2
16940,-15.58
16952,-19.56
16964,-23.76
16976,-27.46
16988,-29.82
16999,-30.16
17010,-28.1
17022,-23.76
17034,-17.67
17046,-10.6
17058,-3.38
17070,3.28
17082,8.84
17094,12.96
17106,15.39
17118,16.03
17130,14.91
17142,12.29
17154,8.69
17166,4.8
17178,1.35
17189,-1.11
17200,-2.34
17212,-2.43
17224,-1.74
17236,-0.76
17248,0.1
17260,0.61
17272,0.67
17284,0.33
17296,-0.3
17308,-1.15
17320,-2.22
17332,-3.59
17344,-5.42
17356,-7.88
17368,-11.08
17379,-14.95
17390,-19.18
17402,-23.17
17414,-26.16
17426,-27.4
17438,-26.38
17450,-22.97
17462,-17.47
17474,-10.48
17486,-2.83
17498,4.64
17510,11.21
17522,16.29
17534,19.55
17546,20.87
17558,20.38
17569,18.38
17580,15.36
17592,11.89
17604,8.57
17616,5.91
17628,4.24
17640,3.66
17652,3.97
17664,4.76
17676,5.58
17688,6.03
17700,5.92
17712,5.29
17724,4.33
17736,3.25
17748,2.13
17759,0.88
17770,-0.71
17782,-2.85
17794,-5.72
17806,-9.29
17818,-13.38
17830,-17.55
17842,-21.26
17854,-23.84
17866,-24.63
17878,-23.14
17890,-19.2
17902,-13.09
17914,-5.47
17926,2.68
17938,10.39
17949,16.87
17960,21.65
17972,24.59
17984,25.76
17996,25.36
18008,23.65
18020,20.98
18032,17.84
18044,14.86
18056,12.64
18068,11.6
18080,11.77
18092,12.79
18104,14.11
18116,15.18
18128,15.7
18139,15.67
18150,15.34
18162,14.98
18174,14.75
18186,14.59
18198,14.24
18210,13.42
18222,11.92
18234,9.7
18246,6.82
18258,3.47
18270,-0.07
18282,-3.34
18294,-5.73
18306,-6.55
18318,-5.19
18329,-1.36
18340,4.71
18352,12.23
18364,19.94
18376,26.34
18388,30.06
18400,30.16
18412,26.34
18424,19.19
18436,10.06
18448,0.92
18460,-6.12
18472,-9.35
18484,-8.0
18496,-2.47
18508,5.8
18519,14.77
18530,22.53
18542,27.89
18554,30.61
18566,31.32
18578,30.95
18590,30.24
18602,29.27
18614,27.57
18626,24.35
18638,19.04
18650,11.63
18662,2.72
18674,-6.73
18686,-15.72
18698,-23.53
18709,-29.89
18720,-35.05
18732,-39.89
18744,-45.81
18756,-54.32
18768,-66.28
18780,-80.77
18792,-94.64
18804,-102.85
18816,-100.17
18828,-83.27
18840,-52.48
18852,-12.05
18864,31.21
18876,70.2
18888,99.78
18899,117.78
18910,124.59
18922,121.93
18934,111.59
18946,95.02
18958,73.53
18970,48.94
18982,23.68
18994,0.47
19006,-18.53
19018,-32.41
19030,-41.76
19042,-48.24
19054,-53.8
19066,-59.79
19078,-66.54
19089,-73.4
19100,-79.17
19112,-82.75
19124,-83.51
19136,-81.38
19148,-76.72
19160,-69.97
19172,-61.54
19184,-51.74
19196,-41.02
19208,-30.04
19220,-19.8
19232,-11.5
19244,-6.39
19256,-5.42
19268,-9.08
19279,-17.22
19290,-29.01
19302,-43.01
19314,-57.35
19326,-70.15
19338,-79.91
19350,-85.93
19362,-88.41
19374,-88.27
19386,-86.69
19398,-84.72
19410,-83.02
19422,-81.92
19434,-81.75
19446,-83.08
19458,-86.79
19469,-93.7
19480,-104.15
19492,-117.47
19504,-131.81
19516,-144.46
19528,-152.4
19540,-153.08
19552,-144.96
19564,-127.74
19576,-102.19
19588,-69.89
19600,-32.81
19612,6.87
19624,46.87
19636,84.81
19648,118.3
19659,145.23
19670,164.01
19682,173.98
19694,175.51
19706,169.94
19718,159.28
19730,145.75
19742,131.24
19754,117.05
19766,103.87
19778,91.98
19790,81.78
19802,74.0
19814,69.84
19826,70.54
19838,76.91
19849,88.77
19860,104.76
19872,122.49
19884,139.23
19896,152.56
19908,160.97
19920,164.1
19932,162.58
19944,157.65
19956,150.74
19968,143.19
19980,136.16
19992,130.64
20004,127.4
20016,126.9
20028,129.0
20039,132.54
20050,135.29
20062,134.16
20074,126.11
20086,109.16
20098,83.33
20110,50.77
20122,15.17
20134,-19.47
20146,-50.2
20158,-75.86
20170,-97.1
20182,-115.54
20194,-132.85
20206,-149.86
20218,-166.42
20229,-181.75
20240,-194.99
20252,-205.72
20264,-213.96
20276,-220.08
20288,-224.43
20300,-227.28
20312,-228.73
20324,-228.88
20336,-227.88
20348,-225.82
20360,-222.64
20372,-217.92
20384,-210.89
20396,-200.62
20408,-186.28
20419,-167.31
20430,-143.64
20442,-115.73
20454,-84.61
20466,-51.82
20478,-19.27
20490,11.2
20502,38.21
20514,61.36
20526,81.23
20538,99.11
20550,116.32
20562,133.55
20574,150.51
20586,166.06
20598,178.77
20609,187.55
20620,192.1
20632,192.97
20644,191.16
20656,187.68
20668,183.17
20680,177.84
20692,171.7
20704,164.79
20716,157.31
20728,149.41
20740,140.93
20752,131.14
20764,118.9
20776,103.19
20788,83.73
20799,61.39
20810,38.1
20822,16.33
20834,-1.78
20846,-14.95
20858,-23.07
20870,-26.87
20882,-27.49
20894,-26.1
20906,-23.71
20918,-21.23
20930,-19.45
20942,-19.03
20954,-20.28
20966,-22.99
20978,-26.45
20989,-29.68
