seconds,BVP
8,-15.26
20,-12.8
32,-9.43
44,-5.56
56,-1.69
68,1.77
80,4.63
91,6.9
102,8.79
114,10.44
126,11.9
138,13.06
150,13.73
162,13.85
174,13.52
186,12.97
198,12.49
210,12.28
222,12.32
234,12.47
246,12.5
258,12.27
270,11.78
281,11.09
292,10.28
304,9.39
316,8.37
328,7.13
340,5.66
352,4.03
364,2.39
376,0.87
388,-0.46
400,-1.68
412,-2.93
424,-4.31
436,-5.86
448,-7.44
460,-8.86
471,-9.95
482,-10.66
494,-11.05
506,-11.32
518,-11.72
530,-12.47
542,-13.65
554,-15.14
566,-16.53
578,-17.28
590,-16.84
602,-14.94
614,-11.7
626,-7.64
638,-3.48
650,0.22
661,3.16
672,5.44
684,7.29
696,8.94
708,10.42
720,11.6
732,12.3
744,12.45
756,12.12
768,11.51
780,10.83
792,10.22
804,9.72
816,9.35
828,9.04
840,8.75
851,8.44
862,8.04
874,7.48
886,6.76
898,5.88
910,4.93
922,3.99
934,3.1
946,2.27
958,1.45
970,0.58
982,-0.38
994,-1.4
1006,-2.48
1018,-3.56
1030,-4.63
1041,-5.68
1052,-6.69
1064,-7.67
1076,-8.65
1088,-9.65
1100,-10.75
1112,-11.97
1124,-13.27
1136,-14.5
1148,-15.42
1160,-15.76
1172,-15.28
1184,-13.86
1196,-11.54
1208,-8.53
1220,-5.18
1231,-1.88
1242,1.05
1254,3.38
1266,5.04
1278,6.08
1290,6.6
1302,6.75
1314,6.63
1326,6.32
1338,5.9
1350,5.43
1362,5.01
1374,4.74
1386,4.67
1398,4.81
1410,5.06
1421,5.27
1432,5.27
1444,4.98
1456,4.41
1468,3.64
1480,2.83
1492,2.04
1504,1.3
1516,0.52
1528,-0.36
1540,-1.33
1552,-2.34
1564,-3.29
1576,-4.11
1588,-4.84
1600,-5.63
1611,-6.68
1622,-8.16
1634,-10.03
1646,-12.02
1658,-13.69
1670,-14.54
1682,-14.22
1694,-12.61
1706,-9.94
1718,-6.67
1730,-3.36
1742,-0.46
1754,1.79
1766,3.39
1778,4.47
1790,5.21
1801,5.72
1812,6.05
1824,6.16
1836,6.07
1848,5.83
1860,5.54
1872,5.25
1884,4.97
1896,4.65
1908,4.2
1920,3.61
1932,2.94
1944,2.35
1956,1.92
1968,1.67
1980,1.47
1991,1.19
2002,0.71
2014,0.05
2026,-0.71
2038,-1.47
2050,-2.22
2062,-2.98
2074,-3.85
2086,-4.91
2098,-6.18
2110,-7.65
2122,-9.2
2134,-10.63
2146,-11.65
2158,-11.91
2170,-11.18
2181,-9.41
2192,-6.79
2204,-3.75
2216,-0.75
2228,1.84
2240,3.89
2252,5.44
2264,6.65
2276,7.64
2288,8.43
2300,8.96
2312,9.1
2324,8.77
2336,7.99
2348,6.91
2360,5.79
2371,4.91
2382,4.46
2394,4.44
2406,4.69
2418,4.93
2430,4.9
2442,4.49
2454,3.71
2466,2.67
2478,1.47
2490,0.18
2502,-1.16
2514,-2.49
2526,-3.7
2538,-4.72
2550,-5.56
2561,-6.32
2572,-7.16
2584,-8.19
2596,-9.4
2608,-10.59
2620,-11.46
2632,-11.71
2644,-11.17
2656,-9.82
2668,-7.84
2680,-5.49
2692,-3.06
2704,-0.76
2716,1.27
2728,3.0
2740,4.41
2751,5.47
2762,6.15
2774,6.4
2786,6.25
2798,5.78
2810,5.19
2822,4.68
2834,4.42
2846,4.43
2858,4.62
2870,4.82
2882,4.85
2894,4.58
2906,4.03
2918,3.3
2930,2.54
2941,1.9
2952,1.43
2964,1.06
2976,0.66
2988,0.06
3000,-0.82
3012,-1.99
3024,-3.4
3036,-4.96
3048,-6.6
3060,-8.22
3072,-9.65
3084,-10.62
3096,-10.83
3108,-10.07
3120,-8.32
3131,-5.8
3142,-2.91
3154,-0.09
3166,2.35
3178,4.24
3190,5.6
3202,6.45
3214,6.88
3226,6.93
3238,6.71
3250,6.36
3262,6.04
3274,5.83
3286,5.73
3298,5.62
3310,5.38
3321,4.91
3332,4.24
3344,3.46
3356,2.67
3368,1.92
3380,1.2
3392,0.45
3404,-0.38
3416,-1.34
3428,-2.42
3440,-3.62
3452,-4.95
3464,-6.44
3476,-8.12
3488,-10.01
3500,-12.11
3511,-14.4
3522,-16.8
3534,-19.12
3546,-21.07
3558,-22.27
3570,-22.38
3582,-21.2
3594,-18.76
3606,-15.33
3618,-11.3
3630,-7.1
3642,-3.01
3654,0.82
3666,4.38
3678,7.68
3690,10.72
3701,13.38
3712,15.56
3724,17.15
3736,18.14
3748,18.6
3760,18.65
3772,18.4
3784,17.97
3796,17.39
3808,16.67
3820,15.75
3832,14.55
3844,12.99
3856,11.04
3868,8.72
3880,6.12
3891,3.4
3902,0.76
3914,-1.58
3926,-3.5
3938,-4.96
3950,-6.02
3962,-6.87
3974,-7.72
3986,-8.75
3998,-9.97
4010,-11.2
4022,-12.11
4034,-12.28
4046,-11.43
4058,-9.5
4070,-6.77
4081,-3.72
4092,-0.89
4104,1.35
4116,2.87
4128,3.79
4140,4.32
4152,4.69
4164,4.97
4176,5.12
4188,5.04
4200,4.72
4212,4.24
4224,3.76
4236,3.41
4248,3.25
4260,3.21
4271,3.16
4282,2.99
4294,2.65
4306,2.18
4318,1.66
4330,1.14
4342,0.64
4354,0.15
4366,-0.38
4378,-0.95
4390,-1.6
4402,-2.35
4414,-3.23
4426,-4.25
4438,-5.38
4450,-6.53
4461,-7.62
4472,-8.54
4484,-9.2
4496,-9.47
4508,-9.19
4520,-8.22
4532,-6.49
4544,-4.1
4556,-1.34
4568,1.4
4580,3.74
4592,5.49
4604,6.62
4616,7.27
4628,7.59
4640,7.74
4651,7.77
4662,7.7
4674,7.56
4686,7.36
4698,7.12
4710,6.83
4722,6.48
4734,6.04
4746,5.49
4758,4.79
4770,3.91
4782,2.83
4794,1.57
4806,0.24
4818,-1.04
4830,-2.17
4841,-3.13
4852,-4.03
4864,-4.98
4876,-6.06
4888,-7.25
4900,-8.44
4912,-9.58
4924,-10.65
4936,-11.66
4948,-12.55
4960,-13.13
4972,-13.08
4984,-12.1
4996,-10.13
5008,-7.4
5020,-4.4
5031,-1.65
5042,0.51
5054,1.99
5066,2.97
5078,3.66
5090,4.2
5102,4.6
5114,4.8
5126,4.75
5138,4.47
5150,4.07
5162,3.69
5174,3.43
5186,3.29
5198,3.19
5210,3.04
5221,2.76
5232,2.33
5244,1.81
5256,1.23
5268,0.65
5280,0.07
5292,-0.55
5304,-1.25
5316,-2.1
5328,-3.17
5340,-4.48
5352,-6.01
5364,-7.66
5376,-9.31
5388,-10.75
5400,-11.78
5411,-12.19
5422,-11.84
5434,-10.69
5446,-8.79
5458,-6.29
5470,-3.44
5482,-0.54
5494,2.13
5506,4.38
5518,6.11
5530,7.34
5542,8.17
5554,8.66
5566,8.82
5578,8.64
5590,8.15
5601,7.44
5612,6.69
5624,6.06
5636,5.63
5648,5.31
5660,4.93
5672,4.28
5684,3.3
5696,2.12
5708,0.98
5720,0.1
5732,-0.44
5744,-0.73
5756,-0.97
5768,-1.36
5780,-2.0
5791,-2.93
5802,-4.13
5814,-5.53
5826,-7.03
5838,-8.42
5850,-9.39
5862,-9.59
5874,-8.79
5886,-7.0
5898,-4.48
5910,-1.65
5922,1.08
5934,3.48
5946,5.48
5958,7.14
5970,8.51
5981,9.56
5992,10.24
6004,10.48
6016,10.29
6028,9.77
6040,9.07
6052,8.32
6064,7.64
6076,7.01
6088,6.38
6100,5.65
6112,4.78
6124,3.83
6136,2.92
6148,2.17
6160,1.61
6171,1.13
6182,0.53
6194,-0.38
6206,-1.67
6218,-3.28
6230,-5.02
6242,-6.72
6254,-8.24
6266,-9.55
6278,-10.64
6290,-11.46
6302,-11.89
6314,-11.78
6326,-10.98
6338,-9.45
6350,-7.29
6361,-4.69
6372,-1.93
6384,0.75
6396,3.14
6408,5.16
6420,6.78
6432,8.03
6444,8.92
6456,9.48
6468,9.68
6480,9.57
6492,9.18
6504,8.62
6516,7.96
6528,7.27
6540,6.58
6551,5.89
6562,5.2
6574,4.52
6586,3.88
6598,3.28
6610,2.69
6622,2.06
6634,1.34
6646,0.52
6658,-0.37
6670,-1.25
6682,-2.0
6694,-2.52
6706,-2.7
6718,-2.52
6730,-2.04
6741,-1.43
6752,-0.92
6764,-0.76
6776,-1.06
6788,-1.75
6800,-2.52
6812,-2.92
6824,-2.51
6836,-0.94
6848,1.86
6860,5.71
6872,10.18
6884,14.72
6896,18.77
6908,21.98
6920,24.29
6931,25.85
6942,26.97
6954,27.93
6966,28.81
6978,29.57
6990,30.08
7002,30.25
7014,30.13
7026,29.86
7038,29.56
7050,29.23
7062,28.81
7074,28.13
7086,27.08
7098,25.65
7110,23.93
7121,22.04
7132,20.08
7144,18.06
7156,15.93
7168,13.58
7180,10.95
7192,8.0
7204,4.79
7216,1.35
7228,-2.29
7240,-6.15
7252,-10.24
7264,-14.52
7276,-18.88
7288,-23.17
7300,-27.26
7311,-31.14
7322,-34.91
7334,-38.71
7346,-42.66
7358,-46.75
7370,-50.77
7382,-54.36
7394,-57.06
7406,-58.5
7418,-58.44
7430,-56.88
7442,-54.1
7454,-50.56
7466,-46.78
7478,-43.22
7490,-40.09
7501,-37.44
7512,-35.16
7524,-33.1
7536,-31.16
7548,-29.25
7560,-27.27
7572,-25.09
7584,-22.56
7596,-19.56
7608,-16.12
7620,-12.35
7632,-8.49
7644,-4.81
7656,-1.53
7668,1.22
7680,3.45
7691,5.24
7702,6.73
7714,8.01
7726,9.1
7738,9.9
7750,10.3
7762,10.27
7774,9.92
7786,9.48
7798,9.18
7810,9.13
7822,9.27
7834,9.36
7846,9.16
7858,8.54
7870,7.54
7881,6.36
7892,5.18
7904,4.14
7916,3.27
7928,2.58
7940,2.13
7952,2.07
7964,2.55
7976,3.64
7988,5.27
8000,7.18
8012,9.02
8024,10.5
8036,11.44
8048,11.89
8060,12.03
8071,12.03
8082,12.0
8094,11.94
8106,11.77
8118,11.44
8130,10.97
8142,10.47
8154,10.05
8166,9.78
8178,9.62
8190,9.46
8202,9.16
8214,8.64
8226,7.88
8238,6.92
8250,5.83
8261,4.69
8272,3.58
8284,2.59
8296,1.82
8308,1.3
8320,0.99
8332,0.75
8344,0.4
8356,-0.17
8368,-0.98
8380,-1.93
8392,-2.87
8404,-3.73
8416,-4.45
8428,-5.06
8440,-5.53
8451,-5.69
8462,-5.34
8474,-4.31
8486,-2.59
8498,-0.41
8510,1.85
8522,3.8
8534,5.21
8546,6.06
8558,6.52
8570,6.78
8582,6.99
8594,7.19
8606,7.4
8618,7.64
8630,7.97
8641,8.47
8652,9.15
8664,9.95
8676,10.75
8688,11.43
8700,11.94
8712,12.27
8724,12.44
8736,12.45
8748,12.3
8760,11.97
8772,11.52
8784,11.02
8796,10.6
8808,10.32
8820,10.15
8831,9.99
8842,9.7
8854,9.16
8866,8.31
8878,7.18
8890,5.83
8902,4.4
8914,2.99
8926,1.73
8938,0.72
8950,0.05
8962,-0.23
8974,-0.1
8986,0.39
8998,1.11
9010,1.9
9021,2.58
9032,3.04
9044,3.23
9056,3.15
9068,2.86
9080,2.38
9092,1.73
9104,0.86
9116,-0.23
9128,-1.48
9140,-2.73
9152,-3.83
9164,-4.61
9176,-5.06
9188,-5.23
9200,-5.29
9211,-5.38
9222,-5.53
9234,-5.72
9246,-5.87
9258,-5.97
9270,-6.11
9282,-6.41
9294,-7.01
9306,-7.89
9318,-8.92
9330,-9.86
9342,-10.51
9354,-10.82
9366,-10.88
9378,-10.86
9390,-10.9
9401,-11.05
9412,-11.24
9424,-11.31
9436,-11.08
9448,-10.43
9460,-9.27
9472,-7.56
9484,-5.38
9496,-2.88
9508,-0.33
9520,1.99
9532,3.84
9544,5.17
9556,6.08
9568,6.78
9580,7.46
9591,8.21
9602,8.95
9614,9.58
9626,10.04
9638,10.41
9650,10.81
9662,11.33
9674,11.94
9686,12.42
9698,12.52
9710,12.08
9722,11.16
9734,9.96
9746,8.76
9758,7.73
9770,6.86
9781,5.99
9792,4.91
9804,3.51
9816,1.78
9828,-0.17
9840,-2.23
9852,-4.35
9864,-6.52
9876,-8.75
9888,-10.97
9900,-13.08
9912,-14.94
9924,-16.43
9936,-17.49
9948,-18.11
9960,-18.35
9971,-18.26
9982,-17.93
9994,-17.44
10006,-16.9
10018,-16.42
10030,-16.03
10042,-15.72
10054,-15.41
10066,-15.01
10078,-14.46
10090,-13.79
10102,-13.08
10114,-12.47
10126,-12.03
10138,-11.83
10150,-11.9
10161,-12.22
10172,-12.73
10184,-13.38
10196,-14.11
10208,-14.84
10220,-15.54
10232,-16.2
10244,-16.85
10256,-17.57
10268,-18.4
10280,-19.39
10292,-20.53
10304,-21.73
10316,-22.83
10328,-23.64
10340,-23.96
10351,-23.67
10362,-22.79
10374,-21.43
10386,-19.78
10398,-18.06
10410,-16.47
10422,-15.1
10434,-13.88
10446,-12.59
10458,-10.95
10470,-8.75
10482,-5.95
10494,-2.72
10506,0.62
10518,3.69
10530,6.25
10541,8.19
10552,9.6
10564,10.6
10576,11.3
10588,11.75
10600,12.01
10612,12.18
10624,12.34
10636,12.55
10648,12.86
10660,13.26
10672,13.75
10684,14.34
10696,15.05
10708,16.04
10720,17.41
10731,19.1
10742,20.89
10754,22.51
10766,23.83
10778,24.79
10790,25.45
10802,25.86
10814,26.34
10826,27.11
10838,28.14
10850,29.17
10862,29.93
10874,30.26
10886,30.14
10898,29.61
10910,28.74
10921,28.14
10932,28.3
10944,29.31
10956,30.71
10968,31.83
10980,32.11
10992,31.42
11004,30.02
11016,28.52
11028,28.24
11040,30.04
11052,33.87
11064,38.72
11076,43.4
11088,47.21
11100,50.21
11111,52.83
11122,51.46
11134,43.69
11146,29.63
11158,12.1
11170,-5.53
11182,-21.22
11194,-34.29
11206,-44.87
11218,-53.39
11230,-60.14
11242,-64.34
11254,-64.96
11266,-61.41
11278,-54.09
11290,-44.31
11301,-33.8
11312,-24.1
11324,-16.16
11336,-10.18
11348,-5.33
11360,-0.83
11372,3.56
11384,7.28
11396,9.76
11408,10.4
11420,9.26
11432,6.96
11444,4.31
11456,2.26
11468,1.22
11480,0.84
11491,0.21
11502,-1.63
11514,-5.17
11526,-10.09
11538,-15.52
11550,-20.35
11562,-23.5
11574,-24.38
11586,-23.02
11598,-20.11
11610,-16.72
11622,-13.99
11634,-12.61
11646,-12.45
11658,-12.71
11670,-11.36
11681,-6.49
11692,2.96
11704,16.36
11716,31.33
11728,44.57
11740,53.21
11752,55.91
11764,52.81
11776,45.48
11788,35.98
11800,26.12
11812,16.99
11824,9.06
11836,2.62
11848,-1.99
11860,-4.54
11871,-5.64
11882,-6.24
11894,-7.3
11906,-9.44
11918,-12.97
11930,-17.78
11942,-23.22
11954,-28.25
11966,-31.77
11978,-33.72
11990,-34.55
12002,-35.02
12014,-35.9
12026,-37.81
12038,-40.87
12050,-44.51
12061,-47.63
12072,-45.73
12084,-36.82
12096,-22.78
12108,-7.86
12120,4.49
12132,12.93
12144,17.63
12156,19.32
12168,18.76
12180,16.61
12192,12.96
12204,8.19
12216,3.22
12228,-0.89
12240,-3.47
12251,-4.49
12262,-4.36
12274,-3.61
12286,-2.71
12298,-2.39
12310,-3.41
12322,-5.45
12334,-7.82
12346,-9.84
12358,-10.99
12370,-11.0
12382,-9.79
12394,-7.47
12406,-4.63
12418,-1.84
12430,0.64
12441,2.73
12452,4.43
12464,5.76
12476,6.73
12488,7.37
12500,7.69
12512,7.58
12524,6.95
12536,5.9
12548,4.68
12560,3.48
12572,2.48
12584,1.73
12596,1.21
12608,0.85
12620,0.52
12631,0.12
12642,-0.37
12654,-0.98
12666,-1.77
12678,-2.79
12690,-3.99
12702,-5.18
12714,-6.05
12726,-6.27
12738,-5.59
12750,-3.96
12762,-1.5
12774,1.56
12786,4.92
12798,8.3
12810,11.41
12821,13.97
12832,15.78
12844,16.81
12856,17.22
12868,17.34
12880,17.53
12892,18.03
12904,18.91
12916,20.03
12928,21.11
12940,21.86
12952,22.08
12964,21.69
12976,20.78
12988,19.61
13000,18.53
13011,17.92
13022,18.15
13034,19.43
13046,21.73
13058,24.7
13070,27.67
13082,29.71
13094,29.96
13106,27.85
13118,23.44
13130,17.43
13142,10.89
13154,4.85
13166,-0.1
13178,-4.01
13190,-7.37
13201,-10.78
13212,-14.59
13224,-18.71
13236,-22.76
13248,-26.33
13260,-29.24
13272,-31.51
13284,-33.18
13296,-34.21
13308,-34.48
13320,-33.85
13332,-32.37
13344,-30.33
13356,-28.18
13368,-26.37
13380,-25.06
13391,-24.13
13402,-23.2
13414,-22.01
13426,-20.38
13438,-18.31
13450,-15.82
13462,-12.97
13474,-9.94
13486,-6.98
13498,-4.4
13510,-2.5
13522,-1.57
13534,-1.68
13546,-2.58
13558,-3.9
13570,-5.36
13581,-7.07
13592,-9.38
13604,-12.79
13616,-16.58
13628,-19.87
13640,-21.85
13652,-22.18
13664,-20.84
13676,-17.86
13688,-13.39
13700,-7.62
13712,-0.87
13724,6.42
13736,13.56
13748,19.9
13760,24.93
13771,28.3
13782,30.36
13794,30.95
13806,30.05
13818,27.77
13830,24.47
13842,20.49
13854,16.26
13866,12.25
13878,8.92
13890,6.66
13902,5.7
13914,6.17
13926,8.1
13938,11.46
13950,15.7
13961,20.23
13972,24.45
13984,27.9
13996,30.27
14008,31.37
14020,31.16
14032,29.71
14044,27.12
14056,23.55
14068,19.25
14080,14.54
14092,9.76
14104,5.26
14116,1.24
14128,-2.17
14140,-4.93
14151,-7.04
14162,-8.57
14174,-9.55
14186,-9.96
14198,-9.77
14210,-8.98
14222,-7.65
14234,-5.94
14246,-4.03
14258,-2.11
14270,-0.3
14282,1.41
14294,3.11
14306,4.93
14318,6.92
14330,9.05
14341,11.19
14352,13.18
14364,14.93
14376,16.41
14388,17.63
14400,18.69
14412,19.69
14424,20.76
14436,22.04
14448,23.55
14460,25.19
14472,26.66
14484,27.53
14496,27.37
14508,25.94
14520,23.3
14531,19.86
14542,16.24
14554,13.11
14566,10.98
14578,10.04
14590,10.11
14602,10.68
14614,11.07
14626,10.63
14638,8.89
14650,5.75
14662,1.42
14674,-3.63
14686,-8.81
14698,-13.65
14710,-17.81
14721,-21.26
14732,-24.23
14744,-27.13
14756,-30.39
14768,-34.3
14780,-38.85
14792,-43.71
14804,-48.43
14816,-52.54
14828,-55.69
14840,-57.73
14852,-58.56
14864,-58.14
14876,-56.49
14888,-53.84
14900,-50.64
14911,-47.48
14922,-44.81
14934,-42.62
14946,-40.4
14958,-37.34
14970,-32.79
14982,-26.72
14994,-19.81
15006,-13.23
15018,-8.11
15030,-5.08
15042,-4.12
15054,-4.67
15066,-5.98
15078,-7.46
15090,-8.75
15101,-9.76
15112,-10.48
15124,-10.89
15136,-11.0
15148,-10.84
15160,-10.49
15172,-10.01
15184,-9.36
15196,-8.36
15208,-6.77
15220,-4.42
15232,-1.27
15244,2.44
15256,6.35
15268,10.0
15280,13.06
15291,15.34
15302,16.85
15314,17.69
15326,18.02
15338,18.0
15350,17.75
15362,17.34
15374,16.82
15386,16.21
15398,15.53
15410,14.81
15422,14.09
15434,13.4
15446,12.8
15458,12.3
15470,11.89
15481,11.53
15492,11.21
15504,10.9
15516,10.56
15528,10.12
15540,9.49
15552,8.59
15564,7.41
15576,6.01
15588,4.54
15600,3.14
15612,1.94
15624,0.95
15636,0.17
15648,-0.52
15660,-1.2
15671,-2.0
15682,-2.97
15694,-4.16
15706,-5.55
15718,-7.1
15730,-8.7
15742,-10.17
15754,-11.29
15766,-11.77
15778,-11.38
15790,-9.96
15802,-7.57
15814,-4.5
15826,-1.15
15838,2.02
15850,4.7
15861,6.77
15872,8.28
15884,9.34
15896,10.03
15908,10.39
15920,10.41
15932,10.14
15944,9.69
15956,9.22
15968,8.86
15980,8.67
15992,8.59
16004,8.53
16016,8.37
16028,8.1
16040,7.77
16051,7.47
16062,7.26
16074,7.13
16086,6.95
16098,6.57
16110,5.85
16122,4.78
16134,3.42
16146,1.94
16158,0.48
16170,-0.89
16182,-2.17
16194,-3.42
16206,-4.64
16218,-5.8
16230,-6.87
16241,-7.9
16252,-9.0
16264,-10.27
16276,-11.66
16288,-12.88
16300,-13.47
16312,-13.01
16324,-11.33
16336,-8.63
16348,-5.35
16360,-2.03
16372,0.95
16384,3.44
16396,5.44
16408,7.0
16420,8.17
16431,8.95
16442,9.37
16454,9.56
16466,9.68
16478,9.84
16490,10.03
16502,10.15
16514,10.08
16526,9.8
16538,9.4
16550,8.98
16562,8.6
16574,8.22
16586,7.74
16598,7.08
16610,6.23
16621,5.3
16632,4.47
16644,3.83
16656,3.27
16668,2.6
16680,1.67
16692,0.47
16704,-0.85
16716,-2.09
16728,-3.13
16740,-3.94
16752,-4.76
16764,-6.0
16776,-8.0
16788,-10.83
16800,-14.28
16811,-17.9
16822,-21.17
16834,-23.52
16846,-24.4
16858,-23.53
16870,-20.96
16882,-17.01
16894,-12.17
16906,-6.96
16918,-1.84
16930,2.38
16942,4.78
16954,5.04
16966,3.73
16978,1.89
16990,0.41
17001,-0.12
17012,0.57
17024,2.4
17036,5.42
17048,9.06
17060,12.65
17072,15.62
17084,17.6
17096,18.53
17108,18.62
17120,18.25
17132,17.84
17144,16.61
17156,14.52
17168,11.95
17180,9.39
17191,7.28
17202,5.85
17214,5.08
17226,4.73
17238,4.48
17250,4.01
17262,3.31
17274,2.52
17286,1.76
17298,1.13
17310,0.62
17322,0.22
17334,-0.02
17346,0.03
17358,0.52
17370,1.68
17381,3.56
17392,5.99
17404,8.55
17416,10.86
17428,12.62
17440,13.81
17452,14.63
17464,15.28
17476,15.84
17488,16.07
17500,15.49
17512,13.7
17524,10.65
17536,6.68
17548,2.46
17560,-1.3
17571,-4.11
17582,-5.76
17594,-6.37
17606,-6.19
17618,-5.43
17630,-4.2
17642,-2.74
17654,-1.32
17666,-0.21
17678,0.4
17690,0.59
17702,0.59
17714,0.75
17726,1.34
17738,2.48
17750,3.89
17761,5.16
17772,5.87
17784,5.79
17796,4.95
17808,3.45
17820,1.5
17832,-0.86
17844,-3.25
17856,-5.58
17868,-8.06
17880,-10.97
17892,-14.72
17904,-19.13
17916,-23.79
17928,-28.44
17940,-33.09
17951,-37.0
17962,-39.94
17974,-41.82
17986,-42.49
17998,-41.71
18010,-39.16
18022,-34.67
18034,-28.34
18046,-20.52
18058,-11.81
18070,-3.08
18082,4.9
18094,11.65
18106,17.02
18118,21.08
18130,23.96
18141,25.75
18152,26.44
18164,26.04
18176,24.51
18188,21.98
18200,18.78
18212,15.36
18224,12.14
18236,9.39
18248,7.14
18260,5.29
18272,3.72
18284,2.29
18296,0.99
18308,-0.08
18320,-0.81
18331,-1.13
18342,-1.16
18354,-1.09
18366,-1.15
18378,-1.51
18390,-2.26
18402,-3.34
18414,-4.62
18426,-5.9
18438,-7.01
18450,-7.83
18462,-8.34
18474,-8.63
18486,-8.88
18498,-9.32
18510,-10.14
18521,-11.38
18532,-12.93
18544,-14.46
18556,-15.56
18568,-15.83
18580,-15.02
18592,-13.06
18604,-10.13
18616,-6.6
18628,-2.87
18640,0.69
18652,3.82
18664,6.44
18676,8.57
18688,10.29
18700,11.64
18711,12.68
18722,13.43
18734,13.93
18746,14.29
18758,14.61
18770,14.98
18782,15.35
18794,15.56
18806,15.4
18818,14.72
18830,13.5
18842,11.93
18854,10.29
18866,8.83
18878,7.68
18890,6.76
18901,5.9
18912,4.89
18924,3.64
18936,2.21
18948,0.7
18960,-0.76
18972,-2.09
18984,-3.31
18996,-4.5
19008,-5.66
19020,-6.75
19032,-7.67
19044,-8.31
19056,-8.65
19068,-8.82
19080,-8.99
19091,-9.37
19102,-10.03
19114,-10.91
19126,-11.9
19138,-12.88
19150,-13.87
19162,-14.98
19174,-16.35
19186,-18.04
19198,-19.96
19210,-21.93
19222,-23.73
19234,-25.24
19246,-26.39
19258,-27.13
19270,-27.32
19281,-26.7
19292,-24.99
19304,-22.0
19316,-17.73
19328,-12.4
19340,-6.39
19352,-0.11
19364,6.14
19376,12.15
19388,17.87
19400,23.28
19412,28.4
19424,33.27
19436,37.82
19448,41.9
19460,45.19
19471,47.32
19482,48.02
19494,47.3
19506,45.56
19518,43.42
19530,41.51
19542,40.13
19554,39.09
19566,37.83
19578,35.73
19590,32.42
19602,27.94
19614,22.78
19626,17.67
19638,13.41
19650,10.6
19661,9.44
19672,9.61
19684,10.27
19696,10.27
19708,8.72
19720,5.36
19732,0.7
19744,-4.01
19756,-7.35
19768,-8.28
19780,-6.33
19792,-1.69
19804,4.65
19816,10.7
19828,13.69
19840,10.92
19851,1.17
19862,-14.17
19874,-30.97
19886,-43.88
19898,-48.78
19910,-44.74
19922,-34.47
19934,-22.77
19946,-14.03
19958,-10.21
19970,-10.63
19982,-13.09
19994,-15.8
20006,-18.31
20018,-21.31
20030,-25.46
20041,-30.41
20052,-34.7
20064,-36.64
20076,-35.34
20088,-31.17
20100,-25.54
20112,-20.31
20124,-16.78
20136,-15.26
20148,-15.14
20160,-15.3
20172,-14.64
20184,-12.63
20196,-9.4
20208,-5.62
20220,-2.23
20231,0.05
20242,0.93
20254,0.68
20266,-0.02
20278,-0.28
20290,0.57
20302,2.78
20314,5.96
20326,9.22
20338,11.59
20350,12.37
20362,11.48
20374,9.43
20386,7.1
20398,5.29
20410,4.49
20421,4.71
20432,5.65
20444,6.91
20456,8.16
20468,9.14
20480,9.64
20492,9.58
20504,9.07
20516,8.41
20528,8.0
20540,8.18
20552,8.98
20564,10.08
20576,10.91
20588,10.93
20600,9.99
20611,8.4
20622,6.77
20634,5.68
20646,5.41
20658,5.89
20670,6.76
20682,7.53
20694,7.94
20706,8.17
20718,8.85
20730,10.7
20742,14.12
20754,18.97
20766,24.58
20778,30.08
20790,34.51
20801,37.39
20812,38.84
20824,39.39
20836,39.43
20848,38.9
20860,37.46
20872,34.88
20884,31.19
20896,26.02
20908,18.9
20920,9.58
20932,-1.64
20944,-13.69
20956,-24.89
20968,-33.33
20980,-37.42
20991,-36.82
