seconds,BVP
6,85.83
18,70.48
30,53.3
42,36.44
54,21.47
66,9.02
78,-1.19
90,-9.83
102,-17.48
114,-24.21
126,-29.66
137,-33.35
148,-35.14
160,-35.29
172,-34.51
184,-33.49
196,-32.74
208,-32.41
220,-32.38
232,-32.46
244,-32.55
256,-32.66
268,-32.93
280,-33.41
292,-34.1
304,-34.84
316,-35.37
327,-35.46
338,-34.98
350,-33.99
362,-32.72
374,-31.45
386,-30.35
398,-29.41
410,-28.41
422,-27.09
434,-25.24
446,-22.91
458,-20.3
470,-17.7
482,-15.31
494,-13.17
506,-11.24
517,-9.49
528,-8.0
540,-6.96
552,-6.64
564,-7.18
576,-8.6
588,-10.69
600,-13.1
612,-15.42
624,-17.3
636,-18.56
648,-19.2
660,-19.4
672,-19.38
684,-19.35
696,-19.38
707,-19.44
718,-19.56
730,-19.91
742,-20.88
754,-22.95
766,-26.49
778,-31.46
790,-37.41
802,-43.53
814,-48.97
826,-53.2
838,-56.2
850,-58.48
862,-60.82
874,-63.96
886,-68.26
897,-73.59
908,-79.38
920,-84.84
932,-89.14
944,-91.67
956,-92.25
968,-91.32
980,-89.97
992,-89.73
1004,-92.16
1016,-98.17
1028,-107.41
1040,-118.15
1052,-127.63
1064,-132.88
1076,-131.69
1087,-123.14
1098,-107.66
1110,-86.54
1122,-61.34
1134,-33.51
1146,-4.35
1158,24.87
1170,52.7
1182,77.58
1194,98.15
1206,113.55
1218,123.66
1230,129.13
1242,131.09
1254,130.75
1266,129.04
1277,126.4
1288,122.8
1300,117.96
1312,111.67
1324,103.97
1336,95.23
1348,85.99
1360,76.73
1372,67.67
1384,58.74
1396,49.76
1408,40.6
1420,31.34
1432,22.2
1444,13.45
1456,5.27
1467,-2.36
1478,-9.57
1490,-16.59
1502,-23.66
1514,-30.85
1526,-38.08
1538,-45.0
1550,-51.15
1562,-56.06
1574,-59.44
1586,-61.32
1598,-62.0
1610,-61.9
1622,-61.39
1634,-60.62
1646,-59.59
1657,-58.29
1668,-56.85
1680,-55.66
1692,-55.24
1704,-56.05
1716,-58.25
1728,-61.64
1740,-65.8
1752,-70.36
1764,-75.27
1776,-80.81
1788,-87.39
1800,-95.29
1812,-104.45
1824,-114.45
1836,-124.77
1847,-135.08
1858,-145.45
1870,-156.28
1882,-168.01
1894,-180.83
1906,-194.57
1918,-208.79
1930,-222.98
1942,-236.65
1954,-249.18
1966,-259.44
1978,-265.5
1990,-264.65
2002,-254.0
2014,-231.36
2026,-196.02
2037,-149.15
2048,-93.48
2060,-32.55
2072,30.39
2084,92.91
2096,153.8
2108,212.87
2120,270.6
2132,327.99
2144,386.55
2156,448.32
2168,515.31
2180,588.08
2192,664.08
2204,736.77
2216,796.57
2227,833.52
2238,840.85
2250,817.59
2262,768.87
2274,703.68
2286,631.22
2298,557.87
2310,486.09
2322,415.47
2334,344.82
2346,273.85
2358,203.44
2370,134.71
2382,67.97
2394,2.52
2406,-62.57
2417,-127.14
2428,-189.27
2440,-245.58
2452,-292.57
2464,-328.29
2476,-353.17
2488,-369.61
2500,-380.48
2512,-387.57
2524,-390.8
2536,-388.85
2548,-380.37
2560,-365.13
2572,-344.28
2584,-319.8
2596,-293.4
2607,-266.0
2618,-237.89
2630,-209.44
2642,-181.61
2654,-156.0
2666,-134.29
2678,-117.42
2690,-105.17
2702,-96.26
2714,-89.05
2726,-82.22
2738,-75.22
2750,-68.28
2762,-62.14
2774,-57.57
2786,-55.13
2797,-55.12
2808,-57.64
2820,-62.82
2832,-70.84
2844,-81.8
2856,-95.42
2868,-110.77
2880,-126.37
2892,-140.44
2904,-151.44
2916,-158.47
2928,-161.48
2940,-161.09
2952,-158.33
2964,-154.13
2976,-149.06
2987,-143.08
2998,-135.59
3010,-125.76
3022,-112.92
3034,-97.06
3046,-78.95
3058,-59.99
3070,-41.73
3082,-25.35
3094,-11.34
3106,0.48
3118,10.66
3130,19.76
3142,28.27
3154,36.54
3166,44.94
3177,53.83
3188,63.47
3200,73.9
3212,84.83
3224,95.77
3236,106.29
3248,116.18
3260,125.43
3272,134.2
3284,142.61
3296,150.71
3308,158.51
3320,165.99
3332,173.2
3344,180.15
3356,186.84
3367,193.23
3378,199.25
3390,204.86
3402,210.06
3414,214.78
3426,218.93
3438,222.4
3450,225.18
3462,227.52
3474,229.9
3486,232.66
3498,235.52
3510,237.05
3522,234.7
3534,225.3
3546,206.09
3557,175.72
3568,134.8
3580,85.79
3592,32.31
3604,-21.84
3616,-73.55
3628,-120.88
3640,-163.14
3652,-200.62
3664,-234.15
3676,-264.63
3688,-292.65
3700,-318.29
3712,-341.05
3724,-360.04
3736,-374.24
3747,-382.79
3758,-385.14
3770,-381.23
3782,-371.55
3794,-357.08
3806,-339.14
3818,-318.9
3830,-296.91
3842,-272.92
3854,-246.05
3866,-215.38
3878,-180.55
3890,-142.13
3902,-101.5
3914,-60.58
3926,-21.56
3937,13.21
3948,41.42
3960,61.08
3972,71.25
3984,72.59
3996,67.54
4008,59.67
4020,52.55
4032,48.51
4044,48.07
4056,50.22
4068,53.33
4080,56.07
4092,57.95
4104,59.22
4116,60.45
4127,62.08
4138,64.24
4150,66.76
4162,69.35
4174,71.73
4186,73.7
4198,75.16
4210,76.08
4222,76.48
4234,76.34
4246,75.6
4258,74.15
4270,71.91
4282,68.96
4294,65.55
4306,62.05
4317,58.78
4328,55.92
4340,53.41
4352,51.01
4364,48.5
4376,45.77
4388,42.9
4400,40.09
4412,37.54
4424,35.37
4436,33.56
4448,31.96
4460,30.33
4472,28.36
4484,25.82
4496,22.59
4507,18.78
4518,14.71
4530,10.82
4542,7.5
4554,4.92
4566,2.99
4578,1.5
4590,0.3
4602,-0.53
4614,-0.67
4626,0.23
4638,2.28
4650,5.25
4662,8.45
4674,10.99
4686,12.09
4697,11.28
4708,8.62
4720,4.58
4732,-0.11
4744,-4.77
4756,-8.97
4768,-12.73
4780,-16.4
4792,-20.49
4804,-25.27
4816,-30.6
4828,-35.85
4840,-40.18
4852,-42.87
4864,-43.67
4876,-42.9
4887,-41.23
4898,-39.35
4910,-37.61
4922,-35.99
4934,-34.12
4946,-31.46
4958,-27.12
4970,-19.65
4982,-6.93
4994,13.57
5006,44.09
5018,85.71
5030,137.94
5042,198.92
5054,266.31
5066,338.07
5077,412.83
5088,489.11
5100,564.08
5112,632.66
5124,687.86
5136,722.63
5148,732.27
5160,716.34
5172,678.81
5184,626.42
5196,566.09
5208,502.82
5220,438.85
5232,374.5
5244,309.61
5256,244.67
5267,180.9
5278,119.48
5290,60.76
5302,4.22
5314,-50.78
5326,-103.92
5338,-153.32
5350,-195.87
5362,-228.18
5374,-247.7
5386,-253.37
5398,-245.57
5410,-225.87
5422,-196.85
5434,-162.1
5446,-126.34
5457,-94.92
5468,-72.8
5480,-63.1
5492,-66.06
5504,-79.11
5516,-98.1
5528,-119.1
5540,-139.89
5552,-160.29
5564,-181.65
5576,-205.61
5588,-233.17
5600,-264.29
5612,-298.16
5624,-333.56
5636,-369.15
5647,-403.29
5658,-433.54
5670,-456.46
5682,-467.92
5694,-464.13
5706,-443.18
5718,-406.11
5730,-357.21
5742,-302.99
5754,-250.41
5766,-204.79
5778,-168.66
5790,-141.57
5802,-121.19
5814,-104.69
5826,-90.0
5837,-76.19
5848,-63.3
5860,-51.82
5872,-42.33
5884,-35.34
5896,-31.31
5908,-30.52
5920,-33.05
5932,-38.57
5944,-46.24
5956,-54.74
5968,-62.5
5980,-67.98
5992,-70.03
6004,-68.07
6016,-62.22
6027,-53.24
6038,-42.23
6050,-30.28
6062,-18.17
6074,-6.25
6086,5.41
6098,16.76
6110,27.56
6122,37.28
6134,45.27
6146,51.11
6158,54.82
6170,56.91
6182,58.11
6194,59.09
6206,60.15
6217,61.2
6228,61.95
6240,62.19
6252,61.97
6264,61.55
6276,61.21
6288,61.03
6300,60.81
6312,60.17
6324,58.8
6336,56.69
6348,54.15
6360,51.76
6372,50.07
6384,49.33
6396,49.49
6407,50.21
6418,51.07
6430,51.64
6442,51.71
6454,51.16
6466,50.02
6478,48.51
6490,47.09
6502,46.45
6514,47.4
6526,50.59
6538,56.22
6550,63.82
6562,72.26
6574,80.08
6586,85.85
6597,88.55
6608,87.76
6620,83.6
6632,76.43
6644,66.58
6656,54.09
6668,38.76
6680,20.46
6692,-0.51
6704,-23.14
6716,-45.67
6728,-66.03
6740,-82.34
6752,-93.39
6764,-98.84
6776,-99.0
6787,-94.56
6798,-86.24
6810,-74.8
6822,-61.15
6834,-46.52
6846,-32.4
6858,-20.26
6870,-11.11
6882,-5.27
6894,-2.26
6906,-1.11
6918,-0.75
6930,-0.38
6942,0.37
6954,1.55
6966,3.01
6977,4.66
6988,6.52
7000,8.61
7012,10.79
7024,12.72
7036,13.82
7048,13.57
7060,11.68
7072,8.28
7084,3.82
7096,-1.1
7108,-6.03
7120,-10.86
7132,-15.71
7144,-20.89
7156,-26.65
7167,-32.94
7178,-39.38
7190,-45.19
7202,-49.41
7214,-51.22
7226,-50.43
7238,-47.72
7250,-44.57
7262,-42.72
7274,-43.45
7286,-46.9
7298,-52.03
7310,-57.16
7322,-60.84
7334,-62.43
7346,-62.15
7357,-60.59
7368,-58.1
7380,-54.44
7392,-48.98
7404,-41.15
7416,-30.63
7428,-17.37
7440,-1.35
7452,17.52
7464,39.01
7476,62.15
7488,84.93
7500,104.66
7512,118.94
7524,126.53
7536,127.93
7547,124.96
7558,119.83
7570,114.08
7582,108.1
7594,101.3
7606,92.81
7618,82.21
7630,69.87
7642,56.74
7654,43.83
7666,31.72
7678,20.33
7690,9.14
7702,-2.44
7714,-14.64
7726,-27.13
7737,-39.11
7748,-49.58
7760,-57.54
7772,-62.22
7784,-63.14
7796,-60.0
7808,-52.7
7820,-41.4
7832,-26.44
7844,-8.48
7856,11.55
7868,32.52
7880,53.23
7892,72.57
7904,89.71
7916,104.32
7927,116.56
7938,126.95
7950,136.09
7962,144.4
7974,152.02
7986,158.79
7998,164.52
8010,169.08
8022,172.48
8034,174.72
8046,175.73
8058,175.22
8070,172.86
8082,168.41
8094,161.96
8106,153.95
8117,145.01
8128,135.7
8140,126.19
8152,116.25
8164,105.19
8176,92.25
8188,76.81
8200,58.7
8212,38.28
8224,16.31
8236,-6.23
8248,-28.47
8260,-49.76
8272,-69.81
8284,-88.51
8296,-105.86
8307,-121.91
8318,-136.66
8330,-150.15
8342,-162.38
8354,-173.28
8366,-182.51
8378,-189.47
8390,-193.31
8402,-193.25
8414,-188.91
8426,-180.52
8438,-169.0
8450,-155.61
8462,-141.62
8474,-127.97
8486,-115.13
8497,-103.17
8508,-91.93
8520,-81.17
8532,-70.58
8544,-59.79
8556,-48.49
8568,-36.48
8580,-23.87
8592,-11.13
8604,1.06
8616,12.01
8628,21.27
8640,28.75
8652,34.73
8664,39.72
8676,44.12
8687,48.19
8698,51.91
8710,55.02
8722,57.2
8734,58.1
8746,57.53
8758,55.46
8770,52.04
8782,47.54
8794,42.29
8806,36.61
8818,30.74
8830,24.86
8842,19.05
8854,13.39
8866,7.94
8877,2.74
8888,-2.2
8900,-6.92
8912,-11.58
8924,-16.4
8936,-21.6
8948,-27.32
8960,-33.46
8972,-39.7
8984,-45.46
8996,-50.06
9008,-52.8
9020,-53.12
9032,-50.81
9044,-45.95
9056,-39.01
9067,-30.7
9078,-21.79
9090,-12.99
9102,-4.77
9114,2.65
9126,9.27
9138,15.26
9150,20.87
9162,26.34
9174,31.88
9186,37.65
9198,43.73
9210,50.12
9222,56.83
9234,63.76
9246,70.7
9257,77.33
9268,83.14
9280,87.6
9292,90.32
9304,91.24
9316,90.61
9328,88.89
9340,86.4
9352,83.15
9364,78.83
9376,73.02
9388,65.5
9400,56.44
9412,46.28
9424,35.55
9436,24.58
9447,13.57
9458,2.64
9470,-7.88
9482,-17.43
9494,-25.37
9506,-31.3
9518,-35.26
9530,-37.73
9542,-39.47
9554,-41.05
9566,-42.61
9578,-43.77
9590,-43.82
9602,-42.03
9614,-37.95
9626,-31.63
9637,-23.54
9648,-14.5
9660,-5.4
9672,3.0
9684,10.19
9696,15.94
9708,20.24
9720,23.18
9732,24.92
9744,25.56
9756,25.1
9768,23.44
9780,20.4
9792,15.81
9804,9.63
9816,1.91
9827,-7.32
9838,-18.19
9850,-31.05
9862,-46.34
9874,-64.34
9886,-84.89
9898,-107.25
9910,-130.16
9922,-152.21
9934,-172.07
9946,-188.8
9958,-201.9
9970,-211.29
9982,-217.28
9994,-220.44
10006,-221.58
10017,-221.5
10028,-220.89
10040,-220.27
10052,-219.97
10064,-220.32
10076,-221.7
10088,-224.57
10100,-229.28
10112,-235.89
10124,-243.94
10136,-252.61
10148,-260.92
10160,-268.03
10172,-273.48
10184,-277.27
10196,-279.68
10207,-281.01
10218,-281.32
10230,-280.08
10242,-276.06
10254,-267.49
10266,-252.39
10278,-229.09
10290,-196.65
10302,-155.06
10314,-105.33
10326,-49.43
10338,9.89
10350,69.2
10362,124.77
10374,173.05
10386,211.19
10397,237.69
10408,252.54
10420,257.37
10432,254.38
10444,245.65
10456,232.77
10468,216.94
10480,199.06
10492,179.86
10504,159.93
10516,139.76
10528,120.06
10540,101.35
10552,83.94
10564,68.01
10576,53.76
10587,41.21
10598,29.95
10610,19.08
10622,7.37
10634,-5.46
10646,-19.62
10658,-35.25
10670,-52.24
10682,-70.04
10694,-87.81
10706,-104.7
10718,-119.84
10730,-132.44
10742,-140.02
10754,-142.05
10766,-140.75
10777,-139.67
10788,-141.28
10800,-145.73
10812,-150.93
10824,-153.32
10836,-149.43
10848,-132.9
10860,-102.01
10872,-60.47
10884,-14.7
10896,30.76
10908,74.49
10920,117.25
10932,160.76
10944,206.45
10956,261.87
10967,329.96
10978,407.84
10990,490.05
11002,574.16
11014,660.28
11026,747.88
11038,833.08
11050,907.51
11062,969.36
11074,1012.89
11086,1029.67
11098,1013.31
11110,966.15
11122,896.86
11134,815.13
11146,727.82
11157,584.98
11168,381.51
11180,156.93
11192,-37.54
11204,-178.01
11216,-267.11
11228,-321.42
11240,-359.51
11252,-390.51
11264,-418.09
11276,-434.64
11288,-438.12
11300,-426.04
11312,-405.6
11324,-383.95
11336,-365.93
11347,-354.1
11358,-348.9
11370,-349.62
11382,-347.74
11394,-338.54
11406,-323.59
11418,-309.15
11430,-299.13
11442,-294.06
11454,-292.26
11466,-291.42
11478,-290.24
11490,-284.25
11502,-272.26
11514,-257.11
11526,-244.12
11537,-236.34
11548,-234.12
11560,-236.26
11572,-240.96
11584,-246.86
11596,-250.8
11608,-251.15
11620,-248.34
11632,-244.67
11644,-241.53
11656,-238.67
11668,-234.21
11680,-225.0
11692,-207.63
11704,-178.78
11716,-137.35
11727,-84.85
11738,-24.7
11750,39.83
11762,106.22
11774,172.17
11786,234.33
11798,287.23
11810,323.69
11822,336.7
11834,321.99
11846,279.93
11858,215.98
11870,139.06
11882,58.74
11894,-17.29
11906,-84.4
11917,-140.37
11928,-183.96
11940,-213.54
11952,-226.99
11964,-222.54
11976,-200.16
11988,-162.18
12000,-112.92
12012,-57.49
12024,-0.4
12036,55.07
12048,106.55
12060,151.47
12072,186.42
12084,207.43
12096,211.08
12107,196.1
12118,164.21
12130,119.87
12142,68.98
12154,17.31
12166,-30.54
12178,-71.36
12190,-102.94
12202,-123.66
12214,-132.42
12226,-128.94
12238,-114.11
12250,-89.95
12262,-59.16
12274,-24.59
12286,11.19
12297,45.76
12308,76.72
12320,101.76
12332,119.09
12344,128.07
12356,129.57
12368,125.76
12380,119.28
12392,112.32
12404,105.99
12416,100.39
12428,95.08
12440,89.65
12452,84.01
12464,78.36
12476,72.87
12487,67.56
12498,62.29
12510,56.86
12522,51.21
12534,45.39
12546,39.62
12558,34.13
12570,28.96
12582,23.99
12594,18.99
12606,13.79
12618,8.58
12630,3.97
12642,0.88
12654,0.21
12666,2.39
12677,7.15
12688,13.56
12700,20.38
12712,26.45
12724,31.15
12736,34.34
12748,36.3
12760,37.39
12772,37.87
12784,37.89
12796,37.6
12808,37.17
12820,36.89
12832,36.98
12844,37.56
12856,38.53
12867,39.68
12878,40.73
12890,41.45
12902,41.76
12914,41.67
12926,41.29
12938,40.75
12950,40.18
12962,39.56
12974,38.84
12986,37.83
12998,36.32
13010,34.14
13022,31.22
13034,27.73
13046,24.08
13057,20.88
13068,18.86
13080,18.65
13092,20.6
13104,24.7
13116,30.6
13128,37.75
13140,45.57
13152,53.68
13164,61.84
13176,70.02
13188,78.28
13200,86.68
13212,95.33
13224,104.44
13236,114.22
13247,124.67
13258,135.31
13270,144.91
13282,151.51
13294,152.72
13306,146.36
13318,131.06
13330,106.78
13342,74.94
13354,38.21
13366,0.05
13378,-35.73
13390,-65.27
13402,-85.04
13414,-92.24
13426,-85.47
13437,-65.38
13448,-35.02
13460,0.59
13472,35.52
13484,64.42
13496,83.86
13508,92.85
13520,92.54
13532,85.21
13544,73.17
13556,58.09
13568,40.99
13580,22.65
13592,4.0
13604,-13.81
13616,-29.73
13627,-43.29
13638,-54.77
13650,-65.02
13662,-74.96
13674,-84.98
13686,-94.72
13698,-103.2
13710,-109.41
13722,-112.91
13734,-114.15
13746,-114.4
13758,-115.21
13770,-117.69
13782,-122.09
13794,-127.74
13806,-133.42
13817,-137.91
13828,-140.55
13840,-141.36
13852,-140.92
13864,-140.04
13876,-139.37
13888,-139.27
13900,-139.83
13912,-141.02
13924,-142.82
13936,-145.19
13948,-147.97
13960,-150.76
13972,-152.99
13984,-154.11
13996,-153.75
14007,-151.89
14018,-148.73
14030,-144.37
14042,-138.48
14054,-130.17
14066,-118.12
14078,-101.04
14090,-78.26
14102,-50.04
14114,-17.68
14126,16.83
14138,51.28
14150,83.7
14162,112.6
14174,136.97
14186,156.21
14197,170.05
14208,178.52
14220,182.01
14232,181.34
14244,177.64
14256,172.19
14268,166.1
14280,160.1
14292,154.44
14304,148.91
14316,143.12
14328,136.84
14340,130.2
14352,123.89
14364,118.87
14376,116.04
14387,115.75
14398,117.59
14410,120.55
14422,123.43
14434,125.33
14446,125.96
14458,125.6
14470,124.84
14482,124.35
14494,124.73
14506,126.54
14518,130.32
14530,136.43
14542,144.86
14554,155.01
14566,165.79
14577,176.05
14588,185.12
14600,193.27
14612,201.59
14624,211.52
14636,224.06
14648,239.2
14660,255.91
14672,272.54
14684,287.39
14696,299.2
14708,307.26
14720,311.3
14732,311.2
14744,306.92
14756,298.46
14767,285.94
14778,269.6
14790,249.62
14802,225.98
14814,198.4
14826,166.52
14838,130.21
14850,89.81
14862,46.25
14874,0.91
14886,-44.73
14898,-89.41
14910,-132.33
14922,-173.15
14934,-211.98
14946,-249.19
14957,-285.36
14968,-321.22
14980,-357.54
14992,-394.89
15004,-433.14
15016,-470.99
15028,-505.74
15040,-533.74
15052,-551.38
15064,-556.34
15076,-548.61
15088,-530.49
15100,-505.86
15112,-478.73
15124,-451.97
15136,-426.7
15147,-402.65
15158,-379.05
15170,-355.49
15182,-332.32
15194,-310.2
15206,-289.3
15218,-268.75
15230,-246.67
15242,-220.9
15254,-190.17
15266,-154.85
15278,-117.0
15290,-79.53
15302,-44.92
15314,-14.39
15326,12.15
15337,35.54
15348,56.34
15360,74.36
15372,88.78
15384,98.79
15396,104.33
15408,106.32
15420,106.28
15432,105.49
15444,104.36
15456,102.14
15468,97.4
15480,88.84
15492,76.13
15504,60.33
15516,43.72
15527,29.28
15538,19.93
15550,17.77
15562,23.65
15574,36.92
15586,55.53
15598,76.36
15610,95.93
15622,111.15
15634,120.09
15646,122.46
15658,119.49
15670,113.37
15682,106.33
15694,99.87
15706,94.25
15717,88.6
15728,81.51
15740,71.78
15752,59.08
15764,44.33
15776,29.56
15788,17.23
15800,9.28
15812,6.3
15824,7.17
15836,9.46
15848,10.52
15860,8.74
15872,4.4
15884,-0.42
15896,-2.69
15907,0.1
15918,8.73
15930,21.76
15942,36.02
15954,47.96
15966,54.98
15978,56.28
15990,52.72
16002,46.02
16014,37.67
16026,28.31
16038,17.78
16050,5.82
16062,-7.24
16074,-20.0
16086,-30.2
16097,-35.41
16108,-33.76
16120,-24.46
16132,-7.97
16144,14.03
16156,38.95
16168,63.7
16180,85.33
16192,101.75
16204,112.14
16216,116.81
16228,116.58
16240,112.02
16252,103.04
16264,89.03
16276,69.64
16287,45.44
16298,18.11
16310,-10.0
16322,-36.65
16334,-60.24
16346,-79.99
16358,-95.74
16370,-107.59
16382,-115.81
16394,-120.85
16406,-123.57
16418,-125.11
16430,-126.72
16442,-129.43
16454,-133.82
16466,-139.95
16477,-147.41
16488,-155.43
16500,-163.07
16512,-169.3
16524,-173.13
16536,-173.64
16548,-170.26
16560,-162.79
16572,-151.63
16584,-137.68
16596,-122.29
16608,-106.82
16620,-92.26
16632,-78.99
16644,-66.93
16656,-55.85
16667,-45.81
16678,-37.29
16690,-30.95
16702,-27.14
16714,-25.49
16726,-25.0
16738,-24.42
16750,-22.84
16762,-20.02
16774,-16.3
16786,-12.1
16798,-7.42
16810,-1.67
16822,6.12
16834,16.81
16846,30.62
16857,46.98
16868,64.78
16880,82.66
16892,99.43
16904,114.15
16916,126.04
16928,134.38
16940,138.56
16952,138.26
16964,133.51
16976,124.64
16988,112.12
17000,96.34
17012,77.58
17024,56.34
17036,33.63
17047,11.19
17058,-8.74
17070,-23.97
17082,-33.09
17094,-35.99
17106,-33.95
17118,-29.34
17130,-24.87
17142,-22.89
17154,-24.77
17166,-30.75
17178,-40.11
17190,-51.59
17202,-64.14
17214,-77.37
17226,-91.73
17237,-108.35
17248,-128.43
17260,-152.54
17272,-180.1
17284,-209.11
17296,-236.36
17308,-257.94
17320,-270.03
17332,-269.64
17344,-255.24
17356,-227.03
17368,-186.8
17380,-137.4
17392,-82.09
17404,-24.04
17416,33.88
17427,89.1
17438,139.24
17450,182.16
17462,216.23
17474,240.74
17486,256.13
17498,263.84
17510,265.86
17522,264.12
17534,259.98
17546,254.15
17558,246.86
17570,238.27
17582,228.7
17594,218.7
17606,208.91
17617,199.68
17628,191.0
17640,182.42
17652,173.27
17664,162.94
17676,151.11
17688,137.89
17700,123.72
17712,109.19
17724,94.74
17736,80.47
17748,66.09
17760,51.06
17772,34.88
17784,17.31
17796,-1.34
17807,-20.27
17818,-38.23
17830,-53.84
17842,-65.97
17854,-73.92
17866,-77.51
17878,-76.83
17890,-71.99
17902,-63.01
17914,-49.87
17926,-32.93
17938,-13.21
17950,7.51
17962,27.08
17974,43.47
17986,55.28
17997,61.93
18008,63.47
18020,60.41
18032,53.57
18044,44.12
18056,33.67
18068,24.1
18080,17.05
18092,13.38
18104,12.82
18116,14.02
18128,15.06
18140,14.09
18152,9.75
18164,1.45
18176,-10.72
18187,-26.09
18198,-43.6
18210,-62.04
18222,-80.23
18234,-97.28
18246,-112.75
18258,-126.57
18270,-138.81
18282,-149.46
18294,-158.38
18306,-165.34
18318,-170.23
18330,-173.22
18342,-174.77
18354,-175.49
18366,-175.82
18377,-175.75
18388,-174.71
18400,-171.51
18412,-164.58
18424,-152.37
18436,-133.95
18448,-109.53
18460,-80.63
18472,-49.95
18484,-20.58
18496,4.8
18508,24.67
18520,39.03
18532,49.25
18544,57.71
18556,67.1
18567,79.78
18578,97.02
18590,118.47
18602,141.93
18614,163.64
18626,179.35
18638,185.7
18650,181.71
18662,169.4
18674,153.34
18686,139.07
18698,131.06
18710,131.12
18722,138.02
18734,148.44
18746,158.52
18757,165.4
18768,167.85
18780,165.94
18792,160.22
18804,151.08
18816,138.62
18828,123.14
18840,105.61
18852,87.81
18864,71.74
18876,58.79
18888,49.13
18900,41.66
18912,34.6
18924,26.43
18936,16.62
18947,5.7
18958,-5.0
18970,-14.09
18982,-20.7
18994,-24.75
19006,-26.94
19018,-28.45
19030,-30.55
19042,-34.31
19054,-40.36
19066,-48.74
19078,-58.88
19090,-69.74
19102,-79.96
19114,-88.1
19126,-92.79
19137,-92.85
19148,-87.56
19160,-76.83
19172,-61.49
19184,-43.32
19196,-24.77
19208,-8.44
19220,3.62
19232,10.36
19244,11.85
19256,9.07
19268,3.5
19280,-3.13
19292,-9.18
19304,-13.38
19316,-15.08
19327,-14.56
19338,-12.99
19350,-12.01
19362,-13.07
19374,-16.82
19386,-22.89
19398,-30.19
19410,-37.5
19422,-44.0
19434,-49.38
19446,-53.7
19458,-56.95
19470,-58.85
19482,-58.97
19494,-57.03
19506,-53.2
19517,-48.11
19528,-42.61
19540,-37.35
19552,-32.54
19564,-27.88
19576,-22.82
19588,-16.89
19600,-9.97
19612,-2.31
19624,5.61
19636,13.39
19648,20.88
19660,28.14
19672,35.3
19684,42.37
19696,49.2
19707,55.68
19718,61.84
19730,67.93
19742,74.32
19754,81.16
19766,88.2
19778,94.77
19790,99.93
19802,102.91
19814,103.33
19826,101.23
19838,96.92
19850,90.76
19862,83.04
19874,73.94
19886,63.69
19897,52.57
19908,40.98
19920,29.34
19932,18.11
19944,7.68
19956,-1.5
19968,-9.06
19980,-14.76
19992,-18.54
20004,-20.64
20016,-21.54
20028,-21.88
20040,-22.24
20052,-23.1
20064,-24.69
20076,-27.01
20087,-29.94
20098,-33.27
20110,-36.82
20122,-40.46
20134,-44.13
20146,-47.72
20158,-51.06
20170,-53.91
20182,-56.0
20194,-57.12
20206,-57.17
20218,-56.12
20230,-53.9
20242,-50.36
20254,-45.25
20266,-38.43
20277,-30.12
20288,-21.08
20300,-12.56
20312,-5.91
20324,-2.14
20336,-1.37
20348,-2.73
20360,-4.71
20372,-5.7
20384,-4.84
20396,-2.46
20408,-0.16
20420,-0.28
20432,-4.98
20444,-15.21
20456,-29.93
20467,-45.82
20478,-57.8
20490,-60.21
20502,-48.34
20514,-19.96
20526,23.81
20538,78.45
20550,137.01
20562,191.76
20574,236.09
20586,265.99
20598,280.48
20610,281.11
20622,270.68
20634,252.02
20646,227.23
20657,197.71
20668,164.77
20680,130.21
20692,96.49
20704,66.27
20716,41.61
20728,23.2
20740,10.3
20752,1.13
20764,-6.19
20776,-12.81
20788,-18.95
20800,-24.12
20812,-27.77
20824,-30.0
20836,-31.79
20847,-34.83
20858,-40.89
20870,-50.96
20882,-64.77
20894,-80.81
20906,-96.93
20918,-111.11
20930,-122.12
20942,-129.77
20954,-134.67
20966,-137.75
20978,-139.66
20990,-140.57
