seconds,BVP
1,77.52
12,60.43
24,42.91
36,25.87
48,10.08
60,-3.9
72,-15.91
84,-26.14
96,-35.08
108,-43.31
120,-51.21
132,-58.71
144,-65.34
156,-70.28
168,-72.77
180,-72.39
191,-69.31
202,-64.22
214,-58.12
226,-51.93
238,-46.28
250,-41.32
262,-36.83
274,-32.44
286,-27.87
298,-23.07
310,-18.2
322,-13.53
334,-9.21
346,-5.13
358,-1.0
370,3.57
381,8.81
392,14.7
404,20.85
416,26.68
428,31.54
440,34.89
452,36.41
464,35.91
476,33.34
488,28.73
500,22.14
512,13.82
524,4.17
536,-6.27
548,-16.86
560,-27.06
571,-36.42
582,-44.69
594,-51.74
606,-57.55
618,-62.17
630,-65.75
642,-68.46
654,-70.54
666,-72.18
678,-73.54
690,-74.72
702,-75.78
714,-76.77
726,-77.76
738,-78.87
750,-80.16
761,-81.69
772,-83.41
784,-85.17
796,-86.62
808,-87.22
820,-86.42
832,-83.82
844,-79.46
856,-73.81
868,-67.67
880,-61.78
892,-56.52
904,-51.73
916,-46.89
928,-41.45
940,-35.2
951,-28.48
962,-21.98
974,-16.46
986,-12.41
998,-9.81
1010,-8.33
1022,-7.48
1034,-6.94
1046,-6.67
1058,-6.88
1070,-7.74
1082,-9.31
1094,-11.32
1106,-13.26
1118,-14.6
1130,-15.0
1141,-14.51
1152,-13.54
1164,-12.71
1176,-12.55
1188,-13.31
1200,-14.84
1212,-16.76
1224,-18.69
1236,-20.43
1248,-22.06
1260,-23.84
1272,-26.02
1284,-28.69
1296,-31.76
1308,-35.07
1320,-38.5
1331,-42.08
1342,-45.9
1354,-50.0
1366,-54.31
1378,-58.58
1390,-62.58
1402,-66.26
1414,-69.88
1426,-73.98
1438,-79.14
1450,-85.59
1462,-92.97
1474,-100.28
1486,-106.2
1498,-109.58
1510,-109.87
1521,-107.35
1532,-102.89
1544,-97.6
1556,-92.44
1568,-88.0
1580,-84.47
1592,-81.82
1604,-79.92
1616,-78.54
1628,-77.38
1640,-75.97
1652,-73.79
1664,-70.4
1676,-65.59
1688,-59.44
1700,-52.14
1711,-44.0
1722,-35.28
1734,-26.24
1746,-17.16
1758,-8.38
1770,-0.25
1782,6.95
1794,13.08
1806,18.13
1818,22.21
1830,25.47
1842,28.0
1854,29.88
1866,31.13
1878,31.75
1890,31.76
1901,31.2
1912,30.14
1924,28.7
1936,27.04
1948,25.28
1960,23.51
1972,21.75
1984,19.93
1996,17.94
2008,15.66
2020,12.97
2032,9.71
2044,5.71
2056,0.84
2068,-4.86
2080,-11.03
2091,-16.93
2102,-21.58
2114,-23.96
2126,-23.41
2138,-19.82
2150,-13.73
2162,-6.05
2174,2.23
2186,10.39
2198,18.02
2210,24.96
2222,31.02
2234,35.88
2246,39.09
2258,40.36
2270,39.73
2281,37.69
2292,35.01
2304,32.49
2316,30.61
2328,29.46
2340,28.78
2352,28.2
2364,27.43
2376,26.35
2388,25.0
2400,23.44
2412,21.75
2424,20.01
2436,18.41
2448,17.2
2460,16.6
2471,16.68
2482,17.18
2494,17.59
2506,17.37
2518,16.14
2530,13.91
2542,10.99
2554,7.85
2566,4.84
2578,2.07
2590,-0.56
2602,-3.21
2614,-6.03
2626,-9.08
2638,-12.42
2650,-16.09
2661,-20.01
2672,-23.84
2684,-26.89
2696,-28.23
2708,-26.94
2720,-22.46
2732,-14.83
2744,-4.68
2756,7.0
2768,19.22
2780,31.22
2792,42.62
2804,53.29
2816,63.21
2828,72.32
2840,80.54
2851,87.84
2862,94.39
2874,100.6
2886,107.05
2898,114.32
2910,122.77
2922,132.38
2934,142.71
2946,153.03
2958,162.55
2970,170.62
2982,176.97
2994,181.71
3006,185.19
3018,187.85
3030,189.97
3041,191.65
3052,192.85
3064,193.51
3076,193.67
3088,193.49
3100,193.18
3112,192.95
3124,192.94
3136,193.18
3148,193.58
3160,193.77
3172,193.06
3184,190.24
3196,183.84
3208,172.46
3220,155.29
3231,132.41
3242,104.82
3254,74.13
3266,42.15
3278,10.54
3290,-19.31
3302,-46.27
3314,-69.43
3326,-88.24
3338,-102.65
3350,-113.33
3362,-121.62
3374,-129.29
3386,-137.98
3398,-148.72
3410,-161.59
3421,-175.78
3432,-190.03
3444,-203.18
3456,-214.65
3468,-224.64
3480,-233.88
3492,-243.11
3504,-252.63
3516,-262.09
3528,-270.63
3540,-277.35
3552,-281.65
3564,-283.33
3576,-282.45
3588,-279.0
3600,-272.71
3611,-263.06
3622,-249.54
3634,-232.09
3646,-211.22
3658,-188.05
3670,-163.97
3682,-140.37
3694,-118.31
3706,-98.44
3718,-81.01
3730,-66.04
3742,-53.35
3754,-42.67
3766,-33.68
3778,-26.1
3790,-19.82
3801,-14.97
3812,-11.94
3824,-11.21
3836,-13.07
3848,-17.42
3860,-23.63
3872,-30.6
3884,-37.05
3896,-41.74
3908,-43.75
3920,-42.61
3932,-38.32
3944,-31.38
3956,-22.61
3968,-13.02
3980,-3.51
3991,5.26
4002,13.01
4014,19.78
4026,25.69
4038,30.73
4050,34.73
4062,37.33
4074,38.3
4086,37.72
4098,36.0
4110,33.76
4122,31.6
4134,29.88
4146,28.71
4158,28.02
4170,27.75
4181,27.95
4192,28.71
4204,30.03
4216,31.68
4228,33.33
4240,34.61
4252,35.28
4264,35.32
4276,34.83
4288,33.92
4300,32.65
4312,30.97
4324,28.85
4336,26.29
4348,23.32
4360,19.98
4371,16.22
4382,11.88
4394,6.79
4406,0.8
4418,-6.07
4430,-13.61
4442,-21.3
4454,-28.37
4466,-33.83
4478,-36.65
4490,-36.04
4502,-31.72
4514,-24.06
4526,-13.99
4538,-2.74
4550,8.58
4561,19.22
4572,28.89
4584,37.55
4596,45.21
4608,51.69
4620,56.69
4632,59.93
4644,61.36
4656,61.34
4668,60.46
4680,59.44
4692,58.77
4704,58.67
4716,59.0
4728,59.49
4740,59.89
4751,60.05
4762,59.98
4774,59.73
4786,59.29
4798,58.59
4810,57.49
4822,55.83
4834,53.54
4846,50.62
4858,47.17
4870,43.35
4882,39.32
4894,35.21
4906,31.05
4918,26.73
4930,22.01
4941,16.64
4952,10.37
4964,3.08
4976,-5.16
4988,-13.95
5000,-22.57
5012,-30.02
5024,-35.16
5036,-37.03
5048,-35.06
5060,-29.34
5072,-20.55
5084,-9.77
5096,1.86
5108,13.38
5120,24.1
5131,33.62
5142,41.64
5154,47.93
5166,52.31
5178,54.8
5190,55.66
5202,55.38
5214,54.52
5226,53.63
5238,53.02
5250,52.78
5262,52.79
5274,52.84
5286,52.75
5298,52.42
5310,51.82
5321,50.95
5332,49.8
5344,48.3
5356,46.39
5368,44.01
5380,41.14
5392,37.83
5404,34.14
5416,30.16
5428,25.93
5440,21.5
5452,16.89
5464,12.14
5476,7.32
5488,2.42
5500,-2.6
5511,-7.92
5522,-13.75
5534,-20.3
5546,-27.65
5558,-35.57
5570,-43.53
5582,-50.62
5594,-55.77
5606,-57.97
5618,-56.55
5630,-51.4
5642,-42.97
5654,-32.18
5666,-20.18
5678,-8.05
5690,3.41
5701,13.78
5712,22.92
5724,30.87
5736,37.7
5748,43.37
5760,47.78
5772,50.85
5784,52.58
5796,53.13
5808,52.81
5820,52.04
5832,51.13
5844,50.32
5856,49.68
5868,49.15
5880,48.67
5891,48.15
5902,47.49
5914,46.57
5926,45.27
5938,43.45
5950,41.03
5962,38.02
5974,34.52
5986,30.71
5998,26.76
6010,22.79
6022,18.82
6034,14.79
6046,10.65
6058,6.38
6070,2.07
6081,-2.2
6092,-6.39
6104,-10.59
6116,-15.08
6128,-20.17
6140,-26.08
6152,-32.71
6164,-39.61
6176,-45.91
6188,-50.57
6200,-52.62
6212,-51.45
6224,-46.99
6236,-39.69
6248,-30.42
6260,-20.15
6271,-9.7
6282,0.45
6294,10.08
6306,19.13
6318,27.51
6330,34.92
6342,40.97
6354,45.31
6366,47.79
6378,48.6
6390,48.24
6402,47.37
6414,46.56
6426,46.17
6438,46.25
6450,46.58
6461,46.91
6472,47.0
6484,46.77
6496,46.21
6508,45.3
6520,43.97
6532,42.1
6544,39.57
6556,36.43
6568,32.87
6580,29.18
6592,25.63
6604,22.3
6616,19.12
6628,15.87
6640,12.3
6651,8.29
6662,3.86
6674,-0.84
6686,-5.58
6698,-10.13
6710,-14.33
6722,-18.21
6734,-21.97
6746,-25.96
6758,-30.57
6770,-36.09
6782,-42.47
6794,-49.24
6806,-55.52
6818,-60.19
6830,-62.26
6841,-61.11
6852,-56.71
6864,-49.63
6876,-40.75
6888,-31.04
6900,-21.21
6912,-11.73
6924,-2.79
6936,5.48
6948,12.95
6960,19.36
6972,24.43
6984,28.01
6996,30.11
7008,30.98
7020,31.02
7031,30.66
7042,30.25
7054,29.99
7066,29.93
7078,30.05
7090,30.22
7102,30.37
7114,30.4
7126,30.27
7138,29.93
7150,29.29
7162,28.27
7174,26.75
7186,24.67
7198,22.08
7210,19.15
7221,16.15
7232,13.33
7244,10.83
7256,8.61
7268,6.43
7280,3.99
7292,1.07
7304,-2.38
7316,-6.2
7328,-10.1
7340,-13.76
7352,-16.98
7364,-19.78
7376,-22.34
7388,-24.97
7400,-28.03
7411,-31.84
7422,-36.54
7434,-41.97
7446,-47.66
7458,-52.76
7470,-56.24
7482,-57.15
7494,-54.94
7506,-49.67
7518,-41.97
7530,-32.86
7542,-23.4
7554,-14.36
7566,-6.16
7578,1.07
7590,7.32
7601,12.51
7612,16.49
7624,19.13
7636,20.41
7648,20.58
7660,20.05
7672,19.3
7684,18.7
7696,18.42
7708,18.43
7720,18.56
7732,18.65
7744,18.61
7756,18.45
7768,18.18
7780,17.8
7791,17.23
7802,16.31
7814,14.96
7826,13.16
7838,10.99
7850,8.59
7862,6.1
7874,3.53
7886,0.87
7898,-1.96
7910,-4.98
7922,-8.16
7934,-11.44
7946,-14.71
7958,-17.89
7970,-20.93
7981,-23.86
7992,-26.74
8004,-29.69
8016,-32.85
8028,-36.34
8040,-40.16
8052,-44.08
8064,-47.57
8076,-49.88
8088,-50.17
8100,-47.85
8112,-42.75
8124,-35.24
8136,-26.13
8148,-16.43
8160,-7.04
8171,1.43
8182,8.69
8194,14.73
8206,19.59
8218,23.32
8230,25.92
8242,27.43
8254,27.97
8266,27.8
8278,27.25
8290,26.61
8302,26.07
8314,25.68
8326,25.36
8338,25.03
8350,24.64
8361,24.17
8372,23.61
8384,22.93
8396,22.05
8408,20.87
8420,19.33
8432,17.4
8444,15.14
8456,12.65
8468,10.03
8480,7.4
8492,4.78
8504,2.15
8516,-0.59
8528,-3.53
8540,-6.7
8551,-10.04
8562,-13.42
8574,-16.65
8586,-19.62
8598,-22.35
8610,-24.99
8622,-27.8
8634,-31.11
8646,-35.12
8658,-39.83
8670,-44.93
8682,-49.69
8694,-53.17
8706,-54.42
8718,-52.84
8730,-48.33
8741,-41.39
8752,-32.91
8764,-23.91
8776,-15.21
8788,-7.38
8800,-0.65
8812,4.94
8824,9.43
8836,12.88
8848,15.4
8860,17.08
8872,18.08
8884,18.53
8896,18.6
8908,18.39
8920,18.01
8931,17.57
8942,17.2
8954,16.98
8966,16.99
8978,17.21
8990,17.57
9002,17.94
9014,18.18
9026,18.16
9038,17.76
9050,16.9
9062,15.52
9074,13.68
9086,11.5
9098,9.17
9110,6.91
9121,4.78
9132,2.71
9144,0.47
9156,-2.17
9168,-5.33
9180,-8.91
9192,-12.66
9204,-16.26
9216,-19.5
9228,-22.31
9240,-24.85
9252,-27.42
9264,-30.39
9276,-34.07
9288,-38.6
9300,-43.8
9311,-49.13
9322,-53.7
9334,-56.52
9346,-56.77
9358,-54.09
9370,-48.73
9382,-41.4
9394,-33.02
9406,-24.46
9418,-16.31
9430,-8.85
9442,-2.19
9454,3.6
9466,8.43
9478,12.13
9490,14.62
9501,15.97
9512,16.47
9524,16.49
9536,16.45
9548,16.62
9560,17.06
9572,17.65
9584,18.24
9596,18.71
9608,19.09
9620,19.46
9632,19.84
9644,20.17
9656,20.26
9668,19.9
9680,18.99
9691,17.58
9702,15.85
9714,14.02
9726,12.24
9738,10.54
9750,8.86
9762,7.06
9774,5.01
9786,2.61
9798,-0.16
9810,-3.27
9822,-6.57
9834,-9.87
9846,-13.01
9858,-15.85
9870,-18.44
9881,-20.97
9892,-23.79
9904,-27.26
9916,-31.61
9928,-36.73
9940,-42.03
9952,-46.59
9964,-49.28
9976,-49.23
9988,-46.08
10000,-40.11
10012,-32.17
10024,-23.34
10036,-14.61
10048,-6.65
10060,0.24
10071,6.02
10082,10.73
10094,14.4
10106,17.05
10118,18.7
10130,19.46
10142,19.58
10154,19.32
10166,18.95
10178,18.61
10190,18.31
10202,17.99
10214,17.56
10226,17.05
10238,16.56
10250,16.24
10261,16.15
10272,16.24
10284,16.29
10296,16.04
10308,15.26
10320,13.9
10332,12.05
10344,9.93
10356,7.76
10368,5.69
10380,3.7
10392,1.69
10404,-0.5
10416,-2.95
10428,-5.62
10440,-8.36
10451,-10.98
10462,-13.35
10474,-15.47
10486,-17.46
10498,-19.57
10510,-22.03
10522,-25.05
10534,-28.73
10546,-32.93
10558,-37.31
10570,-41.21
10582,-43.82
10594,-44.32
10606,-42.2
10618,-37.37
10630,-30.3
10641,-21.81
10652,-12.86
10664,-4.25
10676,3.53
10688,10.23
10700,15.77
10712,20.12
10724,23.13
10736,24.72
10748,24.85
10760,23.72
10772,21.71
10784,19.32
10796,17.08
10808,15.36
10820,14.31
10831,13.87
10842,13.86
10854,14.03
10866,14.22
10878,14.31
10890,14.26
10902,14.01
10914,13.53
10926,12.76
10938,11.67
10950,10.23
10962,8.43
10974,6.25
10986,3.65
10998,0.67
11010,-2.57
11021,-5.91
11032,-9.13
11044,-12.11
11056,-14.85
11068,-17.5
11080,-20.26
11092,-23.33
11104,-26.84
11116,-30.83
11128,-35.28
11140,-40.03
11152,-44.69
11164,-48.64
11176,-51.05
11188,-51.13
11200,-48.41
11211,-42.95
11222,-35.41
11234,-26.79
11246,-18.13
11258,-10.16
11270,-3.22
11282,2.67
11294,7.61
11306,11.63
11318,14.61
11330,16.4
11342,16.96
11354,16.46
11366,15.37
11378,14.28
11390,13.71
11401,14.02
11412,15.21
11424,17.02
11436,19.05
11448,20.88
11460,22.25
11472,23.03
11484,23.19
11496,22.75
11508,21.73
11520,20.15
11532,18.07
11544,15.6
11556,12.9
11568,10.07
11580,7.19
11591,4.21
11602,1.05
11614,-2.36
11626,-6.03
11638,-9.89
11650,-13.83
11662,-17.75
11674,-21.64
11686,-25.6
11698,-29.81
11710,-34.47
11722,-39.62
11734,-45.06
11746,-50.24
11758,-54.35
11770,-56.45
11781,-55.82
11792,-52.13
11804,-45.59
11816,-36.9
11828,-27.05
11840,-17.05
11852,-7.69
11864,0.57
11876,7.61
11888,13.5
11900,18.39
11912,22.37
11924,25.46
11936,27.61
11948,28.86
11960,29.31
11971,29.2
11982,28.85
11994,28.52
12006,28.39
12018,28.51
12030,28.8
12042,29.16
12054,29.46
12066,29.6
12078,29.45
12090,28.92
12102,27.9
12114,26.37
12126,24.33
12138,21.87
12150,19.07
12161,16.01
12172,12.75
12184,9.31
12196,5.74
12208,2.12
12220,-1.47
12232,-4.96
12244,-8.31
12256,-11.56
12268,-14.8
12280,-18.19
12292,-21.88
12304,-26.08
12316,-30.91
12328,-36.38
12340,-42.23
12351,-47.83
12362,-52.27
12374,-54.57
12386,-53.94
12398,-50.11
12410,-43.41
12422,-34.6
12434,-24.66
12446,-14.51
12458,-4.8
12470,4.1
12482,11.92
12494,18.5
12506,23.72
12518,27.53
12530,30.04
12541,31.49
12552,32.2
12564,32.43
12576,32.39
12588,32.2
12600,31.95
12612,31.71
12624,31.58
12636,31.63
12648,31.87
12660,32.24
12672,32.58
12684,32.68
12696,32.3
12708,31.29
12720,29.59
12731,27.28
12742,24.53
12754,21.6
12766,18.68
12778,15.88
12790,13.18
12802,10.45
12814,7.51
12826,4.28
12838,0.75
12850,-2.96
12862,-6.69
12874,-10.32
12886,-13.78
12898,-17.1
12910,-20.4
12921,-23.88
12932,-27.79
12944,-32.32
12956,-37.52
12968,-43.13
12980,-48.49
12992,-52.63
13004,-54.47
13016,-53.2
13028,-48.56
13040,-40.98
13052,-31.38
13064,-20.88
13076,-10.47
13088,-0.78
13100,7.92
13111,15.56
13122,22.14
13134,27.63
13146,31.92
13158,34.93
13170,36.71
13182,37.41
13194,37.37
13206,36.94
13218,36.42
13230,36.0
13242,35.73
13254,35.54
13266,35.35
13278,35.13
13290,34.9
13301,34.73
13312,34.61
13324,34.43
13336,33.97
13348,32.97
13360,31.27
13372,28.85
13384,25.87
13396,22.66
13408,19.5
13420,16.61
13432,14.0
13444,11.53
13456,8.95
13468,6.04
13480,2.72
13491,-0.93
13502,-4.67
13514,-8.24
13526,-11.42
13538,-14.17
13550,-16.62
13562,-19.08
13574,-21.94
13586,-25.58
13598,-30.19
13610,-35.72
13622,-41.75
13634,-47.47
13646,-51.86
13658,-53.89
13670,-52.83
13681,-48.48
13692,-41.26
13704,-32.04
13716,-21.86
13728,-11.7
13740,-2.25
13752,6.12
13764,13.29
13776,19.25
13788,23.98
13800,27.47
13812,29.76
13824,30.97
13836,31.34
13848,31.18
13860,30.82
13871,30.5
13882,30.36
13894,30.38
13906,30.47
13918,30.56
13930,30.61
13942,30.62
13954,30.57
13966,30.32
13978,29.7
13990,28.53
14002,26.75
14014,24.46
14026,21.93
14038,19.41
14050,17.1
14061,15.01
14072,13.0
14084,10.86
14096,8.36
14108,5.42
14120,2.05
14132,-1.61
14144,-5.38
14156,-9.03
14168,-12.43
14180,-15.5
14192,-18.36
14204,-21.28
14216,-24.66
14228,-28.85
14240,-33.95
14251,-39.6
14262,-45.0
14274,-49.02
14286,-50.61
14298,-49.09
14310,-44.45
14322,-37.27
14334,-28.51
14346,-19.18
14358,-10.02
14370,-1.45
14382,6.37
14394,13.33
14406,19.25
14418,23.88
14430,26.99
14441,28.51
14452,28.68
14464,27.94
14476,26.88
14488,25.99
14500,25.56
14512,25.62
14524,26.01
14536,26.46
14548,26.81
14560,27.0
14572,27.08
14584,27.12
14596,27.15
14608,27.05
14620,26.62
14631,25.67
14642,24.11
14654,21.98
14666,19.45
14678,16.75
14690,14.05
14702,11.43
14714,8.87
14726,6.26
14738,3.51
14750,0.53
14762,-2.67
14774,-6.03
14786,-9.41
14798,-12.72
14810,-15.85
14821,-18.8
14832,-21.66
14844,-24.58
14856,-27.79
14868,-31.49
14880,-35.83
14892,-40.79
14904,-46.08
14916,-51.16
14928,-55.2
14940,-57.33
14952,-56.82
14964,-53.28
14976,-46.84
14988,-38.15
15000,-28.17
15011,-17.95
15022,-8.38
15034,0.04
15046,7.15
15058,13.06
15070,17.92
15082,21.83
15094,24.76
15106,26.68
15118,27.61
15130,27.77
15142,27.48
15154,27.11
15166,26.91
15178,26.96
15190,27.22
15201,27.55
15212,27.82
15224,27.93
15236,27.85
15248,27.55
15260,27.03
15272,26.29
15284,25.3
15296,24.03
15308,22.45
15320,20.54
15332,18.26
15344,15.66
15356,12.81
15368,9.87
15380,6.98
15391,4.23
15402,1.63
15414,-0.91
15426,-3.56
15438,-6.45
15450,-9.61
15462,-12.92
15474,-16.17
15486,-19.11
15498,-21.6
15510,-23.65
15522,-25.41
15534,-27.11
15546,-28.96
15558,-31.15
15570,-33.76
15581,-36.8
15592,-40.08
15604,-43.21
15616,-45.49
15628,-46.09
15640,-44.25
15652,-39.62
15664,-32.39
15676,-23.33
15688,-13.54
15700,-4.09
15712,4.25
15724,11.16
15736,16.71
15748,21.16
15760,24.74
15771,27.59
15782,29.72
15794,31.08
15806,31.74
15818,31.84
15830,31.65
15842,31.42
15854,31.33
15866,31.38
15878,31.48
15890,31.5
15902,31.37
15914,31.15
15926,31.0
15938,31.0
15950,31.16
15961,31.29
15972,31.12
15984,30.43
15996,29.14
16008,27.34
16020,25.3
16032,23.29
16044,21.51
16056,20.04
16068,18.79
16080,17.56
16092,16.08
16104,14.12
16116,11.56
16128,8.44
16140,4.97
16151,1.44
16162,-1.86
16174,-4.79
16186,-7.43
16198,-10.08
16210,-13.16
16222,-17.06
16234,-22.07
16246,-28.16
16258,-35.0
16270,-41.95
16282,-48.12
16294,-52.54
16306,-54.34
16318,-53.01
16330,-48.5
16341,-41.29
16352,-32.23
16364,-22.32
16376,-12.46
16388,-3.23
16400,5.13
16412,12.72
16424,19.73
16436,26.29
16448,32.39
16460,37.91
16472,42.67
16484,46.66
16496,50.02
16508,52.94
16520,55.51
16531,57.62
16542,58.96
16554,59.08
16566,57.62
16578,54.39
16590,49.47
16602,43.18
16614,35.97
16626,28.37
16638,20.86
16650,13.74
16662,7.13
16674,1.0
16686,-4.66
16698,-9.76
16710,-14.05
16721,-17.34
16732,-19.7
16744,-21.58
16756,-23.64
16768,-26.48
16780,-30.18
16792,-34.28
16804,-37.95
16816,-40.43
16828,-41.52
16840,-41.66
16852,-41.78
16864,-42.79
16876,-45.23
16888,-48.99
16900,-53.37
16911,-57.37
16922,-59.97
16934,-60.39
16946,-58.29
16958,-53.78
16970,-47.38
16982,-39.86
16994,-32.14
17006,-25.02
17018,-19.14
17030,-14.86
17042,-12.28
17054,-11.28
17066,-11.52
17078,-12.58
17090,-13.96
17101,-15.16
17112,-15.8
17124,-15.64
17136,-14.65
17148,-12.97
17160,-10.95
17172,-9.01
17184,-7.52
17196,-6.75
17208,-6.63
17220,-6.89
17232,-7.07
17244,-6.73
17256,-5.59
17268,-3.57
17280,-0.76
17291,2.69
17302,6.67
17314,11.04
17326,15.63
17338,20.13
17350,24.16
17362,27.41
17374,29.71
17386,31.13
17398,31.95
17410,32.45
17422,32.78
17434,32.9
17446,32.52
17458,31.27
17470,28.8
17481,24.87
17492,19.45
17504,12.77
17516,5.33
17528,-2.11
17540,-8.59
17552,-13.17
17564,-15.18
17576,-14.38
17588,-11.06
17600,-5.94
17612,0.09
17624,6.19
17636,11.72
17648,16.31
17660,19.78
17671,22.08
17682,23.26
17694,23.38
17706,22.58
17718,21.04
17730,18.97
17742,16.55
17754,13.93
17766,11.18
17778,8.28
17790,5.17
17802,1.74
17814,-2.06
17826,-6.24
17838,-10.7
17850,-15.26
17861,-19.71
17872,-23.78
17884,-27.25
17896,-29.99
17908,-31.96
17920,-33.25
17932,-34.07
17944,-34.66
17956,-35.2
17968,-35.77
17980,-36.31
17992,-36.62
18004,-36.47
18016,-35.61
18028,-33.89
18040,-31.27
18051,-27.84
18062,-23.83
18074,-19.48
18086,-15.02
18098,-10.57
18110,-6.17
18122,-1.91
18134,2.01
18146,5.34
18158,7.97
18170,10.11
18182,12.48
18194,16.03
18206,21.7
18218,29.95
18230,40.68
18241,53.31
18252,67.18
18264,81.77
18276,96.69
18288,111.41
18300,125.07
18312,136.51
18324,144.57
18336,148.53
18348,148.16
18360,143.58
18372,134.72
18384,121.14
18396,102.38
18408,78.67
18420,51.66
18431,24.46
18442,0.9
18454,-15.77
18466,-24.05
18478,-24.61
18490,-19.77
18502,-12.38
18514,-4.74
18526,1.79
18538,6.66
18550,9.7
18562,10.75
18574,9.75
18586,6.93
18598,2.97
18610,-1.15
18621,-4.65
18632,-7.49
18644,-10.5
18656,-15.05
18668,-22.36
18680,-32.7
18692,-45.03
18704,-57.23
18716,-66.85
18728,-72.06
18740,-72.33
18752,-68.59
18764,-62.61
18776,-56.21
18788,-50.45
18800,-45.39
18811,-40.23
18822,-34.01
18834,-26.17
18846,-16.83
18858,-6.83
18870,2.62
18882,10.23
18894,14.88
18906,15.93
18918,13.33
18930,7.66
18942,0.08
18954,-8.0
18966,-15.35
18978,-21.15
18990,-25.13
19001,-27.35
19012,-27.94
19024,-26.95
19036,-24.32
19048,-20.11
19060,-14.64
19072,-8.55
19084,-2.63
19096,2.47
19108,6.47
19120,9.55
19132,12.16
19144,14.77
19156,17.52
19168,20.16
19180,22.13
19191,22.82
19202,21.88
19214,19.34
19226,15.5
19238,10.78
19250,5.52
19262,-0.06
19274,-5.76
19286,-11.31
19298,-16.31
19310,-20.46
19322,-23.75
19334,-26.49
19346,-29.11
19358,-31.77
19370,-34.0
19381,-34.71
19392,-32.69
19404,-27.19
19416,-18.35
19428,-7.16
19440,5.05
19452,17.22
19464,28.89
19476,40.2
19488,51.37
19500,62.21
19512,71.99
19524,79.71
19536,84.58
19548,86.52
19560,86.27
19571,84.99
19582,83.72
19594,82.93
19606,82.42
19618,81.6
19630,79.91
19642,77.18
19654,73.58
19666,69.46
19678,64.98
19690,60.01
19702,54.24
19714,47.42
19726,39.67
19738,31.42
19750,23.26
19761,15.68
19772,8.84
19784,2.63
19796,-3.31
19808,-9.34
19820,-15.75
19832,-22.73
19844,-30.45
19856,-39.1
19868,-48.85
19880,-59.79
19892,-71.77
19904,-84.29
19916,-96.5
19928,-107.28
19940,-115.46
19951,-120.13
19962,-120.89
19974,-117.9
19986,-111.91
19998,-104.05
20010,-95.6
20022,-87.73
20034,-81.35
20046,-77.02
20058,-74.83
20070,-74.53
20082,-75.58
20094,-77.31
20106,-79.07
20118,-80.3
20130,-80.66
20141,-80.06
20152,-78.6
20164,-76.54
20176,-74.2
20188,-71.85
20200,-69.58
20212,-67.37
20224,-65.1
20236,-62.67
20248,-60.04
20260,-57.26
20272,-54.44
20284,-51.72
20296,-49.26
20308,-47.23
20320,-45.84
20331,-45.32
20342,-45.9
20354,-47.67
20366,-50.48
20378,-53.82
20390,-56.82
20402,-58.4
20414,-57.51
20426,-53.57
20438,-46.59
20450,-37.31
20462,-26.91
20474,-16.61
20486,-7.37
20498,0.33
20510,6.37
20521,10.79
20532,13.6
20544,14.74
20556,14.23
20568,12.32
20580,9.51
20592,6.51
20604,3.97
20616,2.26
20628,1.41
20640,1.2
20652,1.25
20664,1.26
20676,1.04
20688,0.52
20700,-0.38
20711,-1.73
20722,-3.64
20734,-6.15
20746,-9.2
20758,-12.55
20770,-15.91
20782,-19.01
20794,-21.79
20806,-24.42
20818,-27.37
20830,-31.29
20842,-36.71
20854,-43.86
20866,-52.34
20878,-61.17
20890,-68.9
20901,-74.0
20912,-75.25
20924,-72.12
20936,-64.87
20948,-54.38
20960,-41.91
20972,-28.79
20984,-16.1
20996,-4.56
