seconds,BVP
9,-33.95
20,-36.77
32,-38.46
44,-38.32
56,-35.95
68,-31.39
80,-25.15
92,-18.03
104,-10.89
116,-4.38
128,1.17
140,5.72
152,9.39
164,12.31
176,14.52
188,15.98
199,16.63
210,16.51
222,15.79
234,14.75
246,13.69
258,12.87
270,12.39
282,12.3
294,12.55
306,13.12
318,13.99
330,15.12
342,16.45
354,17.8
366,18.95
378,19.69
389,19.87
400,19.48
412,18.61
424,17.41
436,16.08
448,14.79
460,13.66
472,12.72
484,11.92
496,11.13
508,10.23
520,9.14
532,7.86
544,6.51
556,5.21
568,4.08
579,3.1
590,2.21
602,1.31
614,0.3
626,-0.85
638,-2.18
650,-3.69
662,-5.36
674,-7.14
686,-8.96
698,-10.7
710,-12.26
722,-13.61
734,-14.8
746,-15.98
758,-17.41
769,-19.37
780,-22.08
792,-25.53
804,-29.38
816,-32.94
828,-35.3
840,-35.58
852,-33.33
864,-28.64
876,-22.18
888,-14.92
900,-7.84
912,-1.61
924,3.48
936,7.4
948,10.27
959,12.17
970,13.16
982,13.35
994,12.9
1006,12.07
1018,11.14
1030,10.32
1042,9.75
1054,9.46
1066,9.44
1078,9.66
1090,10.13
1102,10.81
1114,11.62
1126,12.45
1138,13.15
1149,13.6
1160,13.81
1172,13.81
1184,13.66
1196,13.37
1208,12.92
1220,12.19
1232,11.09
1244,9.65
1256,7.96
1268,6.22
1280,4.59
1292,3.19
1304,2.02
1316,1.01
1328,0.07
1339,-0.88
1350,-1.91
1362,-3.05
1374,-4.29
1386,-5.59
1398,-6.9
1410,-8.15
1422,-9.32
1434,-10.46
1446,-11.71
1458,-13.22
1470,-15.1
1482,-17.36
1494,-19.87
1506,-22.31
1518,-24.25
1529,-25.21
1540,-24.72
1552,-22.53
1564,-18.68
1576,-13.57
1588,-7.83
1600,-2.17
1612,2.79
1624,6.76
1636,9.69
1648,11.76
1660,13.14
1672,13.95
1684,14.17
1696,13.76
1708,12.74
1719,11.31
1730,9.81
1742,8.65
1754,8.08
1766,8.18
1778,8.78
1790,9.55
1802,10.2
1814,10.57
1826,10.73
1838,10.85
1850,11.12
1862,11.58
1874,12.04
1886,12.2
1898,11.78
1909,10.7
1920,9.08
1932,7.2
1944,5.39
1956,3.81
1968,2.48
1980,1.26
1992,-0.01
2004,-1.44
2016,-3.0
2028,-4.6
2040,-6.08
2052,-7.31
2064,-8.21
2076,-8.8
2088,-9.16
2099,-9.45
2110,-9.92
2122,-10.77
2134,-12.19
2146,-14.18
2158,-16.55
2170,-18.88
2182,-20.53
2194,-20.78
2206,-18.89
2218,-14.39
2230,-7.2
2242,2.19
2254,12.76
2266,23.17
2278,32.09
2289,38.62
2300,42.47
2312,43.92
2324,43.62
2336,42.25
2348,40.3
2360,38.05
2372,35.66
2384,33.35
2396,31.39
2408,30.06
2420,29.5
2432,29.6
2444,30.03
2456,30.38
2468,30.32
2479,29.73
2490,28.66
2502,27.27
2514,25.72
2526,24.08
2538,22.3
2550,20.28
2562,17.92
2574,15.17
2586,12.08
2598,8.72
2610,5.19
2622,1.47
2634,-2.59
2646,-7.28
2658,-12.93
2669,-19.79
2680,-27.85
2692,-36.79
2704,-45.95
2716,-54.53
2728,-61.82
2740,-67.41
2752,-71.35
2764,-74.09
2776,-76.26
2788,-78.4
2800,-80.71
2812,-83.01
2824,-84.86
2836,-85.8
2848,-85.52
2859,-83.88
2870,-80.86
2882,-76.43
2894,-70.51
2906,-63.13
2918,-54.52
2930,-45.21
2942,-35.83
2954,-26.97
2966,-18.9
2978,-11.6
2990,-4.9
3002,1.25
3014,6.69
3026,11.07
3038,14.06
3049,15.63
3060,16.1
3072,16.09
3084,16.32
3096,17.4
3108,19.63
3120,22.93
3132,26.86
3144,30.78
3156,34.12
3168,36.66
3180,38.59
3192,40.43
3204,42.64
3216,45.29
3228,47.95
3239,49.88
3250,50.55
3262,50.03
3274,49.09
3286,48.83
3298,50.17
3310,53.37
3322,57.97
3334,63.13
3346,68.12
3358,72.7
3370,77.1
3382,81.67
3394,86.52
3406,91.32
3418,95.45
3429,98.4
3440,100.15
3452,101.22
3464,102.42
3476,104.42
3488,107.33
3500,110.65
3512,113.57
3524,115.41
3536,115.97
3548,115.49
3560,114.35
3572,112.7
3584,110.22
3596,106.38
3608,100.74
3619,93.29
3630,84.45
3642,74.69
3654,64.16
3666,52.38
3678,38.57
3690,22.08
3702,3.04
3714,-17.45
3726,-37.57
3738,-55.44
3750,-69.77
3762,-80.32
3774,-87.72
3786,-93.09
3798,-97.39
3809,-101.03
3820,-103.84
3832,-105.31
3844,-104.93
3856,-102.54
3868,-98.47
3880,-93.41
3892,-88.2
3904,-83.51
3916,-79.68
3928,-76.7
3940,-74.31
3952,-72.24
3964,-70.45
3976,-69.16
3988,-68.77
3999,-69.51
4010,-71.26
4022,-73.43
4034,-75.16
4046,-75.68
4058,-74.71
4070,-72.56
4082,-69.88
4094,-67.21
4106,-64.58
4118,-61.39
4130,-56.7
4142,-49.69
4154,-40.17
4166,-28.82
4178,-16.94
4189,-6.1
4200,2.46
4212,8.2
4224,11.33
4236,12.59
4248,12.83
4260,12.61
4272,12.03
4284,10.8
4296,8.56
4308,5.19
4320,0.98
4332,-3.5
4344,-7.65
4356,-11.13
4368,-13.98
4379,-16.44
4390,-18.73
4402,-20.85
4414,-22.63
4426,-23.84
4438,-24.44
4450,-24.6
4462,-24.64
4474,-24.84
4486,-25.27
4498,-25.82
4510,-26.31
4522,-26.61
4534,-26.71
4546,-26.74
4558,-26.81
4569,-26.95
4580,-27.09
4592,-27.06
4604,-26.68
4616,-25.86
4628,-24.64
4640,-23.26
4652,-22.07
4664,-21.45
4676,-21.7
4688,-22.85
4700,-24.58
4712,-26.25
4724,-27.01
4736,-26.0
4748,-22.67
4759,-16.95
4770,-9.35
4782,-0.86
4794,7.38
4806,14.39
4818,19.62
4830,23.02
4842,24.92
4854,25.75
4866,25.75
4878,24.93
4890,23.2
4902,20.54
4914,17.24
4926,13.91
4938,11.34
4949,10.27
4960,11.15
4972,14.08
4984,18.76
4996,24.62
5008,30.9
5020,36.75
5032,41.42
5044,44.43
5056,45.72
5068,45.56
5080,44.47
5092,42.95
5104,41.41
5116,40.04
5128,38.88
5139,37.95
5150,37.2
5162,36.45
5174,35.38
5186,33.6
5198,30.78
5210,26.91
5222,22.31
5234,17.52
5246,13.06
5258,9.22
5270,5.95
5282,2.95
5294,-0.21
5306,-3.91
5318,-8.41
5329,-13.83
5340,-20.08
5352,-26.83
5364,-33.5
5376,-39.33
5388,-43.55
5400,-45.63
5412,-45.43
5424,-43.23
5436,-39.63
5448,-35.32
5460,-30.97
5472,-27.06
5484,-23.96
5496,-21.8
5508,-20.58
5519,-20.08
5530,-19.97
5542,-19.94
5554,-19.81
5566,-19.55
5578,-19.24
5590,-18.89
5602,-18.39
5614,-17.51
5626,-16.02
5638,-13.91
5650,-11.37
5662,-8.72
5674,-6.2
5686,-3.86
5698,-1.57
5709,0.83
5720,3.35
5732,5.78
5744,7.78
5756,9.15
5768,9.9
5780,10.32
5792,10.76
5804,11.42
5816,12.23
5828,12.89
5840,13.06
5852,12.56
5864,11.5
5876,10.24
5888,9.25
5899,8.85
5910,9.18
5922,10.08
5934,11.25
5946,12.31
5958,12.88
5970,12.64
5982,11.44
5994,9.32
6006,6.56
6018,3.75
6030,1.69
6042,1.21
6054,2.87
6066,6.83
6078,12.69
6089,19.6
6100,26.57
6112,32.71
6124,37.48
6136,40.69
6148,42.44
6160,42.93
6172,42.44
6184,41.29
6196,39.9
6208,38.68
6220,37.94
6232,37.73
6244,37.83
6256,37.89
6268,37.63
6279,37.09
6290,36.55
6302,36.43
6314,37.0
6326,38.2
6338,39.69
6350,41.02
6362,41.83
6374,42.03
6386,41.71
6398,41.04
6410,40.08
6422,38.66
6434,36.41
6446,32.89
6458,27.71
6469,20.69
6480,11.9
6492,1.64
6504,-9.62
6516,-21.37
6528,-33.08
6540,-44.26
6552,-54.5
6564,-63.45
6576,-70.92
6588,-76.95
6600,-81.84
6612,-85.95
6624,-89.54
6636,-92.47
6648,-94.11
6659,-93.55
6670,-90.03
6682,-83.34
6694,-74.01
6706,-63.13
6718,-51.95
6730,-41.42
6742,-31.98
6754,-23.65
6766,-16.32
6778,-10.02
6790,-5.07
6802,-1.92
6814,-0.85
6826,-1.78
6838,-4.22
6849,-7.4
6860,-10.58
6872,-13.22
6884,-15.11
6896,-16.27
6908,-16.83
6920,-16.89
6932,-16.52
6944,-15.76
6956,-14.73
6968,-13.63
6980,-12.72
6992,-12.19
7004,-12.11
7016,-12.32
7028,-12.54
7039,-12.51
7050,-12.08
7062,-11.29
7074,-10.32
7086,-9.45
7098,-8.93
7110,-8.86
7122,-9.18
7134,-9.74
7146,-10.37
7158,-10.98
7170,-11.6
7182,-12.31
7194,-13.21
7206,-14.33
7218,-15.62
7229,-17.03
7240,-18.51
7252,-20.09
7264,-21.89
7276,-24.1
7288,-26.94
7300,-30.53
7312,-34.82
7324,-39.43
7336,-43.68
7348,-46.66
7360,-47.48
7372,-45.52
7384,-40.69
7396,-33.5
7408,-24.93
7419,-16.1
7430,-7.96
7442,-1.1
7454,4.32
7466,8.41
7478,11.38
7490,13.42
7502,14.63
7514,15.12
7526,15.07
7538,14.72
7550,14.35
7562,14.21
7574,14.43
7586,15.03
7598,15.96
7609,17.13
7620,18.45
7632,19.86
7644,21.31
7656,22.77
7668,24.19
7680,25.46
7692,26.41
7704,26.89
7716,26.8
7728,26.17
7740,25.16
7752,24.03
7764,23.0
7776,22.19
7788,21.52
7799,20.77
7810,19.7
7822,18.14
7834,16.06
7846,13.59
7858,10.94
7870,8.34
7882,5.99
7894,3.96
7906,2.25
7918,0.75
7930,-0.72
7942,-2.34
7954,-4.19
7966,-6.27
7978,-8.5
7989,-10.76
8000,-13.0
8012,-15.31
8024,-17.88
8036,-20.96
8048,-24.72
8060,-29.09
8072,-33.72
8084,-37.9
8096,-40.78
8108,-41.49
8120,-39.45
8132,-34.54
8144,-27.12
8156,-17.99
8168,-8.15
8179,1.44
8190,10.07
8202,17.37
8214,23.23
8226,27.71
8238,30.85
8250,32.63
8262,33.08
8274,32.3
8286,30.58
8298,28.39
8310,26.27
8322,24.71
8334,23.94
8346,23.94
8358,24.55
8369,25.53
8380,26.74
8392,28.08
8404,29.52
8416,30.91
8428,32.06
8440,32.7
8452,32.67
8464,31.94
8476,30.71
8488,29.24
8500,27.81
8512,26.51
8524,25.29
8536,23.95
8548,22.29
8559,20.23
8570,17.84
8582,15.33
8594,12.91
8606,10.72
8618,8.77
8630,6.93
8642,5.03
8654,2.96
8666,0.69
8678,-1.67
8690,-4.01
8702,-6.21
8714,-8.28
8726,-10.26
8738,-12.29
8749,-14.49
8760,-16.98
8772,-19.89
8784,-23.33
8796,-27.34
8808,-31.77
8820,-36.15
8832,-39.65
8844,-41.32
8856,-40.25
8868,-36.05
8880,-28.97
8892,-19.94
8904,-10.23
8916,-1.08
8928,6.67
8939,12.7
8950,17.14
8962,20.3
8974,22.45
8986,23.69
8998,24.0
9010,23.31
9022,21.69
9034,19.37
9046,16.76
9058,14.35
9070,12.6
9082,11.83
9094,12.14
9106,13.42
9118,15.43
9129,17.8
9140,20.22
9152,22.4
9164,24.08
9176,25.09
9188,25.29
9200,24.63
9212,23.2
9224,21.23
9236,19.02
9248,16.86
9260,14.95
9272,13.29
9284,11.78
9296,10.3
9308,8.73
9319,7.02
9330,5.18
9342,3.19
9354,1.02
9366,-1.37
9378,-3.97
9390,-6.68
9402,-9.33
9414,-11.71
9426,-13.63
9438,-15.06
9450,-16.13
9462,-17.14
9474,-18.56
9486,-20.79
9498,-24.1
9509,-28.34
9520,-32.9
9532,-36.76
9544,-38.78
9556,-38.06
9568,-34.29
9580,-27.78
9592,-19.41
9604,-10.23
9616,-1.23
9628,6.97
9640,13.99
9652,19.65
9664,23.81
9676,26.39
9688,27.4
9699,27.05
9710,25.71
9722,23.8
9734,21.71
9746,19.66
9758,17.81
9770,16.29
9782,15.27
9794,14.96
9806,15.45
9818,16.67
9830,18.34
9842,20.12
9854,21.63
9866,22.65
9878,23.13
9889,23.12
9900,22.71
9912,22.01
9924,21.02
9936,19.75
9948,18.16
9960,16.23
9972,14.0
9984,11.57
9996,9.08
10008,6.75
10020,4.68
10032,2.86
10044,1.13
10056,-0.77
10068,-3.02
10079,-5.63
10090,-8.39
10102,-10.98
10114,-13.1
10126,-14.65
10138,-15.76
10150,-16.74
10162,-17.94
10174,-19.7
10186,-22.26
10198,-25.68
10210,-29.78
10222,-34.05
10234,-37.62
10246,-39.48
10258,-38.72
10269,-34.94
10280,-28.42
10292,-20.02
10304,-10.89
10316,-2.11
10328,5.6
10340,11.94
10352,16.92
10364,20.67
10376,23.33
10388,24.96
10400,25.64
10412,25.43
10424,24.49
10436,23.01
10448,21.18
10459,19.24
10470,17.44
10482,16.03
10494,15.23
10506,15.23
10518,16.04
10530,17.5
10542,19.27
10554,20.92
10566,22.1
10578,22.58
10590,22.33
10602,21.48
10614,20.19
10626,18.63
10638,16.88
10649,15.0
10660,13.02
10672,11.03
10684,9.08
10696,7.18
10708,5.36
10720,3.6
10732,1.89
10744,0.17
10756,-1.64
10768,-3.63
10780,-5.82
10792,-8.16
10804,-10.48
10816,-12.59
10828,-14.36
10839,-15.81
10850,-17.11
10862,-18.51
10874,-20.27
10886,-22.62
10898,-25.65
10910,-29.31
10922,-33.28
10934,-36.98
10946,-39.58
10958,-40.22
10970,-38.27
10982,-33.59
10994,-26.62
11006,-18.26
11018,-9.6
11029,-1.57
11040,5.19
11052,10.46
11064,14.26
11076,16.75
11088,18.12
11100,18.57
11112,18.3
11124,17.5
11136,16.38
11148,15.13
11160,13.93
11172,12.94
11184,12.31
11196,12.17
11208,12.58
11219,13.48
11230,14.68
11242,15.96
11254,17.07
11266,17.87
11278,18.29
11290,18.35
11302,18.09
11314,17.53
11326,16.74
11338,15.8
11350,14.77
11362,13.72
11374,12.59
11386,11.24
11398,9.54
11409,7.46
11420,5.12
11432,2.77
11444,0.7
11456,-0.92
11468,-2.1
11480,-2.99
11492,-3.84
11504,-4.87
11516,-6.16
11528,-7.72
11540,-9.46
11552,-11.27
11564,-13.07
11576,-14.8
11588,-16.51
11599,-18.28
11610,-20.27
11622,-22.64
11634,-25.5
11646,-28.75
11658,-32.04
11670,-34.78
11682,-36.2
11694,-35.64
11706,-32.77
11718,-27.74
11730,-21.15
11742,-13.87
11754,-6.69
11766,-0.16
11778,5.46
11789,10.11
11800,13.71
11812,16.19
11824,17.39
11836,17.28
11848,16.02
11860,13.95
11872,11.55
11884,9.27
11896,7.49
11908,6.4
11920,6.07
11932,6.47
11944,7.47
11956,8.9
11968,10.55
11979,12.2
11990,13.64
12002,14.69
12014,15.24
12026,15.27
12038,14.81
12050,13.98
12062,12.91
12074,11.71
12086,10.45
12098,9.13
12110,7.76
12122,6.33
12134,4.87
12146,3.43
12158,2.03
12169,0.64
12180,-0.84
12192,-2.47
12204,-4.25
12216,-6.09
12228,-7.82
12240,-9.32
12252,-10.56
12264,-11.61
12276,-12.61
12288,-13.72
12300,-15.02
12312,-16.61
12324,-18.55
12336,-20.88
12348,-23.53
12359,-26.14
12370,-28.06
12382,-28.53
12394,-26.88
12406,-22.94
12418,-17.11
12430,-10.24
12442,-3.29
12454,3.01
12466,8.35
12478,12.72
12490,16.18
12502,18.65
12514,19.9
12526,19.75
12538,18.24
12549,15.82
12560,13.16
12572,10.91
12584,9.43
12596,8.71
12608,8.53
12620,8.63
12632,8.91
12644,9.44
12656,10.33
12668,11.6
12680,13.11
12692,14.54
12704,15.55
12716,15.88
12728,15.45
12739,14.35
12750,12.82
12762,11.15
12774,9.58
12786,8.24
12798,7.1
12810,6.0
12822,4.78
12834,3.34
12846,1.74
12858,0.1
12870,-1.43
12882,-2.77
12894,-3.92
12906,-4.95
12918,-5.98
12929,-7.09
12940,-8.41
12952,-9.96
12964,-11.75
12976,-13.71
12988,-15.71
13000,-17.61
13012,-19.31
13024,-20.88
13036,-22.48
13048,-24.35
13060,-26.66
13072,-29.35
13084,-32.05
13096,-34.13
13108,-34.84
13119,-33.59
13130,-30.13
13142,-24.68
13154,-17.86
13166,-10.46
13178,-3.27
13190,3.14
13202,8.46
13214,12.58
13226,15.51
13238,17.28
13250,17.97
13262,17.74
13274,16.81
13286,15.48
13298,14.08
13309,12.85
13320,11.99
13332,11.61
13344,11.73
13356,12.35
13368,13.39
13380,14.77
13392,16.31
13404,17.84
13416,19.16
13428,20.09
13440,20.52
13452,20.33
13464,19.54
13476,18.21
13488,16.53
13499,14.72
13510,13.01
13522,11.52
13534,10.19
13546,8.89
13558,7.5
13570,5.97
13582,4.38
13594,2.89
13606,1.65
13618,0.63
13630,-0.29
13642,-1.34
13654,-2.71
13666,-4.46
13678,-6.53
13689,-8.71
13700,-10.82
13712,-12.69
13724,-14.29
13736,-15.65
13748,-16.86
13760,-18.02
13772,-19.22
13784,-20.6
13796,-22.32
13808,-24.56
13820,-27.42
13832,-30.76
13844,-34.08
13856,-36.62
13868,-37.48
13879,-36.06
13890,-32.21
13902,-26.37
13914,-19.38
13926,-12.15
13938,-5.4
13950,0.44
13962,5.27
13974,9.08
13986,11.9
13998,13.72
14010,14.51
14022,14.33
14034,13.35
14046,11.85
14058,10.19
14069,8.7
14080,7.64
14092,7.14
14104,7.18
14116,7.65
14128,8.37
14140,9.17
14152,9.91
14164,10.55
14176,11.1
14188,11.59
14200,12.03
14212,12.41
14224,12.61
14236,12.54
14248,12.11
14259,11.32
14270,10.29
14282,9.18
14294,8.08
14306,7.0
14318,5.83
14330,4.46
14342,2.91
14354,1.33
14366,-0.05
14378,-1.07
14390,-1.71
14402,-2.16
14414,-2.69
14426,-3.56
14438,-4.86
14449,-6.51
14460,-8.32
14472,-10.07
14484,-11.57
14496,-12.78
14508,-13.71
14520,-14.49
14532,-15.31
14544,-16.44
14556,-18.14
14568,-20.54
14580,-23.54
14592,-26.69
14604,-29.26
14616,-30.44
14628,-29.59
14639,-26.48
14650,-21.35
14662,-14.9
14674,-8.0
14686,-1.46
14698,4.16
14710,8.63
14722,11.91
14734,14.11
14746,15.38
14758,15.81
14770,15.56
14782,14.74
14794,13.56
14806,12.26
14818,11.06
14829,10.15
14840,9.61
14852,9.45
14864,9.61
14876,10.05
14888,10.75
14900,11.66
14912,12.7
14924,13.73
14936,14.57
14948,15.03
14960,14.99
14972,14.41
14984,13.27
14996,11.62
15008,9.57
15019,7.3
15030,5.07
15042,3.13
15054,1.67
15066,0.68
15078,-0.04
15090,-0.82
15102,-1.92
15114,-3.42
15126,-5.21
15138,-7.03
15150,-8.63
15162,-9.87
15174,-10.78
15186,-11.53
15198,-12.31
15209,-13.33
15220,-14.74
15232,-16.68
15244,-19.22
15256,-22.34
15268,-25.73
15280,-28.84
15292,-30.89
15304,-31.06
15316,-28.81
15328,-24.09
15340,-17.44
15352,-9.78
15364,-2.21
15376,4.4
15388,9.56
15399,13.18
15410,15.46
15422,16.7
15434,17.11
15446,16.84
15458,16.0
15470,14.72
15482,13.2
15494,11.7
15506,10.48
15518,9.77
15530,9.68
15542,10.23
15554,11.27
15566,12.6
15578,13.95
15589,15.09
15600,15.82
15612,16.07
15624,15.87
15636,15.28
15648,14.41
15660,13.38
15672,12.22
15684,10.96
15696,9.62
15708,8.24
15720,6.83
15732,5.44
15744,4.05
15756,2.58
15768,0.96
15779,-0.86
15790,-2.86
15802,-4.95
15814,-7.03
15826,-9.03
15838,-10.89
15850,-12.62
15862,-14.23
15874,-15.71
15886,-17.05
15898,-18.34
15910,-19.75
15922,-21.56
15934,-24.03
15946,-27.25
15958,-30.98
15969,-34.59
15980,-37.2
15992,-37.95
16004,-36.25
16016,-32.02
16028,-25.71
16040,-18.16
16052,-10.29
16064,-2.92
16076,3.46
16088,8.63
16100,12.59
16112,15.41
16124,17.18
16136,17.97
16148,17.9
16159,17.19
16170,16.14
16182,15.07
16194,14.24
16206,13.75
16218,13.55
16230,13.56
16242,13.71
16254,14.06
16266,14.71
16278,15.72
16290,17.02
16302,18.39
16314,19.49
16326,20.06
16338,19.93
16349,19.13
16360,17.85
16372,16.32
16384,14.75
16396,13.26
16408,11.84
16420,10.42
16432,8.86
16444,7.11
16456,5.19
16468,3.26
16480,1.46
16492,-0.07
16504,-1.34
16516,-2.46
16528,-3.57
16539,-4.84
16550,-6.36
16562,-8.16
16574,-10.19
16586,-12.34
16598,-14.44
16610,-16.3
16622,-17.84
16634,-19.11
16646,-20.42
16658,-22.19
16670,-24.83
16682,-28.51
16694,-32.92
16706,-37.29
16718,-40.58
16729,-41.73
16740,-40.04
16752,-35.44
16764,-28.46
16776,-20.14
16788,-11.63
16800,-3.87
16812,2.61
16824,7.73
16836,11.73
16848,14.91
16860,17.41
16872,19.22
16884,20.24
16896,20.4
16908,19.81
16919,18.72
16930,17.44
16942,16.21
16954,15.17
16966,14.36
16978,13.84
16990,13.76
17002,14.29
17014,15.53
17026,17.4
17038,19.56
17050,21.49
17062,22.7
17074,22.87
17086,22.04
17098,20.51
17109,18.7
17120,17.01
17132,15.61
17144,14.44
17156,13.29
17168,11.96
17180,10.32
17192,8.4
17204,6.34
17216,4.31
17228,2.42
17240,0.7
17252,-0.88
17264,-2.41
17276,-3.96
17288,-5.55
17299,-7.19
17310,-8.82
17322,-10.39
17334,-11.87
17346,-13.27
17358,-14.66
17370,-16.14
17382,-17.88
17394,-20.08
17406,-22.85
17418,-26.09
17430,-29.37
17442,-31.98
17454,-33.11
17466,-32.11
17478,-28.75
17489,-23.33
17500,-16.5
17512,-9.1
17524,-1.86
17536,4.7
17548,10.24
17560,14.61
17572,17.67
17584,19.42
17596,19.93
17608,19.38
17620,18.07
17632,16.35
17644,14.52
17656,12.86
17668,11.59
17679,10.82
17690,10.59
17702,10.87
17714,11.51
17726,12.38
17738,13.32
17750,14.27
17762,15.19
17774,16.01
17786,16.64
17798,16.93
17810,16.73
17822,15.98
17834,14.72
17846,13.07
17858,11.24
17869,9.4
17880,7.68
17892,6.08
17904,4.57
17916,3.07
17928,1.49
17940,-0.23
17952,-2.09
17964,-4.06
17976,-6.02
17988,-7.84
18000,-9.38
18012,-10.59
18024,-11.57
18036,-12.51
18048,-13.71
18059,-15.4
18070,-17.7
18082,-20.57
18094,-23.82
18106,-27.06
18118,-29.77
18130,-31.31
18142,-31.06
18154,-28.62
18166,-23.98
18178,-17.53
18190,-10.04
18202,-2.39
18214,4.67
18226,10.63
18238,15.31
18249,18.7
18260,20.91
18272,22.01
18284,22.08
18296,21.21
18308,19.56
18320,17.39
18332,15.02
18344,12.81
18356,11.13
18368,10.24
18380,10.22
18392,10.96
18404,12.2
18416,13.64
18428,15.04
18439,16.25
18450,17.21
18462,17.85
18474,18.1
18486,17.9
18498,17.24
18510,16.22
18522,15.02
18534,13.84
18546,12.74
18558,11.69
18570,10.55
18582,9.15
18594,7.47
18606,5.54
18618,3.51
18629,1.53
18640,-0.3
18652,-1.88
18664,-3.19
18676,-4.23
18688,-5.07
18700,-5.88
18712,-6.85
18724,-8.16
18736,-9.87
18748,-11.89
18760,-14.01
18772,-16.02
18784,-17.79
18796,-19.34
18808,-20.78
18819,-22.29
18830,-24.13
18842,-26.53
18854,-29.58
18866,-33.11
18878,-36.58
18890,-39.13
18902,-39.79
18914,-37.85
18926,-33.16
18938,-26.21
18950,-17.96
18962,-9.51
18974,-1.7
18986,4.95
18998,10.3
19009,14.36
19020,17.19
19032,18.86
19044,19.44
19056,19.12
19068,18.17
19080,16.91
19092,15.61
19104,14.47
19116,13.55
19128,12.88
19140,12.47
19152,12.36
19164,12.59
19176,13.14
19188,13.96
19199,14.9
19210,15.83
19222,16.62
19234,17.16
19246,17.39
19258,17.24
19270,16.68
19282,15.75
19294,14.56
19306,13.3
19318,12.12
19330,11.09
19342,10.11
19354,9.03
19366,7.65
19378,5.95
19389,4.01
19400,2.06
19412,0.32
19424,-1.05
19436,-1.99
19448,-2.59
19460,-3.01
19472,-3.46
19484,-4.11
19496,-5.12
19508,-6.58
19520,-8.46
19532,-10.63
19544,-12.83
19556,-14.84
19568,-16.43
19579,-17.54
19590,-18.29
19602,-18.96
19614,-19.91
19626,-21.52
19638,-24.02
19650,-27.38
19662,-31.25
19674,-34.94
19686,-37.6
19698,-38.37
19710,-36.69
19722,-32.44
19734,-26.04
19746,-18.3
19758,-10.22
19769,-2.71
19780,3.68
19792,8.69
19804,12.4
19816,15.01
19828,16.73
19840,17.68
19852,17.9
19864,17.39
19876,16.25
19888,14.72
19900,13.13
19912,11.89
19924,11.27
19936,11.34
19948,11.95
19959,12.85
19970,13.81
19982,14.71
19994,15.59
20006,16.47
20018,17.32
20030,17.96
20042,18.19
20054,17.88
20066,17.08
20078,16.0
20090,14.89
20102,13.92
20114,13.08
20126,12.23
20138,11.2
20149,9.93
20160,8.48
20172,6.99
20184,5.59
20196,4.3
20208,3.1
20220,1.91
20232,0.73
20244,-0.45
20256,-1.58
20268,-2.63
20280,-3.65
20292,-4.69
20304,-5.85
20316,-7.16
20328,-8.66
20339,-10.36
20350,-12.23
20362,-14.2
20374,-16.19
20386,-18.07
20398,-19.77
20410,-21.29
20422,-22.75
20434,-24.39
20446,-26.44
20458,-29.0
20470,-31.87
20482,-34.55
20494,-36.28
20506,-36.27
20518,-34.0
20529,-29.38
20540,-22.84
20552,-15.2
20564,-7.39
20576,-0.25
20588,5.68
20600,10.14
20612,13.12
20624,14.78
20636,15.31
20648,14.98
20660,14.04
20672,12.73
20684,11.3
20696,10.0
20708,9.04
20719,8.54
20730,8.56
20742,9.0
20754,9.72
20766,10.5
20778,11.19
20790,11.79
20802,12.35
20814,13.01
20826,13.86
20838,14.83
20850,15.71
20862,16.23
20874,16.12
20886,15.25
20898,13.7
20909,11.7
20920,9.61
20932,7.74
20944,6.23
20956,5.01
20968,3.89
20980,2.7
20992,1.35
