seconds,BVP
2,-2.03
14,7.09
26,14.84
38,20.7
50,24.62
62,26.83
74,27.72
86,27.65
98,26.88
110,25.55
122,23.75
134,21.52
145,18.96
156,16.29
168,13.77
180,11.69
192,10.23
204,9.48
216,9.33
228,9.58
240,9.98
252,10.34
264,10.55
276,10.5
288,10.1
300,9.3
312,8.09
324,6.5
335,4.65
346,2.69
358,0.72
370,-1.15
382,-2.93
394,-4.67
406,-6.42
418,-8.27
430,-10.29
442,-12.45
454,-14.65
466,-16.79
478,-18.7
490,-20.29
502,-21.54
514,-22.57
525,-23.57
536,-24.75
548,-26.22
560,-27.96
572,-29.7
584,-30.98
596,-31.13
608,-29.51
620,-25.69
632,-19.66
644,-11.84
656,-3.05
668,5.71
680,13.55
692,19.88
704,24.44
715,27.2
726,28.3
738,27.89
750,26.15
762,23.38
774,19.93
786,16.22
798,12.71
810,9.66
822,7.2
834,5.33
846,3.98
858,3.09
870,2.61
882,2.51
894,2.7
905,3.06
916,3.44
928,3.7
940,3.74
952,3.52
964,3.04
976,2.31
988,1.4
1000,0.35
1012,-0.75
1024,-1.94
1036,-3.26
1048,-4.89
1060,-6.97
1072,-9.58
1084,-12.63
1095,-15.9
1106,-19.13
1118,-22.06
1130,-24.56
1142,-26.58
1154,-28.17
1166,-29.41
1178,-30.45
1190,-31.42
1202,-32.33
1214,-33.1
1226,-33.38
1238,-32.69
1250,-30.53
1262,-26.6
1274,-20.86
1285,-13.56
1296,-5.17
1308,3.84
1320,12.89
1332,21.46
1344,29.03
1356,35.17
1368,39.65
1380,42.52
1392,44.02
1404,44.51
1416,44.26
1428,43.37
1440,41.86
1452,39.78
1464,37.32
1475,34.81
1486,32.51
1498,30.58
1510,28.95
1522,27.49
1534,25.99
1546,24.47
1558,23.04
1570,21.88
1582,21.09
1594,20.6
1606,20.1
1618,19.15
1630,17.33
1642,14.42
1654,10.57
1665,6.23
1676,2.01
1688,-1.59
1700,-4.37
1712,-6.44
1724,-8.19
1736,-9.99
1748,-12.07
1760,-14.45
1772,-17.03
1784,-19.69
1796,-22.33
1808,-24.89
1820,-27.25
1832,-29.27
1844,-30.87
1855,-32.07
1866,-33.09
1878,-34.18
1890,-35.53
1902,-37.02
1914,-38.27
1926,-38.57
1938,-37.27
1950,-33.89
1962,-28.33
1974,-20.96
1986,-12.48
1998,-3.77
2010,4.34
2022,11.21
2034,16.49
2045,20.12
2056,22.21
2068,23.03
2080,22.81
2092,21.83
2104,20.19
2116,17.99
2128,15.37
2140,12.59
2152,10.02
2164,8.06
2176,6.98
2188,6.83
2200,7.44
2212,8.42
2224,9.38
2235,10.08
2246,10.43
2258,10.5
2270,10.29
2282,9.8
2294,8.9
2306,7.57
2318,5.81
2330,3.72
2342,1.4
2354,-1.09
2366,-3.74
2378,-6.55
2390,-9.43
2402,-12.21
2414,-14.69
2425,-16.78
2436,-18.6
2448,-20.35
2460,-22.28
2472,-24.41
2484,-26.53
2496,-28.22
2508,-28.91
2520,-28.16
2532,-25.72
2544,-21.56
2556,-15.91
2568,-9.21
2580,-2.02
2592,5.06
2604,11.46
2615,16.77
2626,20.75
2638,23.35
2650,24.66
2662,24.83
2674,24.01
2686,22.35
2698,20.01
2710,17.2
2722,14.21
2734,11.41
2746,9.16
2758,7.81
2770,7.47
2782,8.03
2794,9.15
2805,10.4
2816,11.38
2828,11.91
2840,11.98
2852,11.69
2864,11.12
2876,10.3
2888,9.17
2900,7.66
2912,5.81
2924,3.72
2936,1.57
2948,-0.47
2960,-2.36
2972,-4.16
2984,-6.01
2995,-8.03
3006,-10.3
3018,-12.73
3030,-15.15
3042,-17.31
3054,-18.99
3066,-20.1
3078,-20.74
3090,-21.19
3102,-21.8
3114,-22.87
3126,-24.54
3138,-26.76
3150,-29.26
3162,-31.58
3174,-33.14
3185,-33.31
3196,-31.56
3208,-27.56
3220,-21.35
3232,-13.32
3244,-4.24
3256,5.01
3268,13.52
3280,20.6
3292,25.84
3304,29.14
3316,30.62
3328,30.57
3340,29.35
3352,27.32
3364,24.83
3375,22.15
3386,19.5
3398,17.0
3410,14.73
3422,12.78
3434,11.25
3446,10.26
3458,9.89
3470,10.17
3482,11.01
3494,12.16
3506,13.36
3518,14.29
3530,14.7
3542,14.49
3554,13.57
3565,11.96
3576,9.76
3588,7.16
3600,4.37
3612,1.67
3624,-0.73
3636,-2.76
3648,-4.48
3660,-6.09
3672,-7.83
3684,-9.93
3696,-12.41
3708,-15.19
3720,-18.06
3732,-20.82
3744,-23.39
3755,-25.8
3766,-28.14
3778,-30.44
3790,-32.57
3802,-34.2
3814,-34.89
3826,-34.2
3838,-31.81
3850,-27.63
3862,-21.77
3874,-14.56
3886,-6.49
3898,1.83
3910,9.79
3922,16.8
3934,22.49
3945,26.64
3956,29.25
3968,30.48
3980,30.47
3992,29.41
4004,27.41
4016,24.65
4028,21.37
4040,17.96
4052,14.82
4064,12.34
4076,10.72
4088,9.92
4100,9.75
4112,9.92
4124,10.24
4135,10.6
4146,10.93
4158,11.23
4170,11.39
4182,11.23
4194,10.5
4206,9.03
4218,6.82
4230,4.12
4242,1.28
4254,-1.3
4266,-3.39
4278,-5.02
4290,-6.37
4302,-7.73
4314,-9.27
4325,-10.98
4336,-12.68
4348,-14.17
4360,-15.37
4372,-16.37
4384,-17.45
4396,-18.94
4408,-21.06
4420,-23.82
4432,-26.97
4444,-29.99
4456,-32.21
4468,-32.97
4480,-31.73
4492,-28.25
4504,-22.63
4515,-15.27
4526,-6.97
4538,1.4
4550,9.02
4562,15.29
4574,19.93
4586,22.95
4598,24.54
4610,24.95
4622,24.42
4634,23.13
4646,21.21
4658,18.85
4670,16.21
4682,13.55
4694,11.12
4705,9.13
4716,7.74
4728,7.05
4740,7.01
4752,7.43
4764,8.07
4776,8.62
4788,8.9
4800,8.77
4812,8.17
4824,7.11
4836,5.61
4848,3.71
4860,1.52
4872,-0.77
4884,-2.99
4895,-4.95
4906,-6.61
4918,-8.04
4930,-9.36
4942,-10.71
4954,-12.14
4966,-13.65
4978,-15.18
4990,-16.78
5002,-18.5
5014,-20.45
5026,-22.72
5038,-25.25
5050,-27.8
5062,-29.92
5074,-30.98
5085,-30.33
5096,-27.48
5108,-22.27
5120,-14.99
5132,-6.44
5144,2.36
5156,10.38
5168,16.94
5180,21.74
5192,24.86
5204,26.58
5216,27.21
5228,26.95
5240,25.9
5252,24.16
5264,21.88
5275,19.27
5286,16.56
5298,13.93
5310,11.53
5322,9.48
5334,7.89
5346,6.89
5358,6.62
5370,7.04
5382,7.97
5394,9.05
5406,9.86
5418,10.07
5430,9.55
5442,8.38
5454,6.76
5465,4.92
5476,2.99
5488,0.96
5500,-1.24
5512,-3.69
5524,-6.4
5536,-9.32
5548,-12.32
5560,-15.28
5572,-18.09
5584,-20.62
5596,-22.78
5608,-24.53
5620,-25.9
5632,-27.04
5644,-28.14
5655,-29.35
5666,-30.6
5678,-31.58
5690,-31.76
5702,-30.51
5714,-27.32
5726,-22.03
5738,-14.84
5750,-6.43
5762,2.31
5774,10.52
5786,17.5
5798,22.91
5810,26.72
5822,29.12
5834,30.3
5845,30.41
5856,29.51
5868,27.66
5880,25.06
5892,22.02
5904,18.97
5916,16.24
5928,14.06
5940,12.45
5952,11.38
5964,10.79
5976,10.6
5988,10.75
6000,11.15
6012,11.57
6024,11.75
6035,11.43
6046,10.49
6058,8.98
6070,7.09
6082,5.1
6094,3.24
6106,1.63
6118,0.26
6130,-0.98
6142,-2.28
6154,-3.77
6166,-5.49
6178,-7.41
6190,-9.49
6202,-11.65
6214,-13.85
6225,-16.01
6236,-18.03
6248,-19.9
6260,-21.67
6272,-23.51
6284,-25.61
6296,-28.05
6308,-30.63
6320,-32.88
6332,-34.02
6344,-33.21
6356,-29.86
6368,-23.8
6380,-15.36
6392,-5.43
6404,4.86
6415,14.32
6426,21.96
6438,27.22
6450,30.09
6462,30.89
6474,30.16
6486,28.44
6498,26.14
6510,23.49
6522,20.61
6534,17.58
6546,14.57
6558,11.82
6570,9.56
6582,8.01
6594,7.25
6605,7.27
6616,7.95
6628,9.07
6640,10.33
6652,11.41
6664,12.05
6676,12.08
6688,11.46
6700,10.28
6712,8.64
6724,6.69
6736,4.51
6748,2.18
6760,-0.27
6772,-2.82
6784,-5.47
6795,-8.22
6806,-11.08
6818,-13.96
6830,-16.77
6842,-19.38
6854,-21.74
6866,-23.85
6878,-25.84
6890,-27.86
6902,-29.93
6914,-31.98
6926,-33.73
6938,-34.77
6950,-34.64
6962,-32.88
6974,-29.17
6985,-23.49
6996,-16.19
7008,-7.94
7020,0.37
7032,7.79
7044,13.6
7056,17.38
7068,19.18
7080,19.36
7092,18.44
7104,16.93
7116,15.12
7128,13.08
7140,10.77
7152,8.17
7164,5.38
7175,2.72
7186,0.54
7198,-0.82
7210,-1.17
7222,-0.48
7234,1.11
7246,3.39
7258,6.08
7270,8.85
7282,11.39
7294,13.38
7306,14.62
7318,15.04
7330,14.75
7342,13.94
7354,12.83
7365,11.55
7376,10.06
7388,8.26
7400,6.05
7412,3.38
7424,0.35
7436,-2.85
7448,-6.03
7460,-9.08
7472,-11.94
7484,-14.64
7496,-17.24
7508,-19.76
7520,-22.19
7532,-24.37
7544,-25.98
7555,-26.51
7566,-25.3
7578,-21.84
7590,-16.08
7602,-8.56
7614,-0.38
7626,7.16
7638,12.98
7650,16.5
7662,17.69
7674,17.0
7686,15.03
7698,12.51
7710,10.22
7722,8.96
7734,9.49
7745,12.26
7756,17.13
7768,23.3
7780,29.57
7792,34.64
7804,37.59
7816,38.2
7828,36.87
7840,34.4
7852,31.53
7864,28.73
7876,26.11
7888,23.65
7900,21.45
7912,19.91
7924,19.62
7935,21.1
7946,24.46
7958,29.35
7970,35.07
7982,40.89
7994,46.31
8006,51.14
8018,55.25
8030,58.49
8042,60.53
8054,61.11
8066,60.29
8078,58.44
8090,56.06
8102,53.25
8114,49.46
8125,43.71
8136,35.14
8148,23.69
8160,10.44
8172,-2.71
8184,-13.85
8196,-21.93
8208,-27.15
8220,-30.68
8232,-33.89
8244,-37.51
8256,-41.22
8268,-43.83
8280,-43.91
8292,-40.45
8304,-33.32
8315,-23.21
8326,-11.35
8338,0.94
8350,12.47
8362,22.3
8374,29.61
8386,33.73
8398,34.16
8410,30.79
8422,24.12
8434,15.28
8446,5.84
8458,-2.61
8470,-8.89
8482,-12.52
8494,-13.82
8505,-13.77
8516,-13.59
8528,-14.4
8540,-16.86
8552,-20.89
8564,-25.79
8576,-30.44
8588,-33.75
8600,-35.02
8612,-34.23
8624,-31.99
8636,-29.35
8648,-27.4
8660,-27.03
8672,-28.74
8684,-32.68
8695,-38.66
8706,-46.21
8718,-54.55
8730,-62.45
8742,-68.39
8754,-70.78
8766,-68.45
8778,-61.05
8790,-49.21
8802,-34.48
8814,-18.82
8826,-4.12
8838,8.38
8850,18.23
8862,25.63
8874,31.16
8885,35.39
8896,38.69
8908,41.14
8920,42.6
8932,42.82
8944,41.55
8956,38.69
8968,34.34
8980,28.84
8992,22.63
9004,16.31
9016,10.39
9028,5.27
9040,1.23
9052,-1.51
9064,-2.85
9075,-2.91
9086,-1.93
9098,-0.41
9110,1.11
9122,2.18
9134,2.54
9146,2.13
9158,0.96
9170,-0.96
9182,-3.65
9194,-6.91
9206,-10.36
9218,-13.4
9230,-15.56
9242,-16.75
9254,-17.38
9265,-18.13
9276,-19.54
9288,-21.65
9300,-23.79
9312,-25.07
9324,-24.82
9336,-22.98
9348,-20.23
9360,-17.58
9372,-15.9
9384,-15.58
9396,-16.51
9408,-18.31
9420,-20.74
9432,-23.88
9444,-27.94
9455,-33.0
9466,-38.7
9478,-44.21
9490,-48.56
9502,-51.04
9514,-51.52
9526,-50.39
9538,-48.31
9550,-45.77
9562,-42.96
9574,-39.72
9586,-35.87
9598,-31.42
9610,-26.71
9622,-22.27
9634,-18.63
9645,-16.12
9656,-14.83
9668,-14.64
9680,-15.35
9692,-16.74
9704,-18.6
9716,-20.71
9728,-22.87
9740,-24.88
9752,-26.64
9764,-28.12
9776,-29.4
9788,-30.6
9800,-31.73
9812,-32.57
9824,-32.73
9835,-31.61
9846,-28.66
9858,-23.58
9870,-16.5
9882,-7.92
9894,1.29
9906,10.19
9918,17.99
9930,24.25
9942,28.84
9954,31.89
9966,33.68
9978,34.49
9990,34.54
10002,33.96
10014,32.83
10025,31.16
10036,29.03
10048,26.55
10060,23.96
10072,21.55
10084,19.61
10096,18.36
10108,17.87
10120,18.09
10132,18.77
10144,19.58
10156,20.13
10168,20.16
10180,19.48
10192,18.05
10204,15.99
10215,13.41
10226,10.51
10238,7.5
10250,4.52
10262,1.7
10274,-0.82
10286,-2.96
10298,-4.71
10310,-6.11
10322,-7.34
10334,-8.63
10346,-10.18
10358,-12.11
10370,-14.46
10382,-17.11
10394,-19.86
10405,-22.49
10416,-24.68
10428,-26.08
10440,-26.24
10452,-24.73
10464,-21.29
10476,-16.05
10488,-9.48
10500,-2.45
10512,4.15
10524,9.74
10536,14.06
10548,17.27
10560,19.65
10572,21.36
10584,22.43
10595,22.76
10606,22.3
10618,21.2
10630,19.75
10642,18.21
10654,16.7
10666,15.19
10678,13.52
10690,11.68
10702,9.84
10714,8.28
10726,7.24
10738,6.8
10750,6.79
10762,6.91
10774,6.87
10785,6.46
10796,5.62
10808,4.4
10820,2.89
10832,1.14
10844,-0.79
10856,-2.88
10868,-5.01
10880,-7.02
10892,-8.79
10904,-10.21
10916,-11.32
10928,-12.25
10940,-13.21
10952,-14.38
10964,-15.83
10975,-17.55
10986,-19.46
10998,-21.47
11010,-23.4
11022,-25.04
11034,-26.0
11046,-25.8
11058,-23.92
11070,-20.07
11082,-14.21
11094,-6.58
11106,2.31
11118,11.91
11130,21.62
11142,30.87
11154,39.04
11165,45.52
11176,49.69
11188,51.07
11200,49.47
11212,45.05
11224,38.38
11236,30.35
11248,21.99
11260,14.21
11272,7.58
11284,2.07
11296,-2.87
11308,-8.2
11320,-14.81
11332,-23.03
11344,-32.4
11355,-41.6
11366,-48.86
11378,-52.68
11390,-52.33
11402,-48.18
11414,-41.55
11426,-34.18
11438,-27.38
11450,-21.64
11462,-16.52
11474,-11.05
11486,-4.23
11498,4.8
11510,16.63
11522,31.52
11534,49.08
11545,68.02
11556,86.08
11568,100.58
11580,109.19
11592,110.73
11604,105.42
11616,94.5
11628,79.44
11640,61.28
11652,40.6
11664,17.95
11676,-5.3
11688,-26.78
11700,-43.57
11712,-52.94
11724,-53.38
11735,-44.89
11746,-28.87
11758,-7.69
11770,16.06
11782,40.37
11794,64.39
11806,88.35
11818,113.14
11830,139.26
11842,166.09
11854,191.51
11866,212.2
11878,224.51
11890,225.36
11902,213.01
11914,187.43
11925,150.47
11936,105.64
11948,57.61
11960,11.36
11972,-28.92
11984,-60.67
11996,-83.37
12008,-98.04
12020,-106.52
12032,-110.71
12044,-112.23
12056,-112.45
12068,-112.69
12080,-114.08
12092,-117.08
12104,-121.13
12115,-124.42
12126,-124.5
12138,-119.13
12150,-107.3
12162,-89.84
12174,-69.31
12186,-49.36
12198,-33.62
12210,-24.49
12222,-22.32
12234,-25.32
12246,-30.35
12258,-34.11
12270,-34.41
12282,-30.7
12294,-23.96
12305,-15.76
12316,-7.5
12328,0.17
12340,7.24
12352,13.95
12364,20.18
12376,25.45
12388,29.04
12400,30.48
12412,29.88
12424,27.93
12436,25.76
12448,24.47
12460,24.81
12472,26.75
12484,29.57
12495,32.07
12506,32.86
12518,30.92
12530,25.82
12542,17.97
12554,8.46
12566,-1.14
12578,-9.15
12590,-14.4
12602,-16.5
12614,-16.09
12626,-14.55
12638,-13.48
12650,-14.02
12662,-16.49
12674,-20.35
12685,-24.65
12696,-28.57
12708,-31.71
12720,-34.21
12732,-36.36
12744,-38.38
12756,-40.29
12768,-42.1
12780,-43.89
12792,-45.79
12804,-47.81
12816,-49.56
12828,-50.37
12840,-49.38
12852,-46.08
12864,-40.58
12875,-33.58
12886,-26.07
12898,-18.93
12910,-12.74
12922,-7.74
12934,-4.0
12946,-1.62
12958,-0.54
12970,-0.62
12982,-1.42
12994,-2.41
13006,-3.22
13018,-3.78
13030,-4.33
13042,-5.17
13054,-6.38
13065,-7.65
13076,-8.54
13088,-8.69
13100,-8.16
13112,-7.44
13124,-7.19
13136,-7.87
13148,-9.46
13160,-11.56
13172,-13.51
13184,-14.87
13196,-15.53
13208,-15.73
13220,-15.92
13232,-16.51
13244,-17.76
13255,-19.69
13266,-22.17
13278,-24.93
13290,-27.7
13302,-30.29
13314,-32.74
13326,-35.41
13338,-38.79
13350,-43.33
13362,-48.99
13374,-55.15
13386,-60.58
13398,-63.94
13410,-64.23
13422,-61.22
13434,-55.51
13445,-48.13
13456,-40.06
13468,-31.83
13480,-23.53
13492,-15.05
13504,-6.44
13516,1.87
13528,9.04
13540,13.76
13552,14.49
13564,9.75
13576,-1.4
13588,-18.87
13600,-40.95
13612,-64.13
13624,-83.62
13635,-94.3
13646,-92.4
13658,-76.75
13670,-49.35
13682,-14.74
13694,21.47
13706,54.46
13718,81.54
13730,102.26
13742,117.49
13754,128.05
13766,133.75
13778,133.51
13790,126.38
13802,112.7
13814,94.57
13825,75.1
13836,56.97
13848,41.26
13860,27.37
13872,13.91
13884,0.01
13896,-13.73
13908,-25.55
13920,-33.61
13932,-37.3
13944,-37.77
13956,-37.52
13968,-39.16
13980,-44.2
13992,-52.34
14004,-61.8
14015,-70.25
14026,-75.87
14038,-77.88
14050,-76.44
14062,-71.99
14074,-64.7
14086,-54.44
14098,-41.22
14110,-25.81
14122,-9.88
14134,4.46
14146,15.6
14158,23.23
14170,28.45
14182,33.05
14194,38.45
14205,45.02
14216,52.15
14228,58.88
14240,64.72
14252,69.82
14264,74.66
14276,79.48
14288,84.02
14300,87.71
14312,90.11
14324,91.39
14336,92.2
14348,93.27
14360,94.81
14372,96.35
14384,96.9
14395,95.57
14406,92.12
14418,87.16
14430,82.02
14442,78.09
14454,76.21
14466,76.31
14478,77.51
14490,78.44
14502,77.97
14514,75.63
14526,71.86
14538,67.96
14550,65.66
14562,66.56
14574,71.39
14585,79.59
14596,89.08
14608,96.61
14620,98.71
14632,92.87
14644,78.54
14656,57.45
14668,32.82
14680,7.72
14692,-16.42
14704,-40.44
14716,-67.0
14728,-99.2
14740,-138.8
14752,-184.82
14764,-232.85
14775,-275.75
14786,-305.23
14798,-314.16
14810,-298.75
14822,-259.8
14834,-202.65
14846,-135.63
14858,-67.79
14870,-6.72
14882,42.82
14894,79.12
14906,102.85
14918,116.06
14930,121.25
14942,120.75
14954,116.27
14965,108.74
14976,98.41
14988,85.25
15000,69.68
15012,52.82
15024,36.3
15036,21.7
15048,9.96
15060,1.22
15072,-4.81
15084,-8.32
15096,-9.05
15108,-6.55
15120,-0.87
15132,6.78
15144,14.01
15155,18.06
15166,16.99
15178,10.62
15190,0.8
15202,-9.36
15214,-16.82
15226,-19.82
15238,-18.23
15250,-13.24
15262,-6.4
15274,1.12
15286,8.84
15298,16.5
15310,23.58
15322,28.87
15334,30.9
15345,28.62
15356,22.2
15368,13.16
15380,3.77
15392,-3.91
15404,-8.85
15416,-11.37
15428,-12.54
15440,-13.48
15452,-14.68
15464,-16.01
15476,-17.07
15488,-17.66
15500,-17.96
15512,-18.35
15524,-19.04
15535,-19.85
15546,-20.3
15558,-19.94
15570,-18.77
15582,-17.34
15594,-16.46
15606,-16.83
15618,-18.62
15630,-21.26
15642,-23.8
15654,-25.24
15666,-25.05
15678,-23.46
15690,-21.24
15702,-19.3
15714,-18.16
15725,-17.57
15736,-16.57
15748,-13.97
15760,-8.99
15772,-1.71
15784,6.94
15796,15.57
15808,22.98
15820,28.58
15832,32.45
15844,35.09
15856,36.91
15868,37.96
15880,37.9
15892,36.3
15904,33.11
15915,28.69
15926,23.76
15938,18.94
15950,14.49
15962,10.18
15974,5.68
15986,0.8
15998,-4.21
16010,-8.79
16022,-12.46
16034,-15.03
16046,-16.68
16058,-17.74
16070,-18.35
16082,-18.35
16094,-17.48
16105,-15.69
16116,-13.31
16128,-10.98
16140,-9.34
16152,-8.67
16164,-8.91
16176,-9.78
16188,-11.0
16200,-12.41
16212,-14.06
16224,-15.91
16236,-17.87
16248,-19.82
16260,-21.75
16272,-23.87
16284,-26.55
16295,-30.17
16306,-34.72
16318,-39.73
16330,-44.32
16342,-47.44
16354,-48.2
16366,-46.15
16378,-41.5
16390,-34.91
16402,-27.37
16414,-19.76
16426,-12.65
16438,-6.22
16450,-0.39
16462,4.96
16474,9.77
16485,13.73
16496,16.42
16508,17.51
16520,16.99
16532,15.17
16544,12.65
16556,10.04
16568,7.81
16580,6.12
16592,4.87
16604,3.78
16616,2.71
16628,1.65
16640,0.85
16652,0.55
16664,0.85
16675,1.52
16686,2.16
16698,2.34
16710,1.84
16722,0.75
16734,-0.68
16746,-2.18
16758,-3.71
16770,-5.42
16782,-7.57
16794,-10.28
16806,-13.39
16818,-16.51
16830,-19.22
16842,-21.35
16854,-22.94
16865,-24.35
16876,-25.94
16888,-27.83
16900,-29.82
16912,-31.34
16924,-31.63
16936,-30.05
16948,-26.31
16960,-20.57
16972,-13.38
16984,-5.6
16996,1.95
17008,8.62
17020,14.1
17032,18.37
17044,21.61
17055,24.02
17066,25.7
17078,26.71
17090,27.05
17102,26.78
17114,25.94
17126,24.68
17138,23.1
17150,21.34
17162,19.57
17174,17.92
17186,16.58
17198,15.68
17210,15.28
17222,15.32
17234,15.6
17245,15.85
17256,15.78
17268,15.24
17280,14.18
17292,12.71
17304,10.96
17316,8.99
17328,6.83
17340,4.47
17352,1.91
17364,-0.8
17376,-3.62
17388,-6.51
17400,-9.41
17412,-12.25
17424,-14.98
17435,-17.45
17446,-19.6
17458,-21.48
17470,-23.25
17482,-25.1
17494,-27.1
17506,-28.95
17518,-30.16
17530,-30.09
17542,-28.22
17554,-24.35
17566,-18.7
17578,-11.82
17590,-4.4
17602,2.87
17614,9.49
17625,15.14
17636,19.7
17648,23.16
17660,25.58
17672,27.01
17684,27.52
17696,27.2
17708,26.15
17720,24.63
17732,22.86
17744,21.16
17756,19.71
17768,18.59
17780,17.74
17792,17.05
17804,16.44
17815,15.88
17826,15.43
17838,15.11
17850,14.89
17862,14.67
17874,14.25
17886,13.49
17898,12.34
17910,10.86
17922,9.21
17934,7.6
17946,6.15
17958,4.84
17970,3.51
17982,1.92
17994,-0.07
18005,-2.46
18016,-5.02
18028,-7.4
18040,-9.31
18052,-10.67
18064,-11.63
18076,-12.53
18088,-13.74
18100,-15.48
18112,-17.77
18124,-20.44
18136,-23.2
18148,-25.73
18160,-27.66
18172,-28.58
18184,-28.08
18195,-25.84
18206,-21.73
18218,-15.92
18230,-8.86
18242,-1.21
18254,6.31
18266,13.04
18278,18.53
18290,22.55
18302,25.07
18314,26.23
18326,26.32
18338,25.66
18350,24.57
18362,23.26
18374,21.84
18385,20.31
18396,18.7
18408,17.11
18420,15.77
18432,14.91
18444,14.7
18456,15.12
18468,15.93
18480,16.77
18492,17.3
18504,17.28
18516,16.68
18528,15.48
18540,13.78
18552,11.65
18564,9.17
18575,6.5
18586,3.8
18598,1.24
18610,-1.07
18622,-3.11
18634,-4.96
18646,-6.71
18658,-8.39
18670,-9.98
18682,-11.42
18694,-12.68
18706,-13.82
18718,-14.97
18730,-16.29
18742,-17.89
18754,-19.81
18765,-22.01
18776,-24.33
18788,-26.52
18800,-28.2
18812,-28.94
18824,-28.33
18836,-26.09
18848,-22.18
18860,-16.77
18872,-10.29
18884,-3.28
18896,3.68
18908,10.07
18920,15.48
18932,19.64
18944,22.35
18955,23.64
18966,23.67
18978,22.75
18990,21.23
19002,19.45
19014,17.65
19026,15.99
19038,14.55
19050,13.41
19062,12.62
19074,12.25
19086,12.33
19098,12.87
19110,13.79
19122,14.94
19134,16.13
19145,17.07
19156,17.53
19168,17.29
19180,16.33
19192,14.78
19204,12.96
19216,11.2
19228,9.72
19240,8.6
19252,7.72
19264,6.91
19276,5.97
19288,4.76
19300,3.21
19312,1.37
19324,-0.68
19335,-2.81
19346,-4.89
19358,-6.84
19370,-8.64
19382,-10.32
19394,-11.96
19406,-13.6
19418,-15.26
19430,-16.89
19442,-18.5
19454,-20.09
19466,-21.71
19478,-23.36
19490,-24.95
19502,-26.22
19514,-26.77
19525,-26.1
19536,-23.85
19548,-19.89
19560,-14.43
19572,-7.97
19584,-1.16
19596,5.38
19608,11.27
19620,16.33
19632,20.51
19644,23.78
19656,26.04
19668,27.17
19680,27.18
19692,26.24
19704,24.7
19715,22.9
19726,21.09
19738,19.32
19750,17.54
19762,15.72
19774,13.91
19786,12.29
19798,11.1
19810,10.51
19822,10.5
19834,10.86
19846,11.26
19858,11.4
19870,11.16
19882,10.56
19894,9.77
19905,9.02
19916,8.37
19928,7.79
19940,7.1
19952,6.15
19964,4.83
19976,3.18
19988,1.32
20000,-0.64
20012,-2.64
20024,-4.64
20036,-6.6
20048,-8.45
20060,-10.11
20072,-11.53
20084,-12.8
20095,-14.13
20106,-15.78
20118,-17.9
20130,-20.49
20142,-23.32
20154,-26.09
20166,-28.48
20178,-30.24
20190,-31.19
20202,-31.15
20214,-29.93
20226,-27.35
20238,-23.43
20250,-18.39
20262,-12.65
20274,-6.76
20285,-1.17
20296,3.81
20308,8.09
20320,11.62
20332,14.43
20344,16.47
20356,17.67
20368,18.04
20380,17.66
20392,16.73
20404,15.45
20416,13.97
20428,12.39
20440,10.75
20452,9.11
20464,7.56
20475,6.3
20486,5.48
20498,5.21
20510,5.43
20522,5.98
20534,6.6
20546,7.06
20558,7.19
20570,6.94
20582,6.36
20594,5.56
20606,4.59
20618,3.43
20630,2.03
20642,0.43
20654,-1.33
20665,-3.08
20676,-4.7
20688,-6.18
20700,-7.61
20712,-9.11
20724,-10.73
20736,-12.4
20748,-13.93
20760,-15.22
20772,-16.31
20784,-17.47
20796,-19.13
20808,-21.61
20820,-24.89
20832,-28.53
20844,-31.83
20855,-33.98
20866,-34.41
20878,-32.85
20890,-29.4
20902,-24.37
20914,-18.24
20926,-11.43
20938,-4.34
20950,2.61
20962,9.04
20974,14.57
20986,18.92
20998,21.96
