seconds,BVP
7,6.34
19,6.89
31,7.39
43,7.68
55,7.59
67,7.02
79,5.97
91,4.43
103,2.4
115,-0.21
127,-3.56
138,-7.69
149,-12.41
161,-17.21
173,-21.42
185,-24.3
197,-25.33
209,-24.29
221,-21.33
233,-16.87
245,-11.39
257,-5.39
269,0.76
281,6.78
293,12.42
305,17.38
317,21.38
328,24.11
339,25.36
351,25.12
363,23.65
375,21.42
387,19.03
399,17.0
411,15.57
423,14.71
435,14.09
447,13.23
459,11.69
471,9.14
483,5.56
495,1.24
507,-3.33
518,-7.65
529,-11.34
541,-14.24
553,-16.48
565,-18.25
577,-19.68
589,-20.67
601,-20.93
613,-20.14
625,-18.14
637,-15.13
649,-11.52
661,-7.87
673,-4.67
685,-2.18
697,-0.35
708,1.09
719,2.44
731,3.91
743,5.54
755,7.19
767,8.65
779,9.8
791,10.6
803,11.16
815,11.66
827,12.18
839,12.68
851,13.01
863,12.97
875,12.48
887,11.66
898,10.78
909,10.15
921,10.0
933,10.4
945,11.3
957,12.47
969,13.71
981,14.85
993,15.74
1005,16.23
1017,16.17
1029,15.4
1041,13.9
1053,11.81
1065,9.47
1077,7.27
1088,5.46
1099,4.06
1111,2.82
1123,1.39
1135,-0.4
1147,-2.44
1159,-4.31
1171,-5.47
1183,-5.58
1195,-4.57
1207,-2.73
1219,-0.44
1231,2.05
1243,4.68
1255,7.54
1267,10.73
1278,14.19
1289,17.73
1301,21.18
1313,24.49
1325,27.82
1337,31.41
1349,35.55
1361,40.37
1373,45.92
1385,52.19
1397,59.1
1409,66.47
1421,73.98
1433,81.18
1445,87.59
1457,92.9
1468,97.04
1479,100.22
1491,102.88
1503,105.58
1515,108.88
1527,113.16
1539,118.26
1551,123.2
1563,126.1
1575,124.36
1587,115.46
1599,97.86
1611,71.41
1623,37.48
1635,-1.59
1647,-43.13
1658,-84.54
1669,-123.59
1681,-158.46
1693,-187.78
1705,-210.86
1717,-228.0
1729,-240.21
1741,-248.83
1753,-254.82
1765,-258.22
1777,-258.3
1789,-254.02
1801,-244.6
1813,-229.99
1825,-210.93
1837,-188.76
1848,-165.23
1859,-142.4
1871,-122.37
1883,-106.78
1895,-96.26
1907,-90.01
1919,-86.01
1931,-81.64
1943,-74.61
1955,-63.77
1967,-49.38
1979,-32.81
1991,-15.88
2003,-0.36
2015,12.51
2027,22.12
2038,28.55
2049,32.53
2061,35.11
2073,37.35
2085,39.94
2097,42.99
2109,46.2
2121,49.17
2133,51.76
2145,54.07
2157,56.25
2169,58.16
2181,59.34
2193,59.2
2205,57.5
2217,54.44
2228,50.79
2239,47.38
2251,44.83
2263,43.24
2275,42.37
2287,41.91
2299,41.66
2311,41.69
2323,42.08
2335,42.86
2347,43.89
2359,44.88
2371,45.57
2383,45.74
2395,45.26
2407,44.07
2418,42.23
2429,39.94
2441,37.54
2453,35.54
2465,34.34
2477,34.05
2489,34.41
2501,34.77
2513,34.5
2525,33.21
2537,30.97
2549,28.25
2561,25.63
2573,23.49
2585,21.85
2597,20.38
2608,18.7
2619,16.6
2631,14.18
2643,11.81
2655,9.84
2667,8.44
2679,7.45
2691,6.44
2703,4.97
2715,2.74
2727,-0.14
2739,-3.36
2751,-6.46
2763,-9.08
2775,-10.97
2787,-12.08
2798,-12.42
2809,-12.01
2821,-10.93
2833,-9.2
2845,-6.9
2857,-4.18
2869,-1.24
2881,1.64
2893,4.13
2905,5.96
2917,7.05
2929,7.51
2941,7.72
2953,8.05
2965,8.71
2977,9.58
2988,10.2
2999,10.13
3011,9.19
3023,7.72
3035,6.32
3047,5.57
3059,5.57
3071,5.9
3083,5.86
3095,4.93
3107,3.09
3119,0.91
3131,-0.8
3143,-1.5
3155,-1.22
3167,-0.49
3178,-0.06
3189,-0.38
3201,-1.43
3213,-2.83
3225,-4.05
3237,-4.88
3249,-5.42
3261,-6.03
3273,-6.98
3285,-8.24
3297,-9.51
3309,-10.39
3321,-10.71
3333,-10.66
3345,-10.72
3357,-11.39
3368,-12.83
3379,-14.79
3391,-16.76
3403,-18.29
3415,-19.28
3427,-20.02
3439,-20.92
3451,-22.14
3463,-23.41
3475,-23.96
3487,-23.05
3499,-20.33
3511,-16.13
3523,-11.39
3535,-7.17
3547,-4.14
3558,-2.31
3569,-1.08
3581,0.29
3593,2.17
3605,4.39
3617,6.45
3629,7.96
3641,8.94
3653,9.84
3665,11.11
3677,12.87
3689,14.72
3701,16.03
3713,16.37
3725,15.83
3737,14.92
3748,14.23
3759,14.0
3771,13.97
3783,13.59
3795,12.51
3807,10.9
3819,9.28
3831,8.25
3843,8.0
3855,8.1
3867,7.77
3879,6.31
3891,3.57
3903,0.09
3915,-3.26
3927,-5.73
3938,-7.14
3949,-7.88
3961,-8.64
3973,-9.85
3985,-11.41
3997,-12.84
4009,-13.69
4021,-13.95
4033,-14.16
4045,-15.09
4057,-17.25
4069,-20.53
4081,-24.29
4093,-27.63
4105,-29.89
4117,-30.84
4128,-30.54
4139,-29.13
4151,-26.62
4163,-22.97
4175,-18.31
4187,-13.09
4199,-7.99
4211,-3.67
4223,-0.43
4235,2.01
4247,4.2
4259,6.63
4271,9.45
4283,12.29
4295,14.61
4307,15.95
4318,16.25
4329,15.77
4341,14.92
4353,13.89
4365,12.59
4377,10.81
4389,8.48
4401,5.94
4413,3.83
4425,2.76
4437,2.99
4449,4.19
4461,5.59
4473,6.35
4485,6.11
4497,4.93
4508,3.37
4519,1.95
4531,0.96
4543,0.3
4555,-0.24
4567,-0.81
4579,-1.31
4591,-1.46
4603,-1.15
4615,-0.49
4627,0.04
4639,-0.11
4651,-1.22
4663,-3.09
4675,-5.13
4687,-6.77
4698,-7.74
4709,-8.35
4721,-9.21
4733,-10.92
4745,-13.65
4757,-17.04
4769,-20.41
4781,-23.13
4793,-24.93
4805,-25.88
4817,-26.19
4829,-25.87
4841,-24.65
4853,-22.08
4865,-17.89
4877,-12.25
4888,-5.83
4899,0.46
4911,5.9
4923,10.18
4935,13.42
4947,16.01
4959,18.22
4971,20.03
4983,21.31
4995,21.95
5007,22.02
5019,21.83
5031,21.7
5043,21.68
5055,21.58
5067,21.12
5078,20.25
5089,19.18
5101,18.42
5113,18.32
5125,18.92
5137,19.86
5149,20.56
5161,20.64
5173,20.06
5185,19.14
5197,18.32
5209,17.92
5221,17.98
5233,18.37
5245,18.91
5257,19.47
5268,20.04
5279,20.6
5291,21.07
5303,21.25
5315,20.93
5327,19.89
5339,18.12
5351,15.74
5363,13.03
5375,10.3
5387,7.75
5399,5.36
5411,2.94
5423,0.2
5435,-3.02
5447,-6.64
5458,-10.4
5469,-13.95
5481,-16.98
5493,-19.39
5505,-21.14
5517,-22.17
5529,-22.22
5541,-20.96
5553,-18.2
5565,-14.07
5577,-9.09
5589,-3.97
5601,0.65
5613,4.49
5625,7.61
5637,10.19
5648,12.3
5659,13.77
5671,14.3
5683,13.78
5695,12.46
5707,11.0
5719,10.15
5731,10.46
5743,11.86
5755,13.73
5767,15.15
5779,15.32
5791,13.96
5803,11.42
5815,8.53
5827,6.19
5838,4.89
5849,4.58
5861,4.69
5873,4.56
5885,3.79
5897,2.44
5909,0.84
5921,-0.71
5933,-2.15
5945,-3.7
5957,-5.59
5969,-7.81
5981,-10.03
5993,-11.73
6005,-12.46
6017,-12.19
6028,-11.31
6039,-10.41
6051,-9.99
6063,-10.22
6075,-10.98
6087,-11.96
6099,-13.0
6111,-14.12
6123,-15.51
6135,-17.35
6147,-19.65
6159,-22.22
6171,-24.75
6183,-26.88
6195,-28.28
6207,-28.7
6218,-27.96
6229,-25.97
6241,-22.87
6253,-19.04
6265,-15.1
6277,-11.66
6289,-9.09
6301,-7.37
6313,-6.08
6325,-4.7
6337,-2.81
6349,-0.25
6361,2.94
6373,6.6
6385,10.64
6397,14.94
6408,19.27
6419,23.18
6431,26.17
6443,27.77
6455,27.92
6467,26.96
6479,25.52
6491,24.23
6503,23.47
6515,23.21
6527,23.07
6539,22.65
6551,21.63
6563,20.02
6575,18.03
6587,15.92
6598,13.83
6609,11.72
6621,9.51
6633,7.1
6645,4.63
6657,2.37
6669,0.63
6681,-0.47
6693,-1.11
6705,-1.65
6717,-2.42
6729,-3.47
6741,-4.61
6753,-5.54
6765,-6.16
6777,-6.74
6788,-7.82
6799,-9.89
6811,-13.0
6823,-16.78
6835,-20.49
6847,-23.54
6859,-25.78
6871,-27.52
6883,-29.22
6895,-31.05
6907,-32.71
6919,-33.41
6931,-32.47
6943,-29.72
6955,-25.63
6967,-21.15
6978,-17.11
6989,-13.89
7001,-11.29
7013,-8.81
7025,-6.07
7037,-3.07
7049,-0.22
7061,2.0
7073,3.32
7085,3.89
7097,4.09
7109,4.32
7121,4.74
7133,5.23
7145,5.55
7157,5.51
7168,5.12
7179,4.51
7191,3.93
7203,3.52
7215,3.29
7227,3.15
7239,2.99
7251,2.74
7263,2.51
7275,2.52
7287,2.94
7299,3.85
7311,5.08
7323,6.21
7335,6.74
7347,6.33
7358,4.95
7369,2.98
7381,1.01
7393,-0.46
7405,-1.26
7417,-1.63
7429,-2.07
7441,-3.02
7453,-4.62
7465,-6.55
7477,-8.27
7489,-9.35
7501,-9.78
7513,-9.97
7525,-10.47
7537,-11.54
7548,-13.0
7559,-14.21
7571,-14.66
7583,-14.18
7595,-13.25
7607,-12.7
7619,-13.21
7631,-14.9
7643,-17.28
7655,-19.42
7667,-20.49
7679,-20.03
7691,-18.0
7703,-14.63
7715,-10.35
7727,-5.49
7738,-0.46
7749,4.37
7761,8.7
7773,12.33
7785,15.32
7797,17.82
7809,20.03
7821,22.04
7833,23.8
7845,25.2
7857,26.21
7869,26.9
7881,27.36
7893,27.69
7905,27.82
7917,27.64
7928,27.01
7939,25.93
7951,24.48
7963,22.85
7975,21.29
7987,20.0
7999,19.08
8011,18.48
8023,17.91
8035,16.96
8047,15.26
8059,12.68
8071,9.48
8083,6.28
8095,3.72
8107,2.2
8118,1.67
8129,1.65
8141,1.54
8153,0.9
8165,-0.33
8177,-1.96
8189,-3.59
8201,-5.03
8213,-6.31
8225,-7.63
8237,-9.26
8249,-11.18
8261,-13.18
8273,-14.88
8285,-16.05
8297,-16.69
8308,-17.1
8319,-17.61
8331,-18.33
8343,-19.02
8355,-19.11
8367,-18.05
8379,-15.67
8391,-12.29
8403,-8.56
8415,-5.11
8427,-2.22
8439,0.24
8451,2.55
8463,4.9
8475,7.18
8487,9.04
8498,10.21
8509,10.64
8521,10.61
8533,10.56
8545,10.78
8557,11.22
8569,11.58
8581,11.52
8593,10.88
8605,9.86
8617,8.86
8629,8.25
8641,8.11
8653,8.2
8665,8.05
8677,7.28
8688,5.87
8699,4.21
8711,2.96
8723,2.62
8735,3.23
8747,4.31
8759,5.08
8771,5.02
8783,4.09
8795,2.88
8807,2.13
8819,2.35
8831,3.37
8843,4.48
8855,4.77
8867,3.7
8878,1.39
8889,-1.46
8901,-3.91
8913,-5.36
8925,-5.71
8937,-5.46
8949,-5.37
8961,-6.1
8973,-7.93
8985,-10.7
8997,-13.93
9009,-17.09
9021,-19.89
9033,-22.24
9045,-24.37
9057,-26.54
9068,-28.84
9079,-31.05
9091,-32.67
9103,-33.1
9115,-31.95
9127,-29.24
9139,-25.39
9151,-20.99
9163,-16.54
9175,-12.25
9187,-8.02
9199,-3.73
9211,0.63
9223,4.83
9235,8.49
9247,11.38
9258,13.48
9269,15.04
9281,16.43
9293,17.83
9305,19.17
9317,20.18
9329,20.56
9341,20.16
9353,19.08
9365,17.54
9377,15.86
9389,14.26
9401,12.78
9413,11.39
9425,9.97
9437,8.47
9448,6.84
9459,5.13
9471,3.38
9483,1.76
9495,0.46
9507,-0.36
9519,-0.61
9531,-0.36
9543,0.16
9555,0.6
9567,0.71
9579,0.38
9591,-0.24
9603,-0.9
9615,-1.39
9627,-1.76
9638,-2.3
9649,-3.37
9661,-5.26
9673,-7.93
9685,-11.09
9697,-14.3
9709,-17.25
9721,-19.92
9733,-22.49
9745,-25.17
9757,-27.94
9769,-30.46
9781,-32.27
9793,-33.1
9805,-32.97
9817,-32.29
9828,-31.53
9839,-30.83
9851,-29.99
9863,-28.52
9875,-26.05
9887,-22.53
9899,-18.32
9911,-13.95
9923,-9.84
9935,-6.12
9947,-2.69
9959,0.51
9971,3.41
9983,5.83
9995,7.68
10007,9.01
10018,10.04
10029,10.98
10041,11.83
10053,12.47
10065,12.67
10077,12.4
10089,11.76
10101,11.02
10113,10.35
10125,9.85
10137,9.42
10149,9.0
10161,8.57
10173,8.12
10185,7.63
10197,6.98
10208,6.03
10219,4.64
10231,2.77
10243,0.38
10255,-2.55
10267,-6.09
10279,-10.34
10291,-15.33
10303,-20.89
10315,-26.64
10327,-32.06
10339,-36.61
10351,-39.89
10363,-41.61
10375,-41.49
10387,-39.29
10398,-34.84
10409,-28.07
10421,-19.25
10433,-9.06
10445,1.52
10457,11.34
10469,19.39
10481,25.11
10493,28.42
10505,29.76
10517,29.76
10529,29.05
10541,28.04
10553,27.03
10565,26.14
10577,25.45
10588,25.09
10599,25.16
10611,25.69
10623,26.56
10635,27.45
10647,28.04
10659,28.11
10671,27.67
10683,26.83
10695,25.86
10707,24.96
10719,24.33
10731,24.0
10743,23.83
10755,23.54
10767,22.83
10778,21.53
10789,19.71
10801,17.71
10813,15.88
10825,14.59
10837,13.89
10849,13.58
10861,13.33
10873,12.9
10885,12.24
10897,11.47
10909,10.76
10921,10.05
10933,9.24
10945,8.22
10957,7.02
10968,5.83
10979,4.8
10991,3.94
11003,3.01
11015,1.68
11027,-0.26
11039,-2.67
11051,-5.09
11063,-7.0
11075,-8.1
11087,-8.5
11099,-8.58
11111,-8.86
11123,-9.62
11135,-10.89
11147,-12.42
11158,-14.01
11169,-15.52
11181,-16.92
11193,-18.23
11205,-19.36
11217,-20.26
11229,-20.8
11241,-20.98
11253,-20.93
11265,-20.78
11277,-20.63
11289,-20.41
11301,-19.83
11313,-18.52
11325,-16.35
11337,-13.36
11348,-9.93
11359,-6.52
11371,-3.43
11383,-0.68
11395,1.96
11407,4.76
11419,7.81
11431,10.83
11443,13.38
11455,15.07
11467,15.84
11479,15.94
11491,15.8
11503,15.8
11515,15.99
11527,16.16
11538,15.95
11549,15.14
11561,13.75
11573,12.11
11585,10.65
11597,9.71
11609,9.42
11621,9.57
11633,9.77
11645,9.6
11657,8.84
11669,7.5
11681,5.79
11693,4.1
11705,2.69
11717,1.73
11728,1.17
11739,0.91
11751,0.81
11763,0.7
11775,0.45
11787,-0.08
11799,-0.93
11811,-2.02
11823,-3.23
11835,-4.59
11847,-6.24
11859,-8.42
11871,-11.33
11883,-14.86
11895,-18.55
11907,-21.7
11918,-23.84
11929,-24.94
11941,-25.52
11953,-26.17
11965,-27.17
11977,-28.19
11989,-28.42
12001,-27.08
12013,-23.94
12025,-19.52
12037,-14.79
12049,-10.67
12061,-7.49
12073,-4.97
12085,-2.53
12097,0.29
12108,3.48
12119,6.59
12131,9.13
12143,10.88
12155,12.02
12167,12.95
12179,13.92
12191,14.67
12203,14.72
12215,13.57
12227,11.21
12239,8.19
12251,5.42
12263,3.75
12275,3.46
12287,4.29
12298,5.55
12309,6.65
12321,7.31
12333,7.67
12345,7.91
12357,8.08
12369,7.93
12381,7.05
12393,5.16
12405,2.4
12417,-0.65
12429,-3.24
12441,-4.68
12453,-4.71
12465,-3.61
12477,-2.03
12488,-0.78
12499,-0.42
12511,-1.19
12523,-2.88
12535,-5.04
12547,-7.25
12559,-9.25
12571,-11.05
12583,-12.82
12595,-14.83
12607,-17.1
12619,-19.6
12631,-22.17
12643,-24.61
12655,-26.7
12667,-28.15
12678,-28.66
12689,-28.03
12701,-26.43
12713,-24.23
12725,-21.95
12737,-19.97
12749,-18.21
12761,-16.22
12773,-13.43
12785,-9.6
12797,-5.02
12809,-0.45
12821,3.5
12833,6.68
12845,9.42
12857,12.35
12868,15.76
12879,19.55
12891,23.27
12903,26.39
12915,28.62
12927,29.96
12939,30.51
12951,30.31
12963,29.32
12975,27.41
12987,24.68
12999,21.52
13011,18.4
13023,15.78
13035,13.9
13047,12.8
13058,12.35
13069,12.46
13081,12.9
13093,13.43
13105,13.79
13117,13.63
13129,12.76
13141,11.19
13153,9.14
13165,6.98
13177,5.18
13189,4.01
13201,3.45
13213,3.24
13225,2.79
13237,1.58
13248,-0.65
13259,-3.84
13271,-7.46
13283,-10.65
13295,-12.62
13307,-12.91
13319,-11.62
13331,-9.45
13343,-7.34
13355,-6.09
13367,-6.06
13379,-6.95
13391,-8.05
13403,-8.61
13415,-8.24
13427,-7.06
13438,-5.55
13449,-4.08
13461,-2.58
13473,-0.58
13485,2.57
13497,7.14
13509,12.63
13521,17.96
13533,21.91
13545,23.72
13557,23.58
13569,22.36
13581,21.05
13593,20.34
13605,20.22
13617,20.16
13628,19.63
13639,18.49
13651,17.02
13663,15.62
13675,14.48
13687,13.36
13699,11.86
13711,9.78
13723,7.32
13735,5.11
13747,3.77
13759,3.63
13771,4.43
13783,5.56
13795,6.33
13807,6.46
13818,6.14
13829,5.78
13841,5.76
13853,5.98
13865,5.95
13877,5.04
13889,2.95
13901,-0.1
13913,-3.29
13925,-5.64
13937,-6.56
13949,-6.11
13961,-5.13
13973,-4.73
13985,-5.75
13997,-8.22
14008,-11.48
14019,-14.41
14031,-16.18
14043,-16.69
14055,-16.59
14067,-16.86
14079,-18.27
14091,-20.8
14103,-23.71
14115,-25.96
14127,-26.72
14139,-25.82
14151,-23.67
14163,-20.88
14175,-17.79
14187,-14.35
14198,-10.25
14209,-5.49
14221,-0.53
14233,3.77
14245,6.69
14257,8.14
14269,8.73
14281,9.52
14293,11.31
14305,14.16
14317,17.39
14329,19.95
14341,21.11
14353,20.79
14365,19.62
14377,18.42
14388,17.82
14399,17.89
14411,18.31
14423,18.69
14435,18.73
14447,18.32
14459,17.41
14471,15.99
14483,14.06
14495,11.76
14507,9.38
14519,7.29
14531,5.86
14543,5.01
14555,4.28
14567,3.01
14578,0.74
14589,-2.56
14601,-6.37
14613,-9.95
14625,-12.73
14637,-14.45
14649,-15.31
14661,-15.65
14673,-15.88
14685,-16.25
14697,-16.88
14709,-17.72
14721,-18.67
14733,-19.7
14745,-20.7
14757,-21.72
14768,-22.78
14779,-23.98
14791,-25.37
14803,-26.77
14815,-27.79
14827,-27.85
14839,-26.53
14851,-23.66
14863,-19.51
14875,-14.62
14887,-9.62
14899,-4.96
14911,-0.74
14923,3.16
14935,7.04
14947,10.98
14958,14.88
14969,18.41
14981,21.21
14993,23.01
15005,23.74
15017,23.48
15029,22.32
15041,20.5
15053,18.25
15065,15.88
15077,13.66
15089,11.77
15101,10.25
15113,8.97
15125,7.82
15137,6.67
15148,5.64
15159,4.86
15171,4.45
15183,4.36
15195,4.35
15207,4.2
15219,3.72
15231,3.01
15243,2.18
15255,1.43
15267,0.71
15279,-0.12
15291,-1.2
15303,-2.63
15315,-4.21
15327,-5.68
15338,-6.81
15349,-7.69
15361,-8.64
15373,-10.08
15385,-12.22
15397,-14.72
15409,-17.02
15421,-18.38
15433,-18.48
15445,-17.57
15457,-16.46
15469,-16.06
15481,-16.94
15493,-19.04
15505,-21.68
15517,-23.99
15528,-25.17
15539,-24.85
15551,-23.06
15563,-20.09
15575,-16.28
15587,-11.9
15599,-7.29
15611,-2.83
15623,1.1
15635,4.25
15647,6.66
15659,8.64
15671,10.51
15683,12.42
15695,14.24
15707,15.64
15718,16.35
15729,16.35
15741,15.94
15753,15.6
15765,15.7
15777,16.34
15789,17.32
15801,18.28
15813,18.92
15825,19.11
15837,18.9
15849,18.51
15861,18.22
15873,18.18
15885,18.32
15897,18.32
15908,17.73
15919,16.27
15931,14.05
15943,11.5
15955,9.14
15967,7.37
15979,6.36
15991,5.91
16003,5.53
16015,4.47
16027,1.7
16039,-3.91
16051,-13.3
16063,-26.77
16075,-43.59
16087,-61.76
16098,-78.64
16109,-91.74
16121,-99.49
16133,-101.71
16145,-99.31
16157,-93.62
16169,-85.83
16181,-76.7
16193,-66.55
16205,-55.6
16217,-44.07
16229,-32.15
16241,-20.06
16253,-7.86
16265,4.33
16277,16.11
16288,26.6
16299,34.34
16311,37.46
16323,34.19
16335,23.47
16347,5.58
16359,-17.26
16371,-40.99
16383,-60.57
16395,-71.5
16407,-71.38
16419,-60.76
16431,-42.88
16443,-22.27
16455,-2.98
16467,12.78
16478,24.91
16489,34.54
16501,42.88
16513,50.27
16525,56.2
16537,59.98
16549,61.48
16561,61.52
16573,61.43
16585,62.32
16597,64.34
16609,66.73
16621,68.22
16633,67.96
16645,66.02
16657,63.29
16668,60.88
16679,59.41
16691,58.4
16703,56.61
16715,52.75
16727,46.23
16739,37.63
16751,28.44
16763,20.28
16775,14.08
16787,9.71
16799,6.22
16811,2.53
16823,-1.97
16835,-7.06
16847,-12.08
16858,-16.32
16869,-19.63
16881,-22.37
16893,-25.15
16905,-28.32
16917,-31.64
16929,-34.44
16941,-35.98
16953,-35.9
16965,-34.38
16977,-31.99
16989,-29.19
17001,-26.11
17013,-22.56
17025,-18.27
17037,-13.3
17048,-8.15
17059,-3.56
17071,-0.09
17083,2.15
17095,3.51
17107,4.62
17119,5.88
17131,7.41
17143,9.08
17155,10.78
17167,12.63
17179,14.95
17191,17.96
17203,21.48
17215,24.9
17227,27.31
17238,28.08
17249,27.16
17261,25.24
17273,23.42
17285,22.61
17297,23.08
17309,24.37
17321,25.5
17333,25.64
17345,24.67
17357,23.12
17369,22.06
17381,22.33
17393,24.12
17405,26.81
17417,29.23
17428,30.29
17439,29.35
17451,26.52
17463,22.39
17475,17.71
17487,13.22
17499,9.59
17511,7.46
17523,7.33
17535,9.04
17547,11.08
17559,10.45
17571,3.29
17583,-13.57
17595,-40.63
17607,-74.71
17618,-109.43
17629,-137.35
17641,-152.8
17653,-153.92
17665,-142.87
17677,-124.3
17689,-102.88
17701,-81.43
17713,-60.75
17725,-40.52
17737,-20.86
17749,-2.97
17761,11.27
17773,20.54
17785,25.04
17797,26.63
17808,27.95
17819,31.03
17831,36.33
17843,42.69
17855,48.05
17867,50.72
17879,50.23
17891,47.49
17903,44.13
17915,41.64
17927,40.58
17939,40.45
17951,40.12
17963,38.4
17975,34.83
17987,29.75
17998,24.17
18009,19.25
18021,15.77
18033,13.93
18045,13.37
18057,13.56
18069,13.85
18081,13.87
18093,13.45
18105,12.46
18117,10.82
18129,8.48
18141,5.53
18153,2.25
18165,-0.88
18177,-3.43
18188,-5.12
18199,-6.0
18211,-6.47
18223,-7.0
18235,-7.94
18247,-9.41
18259,-11.26
18271,-13.29
18283,-15.3
18295,-17.25
18307,-19.24
18319,-21.41
18331,-23.76
18343,-26.22
18355,-28.58
18367,-30.6
18378,-31.98
18389,-32.43
18401,-31.73
18413,-29.75
18425,-26.62
18437,-22.59
18449,-18.01
18461,-13.19
18473,-8.29
18485,-3.35
18497,1.55
18509,6.21
18521,10.27
18533,13.4
18545,15.47
18557,16.69
18568,17.51
18579,18.42
18591,19.67
18603,21.06
18615,22.19
18627,22.58
18639,22.13
18651,21.04
18663,19.74
18675,18.65
18687,18.01
18699,17.75
18711,17.62
18723,17.3
18735,16.59
18747,15.48
18758,14.01
18769,12.46
18781,10.92
18793,9.55
18805,8.36
18817,7.14
18829,5.7
18841,3.88
18853,1.64
18865,-0.88
18877,-3.41
18889,-5.77
18901,-7.89
18913,-9.79
18925,-11.57
18937,-13.27
18948,-14.84
18959,-16.25
18971,-17.49
18983,-18.58
18995,-19.55
19007,-20.47
19019,-21.35
19031,-22.27
19043,-23.37
19055,-24.8
19067,-26.54
19079,-28.26
19091,-29.49
19103,-29.65
19115,-28.5
19127,-26.15
19138,-23.08
19149,-19.72
19161,-16.3
19173,-12.68
19185,-8.54
19197,-3.72
19209,1.57
19221,6.73
19233,11.09
19245,14.22
19257,16.21
19269,17.56
19281,18.88
19293,20.55
19305,22.5
19317,24.26
19328,25.31
19339,25.33
19351,24.45
19363,23.05
19375,21.64
19387,20.46
19399,19.48
19411,18.47
19423,17.22
19435,15.72
19447,14.16
19459,12.85
19471,11.85
19483,11.04
19495,10.09
19507,8.75
19518,7.0
19529,5.15
19541,3.59
19553,2.67
19565,2.42
19577,2.6
19589,2.85
19601,2.86
19613,2.59
19625,2.21
19637,1.95
19649,1.92
19661,2.08
19673,2.24
19685,2.19
19697,1.74
19708,0.81
19719,-0.62
19731,-2.41
19743,-4.38
19755,-6.31
19767,-8.08
19779,-9.74
19791,-11.45
19803,-13.41
19815,-15.63
19827,-17.81
19839,-19.38
19851,-19.75
19863,-18.59
19875,-16.01
19887,-12.47
19898,-8.53
19909,-4.58
19921,-0.74
19933,3.05
19945,6.86
19957,10.59
19969,13.85
19981,16.17
19993,17.14
20005,16.8
20017,15.65
20029,14.46
20041,13.91
20053,14.28
20065,15.25
20077,16.15
20088,16.41
20099,15.86
20111,14.85
20123,14.08
20135,14.01
20147,14.56
20159,15.12
20171,14.92
20183,13.55
20195,11.23
20207,8.64
20219,6.52
20231,5.26
20243,4.73
20255,4.35
20267,3.56
20278,2.15
20289,0.28
20301,-1.66
20313,-3.4
20325,-4.87
20337,-6.14
20349,-7.32
20361,-8.33
20373,-9.07
20385,-9.49
20397,-9.73
20409,-10.16
20421,-11.21
20433,-13.08
20445,-15.63
20457,-18.42
20468,-20.93
20479,-22.77
20491,-23.85
20503,-24.26
20515,-24.24
20527,-23.98
20539,-23.6
20551,-23.2
20563,-22.84
20575,-22.49
20587,-21.96
20599,-20.92
20611,-18.99
20623,-15.93
20635,-11.78
20647,-6.97
20658,-2.12
20669,2.2
20681,5.71
20693,8.45
20705,10.73
20717,12.84
20729,14.81
20741,16.44
20753,17.45
20765,17.71
20777,17.3
20789,16.65
20801,16.17
20813,16.11
20825,16.33
20837,16.47
20848,16.13
20859,15.23
20871,14.03
20883,12.95
20895,12.36
20907,12.27
20919,12.37
20931,12.21
20943,11.56
20955,10.51
20967,9.35
20979,8.4
20991,7.8
