seconds,BVP
0,-17.51
11,-17.05
22,-15.7
34,-13.46
46,-10.61
58,-7.54
70,-4.68
82,-2.32
94,-0.58
106,0.58
118,1.31
130,1.77
142,2.09
154,2.35
166,2.63
178,2.96
190,3.36
201,3.82
212,4.3
224,4.74
236,5.08
248,5.33
260,5.52
272,5.76
284,6.12
296,6.63
308,7.25
320,7.86
332,8.38
344,8.7
356,8.79
368,8.65
380,8.34
391,7.92
402,7.48
414,7.09
426,6.76
438,6.47
450,6.14
462,5.7
474,5.08
486,4.35
498,3.6
510,2.95
522,2.48
534,2.12
546,1.72
558,1.07
570,0.02
581,-1.46
592,-3.24
604,-5.11
616,-6.8
628,-8.12
640,-9.02
652,-9.53
664,-9.79
676,-9.96
688,-10.12
700,-10.31
712,-10.48
724,-10.57
736,-10.51
748,-10.22
760,-9.74
771,-9.11
782,-8.48
794,-8.0
806,-7.78
818,-7.87
830,-8.15
842,-8.42
854,-8.43
866,-7.93
878,-6.81
890,-5.05
902,-2.74
914,-0.1
926,2.6
938,5.07
950,7.04
961,8.31
972,8.86
984,8.82
996,8.43
1008,7.96
1020,7.57
1032,7.29
1044,7.02
1056,6.6
1068,5.96
1080,5.12
1092,4.26
1104,3.56
1116,3.19
1128,3.17
1140,3.4
1151,3.73
1162,4.01
1174,4.18
1186,4.28
1198,4.31
1210,4.24
1222,3.98
1234,3.4
1246,2.5
1258,1.41
1270,0.36
1282,-0.4
1294,-0.79
1306,-0.86
1318,-0.8
1330,-0.81
1341,-0.97
1352,-1.24
1364,-1.5
1376,-1.67
1388,-1.71
1400,-1.7
1412,-1.72
1424,-1.81
1436,-1.95
1448,-2.04
1460,-1.97
1472,-1.69
1484,-1.25
1496,-0.78
1508,-0.45
1520,-0.42
1531,-0.76
1542,-1.45
1554,-2.34
1566,-3.23
1578,-3.87
1590,-4.0
1602,-3.41
1614,-2.04
1626,0.03
1638,2.54
1650,5.13
1662,7.44
1674,9.22
1686,10.38
1698,10.93
1710,11.0
1721,10.71
1732,10.19
1744,9.6
1756,9.06
1768,8.68
1780,8.49
1792,8.41
1804,8.3
1816,8.03
1828,7.56
1840,6.99
1852,6.5
1864,6.29
1876,6.42
1888,6.82
1900,7.33
1911,7.74
1922,7.91
1934,7.8
1946,7.41
1958,6.78
1970,5.94
1982,4.92
1994,3.83
2006,2.81
2018,2.05
2030,1.62
2042,1.46
2054,1.38
2066,1.13
2078,0.55
2090,-0.33
2101,-1.34
2112,-2.24
2124,-2.88
2136,-3.26
2148,-3.5
2160,-3.75
2172,-4.14
2184,-4.69
2196,-5.36
2208,-6.08
2220,-6.82
2232,-7.53
2244,-8.19
2256,-8.82
2268,-9.44
2280,-10.08
2291,-10.82
2302,-11.67
2314,-12.62
2326,-13.57
2338,-14.37
2350,-14.8
2362,-14.64
2374,-13.75
2386,-12.05
2398,-9.67
2410,-6.89
2422,-4.1
2434,-1.66
2446,0.22
2458,1.5
2470,2.32
2481,2.89
2492,3.39
2504,3.92
2516,4.51
2528,5.13
2540,5.76
2552,6.38
2564,6.96
2576,7.44
2588,7.73
2600,7.83
2612,7.77
2624,7.69
2636,7.75
2648,8.04
2660,8.54
2671,9.06
2682,9.38
2694,9.32
2706,8.81
2718,7.96
2730,6.96
2742,6.04
2754,5.33
2766,4.9
2778,4.68
2790,4.55
2802,4.41
2814,4.19
2826,3.9
2838,3.61
2850,3.4
2861,3.3
2872,3.29
2884,3.28
2896,3.2
2908,2.98
2920,2.66
2932,2.32
2944,2.03
2956,1.82
2968,1.65
2980,1.42
2992,1.07
3004,0.55
3016,-0.06
3028,-0.71
3040,-1.33
3051,-1.87
3062,-2.4
3074,-2.96
3086,-3.64
3098,-4.47
3110,-5.41
3122,-6.38
3134,-7.24
3146,-7.9
3158,-8.34
3170,-8.62
3182,-8.87
3194,-9.27
3206,-9.93
3218,-10.9
3230,-12.11
3241,-13.36
3252,-14.42
3264,-15.03
3276,-14.97
3288,-14.12
3300,-12.51
3312,-10.25
3324,-7.55
3336,-4.68
3348,-1.9
3360,0.57
3372,2.57
3384,4.03
3396,4.94
3408,5.38
3420,5.5
3431,5.49
3442,5.51
3454,5.68
3466,6.04
3478,6.55
3490,7.17
3502,7.83
3514,8.47
3526,9.05
3538,9.57
3550,10.01
3562,10.37
3574,10.67
3586,10.91
3598,11.09
3610,11.19
3621,11.15
3632,10.92
3644,10.45
3656,9.72
3668,8.79
3680,7.78
3692,6.83
3704,6.07
3716,5.58
3728,5.29
3740,5.07
3752,4.74
3764,4.21
3776,3.48
3788,2.67
3800,1.92
3811,1.34
3822,0.93
3834,0.6
3846,0.23
3858,-0.23
3870,-0.79
3882,-1.35
3894,-1.81
3906,-2.08
3918,-2.16
3930,-2.12
3942,-2.06
3954,-2.12
3966,-2.37
3978,-2.82
3990,-3.4
4001,-3.97
4012,-4.42
4024,-4.68
4036,-4.81
4048,-4.92
4060,-5.15
4072,-5.59
4084,-6.2
4096,-6.88
4108,-7.48
4120,-7.87
4132,-8.07
4144,-8.19
4156,-8.4
4168,-8.84
4180,-9.57
4191,-10.51
4202,-11.52
4214,-12.46
4226,-13.18
4238,-13.61
4250,-13.65
4262,-13.21
4274,-12.21
4286,-10.67
4298,-8.69
4310,-6.49
4322,-4.32
4334,-2.41
4346,-0.87
4358,0.28
4370,1.13
4381,1.74
4392,2.18
4404,2.48
4416,2.67
4428,2.81
4440,2.97
4452,3.21
4464,3.52
4476,3.85
4488,4.14
4500,4.35
4512,4.51
4524,4.71
4536,5.02
4548,5.48
4560,6.03
4571,6.56
4582,6.93
4594,7.08
4606,6.99
4618,6.73
4630,6.37
4642,5.96
4654,5.51
4666,4.97
4678,4.31
4690,3.54
4702,2.73
4714,1.96
4726,1.37
4738,1.02
4750,0.88
4761,0.88
4772,0.87
4784,0.78
4796,0.59
4808,0.37
4820,0.22
4832,0.18
4844,0.2
4856,0.16
4868,-0.1
4880,-0.66
4892,-1.53
4904,-2.6
4916,-3.7
4928,-4.7
4940,-5.46
4951,-5.97
4962,-6.27
4974,-6.49
4986,-6.76
4998,-7.19
5010,-7.88
5022,-8.81
5034,-9.91
5046,-11.03
5058,-11.97
5070,-12.51
5082,-12.48
5094,-11.79
5106,-10.47
5118,-8.66
5130,-6.58
5141,-4.42
5152,-2.36
5164,-0.48
5176,1.21
5188,2.68
5200,3.91
5212,4.86
5224,5.52
5236,5.9
5248,6.1
5260,6.21
5272,6.31
5284,6.44
5296,6.6
5308,6.76
5320,6.91
5331,7.08
5342,7.33
5354,7.67
5366,8.08
5378,8.43
5390,8.6
5402,8.49
5414,8.15
5426,7.7
5438,7.33
5450,7.13
5462,7.1
5474,7.09
5486,6.95
5498,6.58
5510,6.02
5521,5.39
5532,4.82
5544,4.33
5556,3.87
5568,3.35
5580,2.73
5592,2.05
5604,1.43
5616,1.0
5628,0.79
5640,0.78
5652,0.88
5664,0.98
5676,0.96
5688,0.71
5700,0.18
5711,-0.62
5722,-1.59
5734,-2.54
5746,-3.3
5758,-3.78
5770,-4.04
5782,-4.25
5794,-4.6
5806,-5.25
5818,-6.21
5830,-7.36
5842,-8.51
5854,-9.49
5866,-10.19
5878,-10.63
5890,-10.96
5901,-11.35
5912,-11.97
5924,-12.87
5936,-13.97
5948,-15.01
5960,-15.68
5972,-15.7
5984,-14.9
5996,-13.3
6008,-11.08
6020,-8.5
6032,-5.81
6044,-3.24
6056,-0.96
6068,0.95
6080,2.44
6091,3.53
6102,4.26
6114,4.71
6126,4.99
6138,5.2
6150,5.43
6162,5.73
6174,6.14
6186,6.66
6198,7.27
6210,7.93
6222,8.57
6234,9.13
6246,9.52
6258,9.7
6270,9.71
6281,9.61
6292,9.45
6304,9.3
6316,9.18
6328,9.06
6340,8.95
6352,8.79
6364,8.58
6376,8.28
6388,7.82
6400,7.18
6412,6.39
6424,5.5
6436,4.63
6448,3.88
6460,3.3
6471,2.91
6482,2.65
6494,2.45
6506,2.25
6518,2.0
6530,1.69
6542,1.32
6554,0.94
6566,0.59
6578,0.3
6590,0.02
6602,-0.31
6614,-0.76
6626,-1.31
6638,-1.87
6650,-2.35
6661,-2.68
6672,-2.9
6684,-3.18
6696,-3.68
6708,-4.49
6720,-5.56
6732,-6.72
6744,-7.74
6756,-8.51
6768,-8.99
6780,-9.25
6792,-9.4
6804,-9.55
6816,-9.79
6828,-10.19
6840,-10.84
6851,-11.8
6862,-13.04
6874,-14.41
6886,-15.66
6898,-16.43
6910,-16.4
6922,-15.38
6934,-13.37
6946,-10.58
6958,-7.39
6970,-4.25
6982,-1.51
6994,0.61
7006,2.12
7018,3.16
7030,3.94
7041,4.64
7052,5.32
7064,5.96
7076,6.5
7088,6.91
7100,7.21
7112,7.49
7124,7.8
7136,8.16
7148,8.49
7160,8.73
7172,8.84
7184,8.85
7196,8.88
7208,9.04
7220,9.35
7231,9.72
7242,9.99
7254,10.02
7266,9.73
7278,9.2
7290,8.58
7302,8.01
7314,7.58
7326,7.27
7338,7.01
7350,6.69
7362,6.28
7374,5.77
7386,5.2
7398,4.6
7410,4.04
7421,3.55
7432,3.13
7444,2.8
7456,2.54
7468,2.31
7480,2.09
7492,1.83
7504,1.51
7516,1.1
7528,0.56
7540,-0.12
7552,-0.92
7564,-1.79
7576,-2.64
7588,-3.38
7600,-3.96
7611,-4.37
7622,-4.67
7634,-4.94
7646,-5.25
7658,-5.65
7670,-6.18
7682,-6.81
7694,-7.51
7706,-8.19
7718,-8.75
7730,-9.14
7742,-9.4
7754,-9.65
7766,-10.06
7778,-10.73
7790,-11.63
7801,-12.54
7812,-13.17
7824,-13.17
7836,-12.34
7848,-10.7
7860,-8.46
7872,-5.96
7884,-3.52
7896,-1.4
7908,0.29
7920,1.56
7932,2.46
7944,3.11
7956,3.58
7968,3.93
7980,4.19
7991,4.38
8002,4.5
8014,4.58
8026,4.65
8038,4.76
8050,4.94
8062,5.21
8074,5.58
8086,6.02
8098,6.52
8110,7.05
8122,7.58
8134,8.04
8146,8.36
8158,8.45
8170,8.3
8181,7.93
8192,7.44
8204,6.93
8216,6.44
8228,5.94
8240,5.4
8252,4.74
8264,4.0
8276,3.23
8288,2.52
8300,1.95
8312,1.56
8324,1.33
8336,1.18
8348,1.01
8360,0.75
8371,0.34
8382,-0.23
8394,-0.93
8406,-1.67
8418,-2.44
8430,-3.2
8442,-3.98
8454,-4.81
8466,-5.68
8478,-6.57
8490,-7.46
8502,-8.36
8514,-9.31
8526,-10.34
8538,-11.45
8550,-12.47
8561,-13.18
8572,-13.31
8584,-12.7
8596,-11.37
8608,-9.51
8620,-7.37
8632,-5.2
8644,-3.13
8656,-1.18
8668,0.61
8680,2.19
8692,3.43
8704,4.21
8716,4.53
8728,4.5
8740,4.35
8751,4.33
8762,4.57
8774,5.07
8786,5.7
8798,6.26
8810,6.65
8822,6.82
8834,6.89
8846,6.99
8858,7.22
8870,7.64
8882,8.16
8894,8.7
8906,9.12
8918,9.34
8930,9.35
8941,9.13
8952,8.69
8964,8.03
8976,7.18
8988,6.21
9000,5.23
9012,4.38
9024,3.76
9036,3.35
9048,3.04
9060,2.67
9072,2.12
9084,1.35
9096,0.42
9108,-0.55
9120,-1.44
9131,-2.2
9142,-2.81
9154,-3.27
9166,-3.57
9178,-3.72
9190,-3.72
9202,-3.69
9214,-3.73
9226,-3.97
9238,-4.51
9250,-5.36
9262,-6.47
9274,-7.73
9286,-8.96
9298,-10.0
9310,-10.71
9321,-11.07
9332,-11.18
9344,-11.28
9356,-11.63
9368,-12.35
9380,-13.33
9392,-14.28
9404,-14.75
9416,-14.42
9428,-13.18
9440,-11.17
9452,-8.72
9464,-6.16
9476,-3.79
9488,-1.76
9500,-0.15
9511,1.02
9522,1.76
9534,2.14
9546,2.26
9558,2.28
9570,2.37
9582,2.64
9594,3.1
9606,3.68
9618,4.27
9630,4.79
9642,5.18
9654,5.39
9666,5.42
9678,5.27
9690,4.96
9701,4.54
9712,4.07
9724,3.63
9736,3.28
9748,3.02
9760,2.78
9772,2.41
9784,1.83
9796,0.96
9808,-0.22
9820,-1.65
9832,-3.17
9844,-4.56
9856,-5.64
9868,-6.29
9880,-6.47
9891,-6.26
9902,-5.81
9914,-5.33
9926,-4.99
9938,-4.88
9950,-4.95
9962,-5.08
9974,-5.09
9986,-4.79
9998,-3.97
10010,-2.47
10022,-0.26
10034,2.53
10046,5.67
10058,8.79
10070,11.41
10081,12.8
10092,12.3
10104,9.8
10116,6.04
10128,2.1
10140,-1.1
10152,-3.15
10164,-4.01
10176,-3.8
10188,-2.59
10200,-0.42
10212,2.62
10224,6.21
10236,9.71
10248,12.45
10260,13.98
10271,14.27
10282,13.64
10294,12.5
10306,11.21
10318,10.0
10330,8.92
10342,7.91
10354,6.89
10366,5.78
10378,4.47
10390,2.89
10402,1.07
10414,-0.74
10426,-2.08
10438,-2.4
10450,-1.36
10461,1.07
10472,4.55
10484,8.51
10496,12.3
10508,15.36
10520,17.25
10532,17.72
10544,16.6
10556,14.02
10568,10.47
10580,6.76
10592,3.74
10604,1.93
10616,1.41
10628,1.86
10640,2.76
10651,3.52
10662,3.8
10674,3.61
10686,3.26
10698,3.11
10710,3.24
10722,3.68
10734,4.42
10746,5.56
10758,6.92
10770,8.31
10782,9.53
10794,10.38
10806,10.59
10818,9.61
10830,7.19
10841,3.59
10852,-0.52
10864,-4.69
10876,-8.37
10888,-10.85
10900,-11.45
10912,-8.1
10924,-0.37
10936,11.3
10948,25.79
10960,41.59
10972,55.76
10984,65.7
10996,70.14
11008,69.76
11020,66.55
11031,62.42
11042,58.84
11054,56.32
11066,54.42
11078,50.06
11090,41.08
11102,27.75
11114,13.14
11126,1.0
11138,-6.74
11150,-10.42
11162,-12.06
11174,-14.29
11186,-22.28
11198,-39.54
11210,-66.92
11221,-102.23
11232,-142.18
11244,-184.05
11256,-225.64
11268,-265.12
11280,-286.28
11292,-278.66
11304,-243.88
11316,-196.13
11328,-149.94
11340,-112.12
11352,-82.86
11364,-59.62
11376,-40.17
11388,-23.97
11400,-17.1
11411,-21.64
11422,-37.82
11434,-63.2
11446,-94.25
11458,-127.86
11470,-160.98
11482,-190.14
11494,-202.46
11506,-192.95
11518,-163.48
11530,-122.26
11542,-79.53
11554,-44.06
11566,-20.75
11578,-9.67
11590,-5.32
11601,-3.59
11612,-4.04
11624,-7.01
11636,-12.36
11648,-18.04
11660,-20.68
11672,-17.08
11684,-5.04
11696,16.61
11708,42.78
11720,68.86
11732,92.03
11744,111.87
11756,130.51
11768,151.51
11780,178.08
11791,211.64
11802,250.76
11814,290.64
11826,324.55
11838,345.95
11850,350.83
11862,339.35
11874,315.47
11886,285.15
11898,253.87
11910,224.82
11922,198.21
11934,172.72
11946,146.56
11958,118.66
11970,88.97
11981,58.06
11992,26.62
12004,-4.93
12016,-36.21
12028,-66.71
12040,-95.15
12052,-120.19
12064,-140.56
12076,-155.43
12088,-164.38
12100,-167.42
12112,-164.92
12124,-157.72
12136,-147.09
12148,-134.09
12160,-119.69
12171,-104.47
12182,-88.51
12194,-71.62
12206,-53.55
12218,-34.6
12230,-15.7
12242,1.96
12254,17.8
12266,31.66
12278,43.72
12290,54.33
12302,63.56
12314,71.45
12326,77.71
12338,81.9
12350,83.9
12361,84.7
12372,85.18
12384,85.66
12396,85.84
12408,85.1
12420,83.58
12432,81.73
12444,80.07
12456,79.11
12468,80.21
12480,83.59
12492,88.21
12504,92.29
12516,94.09
12528,93.57
12540,91.3
12551,87.91
12562,83.91
12574,80.91
12586,79.33
12598,78.17
12610,75.81
12622,70.6
12634,63.02
12646,54.13
12658,44.95
12670,26.91
12682,-1.66
12694,-35.49
12706,-66.23
12718,-85.07
12730,-95.08
12741,-99.9
12752,-102.23
12764,-104.57
12776,-107.75
12788,-110.24
12800,-110.8
12812,-109.2
12824,-106.1
12836,-102.75
12848,-99.07
12860,-94.91
12872,-90.4
12884,-85.82
12896,-80.5
12908,-74.38
12920,-68.2
12931,-62.94
12942,-59.47
12954,-57.18
12966,-55.25
12978,-53.08
12990,-50.34
13002,-46.2
13014,-40.32
13026,-33.03
13038,-25.03
13050,-17.21
13062,-10.03
13074,-4.16
13086,-0.22
13098,1.66
13110,2.32
13121,2.71
13132,3.33
13144,4.33
13156,5.55
13168,7.04
13180,8.76
13192,11.1
13204,13.75
13216,16.55
13228,19.42
13240,22.1
13252,24.24
13264,25.54
13276,25.9
13288,25.5
13300,24.78
13311,24.35
13322,23.99
13334,24.09
13346,24.92
13358,26.46
13370,28.38
13382,30.08
13394,30.98
13406,30.84
13418,29.79
13430,28.53
13442,28.19
13454,29.71
13466,33.5
13478,39.18
13490,45.71
13501,51.74
13512,56.12
13524,58.04
13536,57.45
13548,55.06
13560,51.77
13572,48.34
13584,45.01
13596,41.51
13608,37.2
13620,31.42
13632,23.33
13644,12.83
13656,0.67
13668,-11.93
13680,-23.84
13691,-34.47
13702,-43.65
13714,-51.43
13726,-57.78
13738,-63.27
13750,-67.91
13762,-71.01
13774,-71.56
13786,-69.18
13798,-64.45
13810,-58.69
13822,-53.59
13834,-50.7
13846,-52.19
13858,-58.62
13870,-68.28
13881,-77.95
13892,-84.73
13904,-87.33
13916,-86.17
13928,-82.81
13940,-79.11
13952,-78.26
13964,-82.05
13976,-90.27
13988,-101.24
14000,-112.93
14012,-123.47
14024,-130.77
14036,-132.65
14048,-117.82
14060,-83.2
14071,-37.07
14082,5.93
14094,35.47
14106,49.69
14118,52.58
14130,49.86
14142,46.07
14154,43.48
14166,40.02
14178,34.53
14190,27.68
14202,21.7
14214,18.51
14226,18.59
14238,21.15
14250,24.93
14261,28.88
14272,31.35
14284,32.38
14296,33.08
14308,35.08
14320,39.24
14332,45.13
14344,51.7
14356,57.92
14368,63.13
14380,66.27
14392,66.97
14404,65.59
14416,63.22
14428,61.02
14440,59.78
14451,59.79
14462,60.75
14474,61.75
14486,61.1
14498,57.45
14510,50.32
14522,40.42
14534,29.15
14546,18.07
14558,8.45
14570,1.09
14582,-3.67
14594,-5.9
14606,-5.78
14618,-3.62
14630,0.06
14641,4.37
14652,8.19
14664,10.53
14676,10.91
14688,9.52
14700,7.0
14712,4.04
14724,0.9
14736,-2.6
14748,-6.89
14760,-12.15
14772,-17.92
14784,-23.22
14796,-26.97
14808,-28.52
14820,-28.03
14831,-26.32
14842,-24.32
14854,-22.55
14866,-20.86
14878,-18.61
14890,-15.2
14902,-10.5
14914,-4.99
14926,0.53
14938,5.37
14950,9.35
14962,12.8
14974,16.28
14986,20.24
14998,24.7
15010,29.21
15021,33.06
15032,35.62
15044,36.49
15056,35.68
15068,33.53
15080,30.54
15092,27.08
15104,23.33
15116,19.21
15128,14.5
15140,9.05
15152,2.87
15164,-3.74
15176,-10.25
15188,-15.92
15200,-19.92
15211,-21.56
15222,-20.54
15234,-17.16
15246,-12.4
15258,-7.56
15270,-3.88
15282,-1.93
15294,-1.45
15306,-1.52
15318,-1.08
15330,0.53
15342,3.27
15354,6.51
15366,9.43
15378,11.49
15390,12.57
15401,12.92
15412,12.91
15424,12.77
15436,12.45
15448,11.65
15460,9.97
15472,7.07
15484,2.82
15496,-2.64
15508,-8.92
15520,-15.48
15532,-21.82
15544,-27.59
15556,-32.6
15568,-36.85
15580,-40.31
15591,-42.96
15602,-44.72
15614,-45.57
15626,-45.58
15638,-44.99
15650,-44.04
15662,-42.91
15674,-41.57
15686,-39.89
15698,-37.7
15710,-34.97
15722,-31.86
15734,-28.72
15746,-25.91
15758,-23.68
15770,-22.11
15781,-21.1
15792,-20.43
15804,-19.83
15816,-19.06
15828,-18.06
15840,-16.95
15852,-16.17
15864,-16.25
15876,-17.65
15888,-20.48
15900,-24.37
15912,-28.6
15924,-32.38
15936,-35.27
15948,-37.3
15960,-38.79
15971,-39.95
15982,-40.69
15994,-40.59
16006,-39.24
16018,-36.55
16030,-32.94
16042,-29.14
16054,-25.76
16066,-22.86
16078,-19.81
16090,-15.8
16102,-10.28
16114,-3.27
16126,4.83
16138,13.48
16150,22.24
16161,30.8
16172,38.97
16184,46.66
16196,53.54
16208,59.18
16220,63.33
16232,66.18
16244,68.19
16256,69.57
16268,69.99
16280,68.73
16292,65.46
16304,60.04
16316,52.89
16328,44.83
16340,37.06
16351,30.68
16362,26.06
16374,22.74
16386,19.69
16398,16.17
16410,11.35
16422,4.64
16434,-4.03
16446,-13.92
16458,-22.73
16470,-27.6
16482,-26.99
16494,-24.04
16506,-20.66
16518,-17.4
16530,-12.88
16541,-6.01
16552,3.8
16564,15.95
16576,28.42
16588,38.43
16600,43.74
16612,44.03
16624,40.28
16636,34.11
16648,27.0
16660,19.94
16672,13.4
16684,7.54
16696,2.5
16708,-1.46
16720,-3.89
16731,-5.1
16742,-6.11
16754,-8.22
16766,-12.11
16778,-17.45
16790,-23.08
16802,-27.5
16814,-29.36
16826,-27.65
16838,-22.27
16850,-14.02
16862,-4.36
16874,5.03
16886,12.72
16898,17.78
16910,19.98
16921,19.72
16932,17.83
16944,15.11
16956,12.12
16968,9.29
16980,7.1
16992,6.17
17004,6.99
17016,9.67
17028,13.78
17040,18.48
17052,22.93
17064,26.62
17076,29.55
17088,32.12
17100,34.71
17111,37.42
17122,39.95
17134,41.9
17146,42.91
17158,42.85
17170,41.7
17182,39.31
17194,35.36
17206,29.39
17218,21.07
17230,10.52
17242,-1.58
17254,-14.11
17266,-25.8
17278,-35.55
17290,-42.66
17301,-46.82
17312,-48.12
17324,-46.92
17336,-43.8
17348,-39.5
17360,-34.86
17372,-30.64
17384,-27.48
17396,-25.73
17408,-25.52
17420,-26.84
17432,-29.65
17444,-33.8
17456,-38.98
17468,-44.57
17480,-49.73
17491,-53.61
17502,-55.71
17514,-55.99
17526,-54.85
17538,-52.84
17550,-50.25
17562,-47.0
17574,-42.79
17586,-37.39
17598,-30.95
17610,-24.09
17622,-17.59
17634,-12.01
17646,-7.44
17658,-3.5
17670,0.34
17681,4.38
17692,8.53
17704,12.35
17716,15.34
17728,17.19
17740,17.91
17752,17.65
17764,16.53
17776,14.56
17788,11.74
17800,8.23
17812,4.43
17824,0.95
17836,-1.7
17848,-3.26
17860,-3.86
17871,-3.92
17882,-3.9
17894,-4.0
17906,-4.18
17918,-4.19
17930,-3.83
17942,-2.98
17954,-1.6
17966,0.28
17978,2.51
17990,4.87
18002,7.16
18014,9.08
18026,10.28
18038,10.38
18050,9.1
18061,6.57
18072,3.29
18084,0.01
18096,-2.4
18108,-3.11
18120,-1.85
18132,0.87
18144,3.89
18156,5.81
18168,5.97
18180,4.42
18192,1.69
18204,-1.43
18216,-4.0
18228,-5.52
18240,-6.0
18251,-5.93
18262,-5.94
18274,-5.86
18286,-5.1
18298,-3.02
18310,0.87
18322,7.03
18334,15.27
18346,24.69
18358,33.9
18370,41.56
18382,47.56
18394,52.31
18406,56.12
18418,55.97
18430,49.61
18441,37.42
18452,22.74
18464,11.52
18476,4.65
18488,1.61
18500,1.35
18512,1.89
18524,1.91
18536,1.2
18548,0.1
18560,-1.07
18572,-2.38
18584,-4.49
18596,-7.42
18608,-10.91
18620,-14.54
18631,-17.78
18642,-19.96
18654,-20.72
18666,-20.26
18678,-19.2
18690,-18.36
18702,-17.87
18714,-17.49
18726,-16.92
18738,-15.74
18750,-13.32
18762,-9.16
18774,-3.08
18786,4.51
18798,12.65
18810,20.46
18821,27.1
18832,31.91
18844,34.64
18856,35.53
18868,35.14
18880,34.1
18892,32.87
18904,31.54
18916,30.11
18928,28.41
18940,26.23
18952,23.5
18964,20.36
18976,17.21
18988,14.52
19000,12.7
19011,11.89
19022,11.97
19034,12.43
19046,12.48
19058,11.24
19070,8.01
19082,2.5
19094,-5.03
19106,-13.85
19118,-22.86
19130,-30.83
19142,-36.57
19154,-39.17
19166,-38.08
19178,-33.26
19190,-25.23
19201,-14.98
19212,-3.89
19224,6.56
19236,14.98
19248,20.28
19260,21.85
19272,19.77
19284,14.88
19296,8.71
19308,3.21
19320,0.13
19332,0.5
19344,4.22
19356,10.12
19368,16.4
19380,21.27
19391,23.57
19402,22.97
19414,19.75
19426,14.5
19438,7.67
19450,-0.49
19462,-9.84
19474,-20.21
19486,-31.22
19498,-42.32
19510,-52.87
19522,-62.26
19534,-69.92
19546,-75.28
19558,-77.77
19570,-76.86
19581,-72.29
19592,-64.25
19604,-53.5
19616,-41.2
19628,-28.67
19640,-16.92
19652,-6.53
19664,2.35
19676,9.7
19688,15.41
19700,19.25
19712,21.03
19724,20.98
19736,19.88
19748,18.87
19760,18.98
19771,20.58
19782,23.17
19794,25.58
19806,26.46
19818,24.91
19830,20.88
19842,15.07
19854,8.7
19866,3.01
19878,-1.05
19890,-3.04
19902,-3.08
19914,-1.72
19926,0.23
19938,2.02
19950,3.07
19961,3.05
19972,1.82
19984,-0.55
19996,-3.92
20008,-8.06
20020,-12.63
20032,-17.21
20044,-21.17
20056,-24.1
20068,-25.92
20080,-26.86
20092,-27.27
20104,-27.45
20116,-27.47
20128,-27.13
20140,-26.1
20151,-23.69
20162,-19.52
20174,-13.7
20186,-6.71
20198,0.81
20210,8.32
20222,15.49
20234,22.18
20246,28.42
20258,34.67
20270,41.03
20282,47.1
20294,52.29
20306,56.25
20318,59.11
20330,61.29
20341,63.19
20352,64.85
20364,66.56
20376,67.98
20388,68.38
20400,67.03
20412,63.75
20424,58.93
20436,53.28
20448,47.5
20460,38.44
20472,25.61
20484,11.07
20496,-2.13
20508,-12.3
20520,-19.68
20531,-25.33
20542,-30.19
20554,-34.73
20566,-38.94
20578,-41.99
20590,-43.56
20602,-43.83
20614,-43.27
20626,-42.23
20638,-40.85
20650,-39.21
20662,-37.43
20674,-35.67
20686,-33.63
20698,-31.1
20710,-28.12
20721,-24.79
20732,-21.25
20744,-17.56
20756,-13.72
20768,-9.77
20780,-5.89
20792,-2.14
20804,1.13
20816,3.43
20828,4.48
20840,4.47
20852,4.05
20864,3.85
20876,4.07
20888,4.28
20900,3.78
20911,1.9
20922,-1.67
20934,-6.8
20946,-13.04
20958,-19.94
20970,-27.13
20982,-34.23
20994,-40.49
