seconds,BVP
6,-9.81
18,-6.3
30,-3.24
41,-1.11
52,-0.03
64,0.26
76,0.22
88,0.29
100,0.7
112,1.42
124,2.28
136,3.08
148,3.72
160,4.19
172,4.51
184,4.74
196,4.94
208,5.18
220,5.6
231,6.29
242,7.25
254,8.35
266,9.34
278,9.99
290,10.19
302,10.04
314,9.74
326,9.52
338,9.47
350,9.55
362,9.59
374,9.48
386,9.15
398,8.67
410,8.12
421,7.53
432,6.83
444,5.92
456,4.76
468,3.45
480,2.2
492,1.26
504,0.75
516,0.62
528,0.66
540,0.64
552,0.41
564,0.02
576,-0.38
588,-0.64
600,-0.74
611,-0.78
622,-0.96
634,-1.4
646,-2.08
658,-2.83
670,-3.43
682,-3.74
694,-3.76
706,-3.68
718,-3.77
730,-4.22
742,-5.11
754,-6.35
766,-7.71
778,-8.98
790,-10.0
801,-10.79
812,-11.45
824,-12.16
836,-13.04
848,-14.07
860,-15.04
872,-15.64
884,-15.59
896,-14.66
908,-12.86
920,-10.36
932,-7.45
944,-4.48
956,-1.77
968,0.47
980,2.1
991,3.1
1002,3.54
1014,3.6
1026,3.48
1038,3.38
1050,3.42
1062,3.63
1074,3.94
1086,4.28
1098,4.61
1110,4.94
1122,5.28
1134,5.64
1146,5.96
1158,6.21
1170,6.39
1181,6.57
1192,6.85
1204,7.31
1216,7.92
1228,8.59
1240,9.19
1252,9.57
1264,9.68
1276,9.46
1288,8.92
1300,8.05
1312,6.91
1324,5.56
1336,4.16
1348,2.84
1360,1.77
1371,1.02
1382,0.63
1394,0.53
1406,0.56
1418,0.54
1430,0.32
1442,-0.14
1454,-0.78
1466,-1.48
1478,-2.11
1490,-2.66
1502,-3.18
1514,-3.79
1526,-4.53
1538,-5.4
1550,-6.27
1561,-7.05
1572,-7.71
1584,-8.39
1596,-9.27
1608,-10.51
1620,-12.09
1632,-13.82
1644,-15.32
1656,-16.22
1668,-16.19
1680,-15.16
1692,-13.25
1704,-10.73
1716,-7.93
1728,-5.13
1740,-2.54
1751,-0.26
1762,1.65
1774,3.15
1786,4.25
1798,4.96
1810,5.32
1822,5.44
1834,5.46
1846,5.48
1858,5.6
1870,5.83
1882,6.09
1894,6.33
1906,6.49
1918,6.61
1930,6.79
1941,7.1
1952,7.55
1964,8.06
1976,8.49
1988,8.72
2000,8.75
2012,8.71
2024,8.75
2036,8.97
2048,9.31
2060,9.59
2072,9.57
2084,9.1
2096,8.19
2108,6.97
2120,5.66
2131,4.43
2142,3.37
2154,2.48
2166,1.74
2178,1.14
2190,0.68
2202,0.38
2214,0.19
2226,0.02
2238,-0.19
2250,-0.45
2262,-0.71
2274,-0.84
2286,-0.76
2298,-0.46
2310,-0.04
2321,0.32
2332,0.46
2344,0.27
2356,-0.25
2368,-1.06
2380,-2.08
2392,-3.22
2404,-4.42
2416,-5.65
2428,-6.91
2440,-8.22
2452,-9.6
2464,-11.09
2476,-12.73
2488,-14.53
2500,-16.34
2511,-17.89
2522,-18.81
2534,-18.71
2546,-17.4
2558,-14.94
2570,-11.66
2582,-8.03
2594,-4.54
2606,-1.58
2618,0.62
2630,1.97
2642,2.55
2654,2.54
2666,2.24
2678,2.0
2690,2.09
2701,2.61
2712,3.47
2724,4.41
2736,5.18
2748,5.66
2760,5.91
2772,6.09
2784,6.38
2796,6.88
2808,7.6
2820,8.45
2832,9.34
2844,10.17
2856,10.84
2868,11.26
2880,11.4
2891,11.26
2902,10.94
2914,10.57
2926,10.21
2938,9.84
2950,9.34
2962,8.56
2974,7.43
2986,6.03
2998,4.54
3010,3.19
3022,2.2
3034,1.64
3046,1.51
3058,1.67
3070,1.96
3081,2.21
3092,2.29
3104,2.1
3116,1.66
3128,1.03
3140,0.36
3152,-0.2
3164,-0.57
3176,-0.81
3188,-1.08
3200,-1.6
3212,-2.54
3224,-3.9
3236,-5.5
3248,-7.02
3260,-8.2
3271,-8.93
3282,-9.32
3294,-9.65
3306,-10.16
3318,-10.97
3330,-12.03
3342,-13.21
3354,-14.4
3366,-15.49
3378,-16.44
3390,-17.12
3402,-17.31
3414,-16.73
3426,-15.22
3438,-12.78
3450,-9.69
3461,-6.38
3472,-3.31
3484,-0.79
3496,1.01
3508,2.13
3520,2.69
3532,2.91
3544,2.98
3556,3.09
3568,3.34
3580,3.73
3592,4.2
3604,4.62
3616,4.89
3628,4.98
3640,5.0
3651,5.11
3662,5.47
3674,6.18
3686,7.18
3698,8.24
3710,9.05
3722,9.33
3734,8.96
3746,8.09
3758,7.02
3770,6.14
3782,5.73
3794,5.83
3806,6.28
3818,6.81
3830,7.11
3841,7.0
3852,6.37
3864,5.21
3876,3.59
3888,1.72
3900,-0.09
3912,-1.48
3924,-2.2
3936,-2.17
3948,-1.65
3960,-1.1
3972,-0.99
3984,-1.63
3996,-2.99
4008,-4.77
4020,-6.45
4031,-7.5
4042,-7.54
4054,-6.46
4066,-4.44
4078,-1.99
4090,0.19
4102,1.41
4114,1.21
4126,-0.44
4138,-3.11
4150,-6.06
4162,-8.52
4174,-10.0
4186,-10.43
4198,-10.14
4210,-9.65
4221,-9.41
4232,-9.58
4244,-10.02
4256,-10.37
4268,-10.19
4280,-9.16
4292,-7.2
4304,-4.44
4316,-1.22
4328,2.11
4340,5.22
4352,7.8
4364,9.55
4376,10.17
4388,9.47
4400,7.52
4411,4.75
4422,1.92
4434,-0.12
4446,-0.77
4458,0.1
4470,2.09
4482,4.48
4494,6.58
4506,8.0
4518,8.74
4530,9.04
4542,9.2
4554,9.37
4566,9.54
4578,9.65
4590,9.68
4601,9.7
4612,9.8
4624,10.01
4636,10.23
4648,10.2
4660,9.68
4672,8.52
4684,6.78
4696,4.74
4708,2.74
4720,1.1
4732,-0.04
4744,-0.7
4756,-1.03
4768,-1.26
4780,-1.58
4791,-2.13
4802,-2.98
4814,-4.02
4826,-5.06
4838,-5.84
4850,-6.18
4862,-6.05
4874,-5.65
4886,-5.33
4898,-5.46
4910,-6.24
4922,-7.58
4934,-9.19
4946,-10.73
4958,-11.96
4970,-12.89
4981,-13.68
4992,-14.53
5004,-15.49
5016,-16.38
5028,-16.88
5040,-16.63
5052,-15.44
5064,-13.31
5076,-10.46
5088,-7.22
5100,-3.94
5112,-0.9
5124,1.71
5136,3.79
5148,5.29
5160,6.23
5171,6.64
5182,6.59
5194,6.22
5206,5.7
5218,5.23
5230,5.02
5242,5.22
5254,5.83
5266,6.72
5278,7.64
5290,8.36
5302,8.75
5314,8.84
5326,8.79
5338,8.8
5350,9.03
5361,9.51
5372,10.17
5384,10.84
5396,11.3
5408,11.43
5420,11.16
5432,10.52
5444,9.65
5456,8.69
5468,7.78
5480,7.0
5492,6.35
5504,5.74
5516,5.1
5528,4.36
5540,3.54
5551,2.72
5562,2.02
5574,1.57
5586,1.43
5598,1.56
5610,1.8
5622,1.91
5634,1.73
5646,1.17
5658,0.3
5670,-0.7
5682,-1.62
5694,-2.33
5706,-2.8
5718,-3.13
5730,-3.46
5741,-3.97
5752,-4.74
5764,-5.81
5776,-7.11
5788,-8.49
5800,-9.8
5812,-10.9
5824,-11.76
5836,-12.46
5848,-13.2
5860,-14.17
5872,-15.47
5884,-17.0
5896,-18.45
5908,-19.32
5920,-19.17
5931,-17.72
5942,-14.99
5954,-11.3
5966,-7.16
5978,-3.14
5990,0.3
6002,2.91
6014,4.67
6026,5.73
6038,6.32
6050,6.65
6062,6.89
6074,7.13
6086,7.37
6098,7.59
6110,7.75
6121,7.86
6132,7.94
6144,8.03
6156,8.22
6168,8.53
6180,8.94
6192,9.37
6204,9.66
6216,9.67
6228,9.31
6240,8.61
6252,7.7
6264,6.81
6276,6.15
6288,5.83
6300,5.86
6311,6.12
6322,6.4
6334,6.52
6346,6.32
6358,5.74
6370,4.78
6382,3.55
6394,2.19
6406,0.92
6418,-0.07
6430,-0.6
6442,-0.62
6454,-0.19
6466,0.49
6478,1.2
6490,1.73
6501,1.98
6512,1.99
6524,1.87
6536,1.76
6548,1.75
6560,1.86
6572,2.02
6584,2.09
6596,1.94
6608,1.49
6620,0.74
6632,-0.25
6644,-1.37
6656,-2.52
6668,-3.68
6680,-4.84
6691,-6.05
6702,-7.29
6714,-8.51
6726,-9.66
6738,-10.69
6750,-11.63
6762,-12.56
6774,-13.58
6786,-14.73
6798,-15.94
6810,-16.98
6822,-17.55
6834,-17.31
6846,-16.07
6858,-13.82
6870,-10.8
6881,-7.42
6892,-4.15
6904,-1.37
6916,0.66
6928,1.91
6940,2.49
6952,2.65
6964,2.65
6976,2.71
6988,2.94
7000,3.33
7012,3.78
7024,4.16
7036,4.44
7048,4.66
7060,4.96
7071,5.45
7082,6.12
7094,6.84
7106,7.4
7118,7.66
7130,7.61
7142,7.4
7154,7.26
7166,7.39
7178,7.87
7190,8.61
7202,9.42
7214,10.06
7226,10.35
7238,10.17
7250,9.55
7261,8.61
7272,7.5
7284,6.39
7296,5.39
7308,4.52
7320,3.69
7332,2.8
7344,1.72
7356,0.44
7368,-0.96
7380,-2.26
7392,-3.19
7404,-3.55
7416,-3.29
7428,-2.56
7440,-1.65
7451,-0.92
7462,-0.62
7474,-0.88
7486,-1.64
7498,-2.74
7510,-4.01
7522,-5.29
7534,-6.48
7546,-7.54
7558,-8.49
7570,-9.4
7582,-10.41
7594,-11.63
7606,-13.11
7618,-14.74
7630,-16.2
7641,-17.1
7652,-17.03
7664,-15.82
7676,-13.53
7688,-10.52
7700,-7.25
7712,-4.18
7724,-1.57
7736,0.45
7748,1.89
7760,2.79
7772,3.27
7784,3.44
7796,3.45
7808,3.49
7820,3.64
7831,3.89
7842,4.14
7854,4.26
7866,4.2
7878,4.07
7890,4.06
7902,4.31
7914,4.89
7926,5.74
7938,6.69
7950,7.63
7962,8.46
7974,9.17
7986,9.74
7998,10.2
8010,10.56
8021,10.85
8032,11.1
8044,11.33
8056,11.48
8068,11.44
8080,11.11
8092,10.41
8104,9.38
8116,8.11
8128,6.75
8140,5.43
8152,4.27
8164,3.32
8176,2.58
8188,2.05
8200,1.63
8211,1.26
8222,0.86
8234,0.37
8246,-0.21
8258,-0.89
8270,-1.65
8282,-2.48
8294,-3.35
8306,-4.24
8318,-5.09
8330,-5.83
8342,-6.44
8354,-6.99
8366,-7.59
8378,-8.43
8390,-9.62
8401,-11.23
8412,-13.18
8424,-15.28
8436,-17.34
8448,-19.17
8460,-20.61
8472,-21.49
8484,-21.57
8496,-20.62
8508,-18.49
8520,-15.26
8532,-11.27
8544,-7.08
8556,-3.31
8568,-0.4
8580,1.51
8591,2.52
8602,2.95
8614,3.07
8626,3.11
8638,3.16
8650,3.29
8662,3.56
8674,3.98
8686,4.58
8698,5.28
8710,5.98
8722,6.61
8734,7.15
8746,7.65
8758,8.19
8770,8.79
8781,9.4
8792,9.94
8804,10.34
8816,10.56
8828,10.66
8840,10.75
8852,10.94
8864,11.31
8876,11.81
8888,12.3
8900,12.52
8912,12.23
8924,11.29
8936,9.78
8948,7.96
8960,6.21
8971,4.89
8982,4.17
8994,3.95
9006,3.99
9018,3.98
9030,3.74
9042,3.25
9054,2.59
9066,1.92
9078,1.31
9090,0.79
9102,0.31
9114,-0.19
9126,-0.72
9138,-1.28
9150,-1.89
9161,-2.58
9172,-3.42
9184,-4.45
9196,-5.66
9208,-6.96
9220,-8.18
9232,-9.17
9244,-9.82
9256,-10.15
9268,-10.31
9280,-10.49
9292,-10.89
9304,-11.66
9316,-12.82
9328,-14.26
9340,-15.77
9351,-17.03
9362,-17.66
9374,-17.37
9386,-16.04
9398,-13.75
9410,-10.87
9422,-7.92
9434,-5.39
9446,-3.59
9458,-2.54
9470,-2.01
9482,-1.67
9494,-1.22
9506,-0.54
9518,0.33
9530,1.26
9541,2.12
9552,2.82
9564,3.34
9576,3.7
9588,3.95
9600,4.19
9612,4.57
9624,5.27
9636,6.41
9648,7.94
9660,9.66
9672,11.2
9684,12.22
9696,12.51
9708,12.13
9720,11.33
9731,10.44
9742,9.71
9754,9.25
9766,8.98
9778,8.75
9790,8.44
9802,8.02
9814,7.53
9826,7.02
9838,6.49
9850,5.88
9862,5.14
9874,4.24
9886,3.24
9898,2.3
9910,1.57
9921,1.13
9932,0.96
9944,0.94
9956,0.92
9968,0.81
9980,0.61
9992,0.35
10004,0.08
10016,-0.22
10028,-0.64
10040,-1.25
10052,-2.09
10064,-3.08
10076,-4.13
10088,-5.14
10100,-6.07
10111,-6.93
10122,-7.75
10134,-8.56
10146,-9.36
10158,-10.17
10170,-11.02
10182,-11.96
10194,-13.05
10206,-14.24
10218,-15.42
10230,-16.35
10242,-16.81
10254,-16.6
10266,-15.65
10278,-14.02
10290,-11.82
10301,-9.24
10312,-6.45
10324,-3.63
10336,-0.92
10348,1.52
10360,3.58
10372,5.17
10384,6.21
10396,6.72
10408,6.77
10420,6.46
10432,5.92
10444,5.27
10456,4.65
10468,4.18
10480,3.97
10491,4.14
10502,4.74
10514,5.76
10526,7.06
10538,8.4
10550,9.52
10562,10.18
10574,10.32
10586,10.05
10598,9.69
10610,9.52
10622,9.68
10634,10.06
10646,10.32
10658,10.08
10670,9.13
10681,7.51
10692,5.53
10704,3.59
10716,2.0
10728,0.85
10740,0.03
10752,-0.64
10764,-1.3
10776,-1.99
10788,-2.63
10800,-3.12
10812,-3.42
10824,-3.54
10836,-3.58
10848,-3.62
10860,-3.73
10871,-3.94
10882,-4.28
10894,-4.74
10906,-5.32
10918,-6.08
10930,-7.07
10942,-8.33
10954,-9.86
10966,-11.57
10978,-13.3
10990,-14.88
11002,-16.17
11014,-17.13
11026,-17.79
11038,-18.14
11050,-18.12
11061,-17.54
11072,-16.2
11084,-14.0
11096,-11.08
11108,-7.76
11120,-4.5
11132,-1.65
11144,0.6
11156,2.3
11168,3.59
11180,4.65
11192,5.55
11204,6.3
11216,6.87
11228,7.27
11240,7.52
11251,7.67
11262,7.75
11274,7.79
11286,7.88
11298,8.12
11310,8.59
11322,9.32
11334,10.23
11346,11.16
11358,11.9
11370,12.34
11382,12.5
11394,12.5
11406,12.53
11418,12.75
11430,13.14
11441,13.56
11452,13.73
11464,13.44
11476,12.61
11488,11.39
11500,10.06
11512,8.89
11524,8.02
11536,7.39
11548,6.83
11560,6.19
11572,5.43
11584,4.69
11596,4.1
11608,3.76
11620,3.57
11631,3.32
11642,2.83
11654,2.03
11666,1.03
11678,0.06
11690,-0.66
11702,-1.01
11714,-1.05
11726,-0.99
11738,-1.09
11750,-1.54
11762,-2.36
11774,-3.42
11786,-4.5
11798,-5.42
11810,-6.11
11821,-6.65
11832,-7.26
11844,-8.09
11856,-9.25
11868,-10.71
11880,-12.38
11892,-14.14
11904,-15.87
11916,-17.49
11928,-18.85
11940,-19.78
11952,-20.07
11964,-19.52
11976,-18.05
11988,-15.69
12000,-12.64
12011,-9.17
12022,-5.64
12034,-2.38
12046,0.36
12058,2.44
12070,3.83
12082,4.66
12094,5.11
12106,5.36
12118,5.52
12130,5.67
12142,5.82
12154,5.99
12166,6.22
12178,6.53
12190,6.89
12201,7.23
12212,7.45
12224,7.52
12236,7.46
12248,7.39
12260,7.39
12272,7.52
12284,7.75
12296,8.02
12308,8.27
12320,8.49
12332,8.72
12344,9.02
12356,9.38
12368,9.71
12380,9.82
12391,9.54
12402,8.74
12414,7.41
12426,5.71
12438,3.9
12450,2.29
12462,1.14
12474,0.55
12486,0.45
12498,0.62
12510,0.76
12522,0.67
12534,0.26
12546,-0.36
12558,-0.98
12570,-1.39
12581,-1.46
12592,-1.26
12604,-0.96
12616,-0.81
12628,-1.01
12640,-1.62
12652,-2.58
12664,-3.69
12676,-4.71
12688,-5.5
12700,-6.01
12712,-6.34
12724,-6.7
12736,-7.28
12748,-8.18
12760,-9.41
12771,-10.84
12782,-12.33
12794,-13.74
12806,-15.02
12818,-16.16
12830,-17.14
12842,-17.9
12854,-18.3
12866,-18.16
12878,-17.3
12890,-15.6
12902,-13.07
12914,-9.87
12926,-6.28
12938,-2.7
12950,0.42
12961,2.67
12972,3.81
12984,3.79
12996,2.87
13008,1.54
13020,0.37
13032,-0.12
13044,0.38
13056,1.92
13068,4.35
13080,7.34
13092,10.56
13104,13.6
13116,16.09
13128,17.71
13140,18.3
13151,17.92
13162,16.89
13174,15.65
13186,14.58
13198,13.89
13210,13.5
13222,13.16
13234,12.65
13246,11.87
13258,10.91
13270,9.99
13282,9.36
13294,9.19
13306,9.52
13318,10.23
13330,11.08
13341,11.67
13352,11.61
13364,10.59
13376,8.63
13388,6.09
13400,3.61
13412,1.87
13424,1.23
13436,1.59
13448,2.42
13460,3.09
13472,3.22
13484,2.92
13496,2.62
13508,2.8
13520,3.65
13531,4.93
13542,6.1
13554,6.69
13566,6.58
13578,6.04
13590,5.63
13602,5.86
13614,7.01
13626,9.11
13638,12.05
13650,15.64
13662,19.45
13674,22.64
13686,23.82
13698,21.47
13710,14.5
13721,3.05
13732,-11.22
13744,-25.55
13756,-37.05
13768,-43.88
13780,-45.89
13792,-44.42
13804,-41.45
13816,-38.52
13828,-36.17
13840,-34.0
13852,-31.31
13864,-27.63
13876,-23.09
13888,-18.21
13900,-13.67
13911,-9.96
13922,-7.38
13934,-6.12
13946,-6.25
13958,-7.76
13970,-10.4
13982,-13.66
13994,-16.8
14006,-19.02
14018,-19.73
14030,-18.75
14042,-16.41
14054,-13.42
14066,-10.59
14078,-8.36
14090,-6.61
14101,-4.77
14112,-2.2
14124,1.3
14136,5.41
14148,9.35
14160,12.35
14172,13.89
14184,13.64
14196,11.28
14208,6.47
14220,-0.96
14232,-10.47
14244,-20.66
14256,-29.58
14268,-35.59
14280,-38.13
14291,-37.9
14302,-36.3
14314,-34.36
14326,-31.99
14338,-28.16
14350,-21.7
14362,-12.26
14374,-0.86
14386,10.45
14398,19.53
14410,24.97
14422,26.52
14434,24.91
14446,21.29
14458,16.76
14470,12.15
14481,8.04
14492,4.92
14504,3.18
14516,3.07
14528,4.52
14540,7.13
14552,10.27
14564,13.27
14576,15.66
14588,17.26
14600,18.13
14612,18.48
14624,18.51
14636,18.36
14648,18.09
14660,17.67
14671,17.09
14682,16.32
14694,15.32
14706,14.14
14718,12.9
14730,11.85
14742,11.23
14754,11.24
14766,11.87
14778,12.86
14790,13.75
14802,14.08
14814,13.54
14826,12.15
14838,10.26
14850,8.37
14861,6.96
14872,6.24
14884,6.13
14896,6.34
14908,6.5
14920,6.38
14932,5.97
14944,5.44
14956,5.05
14968,5.04
14980,5.47
14992,6.21
15004,7.05
15016,7.74
15028,8.08
15040,8.03
15051,7.62
15062,7.0
15074,6.32
15086,5.71
15098,5.32
15110,5.24
15122,5.52
15134,6.05
15146,6.41
15158,5.92
15170,3.83
15182,-0.32
15194,-6.44
15206,-13.87
15218,-21.66
15230,-29.03
15241,-35.7
15252,-41.81
15264,-47.56
15276,-52.7
15288,-56.37
15300,-57.41
15312,-54.96
15324,-49.11
15336,-41.07
15348,-32.77
15360,-26.13
15372,-22.18
15384,-20.73
15396,-20.45
15408,-19.54
15420,-16.54
15431,-10.85
15442,-2.97
15454,5.92
15466,14.46
15478,21.69
15490,27.31
15502,31.54
15514,34.74
15526,37.12
15538,38.62
15550,39.08
15562,38.45
15574,36.97
15586,35.06
15598,33.16
15610,31.44
15621,29.8
15632,27.89
15644,25.41
15656,22.29
15668,18.75
15680,15.27
15692,12.37
15704,10.38
15716,9.39
15728,9.15
15740,9.2
15752,9.07
15764,8.35
15776,6.93
15788,4.95
15800,2.79
15811,0.88
15822,-0.46
15834,-1.13
15846,-1.31
15858,-1.38
15870,-1.7
15882,-2.51
15894,-3.82
15906,-5.49
15918,-7.26
15930,-8.94
15942,-10.39
15954,-11.57
15966,-12.52
15978,-13.33
15990,-14.14
16001,-15.11
16012,-16.28
16024,-17.58
16036,-18.71
16048,-19.28
16060,-18.86
16072,-17.21
16084,-14.39
16096,-10.77
16108,-6.91
16120,-3.36
16132,-0.51
16144,1.52
16156,2.79
16168,3.5
16180,3.83
16191,3.91
16202,3.84
16214,3.75
16226,3.77
16238,4.03
16250,4.52
16262,5.13
16274,5.67
16286,5.98
16298,6.03
16310,5.93
16322,5.91
16334,6.15
16346,6.69
16358,7.44
16370,8.2
16381,8.78
16392,9.14
16404,9.37
16416,9.58
16428,9.84
16440,10.09
16452,10.15
16464,9.83
16476,9.06
16488,7.99
16500,6.87
16512,5.96
16524,5.36
16536,4.94
16548,4.48
16560,3.78
16571,2.83
16582,1.81
16594,0.93
16606,0.36
16618,0.04
16630,-0.21
16642,-0.63
16654,-1.3
16666,-2.13
16678,-2.87
16690,-3.32
16702,-3.45
16714,-3.43
16726,-3.55
16738,-4.09
16750,-5.1
16761,-6.43
16772,-7.79
16784,-8.89
16796,-9.58
16808,-9.95
16820,-10.21
16832,-10.6
16844,-11.22
16856,-12.07
16868,-12.96
16880,-13.71
16892,-14.09
16904,-13.95
16916,-13.2
16928,-11.73
16940,-9.56
16951,-6.76
16962,-3.57
16974,-0.37
16986,2.45
16998,4.57
17010,5.87
17022,6.44
17034,6.55
17046,6.47
17058,6.42
17070,6.46
17082,6.51
17094,6.51
17106,6.39
17118,6.18
17130,5.97
17141,5.87
17152,5.97
17164,6.26
17176,6.65
17188,7.01
17200,7.2
17212,7.16
17224,6.9
17236,6.52
17248,6.14
17260,5.87
17272,5.73
17284,5.72
17296,5.75
17308,5.72
17320,5.53
17331,5.11
17342,4.42
17354,3.5
17366,2.48
17378,1.5
17390,0.73
17402,0.25
17414,0.02
17426,-0.07
17438,-0.13
17450,-0.24
17462,-0.38
17474,-0.49
17486,-0.56
17498,-0.66
17510,-0.95
17521,-1.57
17532,-2.58
17544,-3.87
17556,-5.23
17568,-6.4
17580,-7.24
17592,-7.73
17604,-8.03
17616,-8.37
17628,-8.95
17640,-9.89
17652,-11.17
17664,-12.65
17676,-14.07
17688,-15.14
17700,-15.55
17711,-15.09
17722,-13.63
17734,-11.23
17746,-8.14
17758,-4.73
17770,-1.46
17782,1.28
17794,3.22
17806,4.29
17818,4.64
17830,4.55
17842,4.35
17854,4.29
17866,4.53
17878,5.04
17890,5.66
17901,6.21
17912,6.55
17924,6.64
17936,6.58
17948,6.53
17960,6.66
17972,7.0
17984,7.51
17996,8.05
18008,8.47
18020,8.69
18032,8.72
18044,8.63
18056,8.51
18068,8.42
18080,8.37
18091,8.31
18102,8.15
18114,7.81
18126,7.19
18138,6.29
18150,5.14
18162,3.91
18174,2.76
18186,1.88
18198,1.37
18210,1.22
18222,1.31
18234,1.48
18246,1.57
18258,1.5
18270,1.26
18281,0.91
18292,0.52
18304,0.17
18316,-0.09
18328,-0.2
18340,-0.17
18352,-0.03
18364,0.15
18376,0.26
18388,0.25
18400,0.09
18412,-0.22
18424,-0.67
18436,-1.27
18448,-2.05
18460,-3.06
18471,-4.29
18482,-5.68
18494,-7.1
18506,-8.42
18518,-9.56
18530,-10.51
18542,-11.36
18554,-12.21
18566,-13.13
18578,-14.14
18590,-15.19
18602,-16.13
18614,-16.77
18626,-16.87
18638,-16.24
18650,-14.72
18661,-12.35
18672,-9.3
18684,-5.93
18696,-2.61
18708,0.29
18720,2.58
18732,4.18
18744,5.19
18756,5.73
18768,5.93
18780,5.93
18792,5.8
18804,5.62
18816,5.45
18828,5.33
18840,5.27
18851,5.29
18862,5.39
18874,5.58
18886,5.88
18898,6.32
18910,6.87
18922,7.48
18934,8.07
18946,8.52
18958,8.76
18970,8.71
18982,8.42
18994,7.96
19006,7.49
19018,7.16
19030,7.03
19041,7.05
19052,7.05
19064,6.82
19076,6.23
19088,5.3
19100,4.2
19112,3.16
19124,2.41
19136,2.02
19148,1.94
19160,2.01
19172,2.05
19184,1.92
19196,1.59
19208,1.13
19220,0.66
19231,0.3
19242,0.08
19254,-0.02
19266,-0.1
19278,-0.27
19290,-0.62
19302,-1.11
19314,-1.67
19326,-2.19
19338,-2.62
19350,-3.01
19362,-3.46
19374,-4.1
19386,-4.95
19398,-5.91
19410,-6.81
19421,-7.45
19432,-7.77
19444,-7.86
19456,-7.97
19468,-8.33
19480,-9.09
19492,-10.19
19504,-11.45
19516,-12.62
19528,-13.53
19540,-14.07
19552,-14.21
19564,-13.9
19576,-13.08
19588,-11.73
19600,-9.88
19611,-7.65
19622,-5.26
19634,-2.91
19646,-0.74
19658,1.17
19670,2.78
19682,4.03
19694,4.86
19706,5.21
19718,5.1
19730,4.64
19742,4.01
19754,3.39
19766,2.93
19778,2.73
19790,2.79
19801,3.06
19812,3.45
19824,3.87
19836,4.25
19848,4.6
19860,4.94
19872,5.33
19884,5.76
19896,6.19
19908,6.48
19920,6.53
19932,6.31
19944,5.89
19956,5.41
19968,5.0
19980,4.68
19991,4.4
20002,4.02
20014,3.44
20026,2.65
20038,1.74
20050,0.88
20062,0.23
20074,-0.1
20086,-0.1
20098,0.11
20110,0.39
20122,0.56
20134,0.46
20146,0.04
20158,-0.66
20170,-1.5
20181,-2.34
20192,-3.05
20204,-3.63
20216,-4.14
20228,-4.72
20240,-5.47
20252,-6.44
20264,-7.58
20276,-8.79
20288,-9.94
20300,-10.98
20312,-11.87
20324,-12.6
20336,-13.09
20348,-13.17
20360,-12.66
20371,-11.4
20382,-9.38
20394,-6.79
20406,-3.96
20418,-1.29
20430,0.93
20442,2.61
20454,3.8
20466,4.65
20478,5.28
20490,5.72
20502,5.99
20514,6.15
20526,6.27
20538,6.47
20550,6.8
20561,7.24
20572,7.7
20584,8.09
20596,8.36
20608,8.53
20620,8.65
20632,8.76
20644,8.86
20656,8.95
20668,8.97
20680,8.86
20692,8.56
20704,7.99
20716,7.15
20728,6.06
20740,4.84
20751,3.6
20762,2.48
20774,1.55
20786,0.81
20798,0.2
20810,-0.35
20822,-0.9
20834,-1.46
20846,-2.0
20858,-2.49
20870,-2.85
20882,-3.07
20894,-3.14
20906,-3.11
20918,-3.03
20930,-2.94
20941,-2.85
20952,-2.74
20964,-2.6
20976,-2.43
20988,-2.28
