seconds,BVP
10,23.29
22,26.74
34,29.44
46,31.18
58,32.07
70,32.52
82,33.16
94,34.53
106,36.88
118,40.02
130,43.48
142,46.61
154,48.9
166,50.03
178,49.97
189,48.91
200,47.08
212,44.76
224,42.13
236,39.32
248,36.34
260,33.16
272,29.69
284,25.79
296,21.34
308,16.21
320,10.39
332,4.05
344,-2.54
356,-8.98
368,-14.9
379,-20.05
390,-24.25
402,-27.4
414,-29.5
426,-30.58
438,-30.9
450,-30.88
462,-31.13
474,-32.21
486,-34.41
498,-37.57
510,-41.14
522,-44.43
534,-46.95
546,-48.66
558,-49.95
569,-51.39
580,-53.34
592,-55.74
604,-58.12
616,-59.8
628,-60.22
640,-59.18
652,-56.78
664,-53.28
676,-48.87
688,-43.61
700,-37.51
712,-30.7
724,-23.58
736,-16.75
748,-10.81
759,-6.15
770,-2.75
782,-0.23
794,1.87
806,3.96
818,6.2
830,8.5
842,10.71
854,12.72
866,14.58
878,16.39
890,18.28
902,20.24
914,22.11
926,23.61
938,24.46
949,24.45
960,23.5
972,21.67
984,19.14
996,16.27
1008,13.53
1020,11.39
1032,10.15
1044,9.79
1056,9.92
1068,9.82
1080,8.71
1092,5.93
1104,1.15
1116,-5.52
1128,-13.58
1139,-22.28
1150,-30.71
1162,-37.97
1174,-43.31
1186,-46.27
1198,-46.78
1210,-45.14
1222,-41.93
1234,-37.8
1246,-33.34
1258,-29.01
1270,-25.08
1282,-21.67
1294,-18.82
1306,-16.41
1318,-14.26
1329,-12.11
1340,-9.78
1352,-7.22
1364,-4.6
1376,-2.27
1388,-0.63
1400,0.08
1412,-0.1
1424,-0.84
1436,-1.54
1448,-1.67
1460,-0.84
1472,0.94
1484,3.37
1496,5.93
1508,8.13
1519,9.62
1530,10.23
1542,9.89
1554,8.54
1566,6.1
1578,2.64
1590,-1.62
1602,-6.22
1614,-10.6
1626,-14.27
1638,-17.05
1650,-19.06
1662,-20.62
1674,-22.09
1686,-23.64
1698,-25.26
1709,-26.8
1720,-28.11
1732,-29.14
1744,-29.95
1756,-30.68
1768,-31.52
1780,-32.65
1792,-34.14
1804,-35.9
1816,-37.73
1828,-39.27
1840,-40.23
1852,-40.46
1864,-40.12
1876,-39.59
1888,-39.42
1899,-40.09
1910,-41.9
1922,-44.83
1934,-48.48
1946,-52.08
1958,-54.6
1970,-54.98
1982,-52.45
1994,-46.77
2006,-38.41
2018,-28.49
2030,-18.38
2042,-9.35
2054,-2.2
2066,2.83
2078,6.01
2089,7.79
2100,8.7
2112,9.03
2124,8.91
2136,8.35
2148,7.37
2160,6.16
2172,5.08
2184,4.59
2196,5.08
2208,6.81
2220,9.9
2232,14.41
2244,20.41
2256,27.93
2268,36.89
2279,46.92
2290,57.39
2302,67.54
2314,76.79
2326,84.86
2338,91.8
2350,97.74
2362,102.61
2374,106.02
2386,107.41
2398,106.32
2410,102.74
2422,97.13
2434,90.33
2446,83.22
2458,76.45
2469,70.33
2480,64.79
2492,59.53
2504,54.17
2516,48.32
2528,41.73
2540,34.27
2552,26.01
2564,17.2
2576,8.14
2588,-0.8
2600,-9.41
2612,-17.53
2624,-25.15
2636,-32.3
2648,-39.12
2659,-45.79
2670,-52.56
2682,-59.54
2694,-66.53
2706,-72.91
2718,-77.64
2730,-79.6
2742,-78.06
2754,-72.98
2766,-65.18
2778,-56.04
2790,-47.07
2802,-39.4
2814,-33.57
2826,-29.51
2838,-26.85
2849,-25.15
2860,-24.05
2872,-23.34
2884,-22.82
2896,-22.28
2908,-21.46
2920,-20.14
2932,-18.15
2944,-15.48
2956,-12.18
2968,-8.42
2980,-4.38
2992,-0.28
3004,3.64
3016,7.12
3028,9.95
3039,11.99
3050,13.18
3062,13.54
3074,13.19
3086,12.29
3098,11.01
3110,9.53
3122,8.05
3134,6.71
3146,5.55
3158,4.5
3170,3.45
3182,2.3
3194,1.07
3206,-0.11
3218,-1.02
3229,-1.53
3240,-1.64
3252,-1.56
3264,-1.58
3276,-1.93
3288,-2.69
3300,-3.74
3312,-4.82
3324,-5.75
3336,-6.44
3348,-6.99
3360,-7.62
3372,-8.56
3384,-10.0
3396,-12.04
3408,-14.65
3419,-17.63
3430,-20.58
3442,-22.88
3454,-23.81
3466,-22.76
3478,-19.44
3490,-14.04
3502,-7.24
3514,0.05
3526,7.0
3538,13.06
3550,18.05
3562,22.05
3574,25.18
3586,27.45
3598,28.78
3609,29.11
3620,28.46
3632,27.06
3644,25.28
3656,23.5
3668,22.03
3680,21.0
3692,20.41
3704,20.19
3716,20.31
3728,20.76
3740,21.58
3752,22.72
3764,24.02
3776,25.2
3788,25.88
3799,25.81
3810,24.88
3822,23.25
3834,21.24
3846,19.23
3858,17.49
3870,16.08
3882,14.88
3894,13.67
3906,12.21
3918,10.42
3930,8.34
3942,6.16
3954,4.13
3966,2.39
3978,0.92
3989,-0.41
4000,-1.82
4012,-3.5
4024,-5.47
4036,-7.65
4048,-9.84
4060,-11.89
4072,-13.73
4084,-15.4
4096,-16.98
4108,-18.59
4120,-20.38
4132,-22.55
4144,-25.31
4156,-28.75
4168,-32.66
4179,-36.47
4190,-39.24
4202,-40.02
4214,-38.17
4226,-33.61
4238,-26.95
4250,-19.21
4262,-11.47
4274,-4.52
4286,1.32
4298,6.1
4310,10.04
4322,13.28
4334,15.77
4346,17.44
4358,18.24
4369,18.32
4380,18.03
4392,17.66
4404,17.45
4416,17.45
4428,17.63
4440,17.95
4452,18.47
4464,19.3
4476,20.47
4488,21.87
4500,23.22
4512,24.24
4524,24.73
4536,24.66
4548,24.16
4559,23.35
4570,22.29
4582,20.99
4594,19.5
4606,17.92
4618,16.43
4630,15.18
4642,14.18
4654,13.33
4666,12.45
4678,11.39
4690,10.13
4702,8.71
4714,7.25
4726,5.82
4738,4.46
4749,3.19
4760,2.03
4772,1.03
4784,0.15
4796,-0.73
4808,-1.78
4820,-3.15
4832,-4.89
4844,-6.93
4856,-9.11
4868,-11.31
4880,-13.5
4892,-15.7
4904,-17.97
4916,-20.35
4928,-22.88
4939,-25.64
4950,-28.71
4962,-32.1
4974,-35.63
4986,-38.79
4998,-40.82
5010,-40.89
5022,-38.43
5034,-33.4
5046,-26.3
5058,-18.07
5070,-9.73
5082,-2.14
5094,4.23
5106,9.18
5118,12.76
5129,15.12
5140,16.42
5152,16.9
5164,16.82
5176,16.46
5188,16.07
5200,15.77
5212,15.6
5224,15.54
5236,15.65
5248,16.03
5260,16.79
5272,17.98
5284,19.49
5296,21.12
5308,22.63
5319,23.8
5330,24.51
5342,24.75
5354,24.58
5366,24.06
5378,23.25
5390,22.16
5402,20.78
5414,19.12
5426,17.2
5438,15.16
5450,13.14
5462,11.29
5474,9.73
5486,8.5
5498,7.56
5509,6.82
5520,6.15
5532,5.49
5544,4.77
5556,3.92
5568,2.87
5580,1.59
5592,0.14
5604,-1.39
5616,-2.85
5628,-4.15
5640,-5.32
5652,-6.47
5664,-7.76
5676,-9.33
5688,-11.19
5699,-13.29
5710,-15.45
5722,-17.55
5734,-19.53
5746,-21.49
5758,-23.62
5770,-26.17
5782,-29.27
5794,-32.77
5806,-36.23
5818,-38.86
5830,-39.79
5842,-38.33
5854,-34.23
5866,-27.82
5878,-19.93
5889,-11.6
5900,-3.81
5912,2.82
5924,8.08
5936,12.06
5948,14.99
5960,17.03
5972,18.26
5984,18.76
5996,18.66
6008,18.21
6020,17.74
6032,17.51
6044,17.6
6056,17.93
6068,18.26
6079,18.42
6090,18.38
6102,18.27
6114,18.34
6126,18.8
6138,19.69
6150,20.86
6162,21.98
6174,22.7
6186,22.76
6198,22.09
6210,20.82
6222,19.22
6234,17.55
6246,16.0
6258,14.58
6269,13.19
6280,11.68
6292,9.99
6304,8.16
6316,6.32
6328,4.64
6340,3.22
6352,2.07
6364,1.12
6376,0.22
6388,-0.79
6400,-2.01
6412,-3.54
6424,-5.39
6436,-7.47
6448,-9.66
6459,-11.81
6470,-13.78
6482,-15.55
6494,-17.19
6506,-18.91
6518,-20.94
6530,-23.52
6542,-26.71
6554,-30.36
6566,-33.98
6578,-36.82
6590,-38.07
6602,-37.07
6614,-33.62
6626,-28.05
6638,-21.14
6649,-13.82
6660,-6.89
6672,-0.87
6684,4.09
6696,8.01
6708,10.98
6720,13.01
6732,14.1
6744,14.29
6756,13.74
6768,12.75
6780,11.67
6792,10.77
6804,10.22
6816,10.09
6828,10.34
6839,10.9
6850,11.66
6862,12.51
6874,13.33
6886,14.06
6898,14.66
6910,15.09
6922,15.34
6934,15.33
6946,15.0
6958,14.32
6970,13.36
6982,12.24
6994,11.12
7006,10.08
7018,9.11
7029,8.06
7040,6.8
7052,5.27
7064,3.56
7076,1.84
7088,0.27
7100,-1.12
7112,-2.44
7124,-3.83
7136,-5.42
7148,-7.17
7160,-8.88
7172,-10.35
7184,-11.48
7196,-12.38
7208,-13.34
7219,-14.69
7230,-16.59
7242,-19.02
7254,-21.79
7266,-24.73
7278,-27.72
7290,-30.67
7302,-33.37
7314,-35.36
7326,-35.98
7338,-34.63
7350,-31.01
7362,-25.38
7374,-18.5
7386,-11.33
7398,-4.72
7409,0.9
7420,5.5
7432,9.26
7444,12.42
7456,15.03
7468,17.01
7480,18.21
7492,18.55
7504,18.08
7516,17.01
7528,15.7
7540,14.54
7552,13.82
7564,13.68
7576,14.06
7588,14.77
7599,15.61
7610,16.44
7622,17.22
7634,17.91
7646,18.44
7658,18.68
7670,18.46
7682,17.67
7694,16.36
7706,14.67
7718,12.77
7730,10.76
7742,8.63
7754,6.3
7766,3.71
7778,0.88
7789,-2.11
7800,-5.17
7812,-8.26
7824,-11.32
7836,-14.29
7848,-17.08
7860,-19.57
7872,-21.64
7884,-23.15
7896,-23.94
7908,-23.8
7920,-22.52
7932,-19.97
7944,-16.23
7956,-11.7
7968,-6.96
7979,-2.68
7990,0.62
8002,2.65
8014,3.36
8026,2.78
8038,0.94
8050,-2.11
8062,-6.17
8074,-10.77
8086,-15.04
8098,-17.96
8110,-18.65
8122,-16.68
8134,-12.32
8146,-6.44
8158,-0.17
8169,5.48
8180,9.96
8192,13.24
8204,15.74
8216,17.97
8228,20.37
8240,23.15
8252,26.26
8264,29.54
8276,32.69
8288,35.37
8300,37.27
8312,38.19
8324,38.16
8336,37.53
8348,36.82
8359,36.52
8370,36.87
8382,37.79
8394,39.03
8406,40.36
8418,41.8
8430,43.53
8442,45.64
8454,47.99
8466,50.09
8478,51.43
8490,51.62
8502,50.7
8514,48.99
8526,46.88
8538,44.47
8549,41.55
8560,37.7
8572,32.57
8584,26.23
8596,19.15
8608,12.09
8620,5.87
8632,1.05
8644,-2.17
8656,-3.99
8668,-4.96
8680,-5.81
8692,-7.24
8704,-9.72
8716,-13.21
8728,-17.19
8739,-20.8
8750,-23.23
8762,-24.07
8774,-23.56
8786,-22.46
8798,-21.75
8810,-22.17
8822,-24.03
8834,-27.2
8846,-31.28
8858,-35.84
8870,-40.41
8882,-44.41
8894,-47.11
8906,-47.74
8918,-45.8
8929,-41.35
8940,-35.12
8952,-28.25
8964,-21.98
8976,-17.16
8988,-14.06
9000,-12.44
9012,-11.76
9024,-11.42
9036,-11.02
9048,-10.41
9060,-9.64
9072,-8.9
9084,-8.44
9096,-8.41
9108,-8.8
9119,-9.38
9130,-9.68
9142,-9.11
9154,-7.16
9166,-3.59
9178,1.43
9190,7.41
9202,13.65
9214,19.45
9226,24.39
9238,28.35
9250,31.49
9262,34.16
9274,36.72
9286,39.46
9298,42.57
9309,46.16
9320,50.23
9332,54.69
9344,59.32
9356,63.85
9368,67.96
9380,71.33
9392,73.73
9404,75.0
9416,75.15
9428,74.33
9440,72.77
9452,70.67
9464,68.02
9476,64.57
9488,59.99
9499,54.01
9510,46.59
9522,37.98
9534,28.58
9546,18.74
9558,8.65
9570,-1.55
9582,-11.61
9594,-21.05
9606,-29.14
9618,-35.17
9630,-38.69
9642,-39.74
9654,-38.82
9666,-36.76
9678,-34.48
9689,-32.83
9700,-32.41
9712,-33.55
9724,-36.23
9736,-40.2
9748,-45.01
9760,-50.18
9772,-55.26
9784,-59.94
9796,-64.02
9808,-67.38
9820,-70.0
9832,-71.97
9844,-73.4
9856,-74.4
9868,-74.99
9879,-75.04
9890,-74.26
9902,-72.44
9914,-69.6
9926,-66.11
9938,-62.65
9950,-59.92
9962,-58.3
9974,-57.71
9986,-57.55
9998,-56.92
10010,-54.98
10022,-51.21
10034,-45.61
10046,-38.64
10058,-31.09
10069,-23.89
10080,-17.8
10092,-13.38
10104,-10.82
10116,-10.01
10128,-10.59
10140,-12.08
10152,-13.99
10164,-15.96
10176,-17.76
10188,-19.41
10200,-21.04
10212,-22.84
10224,-24.84
10236,-26.79
10248,-28.1
10259,-28.02
10270,-25.91
10282,-21.47
10294,-14.94
10306,-7.0
10318,1.46
10330,9.5
10342,16.35
10354,21.49
10366,24.63
10378,25.72
10390,24.97
10402,22.8
10414,19.86
10426,16.92
10438,14.72
10449,13.81
10460,14.36
10472,16.12
10484,18.51
10496,20.81
10508,22.4
10520,23.03
10532,22.81
10544,22.1
10556,21.25
10568,20.37
10580,19.32
10592,17.85
10604,15.87
10616,13.64
10628,11.84
10639,11.39
10650,13.12
10662,17.39
10674,23.84
10686,31.36
10698,38.3
10710,42.89
10722,43.7
10734,40.05
10746,32.15
10758,21.04
10770,8.29
10782,-4.39
10794,-15.59
10806,-24.44
10818,-30.71
10829,-34.74
10840,-37.2
10852,-38.83
10864,-40.22
10876,-41.62
10888,-42.92
10900,-43.74
10912,-43.55
10924,-41.84
10936,-38.32
10948,-32.94
10960,-25.98
10972,-17.94
10984,-9.47
10996,-1.23
11008,6.18
11019,12.3
11030,16.84
11042,19.74
11054,21.16
11066,21.47
11078,21.14
11090,20.6
11102,20.11
11114,19.74
11126,19.39
11138,18.92
11150,18.26
11162,17.48
11174,16.72
11186,16.19
11198,15.95
11209,15.95
11220,15.95
11232,15.69
11244,14.94
11256,13.52
11268,11.4
11280,8.56
11292,5.1
11304,1.19
11316,-2.91
11328,-6.84
11340,-10.28
11352,-13.02
11364,-15.1
11376,-16.84
11388,-18.68
11399,-21.05
11410,-24.12
11422,-27.76
11434,-31.46
11446,-34.57
11458,-36.4
11470,-36.46
11482,-34.64
11494,-31.15
11506,-26.58
11518,-21.75
11530,-17.54
11542,-14.7
11554,-13.71
11566,-14.61
11578,-16.96
11589,-19.99
11600,-22.7
11612,-24.21
11624,-23.93
11636,-21.74
11648,-17.99
11660,-13.42
11672,-8.95
11684,-5.45
11696,-3.51
11708,-3.26
11720,-4.36
11732,-6.12
11744,-7.79
11756,-8.81
11768,-8.97
11779,-8.46
11790,-7.64
11802,-6.93
11814,-6.55
11826,-6.47
11838,-6.54
11850,-6.5
11862,-6.16
11874,-5.38
11886,-4.05
11898,-2.11
11910,0.42
11922,3.43
11934,6.59
11946,9.45
11958,11.55
11969,12.59
11980,12.58
11992,11.87
12004,10.97
12016,10.36
12028,10.24
12040,10.55
12052,10.93
12064,10.98
12076,10.43
12088,9.19
12100,7.41
12112,5.3
12124,3.1
12136,0.96
12148,-1.07
12159,-3.04
12170,-5.08
12182,-7.38
12194,-10.13
12206,-13.46
12218,-17.35
12230,-21.48
12242,-25.28
12254,-27.98
12266,-28.85
12278,-27.45
12290,-23.76
12302,-18.25
12314,-11.66
12326,-4.84
12338,1.52
12349,6.97
12360,11.38
12372,14.87
12384,17.62
12396,19.88
12408,21.71
12420,23.08
12432,23.87
12444,24.05
12456,23.74
12468,23.25
12480,22.93
12492,23.02
12504,23.52
12516,24.21
12528,24.81
12539,25.14
12550,25.21
12562,25.16
12574,25.17
12586,25.25
12598,25.31
12610,25.18
12622,24.72
12634,23.91
12646,22.84
12658,21.69
12670,20.6
12682,19.63
12694,18.71
12706,17.68
12718,16.36
12729,14.61
12740,12.47
12752,10.07
12764,7.66
12776,5.46
12788,3.6
12800,2.04
12812,0.57
12824,-1.07
12836,-3.12
12848,-5.65
12860,-8.58
12872,-11.7
12884,-14.73
12896,-17.43
12908,-19.7
12919,-21.63
12930,-23.43
12942,-25.38
12954,-27.69
12966,-30.49
12978,-33.73
12990,-37.2
13002,-40.5
13014,-42.99
13026,-43.95
13038,-42.7
13050,-38.91
13062,-32.76
13074,-24.97
13086,-16.59
13098,-8.64
13109,-1.79
13120,3.76
13132,8.16
13144,11.74
13156,14.73
13168,17.19
13180,19.07
13192,20.32
13204,21.03
13216,21.41
13228,21.7
13240,22.11
13252,22.66
13264,23.34
13276,24.02
13288,24.66
13299,25.27
13310,25.9
13322,26.6
13334,27.31
13346,27.89
13358,28.13
13370,27.84
13382,26.95
13394,25.51
13406,23.74
13418,21.92
13430,20.31
13442,19.04
13454,18.07
13466,17.18
13478,16.06
13489,14.49
13500,12.38
13512,9.9
13524,7.34
13536,5.05
13548,3.21
13560,1.83
13572,0.74
13584,-0.31
13596,-1.5
13608,-2.88
13620,-4.38
13632,-5.89
13644,-7.31
13656,-8.59
13668,-9.74
13679,-10.78
13690,-11.75
13702,-12.72
13714,-13.81
13726,-15.15
13738,-16.77
13750,-18.6
13762,-20.33
13774,-21.48
13786,-21.53
13798,-20.1
13810,-17.13
13822,-12.9
13834,-7.94
13846,-2.82
13858,2.02
13869,6.33
13880,10.09
13892,13.33
13904,16.08
13916,18.29
13928,19.83
13940,20.61
13952,20.62
13964,19.99
13976,18.98
13988,17.9
14000,16.99
14012,16.33
14024,15.87
14036,15.47
14048,14.99
14059,14.43
14070,13.91
14082,13.62
14094,13.67
14106,14.05
14118,14.56
14130,14.93
14142,14.88
14154,14.29
14166,13.22
14178,11.82
14190,10.36
14202,9.04
14214,7.93
14226,6.97
14238,5.97
14249,4.73
14260,3.14
14272,1.24
14284,-0.81
14296,-2.81
14308,-4.62
14320,-6.26
14332,-7.82
14344,-9.42
14356,-11.18
14368,-13.18
14380,-15.43
14392,-17.93
14404,-20.61
14416,-23.28
14428,-25.57
14439,-27.05
14450,-27.28
14462,-25.99
14474,-23.23
14486,-19.31
14498,-14.75
14510,-10.07
14522,-5.68
14534,-1.76
14546,1.67
14558,4.64
14570,7.09
14582,8.9
14594,9.88
14606,9.94
14618,9.18
14629,7.87
14640,6.4
14652,5.16
14664,4.39
14676,4.15
14688,4.3
14700,4.6
14712,4.79
14724,4.66
14736,4.12
14748,3.27
14760,2.35
14772,1.76
14784,1.89
14796,3.07
14808,5.4
14819,8.75
14830,12.74
14842,16.89
14854,20.67
14866,23.67
14878,25.66
14890,26.51
14902,26.22
14914,24.83
14926,22.44
14938,19.21
14950,15.41
14962,11.37
14974,7.42
14986,3.79
14998,0.53
15009,-2.41
15020,-5.18
15032,-7.93
15044,-10.73
15056,-13.6
15068,-16.52
15080,-19.48
15092,-22.46
15104,-25.32
15116,-27.74
15128,-29.27
15140,-29.41
15152,-27.81
15164,-24.4
15176,-19.47
15188,-13.57
15199,-7.32
15210,-1.23
15222,4.37
15234,9.31
15246,13.49
15258,16.88
15270,19.43
15282,21.13
15294,22.07
15306,22.43
15318,22.41
15330,22.19
15342,21.84
15354,21.39
15366,20.82
15378,20.14
15389,19.44
15400,18.9
15412,18.68
15424,18.88
15436,19.46
15448,20.24
15460,20.98
15472,21.47
15484,21.59
15496,21.33
15508,20.76
15520,19.94
15532,18.91
15544,17.65
15556,16.15
15568,14.39
15579,12.46
15590,10.51
15602,8.73
15614,7.27
15626,6.16
15638,5.29
15650,4.48
15662,3.53
15674,2.35
15686,0.99
15698,-0.4
15710,-1.7
15722,-2.85
15734,-3.9
15746,-4.99
15758,-6.21
15769,-7.62
15780,-9.23
15792,-11.05
15804,-13.03
15816,-14.97
15828,-16.52
15840,-17.15
15852,-16.32
15864,-13.71
15876,-9.32
15888,-3.59
15900,2.82
15912,9.14
15924,14.69
15936,19.02
15948,21.92
15959,23.35
15970,23.51
15982,22.67
15994,21.16
16006,19.3
16018,17.25
16030,15.1
16042,12.87
16054,10.58
16066,8.31
16078,6.17
16090,4.27
16102,2.67
16114,1.38
16126,0.4
16138,-0.31
16149,-0.82
16160,-1.26
16172,-1.79
16184,-2.55
16196,-3.58
16208,-4.77
16220,-5.93
16232,-6.87
16244,-7.46
16256,-7.73
16268,-7.75
16280,-7.68
16292,-7.61
16304,-7.68
16316,-7.95
16328,-8.44
16339,-9.11
16350,-9.84
16362,-10.47
16374,-10.88
16386,-11.03
16398,-11.04
16410,-11.04
16422,-11.17
16434,-11.44
16446,-11.79
16458,-12.16
16470,-12.52
16482,-12.92
16494,-13.48
16506,-14.24
16518,-15.19
16529,-16.2
16540,-17.09
16552,-17.72
16564,-17.99
16576,-17.85
16588,-17.3
16600,-16.32
16612,-14.85
16624,-12.82
16636,-10.24
16648,-7.2
16660,-3.96
16672,-0.84
16684,1.82
16696,3.76
16708,4.88
16719,5.24
16730,4.99
16742,4.37
16754,3.58
16766,2.77
16778,2.07
16790,1.6
16802,1.43
16814,1.56
16826,1.94
16838,2.42
16850,2.87
16862,3.2
16874,3.39
16886,3.46
16898,3.44
16909,3.31
16920,3.0
16932,2.44
16944,1.65
16956,0.74
16968,-0.16
16980,-0.91
16992,-1.51
17004,-2.09
17016,-2.85
17028,-3.94
17040,-5.43
17052,-7.25
17064,-9.3
17076,-11.38
17088,-13.33
17099,-15.03
17110,-16.44
17122,-17.66
17134,-18.82
17146,-20.14
17158,-21.69
17170,-23.36
17182,-24.84
17194,-25.67
17206,-25.47
17218,-24.02
17230,-21.38
17242,-17.84
17254,-13.79
17266,-9.57
17278,-5.45
17289,-1.59
17300,1.89
17312,4.82
17324,7.09
17336,8.62
17348,9.48
17360,9.8
17372,9.79
17384,9.55
17396,9.14
17408,8.53
17420,7.74
17432,6.92
17444,6.25
17456,5.89
17468,5.87
17479,6.03
17490,6.11
17502,5.84
17514,5.14
17526,4.08
17538,2.82
17550,1.55
17562,0.36
17574,-0.74
17586,-1.75
17598,-2.67
17610,-3.49
17622,-4.19
17634,-4.78
17646,-5.29
17658,-5.76
17669,-6.21
17680,-6.68
17692,-7.27
17704,-8.09
17716,-9.27
17728,-10.85
17740,-12.74
17752,-14.69
17764,-16.35
17776,-17.35
17788,-17.39
17800,-16.33
17812,-14.21
17824,-11.19
17836,-7.56
17848,-3.7
17859,0.0
17870,3.2
17882,5.67
17894,7.28
17906,8.03
17918,7.98
17930,7.24
17942,5.96
17954,4.39
17966,2.8
17978,1.47
17990,0.59
18002,0.21
18014,0.21
18026,0.45
18038,0.79
18049,1.18
18060,1.64
18072,2.15
18084,2.65
18096,3.03
18108,3.19
18120,3.14
18132,2.96
18144,2.75
18156,2.52
18168,2.18
18180,1.6
18192,0.68
18204,-0.54
18216,-1.95
18228,-3.43
18239,-4.88
18250,-6.3
18262,-7.69
18274,-9.06
18286,-10.4
18298,-11.71
18310,-13.05
18322,-14.51
18334,-16.18
18346,-18.02
18358,-19.8
18370,-21.18
18382,-21.77
18394,-21.28
18406,-19.63
18418,-16.95
18429,-13.57
18440,-9.84
18452,-6.08
18464,-2.51
18476,0.76
18488,3.62
18500,6.01
18512,7.77
18524,8.78
18536,8.95
18548,8.4
18560,7.4
18572,6.32
18584,5.49
18596,5.04
18608,4.96
18619,5.08
18630,5.31
18642,5.59
18654,5.99
18666,6.55
18678,7.24
18690,7.9
18702,8.32
18714,8.33
18726,7.86
18738,6.96
18750,5.73
18762,4.31
18774,2.82
18786,1.4
18798,0.19
18809,-0.74
18820,-1.46
18832,-2.14
18844,-3.05
18856,-4.34
18868,-6.02
18880,-7.94
18892,-9.92
18904,-11.78
18916,-13.42
18928,-14.8
18940,-15.94
18952,-16.89
18964,-17.8
18976,-18.87
18988,-20.33
18999,-22.24
19010,-24.4
19022,-26.3
19034,-27.29
19046,-26.76
19058,-24.39
19070,-20.26
19082,-14.81
19094,-8.7
19106,-2.67
19118,2.66
19130,6.89
19142,9.87
19154,11.73
19166,12.75
19178,13.23
19189,13.37
19200,13.21
19212,12.76
19224,12.03
19236,11.14
19248,10.32
19260,9.76
19272,9.58
19284,9.71
19296,10.04
19308,10.46
19320,10.91
19332,11.37
19344,11.79
19356,12.08
19368,12.09
19379,11.72
19390,10.98
19402,9.97
19414,8.84
19426,7.73
19438,6.64
19450,5.49
19462,4.15
19474,2.52
19486,0.61
19498,-1.44
19510,-3.44
19522,-5.23
19534,-6.74
19546,-8.06
19558,-9.39
19569,-11.01
19580,-13.12
19592,-15.75
19604,-18.64
19616,-21.31
19628,-23.13
19640,-23.53
19652,-22.18
19664,-19.07
19676,-14.53
19688,-9.08
19700,-3.3
19712,2.32
19724,7.41
19736,11.73
19748,15.1
19759,17.42
19770,18.58
19782,18.61
19794,17.64
19806,15.97
19818,14.03
19830,12.22
19842,10.88
19854,10.14
19866,9.98
19878,10.2
19890,10.56
19902,10.88
19914,11.08
19926,11.18
19938,11.26
19949,11.35
19960,11.41
19972,11.33
19984,10.91
19996,10.04
20008,8.66
20020,6.83
20032,4.74
20044,2.62
20056,0.66
20068,-1.03
20080,-2.54
20092,-4.05
20104,-5.77
20116,-7.83
20128,-10.2
20139,-12.67
20150,-15.01
20162,-16.99
20174,-18.58
20186,-19.89
20198,-21.2
20210,-22.82
20222,-25.02
20234,-27.92
20246,-31.4
20258,-35.06
20270,-38.25
20282,-40.18
20294,-40.12
20306,-37.64
20318,-32.78
20329,-26.07
20340,-18.36
20352,-10.6
20364,-3.59
20376,2.23
20388,6.75
20400,10.08
20412,12.5
20424,14.26
20436,15.66
20448,16.91
20460,18.19
20472,19.62
20484,21.25
20496,23.04
20508,24.88
20519,26.66
20530,28.26
20542,29.63
20554,30.74
20566,31.64
20578,32.34
20590,32.87
20602,33.22
20614,33.4
20626,33.36
20638,33.0
20650,32.14
20662,30.61
20674,28.31
20686,25.32
20698,21.88
20709,18.34
20720,15.04
20732,12.13
20744,9.56
20756,7.1
20768,4.51
20780,1.64
20792,-1.47
20804,-4.67
20816,-7.73
20828,-10.5
20840,-12.93
20852,-15.09
20864,-17.18
20876,-19.47
20888,-22.22
20899,-25.61
20910,-29.63
20922,-33.99
20934,-38.16
20946,-41.41
20958,-43.03
20970,-42.44
20982,-39.45
20994,-34.24
