seconds,BVP
11,22.05
22,20.43
33,19.5
45,19.07
57,18.95
69,18.92
81,18.68
93,17.93
105,16.36
117,13.82
129,10.3
141,6.0
153,1.19
165,-3.85
177,-8.93
189,-14.01
201,-19.21
212,-24.81
223,-31.13
235,-38.36
247,-46.31
259,-54.3
271,-61.2
283,-65.64
295,-66.43
307,-62.93
319,-55.28
331,-44.33
343,-31.42
355,-17.97
367,-5.17
379,6.19
391,15.74
402,23.37
413,29.1
425,32.96
437,35.01
449,35.36
461,34.27
473,32.15
485,29.49
497,26.79
509,24.43
521,22.61
533,21.36
545,20.63
557,20.29
569,20.19
581,20.14
592,19.89
603,19.14
615,17.63
627,15.16
639,11.75
651,7.55
663,2.79
675,-2.27
687,-7.51
699,-12.93
711,-18.75
723,-25.25
735,-32.68
747,-41.0
759,-49.76
771,-58.04
782,-64.57
793,-68.08
805,-67.57
817,-62.69
829,-53.82
841,-41.94
853,-28.35
865,-14.41
877,-1.24
889,10.35
901,19.9
913,27.23
925,32.36
937,35.42
949,36.66
961,36.38
972,34.94
983,32.73
995,30.22
1007,27.83
1019,25.95
1031,24.8
1043,24.34
1055,24.36
1067,24.5
1079,24.44
1091,23.97
1103,23.0
1115,21.52
1127,19.5
1139,16.85
1151,13.49
1162,9.4
1173,4.68
1185,-0.42
1197,-5.68
1209,-10.97
1221,-16.43
1233,-22.39
1245,-29.23
1257,-37.18
1269,-46.05
1281,-55.13
1293,-63.17
1305,-68.65
1317,-70.17
1329,-66.87
1341,-58.76
1352,-46.71
1363,-32.24
1375,-17.08
1387,-2.73
1399,9.85
1411,20.26
1423,28.49
1435,34.72
1447,39.07
1459,41.62
1471,42.45
1483,41.76
1495,39.93
1507,37.49
1519,34.93
1531,32.63
1542,30.76
1553,29.32
1565,28.31
1577,27.75
1589,27.69
1601,28.11
1613,28.77
1625,29.27
1637,29.08
1649,27.77
1661,25.16
1673,21.35
1685,16.66
1697,11.5
1709,6.2
1721,0.93
1732,-4.34
1743,-9.8
1755,-15.74
1767,-22.38
1779,-29.86
1791,-38.08
1803,-46.64
1815,-54.79
1827,-61.48
1839,-65.54
1851,-65.91
1863,-62.0
1875,-53.88
1887,-42.37
1899,-28.82
1911,-14.8
1922,-1.66
1933,9.65
1945,18.74
1957,25.57
1969,30.26
1981,32.94
1993,33.78
2005,33.01
2017,31.1
2029,28.58
2041,26.09
2053,24.05
2065,22.67
2077,21.9
2089,21.53
2101,21.38
2112,21.36
2123,21.47
2135,21.72
2147,22.0
2159,22.06
2171,21.54
2183,20.11
2195,17.55
2207,13.9
2219,9.39
2231,4.36
2243,-0.89
2255,-6.17
2267,-11.55
2279,-17.2
2291,-23.41
2302,-30.33
2313,-37.88
2325,-45.63
2337,-52.78
2349,-58.27
2361,-60.98
2373,-60.02
2385,-54.98
2397,-46.12
2409,-34.28
2421,-20.75
2433,-6.92
2445,6.01
2457,17.19
2469,26.16
2481,32.72
2492,36.78
2503,38.4
2515,37.77
2527,35.34
2539,31.8
2551,27.95
2563,24.47
2575,21.76
2587,19.88
2599,18.64
2611,17.83
2623,17.34
2635,17.15
2647,17.25
2659,17.48
2671,17.46
2682,16.75
2693,14.97
2705,12.02
2717,8.13
2729,3.67
2741,-0.94
2753,-5.56
2765,-10.26
2777,-15.33
2789,-21.14
2801,-27.94
2813,-35.75
2825,-44.27
2837,-52.85
2849,-60.52
2861,-66.11
2872,-68.49
2883,-66.84
2895,-60.93
2907,-51.21
2919,-38.71
2931,-24.81
2943,-10.86
2955,2.03
2967,13.14
2979,22.09
2991,28.7
3003,32.91
3015,34.75
3027,34.43
3039,32.34
3051,29.1
3062,25.41
3073,21.94
3085,19.14
3097,17.22
3109,16.12
3121,15.66
3133,15.61
3145,15.8
3157,16.07
3169,16.25
3181,16.11
3193,15.34
3205,13.65
3217,10.83
3229,6.86
3241,1.99
3252,-3.36
3263,-8.81
3275,-14.15
3287,-19.56
3299,-25.48
3311,-32.44
3323,-40.7
3335,-49.92
3347,-59.1
3359,-66.71
3371,-71.14
3383,-71.11
3395,-66.1
3407,-56.47
3419,-43.36
3431,-28.4
3442,-13.22
3453,0.8
3465,12.85
3477,22.62
3489,30.15
3501,35.59
3513,39.07
3525,40.69
3537,40.58
3549,39.04
3561,36.56
3573,33.7
3585,30.93
3597,28.54
3609,26.57
3621,24.97
3632,23.7
3643,22.79
3655,22.26
3667,22.0
3679,21.73
3691,20.99
3703,19.36
3715,16.57
3727,12.66
3739,7.89
3751,2.62
3763,-2.86
3775,-8.43
3787,-14.17
3799,-20.32
3811,-27.18
3822,-34.96
3833,-43.63
3845,-52.79
3857,-61.54
3869,-68.59
3881,-72.51
3893,-72.1
3905,-66.8
3917,-56.91
3929,-43.53
3941,-28.29
3953,-12.85
3965,1.41
3977,13.61
3989,23.35
4001,30.57
4012,35.42
4023,38.14
4035,39.08
4047,38.67
4059,37.35
4071,35.51
4083,33.47
4095,31.41
4107,29.5
4119,27.87
4131,26.66
4143,25.96
4155,25.78
4167,25.95
4179,26.18
4191,26.07
4202,25.24
4213,23.38
4225,20.37
4237,16.27
4249,11.35
4261,5.94
4273,0.36
4285,-5.18
4297,-10.74
4309,-16.57
4321,-23.06
4333,-30.54
4345,-39.08
4357,-48.36
4369,-57.52
4381,-65.28
4392,-70.14
4403,-70.84
4415,-66.69
4427,-57.87
4439,-45.35
4451,-30.65
4463,-15.44
4475,-1.13
4487,11.28
4499,21.3
4511,28.75
4523,33.69
4535,36.3
4547,36.86
4559,35.76
4571,33.46
4582,30.45
4593,27.22
4605,24.21
4617,21.7
4629,19.9
4641,18.87
4653,18.55
4665,18.79
4677,19.32
4689,19.81
4701,19.92
4713,19.38
4725,18.03
4737,15.85
4749,12.96
4761,9.53
4772,5.71
4783,1.57
4795,-2.91
4807,-7.78
4819,-13.13
4831,-19.07
4843,-25.7
4855,-33.04
4867,-40.85
4879,-48.55
4891,-55.08
4903,-59.11
4915,-59.38
4927,-55.09
4939,-46.29
4951,-33.83
4962,-19.22
4973,-4.13
4985,10.0
4997,22.22
5009,32.07
5021,39.46
5033,44.44
5045,47.11
5057,47.59
5069,46.03
5081,42.84
5093,38.59
5105,34.01
5117,29.78
5129,26.33
5141,23.81
5152,22.11
5163,20.98
5175,20.26
5187,19.88
5199,19.73
5211,19.63
5223,19.22
5235,18.04
5247,15.76
5259,12.29
5271,7.85
5283,2.89
5295,-2.22
5307,-7.29
5319,-12.43
5331,-17.97
5342,-24.28
5353,-31.6
5365,-39.81
5377,-48.39
5389,-56.34
5401,-62.38
5413,-65.16
5425,-63.68
5437,-57.59
5449,-47.31
5461,-33.99
5473,-19.18
5485,-4.43
5497,9.0
5509,20.32
5521,29.17
5532,35.48
5543,39.35
5555,41.02
5567,40.81
5579,39.2
5591,36.69
5603,33.79
5615,30.89
5627,28.26
5639,26.03
5651,24.28
5663,23.09
5675,22.46
5687,22.36
5699,22.59
5711,22.83
5722,22.68
5733,21.74
5745,19.74
5757,16.59
5769,12.4
5781,7.43
5793,2.0
5805,-3.62
5817,-9.29
5829,-15.1
5841,-21.3
5853,-28.21
5865,-36.0
5877,-44.49
5889,-52.95
5901,-60.18
5912,-64.77
5923,-65.43
5935,-61.46
5947,-52.94
5959,-40.74
5971,-26.29
5983,-11.14
5995,3.36
6007,16.26
6019,27.01
6031,35.32
6043,41.02
6055,44.02
6067,44.39
6079,42.48
6091,38.97
6102,34.75
6113,30.69
6125,27.46
6137,25.27
6149,24.01
6161,23.31
6173,22.82
6185,22.34
6197,21.89
6209,21.55
6221,21.29
6233,20.85
6245,19.78
6257,17.56
6269,13.87
6281,8.71
6292,2.47
6303,-4.27
6315,-10.92
6327,-17.11
6339,-22.82
6351,-28.37
6363,-34.28
6375,-41.05
6387,-48.99
6399,-57.98
6411,-67.4
6423,-76.06
6435,-82.46
6447,-85.05
6459,-82.75
6471,-75.24
6482,-63.16
6493,-47.94
6505,-31.4
6517,-15.23
6529,-0.63
6541,11.84
6553,22.09
6565,30.2
6577,36.18
6589,39.89
6601,41.25
6613,40.44
6625,38.03
6637,34.86
6649,31.83
6661,29.57
6672,28.29
6683,27.86
6695,27.97
6707,28.35
6719,28.88
6731,29.53
6743,30.27
6755,30.98
6767,31.36
6779,31.03
6791,29.65
6803,26.95
6815,22.95
6827,17.93
6839,12.41
6851,6.96
6862,2.02
6873,-2.33
6885,-6.34
6897,-10.57
6909,-15.61
6921,-21.91
6933,-29.59
6945,-38.38
6957,-47.55
6969,-56.02
6981,-62.43
6993,-65.4
7005,-63.84
7017,-57.28
7029,-46.13
7041,-31.59
7052,-15.4
7063,0.65
7075,15.1
7087,27.12
7099,36.46
7111,43.26
7123,47.77
7135,50.19
7147,50.66
7159,49.39
7171,46.79
7183,43.44
7195,40.1
7207,37.37
7219,35.59
7231,34.75
7242,34.58
7253,34.72
7265,34.89
7277,34.98
7289,34.94
7301,34.74
7313,34.22
7325,33.11
7337,31.11
7349,27.97
7361,23.62
7373,18.21
7385,12.11
7397,5.79
7409,-0.36
7421,-6.16
7432,-11.73
7443,-17.43
7455,-23.71
7467,-30.95
7479,-39.2
7491,-48.16
7503,-57.11
7515,-64.98
7527,-70.5
7539,-72.46
7551,-69.95
7563,-62.74
7575,-51.39
7587,-37.18
7599,-21.77
7611,-6.84
7622,6.41
7633,17.39
7645,26.05
7657,32.6
7669,37.27
7681,40.1
7693,41.05
7705,40.17
7717,37.81
7729,34.62
7741,31.4
7753,28.8
7765,27.16
7777,26.41
7789,26.24
7801,26.36
7812,26.59
7823,26.94
7835,27.41
7847,27.84
7859,27.87
7871,27.01
7883,24.86
7895,21.25
7907,16.39
7919,10.7
7931,4.72
7943,-1.1
7955,-6.57
7967,-11.74
7979,-16.91
7991,-22.46
8002,-28.77
8013,-36.05
8025,-44.21
8037,-52.78
8049,-60.89
8061,-67.32
8073,-70.8
8085,-70.25
8097,-65.17
8109,-55.77
8121,-43.02
8133,-28.32
8145,-13.25
8157,0.89
8169,13.18
8181,23.16
8192,30.66
8203,35.68
8215,38.28
8227,38.62
8239,37.02
8251,33.97
8263,30.16
8275,26.29
8287,22.92
8299,20.4
8311,18.79
8323,17.99
8335,17.85
8347,18.24
8359,19.04
8371,20.06
8382,21.0
8393,21.42
8405,20.9
8417,19.13
8429,16.12
8441,12.13
8453,7.61
8465,2.99
8477,-1.51
8489,-5.89
8501,-10.43
8513,-15.47
8525,-21.38
8537,-28.3
8549,-36.15
8561,-44.46
8572,-52.4
8583,-58.8
8595,-62.39
8607,-62.09
8619,-57.35
8631,-48.39
8643,-36.12
8655,-21.98
8667,-7.49
8679,6.01
8691,17.61
8703,26.77
8715,33.27
8727,37.06
8739,38.25
8751,37.1
8762,34.06
8773,29.78
8785,24.98
8797,20.34
8809,16.38
8821,13.39
8833,11.45
8845,10.5
8857,10.37
8869,10.86
8881,11.69
8893,12.59
8905,13.19
8917,13.16
8929,12.18
8941,10.1
8952,6.92
8963,2.88
8975,-1.66
8987,-6.32
8999,-10.87
9011,-15.36
9023,-20.14
9035,-25.74
9047,-32.6
9059,-40.79
9071,-49.77
9083,-58.36
9095,-64.97
9107,-67.99
9119,-66.29
9131,-59.56
9142,-48.4
9153,-34.15
9165,-18.54
9177,-3.27
9189,10.31
9201,21.37
9213,29.53
9225,34.79
9237,37.39
9249,37.74
9261,36.29
9273,33.54
9285,30.0
9297,26.07
9309,22.14
9321,18.52
9332,15.46
9343,13.18
9355,11.75
9367,11.16
9379,11.2
9391,11.55
9403,11.77
9415,11.44
9427,10.21
9439,7.9
9451,4.51
9463,0.26
9475,-4.53
9487,-9.57
9499,-14.66
9511,-19.86
9522,-25.39
9533,-31.63
9545,-38.87
9557,-47.19
9569,-56.16
9581,-64.89
9593,-72.05
9605,-76.12
9617,-75.82
9629,-70.46
9641,-60.26
9653,-46.28
9665,-30.19
9677,-13.83
9689,1.22
9701,13.96
9712,23.93
9723,31.13
9735,35.77
9747,38.12
9759,38.48
9771,37.2
9783,34.69
9795,31.4
9807,27.81
9819,24.28
9831,21.08
9843,18.41
9855,16.33
9867,14.87
9879,13.97
9891,13.46
9902,13.08
9913,12.49
9925,11.33
9937,9.36
9949,6.48
9961,2.73
9973,-1.68
9985,-6.54
9997,-11.66
10009,-17.02
10021,-22.76
10033,-29.19
10045,-36.68
10057,-45.4
10069,-55.07
10081,-64.87
10092,-73.39
10103,-79.0
10115,-80.19
10127,-76.1
10139,-66.76
10151,-53.11
10163,-36.77
10175,-19.55
10187,-3.1
10199,11.4
10211,23.3
10223,32.36
10235,38.68
10247,42.49
10259,44.13
10271,44.02
10282,42.58
10293,40.24
10305,37.39
10317,34.32
10329,31.25
10341,28.38
10353,25.91
10365,24.02
10377,22.86
10389,22.37
10401,22.31
10413,22.25
10425,21.63
10437,20.0
10449,17.1
10461,12.94
10472,7.8
10483,2.08
10495,-3.86
10507,-9.75
10519,-15.58
10531,-21.58
10543,-28.17
10555,-35.82
10567,-44.78
10579,-54.78
10591,-64.82
10603,-73.28
10615,-78.26
10627,-78.14
10639,-72.16
10651,-60.67
10662,-45.07
10673,-27.39
10685,-9.66
10697,6.51
10709,20.2
10721,31.1
10733,39.29
10745,44.97
10757,48.34
10769,49.6
10781,49.0
10793,46.91
10805,43.86
10817,40.4
10829,37.06
10841,34.2
10852,31.95
10863,30.29
10875,29.09
10887,28.23
10899,27.64
10911,27.27
10923,27.0
10935,26.58
10947,25.58
10959,23.53
10971,20.12
10983,15.33
10995,9.52
11007,3.24
11019,-2.97
11031,-8.82
11042,-14.4
11053,-20.17
11065,-26.68
11077,-34.38
11089,-43.28
11101,-52.81
11113,-61.81
11125,-68.74
11137,-72.03
11149,-70.55
11161,-63.92
11173,-52.67
11185,-38.08
11197,-21.86
11209,-5.65
11221,9.23
11232,21.99
11243,32.23
11255,39.82
11267,44.79
11279,47.26
11291,47.51
11303,46.0
11315,43.39
11327,40.36
11339,37.51
11351,35.25
11363,33.66
11375,32.65
11387,31.96
11399,31.41
11411,30.92
11422,30.56
11433,30.42
11445,30.46
11457,30.45
11469,29.94
11481,28.47
11493,25.7
11505,21.62
11517,16.5
11529,10.84
11541,5.1
11553,-0.45
11565,-5.83
11577,-11.26
11589,-17.1
11601,-23.64
11612,-31.1
11623,-39.47
11635,-48.44
11647,-57.27
11659,-64.85
11671,-69.75
11683,-70.61
11695,-66.6
11707,-57.65
11719,-44.59
11731,-28.96
11743,-12.57
11755,2.95
11767,16.44
11779,27.31
11791,35.42
11802,40.92
11813,44.02
11825,44.98
11837,44.06
11849,41.66
11861,38.31
11873,34.7
11885,31.53
11897,29.37
11909,28.47
11921,28.7
11933,29.62
11945,30.71
11957,31.53
11969,31.91
11981,31.89
11992,31.56
12003,30.94
12015,29.83
12027,27.91
12039,24.89
12051,20.67
12063,15.46
12075,9.73
12087,3.98
12099,-1.39
12111,-6.32
12123,-10.99
12135,-15.8
12147,-21.1
12159,-27.13
12171,-33.97
12182,-41.52
12193,-49.48
12205,-57.29
12217,-64.0
12229,-68.38
12241,-69.13
12253,-65.31
12265,-56.75
12277,-44.21
12289,-29.21
12301,-13.54
12313,1.24
12325,14.15
12337,24.76
12349,32.99
12361,38.81
12372,42.16
12383,43.03
12395,41.61
12407,38.46
12419,34.43
12431,30.44
12443,27.22
12455,25.13
12467,24.11
12479,23.84
12491,23.93
12503,24.12
12515,24.36
12527,24.67
12539,25.0
12551,25.13
12562,24.66
12573,23.14
12585,20.3
12597,16.17
12609,11.11
12621,5.64
12633,0.21
12645,-4.93
12657,-9.84
12669,-14.76
12681,-20.01
12693,-25.88
12705,-32.57
12717,-40.11
12729,-48.3
12741,-56.53
12752,-63.8
12763,-68.82
12775,-70.24
12787,-67.14
12799,-59.3
12811,-47.38
12823,-32.72
12835,-17.03
12847,-1.92
12859,11.41
12871,22.27
12883,30.4
12895,35.8
12907,38.6
12919,39.02
12931,37.44
12942,34.44
12953,30.74
12965,27.07
12977,24.05
12989,21.97
13001,20.85
13013,20.43
13025,20.4
13037,20.45
13049,20.45
13061,20.35
13073,20.11
13085,19.66
13097,18.82
13109,17.31
13121,14.87
13132,11.35
13143,6.82
13155,1.58
13167,-3.95
13179,-9.37
13191,-14.52
13203,-19.5
13215,-24.68
13227,-30.54
13239,-37.46
13251,-45.54
13263,-54.47
13275,-63.42
13287,-71.14
13299,-76.13
13311,-77.0
13322,-72.88
13333,-63.72
13345,-50.41
13357,-34.53
13369,-17.95
13381,-2.32
13393,11.24
13405,22.21
13417,30.55
13429,36.42
13441,40.0
13453,41.47
13465,41.1
13477,39.3
13489,36.61
13501,33.61
13512,30.77
13523,28.33
13535,26.38
13547,24.88
13559,23.84
13571,23.26
13583,23.17
13595,23.5
13607,24.03
13619,24.32
13631,23.89
13643,22.27
13655,19.24
13667,14.87
13679,9.49
13691,3.63
13702,-2.23
13713,-7.78
13725,-13.01
13737,-18.19
13749,-23.8
13761,-30.33
13773,-38.1
13785,-47.03
13797,-56.53
13809,-65.5
13821,-72.47
13833,-75.96
13845,-74.84
13857,-68.71
13869,-57.98
13881,-43.8
13892,-27.76
13903,-11.46
13915,3.74
13927,16.94
13939,27.63
13951,35.68
13963,41.14
13975,44.15
13987,44.96
13999,43.92
14011,41.51
14023,38.37
14035,35.15
14047,32.37
14059,30.32
14071,28.97
14082,28.13
14093,27.58
14105,27.19
14117,26.97
14129,26.92
14141,26.97
14153,26.85
14165,26.15
14177,24.52
14189,21.68
14201,17.62
14213,12.54
14225,6.81
14237,0.82
14249,-5.14
14261,-10.97
14272,-16.82
14283,-23.06
14295,-30.13
14307,-38.33
14319,-47.57
14331,-57.29
14343,-66.35
14355,-73.31
14367,-76.66
14379,-75.3
14391,-68.81
14403,-57.63
14415,-43.0
14427,-26.59
14439,-10.11
14451,5.12
14462,18.25
14473,28.91
14485,37.03
14497,42.62
14509,45.74
14521,46.49
14533,45.22
14545,42.47
14557,39.01
14569,35.62
14581,32.89
14593,31.12
14605,30.22
14617,29.92
14629,29.85
14641,29.78
14652,29.61
14663,29.36
14675,29.06
14687,28.61
14699,27.77
14711,26.22
14723,23.66
14735,19.92
14747,15.05
14759,9.3
14771,3.03
14783,-3.38
14795,-9.66
14807,-15.73
14819,-21.7
14831,-27.87
14842,-34.6
14853,-42.14
14865,-50.51
14877,-59.29
14889,-67.56
14901,-74.04
14913,-77.31
14925,-76.21
14937,-70.19
14949,-59.57
14961,-45.45
14973,-29.45
14985,-13.24
14997,1.79
15009,14.79
15021,25.37
15032,33.47
15043,39.09
15055,42.32
15067,43.29
15079,42.28
15091,39.83
15103,36.6
15115,33.34
15127,30.61
15139,28.67
15151,27.52
15163,26.94
15175,26.69
15187,26.59
15199,26.59
15211,26.68
15222,26.79
15233,26.72
15245,26.16
15257,24.76
15269,22.33
15281,18.85
15293,14.51
15305,9.61
15317,4.48
15329,-0.63
15341,-5.61
15353,-10.49
15365,-15.48
15377,-20.91
15389,-27.17
15401,-34.53
15412,-43.0
15423,-52.11
15435,-60.91
15447,-68.09
15459,-72.24
15471,-72.25
15483,-67.62
15495,-58.6
15507,-46.1
15519,-31.49
15531,-16.26
15543,-1.73
15555,11.1
15567,21.61
15579,29.54
15591,34.87
15602,37.74
15613,38.45
15625,37.34
15637,34.87
15649,31.62
15661,28.2
15673,25.2
15685,23.04
15697,21.88
15709,21.68
15721,22.16
15733,23.03
15745,24.02
15757,24.91
15769,25.56
15781,25.73
15792,25.2
15803,23.7
15815,21.09
15827,17.43
15839,12.98
15851,8.12
15863,3.22
15875,-1.51
15887,-6.12
15899,-10.87
15911,-16.08
15923,-22.04
15935,-28.88
15947,-36.45
15959,-44.3
15971,-51.62
15982,-57.31
15993,-60.19
16005,-59.29
16017,-54.15
16029,-45.06
16041,-32.98
16053,-19.29
16065,-5.41
16077,7.51
16089,18.74
16101,27.91
16113,34.88
16125,39.53
16137,41.8
16149,41.74
16161,39.59
16172,35.91
16183,31.5
16195,27.21
16207,23.78
16219,21.57
16231,20.5
16243,20.2
16255,20.23
16267,20.26
16279,20.21
16291,20.09
16303,19.91
16315,19.46
16327,18.4
16339,16.31
16351,12.98
16362,8.54
16373,3.37
16385,-1.99
16397,-7.09
16409,-11.77
16421,-16.19
16433,-20.77
16445,-26.0
16457,-32.24
16469,-39.64
16481,-47.94
16493,-56.48
16505,-64.18
16517,-69.68
16529,-71.64
16541,-69.08
16552,-61.72
16563,-50.15
16575,-35.68
16587,-19.99
16599,-4.69
16611,9.03
16623,20.49
16635,29.43
16647,35.74
16659,39.46
16671,40.67
16683,39.67
16695,37.02
16707,33.48
16719,29.87
16731,26.8
16742,24.58
16753,23.15
16765,22.29
16777,21.73
16789,21.31
16801,21.03
16813,20.95
16825,21.07
16837,21.2
16849,20.95
16861,19.88
16873,17.61
16885,14.06
16897,9.42
16909,4.08
16921,-1.51
16932,-7.03
16943,-12.4
16955,-17.76
16967,-23.39
16979,-29.62
16991,-36.71
17003,-44.69
17015,-53.21
17027,-61.47
17039,-68.2
17051,-71.98
17063,-71.55
17075,-66.31
17087,-56.52
17099,-43.28
17111,-28.19
17122,-12.9
17133,1.27
17145,13.5
17157,23.46
17169,31.09
17181,36.44
17193,39.59
17205,40.66
17217,39.94
17229,37.91
17241,35.21
17253,32.51
17265,30.29
17277,28.79
17289,27.97
17301,27.6
17312,27.46
17323,27.42
17335,27.46
17347,27.6
17359,27.8
17371,27.86
17383,27.4
17395,26.0
17407,23.32
17419,19.25
17431,13.99
17443,8.0
17455,1.8
17467,-4.14
17479,-9.62
17491,-14.76
17502,-19.97
17513,-25.8
17525,-32.71
17537,-40.84
17549,-49.79
17561,-58.64
17573,-66.03
17585,-70.46
17597,-70.71
17609,-66.22
17621,-57.19
17633,-44.66
17645,-30.09
17657,-15.07
17669,-0.88
17681,11.6
17692,21.93
17703,29.99
17715,35.74
17727,39.28
17739,40.74
17751,40.41
17763,38.79
17775,36.5
17787,34.19
17799,32.35
17811,31.21
17823,30.68
17835,30.5
17847,30.37
17859,30.1
17871,29.67
17882,29.17
17893,28.69
17905,28.23
17917,27.6
17929,26.47
17941,24.46
17953,21.29
17965,16.91
17977,11.57
17989,5.75
18001,-0.03
18013,-5.35
18025,-10.14
18037,-14.65
18049,-19.37
18061,-24.81
18072,-31.33
18083,-38.94
18095,-47.29
18107,-55.58
18119,-62.71
18131,-67.41
18143,-68.52
18155,-65.32
18167,-57.75
18179,-46.53
18191,-32.96
18203,-18.57
18215,-4.74
18227,7.58
18239,17.95
18251,26.26
18262,32.53
18273,36.74
18285,38.82
18297,38.83
18309,37.06
18321,34.09
18333,30.69
18345,27.61
18357,25.36
18369,24.1
18381,23.67
18393,23.72
18405,23.92
18417,24.1
18429,24.27
18441,24.5
18452,24.79
18463,24.91
18475,24.44
18487,22.91
18499,20.06
18511,15.95
18523,11.0
18535,5.76
18547,0.71
18559,-3.94
18571,-8.34
18583,-12.83
18595,-17.82
18607,-23.6
18619,-30.25
18631,-37.6
18642,-45.16
18653,-52.13
18665,-57.47
18677,-60.06
18689,-58.97
18701,-53.78
18713,-44.8
18725,-32.96
18737,-19.64
18749,-6.26
18761,6.04
18773,16.58
18785,25.05
18797,31.39
18809,35.6
18821,37.65
18832,37.6
18843,35.68
18855,32.43
18867,28.59
18879,24.97
18891,22.21
18903,20.61
18915,20.08
18927,20.26
18939,20.73
18951,21.18
18963,21.44
18975,21.49
18987,21.31
18999,20.78
19011,19.65
19022,17.67
19033,14.66
19045,10.69
19057,6.0
19069,0.98
19081,-4.02
19093,-8.82
19105,-13.45
19117,-18.13
19129,-23.16
19141,-28.83
19153,-35.34
19165,-42.72
19177,-50.68
19189,-58.57
19201,-65.34
19212,-69.69
19223,-70.4
19235,-66.7
19247,-58.61
19259,-46.94
19271,-33.08
19283,-18.62
19295,-4.91
19307,7.13
19319,17.11
19331,24.94
19343,30.69
19355,34.38
19367,36.08
19379,35.89
19391,34.14
19402,31.4
19413,28.36
19425,25.72
19437,23.91
19449,23.04
19461,22.88
19473,23.07
19485,23.27
19497,23.34
19509,23.32
19521,23.31
19533,23.29
19545,23.06
19557,22.24
19569,20.39
19581,17.22
19592,12.72
19603,7.14
19615,1.02
19627,-5.1
19639,-10.79
19651,-15.89
19663,-20.55
19675,-25.12
19687,-30.13
19699,-36.03
19711,-43.09
19723,-51.21
19735,-59.85
19747,-67.98
19759,-74.22
19771,-77.18
19782,-75.77
19793,-69.61
19805,-59.11
19817,-45.4
19829,-30.0
19841,-14.43
19853,0.09
19865,12.76
19877,23.17
19889,31.15
19901,36.7
19913,39.92
19925,41.03
19937,40.43
19949,38.64
19961,36.29
19972,33.93
19983,31.98
19995,30.65
20007,29.9
20019,29.59
20031,29.51
20043,29.51
20055,29.55
20067,29.64
20079,29.74
20091,29.74
20103,29.36
20115,28.23
20127,26.02
20139,22.5
20151,17.73
20162,11.97
20173,5.69
20185,-0.66
20197,-6.69
20209,-12.23
20221,-17.3
20233,-22.09
20245,-26.94
20257,-32.2
20269,-38.21
20281,-45.13
20293,-52.8
20305,-60.65
20317,-67.64
20329,-72.45
20341,-73.72
20352,-70.53
20363,-62.64
20375,-50.66
20387,-35.92
20399,-20.06
20411,-4.67
20423,9.1
20435,20.6
20447,29.64
20459,36.26
20471,40.56
20483,42.65
20495,42.69
20507,41.0
20519,38.07
20531,34.58
20542,31.2
20553,28.5
20565,26.8
20577,26.14
20589,26.28
20601,26.89
20613,27.61
20625,28.18
20637,28.45
20649,28.35
20661,27.81
20673,26.69
20685,24.81
20697,21.97
20709,18.06
20721,13.19
20732,7.63
20743,1.84
20755,-3.79
20767,-8.98
20779,-13.7
20791,-18.19
20803,-22.87
20815,-28.2
20827,-34.52
20839,-41.9
20851,-49.99
20863,-57.99
20875,-64.69
20887,-68.76
20899,-68.99
20911,-64.74
20922,-56.09
20933,-43.94
20945,-29.71
20957,-15.0
20969,-1.19
20981,10.82
20993,20.59
