seconds,BVP
4,-13.35
16,-15.83
27,-18.68
38,-22.2
50,-26.49
62,-31.37
74,-36.44
86,-41.25
98,-45.42
110,-48.84
122,-51.71
134,-54.55
146,-58.07
158,-63.05
170,-69.99
182,-78.89
194,-88.88
206,-98.22
217,-104.55
228,-105.49
240,-99.38
252,-85.93
264,-66.37
276,-43.1
288,-19.02
300,3.23
312,21.86
324,36.03
336,45.71
348,51.33
360,53.5
372,52.86
384,50.02
396,45.65
407,40.43
418,35.08
430,30.24
442,26.4
454,23.77
466,22.33
478,21.91
490,22.31
502,23.41
514,25.14
526,27.36
538,29.75
550,31.8
562,32.94
574,32.74
586,31.09
597,28.21
608,24.52
620,20.49
632,16.55
644,13.01
656,10.01
668,7.62
680,5.7
692,4.02
704,2.25
716,0.12
728,-2.4
740,-5.11
752,-7.6
764,-9.53
776,-10.78
787,-11.57
798,-12.38
810,-13.8
822,-16.2
834,-19.68
846,-23.96
858,-28.54
870,-32.9
882,-36.66
894,-39.68
906,-42.08
918,-44.27
930,-46.79
942,-50.3
954,-55.28
966,-61.82
977,-69.34
988,-76.47
1000,-81.28
1012,-81.79
1024,-76.65
1036,-65.61
1048,-49.77
1060,-31.15
1072,-12.15
1084,5.22
1096,19.7
1108,30.83
1120,38.7
1132,43.57
1144,45.64
1156,44.99
1167,41.81
1178,36.54
1190,30.0
1202,23.32
1214,17.62
1226,13.77
1238,12.13
1250,12.55
1262,14.52
1274,17.4
1286,20.68
1298,24.01
1310,27.23
1322,30.11
1334,32.33
1346,33.48
1357,33.19
1368,31.35
1380,28.2
1392,24.28
1404,20.26
1416,16.69
1428,13.81
1440,11.48
1452,9.3
1464,6.81
1476,3.76
1488,0.15
1500,-3.79
1512,-7.66
1524,-11.13
1536,-14.04
1547,-16.46
1558,-18.61
1570,-20.85
1582,-23.48
1594,-26.79
1606,-30.86
1618,-35.63
1630,-40.86
1642,-46.19
1654,-51.29
1666,-55.95
1678,-60.28
1690,-64.69
1702,-69.85
1714,-76.3
1726,-84.12
1737,-92.56
1748,-99.95
1760,-104.12
1772,-103.02
1784,-95.45
1796,-81.53
1808,-62.64
1820,-41.04
1832,-19.15
1844,0.97
1856,18.0
1868,31.33
1880,40.87
1892,46.8
1904,49.44
1916,49.22
1927,46.68
1938,42.52
1950,37.52
1962,32.51
1974,28.24
1986,25.27
1998,23.9
2010,24.2
2022,26.04
2034,29.19
2046,33.39
2058,38.33
2070,43.6
2082,48.64
2094,52.86
2106,55.69
2117,56.76
2128,56.1
2140,54.04
2152,51.13
2164,47.92
2176,44.7
2188,41.5
2200,38.15
2212,34.56
2224,30.77
2236,27.13
2248,24.05
2260,21.84
2272,20.56
2284,20.0
2296,19.78
2307,19.5
2318,18.95
2330,18.1
2342,17.13
2354,16.34
2366,16.03
2378,16.4
2390,17.32
2402,18.27
2414,18.28
2426,16.18
2438,10.93
2450,2.0
2462,-10.35
2474,-25.18
2486,-41.14
2497,-56.93
2508,-71.76
2520,-85.49
2532,-98.57
2544,-111.72
2556,-125.36
2568,-139.18
2580,-151.85
2592,-161.23
2604,-164.91
2616,-160.97
2628,-148.71
2640,-128.92
2652,-103.64
2664,-75.6
2676,-47.49
2687,-21.47
2698,1.09
2710,19.44
2722,33.36
2734,43.0
2746,48.74
2758,51.23
2770,51.25
2782,49.66
2794,47.21
2806,44.55
2818,42.13
2830,40.28
2842,39.22
2854,39.17
2866,40.34
2877,42.91
2888,46.9
2900,52.11
2912,58.06
2924,64.01
2936,69.2
2948,72.95
2960,74.89
2972,74.94
2984,73.3
2996,70.25
3008,66.16
3020,61.36
3032,56.2
3044,50.95
3056,45.85
3067,41.0
3078,36.39
3090,31.95
3102,27.61
3114,23.4
3126,19.53
3138,16.26
3150,13.78
3162,12.14
3174,11.11
3186,10.24
3198,9.04
3210,7.12
3222,4.25
3234,0.52
3246,-3.82
3257,-8.43
3268,-13.02
3280,-17.44
3292,-21.71
3304,-26.06
3316,-30.78
3328,-36.16
3340,-42.32
3352,-49.15
3364,-56.31
3376,-63.38
3388,-69.99
3400,-75.97
3412,-81.46
3424,-86.86
3436,-92.78
3447,-99.92
3458,-108.78
3470,-119.3
3482,-130.52
3494,-140.46
3506,-146.42
3518,-145.74
3530,-136.67
3542,-119.06
3554,-94.45
3566,-65.63
3578,-35.81
3590,-7.73
3602,16.7
3614,36.49
3626,51.36
3637,61.46
3648,67.25
3660,69.37
3672,68.65
3684,65.94
3696,62.09
3708,57.75
3720,53.5
3732,49.83
3744,47.17
3756,45.84
3768,46.02
3780,47.72
3792,50.81
3804,55.08
3816,60.22
3827,65.77
3838,71.16
3850,75.73
3862,78.85
3874,80.15
3886,79.58
3898,77.41
3910,74.15
3922,70.33
3934,66.33
3946,62.39
3958,58.56
3970,54.78
3982,50.97
3994,47.06
4006,43.05
4017,39.0
4028,35.03
4040,31.33
4052,28.05
4064,25.24
4076,22.8
4088,20.41
4100,17.72
4112,14.35
4124,10.2
4136,5.43
4148,0.52
4160,-3.97
4172,-7.69
4184,-10.67
4196,-13.36
4207,-16.45
4218,-20.57
4230,-25.94
4242,-32.4
4254,-39.45
4266,-46.52
4278,-53.2
4290,-59.35
4302,-65.12
4314,-70.93
4326,-77.43
4338,-85.34
4350,-95.17
4362,-106.82
4374,-119.15
4386,-129.95
4397,-136.31
4408,-135.56
4420,-126.16
4432,-108.35
4444,-84.05
4456,-56.22
4468,-28.01
4480,-1.92
4492,20.47
4504,38.42
4516,51.75
4528,60.52
4540,64.95
4552,65.47
4564,62.75
4576,57.69
4587,51.32
4598,44.61
4610,38.38
4622,33.22
4634,29.48
4646,27.42
4658,27.18
4670,28.82
4682,32.26
4694,37.28
4706,43.39
4718,49.87
4730,55.88
4742,60.63
4754,63.52
4766,64.29
4777,63.02
4788,60.09
4800,56.02
4812,51.3
4824,46.29
4836,41.11
4848,35.7
4860,29.87
4872,23.5
4884,16.64
4896,9.55
4908,2.66
4920,-3.62
4932,-8.99
4944,-13.48
4956,-17.37
4967,-21.16
4978,-25.28
4990,-29.92
5002,-34.99
5014,-40.15
5026,-45.02
5038,-49.4
5050,-53.37
5062,-57.26
5074,-61.62
5086,-67.1
5098,-74.22
5110,-83.19
5122,-93.55
5134,-104.01
5146,-112.46
5157,-116.41
5168,-113.65
5180,-103.0
5192,-84.82
5204,-60.91
5216,-34.05
5228,-7.2
5240,17.23
5252,37.73
5264,53.71
5276,65.17
5288,72.37
5300,75.6
5312,75.14
5324,71.39
5336,65.02
5347,56.93
5358,48.2
5370,39.9
5382,32.87
5394,27.68
5406,24.57
5418,23.59
5430,24.59
5442,27.31
5454,31.27
5466,35.8
5478,40.07
5490,43.23
5502,44.61
5514,43.89
5526,41.16
5537,36.89
5548,31.72
5560,26.3
5572,21.03
5584,16.03
5596,11.22
5608,6.42
5620,1.58
5632,-3.21
5644,-7.74
5656,-11.79
5668,-15.28
5680,-18.27
5692,-20.99
5704,-23.74
5716,-26.76
5727,-30.19
5738,-34.09
5750,-38.41
5762,-43.07
5774,-48.01
5786,-53.25
5798,-58.95
5810,-65.47
5822,-73.25
5834,-82.6
5846,-93.47
5858,-105.04
5870,-115.61
5882,-122.78
5894,-124.03
5906,-117.51
5917,-102.71
5928,-80.78
5940,-54.21
5952,-26.15
5964,0.48
5976,23.55
5988,42.0
6000,55.59
6012,64.6
6024,69.46
6036,70.69
6048,68.87
6060,64.71
6072,59.16
6084,53.21
6096,47.78
6107,43.57
6118,40.89
6130,39.75
6142,39.99
6154,41.51
6166,44.28
6178,48.37
6190,53.66
6202,59.72
6214,65.77
6226,70.77
6238,73.8
6250,74.35
6262,72.48
6274,68.67
6286,63.68
6297,58.18
6308,52.63
6320,47.21
6332,41.84
6344,36.28
6356,30.35
6368,23.99
6380,17.34
6392,10.77
6404,4.7
6416,-0.52
6428,-4.78
6440,-8.35
6452,-11.67
6464,-15.25
6476,-19.43
6487,-24.25
6498,-29.51
6510,-34.93
6522,-40.26
6534,-45.43
6546,-50.6
6558,-56.1
6570,-62.43
6582,-70.14
6594,-79.67
6606,-91.03
6618,-103.48
6630,-115.36
6642,-124.16
6654,-127.22
6666,-122.41
6677,-109.0
6688,-87.92
6700,-61.59
6712,-33.12
6724,-5.56
6736,18.8
6748,38.67
6760,53.72
6772,64.25
6784,70.92
6796,74.5
6808,75.77
6820,75.49
6832,74.33
6844,72.8
6856,71.2
6867,69.6
6878,67.94
6890,66.15
6902,64.31
6914,62.69
6926,61.72
6938,61.79
6950,63.08
6962,65.35
6974,68.04
6986,70.37
6998,71.66
7010,71.44
7022,69.56
7034,66.08
7046,61.23
7057,55.28
7068,48.57
7080,41.45
7092,34.28
7104,27.37
7116,20.94
7128,15.08
7140,9.77
7152,4.88
7164,0.21
7176,-4.38
7188,-8.99
7200,-13.53
7212,-17.87
7224,-21.79
7236,-25.16
7247,-27.98
7258,-30.39
7270,-32.69
7282,-35.29
7294,-38.6
7306,-42.81
7318,-47.52
7330,-51.59
7342,-53.09
7354,-49.7
7366,-39.34
7378,-20.93
7390,5.16
7402,37.07
7414,71.98
7426,106.88
7437,139.25
7448,167.51
7460,191.0
7472,209.76
7484,224.26
7496,235.14
7508,243.24
7520,249.59
7532,255.43
7544,261.87
7556,269.42
7568,277.41
7580,283.84
7592,285.82
7604,280.47
7616,266.11
7627,242.93
7638,213.04
7650,179.71
7662,146.22
7674,114.94
7686,86.88
7698,61.89
7710,39.13
7722,17.81
7734,-2.55
7746,-21.9
7758,-39.8
7770,-55.8
7782,-69.68
7794,-81.64
7806,-92.35
7817,-102.8
7828,-113.95
7840,-126.76
7852,-142.27
7864,-161.49
7876,-184.89
7888,-211.35
7900,-237.3
7912,-256.88
7924,-263.46
7936,-252.1
7948,-221.95
7960,-176.99
7972,-124.76
7984,-73.61
7996,-29.82
8007,3.72
8018,27.07
8030,41.38
8042,47.22
8054,44.22
8066,31.98
8078,11.7
8090,-13.14
8102,-37.33
8114,-55.65
8126,-64.58
8138,-63.21
8150,-52.81
8162,-35.67
8174,-13.9
8186,11.01
8197,37.56
8208,63.39
8220,84.76
8232,97.03
8244,96.12
8256,80.2
8268,50.8
8280,12.72
8292,-27.32
8304,-62.81
8316,-89.27
8328,-105.16
8340,-111.66
8352,-111.46
8364,-107.37
8376,-101.46
8387,-94.84
8398,-88.15
8410,-82.08
8422,-77.55
8434,-75.5
8446,-76.33
8458,-79.63
8470,-84.23
8482,-88.75
8494,-92.14
8506,-94.1
8518,-95.11
8530,-96.06
8542,-97.84
8554,-100.91
8566,-105.03
8577,-109.31
8588,-112.36
8600,-112.76
8612,-109.56
8624,-102.6
8636,-92.68
8648,-81.29
8660,-70.11
8672,-60.46
8684,-52.96
8696,-47.55
8708,-43.76
8720,-41.14
8732,-39.35
8744,-38.3
8756,-37.92
8767,-38.05
8778,-38.57
8790,-39.51
8802,-41.13
8814,-43.8
8826,-47.61
8838,-52.01
8850,-55.5
8862,-56.03
8874,-51.45
8886,-40.4
8898,-22.81
8910,-0.01
8922,25.55
8934,51.05
8946,73.98
8957,92.64
8968,106.28
8980,114.96
8992,119.25
9004,120.0
9016,118.05
9028,114.11
9040,108.75
9052,102.39
9064,95.36
9076,87.9
9088,80.29
9100,72.78
9112,65.58
9124,58.76
9136,52.17
9147,45.42
9158,38.09
9170,29.72
9182,20.04
9194,8.89
9206,-3.71
9218,-17.62
9230,-32.53
9242,-47.89
9254,-63.0
9266,-77.21
9278,-90.31
9290,-102.77
9302,-115.6
9314,-129.82
9326,-145.64
9337,-161.97
9348,-176.46
9360,-186.32
9372,-189.4
9384,-185.0
9396,-173.94
9408,-157.93
9420,-138.76
9432,-117.72
9444,-95.76
9456,-73.79
9468,-52.9
9480,-34.02
9492,-17.3
9504,-1.88
9516,13.65
9527,30.13
9538,46.77
9550,60.88
9562,69.01
9574,68.39
9586,58.39
9598,40.88
9610,19.3
9622,-2.74
9634,-22.74
9646,-39.75
9658,-53.99
9670,-66.13
9682,-76.77
9694,-86.35
9706,-95.29
9717,-104.2
9728,-113.81
9740,-124.64
9752,-136.59
9764,-148.7
9776,-159.29
9788,-166.34
9800,-168.12
9812,-163.6
9824,-152.74
9836,-136.39
9848,-115.93
9860,-92.91
9872,-68.71
9884,-44.48
9896,-21.08
9907,0.77
9918,20.59
9930,38.01
9942,52.83
9954,64.87
9966,73.98
9978,79.99
9990,82.8
10002,82.57
10014,79.82
10026,75.42
10038,70.4
10050,65.62
10062,61.54
10074,58.04
10086,54.65
10097,50.74
10108,45.92
10120,40.16
10132,33.74
10144,27.14
10156,20.71
10168,14.54
10180,8.46
10192,2.02
10204,-5.44
10216,-14.6
10228,-26.12
10240,-40.13
10252,-55.93
10264,-71.66
10276,-84.46
10287,-91.02
10298,-88.59
10310,-75.9
10322,-53.73
10334,-24.63
10346,7.77
10358,39.86
10370,68.77
10382,92.76
10394,111.06
10406,123.58
10418,130.61
10430,132.71
10442,130.73
10454,125.83
10466,119.37
10477,112.71
10488,107.0
10500,102.94
10512,100.82
10524,100.54
10536,101.79
10548,104.25
10560,107.7
10572,112.03
10584,117.21
10596,123.2
10608,129.84
10620,136.6
10632,142.53
10644,146.21
10656,145.94
10667,140.21
10678,128.17
10690,109.92
10702,86.64
10714,60.21
10726,32.7
10738,5.96
10750,-18.71
10762,-40.61
10774,-59.44
10786,-75.2
10798,-88.05
10810,-98.32
10822,-106.35
10834,-112.57
10846,-117.27
10857,-120.63
10868,-122.74
10880,-123.68
10892,-123.64
10904,-123.11
10916,-122.89
10928,-124.09
10940,-127.71
10952,-134.2
10964,-142.87
10976,-151.57
10988,-156.97
11000,-155.46
11012,-144.32
11024,-122.75
11036,-92.33
11047,-56.46
11058,-19.39
11070,15.03
11082,44.19
11094,66.92
11106,83.18
11118,93.52
11130,98.66
11142,99.28
11154,96.13
11166,90.12
11178,82.37
11190,74.05
11202,66.32
11214,59.98
11226,55.52
11237,53.07
11248,52.52
11260,53.7
11272,56.38
11284,60.28
11296,65.03
11308,70.04
11320,74.57
11332,77.82
11344,79.11
11356,78.12
11368,74.99
11380,70.22
11392,64.53
11404,58.53
11416,52.57
11427,46.64
11438,40.55
11450,34.15
11462,27.54
11474,21.06
11486,15.19
11498,10.25
11510,6.24
11522,2.77
11534,-0.74
11546,-4.79
11558,-9.63
11570,-15.06
11582,-20.7
11594,-26.05
11606,-30.87
11617,-35.16
11628,-39.25
11640,-43.74
11652,-49.29
11664,-56.59
11676,-65.97
11688,-77.07
11700,-88.56
11712,-98.09
11724,-102.77
11736,-100.01
11748,-88.46
11760,-68.59
11772,-42.62
11784,-13.88
11796,14.27
11807,39.25
11818,59.62
11830,74.85
11842,85.01
11854,90.31
11866,91.04
11878,87.63
11890,80.84
11902,71.8
11914,61.85
11926,52.29
11938,44.13
11950,37.97
11962,33.98
11974,32.12
11986,32.24
11997,34.21
12008,37.87
12020,42.87
12032,48.63
12044,54.26
12056,58.76
12068,61.24
12080,61.23
12092,58.76
12104,54.37
12116,48.86
12128,43.01
12140,37.34
12152,31.99
12164,26.78
12176,21.36
12187,15.43
12198,8.96
12210,2.24
12222,-4.26
12234,-10.06
12246,-14.91
12258,-18.95
12270,-22.61
12282,-26.42
12294,-30.76
12306,-35.71
12318,-40.97
12330,-46.08
12342,-50.61
12354,-54.38
12366,-57.59
12377,-60.75
12388,-64.62
12400,-70.0
12412,-77.53
12424,-87.27
12436,-98.34
12448,-108.81
12460,-115.87
12472,-116.62
12484,-108.95
12496,-92.38
12508,-68.33
12520,-39.63
12532,-9.79
12544,18.1
12556,41.88
12567,60.58
12578,74.0
12590,82.42
12602,86.3
12614,86.13
12626,82.6
12638,76.51
12650,68.83
12662,60.57
12674,52.67
12686,45.8
12698,40.39
12710,36.6
12722,34.45
12734,33.92
12746,34.93
12757,37.36
12768,40.91
12780,45.08
12792,49.19
12804,52.5
12816,54.44
12828,54.72
12840,53.34
12852,50.54
12864,46.65
12876,42.01
12888,36.9
12900,31.56
12912,26.26
12924,21.24
12936,16.64
12947,12.56
12958,8.87
12970,5.37
12982,1.79
12994,-2.07
13006,-6.16
13018,-10.23
13030,-13.87
13042,-16.81
13054,-19.04
13066,-20.96
13078,-23.22
13090,-26.39
13102,-30.71
13114,-35.93
13126,-41.46
13137,-46.65
13148,-51.13
13160,-54.91
13172,-58.39
13184,-62.14
13196,-66.76
13208,-72.8
13220,-80.62
13232,-90.15
13244,-100.56
13256,-110.06
13268,-116.07
13280,-115.84
13292,-107.36
13304,-90.15
13316,-65.63
13327,-36.68
13338,-6.82
13350,20.78
13362,43.93
13374,61.6
13386,73.67
13398,80.54
13410,82.91
13422,81.53
13434,77.29
13446,71.07
13458,63.68
13470,55.82
13482,48.04
13494,40.81
13506,34.57
13517,29.71
13528,26.62
13540,25.51
13552,26.39
13564,28.98
13576,32.79
13588,37.17
13600,41.39
13612,44.79
13624,46.87
13636,47.31
13648,46.03
13660,43.2
13672,39.11
13684,34.18
13696,28.81
13707,23.33
13718,18.01
13730,13.04
13742,8.49
13754,4.41
13766,0.73
13778,-2.68
13790,-5.96
13802,-9.21
13814,-12.45
13826,-15.56
13838,-18.37
13850,-20.78
13862,-22.84
13874,-24.82
13886,-27.09
13897,-30.04
13908,-33.87
13920,-38.5
13932,-43.53
13944,-48.45
13956,-52.73
13968,-56.1
13980,-58.63
13992,-60.75
14004,-63.2
14016,-66.88
14028,-72.57
14040,-80.58
14052,-90.39
14064,-100.41
14076,-108.1
14087,-110.61
14098,-105.63
14110,-92.22
14122,-71.26
14134,-45.18
14146,-17.25
14158,9.42
14170,32.54
14182,50.89
14194,64.17
14206,72.57
14218,76.45
14230,76.22
14242,72.37
14254,65.61
14266,56.9
14277,47.33
14288,38.0
14300,29.82
14312,23.33
14324,18.76
14336,16.1
14348,15.25
14360,16.17
14372,18.8
14384,22.95
14396,28.12
14408,33.44
14420,37.82
14432,40.26
14444,40.22
14456,37.75
14467,33.5
14478,28.38
14490,23.29
14502,18.72
14514,14.76
14526,11.09
14538,7.27
14550,2.9
14562,-2.16
14574,-7.77
14586,-13.55
14598,-19.0
14610,-23.77
14622,-27.73
14634,-31.06
14646,-34.14
14657,-37.44
14668,-41.23
14680,-45.53
14692,-50.04
14704,-54.34
14716,-58.06
14728,-61.09
14740,-63.66
14752,-66.4
14764,-70.14
14776,-75.73
14788,-83.67
14800,-93.65
14812,-104.27
14824,-113.11
14836,-117.24
14847,-114.02
14858,-102.14
14870,-82.01
14882,-55.79
14894,-26.68
14906,2.01
14918,27.66
14930,48.76
14942,64.75
14954,75.68
14966,81.87
14978,83.72
14990,81.69
15002,76.47
15014,69.0
15026,60.38
15037,51.66
15048,43.72
15060,37.09
15072,32.05
15084,28.71
15096,27.19
15108,27.57
15120,29.91
15132,34.0
15144,39.28
15156,44.85
15168,49.68
15180,52.83
15192,53.74
15204,52.35
15216,48.97
15227,44.16
15238,38.56
15250,32.76
15262,27.16
15274,21.94
15286,17.06
15298,12.23
15310,7.12
15322,1.54
15334,-4.4
15346,-10.24
15358,-15.39
15370,-19.41
15382,-22.29
15394,-24.56
15406,-27.04
15417,-30.48
15428,-35.25
15440,-41.12
15452,-47.48
15464,-53.61
15476,-58.99
15488,-63.55
15500,-67.61
15512,-71.83
15524,-77.04
15536,-84.04
15548,-93.27
15560,-104.46
15572,-116.23
15584,-126.11
15596,-130.98
15607,-127.98
15618,-115.52
15630,-93.92
15642,-65.41
15654,-33.45
15666,-1.65
15678,27.06
15690,50.91
15702,69.17
15714,81.87
15726,89.4
15738,92.3
15750,91.23
15762,86.97
15774,80.46
15786,72.63
15797,64.42
15808,56.7
15820,50.2
15832,45.41
15844,42.56
15856,41.65
15868,42.49
15880,44.83
15892,48.42
15904,52.99
15916,58.06
15928,62.94
15940,66.74
15952,68.62
15964,68.07
15976,65.04
15987,59.99
15998,53.66
16010,46.86
16022,40.2
16034,34.0
16046,28.23
16058,22.65
16070,16.97
16082,10.99
16094,4.73
16106,-1.5
16118,-7.24
16130,-12.08
16142,-15.87
16154,-18.81
16166,-21.45
16177,-24.39
16188,-28.1
16200,-32.68
16212,-37.89
16224,-43.28
16236,-48.38
16248,-52.87
16260,-56.75
16272,-60.27
16284,-63.94
16296,-68.49
16308,-74.7
16320,-83.18
16332,-93.97
16344,-106.09
16356,-117.42
16367,-124.97
16378,-125.62
16390,-117.16
16402,-99.17
16414,-73.26
16426,-42.62
16438,-11.07
16450,18.03
16462,42.46
16474,61.3
16486,74.53
16498,82.57
16510,85.87
16522,84.89
16534,80.17
16546,72.54
16557,63.17
16568,53.37
16580,44.39
16592,37.14
16604,32.12
16616,29.38
16628,28.8
16640,30.19
16652,33.32
16664,37.88
16676,43.35
16688,48.99
16700,53.89
16712,57.27
16724,58.61
16736,57.82
16747,55.17
16758,51.1
16770,46.06
16782,40.33
16794,34.03
16806,27.24
16818,19.99
16830,12.42
16842,4.76
16854,-2.68
16866,-9.53
16878,-15.55
16890,-20.66
16902,-25.03
16914,-29.02
16926,-33.1
16937,-37.56
16948,-42.49
16960,-47.65
16972,-52.64
16984,-57.1
16996,-60.93
17008,-64.44
17020,-68.35
17032,-73.6
17044,-81.11
17056,-91.37
17068,-103.99
17080,-117.43
17092,-129.03
17104,-135.46
17116,-133.67
17127,-121.9
17138,-100.33
17150,-71.14
17162,-37.94
17174,-4.64
17186,25.52
17198,50.48
17210,69.51
17222,82.74
17234,90.74
17246,94.17
17258,93.72
17270,90.09
17282,84.14
17294,76.79
17306,69.02
17317,61.74
17328,55.68
17340,51.34
17352,48.96
17364,48.58
17376,50.1
17388,53.31
17400,57.85
17412,63.26
17424,68.87
17436,73.86
17448,77.42
17460,78.91
17472,78.0
17484,74.83
17496,69.9
17507,63.94
17518,57.65
17530,51.52
17542,45.68
17554,39.94
17566,33.99
17578,27.54
17590,20.54
17602,13.25
17614,6.12
17626,-0.27
17638,-5.55
17650,-9.67
17662,-12.99
17674,-16.15
17686,-19.88
17697,-24.72
17708,-30.78
17720,-37.69
17732,-44.78
17744,-51.37
17756,-57.05
17768,-61.86
17780,-66.36
17792,-71.49
17804,-78.33
17816,-87.77
17828,-100.04
17840,-114.2
17852,-128.06
17864,-138.3
17876,-141.4
17887,-134.65
17898,-117.26
17910,-90.65
17922,-58.09
17934,-23.69
17946,8.82
17958,36.78
17970,58.85
17982,74.71
17994,84.61
18006,89.09
18018,88.87
18030,84.83
18042,78.04
18054,69.63
18066,60.7
18077,52.15
18088,44.7
18100,38.82
18112,34.84
18124,32.93
18136,33.14
18148,35.38
18160,39.37
18172,44.58
18184,50.18
18196,55.21
18208,58.68
18220,59.89
18232,58.61
18244,55.09
18256,49.95
18267,43.92
18278,37.57
18290,31.2
18302,24.87
18314,18.49
18326,12.02
18338,5.59
18350,-0.52
18362,-6.02
18374,-10.73
18386,-14.74
18398,-18.37
18410,-22.0
18422,-25.9
18434,-30.1
18446,-34.35
18457,-38.29
18468,-41.7
18480,-44.6
18492,-47.35
18504,-50.6
18516,-55.08
18528,-61.5
18540,-70.18
18552,-80.8
18564,-92.06
18576,-101.72
18588,-106.96
18600,-105.14
18612,-94.71
18624,-75.79
18636,-50.29
18647,-21.37
18658,7.53
18670,33.58
18682,55.03
18694,71.23
18706,82.26
18718,88.44
18730,90.17
18742,87.75
18754,81.74
18766,73.01
18778,62.81
18790,52.59
18802,43.72
18814,37.15
18826,33.3
18837,32.07
18848,33.03
18860,35.66
18872,39.52
18884,44.21
18896,49.3
18908,54.19
18920,58.15
18932,60.36
18944,60.23
18956,57.56
18968,52.69
18980,46.39
18992,39.63
19004,33.3
19016,27.95
19027,23.6
19038,19.79
19050,15.88
19062,11.24
19074,5.68
19086,-0.54
19098,-6.72
19110,-12.12
19122,-16.26
19134,-19.2
19146,-21.59
19158,-24.37
19170,-28.34
19182,-33.82
19194,-40.51
19206,-47.62
19217,-54.3
19228,-60.0
19240,-64.65
19252,-68.72
19264,-73.05
19276,-78.67
19288,-86.54
19300,-97.2
19312,-110.28
19324,-124.21
19336,-136.15
19348,-142.54
19360,-140.15
19372,-127.21
19384,-104.16
19396,-73.6
19407,-39.53
19418,-6.11
19430,23.42
19442,47.2
19454,64.75
19466,76.35
19478,82.68
19490,84.34
19502,82.01
19514,76.46
19526,68.68
19538,59.89
19550,51.28
19562,43.78
19574,37.96
19586,33.96
19597,31.67
19608,30.96
19620,31.76
19632,34.12
19644,38.01
19656,43.13
19668,48.84
19680,54.18
19692,58.2
19704,60.17
19716,59.86
19728,57.53
19740,53.84
19752,49.51
19764,45.18
19776,41.15
19787,37.39
19798,33.57
19810,29.27
19822,24.18
19834,18.26
19846,11.83
19858,5.49
19870,-0.1
19882,-4.45
19894,-7.47
19906,-9.56
19918,-11.45
19930,-13.93
19942,-17.57
19954,-22.48
19966,-28.33
19977,-34.51
19988,-40.43
20000,-45.69
20012,-50.3
20024,-54.65
20036,-59.37
20048,-65.27
20060,-73.04
20072,-82.94
20084,-94.37
20096,-105.67
20108,-114.15
20120,-116.8
20132,-111.17
20144,-96.35
20156,-73.4
20167,-45.01
20178,-14.75
20190,14.05
20202,39.04
20214,58.98
20226,73.54
20238,82.85
20250,87.15
20262,86.79
20274,82.32
20286,74.61
20298,64.84
20310,54.34
20322,44.38
20334,36.0
20346,29.85
20357,26.23
20368,25.1
20380,26.22
20392,29.19
20404,33.49
20416,38.56
20428,43.7
20440,48.11
20452,50.97
20464,51.65
20476,49.88
20488,45.87
20500,40.27
20512,33.87
20524,27.34
20536,21.0
20547,14.78
20558,8.4
20570,1.64
20582,-5.45
20594,-12.52
20606,-19.0
20618,-24.43
20630,-28.6
20642,-31.68
20654,-34.15
20666,-36.63
20678,-39.55
20690,-43.08
20702,-47.09
20714,-51.2
20726,-55.09
20737,-58.61
20748,-61.92
20760,-65.52
20772,-70.17
20784,-76.74
20796,-85.94
20808,-97.87
20820,-111.54
20832,-124.72
20844,-134.19
20856,-136.56
20868,-129.35
20880,-111.94
20892,-85.85
20904,-54.28
20916,-21.14
20927,10.07
20938,36.91
20950,58.16
20962,73.55
20974,83.34
20986,88.03
20998,88.31
