seconds,BVP
4,46.19
16,41.28
28,36.05
40,30.85
52,25.92
64,21.45
76,17.49
88,13.97
100,10.69
112,7.44
124,4.02
136,0.36
147,-3.46
158,-7.21
170,-10.61
182,-13.46
194,-15.71
206,-17.59
218,-19.47
230,-21.82
242,-25.0
254,-29.06
266,-33.82
278,-38.77
290,-43.42
302,-47.43
314,-50.85
326,-54.1
337,-57.91
348,-63.09
360,-70.27
372,-79.55
384,-90.16
396,-100.32
408,-107.41
420,-108.58
432,-101.66
444,-86.01
456,-62.95
468,-35.45
480,-7.26
492,18.27
504,38.95
516,54.07
527,64.04
538,69.7
550,71.93
562,71.33
574,68.4
586,63.65
598,57.78
610,51.48
622,45.44
634,40.17
646,35.98
658,33.03
670,31.37
682,30.98
694,31.75
706,33.52
717,36.01
728,38.83
740,41.51
752,43.49
764,44.31
776,43.65
788,41.5
800,38.12
812,33.98
824,29.58
836,25.3
848,21.31
860,17.63
872,14.15
884,10.83
896,7.64
907,4.58
918,1.68
930,-1.14
942,-3.93
954,-6.72
966,-9.43
978,-11.84
990,-13.75
1002,-15.06
1014,-15.96
1026,-16.86
1038,-18.32
1050,-20.77
1062,-24.29
1074,-28.59
1086,-33.05
1097,-37.04
1108,-40.2
1120,-42.6
1132,-44.74
1144,-47.4
1156,-51.41
1168,-57.38
1180,-65.46
1192,-75.04
1204,-84.62
1216,-91.93
1228,-94.38
1240,-89.82
1252,-77.34
1264,-57.76
1276,-33.43
1287,-7.6
1298,16.54
1310,36.69
1322,51.77
1334,61.79
1346,67.37
1358,69.31
1370,68.27
1382,64.81
1394,59.5
1406,53.04
1418,46.19
1430,39.72
1442,34.24
1454,30.1
1466,27.38
1477,26.04
1488,25.92
1500,26.94
1512,29.0
1524,31.91
1536,35.31
1548,38.58
1560,41.02
1572,42.02
1584,41.27
1596,38.82
1608,35.12
1620,30.81
1632,26.49
1644,22.56
1656,19.11
1667,15.96
1678,12.8
1690,9.39
1702,5.69
1714,1.89
1726,-1.62
1738,-4.42
1750,-6.25
1762,-7.23
1774,-7.74
1786,-8.39
1798,-9.69
1810,-11.85
1822,-14.7
1834,-17.77
1846,-20.52
1857,-22.6
1868,-24.06
1880,-25.31
1892,-26.96
1904,-29.54
1916,-33.25
1928,-37.86
1940,-42.81
1952,-47.51
1964,-51.53
1976,-54.86
1988,-57.87
2000,-61.23
2012,-65.68
2024,-71.94
2036,-80.36
2047,-90.68
2058,-101.67
2070,-111.16
2082,-116.34
2094,-114.54
2106,-104.18
2118,-85.42
2130,-60.33
2142,-32.27
2154,-4.86
2166,19.07
2178,37.95
2190,51.55
2202,60.49
2214,65.66
2226,67.87
2237,67.68
2248,65.54
2260,61.95
2272,57.49
2284,52.8
2296,48.46
2308,44.9
2320,42.35
2332,40.93
2344,40.68
2356,41.67
2368,43.94
2380,47.42
2392,51.8
2404,56.49
2416,60.69
2427,63.64
2438,64.83
2450,64.08
2462,61.67
2474,58.12
2486,54.0
2498,49.73
2510,45.44
2522,41.02
2534,36.28
2546,31.17
2558,25.9
2570,20.96
2582,16.98
2594,14.43
2606,13.48
2617,13.81
2628,14.73
2640,15.4
2652,15.09
2664,13.32
2676,10.09
2688,5.73
2700,0.81
2712,-4.11
2724,-8.65
2736,-12.74
2748,-16.58
2760,-20.5
2772,-24.81
2784,-29.62
2796,-34.85
2807,-40.23
2818,-45.46
2830,-50.24
2842,-54.42
2854,-58.07
2866,-61.49
2878,-65.26
2890,-70.09
2902,-76.49
2914,-84.35
2926,-92.49
2938,-98.65
2950,-99.96
2962,-93.76
2974,-78.67
2986,-55.27
2997,-26.04
3008,5.41
3020,35.37
3032,61.16
3044,81.46
3056,96.2
3068,106.13
3080,112.27
3092,115.76
3104,117.79
3116,119.7
3128,122.71
3140,127.61
3152,134.48
3164,142.6
3176,150.73
3187,157.59
3198,162.24
3210,164.31
3222,163.86
3234,161.09
3246,156.15
3258,149.04
3270,139.68
3282,128.07
3294,114.34
3306,98.77
3318,81.67
3330,63.38
3342,44.16
3354,24.27
3366,4.01
3377,-16.25
3388,-36.12
3400,-55.17
3412,-73.06
3424,-89.54
3436,-104.44
3448,-117.66
3460,-129.12
3472,-138.74
3484,-146.47
3496,-152.29
3508,-156.2
3520,-158.23
3532,-158.5
3544,-157.19
3556,-154.6
3567,-151.2
3578,-147.58
3590,-144.42
3602,-142.19
3614,-140.92
3626,-139.86
3638,-137.41
3650,-131.39
3662,-119.71
3674,-101.25
3686,-76.42
3698,-47.35
3710,-17.27
3722,10.39
3734,33.03
3746,49.32
3757,59.25
3768,63.56
3780,63.24
3792,59.14
3804,51.95
3816,42.39
3828,31.33
3840,19.76
3852,8.68
3864,-1.17
3876,-9.39
3888,-15.95
3900,-20.9
3912,-24.36
3924,-26.29
3936,-26.63
3947,-25.42
3958,-23.0
3970,-19.97
3982,-17.14
3994,-15.17
4006,-14.4
4018,-14.68
4030,-15.59
4042,-16.61
4054,-17.42
4066,-18.03
4078,-18.74
4090,-19.95
4102,-21.88
4114,-24.54
4126,-27.67
4137,-30.95
4148,-34.08
4160,-36.94
4172,-39.61
4184,-42.33
4196,-45.57
4208,-49.87
4220,-55.74
4232,-63.38
4244,-72.34
4256,-81.28
4268,-88.07
4280,-90.34
4292,-86.23
4304,-75.13
4316,-57.95
4327,-36.91
4338,-14.82
4350,5.73
4362,22.96
4374,36.02
4386,44.83
4398,49.64
4410,50.84
4422,48.85
4434,44.18
4446,37.57
4458,29.94
4470,22.32
4482,15.69
4494,10.81
4506,8.14
4517,7.84
4528,9.8
4540,13.63
4552,18.79
4564,24.5
4576,29.92
4588,34.24
4600,36.84
4612,37.46
4624,36.2
4636,33.46
4648,29.77
4660,25.53
4672,20.93
4684,15.89
4696,10.19
4707,3.69
4718,-3.63
4730,-11.53
4742,-19.63
4754,-27.55
4766,-35.03
4778,-42.11
4790,-49.2
4802,-56.99
4814,-66.31
4826,-77.65
4838,-90.65
4850,-103.82
4862,-114.55
4874,-119.69
4886,-116.6
4897,-104.06
4908,-82.85
4920,-55.43
4932,-25.25
4944,4.36
4956,30.98
4968,53.4
4980,71.38
4992,85.23
5004,95.36
5016,102.13
5028,105.96
5040,107.36
5052,107.04
5064,105.84
5076,104.48
5087,103.5
5098,103.13
5110,103.37
5122,104.1
5134,105.19
5146,106.57
5158,108.15
5170,109.74
5182,110.88
5194,110.89
5206,108.92
5218,104.23
5230,96.39
5242,85.5
5254,72.23
5266,57.63
5277,42.8
5288,28.58
5300,15.28
5312,2.66
5324,-9.82
5336,-22.73
5348,-36.29
5360,-50.3
5372,-64.14
5384,-77.02
5396,-88.25
5408,-97.44
5420,-104.67
5432,-110.48
5444,-115.79
5456,-121.74
5467,-129.35
5478,-139.14
5490,-150.59
5502,-161.94
5514,-170.3
5526,-172.36
5538,-165.39
5550,-148.35
5562,-122.29
5574,-90.17
5586,-55.92
5598,-23.27
5610,5.14
5622,28.12
5634,45.65
5646,58.33
5657,66.83
5668,71.78
5680,73.7
5692,73.19
5704,71.0
5716,67.95
5728,64.81
5740,62.14
5752,60.24
5764,59.22
5776,59.04
5788,59.58
5800,60.75
5812,62.46
5824,64.61
5836,67.06
5847,69.49
5858,71.46
5870,72.46
5882,72.15
5894,70.41
5906,67.48
5918,63.78
5930,59.8
5942,55.84
5954,51.96
5966,48.07
5978,44.03
5990,39.85
6002,35.7
6014,31.8
6026,28.25
6037,24.95
6048,21.55
6060,17.7
6072,13.23
6084,8.27
6096,3.22
6108,-1.5
6120,-5.64
6132,-9.34
6144,-13.03
6156,-17.29
6168,-22.4
6180,-28.35
6192,-34.69
6204,-40.83
6216,-46.32
6227,-51.04
6238,-55.26
6250,-59.55
6262,-64.62
6274,-71.12
6286,-79.5
6298,-89.66
6310,-100.72
6322,-110.89
6334,-117.66
6346,-118.47
6358,-111.51
6370,-96.5
6382,-74.88
6394,-49.49
6406,-23.62
6417,-0.07
6428,19.42
6440,34.36
6452,45.06
6464,52.13
6476,56.15
6488,57.56
6500,56.79
6512,54.39
6524,51.11
6536,47.68
6548,44.66
6560,42.31
6572,40.58
6584,39.32
6596,38.49
6607,38.22
6618,38.78
6630,40.32
6642,42.71
6654,45.43
6666,47.71
6678,48.81
6690,48.29
6702,46.11
6714,42.66
6726,38.54
6738,34.32
6750,30.38
6762,26.84
6774,23.59
6786,20.35
6797,16.83
6808,12.88
6820,8.56
6832,4.18
6844,0.15
6856,-3.21
6868,-5.86
6880,-8.14
6892,-10.58
6904,-13.72
6916,-17.72
6928,-22.29
6940,-26.86
6952,-30.76
6964,-33.66
6976,-35.71
6987,-37.5
6998,-39.92
7010,-43.85
7022,-49.95
7034,-58.33
7046,-68.34
7058,-78.49
7070,-86.54
7082,-90.05
7094,-87.1
7106,-76.97
7118,-60.52
7130,-39.88
7142,-17.85
7154,2.99
7166,20.87
7177,35.06
7188,45.58
7200,52.86
7212,57.39
7224,59.6
7236,59.89
7248,58.67
7260,56.41
7272,53.58
7284,50.58
7296,47.76
7308,45.34
7320,43.47
7332,42.22
7344,41.61
7356,41.52
7367,41.84
7378,42.4
7390,43.09
7402,43.74
7414,44.17
7426,44.2
7438,43.69
7450,42.55
7462,40.78
7474,38.44
7486,35.64
7498,32.48
7510,29.08
7522,25.57
7534,22.17
7546,19.06
7557,16.35
7568,14.03
7580,11.94
7592,9.85
7604,7.59
7616,5.11
7628,2.52
7640,0.0
7652,-2.26
7664,-4.15
7676,-5.68
7688,-6.99
7700,-8.35
7712,-10.16
7724,-12.87
7736,-16.89
7747,-22.44
7758,-29.45
7770,-37.54
7782,-46.15
7794,-54.65
7806,-62.6
7818,-69.8
7830,-76.3
7842,-82.32
7854,-87.92
7866,-92.8
7878,-96.19
7890,-96.94
7902,-93.81
7914,-86.0
7926,-73.46
7937,-57.07
7948,-38.38
7960,-19.25
7972,-1.22
7984,14.71
7996,28.22
8008,39.52
8020,48.97
8032,56.87
8044,63.31
8056,68.16
8068,71.18
8080,72.19
8092,71.18
8104,68.32
8116,63.97
8127,58.63
8138,52.83
8150,47.16
8162,42.15
8174,38.29
8186,35.99
8198,35.4
8210,36.39
8222,38.43
8234,40.73
8246,42.47
8258,43.02
8270,42.09
8282,39.79
8294,36.53
8306,32.79
8317,28.94
8328,25.18
8340,21.5
8352,17.78
8364,13.89
8376,9.85
8388,5.81
8400,2.02
8412,-1.28
8424,-3.99
8436,-6.23
8448,-8.29
8460,-10.55
8472,-13.33
8484,-16.78
8496,-20.9
8507,-25.54
8518,-30.47
8530,-35.5
8542,-40.5
8554,-45.41
8566,-50.31
8578,-55.38
8590,-60.94
8602,-67.19
8614,-74.01
8626,-80.72
8638,-85.96
8650,-88.02
8662,-85.33
8674,-77.1
8686,-63.71
8697,-46.66
8708,-28.15
8720,-10.39
8732,4.95
8744,17.01
8756,25.67
8768,31.24
8780,34.23
8792,35.06
8804,34.18
8816,31.97
8828,28.87
8840,25.34
8852,21.79
8864,18.58
8876,15.96
8887,14.06
8898,12.93
8910,12.56
8922,12.86
8934,13.76
8946,15.11
8958,16.72
8970,18.36
8982,19.7
8994,20.38
9006,20.09
9018,18.62
9030,15.96
9042,12.31
9054,8.03
9066,3.53
9077,-0.79
9088,-4.65
9100,-7.92
9112,-10.66
9124,-13.07
9136,-15.39
9148,-17.86
9160,-20.55
9172,-23.36
9184,-26.01
9196,-28.21
9208,-29.72
9220,-30.53
9232,-30.91
9244,-31.32
9256,-32.36
9267,-34.61
9278,-38.44
9290,-43.88
9302,-50.4
9314,-56.81
9326,-61.41
9338,-62.33
9350,-58.16
9362,-48.49
9374,-34.11
9386,-16.8
9398,1.21
9410,17.9
9422,31.92
9434,42.67
9446,50.1
9457,54.44
9468,55.93
9480,54.85
9492,51.54
9504,46.58
9516,40.7
9528,34.71
9540,29.26
9552,24.78
9564,21.48
9576,19.37
9588,18.46
9600,18.71
9612,20.04
9624,22.3
9636,25.1
9647,27.9
9658,30.01
9670,30.82
9682,29.92
9694,27.22
9706,22.95
9718,17.6
9730,11.79
9742,6.09
9754,0.82
9766,-3.99
9778,-8.58
9790,-13.32
9802,-18.47
9814,-24.02
9826,-29.65
9837,-34.88
9848,-39.3
9860,-42.84
9872,-45.84
9884,-48.93
9896,-52.92
9908,-58.34
9920,-65.24
9932,-72.93
9944,-79.96
9956,-84.39
9968,-84.29
9980,-78.35
9992,-66.36
10004,-49.37
10016,-29.38
10027,-8.77
10038,10.31
10050,26.37
10062,38.69
10074,47.15
10086,52.02
10098,53.78
10110,52.95
10122,50.2
10134,46.16
10146,41.47
10158,36.61
10170,31.93
10182,27.7
10194,24.09
10206,21.34
10217,19.65
10228,19.18
10240,19.9
10252,21.68
10264,24.21
10276,27.1
10288,29.88
10300,32.02
10312,33.0
10324,32.37
10336,29.93
10348,25.79
10360,20.45
10372,14.64
10384,9.08
10396,4.17
10407,-0.1
10418,-4.15
10430,-8.58
10442,-13.85
10454,-20.07
10466,-26.93
10478,-33.85
10490,-40.26
10502,-45.83
10514,-50.6
10526,-54.98
10538,-59.58
10550,-65.02
10562,-71.77
10574,-79.85
10586,-88.7
10597,-97.09
10608,-103.11
10620,-104.67
10632,-99.94
10644,-88.12
10656,-69.74
10668,-46.7
10680,-21.76
10692,2.26
10704,23.16
10716,39.73
10728,51.8
10740,59.77
10752,64.31
10764,66.03
10776,65.42
10787,62.97
10798,59.27
10810,54.92
10822,50.5
10834,46.42
10846,42.91
10858,40.01
10870,37.76
10882,36.24
10894,35.57
10906,35.84
10918,37.04
10930,38.94
10942,41.18
10954,43.28
10966,44.74
10977,45.09
10988,44.01
11000,41.39
11012,37.41
11024,32.61
11036,27.65
11048,23.23
11060,19.7
11072,17.03
11084,14.78
11096,12.35
11108,9.27
11120,5.34
11132,0.79
11144,-3.96
11156,-8.37
11167,-12.15
11178,-15.23
11190,-17.87
11202,-20.5
11214,-23.55
11226,-27.34
11238,-31.94
11250,-37.21
11262,-42.81
11274,-48.38
11286,-53.59
11298,-58.31
11310,-62.67
11322,-67.13
11334,-72.41
11346,-79.25
11357,-87.95
11368,-97.98
11380,-107.65
11392,-114.38
11404,-115.39
11416,-108.63
11428,-93.59
11440,-71.63
11452,-45.51
11464,-18.54
11476,6.34
11488,27.28
11500,43.53
11512,55.21
11524,62.82
11536,66.98
11547,68.23
11558,67.19
11570,64.51
11582,60.88
11594,56.91
11606,53.03
11618,49.47
11630,46.34
11642,43.82
11654,42.14
11666,41.64
11678,42.54
11690,44.82
11702,48.12
11714,51.83
11726,55.22
11737,57.69
11748,58.91
11760,58.84
11772,57.59
11784,55.36
11796,52.28
11808,48.46
11820,43.99
11832,39.05
11844,33.87
11856,28.7
11868,23.77
11880,19.22
11892,15.08
11904,11.28
11916,7.72
11927,4.26
11938,0.87
11950,-2.44
11962,-5.53
11974,-8.25
11986,-10.59
11998,-12.69
12010,-14.89
12022,-17.64
12034,-21.28
12046,-25.91
12058,-31.25
12070,-36.84
12082,-42.09
12094,-46.64
12106,-50.41
12117,-53.71
12128,-57.1
12140,-61.29
12152,-66.94
12164,-74.42
12176,-83.53
12188,-93.23
12200,-101.59
12212,-106.1
12224,-104.3
12236,-94.65
12248,-77.24
12260,-53.87
12272,-27.56
12284,-1.67
12296,21.05
12307,39.07
12318,52.06
12330,60.49
12342,65.11
12354,66.6
12366,65.49
12378,62.26
12390,57.52
12402,52.04
12414,46.54
12426,41.64
12438,37.63
12450,34.54
12462,32.31
12474,30.87
12486,30.28
12497,30.67
12508,32.13
12520,34.57
12532,37.64
12544,40.7
12556,42.99
12568,43.86
12580,42.93
12592,40.25
12604,36.31
12616,31.85
12628,27.55
12640,23.84
12652,20.74
12664,17.89
12676,14.87
12687,11.39
12698,7.44
12710,3.34
12722,-0.47
12734,-3.63
12746,-5.99
12758,-7.65
12770,-8.95
12782,-10.33
12794,-12.16
12806,-14.64
12818,-17.68
12830,-20.95
12842,-23.95
12854,-26.23
12866,-27.62
12877,-28.29
12888,-28.79
12900,-29.91
12912,-32.47
12924,-36.93
12936,-43.12
12948,-49.95
12960,-55.51
12972,-57.44
12984,-53.55
12996,-42.66
13008,-25.02
13020,-2.44
13032,22.25
13044,46.02
13056,66.44
13067,82.18
13078,92.94
13090,99.1
13102,101.21
13114,99.68
13126,94.67
13138,86.25
13150,74.65
13162,60.38
13174,44.25
13186,27.3
13198,10.56
13210,-5.07
13222,-18.91
13234,-30.52
13246,-39.64
13257,-46.18
13268,-50.17
13280,-51.72
13292,-51.04
13304,-48.44
13316,-44.4
13328,-39.52
13340,-34.45
13352,-29.83
13364,-26.07
13376,-23.33
13388,-21.47
13400,-20.26
13412,-19.42
13424,-18.89
13436,-18.77
13447,-19.29
13458,-20.6
13470,-22.62
13482,-25.07
13494,-27.47
13506,-29.37
13518,-30.5
13530,-30.89
13542,-30.83
13554,-30.82
13566,-31.31
13578,-32.59
13590,-34.63
13602,-37.15
13614,-39.72
13626,-41.98
13637,-43.77
13648,-45.21
13660,-46.65
13672,-48.65
13684,-51.85
13696,-56.84
13708,-63.98
13720,-73.02
13732,-82.88
13744,-91.55
13756,-96.43
13768,-95.0
13780,-85.69
13792,-68.57
13804,-45.47
13816,-19.41
13827,6.28
13838,28.95
13850,47.1
13862,60.41
13874,69.26
13886,74.26
13898,75.93
13910,74.72
13922,71.1
13934,65.81
13946,59.69
13958,53.62
13970,48.22
13982,43.79
13994,40.3
14006,37.61
14017,35.71
14028,34.75
14040,34.93
14052,36.4
14064,39.03
14076,42.35
14088,45.64
14100,48.16
14112,49.28
14124,48.71
14136,46.5
14148,43.01
14160,38.78
14172,34.34
14184,30.07
14196,26.07
14207,22.12
14218,17.89
14230,13.12
14242,7.79
14254,2.21
14266,-3.1
14278,-7.68
14290,-11.37
14302,-14.4
14314,-17.28
14326,-20.57
14338,-24.57
14350,-29.2
14362,-34.06
14374,-38.61
14386,-42.46
14397,-45.48
14408,-47.93
14420,-50.36
14432,-53.5
14444,-58.1
14456,-64.64
14468,-73.03
14480,-82.41
14492,-91.0
14504,-96.44
14516,-96.34
14528,-89.13
14540,-74.62
14552,-54.23
14564,-30.57
14576,-6.7
14587,14.73
14598,32.0
14610,44.51
14622,52.48
14634,56.5
14646,57.21
14658,55.15
14670,50.88
14682,45.04
14694,38.44
14706,31.89
14718,25.94
14730,20.8
14742,16.26
14754,12.0
14766,7.83
14777,3.92
14788,0.83
14800,-0.73
14812,-0.19
14824,2.67
14836,7.7
14848,14.39
14860,22.07
14872,29.96
14884,37.25
14896,43.19
14908,47.18
14920,48.93
14932,48.41
14944,45.78
14956,41.17
14967,34.58
14978,25.84
14990,14.79
15002,1.57
15014,-13.22
15026,-28.49
15038,-42.84
15050,-54.86
15062,-63.58
15074,-68.7
15086,-70.73
15098,-70.83
15110,-70.52
15122,-71.35
15134,-74.5
15146,-80.37
15157,-88.44
15168,-97.13
15180,-104.1
15192,-106.83
15204,-103.36
15216,-92.88
15228,-76.01
15240,-54.62
15252,-31.16
15264,-8.12
15276,12.64
15288,29.94
15300,43.24
15312,52.4
15324,57.53
15336,58.88
15347,56.98
15358,52.6
15370,46.72
15382,40.4
15394,34.6
15406,30.12
15418,27.46
15430,26.89
15442,28.39
15454,31.73
15466,36.43
15478,41.85
15490,47.2
15502,51.69
15514,54.63
15526,55.55
15537,54.32
15548,51.14
15560,46.47
15572,40.94
15584,35.12
15596,29.32
15608,23.57
15620,17.55
15632,10.86
15644,3.18
15656,-5.42
15668,-14.46
15680,-23.19
15692,-30.82
15704,-36.84
15716,-41.17
15727,-44.27
15738,-46.92
15750,-50.12
15762,-54.71
15774,-61.08
15786,-68.82
15798,-76.62
15810,-82.46
15822,-84.06
15834,-79.69
15846,-68.78
15858,-52.23
15870,-32.09
15882,-10.96
15894,8.88
15906,25.98
15917,39.78
15928,50.39
15940,58.04
15952,62.91
15964,64.95
15976,64.13
15988,60.7
16000,55.27
16012,48.84
16024,42.56
16036,37.53
16048,34.56
16060,34.0
16072,35.71
16084,39.14
16096,43.49
16107,47.87
16118,51.48
16130,53.69
16142,54.08
16154,52.47
16166,48.9
16178,43.5
16190,36.53
16202,28.29
16214,19.05
16226,9.12
16238,-1.2
16250,-11.52
16262,-21.45
16274,-30.6
16286,-38.72
16297,-45.82
16308,-52.23
16320,-58.53
16332,-65.41
16344,-73.45
16356,-82.8
16368,-92.93
16380,-102.51
16392,-109.54
16404,-111.8
16416,-107.5
16428,-95.94
16440,-77.77
16452,-54.97
16464,-30.24
16476,-6.26
16487,14.91
16498,32.12
16510,45.05
16522,53.89
16534,58.97
16546,60.68
16558,59.39
16570,55.62
16582,50.04
16594,43.5
16606,36.93
16618,31.2
16630,26.96
16642,24.57
16654,24.04
16666,25.06
16677,27.05
16688,29.38
16700,31.49
16712,33.04
16724,33.9
16736,34.02
16748,33.28
16760,31.47
16772,28.29
16784,23.55
16796,17.32
16808,9.95
16820,2.08
16832,-5.62
16844,-12.7
16856,-19.04
16867,-24.8
16878,-30.44
16890,-36.45
16902,-43.34
16914,-51.47
16926,-60.94
16938,-71.32
16950,-81.44
16962,-89.49
16974,-93.22
16986,-90.7
16998,-80.88
17010,-64.12
17022,-42.19
17034,-17.73
17046,6.49
17057,28.19
17068,46.02
17080,59.49
17092,68.69
17104,73.95
17116,75.58
17128,73.91
17140,69.34
17152,62.53
17164,54.4
17176,46.09
17188,38.72
17200,33.14
17212,29.74
17224,28.42
17236,28.69
17247,29.87
17258,31.36
17270,32.73
17282,33.73
17294,34.18
17306,33.9
17318,32.58
17330,29.89
17342,25.57
17354,19.6
17366,12.28
17378,4.21
17390,-3.85
17402,-11.27
17414,-17.68
17426,-23.12
17437,-27.89
17448,-32.47
17460,-37.37
17472,-43.02
17484,-49.8
17496,-57.82
17508,-66.75
17520,-75.56
17532,-82.52
17544,-85.52
17556,-82.72
17568,-73.15
17580,-57.21
17592,-36.57
17604,-13.68
17616,8.91
17627,29.18
17638,45.93
17650,58.68
17662,67.41
17674,72.37
17686,73.85
17698,72.28
17710,68.23
17722,62.42
17734,55.66
17746,48.73
17758,42.23
17770,36.63
17782,32.27
17794,29.44
17806,28.38
17817,29.26
17828,32.02
17840,36.24
17852,41.18
17864,45.91
17876,49.47
17888,51.16
17900,50.63
17912,47.88
17924,43.2
17936,36.87
17948,29.18
17960,20.36
17972,10.55
17984,-0.03
17996,-11.2
18007,-22.8
18018,-34.75
18030,-47.01
18042,-59.53
18054,-72.34
18066,-85.68
18078,-100.25
18090,-117.19
18102,-137.74
18114,-162.48
18126,-190.58
18138,-219.38
18150,-244.81
18162,-262.59
18174,-269.59
18186,-264.96
18197,-250.24
18208,-228.55
18220,-203.33
18232,-177.26
18244,-151.84
18256,-127.6
18268,-104.75
18280,-83.57
18292,-64.38
18304,-47.21
18316,-31.33
18328,-15.07
18340,3.88
18352,27.8
18364,58.13
18376,94.86
18387,136.44
18398,180.15
18410,223.0
18422,262.59
18434,297.88
18446,329.26
18458,358.17
18470,386.28
18482,414.64
18494,443.17
18506,470.55
18518,494.55
18530,512.57
18542,522.28
18554,522.05
18566,511.42
18577,491.1
18588,462.8
18600,428.76
18612,391.22
18624,351.85
18636,311.7
18648,271.44
18660,231.86
18672,194.33
18684,160.72
18696,132.75
18708,111.09
18720,94.65
18732,80.71
18744,65.7
18756,46.66
18767,22.42
18778,-5.83
18790,-34.85
18802,-60.49
18814,-78.93
18826,-87.78
18838,-86.57
18850,-76.65
18862,-60.74
18874,-42.23
18886,-24.47
18898,-10.21
18910,-1.15
18922,2.19
18934,0.14
18946,-6.48
18957,-16.81
18968,-30.02
18980,-45.24
18992,-61.27
19004,-76.39
19016,-88.63
19028,-96.22
19040,-98.24
19052,-95.03
19064,-88.15
19076,-79.99
19088,-73.17
19100,-70.03
19112,-72.29
19124,-80.68
19136,-94.65
19147,-112.24
19158,-130.4
19170,-145.89
19182,-156.5
19194,-161.84
19206,-163.37
19218,-163.38
19230,-163.58
19242,-163.92
19254,-162.51
19266,-156.58
19278,-143.98
19290,-124.37
19302,-99.56
19314,-72.8
19326,-47.71
19337,-27.31
19348,-13.52
19360,-7.2
19372,-8.31
19384,-16.03
19396,-28.94
19408,-45.04
19420,-62.01
19432,-77.52
19444,-89.69
19456,-97.4
19468,-100.42
19480,-99.32
19492,-95.34
19504,-90.15
19516,-85.7
19527,-83.87
19538,-86.18
19550,-93.43
19562,-105.45
19574,-121.2
19586,-139.04
19598,-157.25
19610,-174.38
19622,-189.37
19634,-201.47
19646,-210.13
19658,-215.01
19670,-216.11
19682,-214.04
19694,-210.0
19706,-205.58
19717,-202.27
19728,-200.93
19740,-201.53
19752,-203.27
19764,-204.94
19776,-205.5
19788,-204.38
19800,-201.66
19812,-197.91
19824,-193.98
19836,-190.55
19848,-187.75
19860,-184.72
19872,-179.49
19884,-169.24
19896,-151.09
19907,-123.12
19918,-85.24
19930,-39.45
19942,10.6
19954,60.68
19966,107.11
19978,147.44
19990,180.65
20002,206.8
20014,226.52
20026,240.62
20038,249.95
20050,255.34
20062,257.59
20074,257.41
20086,255.3
20097,251.61
20108,246.54
20120,240.3
20132,233.16
20144,225.49
20156,217.77
20168,210.37
20180,203.51
20192,197.05
20204,190.38
20216,182.47
20228,171.95
20240,157.49
20252,138.02
20264,113.15
20276,83.24
20287,49.44
20298,13.5
20310,-22.5
20322,-56.5
20334,-86.76
20346,-111.98
20358,-131.47
20370,-144.95
20382,-152.52
20394,-154.47
20406,-151.33
20418,-143.82
20430,-132.9
20442,-119.69
20454,-105.29
20466,-90.67
20477,-76.61
20488,-63.69
20500,-52.43
20512,-43.38
20524,-36.95
20536,-33.39
20548,-32.57
20560,-33.96
20572,-36.78
20584,-40.12
20596,-43.3
20608,-46.03
20620,-48.51
20632,-51.41
20644,-55.69
20656,-62.11
20667,-70.77
20678,-80.71
20690,-89.75
20702,-94.98
20714,-93.62
20726,-83.88
20738,-65.76
20750,-41.03
20762,-12.75
20774,15.67
20786,41.29
20798,62.23
20810,77.65
20822,87.6
20834,92.55
20846,93.25
20857,90.47
20868,85.07
20880,77.9
20892,69.78
20904,61.52
20916,53.78
20928,47.09
20940,41.8
20952,38.1
20964,36.05
20976,35.58
20988,36.57
