seconds,BVP
6,13.7
18,15.24
30,16.22
42,16.48
53,15.93
64,14.55
76,12.47
88,9.91
100,7.23
112,4.65
124,2.31
136,0.25
148,-1.58
160,-3.22
172,-4.7
184,-6.12
196,-7.67
208,-9.52
220,-11.64
232,-13.58
243,-14.59
254,-13.78
266,-10.53
278,-4.81
290,2.8
302,11.22
314,19.31
326,26.15
338,31.14
350,34.02
362,34.69
374,33.27
386,30.07
398,25.68
410,20.87
422,16.52
433,13.31
444,11.61
456,11.39
468,12.33
480,13.95
492,15.76
504,17.35
516,18.43
528,18.89
540,18.67
552,17.83
564,16.45
576,14.59
588,12.3
600,9.59
612,6.58
623,3.4
634,0.18
646,-2.97
658,-6.04
670,-9.09
682,-12.17
694,-15.29
706,-18.35
718,-21.04
730,-22.89
742,-23.36
754,-22.0
766,-18.58
778,-13.2
790,-6.34
802,1.26
813,8.81
824,15.57
836,21.07
848,25.05
860,27.41
872,28.13
884,27.34
896,25.23
908,22.18
920,18.67
932,15.21
944,12.24
956,10.01
968,8.61
980,7.94
992,7.85
1003,8.09
1014,8.42
1026,8.57
1038,8.34
1050,7.55
1062,6.14
1074,4.1
1086,1.55
1098,-1.35
1110,-4.39
1122,-7.37
1134,-10.15
1146,-12.65
1158,-14.87
1170,-16.87
1182,-18.83
1193,-20.94
1204,-23.29
1216,-25.75
1228,-27.88
1240,-29.02
1252,-28.47
1264,-25.75
1276,-20.79
1288,-14.02
1300,-6.2
1312,1.79
1324,9.18
1336,15.51
1348,20.41
1360,23.64
1372,25.03
1383,24.53
1394,22.34
1406,18.96
1418,15.15
1430,11.73
1442,9.36
1454,8.32
1466,8.54
1478,9.61
1490,11.02
1502,12.31
1514,13.19
1526,13.57
1538,13.46
1550,12.86
1562,11.67
1573,9.73
1584,6.93
1596,3.34
1608,-0.79
1620,-4.97
1632,-8.8
1644,-12.02
1656,-14.67
1668,-16.96
1680,-19.19
1692,-21.58
1704,-24.14
1716,-26.61
1728,-28.45
1740,-29.01
1752,-27.69
1763,-24.12
1774,-18.29
1786,-10.68
1798,-2.07
1810,6.57
1822,14.38
1834,20.72
1846,25.16
1858,27.5
1870,27.75
1882,26.13
1894,23.07
1906,19.19
1918,15.21
1930,11.76
1942,9.3
1953,7.98
1964,7.76
1976,8.39
1988,9.54
2000,10.84
2012,11.98
2024,12.72
2036,12.95
2048,12.66
2060,11.91
2072,10.76
2084,9.27
2096,7.47
2108,5.41
2120,3.27
2132,1.26
2143,-0.57
2154,-2.24
2166,-4.03
2178,-6.25
2190,-9.1
2202,-12.43
2214,-15.66
2226,-18.01
2238,-18.64
2250,-17.12
2262,-13.36
2274,-7.83
2286,-1.28
2298,5.37
2310,11.35
2322,16.15
2333,19.48
2344,21.31
2356,21.61
2368,20.5
2380,18.1
2392,14.82
2404,11.2
2416,7.9
2428,5.56
2440,4.43
2452,4.46
2464,5.28
2476,6.46
2488,7.64
2500,8.67
2512,9.54
2523,10.19
2534,10.44
2546,10.03
2558,8.78
2570,6.6
2582,3.68
2594,0.38
2606,-2.91
2618,-5.86
2630,-8.36
2642,-10.5
2654,-12.52
2666,-14.63
2678,-17.09
2690,-19.91
2702,-23.04
2713,-26.14
2724,-28.75
2736,-30.26
2748,-30.04
2760,-27.68
2772,-23.09
2784,-16.66
2796,-9.13
2808,-1.46
2820,5.45
2832,10.99
2844,14.89
2856,17.17
2868,17.92
2880,17.32
2892,15.57
2903,13.0
2914,10.14
2926,7.61
2938,5.96
2950,5.52
2962,6.25
2974,7.76
2986,9.55
2998,11.13
3010,12.26
3022,12.91
3034,13.18
3046,13.15
3058,12.72
3070,11.75
3082,10.06
3093,7.68
3104,4.75
3116,1.64
3128,-1.35
3140,-4.03
3152,-6.45
3164,-8.79
3176,-11.28
3188,-14.06
3200,-17.0
3212,-19.76
3224,-21.73
3236,-22.27
3248,-20.85
3260,-17.33
3272,-11.95
3283,-5.36
3294,1.57
3306,8.05
3318,13.41
3330,17.27
3342,19.44
3354,19.86
3366,18.55
3378,15.74
3390,11.89
3402,7.63
3414,3.72
3426,0.8
3438,-0.8
3450,-1.07
3462,-0.36
3473,0.91
3484,2.39
3496,3.86
3508,5.16
3520,6.26
3532,7.05
3544,7.38
3556,7.15
3568,6.33
3580,5.02
3592,3.41
3604,1.7
3616,0.0
3628,-1.62
3640,-3.26
3652,-4.99
3663,-6.93
3674,-9.16
3686,-11.72
3698,-14.52
3710,-17.29
3722,-19.53
3734,-20.58
3746,-19.88
3758,-17.16
3770,-12.58
3782,-6.82
3794,-0.76
3806,4.68
3818,8.83
3830,11.44
3842,12.54
3853,12.28
3864,10.89
3876,8.63
3888,5.75
3900,2.6
3912,-0.39
3924,-2.85
3936,-4.45
3948,-4.99
3960,-4.51
3972,-3.24
3984,-1.5
3996,0.28
4008,1.67
4020,2.39
4032,2.28
4043,1.38
4054,-0.16
4066,-2.11
4078,-4.27
4090,-6.44
4102,-8.41
4114,-10.06
4126,-11.32
4138,-12.32
4150,-13.32
4162,-14.6
4174,-16.31
4186,-18.28
4198,-20.07
4210,-21.0
4222,-20.42
4233,-17.99
4244,-13.82
4256,-8.37
4268,-2.43
4280,3.18
4292,7.83
4304,11.1
4316,12.91
4328,13.39
4340,12.78
4352,11.31
4364,9.22
4376,6.77
4388,4.25
4400,2.02
4412,0.42
4423,-0.32
4434,-0.14
4446,0.74
4458,1.99
4470,3.23
4482,4.17
4494,4.69
4506,4.8
4518,4.55
4530,3.96
4542,3.05
4554,1.73
4566,-0.03
4578,-2.17
4590,-4.5
4602,-6.81
4613,-9.03
4624,-11.23
4636,-13.63
4648,-16.38
4660,-19.35
4672,-21.99
4684,-23.45
4696,-22.94
4708,-20.04
4720,-15.01
4732,-8.62
4744,-1.91
4756,4.19
4768,9.1
4780,12.62
4792,14.82
4803,15.77
4814,15.56
4826,14.22
4838,11.87
4850,8.91
4862,5.89
4874,3.45
4886,2.05
4898,1.84
4910,2.6
4922,3.91
4934,5.26
4946,6.27
4958,6.75
4970,6.71
4982,6.29
4993,5.57
5004,4.68
5016,3.66
5028,2.61
5040,1.57
5052,0.56
5064,-0.45
5076,-1.55
5088,-2.85
5100,-4.48
5112,-6.42
5124,-8.63
5136,-10.84
5148,-12.7
5160,-13.75
5172,-13.56
5183,-11.82
5194,-8.49
5206,-3.82
5218,1.54
5230,6.83
5242,11.25
5254,14.17
5266,15.27
5278,14.54
5290,12.26
5302,8.93
5314,5.23
5326,1.76
5338,-0.96
5350,-2.65
5362,-3.3
5373,-3.11
5384,-2.38
5396,-1.43
5408,-0.52
5420,0.17
5432,0.51
5444,0.45
5456,-0.05
5468,-0.96
5480,-2.23
5492,-3.69
5504,-5.2
5516,-6.61
5528,-7.81
5540,-8.82
5552,-9.75
5563,-10.72
5574,-11.86
5586,-13.23
5598,-14.88
5610,-16.74
5622,-18.63
5634,-20.13
5646,-20.71
5658,-19.8
5670,-17.07
5682,-12.62
5694,-6.99
5706,-1.06
5718,4.37
5730,8.7
5742,11.75
5753,13.56
5764,14.23
5776,13.78
5788,12.2
5800,9.64
5812,6.46
5824,3.33
5836,0.92
5848,-0.35
5860,-0.44
5872,0.29
5884,1.35
5896,2.32
5908,2.96
5920,3.3
5932,3.37
5943,3.17
5954,2.61
5966,1.57
5978,0.07
5990,-1.77
6002,-3.64
6014,-5.31
6026,-6.6
6038,-7.58
6050,-8.41
6062,-9.32
6074,-10.4
6086,-11.67
6098,-13.08
6110,-14.54
6122,-15.88
6133,-16.79
6144,-16.93
6156,-15.96
6168,-13.64
6180,-10.01
6192,-5.43
6204,-0.49
6216,4.12
6228,7.82
6240,10.27
6252,11.35
6264,11.18
6276,9.98
6288,8.11
6300,6.01
6312,4.1
6323,2.78
6334,2.22
6346,2.41
6358,3.19
6370,4.29
6382,5.47
6394,6.55
6406,7.48
6418,8.22
6430,8.7
6442,8.79
6454,8.31
6466,7.19
6478,5.5
6490,3.44
6502,1.28
6513,-0.73
6524,-2.49
6536,-4.06
6548,-5.58
6560,-7.24
6572,-9.16
6584,-11.38
6596,-13.89
6608,-16.54
6620,-19.05
6632,-20.98
6644,-21.76
6656,-20.89
6668,-18.17
6680,-13.75
6692,-8.25
6703,-2.46
6714,2.83
6726,7.05
6738,9.94
6750,11.5
6762,11.87
6774,11.24
6786,9.88
6798,8.09
6810,6.24
6822,4.7
6834,3.75
6846,3.5
6858,3.92
6870,4.85
6882,6.08
6893,7.34
6904,8.35
6916,8.93
6928,8.99
6940,8.5
6952,7.61
6964,6.5
6976,5.31
6988,4.11
7000,2.9
7012,1.65
7024,0.34
7036,-0.95
7048,-2.18
7060,-3.35
7072,-4.6
7083,-6.16
7094,-8.26
7106,-11.06
7118,-14.46
7130,-18.14
7142,-21.43
7154,-23.56
7166,-23.82
7178,-21.84
7190,-17.73
7202,-12.08
7214,-5.78
7226,0.29
7238,5.49
7250,9.51
7262,12.33
7273,14.07
7284,14.72
7296,14.23
7308,12.6
7320,9.96
7332,6.79
7344,3.73
7356,1.45
7368,0.29
7380,0.27
7392,1.04
7404,2.1
7416,3.08
7428,3.78
7440,4.25
7452,4.63
7463,5.03
7474,5.44
7486,5.72
7498,5.72
7510,5.39
7522,4.73
7534,3.79
7546,2.68
7558,1.48
7570,0.22
7582,-1.1
7594,-2.53
7606,-4.16
7618,-6.07
7630,-8.29
7642,-10.84
7653,-13.49
7664,-15.89
7676,-17.5
7688,-17.76
7700,-16.28
7712,-13.01
7724,-8.35
7736,-2.88
7748,2.6
7760,7.52
7772,11.49
7784,14.36
7796,16.07
7808,16.59
7820,15.87
7832,13.97
7843,11.16
7854,7.89
7866,4.77
7878,2.33
7890,0.86
7902,0.39
7914,0.7
7926,1.45
7938,2.39
7950,3.33
7962,4.2
7974,4.96
7986,5.54
7998,5.81
8010,5.64
8022,5.02
8033,3.99
8044,2.73
8056,1.38
8068,0.02
8080,-1.4
8092,-2.9
8104,-4.52
8116,-6.26
8128,-8.08
8140,-9.94
8152,-11.83
8164,-13.76
8176,-15.75
8188,-17.72
8200,-19.5
8212,-20.68
8223,-20.76
8234,-19.29
8246,-16.02
8258,-11.06
8270,-4.93
8282,1.5
8294,7.39
8306,12.07
8318,15.26
8330,17.0
8342,17.48
8354,16.86
8366,15.19
8378,12.62
8390,9.4
8402,6.04
8413,3.12
8424,1.12
8436,0.22
8448,0.25
8460,0.78
8472,1.42
8484,1.97
8496,2.56
8508,3.39
8520,4.62
8532,6.15
8544,7.65
8556,8.68
8568,8.86
8580,8.01
8592,6.24
8603,3.87
8614,1.29
8626,-1.19
8638,-3.33
8650,-5.09
8662,-6.5
8674,-7.66
8686,-8.68
8698,-9.68
8710,-10.76
8722,-11.96
8734,-13.29
8746,-14.48
8758,-15.16
8770,-14.79
8782,-12.97
8793,-9.53
8804,-4.75
8816,0.73
8828,6.11
8840,10.64
8852,13.93
8864,15.91
8876,16.76
8888,16.69
8900,15.86
8912,14.36
8924,12.32
8936,9.97
8948,7.74
8960,6.03
8972,5.16
8983,5.16
8994,5.75
9006,6.46
9018,6.9
9030,6.84
9042,6.37
9054,5.75
9066,5.24
9078,4.96
9090,4.78
9102,4.46
9114,3.74
9126,2.58
9138,1.14
9150,-0.32
9162,-1.61
9173,-2.71
9184,-3.78
9196,-5.0
9208,-6.46
9220,-8.17
9232,-10.03
9244,-11.99
9256,-14.02
9268,-16.14
9280,-18.15
9292,-19.68
9304,-20.14
9316,-18.96
9328,-15.9
9340,-11.17
9352,-5.48
9363,0.3
9374,5.37
9386,9.25
9398,11.84
9410,13.22
9422,13.54
9434,12.9
9446,11.36
9458,9.14
9470,6.67
9482,4.49
9494,3.12
9506,2.82
9518,3.44
9530,4.61
9542,5.89
9553,6.98
9564,7.81
9576,8.47
9588,8.98
9600,9.24
9612,9.04
9624,8.15
9636,6.48
9648,4.13
9660,1.39
9672,-1.45
9684,-4.21
9696,-6.79
9708,-9.18
9720,-11.31
9732,-13.07
9743,-14.36
9754,-15.17
9766,-15.73
9778,-16.31
9790,-17.13
9802,-18.09
9814,-18.75
9826,-18.46
9838,-16.7
9850,-13.33
9862,-8.64
9874,-3.37
9886,1.79
9898,6.31
9910,9.97
9922,12.84
9933,14.96
9944,16.24
9956,16.47
9968,15.49
9980,13.37
9992,10.57
10004,7.72
10016,5.43
10028,4.02
10040,3.48
10052,3.49
10064,3.75
10076,4.12
10088,4.61
10100,5.32
10112,6.17
10123,6.94
10134,7.28
10146,6.89
10158,5.71
10170,3.91
10182,1.83
10194,-0.19
10206,-1.97
10218,-3.47
10230,-4.82
10242,-6.16
10254,-7.58
10266,-9.12
10278,-10.75
10290,-12.48
10302,-14.25
10313,-15.96
10324,-17.34
10336,-17.97
10348,-17.35
10360,-15.1
10372,-11.11
10384,-5.71
10396,0.42
10408,6.41
10420,11.48
10432,15.14
10444,17.22
10456,17.83
10468,17.18
10480,15.54
10492,13.14
10503,10.27
10514,7.29
10526,4.58
10538,2.52
10550,1.26
10562,0.77
10574,0.9
10586,1.52
10598,2.51
10610,3.84
10622,5.37
10634,6.8
10646,7.77
10658,7.86
10670,6.88
10682,4.93
10693,2.35
10704,-0.44
10716,-3.11
10728,-5.48
10740,-7.57
10752,-9.39
10764,-11.03
10776,-12.54
10788,-14.05
10800,-15.72
10812,-17.66
10824,-19.82
10836,-21.85
10848,-23.2
10860,-23.21
10872,-21.5
10883,-18.05
10894,-13.29
10906,-7.86
10918,-2.42
10930,2.59
10942,6.93
10954,10.53
10966,13.34
10978,15.24
10990,16.06
11002,15.68
11014,14.14
11026,11.75
11038,9.07
11050,6.71
11062,5.15
11073,4.61
11084,5.0
11096,5.93
11108,7.01
11120,7.9
11132,8.45
11144,8.67
11156,8.64
11168,8.34
11180,7.66
11192,6.55
11204,5.0
11216,3.2
11228,1.45
11240,0.01
11252,-1.04
11263,-1.87
11274,-2.78
11286,-4.08
11298,-5.85
11310,-7.92
11322,-10.02
11334,-11.83
11346,-13.27
11358,-14.29
11370,-14.89
11382,-14.84
11394,-13.75
11406,-11.28
11418,-7.33
11430,-2.34
11442,2.96
11453,7.69
11464,11.22
11476,13.31
11488,14.07
11500,13.76
11512,12.55
11524,10.6
11536,8.07
11548,5.3
11560,2.79
11572,1.07
11584,0.47
11596,1.01
11608,2.37
11620,4.08
11632,5.71
11643,6.95
11654,7.74
11666,8.07
11678,7.98
11690,7.43
11702,6.42
11714,4.98
11726,3.24
11738,1.48
11750,-0.1
11762,-1.33
11774,-2.19
11786,-2.78
11798,-3.26
11810,-3.76
11822,-4.38
11833,-5.27
11844,-6.49
11856,-8.14
11868,-10.11
11880,-12.11
11892,-13.67
11904,-14.24
11916,-13.44
11928,-11.24
11940,-7.98
11952,-4.18
11964,-0.39
11976,3.08
11988,6.03
12000,8.41
12012,10.01
12023,10.64
12034,10.13
12046,8.49
12058,6.09
12070,3.5
12082,1.33
12094,-0.03
12106,-0.51
12118,-0.27
12130,0.4
12142,1.19
12154,1.97
12166,2.7
12178,3.39
12190,4.01
12202,4.47
12213,4.64
12224,4.4
12236,3.7
12248,2.61
12260,1.31
12272,0.02
12284,-1.11
12296,-2.02
12308,-2.78
12320,-3.52
12332,-4.36
12344,-5.46
12356,-6.87
12368,-8.58
12380,-10.46
12392,-12.2
12403,-13.4
12414,-13.57
12426,-12.32
12438,-9.46
12450,-5.18
12462,-0.0
12474,5.27
12486,9.79
12498,12.94
12510,14.48
12522,14.53
12534,13.43
12546,11.56
12558,9.22
12570,6.61
12582,3.94
12593,1.46
12604,-0.55
12616,-1.82
12628,-2.21
12640,-1.77
12652,-0.79
12664,0.38
12676,1.44
12688,2.21
12700,2.6
12712,2.59
12724,2.21
12736,1.43
12748,0.27
12760,-1.18
12772,-2.81
12783,-4.49
12794,-6.09
12806,-7.62
12818,-9.15
12830,-10.79
12842,-12.64
12854,-14.68
12866,-16.84
12878,-19.02
12890,-21.06
12902,-22.79
12914,-23.86
12926,-23.91
12938,-22.56
12950,-19.66
12962,-15.39
12973,-10.25
12984,-4.92
12996,-0.03
13008,4.04
13020,7.2
13032,9.49
13044,11.0
13056,11.63
13068,11.27
13080,9.93
13092,7.83
13104,5.51
13116,3.63
13128,2.73
13140,3.09
13152,4.52
13163,6.54
13174,8.55
13186,10.1
13198,10.96
13210,11.21
13222,10.99
13234,10.41
13246,9.42
13258,7.9
13270,5.76
13282,3.04
13294,0.02
13306,-2.99
13318,-5.72
13330,-8.02
13342,-10.0
13353,-11.83
13364,-13.69
13376,-15.71
13388,-17.97
13400,-20.45
13412,-23.06
13424,-25.48
13436,-27.17
13448,-27.51
13460,-26.01
13472,-22.57
13484,-17.54
13496,-11.67
13508,-5.77
13520,-0.52
13532,3.74
13543,6.95
13554,9.12
13566,10.26
13578,10.34
13590,9.41
13602,7.74
13614,5.79
13626,4.1
13638,3.12
13650,3.07
13662,3.87
13674,5.26
13686,6.88
13698,8.43
13710,9.68
13722,10.55
13733,10.99
13744,10.97
13756,10.45
13768,9.45
13780,8.04
13792,6.33
13804,4.57
13816,2.96
13828,1.66
13840,0.7
13852,-0.0
13864,-0.63
13876,-1.37
13888,-2.36
13900,-3.75
13912,-5.64
13923,-8.07
13934,-10.93
13946,-13.95
13958,-16.66
13970,-18.51
13982,-18.97
13994,-17.77
14006,-14.92
14018,-10.75
14030,-5.86
14042,-0.8
14054,3.89
14066,7.85
14078,10.86
14090,12.76
14102,13.45
14113,12.86
14124,11.12
14136,8.54
14148,5.67
14160,3.15
14172,1.5
14184,1.0
14196,1.58
14208,2.88
14220,4.46
14232,5.98
14244,7.23
14256,8.16
14268,8.85
14280,9.33
14292,9.61
14303,9.61
14314,9.18
14326,8.24
14338,6.83
14350,5.05
14362,3.15
14374,1.39
14386,-0.12
14398,-1.41
14410,-2.67
14422,-4.05
14434,-5.59
14446,-7.22
14458,-8.83
14470,-10.34
14482,-11.76
14493,-13.05
14504,-13.99
14516,-14.17
14528,-13.06
14540,-10.25
14552,-5.76
14564,-0.03
14576,6.18
14588,12.04
14600,16.86
14612,20.29
14624,22.22
14636,22.67
14648,21.74
14660,19.56
14672,16.35
14683,12.63
14694,8.97
14706,6.01
14718,4.15
14730,3.49
14742,3.78
14754,4.55
14766,5.39
14778,6.0
14790,6.29
14802,6.32
14814,6.08
14826,5.54
14838,4.61
14850,3.17
14862,1.21
14873,-1.21
14884,-3.89
14896,-6.6
14908,-9.16
14920,-11.46
14932,-13.48
14944,-15.3
14956,-17.06
14968,-18.82
14980,-20.53
14992,-22.13
15004,-23.5
15016,-24.62
15028,-25.46
15040,-25.9
15052,-25.61
15063,-24.12
15074,-21.04
15086,-16.29
15098,-10.25
15110,-3.62
15122,2.8
15134,8.36
15146,12.75
15158,15.91
15170,17.85
15182,18.59
15194,18.09
15206,16.47
15218,14.08
15230,11.5
15242,9.42
15253,8.32
15264,8.37
15276,9.35
15288,10.82
15300,12.24
15312,13.19
15324,13.51
15336,13.28
15348,12.66
15360,11.87
15372,10.96
15384,9.92
15396,8.64
15408,7.05
15420,5.21
15432,3.28
15443,1.45
15454,-0.11
15466,-1.41
15478,-2.55
15490,-3.75
15502,-5.23
15514,-7.1
15526,-9.45
15538,-12.19
15550,-15.11
15562,-17.87
15574,-19.95
15586,-20.75
15598,-19.81
15610,-17.02
15622,-12.6
15633,-7.16
15644,-1.4
15656,4.03
15668,8.7
15680,12.37
15692,14.9
15704,16.17
15716,16.04
15728,14.52
15740,11.82
15752,8.44
15764,5.09
15776,2.45
15788,1.0
15800,0.89
15812,1.96
15823,3.68
15834,5.49
15846,6.8
15858,7.31
15870,6.93
15882,5.88
15894,4.48
15906,2.98
15918,1.48
15930,-0.1
15942,-1.8
15954,-3.57
15966,-5.15
15978,-6.27
15990,-6.8
16002,-6.86
16013,-6.82
16024,-7.11
16036,-8.02
16048,-9.54
16060,-11.49
16072,-13.53
16084,-15.33
16096,-16.56
16108,-16.83
16120,-15.8
16132,-13.16
16144,-8.87
16156,-3.23
16168,3.07
16180,9.24
16192,14.56
16203,18.65
16214,21.48
16226,23.2
16238,23.99
16250,23.83
16262,22.61
16274,20.21
16286,16.8
16298,12.89
16310,9.26
16322,6.68
16334,5.57
16346,5.79
16358,6.73
16370,7.61
16382,7.88
16393,7.45
16404,6.63
16416,5.86
16428,5.39
16440,5.14
16452,4.72
16464,3.72
16476,1.94
16488,-0.45
16500,-3.04
16512,-5.41
16524,-7.36
16536,-8.91
16548,-10.27
16560,-11.71
16572,-13.28
16583,-14.96
16594,-16.57
16606,-17.98
16618,-19.07
16630,-19.82
16642,-19.99
16654,-19.28
16666,-17.3
16678,-13.8
16690,-8.85
16702,-2.91
16714,3.31
16726,9.13
16738,14.06
16750,17.87
16762,20.53
16773,22.02
16784,22.36
16796,21.49
16808,19.56
16820,16.96
16832,14.26
16844,12.09
16856,10.85
16868,10.65
16880,11.27
16892,12.35
16904,13.54
16916,14.6
16928,15.44
16940,16.01
16952,16.26
16963,16.05
16974,15.24
16986,13.71
16998,11.53
17010,8.87
17022,6.02
17034,3.3
17046,0.91
17058,-1.11
17070,-2.84
17082,-4.43
17094,-6.03
17106,-7.72
17118,-9.49
17130,-11.37
17142,-13.37
17153,-15.61
17164,-18.01
17176,-20.32
17188,-21.95
17200,-22.15
17212,-20.36
17224,-16.37
17236,-10.58
17248,-3.79
17260,3.06
17272,9.16
17284,14.07
17296,17.63
17308,19.85
17320,20.67
17332,20.09
17343,18.1
17354,14.95
17366,11.18
17378,7.49
17390,4.54
17402,2.74
17414,2.17
17426,2.58
17438,3.63
17450,4.85
17462,6.01
17474,6.89
17486,7.37
17498,7.34
17510,6.74
17522,5.63
17533,4.11
17544,2.4
17556,0.63
17568,-1.15
17580,-2.91
17592,-4.68
17604,-6.39
17616,-7.94
17628,-9.18
17640,-10.05
17652,-10.64
17664,-11.14
17676,-11.81
17688,-12.78
17700,-14.18
17712,-15.91
17723,-17.78
17734,-19.36
17746,-20.13
17758,-19.56
17770,-17.32
17782,-13.46
17794,-8.35
17806,-2.69
17818,2.82
17830,7.6
17842,11.33
17854,13.88
17866,15.24
17878,15.42
17890,14.39
17902,12.28
17913,9.24
17924,5.69
17936,2.08
17948,-1.1
17960,-3.45
17972,-4.73
17984,-4.91
17996,-4.18
18008,-2.77
18020,-1.03
18032,0.85
18044,2.69
18056,4.36
18068,5.75
18080,6.65
18092,6.91
18103,6.36
18114,5.04
18126,3.06
18138,0.69
18150,-1.7
18162,-3.78
18174,-5.35
18186,-6.41
18198,-7.21
18210,-8.17
18222,-9.63
18234,-11.77
18246,-14.37
18258,-16.95
18270,-18.82
18282,-19.39
18293,-18.31
18304,-15.53
18316,-11.33
18328,-6.17
18340,-0.56
18352,4.96
18364,9.95
18376,14.01
18388,16.94
18400,18.56
18412,18.89
18424,17.99
18436,16.06
18448,13.45
18460,10.6
18472,8.02
18483,6.11
18494,5.13
18506,5.03
18518,5.52
18530,6.16
18542,6.63
18554,6.72
18566,6.41
18578,5.85
18590,5.13
18602,4.29
18614,3.28
18626,2.06
18638,0.58
18650,-1.03
18662,-2.64
18673,-4.09
18684,-5.26
18696,-6.19
18708,-7.03
18720,-7.99
18732,-9.32
18744,-11.19
18756,-13.6
18768,-16.44
18780,-19.36
18792,-21.84
18804,-23.31
18816,-23.25
18828,-21.34
18840,-17.67
18852,-12.63
18863,-6.86
18874,-1.05
18886,4.22
18898,8.68
18910,12.1
18922,14.4
18934,15.51
18946,15.3
18958,13.77
18970,11.16
18982,7.91
18994,4.72
19006,2.28
19018,1.02
19030,1.02
19042,2.04
19053,3.59
19064,5.2
19076,6.58
19088,7.61
19100,8.31
19112,8.71
19124,8.74
19136,8.28
19148,7.26
19160,5.67
19172,3.64
19184,1.43
19196,-0.74
19208,-2.74
19220,-4.6
19232,-6.5
19243,-8.64
19254,-11.24
19266,-14.34
19278,-17.74
19290,-21.02
19302,-23.64
19314,-25.02
19326,-24.68
19338,-22.48
19350,-18.5
19362,-13.2
19374,-7.21
19386,-1.2
19398,4.28
19410,8.88
19422,12.48
19433,15.11
19444,16.78
19456,17.49
19468,17.19
19480,15.97
19492,14.08
19504,11.93
19516,10.03
19528,8.82
19540,8.45
19552,8.83
19564,9.7
19576,10.74
19588,11.74
19600,12.59
19612,13.22
19623,13.6
19634,13.63
19646,13.12
19658,11.96
19670,10.17
19682,7.99
19694,5.76
19706,3.86
19718,2.39
19730,1.25
19742,0.12
19754,-1.36
19766,-3.45
19778,-6.23
19790,-9.63
19802,-13.5
19813,-17.56
19824,-21.41
19836,-24.54
19848,-26.29
19860,-26.09
19872,-23.64
19884,-19.08
19896,-13.01
19908,-6.34
19920,0.05
19932,5.4
19944,9.28
19956,11.48
19968,11.99
19980,10.88
19992,8.44
20003,5.07
20014,1.33
20026,-2.11
20038,-4.66
20050,-5.96
20062,-5.86
20074,-4.58
20086,-2.55
20098,-0.26
20110,1.76
20122,3.15
20134,3.78
20146,3.65
20158,2.94
20170,1.95
20182,0.84
20193,-0.27
20204,-1.36
20216,-2.45
20228,-3.57
20240,-4.66
20252,-5.69
20264,-6.62
20276,-7.44
20288,-8.26
20300,-9.22
20312,-10.46
20324,-12.05
20336,-13.87
20348,-15.59
20360,-16.74
20372,-16.82
20383,-15.51
20394,-12.82
20406,-9.13
20418,-4.92
20430,-0.75
20442,3.0
20454,6.12
20466,8.43
20478,9.79
20490,10.01
20502,9.02
20514,6.99
20526,4.43
20538,1.93
20550,0.08
20562,-0.88
20573,-1.06
20584,-0.82
20596,-0.56
20608,-0.47
20620,-0.54
20632,-0.59
20644,-0.47
20656,-0.16
20668,0.19
20680,0.36
20692,0.17
20704,-0.37
20716,-1.07
20728,-1.71
20740,-2.16
20752,-2.42
20763,-2.65
20774,-3.08
20786,-3.86
20798,-5.05
20810,-6.61
20822,-8.42
20834,-10.38
20846,-12.31
20858,-13.91
20870,-14.74
20882,-14.27
20894,-12.1
20906,-8.14
20918,-2.67
20930,3.63
20942,9.93
20953,15.46
20964,19.67
20976,22.34
20988,23.52
