seconds,BVP
7,20.82
18,16.76
29,12.99
41,10.11
53,8.47
65,8.07
77,8.6
89,9.58
101,10.51
113,11.06
125,11.15
137,10.89
149,10.48
161,10.07
173,9.75
185,9.49
197,9.17
208,8.69
219,7.98
231,7.02
243,5.79
255,4.25
267,2.37
279,0.07
291,-2.62
303,-5.5
315,-8.23
327,-10.4
339,-11.73
351,-12.22
363,-12.2
375,-12.2
387,-12.75
398,-14.03
409,-15.86
421,-17.75
433,-19.19
445,-19.88
457,-19.87
469,-19.57
481,-19.51
493,-20.15
505,-21.77
517,-24.39
529,-27.78
541,-31.52
553,-35.08
565,-37.83
577,-39.18
588,-38.72
599,-36.29
611,-32.06
623,-26.45
635,-19.96
647,-13.07
659,-6.16
671,0.41
683,6.23
695,10.89
707,14.04
719,15.54
731,15.65
743,14.96
755,14.25
767,14.21
778,15.22
789,17.29
801,20.12
813,23.21
825,25.97
837,27.85
849,28.44
861,27.56
873,25.4
885,22.48
897,19.52
909,17.15
921,15.64
933,14.87
945,14.38
957,13.7
968,12.58
979,11.15
991,9.76
1003,8.77
1015,8.31
1027,8.16
1039,7.84
1051,6.95
1063,5.28
1075,2.99
1087,0.47
1099,-1.83
1111,-3.65
1123,-5.03
1135,-6.21
1147,-7.53
1158,-9.2
1169,-11.2
1181,-13.35
1193,-15.39
1205,-17.14
1217,-18.52
1229,-19.6
1241,-20.6
1253,-21.85
1265,-23.74
1277,-26.48
1289,-29.98
1301,-33.67
1313,-36.59
1325,-37.71
1337,-36.32
1348,-32.32
1359,-26.33
1371,-19.38
1383,-12.46
1395,-6.22
1407,-0.78
1419,4.04
1431,8.45
1443,12.43
1455,15.73
1467,17.96
1479,18.86
1491,18.39
1503,16.76
1515,14.37
1527,11.73
1538,9.34
1549,7.6
1561,6.72
1573,6.69
1585,7.24
1597,7.96
1609,8.48
1621,8.62
1633,8.43
1645,8.09
1657,7.76
1669,7.45
1681,7.06
1693,6.46
1705,5.73
1717,5.12
1728,4.99
1739,5.54
1751,6.73
1763,8.15
1775,9.21
1787,9.36
1799,8.29
1811,6.12
1823,3.29
1835,0.4
1847,-2.1
1859,-3.96
1871,-5.31
1883,-6.4
1895,-7.49
1907,-8.66
1918,-9.77
1929,-10.54
1941,-10.77
1953,-10.44
1965,-9.83
1977,-9.42
1989,-9.73
2001,-11.05
2013,-13.34
2025,-16.1
2037,-18.53
2049,-19.87
2061,-19.66
2073,-17.98
2085,-15.4
2097,-12.64
2108,-10.23
2119,-8.23
2131,-6.17
2143,-3.34
2155,0.9
2167,6.7
2179,13.65
2191,20.75
2203,26.85
2215,30.92
2227,32.42
2239,31.4
2251,28.4
2263,24.27
2275,19.92
2287,16.08
2298,13.23
2309,11.62
2321,11.29
2333,12.07
2345,13.59
2357,15.34
2369,16.75
2381,17.45
2393,17.33
2405,16.61
2417,15.65
2429,14.78
2441,14.13
2453,13.62
2465,12.99
2477,12.01
2488,10.63
2499,8.92
2511,7.05
2523,5.15
2535,3.26
2547,1.28
2559,-0.87
2571,-3.19
2583,-5.53
2595,-7.65
2607,-9.29
2619,-10.32
2631,-10.76
2643,-10.8
2655,-10.66
2667,-10.5
2678,-10.37
2689,-10.21
2701,-9.91
2713,-9.47
2725,-9.07
2737,-9.0
2749,-9.61
2761,-11.07
2773,-13.31
2785,-15.93
2797,-18.36
2809,-20.0
2821,-20.41
2833,-19.44
2845,-17.16
2857,-13.78
2868,-9.6
2879,-4.8
2891,0.38
2903,5.74
2915,11.0
2927,15.83
2939,19.87
2951,22.81
2963,24.43
2975,24.54
2987,23.15
2999,20.34
3011,16.41
3023,11.85
3035,7.3
3047,3.4
3058,0.64
3069,-0.79
3081,-1.04
3093,-0.46
3105,0.52
3117,1.61
3129,2.67
3141,3.65
3153,4.58
3165,5.45
3177,6.22
3189,6.82
3201,7.21
3213,7.4
3225,7.46
3237,7.48
3248,7.51
3259,7.51
3271,7.36
3283,6.86
3295,5.86
3307,4.4
3319,2.73
3331,1.3
3343,0.61
3355,0.94
3367,2.3
3379,4.4
3391,6.79
3403,9.06
3415,10.95
3427,12.39
3438,13.55
3449,14.7
3461,16.2
3473,18.33
3485,21.21
3497,24.69
3509,28.37
3521,31.76
3533,34.44
3545,36.42
3557,38.21
3569,40.76
3581,45.21
3593,52.49
3605,62.98
3617,76.32
3628,91.61
3639,107.7
3651,123.62
3663,138.88
3675,153.54
3687,168.03
3699,182.67
3711,197.42
3723,211.55
3735,223.99
3747,233.47
3759,238.75
3771,238.67
3783,232.14
3795,218.12
3807,195.8
3818,164.94
3829,126.1
3841,80.76
3853,31.13
3865,-20.25
3877,-70.93
3889,-119.05
3901,-163.4
3913,-203.64
3925,-240.25
3937,-274.35
3949,-307.64
3961,-342.4
3973,-381.36
3985,-427.06
3997,-480.64
4008,-540.29
4019,-600.45
4031,-652.31
4043,-686.4
4055,-695.84
4067,-678.99
4079,-640.08
4091,-587.1
4103,-528.52
4115,-470.22
4127,-414.49
4139,-361.14
4151,-309.56
4163,-260.24
4175,-214.63
4187,-173.86
4198,-137.29
4209,-102.4
4221,-66.01
4233,-26.16
4245,16.79
4257,60.34
4269,101.14
4281,136.78
4293,166.76
4305,192.28
4317,215.16
4329,236.57
4341,256.44
4353,273.73
4365,287.18
4377,296.02
4388,300.25
4399,300.42
4411,297.4
4423,292.15
4435,285.75
4447,279.45
4459,274.42
4471,271.3
4483,269.82
4495,268.74
4507,266.35
4519,261.04
4531,251.92
4543,239.1
4555,223.49
4567,206.37
4578,188.94
4589,172.11
4601,156.48
4613,142.42
4625,130.08
4637,119.29
4649,109.6
4661,100.4
4673,91.13
4685,81.46
4697,71.35
4709,60.96
4721,50.43
4733,39.86
4745,29.39
4757,19.28
4768,9.92
4779,1.65
4791,-5.41
4803,-11.56
4815,-17.25
4827,-22.85
4839,-28.32
4851,-33.18
4863,-36.8
4875,-38.82
4887,-39.44
4899,-39.28
4911,-39.0
4923,-38.86
4935,-38.58
4947,-37.68
4958,-35.82
4969,-33.14
4981,-30.17
4993,-27.45
5005,-25.23
5017,-23.34
5029,-21.39
5041,-19.11
5053,-16.5
5065,-13.9
5077,-11.62
5089,-9.81
5101,-8.31
5113,-6.8
5125,-5.04
5137,-2.96
5148,-0.69
5159,1.57
5171,3.63
5183,5.42
5195,7.0
5207,8.46
5219,9.96
5231,11.67
5243,13.68
5255,15.89
5267,17.95
5279,19.24
5291,19.19
5303,17.47
5315,14.22
5327,10.04
5338,5.78
5349,2.23
5361,-0.23
5373,-1.63
5385,-2.38
5397,-2.93
5409,-3.56
5421,-4.28
5433,-4.83
5445,-4.85
5457,-3.98
5469,-2.11
5481,0.63
5493,3.86
5505,7.03
5517,9.59
5528,11.17
5539,11.55
5551,10.69
5563,8.64
5575,5.55
5587,1.66
5599,-2.58
5611,-6.62
5623,-9.78
5635,-11.55
5647,-11.78
5659,-10.84
5671,-9.46
5683,-8.52
5695,-8.57
5707,-9.71
5718,-11.47
5729,-13.01
5741,-13.51
5753,-12.47
5765,-9.95
5777,-6.62
5789,-3.46
5801,-1.33
5813,-0.65
5825,-1.16
5837,-2.03
5849,-2.12
5861,-0.47
5873,3.39
5885,9.44
5897,17.28
5908,26.24
5919,35.32
5931,43.4
5943,49.62
5955,54.12
5967,58.37
5979,64.86
5991,76.06
6003,93.08
6015,114.75
6027,137.69
6039,157.46
6051,170.36
6063,174.73
6075,171.31
6087,162.17
6098,149.82
6109,136.29
6121,122.81
6133,109.78
6145,96.94
6157,83.7
6169,69.39
6181,53.52
6193,34.96
6205,12.99
6217,-12.03
6229,-38.24
6241,-62.87
6253,-83.21
6265,-97.49
6277,-105.29
6288,-107.69
6299,-108.73
6311,-112.54
6323,-121.3
6335,-133.83
6347,-146.27
6359,-154.24
6371,-154.44
6383,-145.6
6395,-128.64
6407,-109.14
6419,-93.16
6431,-84.74
6443,-84.06
6455,-88.68
6467,-95.8
6478,-103.53
6489,-110.8
6501,-117.21
6513,-126.88
6525,-143.99
6537,-171.12
6549,-207.5
6561,-250.45
6573,-297.62
6585,-347.66
6597,-399.33
6609,-428.99
6621,-418.46
6633,-364.1
6645,-281.67
6657,-192.97
6668,-112.27
6679,-43.99
6691,12.81
6703,60.54
6715,100.74
6727,127.14
6739,136.92
6751,128.89
6763,106.16
6775,75.12
6787,42.7
6799,15.66
6811,0.27
6823,5.38
6835,29.93
6847,65.3
6858,98.82
6869,121.0
6881,128.71
6893,126.03
6905,119.57
6917,115.34
6929,116.68
6941,121.56
6953,126.97
6965,131.65
6977,138.94
6989,152.53
7001,175.31
7013,204.12
7025,234.28
7037,261.29
7048,280.89
7059,290.43
7071,287.78
7083,271.89
7095,250.48
7107,223.34
7119,191.82
7131,160.12
7143,133.17
7155,113.85
7167,102.71
7179,96.37
7191,92.53
7203,88.72
7215,81.75
7227,70.13
7238,53.91
7249,33.79
7261,10.52
7273,-14.87
7285,-41.04
7297,-65.99
7309,-88.0
7321,-106.64
7333,-121.4
7345,-132.13
7357,-139.37
7369,-144.18
7381,-147.63
7393,-150.42
7405,-152.29
7417,-152.5
7428,-150.62
7439,-145.9
7451,-138.11
7463,-128.01
7475,-117.23
7487,-107.64
7499,-100.63
7511,-96.32
7523,-93.72
7535,-91.33
7547,-87.34
7559,-80.58
7571,-71.01
7583,-59.58
7595,-47.66
7607,-36.39
7618,-26.21
7629,-16.9
7641,-7.91
7653,1.43
7665,11.5
7677,22.22
7689,33.11
7701,43.46
7713,52.56
7725,59.85
7737,65.02
7749,68.02
7761,68.95
7773,68.01
7785,65.34
7797,61.15
7808,55.72
7819,49.55
7831,43.36
7843,37.9
7855,33.71
7867,30.88
7879,28.89
7891,26.76
7903,23.3
7915,17.47
7927,8.73
7939,-2.85
7951,-16.59
7963,-31.39
7975,-46.07
7987,-59.61
7998,-71.39
8009,-81.22
8021,-89.28
8033,-95.91
8045,-101.51
8057,-106.3
8069,-110.33
8081,-113.41
8093,-115.11
8105,-114.89
8117,-112.19
8129,-106.6
8141,-98.06
8153,-86.95
8165,-74.01
8177,-60.18
8188,-46.33
8199,-33.16
8211,-21.04
8223,-10.18
8235,-0.65
8247,7.49
8259,14.21
8271,19.51
8283,23.47
8295,26.33
8307,28.38
8319,29.88
8331,31.1
8343,32.16
8355,33.12
8367,34.0
8378,34.76
8389,35.36
8401,35.74
8413,35.85
8425,35.66
8437,35.18
8449,34.43
8461,33.5
8473,32.44
8485,31.23
8497,29.79
8509,27.95
8521,25.58
8533,22.61
8545,19.2
8557,15.57
8568,12.07
8579,8.96
8591,6.39
8603,4.31
8615,2.55
8627,0.81
8639,-1.19
8651,-3.67
8663,-6.74
8675,-10.36
8687,-14.36
8699,-18.46
8711,-22.33
8723,-25.76
8735,-28.67
8747,-31.19
8758,-33.69
8769,-36.54
8781,-40.01
8793,-44.04
8805,-48.2
8817,-51.69
8829,-53.56
8841,-52.97
8853,-49.46
8865,-43.16
8877,-34.69
8889,-25.08
8901,-15.37
8913,-6.36
8925,1.59
8937,8.51
8948,14.63
8959,20.14
8971,25.03
8983,29.19
8995,32.43
9007,34.7
9019,36.09
9031,36.8
9043,36.98
9055,36.71
9067,36.02
9079,34.96
9091,33.72
9103,32.58
9115,31.85
9127,31.66
9138,31.91
9149,32.31
9161,32.46
9173,32.06
9185,31.04
9197,29.52
9209,27.71
9221,25.78
9233,23.76
9245,21.49
9257,18.82
9269,15.65
9281,12.17
9293,8.68
9305,5.58
9317,3.05
9328,1.08
9339,-0.64
9351,-2.44
9363,-4.6
9375,-7.12
9387,-9.83
9399,-12.41
9411,-14.59
9423,-16.25
9435,-17.45
9447,-18.44
9459,-19.55
9471,-21.21
9483,-23.81
9495,-27.55
9507,-32.32
9518,-37.54
9529,-42.23
9541,-45.23
9553,-45.57
9565,-42.77
9577,-37.01
9589,-29.03
9601,-19.84
9613,-10.44
9625,-1.62
9637,6.16
9649,12.72
9661,18.05
9673,22.24
9685,25.42
9697,27.66
9708,29.08
9719,29.75
9731,29.76
9743,29.26
9755,28.41
9767,27.42
9779,26.46
9791,25.66
9803,25.08
9815,24.77
9827,24.75
9839,25.02
9851,25.48
9863,25.99
9875,26.33
9887,26.31
9898,25.76
9909,24.65
9921,23.07
9933,21.19
9945,19.22
9957,17.34
9969,15.65
9981,14.14
9993,12.71
10005,11.24
10017,9.58
10029,7.65
10041,5.47
10053,3.1
10065,0.68
10077,-1.68
10088,-3.9
10099,-5.92
10111,-7.76
10123,-9.48
10135,-11.16
10147,-12.93
10159,-14.9
10171,-17.19
10183,-19.85
10195,-22.82
10207,-25.85
10219,-28.49
10231,-30.18
10243,-30.33
10255,-28.57
10267,-24.8
10278,-19.27
10289,-12.52
10301,-5.17
10313,2.16
10325,9.04
10337,15.18
10349,20.4
10361,24.58
10373,27.56
10385,29.2
10397,29.5
10409,28.64
10421,26.97
10433,25.0
10445,23.2
10457,21.91
10468,21.19
10479,20.85
10491,20.55
10503,19.98
10515,18.93
10527,17.42
10539,15.61
10551,13.8
10563,12.21
10575,10.99
10587,10.11
10599,9.38
10611,8.57
10623,7.47
10635,6.01
10647,4.22
10658,2.28
10669,0.38
10681,-1.35
10693,-2.9
10705,-4.34
10717,-5.82
10729,-7.45
10741,-9.24
10753,-11.08
10765,-12.79
10777,-14.23
10789,-15.34
10801,-16.24
10813,-17.19
10825,-18.47
10837,-20.32
10848,-22.8
10859,-25.77
10871,-28.86
10883,-31.58
10895,-33.34
10907,-33.62
10919,-32.05
10931,-28.54
10943,-23.26
10955,-16.65
10967,-9.25
10979,-1.62
10991,5.81
11003,12.71
11015,18.88
11027,24.11
11038,28.24
11049,31.1
11061,32.55
11073,32.63
11085,31.49
11097,29.47
11109,27.02
11121,24.6
11133,22.55
11145,21.08
11157,20.21
11169,19.79
11181,19.64
11193,19.54
11205,19.34
11217,18.99
11228,18.45
11239,17.75
11251,16.91
11263,15.95
11275,14.84
11287,13.56
11299,12.11
11311,10.5
11323,8.78
11335,6.98
11347,5.1
11359,3.13
11371,1.0
11383,-1.32
11395,-3.82
11407,-6.49
11418,-9.23
11429,-11.87
11441,-14.26
11453,-16.22
11465,-17.67
11477,-18.68
11489,-19.48
11501,-20.4
11513,-21.76
11525,-23.78
11537,-26.39
11549,-29.31
11561,-32.04
11573,-33.96
11585,-34.48
11597,-33.14
11608,-29.81
11619,-24.66
11631,-18.2
11643,-11.08
11655,-3.96
11667,2.65
11679,8.56
11691,13.72
11703,18.25
11715,22.19
11727,25.48
11739,27.98
11751,29.53
11763,30.07
11775,29.65
11787,28.48
11798,26.85
11809,25.05
11821,23.35
11833,21.86
11845,20.55
11857,19.36
11869,18.22
11881,17.13
11893,16.12
11905,15.22
11917,14.39
11929,13.53
11941,12.55
11953,11.37
11965,10.03
11977,8.64
11988,7.31
11999,6.09
12011,4.94
12023,3.69
12035,2.25
12047,0.51
12059,-1.51
12071,-3.7
12083,-5.9
12095,-7.98
12107,-9.88
12119,-11.61
12131,-13.29
12143,-14.96
12155,-16.69
12167,-18.43
12178,-20.2
12189,-22.02
12201,-23.99
12213,-26.2
12225,-28.63
12237,-31.12
12249,-33.34
12261,-34.91
12273,-35.42
12285,-34.54
12297,-32.11
12309,-28.1
12321,-22.65
12333,-16.08
12345,-8.88
12357,-1.61
12368,5.17
12379,11.05
12391,15.78
12403,19.28
12415,21.63
12427,22.94
12439,23.36
12451,23.07
12463,22.28
12475,21.18
12487,19.98
12499,18.79
12511,17.7
12523,16.73
12535,15.9
12547,15.22
12558,14.65
12569,14.18
12581,13.79
12593,13.47
12605,13.24
12617,13.09
12629,12.97
12641,12.78
12653,12.35
12665,11.57
12677,10.39
12689,8.84
12701,7.02
12713,5.05
12725,3.04
12737,1.09
12748,-0.71
12759,-2.23
12771,-3.45
12783,-4.4
12795,-5.24
12807,-6.21
12819,-7.53
12831,-9.28
12843,-11.4
12855,-13.65
12867,-15.72
12879,-17.39
12891,-18.62
12903,-19.61
12915,-20.73
12927,-22.42
12938,-24.88
12949,-28.0
12961,-31.25
12973,-33.88
12985,-35.08
12997,-34.3
13009,-31.36
13021,-26.47
13033,-20.12
13045,-12.94
13057,-5.51
13069,1.64
13081,8.13
13093,13.68
13105,18.12
13117,21.42
13128,23.57
13139,24.63
13151,24.68
13163,23.79
13175,22.14
13187,19.97
13199,17.65
13211,15.57
13223,14.03
13235,13.2
13247,13.03
13259,13.31
13271,13.76
13283,14.13
13295,14.31
13307,14.3
13318,14.21
13329,14.11
13341,14.0
13353,13.78
13365,13.27
13377,12.29
13389,10.8
13401,8.86
13413,6.69
13425,4.51
13437,2.5
13449,0.7
13461,-0.99
13473,-2.74
13485,-4.7
13497,-6.98
13508,-9.62
13519,-12.48
13531,-15.38
13543,-18.08
13555,-20.36
13567,-22.12
13579,-23.37
13591,-24.29
13603,-25.12
13615,-26.09
13627,-27.3
13639,-28.68
13651,-29.97
13663,-30.79
13675,-30.68
13687,-29.24
13698,-26.22
13709,-21.63
13721,-15.72
13733,-8.96
13745,-1.88
13757,4.98
13769,11.22
13781,16.52
13793,20.64
13805,23.37
13817,24.57
13829,24.26
13841,22.7
13853,20.4
13865,18.02
13877,16.2
13888,15.29
13899,15.32
13911,15.93
13923,16.59
13935,16.78
13947,16.2
13959,14.85
13971,13.05
13983,11.29
13995,9.97
14007,9.35
14019,9.34
14031,9.74
14043,10.18
14055,10.36
14067,10.06
14078,9.22
14089,7.85
14101,6.05
14113,3.93
14125,1.62
14137,-0.76
14149,-3.15
14161,-5.54
14173,-8.0
14185,-10.6
14197,-13.3
14209,-15.99
14221,-18.45
14233,-20.52
14245,-22.07
14257,-23.11
14268,-23.75
14279,-24.2
14291,-24.71
14303,-25.58
14315,-27.01
14327,-29.08
14339,-31.65
14351,-34.3
14363,-36.37
14375,-37.22
14387,-36.31
14399,-33.47
14411,-28.88
14423,-23.0
14435,-16.4
14447,-9.59
14458,-2.94
14469,3.38
14481,9.23
14493,14.53
14505,19.14
14517,22.92
14529,25.74
14541,27.57
14553,28.47
14565,28.62
14577,28.2
14589,27.39
14601,26.34
14613,25.1
14625,23.73
14637,22.3
14648,20.89
14659,19.58
14671,18.48
14683,17.64
14695,17.02
14707,16.57
14719,16.12
14731,15.56
14743,14.79
14755,13.82
14767,12.69
14779,11.48
14791,10.24
14803,8.94
14815,7.49
14827,5.82
14838,3.91
14849,1.85
14861,-0.2
14873,-2.12
14885,-3.89
14897,-5.61
14909,-7.45
14921,-9.5
14933,-11.76
14945,-14.04
14957,-16.12
14969,-17.83
14981,-19.2
14993,-20.41
15005,-21.72
15017,-23.33
15028,-25.31
15039,-27.61
15051,-30.1
15063,-32.54
15075,-34.66
15087,-36.08
15099,-36.33
15111,-34.99
15123,-31.79
15135,-26.77
15147,-20.26
15159,-12.87
15171,-5.22
15183,2.16
15195,8.91
15207,14.9
15218,20.01
15229,24.18
15241,27.29
15253,29.21
15265,29.95
15277,29.64
15289,28.6
15301,27.23
15313,25.85
15325,24.67
15337,23.68
15349,22.79
15361,21.85
15373,20.83
15385,19.77
15397,18.81
15408,18.04
15419,17.44
15431,16.87
15443,16.14
15455,15.1
15467,13.73
15479,12.13
15491,10.46
15503,8.87
15515,7.38
15527,5.92
15539,4.36
15551,2.6
15563,0.65
15575,-1.36
15587,-3.27
15598,-4.95
15609,-6.41
15621,-7.76
15633,-9.2
15645,-10.89
15657,-12.86
15669,-14.99
15681,-17.09
15693,-18.92
15705,-20.39
15717,-21.51
15729,-22.44
15741,-23.39
15753,-24.55
15765,-26.06
15777,-27.99
15788,-30.31
15799,-32.89
15811,-35.45
15823,-37.61
15835,-38.85
15847,-38.65
15859,-36.61
15871,-32.64
15883,-26.95
15895,-20.06
15907,-12.55
15919,-4.95
15931,2.39
15943,9.22
15955,15.39
15967,20.7
15978,24.87
15989,27.68
16001,29.01
16013,28.95
16025,27.81
16037,26.03
16049,24.05
16061,22.21
16073,20.71
16085,19.58
16097,18.78
16109,18.26
16121,17.96
16133,17.87
16145,17.97
16157,18.16
16168,18.33
16179,18.31
16191,17.98
16203,17.31
16215,16.35
16227,15.16
16239,13.81
16251,12.28
16263,10.55
16275,8.61
16287,6.52
16299,4.41
16311,2.4
16323,0.56
16335,-1.12
16347,-2.68
16358,-4.23
16369,-5.84
16381,-7.54
16393,-9.31
16405,-11.12
16417,-12.87
16429,-14.44
16441,-15.7
16453,-16.62
16465,-17.24
16477,-17.76
16489,-18.46
16501,-19.59
16513,-21.31
16525,-23.56
16537,-26.15
16548,-28.74
16559,-30.86
16571,-32.04
16583,-31.82
16595,-29.92
16607,-26.27
16619,-21.11
16631,-14.88
16643,-8.11
16655,-1.28
16667,5.3
16679,11.44
16691,16.95
16703,21.6
16715,25.05
16727,26.97
16738,27.21
16749,25.91
16761,23.53
16773,20.69
16785,18.05
16797,16.06
16809,14.87
16821,14.39
16833,14.33
16845,14.39
16857,14.38
16869,14.26
16881,14.08
16893,13.94
16905,13.85
16917,13.73
16928,13.43
16939,12.79
16951,11.83
16963,10.68
16975,9.56
16987,8.65
16999,7.9
17011,7.12
17023,6.0
17035,4.35
17047,2.21
17059,-0.2
17071,-2.53
17083,-4.52
17095,-6.11
17107,-7.42
17118,-8.69
17129,-10.05
17141,-11.57
17153,-13.16
17165,-14.74
17177,-16.26
17189,-17.68
17201,-18.98
17213,-20.17
17225,-21.23
17237,-22.28
17249,-23.52
17261,-25.24
17273,-27.59
17285,-30.5
17297,-33.53
17308,-35.93
17319,-36.94
17331,-35.96
17343,-32.8
17355,-27.67
17367,-21.12
17379,-13.8
17391,-6.32
17403,0.9
17415,7.62
17427,13.73
17439,19.15
17451,23.78
17463,27.46
17475,30.04
17487,31.41
17498,31.59
17509,30.72
17521,29.11
17533,27.12
17545,25.12
17557,23.35
17569,21.9
17581,20.8
17593,19.94
17605,19.21
17617,18.52
17629,17.84
17641,17.13
17653,16.42
17665,15.65
17677,14.73
17688,13.61
17699,12.22
17711,10.6
17723,8.83
17735,7.04
17747,5.31
17759,3.7
17771,2.15
17783,0.56
17795,-1.13
17807,-2.98
17819,-4.93
17831,-6.85
17843,-8.61
17855,-10.07
17867,-11.17
17878,-11.95
17889,-12.55
17901,-13.16
17913,-13.98
17925,-15.14
17937,-16.65
17949,-18.36
17961,-20.08
17973,-21.6
17985,-22.85
17997,-23.98
18009,-25.24
18021,-26.96
18033,-29.34
18045,-32.27
18057,-35.34
18068,-37.86
18079,-39.1
18091,-38.47
18103,-35.68
18115,-30.79
18127,-24.24
18139,-16.68
18151,-8.83
18163,-1.29
18175,5.56
18187,11.55
18199,16.7
18211,21.08
18223,24.7
18235,27.48
18247,29.29
18258,30.05
18269,29.82
18281,28.8
18293,27.27
18305,25.52
18317,23.77
18329,22.17
18341,20.82
18353,19.73
18365,18.91
18377,18.28
18389,17.72
18401,17.16
18413,16.52
18425,15.74
18437,14.83
18448,13.78
18459,12.55
18471,11.17
18483,9.69
18495,8.2
18507,6.88
18519,5.81
18531,4.97
18543,4.19
18555,3.19
18567,1.76
18579,-0.15
18591,-2.42
18603,-4.81
18615,-7.07
18627,-9.08
18638,-10.89
18649,-12.59
18661,-14.31
18673,-16.07
18685,-17.8
18697,-19.4
18709,-20.78
18721,-21.96
18733,-23.03
18745,-24.11
18757,-25.23
18769,-26.4
18781,-27.62
18793,-28.89
18805,-30.29
18817,-31.85
18828,-33.43
18839,-34.72
18851,-35.24
18863,-34.4
18875,-31.8
18887,-27.34
18899,-21.3
18911,-14.25
18923,-6.87
18935,0.24
18947,6.67
18959,12.18
18971,16.72
18983,20.33
18995,23.05
19007,25.0
19018,26.25
19029,26.94
19041,27.21
19053,27.21
19065,27.05
19077,26.83
19089,26.62
19101,26.44
19113,26.28
19125,26.13
19137,25.91
19149,25.56
19161,24.99
19173,24.11
19185,22.88
19197,21.29
19208,19.37
19219,17.26
19231,15.1
19243,13.04
19255,11.16
19267,9.44
19279,7.78
19291,5.98
19303,3.88
19315,1.44
19327,-1.15
19339,-3.6
19351,-5.6
19363,-7.01
19375,-7.92
19387,-8.62
19398,-9.43
19409,-10.56
19421,-11.99
19433,-13.56
19445,-15.01
19457,-16.2
19469,-17.14
19481,-17.98
19493,-18.9
19505,-20.09
19517,-21.58
19529,-23.29
19541,-25.0
19553,-26.45
19565,-27.29
19577,-27.2
19588,-25.88
19599,-23.19
19611,-19.15
19623,-13.95
19635,-7.93
19647,-1.52
19659,4.88
19671,10.88
19683,16.17
19695,20.47
19707,23.53
19719,25.19
19731,25.42
19743,24.36
19755,22.33
19767,19.82
19778,17.34
19789,15.28
19801,13.83
19813,12.95
19825,12.47
19837,12.19
19849,11.98
19861,11.79
19873,11.65
19885,11.58
19897,11.53
19909,11.45
19921,11.23
19933,10.88
19945,10.4
19957,9.85
19968,9.21
19979,8.41
19991,7.33
20003,5.87
20015,4.05
20027,1.99
20039,-0.13
20051,-2.15
20063,-3.99
20075,-5.66
20087,-7.23
20099,-8.8
20111,-10.39
20123,-12.01
20135,-13.61
20147,-15.18
20158,-16.67
20169,-18.05
20181,-19.28
20193,-20.36
20205,-21.36
20217,-22.44
20229,-23.84
20241,-25.76
20253,-28.3
20265,-31.3
20277,-34.31
20289,-36.67
20301,-37.7
20313,-36.85
20325,-33.95
20337,-29.17
20348,-23.0
20359,-16.04
20371,-8.85
20383,-1.82
20395,4.78
20407,10.77
20419,15.97
20431,20.18
20443,23.22
20455,24.99
20467,25.53
20479,25.04
20491,23.86
20503,22.32
20515,20.76
20527,19.4
20538,18.35
20549,17.63
20561,17.23
20573,17.1
20585,17.19
20597,17.41
20609,17.6
20621,17.59
20633,17.22
20645,16.48
20657,15.48
20669,14.41
20681,13.47
20693,12.72
20705,12.04
20717,11.2
20728,9.97
20739,8.24
20751,6.08
20763,3.73
20775,1.43
20787,-0.62
20799,-2.35
20811,-3.86
20823,-5.3
20835,-6.79
20847,-8.41
20859,-10.11
20871,-11.78
20883,-13.36
20895,-14.83
20907,-16.23
20918,-17.64
20929,-19.08
20941,-20.53
20953,-21.99
20965,-23.53
20977,-25.26
20989,-27.3
