seconds,BVP
1,20.03
12,17.95
24,15.78
36,13.95
48,12.73
60,12.19
72,12.21
84,12.59
96,13.11
108,13.62
120,14.07
132,14.46
144,14.89
156,15.42
168,16.05
180,16.64
191,16.93
202,16.65
214,15.62
226,13.8
238,11.37
250,8.66
262,6.05
274,3.81
286,2.05
298,0.72
310,-0.43
322,-1.66
334,-3.15
346,-4.98
358,-7.04
370,-9.14
381,-11.09
392,-12.81
404,-14.32
416,-15.73
428,-17.22
440,-18.93
452,-21.06
464,-23.73
476,-27.01
488,-30.8
500,-34.66
512,-37.87
524,-39.5
536,-38.71
548,-35.06
560,-28.71
571,-20.41
582,-11.3
594,-2.51
606,5.07
618,11.01
630,15.24
642,17.92
654,19.3
666,19.54
678,18.81
690,17.34
702,15.47
714,13.67
726,12.45
738,12.16
750,12.92
761,14.54
772,16.64
784,18.8
796,20.69
808,22.11
820,23.02
832,23.45
844,23.46
856,23.09
868,22.36
880,21.23
892,19.68
904,17.65
916,15.19
928,12.4
940,9.46
951,6.56
962,3.86
974,1.43
986,-0.77
998,-2.84
1010,-4.89
1022,-7.01
1034,-9.24
1046,-11.49
1058,-13.65
1070,-15.57
1082,-17.16
1094,-18.41
1106,-19.42
1118,-20.33
1130,-21.35
1141,-22.67
1152,-24.46
1164,-26.85
1176,-29.73
1188,-32.7
1200,-34.99
1212,-35.65
1224,-33.81
1236,-29.05
1248,-21.61
1260,-12.38
1272,-2.55
1284,6.77
1296,14.84
1308,21.37
1320,26.36
1331,29.9
1342,32.04
1354,32.8
1366,32.29
1378,30.8
1390,28.78
1402,26.75
1414,25.12
1426,24.13
1438,23.75
1450,23.83
1462,24.14
1474,24.52
1486,24.92
1498,25.37
1510,25.91
1521,26.59
1532,27.32
1544,27.92
1556,28.14
1568,27.74
1580,26.63
1592,24.91
1604,22.84
1616,20.73
1628,18.75
1640,16.84
1652,14.82
1664,12.46
1676,9.68
1688,6.62
1700,3.6
1711,0.96
1722,-1.08
1734,-2.56
1746,-3.7
1758,-4.86
1770,-6.35
1782,-8.31
1794,-10.74
1806,-13.45
1818,-16.22
1830,-18.83
1842,-21.19
1854,-23.31
1866,-25.34
1878,-27.5
1890,-30.05
1901,-33.2
1912,-37.01
1924,-41.33
1936,-45.7
1948,-49.32
1960,-51.18
1972,-50.34
1984,-46.26
1996,-39.03
2008,-29.45
2020,-18.78
2032,-8.38
2044,0.7
2056,7.95
2068,13.36
2080,17.21
2091,19.79
2102,21.28
2114,21.75
2126,21.28
2138,20.14
2150,18.72
2162,17.51
2174,16.84
2186,16.83
2198,17.35
2210,18.14
2222,18.98
2234,19.77
2246,20.57
2258,21.5
2270,22.58
2281,23.72
2292,24.7
2304,25.25
2316,25.18
2328,24.44
2340,23.09
2352,21.3
2364,19.27
2376,17.19
2388,15.23
2400,13.52
2412,12.1
2424,10.92
2436,9.83
2448,8.65
2460,7.23
2471,5.52
2482,3.6
2494,1.64
2506,-0.2
2518,-1.84
2530,-3.37
2542,-5.01
2554,-7.03
2566,-9.57
2578,-12.54
2590,-15.67
2602,-18.59
2614,-21.02
2626,-22.94
2638,-24.61
2650,-26.45
2661,-28.9
2672,-32.24
2684,-36.5
2696,-41.38
2708,-46.26
2720,-50.29
2732,-52.48
2744,-51.95
2756,-48.21
2768,-41.32
2780,-31.9
2792,-21.04
2804,-9.93
2816,0.34
2828,9.05
2840,15.81
2851,20.59
2862,23.54
2874,24.93
2886,25.09
2898,24.33
2910,22.96
2922,21.32
2934,19.74
2946,18.55
2958,17.97
2970,18.06
2982,18.7
2994,19.62
3006,20.56
3018,21.31
3030,21.85
3041,22.23
3052,22.49
3064,22.59
3076,22.39
3088,21.74
3100,20.58
3112,19.04
3124,17.35
3136,15.8
3148,14.52
3160,13.49
3172,12.51
3184,11.33
3196,9.78
3208,7.85
3220,5.68
3231,3.5
3242,1.51
3254,-0.19
3266,-1.64
3278,-2.98
3290,-4.42
3302,-6.14
3314,-8.22
3326,-10.62
3338,-13.18
3350,-15.65
3362,-17.81
3374,-19.58
3386,-21.03
3398,-22.41
3410,-24.05
3421,-26.3
3432,-29.37
3444,-33.2
3456,-37.4
3468,-41.22
3480,-43.67
3492,-43.84
3504,-41.11
3516,-35.48
3528,-27.55
3540,-18.37
3552,-9.1
3564,-0.71
3576,6.27
3588,11.66
3600,15.57
3611,18.17
3622,19.59
3634,19.98
3646,19.5
3658,18.41
3670,17.06
3682,15.82
3694,15.01
3706,14.82
3718,15.28
3730,16.24
3742,17.48
3754,18.75
3766,19.86
3778,20.67
3790,21.11
3801,21.17
3812,20.82
3824,20.06
3836,18.91
3848,17.42
3860,15.67
3872,13.79
3884,11.89
3896,10.07
3908,8.4
3920,6.92
3932,5.61
3944,4.47
3956,3.43
3968,2.42
3980,1.32
3991,0.01
4002,-1.61
4014,-3.53
4026,-5.67
4038,-7.87
4050,-9.93
4062,-11.71
4074,-13.22
4086,-14.61
4098,-16.11
4110,-17.95
4122,-20.27
4134,-23.07
4146,-26.17
4158,-29.25
4170,-31.82
4181,-33.31
4192,-33.08
4204,-30.65
4216,-25.85
4228,-18.94
4240,-10.63
4252,-1.9
4264,6.24
4276,13.03
4288,18.07
4300,21.3
4312,22.9
4324,23.14
4336,22.29
4348,20.63
4360,18.53
4371,16.39
4382,14.63
4394,13.53
4406,13.18
4418,13.41
4430,13.89
4442,14.27
4454,14.35
4466,14.1
4478,13.61
4490,13.02
4502,12.34
4514,11.46
4526,10.19
4538,8.38
4550,6.08
4561,3.48
4572,0.9
4584,-1.38
4596,-3.25
4608,-4.82
4620,-6.31
4632,-7.95
4644,-9.86
4656,-12.0
4668,-14.24
4680,-16.4
4692,-18.41
4704,-20.28
4716,-22.1
4728,-23.99
4740,-26.05
4751,-28.36
4762,-30.97
4774,-33.88
4786,-36.89
4798,-39.58
4810,-41.29
4822,-41.25
4834,-38.86
4846,-33.92
4858,-26.74
4870,-18.12
4882,-9.08
4894,-0.58
4906,6.7
4918,12.41
4930,16.5
4941,19.04
4952,20.22
4964,20.2
4976,19.2
4988,17.51
5000,15.46
5012,13.4
5024,11.68
5036,10.54
5048,10.08
5060,10.24
5072,10.9
5084,11.86
5096,12.97
5108,14.13
5120,15.25
5131,16.17
5142,16.71
5154,16.63
5166,15.74
5178,14.03
5190,11.68
5202,8.98
5214,6.26
5226,3.72
5238,1.33
5250,-1.02
5262,-3.54
5274,-6.31
5286,-9.28
5298,-12.3
5310,-15.15
5321,-17.73
5332,-20.07
5344,-22.38
5356,-24.96
5368,-28.17
5380,-32.21
5392,-37.05
5404,-42.3
5416,-47.25
5428,-50.99
5440,-52.63
5452,-51.57
5464,-47.66
5476,-41.22
5488,-32.98
5500,-23.89
5511,-14.87
5522,-6.68
5534,0.13
5546,5.28
5558,8.69
5570,10.5
5582,10.95
5594,10.39
5606,9.22
5618,7.8
5630,6.41
5642,5.23
5654,4.31
5666,3.67
5678,3.27
5690,3.15
5701,3.4
5712,4.11
5724,5.31
5736,6.93
5748,8.74
5760,10.5
5772,11.97
5784,13.02
5796,13.64
5808,13.93
5820,14.02
5832,14.0
5844,13.88
5856,13.54
5868,12.8
5880,11.51
5891,9.61
5902,7.21
5914,4.58
5926,2.04
5938,-0.13
5950,-1.85
5962,-3.23
5974,-4.54
5986,-6.15
5998,-8.36
6010,-11.39
6022,-15.22
6034,-19.57
6046,-23.8
6058,-27.03
6070,-28.3
6081,-26.89
6092,-22.59
6104,-15.83
6116,-7.51
6128,1.25
6140,9.47
6152,16.53
6164,22.17
6176,26.42
6188,29.39
6200,31.21
6212,31.98
6224,31.88
6236,31.16
6248,30.15
6260,29.15
6271,28.36
6282,27.85
6294,27.55
6306,27.37
6318,27.22
6330,27.09
6342,27.08
6354,27.24
6366,27.61
6378,28.09
6390,28.49
6402,28.54
6414,28.03
6426,26.82
6438,24.94
6450,22.55
6461,19.89
6472,17.22
6484,14.75
6496,12.53
6508,10.52
6520,8.55
6532,6.44
6544,4.07
6556,1.43
6568,-1.36
6580,-4.14
6592,-6.69
6604,-8.89
6616,-10.7
6628,-12.18
6640,-13.54
6651,-15.06
6662,-17.06
6674,-19.85
6686,-23.49
6698,-27.7
6710,-31.78
6722,-34.73
6734,-35.51
6746,-33.39
6758,-28.28
6770,-20.73
6782,-11.82
6794,-2.74
6806,5.52
6818,12.41
6830,17.76
6841,21.62
6852,24.11
6864,25.32
6876,25.34
6888,24.38
6900,22.81
6912,21.08
6924,19.58
6936,18.53
6948,17.94
6960,17.65
6972,17.52
6984,17.43
6996,17.34
7008,17.21
7020,16.96
7031,16.5
7042,15.77
7054,14.75
7066,13.54
7078,12.24
7090,10.91
7102,9.53
7114,8.07
7126,6.5
7138,4.87
7150,3.32
7162,1.94
7174,0.72
7186,-0.48
7198,-1.88
7210,-3.61
7221,-5.64
7232,-7.74
7244,-9.58
7256,-10.91
7268,-11.68
7280,-12.12
7292,-12.6
7304,-13.53
7316,-15.18
7328,-17.63
7340,-20.76
7352,-24.23
7364,-27.53
7376,-30.0
7388,-30.98
7400,-29.92
7411,-26.61
7422,-21.29
7434,-14.58
7446,-7.35
7458,-0.43
7470,5.56
7482,10.3
7494,13.7
7506,15.83
7518,16.74
7530,16.5
7542,15.24
7554,13.25
7566,10.93
7578,8.79
7590,7.26
7601,6.56
7612,6.68
7624,7.37
7636,8.32
7648,9.25
7660,10.03
7672,10.7
7684,11.37
7696,12.1
7708,12.84
7720,13.4
7732,13.54
7744,13.06
7756,11.91
7768,10.23
7780,8.3
7791,6.39
7802,4.69
7814,3.2
7826,1.77
7838,0.17
7850,-1.73
7862,-3.9
7874,-6.16
7886,-8.24
7898,-9.94
7910,-11.22
7922,-12.22
7934,-13.21
7946,-14.48
7958,-16.28
7970,-18.77
7981,-21.94
7992,-25.59
8004,-29.2
8016,-32.04
8028,-33.27
8040,-32.2
8052,-28.59
8064,-22.71
8076,-15.34
8088,-7.44
8100,0.12
8112,6.73
8124,12.11
8136,16.14
8148,18.8
8160,20.07
8171,20.03
8182,18.93
8194,17.16
8206,15.24
8218,13.62
8230,12.58
8242,12.15
8254,12.17
8266,12.42
8278,12.73
8290,13.03
8302,13.35
8314,13.79
8326,14.38
8338,15.05
8350,15.61
8361,15.81
8372,15.47
8384,14.48
8396,12.95
8408,11.06
8420,9.07
8432,7.13
8444,5.32
8456,3.58
8468,1.78
8480,-0.19
8492,-2.4
8504,-4.79
8516,-7.23
8528,-9.54
8540,-11.56
8551,-13.23
8562,-14.62
8574,-15.91
8586,-17.38
8598,-19.31
8610,-21.91
8622,-25.25
8634,-29.21
8646,-33.37
8658,-37.04
8670,-39.39
8682,-39.59
8694,-37.13
8706,-31.96
8718,-24.6
8730,-16.0
8741,-7.24
8752,0.71
8764,7.26
8776,12.21
8788,15.66
8800,17.82
8812,18.92
8824,19.16
8836,18.73
8848,17.87
8860,16.89
8872,16.08
8884,15.64
8896,15.6
8908,15.8
8920,16.02
8931,16.04
8942,15.83
8954,15.49
8966,15.22
8978,15.23
8990,15.56
9002,16.06
9014,16.46
9026,16.46
9038,15.83
9050,14.57
9062,12.88
9074,11.07
9086,9.44
9098,8.16
9110,7.21
9121,6.41
9132,5.54
9144,4.42
9156,2.95
9168,1.12
9180,-1.01
9192,-3.33
9204,-5.72
9216,-8.05
9228,-10.25
9240,-12.28
9252,-14.16
9264,-15.97
9276,-17.82
9288,-19.89
9300,-22.33
9311,-25.26
9322,-28.64
9334,-32.17
9346,-35.2
9358,-36.91
9370,-36.54
9382,-33.67
9394,-28.42
9406,-21.46
9418,-13.77
9430,-6.33
9442,0.18
9454,5.4
9466,9.29
9478,11.98
9490,13.61
9501,14.36
9512,14.39
9524,13.91
9536,13.15
9548,12.32
9560,11.6
9572,11.07
9584,10.8
9596,10.78
9608,11.0
9620,11.43
9632,12.02
9644,12.74
9656,13.48
9668,14.17
9680,14.67
9691,14.91
9702,14.78
9714,14.26
9726,13.37
9738,12.17
9750,10.81
9762,9.41
9774,8.1
9786,6.88
9798,5.73
9810,4.55
9822,3.28
9834,1.91
9846,0.45
9858,-1.02
9870,-2.46
9881,-3.84
9892,-5.14
9904,-6.39
9916,-7.6
9928,-8.76
9940,-9.87
9952,-10.94
9964,-12.04
9976,-13.23
9988,-14.61
10000,-16.21
10012,-18.06
10024,-20.16
10036,-22.5
10048,-25.08
10060,-27.85
10071,-30.6
10082,-32.92
10094,-34.21
10106,-33.82
10118,-31.3
10130,-26.62
10142,-20.18
10154,-12.78
10166,-5.31
10178,1.47
10190,7.07
10202,11.34
10214,14.3
10226,16.1
10238,16.92
10250,16.92
10261,16.28
10272,15.17
10284,13.79
10296,12.39
10308,11.21
10320,10.47
10332,10.3
10344,10.71
10356,11.57
10368,12.66
10380,13.79
10392,14.77
10404,15.53
10416,16.02
10428,16.21
10440,16.09
10451,15.6
10462,14.75
10474,13.59
10486,12.24
10498,10.79
10510,9.36
10522,8.0
10534,6.74
10546,5.58
10558,4.48
10570,3.38
10582,2.14
10594,0.63
10606,-1.26
10618,-3.51
10630,-6.01
10641,-8.51
10652,-10.79
10664,-12.71
10676,-14.29
10688,-15.69
10700,-17.14
10712,-18.78
10724,-20.73
10736,-22.99
10748,-25.57
10760,-28.38
10772,-31.22
10784,-33.63
10796,-34.94
10808,-34.4
10820,-31.55
10831,-26.4
10842,-19.54
10854,-11.96
10866,-4.68
10878,1.61
10890,6.62
10902,10.44
10914,13.27
10926,15.26
10938,16.4
10950,16.64
10962,16.06
10974,14.92
10986,13.64
10998,12.63
11010,12.18
11021,12.31
11032,12.87
11044,13.6
11056,14.34
11068,15.02
11080,15.64
11092,16.23
11104,16.77
11116,17.14
11128,17.19
11140,16.82
11152,16.05
11164,14.97
11176,13.75
11188,12.53
11200,11.34
11211,10.17
11222,8.95
11234,7.65
11246,6.29
11258,4.93
11270,3.63
11282,2.44
11294,1.29
11306,0.06
11318,-1.38
11330,-3.16
11342,-5.28
11354,-7.64
11366,-10.06
11378,-12.33
11390,-14.28
11401,-15.9
11412,-17.24
11424,-18.47
11436,-19.74
11448,-21.26
11460,-23.22
11472,-25.74
11484,-28.85
11496,-32.28
11508,-35.48
11520,-37.64
11532,-37.95
11544,-35.84
11556,-31.27
11568,-24.73
11580,-17.1
11591,-9.33
11602,-2.17
11614,3.94
11626,8.85
11638,12.56
11650,15.12
11662,16.56
11674,16.97
11686,16.54
11698,15.53
11710,14.31
11722,13.15
11734,12.28
11746,11.79
11758,11.69
11770,11.96
11781,12.53
11792,13.32
11804,14.23
11816,15.15
11828,15.98
11840,16.63
11852,17.02
11864,17.08
11876,16.74
11888,15.97
11900,14.78
11912,13.3
11924,11.74
11936,10.33
11948,9.19
11960,8.29
11971,7.44
11982,6.37
11994,4.89
12006,2.99
12018,0.82
12030,-1.36
12042,-3.32
12054,-5.04
12066,-6.62
12078,-8.29
12090,-10.22
12102,-12.44
12114,-14.81
12126,-17.11
12138,-19.13
12150,-20.82
12161,-22.29
12172,-23.79
12184,-25.62
12196,-28.01
12208,-31.04
12220,-34.55
12232,-38.03
12244,-40.76
12256,-41.89
12268,-40.71
12280,-36.87
12292,-30.59
12304,-22.58
12316,-13.85
12328,-5.39
12340,2.06
12351,8.17
12362,12.92
12374,16.5
12386,19.07
12398,20.75
12410,21.63
12422,21.82
12434,21.53
12446,21.03
12458,20.58
12470,20.34
12482,20.34
12494,20.48
12506,20.62
12518,20.62
12530,20.41
12541,20.01
12552,19.47
12564,18.87
12576,18.24
12588,17.54
12600,16.69
12612,15.57
12624,14.12
12636,12.34
12648,10.34
12660,8.27
12672,6.31
12684,4.58
12696,3.09
12708,1.78
12720,0.55
12731,-0.71
12742,-2.07
12754,-3.55
12766,-5.14
12778,-6.85
12790,-8.66
12802,-10.59
12814,-12.61
12826,-14.67
12838,-16.69
12850,-18.6
12862,-20.36
12874,-22.05
12886,-23.82
12898,-25.87
12910,-28.31
12921,-30.99
12932,-33.42
12944,-34.88
12956,-34.58
12968,-32.04
12980,-27.19
12992,-20.47
13004,-12.64
13016,-4.56
13028,3.04
13040,9.68
13052,15.11
13064,19.27
13076,22.18
13088,23.9
13100,24.56
13111,24.35
13122,23.51
13134,22.26
13146,20.8
13158,19.23
13170,17.7
13182,16.31
13194,15.25
13206,14.66
13218,14.61
13230,15.01
13242,15.62
13254,16.15
13266,16.33
13278,16.07
13290,15.41
13301,14.49
13312,13.44
13324,12.31
13336,11.09
13348,9.75
13360,8.3
13372,6.79
13384,5.28
13396,3.8
13408,2.33
13420,0.85
13432,-0.67
13444,-2.25
13456,-3.91
13468,-5.72
13480,-7.73
13491,-9.96
13502,-12.39
13514,-14.89
13526,-17.28
13538,-19.41
13550,-21.22
13562,-22.74
13574,-24.17
13586,-25.77
13598,-27.86
13610,-30.58
13622,-33.82
13634,-37.12
13646,-39.7
13658,-40.63
13670,-39.19
13681,-35.08
13692,-28.58
13704,-20.41
13716,-11.58
13728,-3.02
13740,4.52
13752,10.61
13764,15.1
13776,18.0
13788,19.47
13800,19.74
13812,19.16
13824,18.09
13836,16.9
13848,15.9
13860,15.26
13871,15.02
13882,15.12
13894,15.42
13906,15.84
13918,16.34
13930,16.94
13942,17.67
13954,18.54
13966,19.5
13978,20.39
13990,21.05
14002,21.32
14014,21.12
14026,20.44
14038,19.39
14050,18.09
14061,16.67
14072,15.19
14084,13.66
14096,12.03
14108,10.31
14120,8.49
14132,6.6
14144,4.7
14156,2.81
14168,0.95
14180,-0.92
14192,-2.84
14204,-4.81
14216,-6.83
14228,-8.84
14240,-10.8
14251,-12.69
14262,-14.56
14274,-16.5
14286,-18.63
14298,-21.04
14310,-23.85
14322,-27.08
14334,-30.68
14346,-34.41
14358,-37.85
14370,-40.36
14382,-41.22
14394,-39.85
14406,-36.02
14418,-29.99
14430,-22.46
14441,-14.39
14452,-6.67
14464,0.09
14476,5.6
14488,9.86
14500,12.99
14512,15.05
14524,16.1
14536,16.2
14548,15.56
14560,14.5
14572,13.48
14584,12.86
14596,12.84
14608,13.36
14620,14.25
14631,15.25
14642,16.25
14654,17.2
14666,18.16
14678,19.2
14690,20.3
14702,21.4
14714,22.37
14726,23.09
14738,23.43
14750,23.29
14762,22.6
14774,21.37
14786,19.73
14798,17.86
14810,16.01
14821,14.31
14832,12.72
14844,11.07
14856,9.19
14868,6.99
14880,4.61
14892,2.31
14904,0.3
14916,-1.31
14928,-2.68
14940,-4.07
14952,-5.71
14964,-7.65
14976,-9.79
14988,-11.91
15000,-13.84
15011,-15.55
15022,-17.08
15034,-18.57
15046,-20.18
15058,-22.06
15070,-24.33
15082,-27.06
15094,-30.16
15106,-33.34
15118,-36.05
15130,-37.55
15142,-37.16
15154,-34.47
15166,-29.51
15178,-22.76
15190,-15.02
15201,-7.16
15212,0.06
15224,6.15
15236,10.86
15248,14.12
15260,16.04
15272,16.79
15284,16.62
15296,15.86
15308,14.84
15320,13.82
15332,13.03
15344,12.6
15356,12.61
15368,13.07
15380,13.91
15391,15.0
15402,16.13
15414,17.14
15426,17.92
15438,18.44
15450,18.78
15462,18.96
15474,18.99
15486,18.81
15498,18.32
15510,17.52
15522,16.42
15534,15.15
15546,13.82
15558,12.51
15570,11.24
15581,9.97
15592,8.69
15604,7.4
15616,6.16
15628,5.03
15640,3.99
15652,2.94
15664,1.7
15676,0.15
15688,-1.74
15700,-3.84
15712,-5.97
15724,-7.94
15736,-9.68
15748,-11.28
15760,-12.92
15771,-14.83
15782,-17.2
15794,-20.11
15806,-23.53
15818,-27.23
15830,-30.76
15842,-33.5
15854,-34.72
15866,-33.83
15878,-30.55
15890,-25.02
15902,-17.83
15914,-9.83
15926,-1.87
15938,5.34
15950,11.38
15961,16.08
15972,19.43
15984,21.47
15996,22.27
16008,21.95
16020,20.71
16032,18.89
16044,16.93
16056,15.28
16068,14.26
16080,14.01
16092,14.47
16104,15.38
16116,16.44
16128,17.43
16140,18.21
16151,18.81
16162,19.24
16174,19.53
16186,19.58
16198,19.29
16210,18.54
16222,17.36
16234,15.89
16246,14.34
16258,12.91
16270,11.62
16282,10.4
16294,9.08
16306,7.51
16318,5.67
16330,3.64
16341,1.55
16352,-0.45
16364,-2.25
16376,-3.84
16388,-5.25
16400,-6.63
16412,-8.12
16424,-9.86
16436,-11.89
16448,-14.13
16460,-16.42
16472,-18.59
16484,-20.55
16496,-22.35
16508,-24.17
16520,-26.21
16531,-28.68
16542,-31.69
16554,-35.28
16566,-39.32
16578,-43.49
16590,-47.22
16602,-49.7
16614,-50.11
16626,-47.85
16638,-42.87
16650,-35.7
16662,-27.33
16674,-18.89
16686,-11.33
16698,-5.12
16710,-0.3
16721,3.34
16732,6.09
16744,8.1
16756,9.46
16768,10.19
16780,10.45
16792,10.48
16804,10.56
16816,10.92
16828,11.66
16840,12.72
16852,13.93
16864,15.15
16876,16.29
16888,17.4
16900,18.53
16911,19.73
16922,20.92
16934,21.91
16946,22.46
16958,22.36
16970,21.58
16982,20.22
16994,18.54
17006,16.86
17018,15.39
17030,14.24
17042,13.3
17054,12.36
17066,11.19
17078,9.65
17090,7.73
17101,5.64
17112,3.63
17124,1.93
17136,0.6
17148,-0.5
17160,-1.61
17172,-3.01
17184,-4.84
17196,-7.09
17208,-9.62
17220,-12.26
17232,-14.89
17244,-17.48
17256,-20.05
17268,-22.7
17280,-25.5
17291,-28.55
17302,-31.97
17314,-35.71
17326,-39.55
17338,-43.0
17350,-45.27
17362,-45.58
17374,-43.38
17386,-38.59
17398,-31.69
17410,-23.59
17422,-15.33
17434,-7.8
17446,-1.54
17458,3.3
17470,6.77
17481,9.07
17492,10.34
17504,10.72
17516,10.39
17528,9.56
17540,8.53
17552,7.61
17564,7.01
17576,6.79
17588,6.88
17600,7.1
17612,7.3
17624,7.49
17636,7.81
17648,8.48
17660,9.64
17671,11.24
17682,13.02
17694,14.58
17706,15.55
17718,15.74
17730,15.23
17742,14.27
17754,13.2
17766,12.32
17778,11.77
17790,11.52
17802,11.43
17814,11.28
17826,10.93
17838,10.33
17850,9.51
17861,8.57
17872,7.58
17884,6.56
17896,5.45
17908,4.15
17920,2.6
17932,0.83
17944,-1.09
17956,-3.05
17968,-5.01
17980,-6.96
17992,-8.98
18004,-11.19
18016,-13.7
18028,-16.57
18040,-19.78
18051,-23.14
18062,-26.27
18074,-28.62
18086,-29.58
18098,-28.65
18110,-25.66
18122,-20.84
18134,-14.79
18146,-8.26
18158,-1.98
18170,3.55
18182,8.09
18194,11.61
18206,14.11
18218,15.59
18230,16.01
18241,15.43
18252,14.0
18264,12.07
18276,10.07
18288,8.38
18300,7.27
18312,6.79
18324,6.82
18336,7.14
18348,7.52
18360,7.73
18372,7.62
18384,7.11
18396,6.13
18408,4.67
18420,2.75
18431,0.42
18442,-2.24
18454,-5.06
18466,-7.85
18478,-10.38
18490,-12.41
18502,-13.79
18514,-14.49
18526,-14.64
18538,-14.51
18550,-14.45
18562,-14.75
18574,-15.58
18586,-16.93
18598,-18.6
18610,-20.3
18621,-21.74
18632,-22.75
18644,-23.32
18656,-23.54
18668,-23.61
18680,-23.72
18692,-23.99
18704,-24.51
18716,-25.32
18728,-26.38
18740,-27.54
18752,-28.47
18764,-28.63
18776,-27.43
18788,-24.35
18800,-19.18
18811,-12.17
18822,-3.99
18834,4.48
18846,12.42
18858,19.32
18870,25.03
18882,29.65
18894,33.38
18906,36.3
18918,38.37
18930,39.53
18942,39.82
18954,39.49
18966,38.92
18978,38.49
18990,38.34
19001,38.36
19012,38.26
19024,37.75
19036,36.74
19048,35.4
19060,34.03
19072,32.94
19084,32.22
19096,31.75
19108,31.31
19120,30.72
19132,29.95
19144,29.1
19156,28.37
19168,27.89
19180,27.66
19191,27.57
19202,27.47
19214,27.26
19226,26.96
19238,26.69
19250,26.56
19262,26.57
19274,26.51
19286,26.08
19298,24.94
19310,22.89
19322,19.98
19334,16.44
19346,12.63
19358,8.82
19370,5.16
19381,1.69
19392,-1.67
19404,-4.98
19416,-8.36
19428,-11.93
19440,-15.79
19452,-19.91
19464,-23.99
19476,-27.46
19488,-29.6
19500,-29.82
19512,-27.83
19524,-23.86
19536,-18.5
19548,-12.52
19560,-6.56
19571,-1.04
19582,3.84
19594,7.99
19606,11.3
19618,13.66
19630,14.97
19642,15.29
19654,14.87
19666,14.07
19678,13.25
19690,12.64
19702,12.28
19714,12.1
19726,11.99
19738,11.9
19750,11.86
19761,11.91
19772,12.09
19784,12.36
19796,12.65
19808,12.87
19820,12.94
19832,12.8
19844,12.37
19856,11.58
19868,10.4
19880,8.84
19892,7.0
19904,5.05
19916,3.13
19928,1.32
19940,-0.37
19951,-2.01
19962,-3.67
19974,-5.34
19986,-6.98
19998,-8.49
20010,-9.83
20022,-11.02
20034,-12.2
20046,-13.52
20058,-15.13
20070,-17.05
20082,-19.19
20094,-21.4
20106,-23.49
20118,-25.35
20130,-26.99
20141,-28.57
20152,-30.36
20164,-32.62
20176,-35.47
20188,-38.79
20200,-42.14
20212,-44.81
20224,-46.06
20236,-45.28
20248,-42.23
20260,-37.07
20272,-30.36
20284,-22.82
20296,-15.16
20308,-8.05
20320,-1.93
20331,2.92
20342,6.4
20354,8.6
20366,9.76
20378,10.19
20390,10.22
20402,10.1
20414,10.0
20426,10.04
20438,10.29
20450,10.8
20462,11.56
20474,12.49
20486,13.45
20498,14.33
20510,15.09
20521,15.78
20532,16.49
20544,17.24
20556,17.95
20568,18.42
20580,18.44
20592,17.9
20604,16.86
20616,15.53
20628,14.18
20640,12.99
20652,12.0
20664,11.12
20676,10.15
20688,8.93
20700,7.42
20711,5.72
20722,4.05
20734,2.63
20746,1.58
20758,0.81
20770,0.08
20782,-0.91
20794,-2.34
20806,-4.24
20818,-6.41
20830,-8.55
20842,-10.41
20854,-11.88
20866,-13.04
20878,-14.07
20890,-15.2
20901,-16.6
20912,-18.41
20924,-20.72
20936,-23.59
20948,-26.92
20960,-30.38
20972,-33.4
20984,-35.24
20996,-35.22
