seconds,BVP
2,57.74
14,57.45
26,56.44
37,54.99
48,53.35
60,51.7
72,50.04
84,48.35
96,46.64
108,45.0
120,43.62
132,42.66
144,42.14
156,41.88
168,41.56
180,40.78
192,39.21
204,36.77
216,33.56
227,29.86
238,25.97
250,22.1
262,18.24
274,14.19
286,9.62
298,4.28
310,-1.88
322,-8.63
334,-15.5
346,-21.96
358,-27.57
370,-32.15
382,-35.84
394,-39.12
406,-42.63
417,-46.98
428,-52.48
440,-58.88
452,-65.26
464,-70.21
476,-72.18
488,-70.01
500,-63.32
512,-52.69
524,-39.45
536,-25.28
548,-11.7
560,0.24
572,10.07
584,17.81
596,23.79
607,28.34
618,31.76
630,34.25
642,35.92
654,36.86
666,37.12
678,36.85
690,36.15
702,35.17
714,33.97
726,32.56
738,30.86
750,28.87
762,26.62
774,24.26
786,21.97
797,19.91
808,18.11
820,16.5
832,14.94
844,13.28
856,11.44
868,9.35
880,7.02
892,4.5
904,1.84
916,-0.86
928,-3.53
940,-6.12
952,-8.65
964,-11.26
976,-14.13
987,-17.38
998,-21.04
1010,-24.93
1022,-28.8
1034,-32.38
1046,-35.53
1058,-38.32
1070,-41.04
1082,-44.1
1094,-47.91
1106,-52.7
1118,-58.38
1130,-64.43
1142,-69.93
1154,-73.67
1166,-74.46
1177,-71.39
1188,-64.16
1200,-53.25
1212,-39.83
1224,-25.46
1236,-11.62
1248,0.59
1260,10.69
1272,18.72
1284,25.08
1296,30.19
1308,34.32
1320,37.5
1332,39.69
1344,40.8
1356,40.85
1367,39.95
1378,38.26
1390,35.91
1402,33.01
1414,29.67
1426,25.99
1438,22.18
1450,18.47
1462,15.13
1474,12.35
1486,10.24
1498,8.75
1510,7.68
1522,6.77
1534,5.77
1546,4.51
1557,2.94
1568,1.17
1580,-0.57
1592,-1.95
1604,-2.62
1616,-2.25
1628,-0.7
1640,1.96
1652,5.38
1664,9.11
1676,12.71
1688,15.92
1700,18.72
1712,21.2
1724,23.49
1736,25.59
1747,27.34
1758,28.45
1770,28.58
1782,27.43
1794,24.8
1806,20.68
1818,15.34
1830,9.41
1842,3.89
1854,-0.05
1866,-1.38
1878,0.43
1890,5.14
1902,11.83
1914,19.13
1926,25.6
1937,30.22
1948,32.54
1960,32.69
1972,31.22
1984,28.8
1996,26.0
2008,23.22
2020,20.64
2032,18.34
2044,16.34
2056,14.57
2068,12.98
2080,11.49
2092,10.01
2104,8.51
2116,7.01
2127,5.66
2138,4.6
2150,3.93
2162,3.64
2174,3.57
2186,3.47
2198,3.08
2210,2.22
2222,0.8
2234,-1.17
2246,-3.64
2258,-6.48
2270,-9.56
2282,-12.63
2294,-15.45
2306,-17.79
2317,-19.55
2328,-20.83
2340,-21.94
2352,-23.26
2364,-25.12
2376,-27.66
2388,-30.68
2400,-33.82
2412,-36.7
2424,-39.06
2436,-40.95
2448,-42.66
2460,-44.63
2472,-47.31
2484,-50.99
2496,-55.67
2507,-60.97
2518,-66.03
2530,-69.6
2542,-70.37
2554,-67.28
2566,-59.97
2578,-48.96
2590,-35.55
2602,-21.4
2614,-8.05
2626,3.49
2638,12.91
2650,20.39
2662,26.28
2674,30.83
2686,34.12
2697,36.09
2708,36.83
2720,36.59
2732,35.75
2744,34.69
2756,33.61
2768,32.49
2780,31.2
2792,29.67
2804,28.0
2816,26.44
2828,25.28
2840,24.64
2852,24.39
2864,24.17
2876,23.58
2887,22.37
2898,20.5
2910,18.16
2922,15.66
2934,13.26
2946,11.11
2958,9.16
2970,7.25
2982,5.15
2994,2.71
3006,-0.07
3018,-3.03
3030,-5.95
3042,-8.7
3054,-11.28
3066,-13.89
3077,-16.76
3088,-20.0
3100,-23.52
3112,-27.05
3124,-30.29
3136,-33.12
3148,-35.58
3160,-37.92
3172,-40.43
3184,-43.41
3196,-47.08
3208,-51.58
3220,-56.82
3232,-62.32
3244,-67.12
3256,-69.94
3267,-69.49
3278,-64.95
3290,-56.35
3302,-44.59
3314,-31.16
3326,-17.71
3338,-5.53
3350,4.64
3362,12.67
3374,18.83
3386,23.58
3398,27.34
3410,30.38
3422,32.79
3434,34.59
3446,35.73
3457,36.23
3468,36.13
3480,35.53
3492,34.52
3504,33.21
3516,31.72
3528,30.22
3540,28.96
3552,28.1
3564,27.74
3576,27.76
3588,27.9
3600,27.86
3612,27.31
3624,26.1
3636,24.16
3647,21.59
3658,18.56
3670,15.27
3682,11.9
3694,8.61
3706,5.48
3718,2.56
3730,-0.18
3742,-2.79
3754,-5.41
3766,-8.18
3778,-11.25
3790,-14.77
3802,-18.68
3814,-22.82
3826,-26.91
3837,-30.65
3848,-33.87
3860,-36.59
3872,-39.02
3884,-41.54
3896,-44.55
3908,-48.34
3920,-53.0
3932,-58.26
3944,-63.43
3956,-67.48
3968,-69.18
3980,-67.51
3992,-61.87
4004,-52.4
4016,-39.94
4027,-25.86
4038,-11.64
4050,1.47
4062,12.64
4074,21.54
4086,28.23
4098,33.02
4110,36.25
4122,38.26
4134,39.3
4146,39.57
4158,39.23
4170,38.4
4182,37.17
4194,35.59
4206,33.66
4217,31.42
4228,28.99
4240,26.56
4252,24.4
4264,22.76
4276,21.74
4288,21.21
4300,20.82
4312,20.12
4324,18.75
4336,16.56
4348,13.67
4360,10.41
4372,7.14
4384,4.12
4396,1.45
4407,-1.0
4418,-3.42
4430,-6.04
4442,-8.97
4454,-12.23
4466,-15.69
4478,-19.2
4490,-22.59
4502,-25.77
4514,-28.76
4526,-31.72
4538,-34.93
4550,-38.71
4562,-43.26
4574,-48.49
4586,-53.85
4597,-58.36
4608,-60.76
4620,-59.9
4632,-55.08
4644,-46.37
4656,-34.62
4668,-21.2
4680,-7.62
4692,4.87
4704,15.48
4716,23.94
4728,30.26
4740,34.62
4752,37.24
4764,38.39
4776,38.39
4787,37.65
4798,36.6
4810,35.49
4822,34.42
4834,33.32
4846,32.06
4858,30.61
4870,29.06
4882,27.58
4894,26.38
4906,25.5
4918,24.81
4930,24.05
4942,22.93
4954,21.26
4966,18.95
4977,16.08
4988,12.81
5000,9.35
5012,5.93
5024,2.65
5036,-0.45
5048,-3.51
5060,-6.76
5072,-10.42
5084,-14.55
5096,-19.04
5108,-23.56
5120,-27.78
5132,-31.45
5144,-34.63
5156,-37.68
5167,-41.14
5178,-45.54
5190,-51.05
5202,-57.38
5214,-63.63
5226,-68.47
5238,-70.48
5250,-68.52
5262,-62.19
5274,-51.93
5286,-38.9
5298,-24.65
5310,-10.69
5322,1.84
5334,12.31
5346,20.54
5357,26.72
5368,31.21
5380,34.46
5392,36.93
5404,39.01
5416,40.87
5428,42.52
5440,43.76
5452,44.33
5464,44.09
5476,43.04
5488,41.38
5500,39.42
5512,37.49
5524,35.89
5536,34.77
5547,34.11
5558,33.73
5570,33.28
5582,32.34
5594,30.55
5606,27.75
5618,24.04
5630,19.79
5642,15.47
5654,11.49
5666,8.01
5678,4.9
5690,1.79
5702,-1.77
5714,-6.1
5726,-11.19
5737,-16.72
5748,-22.13
5760,-26.87
5772,-30.61
5784,-33.36
5796,-35.55
5808,-37.82
5820,-40.85
5832,-45.08
5844,-50.47
5856,-56.43
5868,-61.83
5880,-65.29
5892,-65.5
5904,-61.59
5916,-53.44
5927,-41.7
5938,-27.68
5950,-12.95
5962,1.0
5974,13.08
5986,22.74
5998,29.96
6010,35.08
6022,38.63
6034,41.14
6046,42.97
6058,44.32
6070,45.19
6082,45.54
6094,45.3
6106,44.51
6117,43.24
6128,41.58
6140,39.59
6152,37.38
6164,35.1
6176,32.97
6188,31.25
6200,30.06
6212,29.34
6224,28.8
6236,28.05
6248,26.76
6260,24.74
6272,22.03
6284,18.83
6296,15.37
6307,11.87
6318,8.46
6330,5.18
6342,1.99
6354,-1.21
6366,-4.57
6378,-8.21
6390,-12.16
6402,-16.33
6414,-20.51
6426,-24.43
6438,-27.93
6450,-30.99
6462,-33.77
6474,-36.63
6486,-39.97
6497,-44.12
6508,-49.15
6520,-54.79
6532,-60.29
6544,-64.49
6556,-66.11
6568,-64.06
6580,-57.8
6592,-47.57
6604,-34.39
6616,-19.74
6628,-5.21
6640,7.94
6652,18.97
6664,27.62
6676,34.05
6687,38.55
6698,41.46
6710,43.09
6722,43.75
6734,43.72
6746,43.21
6758,42.37
6770,41.2
6782,39.67
6794,37.73
6806,35.47
6818,33.14
6830,31.05
6842,29.48
6854,28.54
6866,28.09
6877,27.79
6888,27.22
6900,26.02
6912,24.02
6924,21.27
6936,17.98
6948,14.39
6960,10.72
6972,7.08
6984,3.49
6996,-0.12
7008,-3.83
7020,-7.69
7032,-11.68
7044,-15.76
7056,-19.79
7067,-23.65
7078,-27.18
7090,-30.33
7102,-33.2
7114,-36.09
7126,-39.43
7138,-43.59
7150,-48.6
7162,-53.93
7174,-58.5
7186,-60.91
7198,-59.89
7210,-54.75
7222,-45.67
7234,-33.68
7246,-20.31
7257,-7.13
7268,4.66
7280,14.45
7292,22.12
7304,27.85
7316,31.92
7328,34.59
7340,36.13
7352,36.8
7364,36.94
7376,36.83
7388,36.62
7400,36.29
7412,35.69
7424,34.64
7436,33.11
7447,31.2
7458,29.21
7470,27.44
7482,26.13
7494,25.38
7506,25.1
7518,25.04
7530,24.81
7542,24.01
7554,22.36
7566,19.75
7578,16.36
7590,12.55
7602,8.71
7614,5.07
7626,1.62
7637,-1.84
7648,-5.56
7660,-9.65
7672,-14.03
7684,-18.46
7696,-22.68
7708,-26.52
7720,-29.94
7732,-33.05
7744,-36.01
7756,-39.1
7768,-42.58
7780,-46.69
7792,-51.42
7804,-56.3
7816,-60.41
7827,-62.45
7838,-61.14
7850,-55.71
7862,-46.24
7874,-33.72
7886,-19.73
7898,-5.97
7910,6.22
7922,16.16
7934,23.78
7946,29.43
7958,33.56
7970,36.5
7982,38.44
7994,39.5
8006,39.79
8017,39.48
8028,38.77
8040,37.84
8052,36.73
8064,35.41
8076,33.8
8088,31.91
8100,29.88
8112,27.91
8124,26.24
8136,24.99
8148,24.1
8160,23.33
8172,22.38
8184,21.04
8196,19.21
8207,16.94
8218,14.31
8230,11.42
8242,8.32
8254,5.05
8266,1.71
8278,-1.55
8290,-4.63
8302,-7.52
8314,-10.35
8326,-13.37
8338,-16.77
8350,-20.6
8362,-24.7
8374,-28.74
8386,-32.42
8397,-35.61
8408,-38.45
8420,-41.3
8432,-44.61
8444,-48.76
8456,-53.86
8468,-59.67
8480,-65.5
8492,-70.32
8504,-72.9
8516,-72.15
8528,-67.4
8540,-58.68
8552,-46.76
8564,-33.05
8576,-19.14
8587,-6.37
8598,4.45
8610,13.2
8622,20.17
8634,25.83
8646,30.5
8658,34.32
8670,37.32
8682,39.53
8694,41.09
8706,42.17
8718,42.92
8730,43.36
8742,43.47
8754,43.24
8766,42.8
8777,42.37
8788,42.18
8800,42.35
8812,42.8
8824,43.31
8836,43.62
8848,43.47
8860,42.73
8872,41.33
8884,39.33
8896,36.83
8908,33.95
8920,30.82
8932,27.52
8944,24.05
8956,20.38
8967,16.48
8978,12.36
8990,8.08
9002,3.73
9014,-0.65
9026,-5.05
9038,-9.51
9050,-14.07
9062,-18.68
9074,-23.27
9086,-27.66
9098,-31.78
9110,-35.65
9122,-39.43
9134,-43.4
9146,-47.82
9157,-52.85
9168,-58.4
9180,-64.03
9192,-68.91
9204,-71.94
9216,-72.04
9228,-68.38
9240,-60.75
9252,-49.68
9264,-36.3
9276,-22.04
9288,-8.31
9300,3.87
9312,13.95
9324,21.81
9336,27.62
9347,31.68
9358,34.37
9370,36.07
9382,37.15
9394,37.9
9406,38.47
9418,38.82
9430,38.77
9442,38.12
9454,36.73
9466,34.64
9478,32.1
9490,29.49
9502,27.23
9514,25.61
9526,24.68
9537,24.21
9548,23.78
9560,22.92
9572,21.32
9584,18.93
9596,15.93
9608,12.67
9620,9.45
9632,6.45
9644,3.61
9656,0.75
9668,-2.39
9680,-6.0
9692,-10.14
9704,-14.67
9716,-19.37
9727,-23.9
9738,-28.01
9750,-31.54
9762,-34.56
9774,-37.35
9786,-40.35
9798,-44.01
9810,-48.6
9822,-54.0
9834,-59.58
9846,-64.21
9858,-66.53
9870,-65.38
9882,-60.18
9894,-51.17
9906,-39.38
9917,-26.29
9928,-13.4
9940,-1.89
9952,7.62
9964,15.04
9976,20.59
9988,24.63
10000,27.49
10012,29.4
10024,30.54
10036,31.06
10048,31.13
10060,30.91
10072,30.52
10084,29.95
10096,29.1
10107,27.85
10118,26.2
10130,24.32
10142,22.55
10154,21.18
10166,20.36
10178,19.98
10190,19.68
10202,19.08
10214,17.88
10226,16.01
10238,13.58
10250,10.8
10262,7.91
10274,5.06
10286,2.29
10297,-0.43
10308,-3.19
10320,-6.13
10332,-9.32
10344,-12.77
10356,-16.33
10368,-19.77
10380,-22.88
10392,-25.57
10404,-27.95
10416,-30.32
10428,-33.08
10440,-36.63
10452,-41.16
10464,-46.53
10476,-52.17
10487,-57.13
10498,-60.22
10510,-60.31
10522,-56.66
10534,-49.22
10546,-38.66
10558,-26.2
10570,-13.28
10582,-1.1
10594,9.55
10606,18.36
10618,25.37
10630,30.79
10642,34.86
10654,37.8
10666,39.8
10677,41.06
10688,41.71
10700,41.83
10712,41.43
10724,40.47
10736,38.93
10748,36.81
10760,34.24
10772,31.45
10784,28.78
10796,26.61
10808,25.22
10820,24.67
10832,24.72
10844,24.91
10856,24.7
10867,23.63
10878,21.52
10890,18.49
10902,14.83
10914,10.96
10926,7.22
10938,3.82
10950,0.78
10962,-2.03
10974,-4.8
10986,-7.73
10998,-10.88
11010,-14.22
11022,-17.63
11034,-21.02
11046,-24.35
11057,-27.68
11068,-31.06
11080,-34.56
11092,-38.22
11104,-42.13
11116,-46.44
11128,-51.22
11140,-56.31
11152,-61.08
11164,-64.44
11176,-65.12
11188,-62.07
11200,-54.94
11212,-44.21
11224,-31.11
11236,-17.17
11247,-3.78
11258,8.13
11270,18.16
11282,26.32
11294,32.81
11306,37.81
11318,41.48
11330,43.92
11342,45.27
11354,45.74
11366,45.57
11378,45.0
11390,44.14
11402,43.01
11414,41.54
11426,39.7
11437,37.57
11448,35.31
11460,33.22
11472,31.52
11484,30.3
11496,29.5
11508,28.88
11520,28.16
11532,27.03
11544,25.32
11556,22.96
11568,20.03
11580,16.71
11592,13.26
11604,9.88
11616,6.72
11627,3.76
11638,0.86
11650,-2.17
11662,-5.49
11674,-9.14
11686,-13.06
11698,-17.07
11710,-20.99
11722,-24.64
11734,-27.93
11746,-30.91
11758,-33.73
11770,-36.67
11782,-40.11
11794,-44.35
11806,-49.55
11817,-55.49
11828,-61.43
11840,-66.23
11852,-68.48
11864,-66.99
11876,-61.18
11888,-51.33
11900,-38.54
11912,-24.37
11924,-10.44
11936,2.07
11948,12.49
11960,20.76
11972,27.13
11984,31.98
11996,35.63
12007,38.31
12018,40.14
12030,41.18
12042,41.49
12054,41.15
12066,40.25
12078,38.91
12090,37.28
12102,35.54
12114,33.85
12126,32.35
12138,31.19
12150,30.43
12162,30.04
12174,29.86
12186,29.62
12197,28.96
12208,27.6
12220,25.41
12232,22.52
12244,19.27
12256,16.06
12268,13.16
12280,10.57
12292,8.0
12304,5.03
12316,1.29
12328,-3.31
12340,-8.51
12352,-13.83
12364,-18.77
12376,-23.01
12387,-26.52
12398,-29.57
12410,-32.55
12422,-35.92
12434,-40.05
12446,-45.1
12458,-50.91
12470,-56.84
12482,-61.76
12494,-64.31
12506,-63.24
12518,-57.87
12530,-48.35
12542,-35.72
12554,-21.57
12566,-7.54
12577,5.03
12588,15.39
12600,23.33
12612,28.98
12624,32.65
12636,34.69
12648,35.5
12660,35.48
12672,35.06
12684,34.57
12696,34.2
12708,33.9
12720,33.51
12732,32.77
12744,31.52
12756,29.76
12767,27.66
12778,25.55
12790,23.8
12802,22.62
12814,22.01
12826,21.72
12838,21.26
12850,20.16
12862,18.1
12874,15.02
12886,11.21
12898,7.12
12910,3.23
12922,-0.18
12934,-3.15
12946,-5.95
12957,-8.98
12968,-12.49
12980,-16.48
12992,-20.68
13004,-24.74
13016,-28.36
13028,-31.47
13040,-34.28
13052,-37.19
13064,-40.63
13076,-44.93
13088,-50.18
13100,-56.05
13112,-61.76
13124,-66.1
13136,-67.75
13147,-65.55
13158,-59.01
13170,-48.48
13182,-35.15
13194,-20.65
13206,-6.58
13218,5.84
13230,16.05
13242,23.97
13254,29.87
13266,34.14
13278,37.08
13290,38.93
13302,39.86
13314,40.01
13326,39.57
13337,38.72
13348,37.64
13360,36.47
13372,35.24
13384,33.89
13396,32.36
13408,30.65
13420,28.9
13432,27.4
13444,26.38
13456,25.94
13468,25.81
13480,25.54
13492,24.59
13504,22.63
13516,19.69
13527,16.11
13538,12.37
13550,8.82
13562,5.59
13574,2.51
13586,-0.67
13598,-4.18
13610,-8.06
13622,-12.18
13634,-16.33
13646,-20.31
13658,-23.96
13670,-27.24
13682,-30.18
13694,-32.88
13706,-35.56
13717,-38.48
13728,-42.01
13740,-46.37
13752,-51.59
13764,-57.23
13776,-62.35
13788,-65.6
13800,-65.55
13812,-61.22
13824,-52.44
13836,-40.01
13848,-25.46
13860,-10.58
13872,3.06
13884,14.51
13896,23.48
13907,30.17
13918,34.95
13930,38.22
13942,40.28
13954,41.39
13966,41.8
13978,41.75
13990,41.39
14002,40.81
14014,39.97
14026,38.84
14038,37.41
14050,35.71
14062,33.83
14074,31.93
14086,30.16
14097,28.73
14108,27.75
14120,27.26
14132,27.04
14144,26.77
14156,25.98
14168,24.33
14180,21.73
14192,18.39
14204,14.72
14216,11.2
14228,8.1
14240,5.39
14252,2.78
14264,-0.04
14276,-3.31
14287,-7.03
14298,-11.01
14310,-15.0
14322,-18.8
14334,-22.31
14346,-25.57
14358,-28.66
14370,-31.77
14382,-35.15
14394,-39.13
14406,-44.03
14418,-49.97
14430,-56.61
14442,-63.02
14454,-67.87
14466,-69.7
14477,-67.42
14488,-60.73
14500,-50.2
14512,-37.14
14524,-23.18
14536,-9.83
14548,1.84
14560,11.36
14572,18.69
14584,24.1
14596,27.94
14608,30.53
14620,32.12
14632,32.94
14644,33.25
14656,33.25
14667,33.05
14678,32.62
14690,31.82
14702,30.53
14714,28.76
14726,26.74
14738,24.85
14750,23.5
14762,22.84
14774,22.76
14786,22.85
14798,22.63
14810,21.67
14822,19.81
14834,17.13
14846,13.91
14857,10.47
14868,7.05
14880,3.71
14892,0.41
14904,-3.05
14916,-6.86
14928,-11.11
14940,-15.69
14952,-20.37
14964,-24.83
14976,-28.79
14988,-32.22
15000,-35.3
15012,-38.46
15024,-42.24
15036,-47.12
15047,-53.22
15058,-60.21
15070,-67.2
15082,-72.82
15094,-75.57
15106,-74.2
15118,-68.13
15130,-57.62
15142,-43.75
15154,-28.11
15166,-12.35
15178,2.18
15190,14.61
15202,24.58
15214,32.15
15226,37.56
15237,41.17
15248,43.32
15260,44.36
15272,44.57
15284,44.24
15296,43.56
15308,42.65
15320,41.6
15332,40.45
15344,39.22
15356,38.02
15368,36.96
15380,36.15
15392,35.69
15404,35.52
15416,35.46
15427,35.15
15438,34.26
15450,32.54
15462,29.96
15474,26.73
15486,23.23
15498,19.77
15510,16.49
15522,13.34
15534,10.12
15546,6.61
15558,2.72
15570,-1.5
15582,-5.86
15594,-10.19
15606,-14.38
15617,-18.4
15628,-22.32
15640,-26.35
15652,-30.76
15664,-35.9
15676,-42.06
15688,-49.29
15700,-57.15
15712,-64.58
15724,-70.11
15736,-72.18
15748,-69.74
15760,-62.65
15772,-51.75
15784,-38.61
15796,-24.97
15807,-12.27
15818,-1.29
15830,7.8
15842,15.23
15854,21.32
15866,26.27
15878,30.18
15890,33.06
15902,34.98
15914,36.13
15926,36.72
15938,36.96
15950,37.0
15962,36.82
15974,36.35
15986,35.5
15997,34.28
16008,32.82
16020,31.39
16032,30.23
16044,29.5
16056,29.12
16068,28.77
16080,28.06
16092,26.61
16104,24.29
16116,21.23
16128,17.79
16140,14.37
16152,11.23
16164,8.37
16176,5.6
16187,2.63
16198,-0.79
16210,-4.75
16222,-9.15
16234,-13.79
16246,-18.39
16258,-22.71
16270,-26.66
16282,-30.26
16294,-33.68
16306,-37.14
16318,-40.92
16330,-45.27
16342,-50.34
16354,-56.07
16366,-62.04
16377,-67.37
16388,-70.8
16400,-71.04
16412,-67.19
16424,-59.11
16436,-47.57
16448,-34.07
16460,-20.29
16472,-7.61
16484,3.22
16496,12.09
16508,19.29
16520,25.14
16532,29.84
16544,33.44
16556,35.96
16567,37.54
16578,38.48
16590,39.11
16602,39.68
16614,40.26
16626,40.76
16638,40.95
16650,40.68
16662,39.92
16674,38.79
16686,37.55
16698,36.42
16710,35.53
16722,34.84
16734,34.15
16746,33.14
16757,31.56
16768,29.25
16780,26.29
16792,22.82
16804,19.11
16816,15.36
16828,11.74
16840,8.32
16852,5.09
16864,1.97
16876,-1.13
16888,-4.36
16900,-7.85
16912,-11.67
16924,-15.77
16936,-19.98
16947,-24.08
16958,-27.89
16970,-31.35
16982,-34.63
16994,-38.03
17006,-41.97
17018,-46.8
17030,-52.61
17042,-59.07
17054,-65.32
17066,-70.01
17078,-71.63
17090,-68.97
17102,-61.6
17114,-50.03
17126,-35.69
17137,-20.43
17148,-6.0
17160,6.47
17172,16.5
17184,24.26
17196,30.15
17208,34.57
17220,37.81
17232,40.04
17244,41.45
17256,42.23
17268,42.61
17280,42.71
17292,42.54
17304,42.01
17316,41.0
17327,39.51
17338,37.71
17350,35.9
17362,34.34
17374,33.2
17386,32.43
17398,31.87
17410,31.24
17422,30.29
17434,28.83
17446,26.79
17458,24.21
17470,21.18
17482,17.86
17494,14.43
17506,11.0
17517,7.65
17528,4.38
17540,1.06
17552,-2.45
17564,-6.31
17576,-10.56
17588,-15.14
17600,-19.86
17612,-24.46
17624,-28.67
17636,-32.38
17648,-35.57
17660,-38.46
17672,-41.42
17684,-44.87
17696,-49.16
17707,-54.35
17718,-60.05
17730,-65.35
17742,-68.89
17754,-69.26
17766,-65.43
17778,-57.15
17790,-45.09
17802,-30.7
17814,-15.71
17826,-1.69
17838,10.32
17850,19.89
17862,27.11
17874,32.33
17886,35.95
17897,38.28
17908,39.56
17920,39.96
17932,39.7
17944,38.98
17956,38.0
17968,36.94
17980,35.87
17992,34.76
18004,33.56
18016,32.26
18028,30.93
18040,29.79
18052,29.01
18064,28.68
18076,28.67
18087,28.63
18098,28.18
18110,27.0
18122,24.97
18134,22.25
18146,19.11
18158,15.84
18170,12.66
18182,9.61
18194,6.61
18206,3.53
18218,0.21
18230,-3.41
18242,-7.37
18254,-11.62
18266,-16.04
18277,-20.49
18288,-24.79
18300,-28.85
18312,-32.6
18324,-36.2
18336,-39.93
18348,-44.15
18360,-49.1
18372,-54.66
18384,-60.23
18396,-64.68
18408,-66.69
18420,-65.08
18432,-59.23
18444,-49.31
18456,-36.33
18467,-21.77
18478,-7.21
18490,6.09
18502,17.37
18514,26.35
18526,33.12
18538,37.94
18550,41.06
18562,42.77
18574,43.35
18586,43.18
18598,42.56
18610,41.72
18622,40.76
18634,39.63
18646,38.26
18657,36.63
18668,34.86
18680,33.15
18692,31.72
18704,30.72
18716,30.14
18728,29.85
18740,29.63
18752,29.21
18764,28.34
18776,26.91
18788,24.91
18800,22.41
18812,19.56
18824,16.46
18836,13.16
18847,9.63
18858,5.86
18870,1.88
18882,-2.16
18894,-6.13
18906,-9.92
18918,-13.52
18930,-17.08
18942,-20.75
18954,-24.65
18966,-28.71
18978,-32.75
18990,-36.47
19002,-39.69
19014,-42.38
19026,-44.73
19037,-47.16
19048,-50.16
19060,-54.07
19072,-58.94
19084,-64.33
19096,-69.27
19108,-72.45
19120,-72.53
19132,-68.49
19144,-60.06
19156,-47.81
19168,-33.04
19180,-17.42
19192,-2.51
19204,10.49
19216,20.98
19227,28.89
19238,34.49
19250,38.2
19262,40.52
19274,41.81
19286,42.35
19298,42.3
19310,41.77
19322,40.84
19334,39.63
19346,38.3
19358,36.96
19370,35.72
19382,34.58
19394,33.45
19406,32.29
19417,31.1
19428,29.94
19440,28.87
19452,27.91
19464,26.93
19476,25.76
19488,24.27
19500,22.35
19512,20.05
19524,17.43
19536,14.55
19548,11.42
19560,8.08
19572,4.55
19584,0.97
19596,-2.51
19607,-5.8
19618,-8.94
19630,-12.08
19642,-15.42
19654,-19.09
19666,-23.02
19678,-27.01
19690,-30.77
19702,-34.1
19714,-36.96
19726,-39.51
19738,-42.08
19750,-45.04
19762,-48.74
19774,-53.33
19786,-58.59
19797,-63.86
19808,-68.01
19820,-69.74
19832,-67.86
19844,-61.77
19856,-51.64
19868,-38.44
19880,-23.68
19892,-8.97
19904,4.42
19916,15.73
19928,24.75
19940,31.62
19952,36.65
19964,40.12
19976,42.3
19987,43.4
19998,43.65
20010,43.24
20022,42.34
20034,41.09
20046,39.58
20058,37.89
20070,36.1
20082,34.33
20094,32.72
20106,31.39
20118,30.36
20130,29.61
20142,29.02
20154,28.45
20166,27.74
20177,26.71
20188,25.2
20200,23.1
20212,20.36
20224,17.04
20236,13.36
20248,9.51
20260,5.71
20272,2.1
20284,-1.26
20296,-4.36
20308,-7.24
20320,-10.0
20332,-12.77
20344,-15.69
20356,-18.89
20367,-22.37
20378,-26.03
20390,-29.65
20402,-33.0
20414,-35.93
20426,-38.49
20438,-40.87
20450,-43.47
20462,-46.69
20474,-50.8
20486,-55.72
20498,-60.88
20510,-65.24
20522,-67.47
20534,-66.33
20546,-61.09
20557,-51.77
20568,-39.21
20580,-24.82
20592,-10.18
20604,3.29
20616,14.68
20628,23.59
20640,30.03
20652,34.26
20664,36.65
20676,37.62
20688,37.6
20700,37.03
20712,36.28
20724,35.57
20736,34.9
20747,34.16
20758,33.16
20770,31.82
20782,30.22
20794,28.61
20806,27.27
20818,26.42
20830,26.12
20842,26.22
20854,26.46
20866,26.47
20878,25.89
20890,24.46
20902,22.08
20914,18.9
20926,15.25
20937,11.52
20948,8.04
20960,4.88
20972,1.84
20984,-1.47
20996,-5.38
