seconds,BVP
2,9.93
14,2.72
26,-3.9
37,-9.66
48,-14.52
60,-18.66
72,-22.46
84,-26.35
96,-30.7
108,-35.68
120,-41.17
132,-46.86
144,-52.38
156,-57.45
168,-62.07
180,-66.56
192,-71.51
204,-77.6
216,-85.38
227,-94.86
238,-105.22
250,-114.78
262,-121.22
274,-122.23
286,-116.22
298,-102.88
310,-83.31
322,-59.7
334,-34.64
346,-10.49
358,10.99
370,28.84
382,42.68
394,52.56
406,58.8
417,61.82
428,62.18
440,60.49
452,57.44
464,53.7
476,49.93
488,46.66
500,44.23
512,42.86
524,42.59
536,43.44
548,45.38
560,48.38
572,52.19
584,56.39
596,60.25
607,63.01
618,64.11
630,63.3
642,60.83
654,57.25
666,53.2
678,49.12
690,45.1
702,40.87
714,36.01
726,30.19
738,23.36
750,15.85
762,8.23
774,1.15
786,-4.95
797,-9.97
808,-14.13
820,-17.94
832,-21.92
844,-26.42
856,-31.47
868,-36.79
880,-41.95
892,-46.63
904,-50.72
916,-54.46
928,-58.35
940,-63.04
952,-69.09
964,-76.91
976,-86.44
987,-97.03
998,-107.24
1010,-115.03
1022,-118.13
1034,-114.73
1046,-104.08
1058,-86.81
1070,-64.76
1082,-40.36
1094,-15.97
1106,6.59
1118,26.23
1130,42.38
1142,54.82
1154,63.49
1166,68.55
1177,70.36
1188,69.56
1200,66.98
1212,63.43
1224,59.61
1236,56.08
1248,53.22
1260,51.3
1272,50.47
1284,50.84
1296,52.39
1308,55.04
1320,58.58
1332,62.67
1344,66.82
1356,70.47
1367,73.06
1378,74.17
1390,73.6
1402,71.44
1414,68.0
1426,63.72
1438,59.08
1450,54.46
1462,50.09
1474,45.99
1486,42.04
1498,38.0
1510,33.63
1522,28.81
1534,23.59
1546,18.23
1557,12.99
1568,8.08
1580,3.5
1592,-0.93
1604,-5.51
1616,-10.51
1628,-16.05
1640,-22.02
1652,-28.13
1664,-34.02
1676,-39.34
1688,-43.9
1700,-47.73
1712,-51.12
1724,-54.59
1736,-58.85
1747,-64.57
1758,-72.18
1770,-81.44
1782,-91.29
1794,-99.81
1806,-104.7
1818,-103.86
1830,-96.08
1842,-81.56
1854,-61.79
1866,-39.11
1878,-16.02
1890,5.45
1902,24.01
1914,39.12
1926,50.68
1937,58.8
1948,63.62
1960,65.27
1972,64.1
1984,60.68
1996,55.86
2008,50.63
2020,45.89
2032,42.18
2044,39.63
2056,37.98
2068,36.86
2080,35.96
2092,35.16
2104,34.46
2116,33.85
2127,33.17
2138,32.16
2150,30.57
2162,28.36
2174,25.66
2186,22.82
2198,20.12
2210,17.72
2222,15.56
2234,13.43
2246,11.1
2258,8.45
2270,5.48
2282,2.33
2294,-0.8
2306,-3.68
2317,-6.15
2328,-8.17
2340,-9.79
2352,-11.22
2364,-12.68
2376,-14.39
2388,-16.46
2400,-18.91
2412,-21.72
2424,-24.88
2436,-28.51
2448,-32.86
2460,-38.25
2472,-44.86
2484,-52.44
2496,-60.15
2507,-66.53
2518,-69.83
2530,-68.49
2542,-61.68
2554,-49.6
2566,-33.48
2578,-15.21
2590,3.14
2602,19.87
2614,33.79
2626,44.3
2638,51.27
2650,54.89
2662,55.52
2674,53.69
2686,50.09
2697,45.52
2708,40.74
2720,36.45
2732,33.09
2744,30.88
2756,29.82
2768,29.77
2780,30.57
2792,32.07
2804,34.11
2816,36.42
2828,38.64
2840,40.27
2852,40.82
2864,39.98
2876,37.71
2887,34.21
2898,29.87
2910,25.12
2922,20.28
2934,15.55
2946,11.0
2958,6.59
2970,2.16
2982,-2.48
2994,-7.56
3006,-13.29
3018,-19.74
3030,-26.77
3042,-34.07
3054,-41.22
3066,-47.82
3077,-53.58
3088,-58.41
3100,-62.37
3112,-65.72
3124,-68.85
3136,-72.27
3148,-76.55
3160,-82.14
3172,-89.07
3184,-96.7
3196,-103.66
3208,-108.07
3220,-108.02
3232,-102.23
3244,-90.42
3256,-73.38
3267,-52.77
3278,-30.63
3290,-8.95
3302,10.62
3314,26.93
3326,39.36
3338,47.74
3350,52.31
3362,53.56
3374,52.18
3386,48.94
3398,44.68
3410,40.14
3422,36.0
3434,32.72
3446,30.49
3457,29.3
3468,29.02
3480,29.52
3492,30.79
3504,32.82
3516,35.48
3528,38.42
3540,41.07
3552,42.87
3564,43.49
3576,42.9
3588,41.4
3600,39.38
3612,37.17
3624,34.95
3636,32.66
3647,30.15
3658,27.27
3670,23.93
3682,20.18
3694,16.17
3706,12.1
3718,8.14
3730,4.36
3742,0.64
3754,-3.23
3766,-7.46
3778,-12.11
3790,-17.1
3802,-22.11
3814,-26.9
3826,-31.27
3837,-35.3
3848,-39.27
3860,-43.64
3872,-48.92
3884,-55.53
3896,-63.59
3908,-72.71
3920,-81.83
3932,-89.28
3944,-93.11
3956,-91.62
3968,-83.98
3980,-70.48
3992,-52.54
4004,-32.24
4016,-11.77
4027,7.05
4038,23.02
4050,35.51
4062,44.32
4074,49.52
4086,51.39
4098,50.42
4110,47.29
4122,42.76
4134,37.61
4146,32.47
4158,27.78
4170,23.79
4182,20.7
4194,18.59
4206,17.61
4217,17.82
4228,19.21
4240,21.56
4252,24.43
4264,27.22
4276,29.37
4288,30.44
4300,30.28
4312,29.03
4324,26.97
4336,24.39
4348,21.5
4360,18.36
4372,14.96
4384,11.27
4396,7.31
4407,3.21
4418,-0.89
4430,-4.85
4442,-8.57
4454,-12.06
4466,-15.37
4478,-18.66
4490,-21.99
4502,-25.44
4514,-28.93
4526,-32.36
4538,-35.62
4550,-38.7
4562,-41.75
4574,-45.06
4586,-49.04
4597,-54.1
4608,-60.5
4620,-68.04
4632,-75.88
4644,-82.61
4656,-86.38
4668,-85.53
4680,-79.05
4692,-66.99
4704,-50.46
4716,-31.26
4728,-11.44
4740,7.22
4752,23.43
4764,36.41
4776,45.79
4787,51.49
4798,53.72
4810,52.93
4822,49.84
4834,45.3
4846,40.17
4858,35.22
4870,30.98
4882,27.78
4894,25.74
4906,24.87
4918,25.14
4930,26.46
4942,28.77
4954,31.88
4966,35.5
4977,39.15
4988,42.21
5000,44.1
5012,44.41
5024,43.07
5036,40.35
5048,36.77
5060,32.88
5072,29.09
5084,25.52
5096,22.05
5108,18.46
5120,14.55
5132,10.27
5144,5.73
5156,1.15
5167,-3.25
5178,-7.38
5190,-11.3
5202,-15.2
5214,-19.34
5226,-23.88
5238,-28.85
5250,-34.05
5262,-39.17
5274,-43.88
5286,-48.01
5298,-51.65
5310,-55.14
5322,-59.02
5334,-63.92
5346,-70.34
5357,-78.45
5368,-87.78
5380,-97.05
5392,-104.36
5404,-107.53
5416,-104.81
5428,-95.44
5440,-79.92
5452,-59.89
5464,-37.57
5476,-15.22
5488,5.37
5500,23.03
5512,37.18
5524,47.59
5536,54.37
5547,57.81
5558,58.4
5570,56.79
5582,53.68
5594,49.75
5606,45.64
5618,41.87
5630,38.86
5642,36.9
5654,36.11
5666,36.5
5678,37.98
5690,40.39
5702,43.52
5714,47.08
5726,50.66
5737,53.77
5748,55.91
5760,56.72
5772,56.04
5784,53.99
5796,50.92
5808,47.18
5820,43.14
5832,39.0
5844,34.83
5856,30.64
5868,26.43
5880,22.2
5892,17.95
5904,13.65
5916,9.28
5927,4.9
5938,0.66
5950,-3.22
5962,-6.55
5974,-9.35
5986,-11.89
5998,-14.61
6010,-18.02
6022,-22.42
6034,-27.75
6046,-33.66
6058,-39.63
6070,-45.24
6082,-50.32
6094,-55.06
6106,-59.92
6117,-65.54
6128,-72.49
6140,-81.05
6152,-90.95
6164,-101.23
6176,-110.25
6188,-116.03
6200,-116.71
6212,-111.13
6224,-99.16
6236,-81.74
6248,-60.62
6260,-37.89
6272,-15.51
6284,4.95
6296,22.39
6307,36.15
6318,45.83
6330,51.27
6342,52.66
6354,50.68
6366,46.71
6378,42.76
6390,41.2
6402,44.07
6414,52.41
6426,65.86
6438,82.78
6450,100.8
6462,117.64
6474,131.7
6486,142.18
6497,148.9
6508,151.95
6520,151.66
6532,148.61
6544,143.7
6556,137.98
6568,132.18
6580,126.33
6592,119.63
6604,110.94
6616,99.41
6628,85.08
6640,68.93
6652,52.47
6664,37.05
6676,23.36
6687,11.38
6698,0.65
6710,-9.36
6722,-19.07
6734,-28.76
6746,-38.71
6758,-49.19
6770,-60.33
6782,-71.94
6794,-83.47
6806,-94.19
6818,-103.56
6830,-111.59
6842,-118.92
6854,-126.65
6866,-135.77
6877,-146.47
6888,-157.78
6900,-167.54
6912,-172.97
6924,-171.51
6936,-161.76
6948,-143.94
6960,-119.89
6972,-92.44
6984,-64.57
6996,-38.76
7008,-16.52
7020,1.46
7032,15.12
7044,24.67
7056,30.45
7067,32.91
7078,32.6
7090,30.23
7102,26.52
7114,22.18
7126,17.85
7138,14.07
7150,11.3
7162,9.93
7174,10.21
7186,12.22
7198,15.86
7210,20.79
7222,26.52
7234,32.41
7246,37.77
7257,41.96
7268,44.48
7280,45.16
7292,44.12
7304,41.79
7316,38.75
7328,35.52
7340,32.4
7352,29.43
7364,26.38
7376,22.97
7388,19.02
7400,14.66
7412,10.3
7424,6.43
7436,3.44
7447,1.34
7458,-0.22
7470,-1.87
7482,-4.19
7494,-7.5
7506,-11.67
7518,-16.3
7530,-20.83
7542,-24.82
7554,-28.11
7566,-30.81
7578,-33.3
7590,-36.13
7602,-39.85
7614,-44.77
7626,-50.52
7637,-55.86
7648,-58.69
7660,-56.53
7672,-47.27
7684,-30.05
7696,-5.6
7708,23.86
7720,55.41
7732,86.3
7744,114.57
7756,139.27
7768,160.18
7780,177.4
7792,191.07
7804,201.25
7816,208.15
7827,212.28
7838,214.56
7850,216.31
7862,218.97
7874,223.74
7886,231.18
7898,241.08
7910,252.38
7922,263.53
7934,272.83
7946,278.8
7958,280.25
7970,276.29
7982,266.44
7994,250.73
8006,230.03
8017,206.06
8028,181.05
8040,157.08
8052,135.3
8064,115.71
8076,97.29
8088,78.69
8100,58.86
8112,37.31
8124,14.08
8136,-10.6
8148,-36.48
8160,-63.32
8172,-90.73
8184,-118.19
8196,-145.14
8207,-171.35
8218,-197.11
8230,-223.4
8242,-251.82
8254,-284.35
8266,-322.8
8278,-367.88
8290,-418.27
8302,-470.05
8314,-517.14
8326,-552.84
8338,-571.94
8350,-572.43
8362,-555.89
8374,-526.54
8386,-489.25
8397,-447.87
8408,-404.43
8420,-359.53
8432,-313.3
8444,-266.12
8456,-218.56
8468,-170.79
8480,-122.1
8492,-71.16
8504,-17.17
8516,38.93
8528,93.88
8540,142.75
8552,180.43
8564,203.63
8576,212.0
8587,208.1
8598,196.26
8610,180.89
8622,165.17
8634,150.61
8646,137.36
8658,125.0
8670,113.15
8682,101.64
8694,90.32
8706,78.79
8718,66.31
8730,52.0
8742,35.14
8754,15.46
8766,-6.68
8777,-30.46
8788,-54.8
8800,-78.53
8812,-100.47
8824,-119.47
8836,-134.41
8848,-144.27
8860,-148.33
8872,-146.39
8884,-138.77
8896,-126.36
8908,-110.49
8920,-92.63
8932,-74.21
8944,-56.42
8956,-40.09
8967,-25.76
8978,-13.74
8990,-4.18
9002,2.89
9014,7.88
9026,11.82
9038,16.58
9050,24.63
9062,38.52
9074,60.14
9086,90.1
9098,127.45
9110,169.77
9122,213.61
9134,255.07
9146,290.35
9157,316.44
9168,331.49
9180,335.04
9192,327.86
9204,311.53
9216,287.97
9228,259.14
9240,226.98
9252,193.58
9264,161.15
9276,131.69
9288,106.47
9300,85.63
9312,68.18
9324,52.52
9336,37.25
9347,21.55
9358,5.28
9370,-11.47
9382,-28.73
9394,-46.87
9406,-66.31
9418,-87.15
9430,-109.02
9442,-131.09
9454,-152.45
9466,-172.48
9478,-190.94
9490,-207.85
9502,-223.24
9514,-236.97
9526,-248.86
9537,-258.85
9548,-267.32
9560,-275.12
9572,-283.32
9584,-292.84
9596,-303.95
9608,-316.01
9620,-327.54
9632,-336.5
9644,-340.86
9656,-339.23
9668,-331.38
9680,-318.34
9692,-302.14
9704,-285.07
9716,-268.77
9727,-253.55
9738,-238.31
9750,-221.0
9762,-199.61
9774,-172.96
9786,-141.04
9798,-104.81
9810,-65.72
9822,-25.3
9834,14.87
9846,52.98
9858,87.04
9870,115.06
9882,135.59
9894,148.23
9906,153.74
9917,153.7
9928,150.0
9940,144.31
9952,137.83
9964,131.42
9976,125.73
9988,121.37
10000,118.82
10012,118.33
10024,119.88
10036,123.12
10048,127.46
10060,132.22
10072,136.65
10084,140.07
10096,141.92
10107,141.79
10118,139.53
10130,135.24
10142,129.27
10154,122.15
10166,114.55
10178,107.09
10190,100.22
10202,94.11
10214,88.61
10226,83.38
10238,78.04
10250,72.34
10262,66.21
10274,59.82
10286,53.49
10297,47.58
10308,42.26
10320,37.51
10332,32.94
10344,28.03
10356,22.26
10368,15.35
10380,7.39
10392,-1.21
10404,-9.92
10416,-18.33
10428,-26.29
10440,-33.98
10452,-41.85
10464,-50.49
10476,-60.5
10487,-72.22
10498,-85.37
10510,-98.77
10522,-110.29
10534,-117.23
10546,-117.08
10558,-108.33
10570,-91.12
10582,-67.23
10594,-39.54
10606,-11.26
10618,14.86
10630,36.94
10642,54.06
10654,66.01
10666,73.03
10677,75.59
10688,74.33
10700,69.99
10712,63.51
10724,56.01
10736,48.67
10748,42.61
10760,38.68
10772,37.32
10784,38.52
10796,41.98
10808,47.21
10820,53.7
10832,60.94
10844,68.32
10856,75.12
10867,80.56
10878,83.99
10890,85.13
10902,84.1
10914,81.4
10926,77.66
10938,73.36
10950,68.71
10962,63.7
10974,58.21
10986,52.22
10998,45.92
11010,39.68
11022,33.87
11034,28.75
11046,24.31
11057,20.33
11068,16.5
11080,12.57
11092,8.48
11104,4.35
11116,0.37
11128,-3.3
11140,-6.68
11152,-10.04
11164,-13.88
11176,-18.81
11188,-25.4
11200,-34.0
11212,-44.37
11224,-55.5
11236,-65.63
11247,-72.51
11258,-74.0
11270,-68.67
11282,-56.28
11294,-37.85
11306,-15.33
11318,8.84
11330,32.37
11342,53.41
11354,70.81
11366,83.97
11378,92.7
11390,97.09
11402,97.42
11414,94.15
11426,87.98
11437,79.87
11448,70.96
11460,62.46
11472,55.37
11484,50.34
11496,47.57
11508,46.92
11520,48.04
11532,50.51
11544,53.95
11556,57.89
11568,61.8
11580,65.03
11592,66.97
11604,67.17
11616,65.53
11627,62.34
11638,58.13
11650,53.49
11662,48.82
11674,44.22
11686,39.53
11698,34.53
11710,29.08
11722,23.28
11734,17.39
11746,11.75
11758,6.6
11770,2.0
11782,-2.21
11794,-6.28
11806,-10.42
11817,-14.74
11828,-19.25
11840,-23.83
11852,-28.37
11864,-32.81
11876,-37.2
11888,-41.77
11900,-46.87
11912,-53.02
11924,-60.71
11936,-70.17
11948,-81.0
11960,-91.96
11972,-100.95
11984,-105.56
11996,-103.7
12007,-94.41
12018,-78.2
12030,-56.95
12042,-33.3
12054,-9.8
12066,11.6
12078,29.82
12090,44.42
12102,55.34
12114,62.65
12126,66.46
12138,67.07
12150,65.0
12162,61.01
12174,55.98
12186,50.79
12197,46.16
12208,42.6
12220,40.4
12232,39.64
12244,40.21
12256,41.93
12268,44.5
12280,47.62
12292,50.92
12304,53.97
12316,56.37
12328,57.73
12340,57.78
12352,56.44
12364,53.81
12376,50.16
12387,45.87
12398,41.39
12410,37.04
12422,33.05
12434,29.44
12446,26.03
12458,22.53
12470,18.7
12482,14.46
12494,10.01
12506,5.77
12518,2.2
12530,-0.45
12542,-2.28
12554,-3.76
12566,-5.53
12577,-8.14
12588,-11.82
12600,-16.38
12612,-21.31
12624,-26.03
12636,-30.05
12648,-33.19
12660,-35.6
12672,-37.71
12684,-40.14
12696,-43.6
12708,-48.59
12720,-55.16
12732,-62.56
12744,-69.1
12756,-72.46
12767,-70.32
12778,-61.21
12790,-45.17
12802,-23.99
12814,-0.63
12826,21.65
12838,40.28
12850,53.91
12862,62.52
12874,66.92
12886,68.29
12898,67.67
12910,65.82
12922,63.23
12934,60.23
12946,57.12
12957,54.23
12968,51.86
12980,50.25
12992,49.56
13004,49.78
13016,50.78
13028,52.35
13040,54.21
13052,55.95
13064,57.06
13076,56.89
13088,54.81
13100,50.33
13112,43.38
13124,34.38
13136,24.22
13147,13.99
13158,4.73
13170,-2.92
13182,-8.79
13194,-13.2
13206,-16.79
13218,-20.32
13230,-24.34
13242,-29.14
13254,-34.58
13266,-40.27
13278,-45.66
13290,-50.24
13302,-53.64
13314,-55.67
13326,-56.32
13337,-55.72
13348,-54.15
13360,-52.12
13372,-50.26
13384,-49.27
13396,-49.69
13408,-51.73
13420,-55.16
13432,-59.44
13444,-63.92
13456,-68.1
13468,-71.75
13480,-75.02
13492,-78.27
13504,-82.02
13516,-86.74
13527,-92.79
13538,-100.22
13550,-108.55
13562,-116.63
13574,-122.66
13586,-124.59
13598,-120.64
13610,-109.98
13622,-93.04
13634,-71.53
13646,-47.87
13658,-24.61
13670,-3.77
13682,13.41
13694,26.49
13706,35.55
13717,40.98
13728,43.2
13740,42.71
13752,40.09
13764,36.04
13776,31.3
13788,26.65
13800,22.71
13812,19.96
13824,18.65
13836,18.87
13848,20.57
13860,23.62
13872,27.73
13884,32.5
13896,37.32
13907,41.5
13918,44.42
13930,45.71
13942,45.32
13954,43.51
13966,40.71
13978,37.31
13990,33.52
14002,29.38
14014,24.83
14026,19.86
14038,14.54
14050,9.1
14062,3.81
14074,-1.15
14086,-5.74
14097,-10.08
14108,-14.44
14120,-19.04
14132,-24.03
14144,-29.4
14156,-34.98
14168,-40.52
14180,-45.75
14192,-50.5
14204,-54.74
14216,-58.65
14228,-62.63
14240,-67.22
14252,-73.01
14264,-80.32
14276,-88.92
14287,-97.73
14298,-104.87
14310,-107.99
14322,-104.99
14334,-94.75
14346,-77.49
14358,-54.82
14370,-29.23
14382,-3.41
14394,20.33
14406,40.4
14418,56.05
14430,67.12
14442,73.97
14454,77.26
14466,77.82
14477,76.49
14488,74.02
14500,71.03
14512,67.94
14524,65.12
14536,62.84
14548,61.41
14560,61.16
14572,62.36
14584,65.2
14596,69.67
14608,75.48
14620,82.02
14632,88.45
14644,93.82
14656,97.33
14667,98.49
14678,97.24
14690,93.97
14702,89.36
14714,84.18
14726,79.12
14738,74.56
14750,70.58
14762,66.92
14774,63.22
14786,59.25
14798,55.12
14810,51.17
14822,47.63
14834,44.15
14846,39.62
14857,32.46
14868,21.19
14880,5.33
14892,-14.34
14904,-36.0
14916,-57.54
14928,-77.41
14940,-95.12
14952,-111.09
14964,-126.24
14976,-141.36
14988,-156.87
15000,-172.57
15012,-187.59
15024,-200.29
15036,-208.37
15047,-209.27
15058,-201.04
15070,-183.19
15082,-157.23
15094,-126.37
15106,-94.56
15118,-65.32
15130,-40.84
15142,-21.82
15154,-7.85
15166,1.91
15178,8.32
15190,12.06
15202,13.71
15214,13.77
15226,12.62
15237,10.52
15248,7.54
15260,3.83
15272,-0.36
15284,-4.47
15296,-7.73
15308,-9.37
15320,-8.85
15332,-6.01
15344,-1.13
15356,5.12
15368,11.89
15380,18.24
15392,23.34
15404,26.66
15416,28.06
15427,27.82
15438,26.54
15450,24.88
15462,23.32
15474,21.93
15486,20.39
15498,18.21
15510,15.05
15522,10.99
15534,6.51
15546,2.32
15558,-1.1
15570,-3.7
15582,-6.02
15594,-8.89
15606,-13.1
15617,-19.0
15628,-26.36
15640,-34.56
15652,-42.84
15664,-50.59
15676,-57.51
15688,-63.7
15700,-69.54
15712,-75.69
15724,-82.9
15736,-91.84
15748,-102.79
15760,-115.29
15772,-127.88
15784,-138.24
15796,-143.61
15807,-141.69
15818,-131.34
15830,-113.04
15842,-88.76
15854,-61.37
15866,-33.83
15878,-8.57
15890,12.89
15902,29.82
15914,42.04
15926,49.67
15938,53.02
15950,52.61
15962,49.22
15974,43.92
15986,37.89
15997,32.25
16008,27.85
16020,25.14
16032,24.19
16044,24.81
16056,26.69
16068,29.5
16080,33.0
16092,36.93
16104,40.97
16116,44.67
16128,47.44
16140,48.69
16152,47.95
16164,45.03
16176,40.12
16187,33.74
16198,26.6
16210,19.47
16222,13.01
16234,7.68
16246,3.73
16258,1.21
16270,-0.05
16282,-0.37
16294,-0.22
16306,-0.05
16318,-0.29
16330,-1.21
16342,-2.89
16354,-5.24
16366,-8.07
16377,-11.28
16388,-14.85
16400,-18.98
16412,-24.0
16424,-30.27
16436,-37.9
16448,-46.54
16460,-55.09
16472,-61.78
16484,-64.52
16496,-61.44
16508,-51.59
16520,-35.35
16532,-14.35
16544,9.03
16556,32.28
16567,53.43
16578,71.21
16590,84.96
16602,94.39
16614,99.34
16626,99.8
16638,96.09
16650,88.95
16662,79.52
16674,69.22
16686,59.41
16698,51.16
16710,45.11
16722,41.47
16734,40.04
16746,40.39
16757,42.02
16768,44.42
16780,47.14
16792,49.79
16804,52.01
16816,53.4
16828,53.52
16840,52.0
16852,48.7
16864,43.74
16876,37.52
16888,30.64
16900,23.72
16912,17.18
16924,11.17
16936,5.51
16947,-0.19
16958,-6.38
16970,-13.31
16982,-20.91
16994,-28.75
17006,-36.21
17018,-42.79
17030,-48.26
17042,-52.8
17054,-56.92
17066,-61.32
17078,-66.74
17090,-73.8
17102,-82.79
17114,-93.45
17126,-104.67
17137,-114.47
17148,-120.18
17160,-119.25
17172,-110.03
17184,-92.48
17196,-68.26
17208,-40.25
17220,-11.64
17232,14.83
17244,37.33
17256,55.03
17268,67.75
17280,75.71
17292,79.35
17304,79.22
17316,76.14
17327,71.04
17338,64.9
17350,58.63
17362,52.94
17374,48.33
17386,45.21
17398,43.88
17410,44.52
17422,47.14
17434,51.48
17446,57.02
17458,62.98
17470,68.58
17482,73.08
17494,76.04
17506,77.23
17517,76.62
17528,74.26
17540,70.21
17552,64.64
17564,57.82
17576,50.21
17588,42.34
17600,34.73
17612,27.69
17624,21.26
17636,15.24
17648,9.29
17660,3.15
17672,-3.2
17684,-9.63
17696,-15.87
17707,-21.74
17718,-27.14
17730,-32.19
17742,-37.1
17754,-42.18
17766,-47.78
17778,-54.34
17790,-62.31
17802,-71.99
17814,-83.24
17826,-95.13
17838,-105.81
17850,-112.89
17862,-114.01
17874,-107.58
17886,-93.43
17897,-72.84
17908,-48.12
17920,-22.02
17932,2.99
17944,25.12
17956,43.41
17968,57.5
17980,67.48
17992,73.66
18004,76.5
18016,76.56
18028,74.5
18040,71.02
18052,66.88
18064,62.8
18076,59.42
18087,57.18
18098,56.35
18110,56.99
18122,59.01
18134,62.16
18146,66.12
18158,70.4
18170,74.47
18182,77.72
18194,79.64
18206,79.85
18218,78.24
18230,74.97
18242,70.43
18254,65.14
18266,59.62
18277,54.3
18288,49.45
18300,45.06
18312,40.9
18324,36.61
18336,31.8
18348,26.29
18360,20.21
18372,13.94
18384,8.07
18396,3.06
18408,-0.98
18420,-4.3
18432,-7.46
18444,-11.06
18456,-15.48
18467,-20.76
18478,-26.63
18490,-32.64
18502,-38.37
18514,-43.56
18526,-48.25
18538,-52.68
18550,-57.29
18562,-62.65
18574,-69.33
18586,-77.68
18598,-87.49
18610,-97.74
18622,-106.6
18634,-111.73
18646,-110.96
18657,-103.02
18668,-88.01
18680,-67.41
18692,-43.68
18704,-19.5
18716,2.9
18728,22.0
18740,37.11
18752,48.04
18764,54.95
18776,58.2
18788,58.29
18800,55.88
18812,51.78
18824,46.8
18836,41.71
18847,37.11
18858,33.45
18870,31.02
18882,29.97
18894,30.32
18906,31.97
18918,34.7
18930,38.12
18942,41.68
18954,44.76
18966,46.72
18978,47.12
18990,45.82
19002,43.02
19014,39.23
19026,35.02
19037,30.85
19048,26.9
19060,23.1
19072,19.22
19084,15.05
19096,10.49
19108,5.62
19120,0.67
19132,-4.08
19144,-8.37
19156,-12.08
19168,-15.24
19180,-18.09
19192,-20.93
19204,-24.06
19216,-27.66
19227,-31.7
19238,-35.99
19250,-40.34
19262,-44.63
19274,-48.93
19286,-53.55
19298,-58.93
19310,-65.59
19322,-73.84
19334,-83.5
19346,-93.63
19358,-102.47
19370,-107.77
19382,-107.35
19394,-99.9
19406,-85.43
19417,-65.34
19428,-42.0
19440,-17.99
19452,4.47
19464,23.9
19476,39.52
19488,51.05
19500,58.44
19512,61.88
19524,61.75
19536,58.68
19548,53.61
19560,47.59
19572,41.64
19584,36.59
19596,32.94
19607,30.86
19618,30.27
19630,31.0
19642,32.82
19654,35.54
19666,38.95
19678,42.76
19690,46.52
19702,49.72
19714,51.82
19726,52.43
19738,51.4
19750,48.87
19762,45.15
19774,40.69
19786,35.93
19797,31.2
19808,26.67
19820,22.3
19832,17.93
19844,13.38
19856,8.63
19868,3.77
19880,-0.94
19892,-5.21
19904,-8.84
19916,-11.82
19928,-14.34
19940,-16.73
19952,-19.37
19964,-22.6
19976,-26.56
19987,-31.25
19998,-36.43
20010,-41.77
20022,-46.92
20034,-51.66
20046,-56.07
20058,-60.48
20070,-65.49
20082,-71.76
20094,-79.68
20106,-89.02
20118,-98.67
20130,-106.71
20142,-110.83
20154,-109.0
20166,-100.11
20177,-84.4
20188,-63.35
20200,-39.28
20212,-14.71
20224,8.17
20236,27.84
20248,43.5
20260,54.92
20272,62.26
20284,65.95
20296,66.55
20308,64.71
20320,61.13
20332,56.54
20344,51.64
20356,47.04
20367,43.23
20378,40.55
20390,39.11
20402,38.88
20414,39.75
20426,41.56
20438,44.14
20450,47.21
20462,50.42
20474,53.3
20486,55.32
20498,55.96
20510,54.92
20522,52.16
20534,47.97
20546,42.89
20557,37.56
20568,32.51
20580,28.01
20592,24.01
20604,20.23
20616,16.33
20628,12.08
20640,7.47
20652,2.73
20664,-1.83
20676,-5.9
20688,-9.36
20700,-12.31
20712,-15.03
20724,-17.91
20736,-21.36
20747,-25.62
20758,-30.7
20770,-36.36
20782,-42.21
20794,-47.84
20806,-52.92
20818,-57.39
20830,-61.49
20842,-65.72
20854,-70.74
20866,-77.18
20878,-85.26
20890,-94.54
20902,-103.68
20914,-110.58
20926,-112.9
20937,-108.7
20948,-97.18
20960,-78.97
20972,-56.02
20984,-30.98
20996,-6.53
