seconds,BVP
1,-2.56
13,-7.87
25,-13.14
37,-18.02
49,-22.03
61,-24.67
73,-25.68
85,-25.13
97,-23.46
109,-21.31
121,-19.26
133,-17.61
145,-16.31
157,-15.07
169,-13.52
180,-11.37
191,-8.53
203,-5.01
215,-0.88
227,3.79
239,8.92
251,14.5
263,20.25
275,25.62
287,29.9
299,32.5
311,33.18
323,32.11
335,29.87
347,27.21
359,25.01
370,23.89
381,23.99
393,25.0
405,26.4
417,27.59
429,28.15
441,27.87
453,26.8
465,25.49
477,24.43
489,23.81
501,23.51
513,23.39
525,23.4
537,23.56
549,23.95
560,24.52
571,26.04
583,28.92
595,33.13
607,38.37
619,44.7
631,52.48
643,61.94
655,72.73
667,83.85
679,95.7
691,108.14
703,120.09
715,130.01
727,136.96
739,140.93
750,142.5
761,142.41
773,141.34
785,142.75
797,148.72
809,158.69
821,169.96
833,179.81
845,186.76
857,190.43
869,190.96
881,188.56
893,187.0
905,188.53
917,192.46
929,195.95
940,196.53
951,193.35
963,186.66
975,177.03
987,142.45
999,75.47
1011,-13.1
1023,-101.11
1035,-171.58
1047,-219.66
1059,-248.41
1071,-263.12
1083,-268.32
1095,-267.29
1107,-258.73
1119,-242.72
1130,-222.34
1141,-202.66
1153,-187.63
1165,-178.37
1177,-173.93
1189,-172.15
1201,-171.15
1213,-167.07
1225,-158.09
1237,-145.33
1249,-131.74
1261,-119.73
1273,-109.96
1285,-101.72
1297,-93.95
1309,-85.97
1320,-75.98
1331,-63.5
1343,-49.85
1355,-37.55
1367,-28.65
1379,-24.39
1391,-24.76
1403,-28.65
1415,-34.22
1427,-38.57
1439,-39.7
1451,-37.4
1463,-33.28
1475,-29.74
1487,-28.74
1499,-31.02
1510,-35.92
1521,-41.79
1533,-46.4
1545,-48.2
1557,-46.81
1569,-42.81
1581,-37.21
1593,-30.83
1605,-24.09
1617,-17.15
1629,-10.16
1641,-3.46
1653,2.41
1665,6.88
1677,9.53
1689,10.24
1700,9.21
1711,6.84
1723,3.58
1735,-0.14
1747,-3.85
1759,-6.99
1771,-8.92
1783,-9.08
1795,-7.28
1807,-3.86
1819,0.38
1831,4.44
1843,7.59
1855,9.59
1867,10.82
1879,11.99
1890,13.86
1901,16.89
1913,21.21
1925,26.64
1937,32.76
1949,39.04
1961,44.92
1973,49.85
1985,53.41
1997,55.3
2009,55.35
2021,53.45
2033,49.57
2045,43.81
2057,36.59
2069,28.67
2080,21.03
2091,14.59
2103,9.91
2115,6.97
2127,5.31
2139,4.31
2151,3.42
2163,2.37
2175,1.06
2187,-0.53
2199,-2.5
2211,-4.9
2223,-7.62
2235,-10.26
2247,-12.21
2259,-12.98
2270,-12.42
2281,-10.88
2293,-9.04
2305,-7.63
2317,-7.09
2329,-7.41
2341,-8.13
2353,-8.59
2365,-8.21
2377,-6.6
2389,-3.64
2401,0.59
2413,5.68
2425,11.01
2437,15.83
2449,19.55
2460,21.89
2471,22.87
2483,22.81
2495,22.22
2507,21.61
2519,21.21
2531,20.92
2543,20.33
2555,19.02
2567,16.72
2579,13.4
2591,9.33
2603,5.1
2615,1.25
2627,-1.96
2639,-4.74
2650,-7.53
2661,-10.94
2673,-14.8
2685,-19.03
2697,-24.12
2709,-30.87
2721,-39.35
2733,-48.39
2745,-56.05
2757,-60.56
2769,-61.35
2781,-59.1
2793,-55.35
2805,-51.19
2817,-46.28
2829,-38.9
2840,-27.15
2851,-10.49
2863,9.63
2875,30.16
2887,47.87
2899,60.71
2911,68.37
2923,72.09
2935,73.72
2947,74.52
2959,74.61
2971,74.01
2983,72.13
2995,69.23
3007,66.09
3019,63.47
3030,61.57
3041,60.02
3053,58.27
3065,55.8
3077,53.03
3089,51.08
3101,51.05
3113,53.22
3125,56.64
3137,59.58
3149,60.5
3161,59.07
3173,55.97
3185,53.12
3197,52.41
3209,54.65
3220,58.98
3231,63.31
3243,65.12
3255,62.19
3267,56.48
3279,48.96
3291,40.66
3303,32.0
3315,22.54
3327,11.32
3339,-2.4
3351,-18.42
3363,-35.45
3375,-51.53
3387,-65.39
3399,-76.29
3410,-84.33
3421,-90.0
3433,-93.74
3445,-95.51
3457,-94.95
3469,-91.68
3481,-85.59
3493,-77.48
3505,-68.36
3517,-59.29
3529,-51.18
3541,-44.6
3553,-39.74
3565,-36.52
3577,-34.58
3589,-33.41
3600,-32.65
3611,-31.85
3623,-30.58
3635,-28.41
3647,-24.96
3659,-19.91
3671,-13.2
3683,-5.23
3695,3.13
3707,10.46
3719,15.43
3731,17.23
3743,15.89
3755,12.23
3767,7.52
3779,2.81
3790,-1.58
3801,-6.28
3813,-12.85
3825,-23.16
3837,-38.84
3849,-60.63
3861,-88.08
3873,-119.47
3885,-152.08
3897,-182.79
3909,-208.65
3921,-227.59
3933,-238.66
3945,-242.13
3957,-239.45
3969,-232.87
3980,-224.88
3991,-217.6
4003,-212.38
4015,-209.36
4027,-207.34
4039,-203.76
4051,-194.96
4063,-177.3
4075,-148.31
4087,-107.93
4099,-58.97
4111,-6.68
4123,42.81
4135,84.43
4147,115.63
4159,136.88
4170,149.99
4181,156.62
4193,157.63
4205,153.44
4217,144.85
4229,133.35
4241,120.58
4253,106.97
4265,91.55
4277,70.5
4289,39.02
4301,-5.23
4313,-59.51
4325,-116.45
4337,-166.83
4349,-203.24
4360,-222.44
4371,-223.76
4383,-210.57
4395,-187.91
4407,-159.33
4419,-125.45
4431,-85.56
4443,-39.75
4455,10.06
4467,60.53
4479,111.32
4491,160.99
4503,207.08
4515,247.8
4527,282.83
4539,312.31
4550,335.87
4561,352.98
4573,363.75
4585,373.08
4597,383.13
4609,391.44
4621,393.2
4633,384.27
4645,362.81
4657,330.33
4669,292.31
4681,232.51
4693,157.81
4705,90.32
4717,46.05
4729,23.46
4740,11.97
4751,2.71
4763,-8.0
4775,-20.32
4787,-33.89
4799,-45.63
4811,-56.03
4823,-68.3
4835,-84.13
4847,-101.48
4859,-116.53
4871,-126.55
4883,-131.13
4895,-131.71
4907,-128.26
4919,-121.56
4930,-114.31
4941,-108.86
4953,-105.62
4965,-103.72
4977,-102.22
4989,-100.33
5001,-97.32
5013,-90.65
5025,-79.18
5037,-63.86
5049,-46.66
5061,-29.53
5073,-14.29
5085,-2.48
5097,5.14
5109,8.8
5120,9.97
5131,9.16
5143,6.3
5155,1.23
5167,-5.73
5179,-13.59
5191,-20.68
5203,-24.83
5215,-24.25
5227,-18.65
5239,-9.97
5251,-1.74
5263,2.54
5275,0.82
5287,-6.79
5299,-18.26
5310,-30.59
5321,-38.81
5333,-39.48
5345,-33.11
5357,-23.86
5369,-15.88
5381,-10.92
5393,-8.37
5405,-6.77
5417,-4.85
5429,-2.06
5441,1.12
5453,4.02
5465,6.3
5477,8.12
5489,9.45
5500,10.74
5511,12.17
5523,13.88
5535,16.07
5547,18.76
5559,22.05
5571,26.18
5583,31.51
5595,38.14
5607,45.8
5619,53.87
5631,61.81
5643,69.59
5655,76.33
5667,82.14
5679,87.81
5690,94.24
5701,101.51
5713,108.55
5725,113.29
5737,113.64
5749,108.31
5761,97.14
5773,81.2
5785,62.15
5797,41.65
5809,21.16
5821,1.86
5833,-15.19
5845,-29.03
5857,-38.99
5869,-45.06
5880,-47.96
5891,-49.17
5903,-50.63
5915,-54.16
5927,-60.94
5939,-71.13
5951,-83.79
5963,-97.14
5975,-109.28
5987,-118.81
5999,-125.39
6011,-129.8
6023,-133.54
6035,-138.07
6047,-144.4
6059,-152.71
6070,-162.66
6081,-173.65
6093,-184.88
6105,-195.27
6117,-203.55
6129,-208.55
6141,-209.57
6153,-206.66
6165,-200.37
6177,-191.59
6189,-180.98
6201,-168.73
6213,-154.44
6225,-137.56
6237,-117.73
6249,-94.78
6260,-68.54
6271,-38.34
6283,-3.63
6295,35.28
6307,76.71
6319,117.65
6331,154.2
6343,182.55
6355,200.2
6367,206.51
6379,203.66
6391,194.61
6403,181.91
6415,167.37
6427,152.52
6439,138.7
6450,126.6
6461,116.26
6473,106.6
6485,97.59
6497,88.21
6509,76.52
6521,61.03
6533,42.35
6545,23.0
6557,5.81
6569,-6.7
6581,-13.42
6593,-11.69
6605,-0.89
6617,16.58
6629,36.82
6640,56.84
6651,75.03
6663,90.31
6675,102.82
6687,113.06
6699,125.68
6711,143.82
6723,166.94
6735,191.91
6747,216.0
6759,237.52
6771,254.96
6783,268.07
6795,252.98
6807,201.07
6819,125.98
6830,51.92
6841,-5.98
6853,-45.31
6865,-67.55
6877,-82.69
6889,-97.25
6901,-114.92
6913,-133.35
6925,-150.62
6937,-167.26
6949,-184.59
6961,-199.86
6973,-208.94
6985,-210.18
6997,-203.81
7009,-190.53
7020,-167.31
7031,-133.39
7043,-93.2
7055,-55.1
7067,-26.8
7079,-12.17
7091,-8.59
7103,-11.14
7115,-14.93
7127,-15.0
7139,-10.43
7151,-3.96
7163,0.96
7175,3.64
7187,6.7
7199,15.02
7210,33.39
7221,60.57
7233,93.59
7245,126.88
7257,154.13
7269,170.24
7281,172.42
7293,159.86
7305,133.87
7317,96.94
7329,52.15
7341,4.2
7353,-41.78
7365,-81.67
7377,-113.77
7389,-138.85
7400,-158.54
7411,-172.11
7423,-176.56
7435,-168.42
7447,-145.15
7459,-106.87
7471,-56.77
7483,-0.27
7495,55.58
7507,97.38
7519,116.78
7531,117.17
7543,108.18
7555,97.53
7567,87.98
7579,78.74
7590,67.54
7601,52.52
7613,33.42
7625,12.9
7637,-5.41
7649,-19.08
7661,-27.34
7673,-30.66
7685,-30.26
7697,-27.69
7709,-24.42
7721,-21.35
7733,-17.95
7745,-13.59
7757,-8.77
7769,-4.76
7780,-2.5
7791,-2.1
7803,-2.92
7815,-4.14
7827,-5.13
7839,-5.07
7851,-3.73
7863,-1.86
7875,-0.77
7887,-1.49
7899,-4.34
7911,-8.8
7923,-13.65
7935,-17.19
7947,-17.87
7959,-15.24
7970,-10.82
7981,-7.7
7993,-9.18
8005,-17.28
8017,-31.2
8029,-47.94
8041,-62.97
8053,-72.56
8065,-75.26
8077,-72.27
8089,-66.56
8101,-61.12
8113,-57.74
8125,-56.64
8137,-56.82
8149,-56.32
8160,-53.5
8171,-46.94
8183,-35.97
8195,-21.21
8207,-4.72
8219,10.9
8231,23.72
8243,33.58
8255,43.12
8267,54.62
8279,69.51
8291,87.14
8303,104.72
8315,118.49
8327,125.35
8339,124.04
8350,113.61
8361,97.63
8373,79.2
8385,60.82
8397,44.2
8409,30.23
8421,19.18
8433,10.71
8445,3.94
8457,-2.26
8469,-8.52
8481,-15.6
8493,-23.45
8505,-31.46
8517,-38.73
8529,-44.38
8540,-47.79
8551,-48.76
8563,-47.73
8575,-44.75
8587,-40.73
8599,-36.43
8611,-32.31
8623,-28.56
8635,-25.09
8647,-21.77
8659,-18.58
8671,-15.54
8683,-12.55
8695,-9.77
8707,-7.1
8719,-4.24
8730,-0.85
8741,3.32
8753,8.15
8765,13.22
8777,18.11
8789,22.54
8801,26.22
8813,29.03
8825,30.78
8837,31.19
8849,30.03
8861,27.11
8873,22.7
8885,17.71
8897,13.26
8909,10.04
8920,8.03
8931,6.34
8943,3.46
8955,-1.86
8967,-10.42
8979,-22.04
8991,-34.6
9003,-45.3
9015,-52.0
9027,-53.87
9039,-51.41
9051,-47.17
9063,-41.65
9075,-35.54
9087,-29.82
9099,-25.53
9110,-23.84
9121,-25.78
9133,-31.64
9145,-40.69
9157,-51.16
9169,-60.62
9181,-65.64
9193,-64.04
9205,-55.29
9217,-40.86
9229,-23.73
9241,-7.25
9253,5.99
9265,14.89
9277,20.04
9289,22.68
9300,23.83
9311,23.88
9323,22.32
9335,18.28
9347,11.14
9359,1.11
9371,-10.7
9383,-22.46
9395,-32.35
9407,-39.07
9419,-41.91
9431,-40.82
9443,-36.21
9455,-28.72
9467,-19.13
9479,-8.25
9490,3.09
9501,13.97
9513,23.45
9525,30.94
9537,36.35
9549,40.22
9561,43.62
9573,47.85
9585,54.02
9597,62.68
9609,73.6
9621,85.87
9633,98.21
9645,109.45
9657,118.8
9669,126.01
9680,131.27
9691,134.93
9703,137.26
9715,138.41
9727,138.37
9739,137.13
9751,134.84
9763,131.71
9775,127.96
9787,123.71
9799,118.84
9811,113.11
9823,106.33
9835,98.32
9847,88.79
9859,77.15
9870,62.45
9881,43.81
9893,20.85
9905,-5.94
9917,-35.13
9929,-64.74
9941,-92.67
9953,-117.32
9965,-137.76
9977,-153.79
9989,-165.33
10001,-172.47
10013,-175.56
10025,-175.42
10037,-173.06
10049,-169.35
10060,-164.67
10071,-158.81
10083,-151.5
10095,-142.31
10107,-131.17
10119,-118.67
10131,-105.91
10143,-93.85
10155,-82.96
10167,-73.08
10179,-63.69
10191,-54.48
10203,-44.9
10215,-34.47
10227,-23.07
10239,-10.94
10250,1.57
10261,14.2
10273,26.75
10285,40.54
10297,53.72
10309,63.45
10321,68.04
10333,67.64
10345,63.36
10357,56.79
10369,49.77
10381,44.07
10393,40.97
10405,40.54
10417,42.48
10429,46.13
10440,50.36
10451,53.77
10463,54.9
10475,52.73
10487,47.02
10499,38.64
10511,28.45
10523,18.29
10535,10.21
10547,5.5
10559,4.08
10571,4.42
10583,4.52
10595,2.78
10607,-1.22
10619,-7.17
10630,-13.7
10641,-19.11
10653,-22.14
10665,-22.47
10677,-20.87
10689,-18.58
10701,-16.96
10713,-15.49
10725,-14.7
10737,-15.19
10749,-17.16
10761,-20.21
10773,-21.2
10785,-17.61
10797,-8.84
10809,3.17
10820,15.11
10831,23.6
10843,26.58
10855,23.82
10867,17.15
10879,9.02
10891,1.78
10903,-2.59
10915,-3.19
10927,-0.34
10939,5.85
10951,13.53
10963,20.36
10975,24.34
10987,24.23
10999,19.83
11010,11.9
11021,1.76
11033,-9.22
11045,-19.84
11057,-29.3
11069,-37.04
11081,-42.95
11093,-47.61
11105,-51.84
11117,-56.24
11129,-61.06
11141,-66.14
11153,-70.76
11165,-73.98
11177,-74.77
11189,-72.59
11200,-67.59
11211,-59.99
11223,-49.82
11235,-37.09
11247,-22.01
11259,-4.83
11271,14.15
11283,34.66
11295,56.21
11307,75.93
11319,89.29
11331,93.88
11343,91.25
11355,84.51
11367,75.98
11379,66.94
11390,58.34
11401,51.08
11413,46.0
11425,44.05
11437,45.32
11449,48.6
11461,51.46
11473,51.46
11485,47.34
11497,39.58
11509,30.2
11521,20.56
11533,12.32
11545,6.28
11557,2.41
11569,0.04
11580,-1.39
11591,-1.94
11603,-1.4
11615,-0.0
11627,1.35
11639,1.7
11651,-0.42
11663,-5.93
11675,-15.01
11687,-27.1
11699,-41.64
11711,-57.02
11723,-72.79
11735,-89.44
11747,-103.2
11759,-110.33
11770,-107.66
11781,-93.94
11793,-70.38
11805,-40.64
11817,-10.18
11829,15.15
11841,31.32
11853,37.98
11865,37.46
11877,33.66
11889,29.95
11901,27.87
11913,27.2
11925,26.92
11937,26.44
11949,26.16
11960,27.32
11971,30.34
11983,34.46
11995,37.94
12007,38.84
12019,35.99
12031,29.54
12043,20.82
12055,11.57
12067,3.56
12079,-2.42
12091,-6.46
12103,-9.28
12115,-11.91
12127,-15.37
12139,-20.58
12150,-26.61
12161,-32.93
12173,-38.71
12185,-43.04
12197,-44.95
12209,-43.61
12221,-38.73
12233,-30.67
12245,-20.37
12257,-9.02
12269,2.1
12281,12.23
12293,21.16
12305,28.95
12317,35.78
12329,41.69
12340,46.62
12351,50.56
12363,53.67
12375,56.1
12387,58.05
12399,59.6
12411,60.53
12423,60.4
12435,58.64
12447,54.83
12459,48.83
12471,40.86
12483,31.3
12495,20.82
12507,10.17
12519,0.09
12530,-8.7
12541,-15.63
12553,-20.28
12565,-22.54
12577,-22.69
12589,-21.41
12601,-19.65
12613,-18.35
12625,-18.15
12637,-19.17
12649,-20.91
12661,-22.52
12673,-23.19
12685,-22.56
12697,-20.92
12709,-19.09
12720,-18.08
12731,-18.64
12743,-20.96
12755,-24.65
12767,-28.91
12779,-32.65
12791,-34.77
12803,-34.33
12815,-30.82
12827,-24.32
12839,-15.65
12851,-6.18
12863,2.5
12875,9.19
12887,13.46
12899,15.75
12910,17.01
12921,18.22
12933,19.91
12945,22.11
12957,24.5
12969,26.77
12981,28.72
12993,30.34
13005,31.55
13017,32.16
13029,31.85
13041,30.37
13053,27.72
13065,24.18
13077,20.23
13089,16.31
13100,12.71
13111,9.39
13123,6.11
13135,2.55
13147,-1.55
13159,-6.28
13171,-11.58
13183,-17.23
13195,-22.95
13207,-28.51
13219,-33.83
13231,-39.01
13243,-44.26
13255,-49.8
13267,-55.69
13279,-61.78
13290,-67.72
13301,-73.16
13313,-77.9
13325,-82.02
13337,-85.81
13349,-89.63
13361,-93.78
13373,-98.33
13385,-103.03
13397,-107.25
13409,-110.06
13421,-110.5
13433,-107.71
13445,-101.38
13457,-91.88
13469,-80.28
13480,-68.02
13491,-56.54
13503,-46.82
13515,-39.23
13527,-33.57
13539,-29.35
13551,-26.16
13563,-23.77
13575,-22.2
13587,-21.56
13599,-21.99
13611,-23.49
13623,-26.04
13635,-29.56
13647,-33.98
13659,-39.2
13670,-44.96
13681,-50.7
13693,-55.63
13705,-58.89
13717,-59.82
13729,-58.22
13741,-54.45
13753,-49.16
13765,-42.99
13777,-36.19
13789,-28.63
13801,-19.94
13813,-9.88
13825,1.37
13837,13.23
13849,24.86
13860,35.52
13871,44.76
13883,52.49
13895,58.89
13907,64.35
13919,69.33
13931,74.29
13943,79.59
13955,85.42
13967,91.74
13979,98.25
13991,104.48
14003,109.94
14015,114.26
14027,117.22
14039,118.7
14050,118.63
14061,117.02
14073,113.98
14085,109.8
14097,104.94
14109,100.02
14121,95.6
14133,92.07
14145,89.55
14157,87.85
14169,86.54
14181,85.12
14193,83.09
14205,80.09
14217,76.02
14229,71.0
14240,65.4
14251,59.77
14263,54.65
14275,50.5
14287,47.62
14299,46.22
14311,46.53
14323,48.85
14335,53.42
14347,60.14
14359,68.29
14371,76.44
14383,82.71
14395,85.41
14407,83.73
14419,78.0
14430,69.66
14441,60.51
14453,52.12
14465,45.46
14477,40.89
14489,38.43
14501,37.94
14513,39.08
14525,41.09
14537,42.75
14549,42.68
14561,39.86
14573,34.12
14585,26.07
14597,16.7
14609,6.63
14620,-4.17
14631,-16.18
14643,-29.72
14655,-44.32
14667,-58.61
14679,-70.8
14691,-79.56
14703,-84.6
14715,-86.77
14727,-87.55
14739,-88.26
14751,-89.49
14763,-90.88
14775,-91.43
14787,-89.99
14799,-85.6
14810,-77.6
14821,-65.49
14833,-49.04
14845,-28.66
14857,-6.05
14869,15.43
14881,31.21
14893,36.87
14905,29.86
14917,10.65
14929,-17.2
14941,-48.27
14953,-77.11
14965,-99.77
14977,-114.48
14989,-121.15
15000,-120.57
15011,-113.55
15023,-101.0
15035,-84.22
15047,-65.2
15059,-46.44
15071,-30.43
15083,-18.88
15095,-12.43
15107,-10.54
15119,-11.92
15131,-15.17
15143,-19.14
15155,-22.99
15167,-25.87
15179,-26.74
15190,-24.47
15201,-18.29
15213,-8.2
15225,4.78
15237,18.7
15249,31.27
15261,40.62
15273,45.92
15285,47.41
15297,45.97
15309,42.51
15321,37.73
15333,32.0
15345,25.28
15357,17.29
15369,8.02
15380,-1.98
15391,-11.74
15403,-20.22
15415,-26.84
15427,-31.05
15439,-32.48
15451,-31.23
15463,-28.14
15475,-24.34
15487,-20.93
15499,-18.91
15511,-19.19
15523,-22.36
15535,-27.4
15547,-31.83
15559,-33.16
15570,-30.33
15581,-24.09
15593,-16.5
15605,-10.25
15617,-7.66
15629,-9.9
15641,-15.38
15653,-20.34
15665,-20.82
15677,-14.26
15689,0.73
15701,25.01
15713,58.74
15725,100.9
15737,142.28
15749,170.01
15760,176.84
15771,166.52
15783,147.76
15795,126.98
15807,106.39
15819,85.15
15831,61.64
15843,35.02
15855,7.33
15867,-17.46
15879,-36.03
15891,-47.83
15903,-54.5
15915,-58.04
15927,-60.6
15939,-62.79
15950,-64.78
15961,-66.06
15973,-65.91
15985,-64.07
15997,-60.97
16009,-56.8
16021,-50.98
16033,-43.01
16045,-33.43
16057,-24.41
16069,-18.63
16081,-18.14
16093,-23.67
16105,-34.61
16117,-48.85
16129,-62.52
16140,-71.42
16151,-72.8
16163,-66.58
16175,-54.91
16187,-41.13
16199,-28.36
16211,-18.52
16223,-11.83
16235,-7.21
16247,-3.28
16259,0.8
16271,5.17
16283,9.86
16295,15.25
16307,22.14
16319,31.3
16330,42.86
16341,55.86
16353,68.21
16365,77.43
16377,81.62
16389,80.36
16401,74.67
16413,66.45
16425,57.65
16437,49.66
16449,43.06
16461,37.72
16473,33.18
16485,29.14
16497,25.64
16509,22.8
16520,20.46
16531,18.24
16543,15.82
16555,13.13
16567,10.36
16579,7.99
16591,6.72
16603,7.22
16615,9.37
16627,12.03
16639,13.58
16651,12.8
16663,9.56
16675,4.82
16687,0.27
16699,-2.29
16710,-1.48
16721,2.77
16733,9.18
16745,15.75
16757,20.48
16769,21.48
16781,16.81
16793,4.57
16805,-17.11
16817,-46.03
16829,-75.48
16841,-98.03
16853,-109.96
16865,-111.74
16877,-106.43
16889,-97.68
16900,-88.46
16911,-80.14
16923,-72.26
16935,-63.56
16947,-53.1
16959,-40.68
16971,-26.87
16983,-12.96
16995,-0.43
17007,9.64
17019,17.22
17031,23.46
17043,29.66
17055,36.03
17067,41.43
17079,44.49
17090,43.63
17101,38.92
17113,31.95
17125,25.1
17137,20.46
17149,18.63
17161,18.42
17173,17.53
17185,13.87
17197,6.45
17209,-3.52
17221,-13.71
17233,-21.83
17245,-26.52
17257,-27.68
17269,-26.4
17280,-24.32
17291,-22.9
17303,-22.97
17315,-23.51
17327,-23.08
17339,-20.84
17351,-17.07
17363,-13.03
17375,-10.07
17387,-8.83
17399,-8.76
17411,-8.24
17423,-4.13
17435,5.74
17447,21.22
17459,39.93
17470,58.9
17481,76.28
17493,91.93
17505,106.77
17517,115.01
17529,112.48
17541,99.38
17553,80.61
17565,62.08
17577,48.32
17589,41.34
17601,40.18
17613,40.98
17625,38.52
17637,29.59
17649,13.41
17660,-8.52
17671,-33.29
17683,-57.83
17695,-80.11
17707,-97.97
17719,-109.73
17731,-114.5
17743,-111.75
17755,-102.65
17767,-90.03
17779,-77.46
17791,-67.84
17803,-62.26
17815,-59.68
17827,-57.82
17839,-54.05
17850,-44.32
17861,-26.72
17873,-1.7
17885,27.91
17897,57.61
17909,82.29
17921,97.71
17933,101.52
17945,94.08
17957,78.45
17969,58.78
17981,39.17
17993,22.34
18005,9.21
18017,-0.83
18029,-8.81
18040,-15.57
18051,-21.2
18063,-25.44
18075,-28.39
18087,-30.48
18099,-32.4
18111,-34.79
18123,-37.94
18135,-41.35
18147,-44.45
18159,-46.95
18171,-49.05
18183,-52.02
18195,-57.21
18207,-64.85
18219,-73.19
18230,-78.96
18241,-78.42
18253,-70.64
18265,-55.32
18277,-34.53
18289,-11.99
18301,8.68
18313,25.52
18325,38.85
18337,47.85
18349,53.21
18361,56.25
18373,58.57
18385,60.86
18397,62.95
18409,64.62
18420,66.24
18431,68.59
18443,72.52
18455,78.57
18467,86.68
18479,96.41
18491,106.39
18503,114.76
18515,120.31
18527,122.89
18539,122.64
18551,119.38
18563,112.32
18575,101.03
18587,86.18
18599,68.72
18610,49.2
18621,27.94
18633,5.12
18645,-19.37
18657,-45.35
18669,-72.17
18681,-97.85
18693,-116.5
18705,-120.94
18717,-109.75
18729,-89.47
18741,-69.02
18753,-55.69
18765,-47.69
18777,-41.79
18789,-35.28
18800,-26.81
18811,-16.75
18823,-7.65
18835,-2.34
18847,-2.46
18859,-7.95
18871,-16.98
18883,-27.14
18895,-35.53
18907,-39.8
18919,-39.6
18931,-36.83
18943,-33.99
18955,-32.35
18967,-31.39
18979,-29.07
18990,-23.5
19001,-13.56
19013,0.5
19025,16.71
19037,32.17
19049,44.66
19061,53.58
19073,59.79
19085,64.66
19097,68.81
19109,72.14
19121,73.92
19133,73.24
19145,69.35
19157,62.38
19169,53.32
19180,43.71
19191,35.01
19203,28.0
19215,22.72
19227,18.52
19239,14.18
19251,8.39
19263,0.39
19275,-9.48
19287,-19.72
19299,-28.13
19311,-32.69
19323,-32.45
19335,-28.02
19347,-21.48
19359,-15.68
19370,-13.09
19381,-14.94
19393,-20.72
19405,-28.53
19417,-35.78
19429,-40.04
19441,-39.85
19453,-34.93
19465,-26.23
19477,-15.74
19489,-6.23
19501,-0.83
19513,-2.2
19525,-11.35
19537,-26.64
19549,-43.49
19560,-55.6
19571,-57.28
19583,-45.87
19595,-23.16
19607,5.37
19619,32.86
19631,53.92
19643,66.29
19655,70.8
19667,69.62
19679,64.36
19691,55.24
19703,41.79
19715,24.29
19727,4.67
19739,-13.93
19750,-28.54
19761,-37.76
19773,-42.22
19785,-43.96
19797,-45.13
19809,-46.88
19821,-48.92
19833,-50.28
19845,-50.37
19857,-49.49
19869,-48.56
19881,-48.56
19893,-49.92
19905,-52.38
19917,-55.05
19929,-56.35
19940,-55.14
19951,-51.61
19963,-47.36
19975,-44.74
19987,-46.03
19999,-52.78
20011,-65.17
20023,-81.85
20035,-99.14
20047,-113.29
20059,-122.43
20071,-126.99
20083,-128.77
20095,-129.85
20107,-131.78
20119,-135.2
20130,-139.72
20141,-142.31
20153,-139.88
20165,-130.92
20177,-115.46
20189,-93.73
20201,-65.7
20213,-31.79
20225,6.51
20237,46.4
20249,86.9
20261,126.9
20273,164.44
20285,197.5
20297,225.84
20309,251.1
20320,275.45
20331,300.1
20343,309.54
20355,292.92
20367,252.85
20379,202.56
20391,153.51
20403,110.55
20415,74.22
20427,43.47
20439,17.18
20451,-5.42
20463,-22.18
20475,-31.37
20487,-33.68
20499,-32.04
20510,-29.47
20521,-27.75
20533,-27.52
20545,-28.83
20557,-31.71
20569,-34.27
20581,-35.08
20593,-34.17
20605,-32.72
20617,-31.7
20629,-31.26
20641,-31.3
20653,-31.87
20665,-33.51
20677,-35.08
20689,-35.54
20700,-34.54
20711,-32.45
20723,-29.81
20735,-26.89
20747,-24.03
20759,-21.62
20771,-20.07
20783,-19.01
20795,-18.0
20807,-16.86
20819,-15.68
20831,-14.58
20843,-13.47
20855,-12.23
20867,-10.66
20879,-8.86
20890,-7.0
20901,-5.62
20913,-5.42
20925,-6.84
20937,-9.84
20949,-13.77
20961,-17.54
20973,-19.63
20985,-18.92
20997,-14.82
