seconds,BVP
10,13.66
22,13.31
34,12.28
46,10.77
58,9.07
70,7.47
81,6.16
92,5.16
104,4.36
116,3.49
128,2.32
140,0.66
152,-1.47
164,-3.9
176,-6.35
188,-8.57
200,-10.41
212,-11.86
224,-13.03
236,-14.1
248,-15.22
260,-16.54
271,-18.23
282,-20.42
294,-23.12
306,-26.11
318,-28.86
330,-30.69
342,-30.91
354,-29.1
366,-25.24
378,-19.75
390,-13.32
402,-6.72
414,-0.58
426,4.67
438,8.82
450,11.78
461,13.54
472,14.15
484,13.7
496,12.4
508,10.6
520,8.71
532,7.07
544,5.91
556,5.24
568,4.9
580,4.67
592,4.43
604,4.22
616,4.27
628,4.83
640,6.04
651,7.85
662,9.91
674,11.8
686,13.1
698,13.63
710,13.43
722,12.72
734,11.77
746,10.73
758,9.62
770,8.36
782,6.89
794,5.18
806,3.3
818,1.36
830,-0.56
841,-2.45
852,-4.31
864,-6.14
876,-7.99
888,-9.87
900,-11.88
912,-14.1
924,-16.52
936,-18.92
948,-20.85
960,-21.77
972,-21.21
984,-18.99
996,-15.28
1008,-10.55
1020,-5.36
1031,-0.2
1042,4.52
1054,8.6
1066,11.87
1078,14.22
1090,15.55
1102,15.89
1114,15.36
1126,14.25
1138,12.9
1150,11.61
1162,10.62
1174,9.99
1186,9.66
1198,9.51
1210,9.44
1221,9.43
1232,9.49
1244,9.64
1256,9.83
1268,9.96
1280,9.84
1292,9.33
1304,8.38
1316,7.06
1328,5.53
1340,3.95
1352,2.44
1364,0.99
1376,-0.48
1388,-2.05
1400,-3.79
1411,-5.66
1422,-7.57
1434,-9.41
1446,-11.06
1458,-12.49
1470,-13.68
1482,-14.73
1494,-15.73
1506,-16.86
1518,-18.31
1530,-20.2
1542,-22.47
1554,-24.83
1566,-26.72
1578,-27.53
1590,-26.77
1601,-24.27
1612,-20.2
1624,-14.98
1636,-9.14
1648,-3.17
1660,2.54
1672,7.7
1684,12.04
1696,15.36
1708,17.54
1720,18.6
1732,18.74
1744,18.23
1756,17.39
1768,16.46
1780,15.62
1791,14.92
1802,14.39
1814,14.01
1826,13.78
1838,13.73
1850,13.89
1862,14.26
1874,14.8
1886,15.41
1898,15.93
1910,16.18
1922,15.99
1934,15.24
1946,13.93
1958,12.14
1970,10.06
1981,7.9
1992,5.86
2004,4.01
2016,2.35
2028,0.78
2040,-0.83
2052,-2.57
2064,-4.45
2076,-6.44
2088,-8.45
2100,-10.37
2112,-12.09
2124,-13.59
2136,-14.92
2148,-16.28
2160,-17.94
2171,-20.15
2182,-23.01
2194,-26.29
2206,-29.48
2218,-31.84
2230,-32.66
2242,-31.46
2254,-28.18
2266,-23.13
2278,-16.91
2290,-10.21
2302,-3.69
2314,2.18
2326,7.11
2338,10.95
2350,13.72
2361,15.5
2372,16.46
2384,16.85
2396,16.91
2408,16.87
2420,16.84
2432,16.84
2444,16.82
2456,16.68
2468,16.38
2480,15.96
2492,15.51
2504,15.16
2516,15.0
2528,15.06
2540,15.23
2551,15.4
2562,15.45
2574,15.28
2586,14.87
2598,14.18
2610,13.17
2622,11.76
2634,9.93
2646,7.76
2658,5.46
2670,3.31
2682,1.56
2694,0.31
2706,-0.54
2718,-1.27
2730,-2.17
2741,-3.45
2752,-5.12
2764,-7.01
2776,-8.87
2788,-10.5
2800,-11.83
2812,-12.99
2824,-14.25
2836,-15.93
2848,-18.25
2860,-21.26
2872,-24.69
2884,-28.04
2896,-30.64
2908,-31.81
2920,-31.08
2931,-28.32
2942,-23.76
2954,-17.93
2966,-11.46
2978,-5.0
2990,0.94
3002,6.03
3014,10.11
3026,13.16
3038,15.25
3050,16.54
3062,17.17
3074,17.31
3086,17.12
3098,16.75
3110,16.33
3121,15.96
3132,15.7
3144,15.58
3156,15.55
3168,15.53
3180,15.45
3192,15.22
3204,14.8
3216,14.2
3228,13.45
3240,12.61
3252,11.75
3264,10.89
3276,9.99
3288,9.01
3300,7.89
3311,6.6
3322,5.18
3334,3.69
3346,2.2
3358,0.72
3370,-0.78
3382,-2.32
3394,-3.93
3406,-5.59
3418,-7.23
3430,-8.8
3442,-10.24
3454,-11.55
3466,-12.75
3478,-13.91
3490,-15.09
3501,-16.39
3512,-17.94
3524,-19.85
3536,-22.17
3548,-24.78
3560,-27.31
3572,-29.17
3584,-29.72
3596,-28.5
3608,-25.41
3620,-20.76
3632,-15.14
3644,-9.23
3656,-3.57
3668,1.52
3680,5.9
3691,9.49
3702,12.19
3714,13.87
3726,14.42
3738,13.92
3750,12.67
3762,11.15
3774,9.85
3786,9.12
3798,9.06
3810,9.51
3822,10.23
3834,10.95
3846,11.56
3858,12.04
3870,12.45
3881,12.83
3892,13.14
3904,13.29
3916,13.24
3928,12.92
3940,12.34
3952,11.49
3964,10.34
3976,8.94
3988,7.38
4000,5.84
4012,4.48
4024,3.35
4036,2.35
4048,1.23
4060,-0.21
4071,-2.04
4082,-4.15
4094,-6.33
4106,-8.35
4118,-10.1
4130,-11.56
4142,-12.82
4154,-14.04
4166,-15.4
4178,-17.14
4190,-19.42
4202,-22.24
4214,-25.27
4226,-27.84
4238,-29.16
4250,-28.59
4261,-25.89
4272,-21.32
4284,-15.53
4296,-9.26
4308,-3.15
4320,2.42
4332,7.24
4344,11.2
4356,14.2
4368,16.14
4380,17.02
4392,16.98
4404,16.31
4416,15.36
4428,14.4
4440,13.58
4451,12.93
4462,12.39
4474,11.94
4486,11.61
4498,11.47
4510,11.59
4522,11.97
4534,12.49
4546,12.96
4558,13.18
4570,13.02
4582,12.48
4594,11.64
4606,10.62
4618,9.53
4630,8.37
4641,7.12
4652,5.72
4664,4.2
4676,2.65
4688,1.16
4700,-0.19
4712,-1.45
4724,-2.73
4736,-4.14
4748,-5.75
4760,-7.47
4772,-9.17
4784,-10.72
4796,-12.05
4808,-13.21
4820,-14.33
4831,-15.55
4842,-16.96
4854,-18.61
4866,-20.5
4878,-22.63
4890,-24.94
4902,-27.23
4914,-29.11
4926,-30.03
4938,-29.38
4950,-26.69
4962,-21.89
4974,-15.33
4986,-7.71
4998,0.09
5010,7.31
5021,13.45
5032,18.32
5044,22.0
5056,24.71
5068,26.73
5080,28.34
5092,29.73
5104,31.01
5116,32.2
5128,33.28
5140,34.27
5152,35.25
5164,36.32
5176,37.61
5188,39.1
5200,40.7
5211,42.21
5222,43.42
5234,44.18
5246,44.45
5258,44.2
5270,43.45
5282,42.15
5294,40.28
5306,37.85
5318,34.94
5330,31.65
5342,28.14
5354,24.5
5366,20.79
5378,17.03
5390,13.28
5401,9.58
5412,6.02
5424,2.68
5436,-0.41
5448,-3.3
5460,-6.14
5472,-9.09
5484,-12.19
5496,-15.36
5508,-18.36
5520,-20.92
5532,-22.83
5544,-24.1
5556,-24.93
5568,-25.68
5580,-26.72
5591,-28.26
5602,-30.3
5614,-32.52
5626,-34.43
5638,-35.38
5650,-34.81
5662,-32.39
5674,-28.12
5686,-22.35
5698,-15.68
5710,-8.83
5722,-2.48
5734,2.88
5746,6.97
5758,9.65
5770,10.96
5781,11.0
5792,9.95
5804,8.01
5816,5.39
5828,2.31
5840,-0.95
5852,-4.12
5864,-6.95
5876,-9.21
5888,-10.82
5900,-11.84
5912,-12.48
5924,-13.03
5936,-13.81
5948,-15.04
5960,-16.74
5971,-18.74
5982,-20.73
5994,-22.37
6006,-23.44
6018,-23.92
6030,-24.0
6042,-23.96
6054,-24.08
6066,-24.54
6078,-25.37
6090,-26.49
6102,-27.75
6114,-29.03
6126,-30.22
6138,-31.28
6150,-32.18
6161,-32.94
6172,-33.56
6184,-34.05
6196,-34.39
6208,-34.57
6220,-34.59
6232,-34.49
6244,-34.37
6256,-34.41
6268,-34.81
6280,-35.73
6292,-37.2
6304,-39.02
6316,-40.75
6328,-41.73
6340,-41.29
6351,-38.91
6362,-34.43
6374,-28.11
6386,-20.59
6398,-12.68
6410,-5.17
6422,1.33
6434,6.49
6446,10.22
6458,12.58
6470,13.76
6482,13.94
6494,13.35
6506,12.24
6518,10.91
6530,9.69
6541,8.82
6552,8.45
6564,8.54
6576,8.92
6588,9.41
6600,9.89
6612,10.38
6624,10.95
6636,11.65
6648,12.36
6660,12.82
6672,12.76
6684,12.04
6696,10.76
6708,9.21
6720,7.74
6731,6.57
6742,5.69
6754,4.9
6766,3.89
6778,2.49
6790,0.66
6802,-1.4
6814,-3.41
6826,-5.14
6838,-6.51
6850,-7.64
6862,-8.79
6874,-10.3
6886,-12.42
6898,-15.22
6910,-18.5
6921,-21.86
6932,-24.72
6944,-26.42
6956,-26.41
6968,-24.37
6980,-20.33
6992,-14.69
7004,-8.11
7016,-1.31
7028,5.08
7040,10.65
7052,15.17
7064,18.53
7076,20.7
7088,21.68
7100,21.58
7111,20.65
7122,19.25
7134,17.77
7146,16.55
7158,15.81
7170,15.57
7182,15.72
7194,16.12
7206,16.59
7218,17.01
7230,17.31
7242,17.48
7254,17.52
7266,17.42
7278,17.18
7290,16.76
7301,16.14
7312,15.31
7324,14.32
7336,13.21
7348,12.0
7360,10.63
7372,9.02
7384,7.1
7396,4.9
7408,2.56
7420,0.23
7432,-1.95
7444,-3.99
7456,-6.03
7468,-8.3
7480,-10.98
7491,-14.09
7502,-17.4
7514,-20.46
7526,-22.68
7538,-23.54
7550,-22.63
7562,-19.83
7574,-15.32
7586,-9.55
7598,-3.13
7610,3.29
7622,9.19
7634,14.17
7646,18.04
7658,20.71
7670,22.2
7681,22.6
7692,22.09
7704,20.92
7716,19.41
7728,17.88
7740,16.63
7752,15.81
7764,15.43
7776,15.36
7788,15.38
7800,15.29
7812,14.99
7824,14.48
7836,13.92
7848,13.5
7860,13.33
7871,13.34
7882,13.29
7894,12.79
7906,11.58
7918,9.59
7930,6.99
7942,4.17
7954,1.5
7966,-0.81
7978,-2.78
7990,-4.62
8002,-6.6
8014,-8.93
8026,-11.72
8038,-14.9
8050,-18.25
8061,-21.39
8072,-23.79
8084,-24.89
8096,-24.24
8108,-21.64
8120,-17.22
8132,-11.45
8144,-4.96
8156,1.63
8168,7.79
8180,13.14
8192,17.45
8204,20.61
8216,22.63
8228,23.64
8240,23.86
8251,23.6
8262,23.1
8274,22.51
8286,21.87
8298,21.17
8310,20.4
8322,19.66
8334,19.05
8346,18.68
8358,18.55
8370,18.53
8382,18.47
8394,18.23
8406,17.75
8418,17.07
8430,16.2
8441,15.12
8452,13.74
8464,12.0
8476,9.91
8488,7.59
8500,5.22
8512,2.97
8524,0.89
8536,-1.07
8548,-3.0
8560,-4.99
8572,-7.03
8584,-9.1
8596,-11.19
8608,-13.39
8620,-15.85
8631,-18.75
8642,-22.09
8654,-25.67
8666,-29.0
8678,-31.42
8690,-32.24
8702,-30.97
8714,-27.5
8726,-22.15
8738,-15.54
8750,-8.44
8762,-1.57
8774,4.55
8786,9.61
8798,13.49
8810,16.15
8821,17.62
8832,17.99
8844,17.44
8856,16.24
8868,14.72
8880,13.23
8892,12.08
8904,11.42
8916,11.31
8928,11.62
8940,12.18
8952,12.81
8964,13.38
8976,13.87
8988,14.31
9000,14.73
9011,15.1
9022,15.36
9034,15.37
9046,15.03
9058,14.24
9070,12.98
9082,11.28
9094,9.24
9106,7.04
9118,4.88
9130,2.98
9142,1.47
9154,0.35
9166,-0.5
9178,-1.33
9190,-2.34
9201,-3.63
9212,-5.16
9224,-6.79
9236,-8.38
9248,-9.82
9260,-11.09
9272,-12.24
9284,-13.35
9296,-14.56
9308,-16.06
9320,-18.02
9332,-20.47
9344,-23.21
9356,-25.71
9368,-27.26
9380,-27.13
9391,-24.94
9402,-20.76
9414,-15.14
9426,-8.86
9438,-2.73
9450,2.69
9462,7.07
9474,10.3
9486,12.37
9498,13.32
9510,13.21
9522,12.25
9534,10.69
9546,8.9
9558,7.2
9570,5.8
9581,4.82
9592,4.25
9604,4.05
9616,4.15
9628,4.51
9640,5.07
9652,5.77
9664,6.52
9676,7.22
9688,7.74
9700,7.95
9712,7.76
9724,7.09
9736,5.93
9748,4.34
9760,2.46
9771,0.48
9782,-1.42
9794,-3.12
9806,-4.58
9818,-5.84
9830,-6.98
9842,-8.04
9854,-9.01
9866,-9.77
9878,-10.14
9890,-9.93
9902,-9.07
9914,-7.62
9926,-5.87
9938,-4.23
9950,-3.16
9961,-3.06
9972,-4.14
9984,-6.35
9996,-9.38
10008,-12.66
10020,-15.46
10032,-16.99
10044,-16.61
10056,-13.96
10068,-9.11
10080,-2.56
10092,4.86
10104,12.21
10116,18.64
10128,23.55
10140,26.66
10151,27.99
10162,27.76
10174,26.28
10186,23.94
10198,21.12
10210,18.18
10222,15.41
10234,13.02
10246,11.11
10258,9.69
10270,8.69
10282,8.0
10294,7.5
10306,7.12
10318,6.84
10330,6.67
10341,6.64
10352,6.78
10364,7.03
10376,7.34
10388,7.58
10400,7.65
10412,7.49
10424,7.12
10436,6.57
10448,5.93
10460,5.21
10472,4.38
10484,3.36
10496,2.09
10508,0.59
10520,-1.11
10531,-2.9
10542,-4.71
10554,-6.45
10566,-8.07
10578,-9.53
10590,-10.79
10602,-11.87
10614,-12.82
10626,-13.73
10638,-14.79
10650,-16.2
10662,-18.18
10674,-20.91
10686,-24.47
10698,-28.7
10710,-33.16
10721,-37.08
10732,-39.55
10744,-39.76
10756,-37.29
10768,-32.29
10780,-25.42
10792,-17.69
10804,-10.07
10816,-3.26
10828,2.38
10840,6.78
10852,10.0
10864,12.14
10876,13.29
10888,13.58
10900,13.22
10911,12.51
10922,11.74
10934,11.2
10946,11.01
10958,11.21
10970,11.68
10982,12.29
10994,12.86
11006,13.3
11018,13.55
11030,13.63
11042,13.62
11054,13.6
11066,13.59
11078,13.53
11090,13.29
11101,12.77
11112,11.93
11124,10.85
11136,9.67
11148,8.51
11160,7.38
11172,6.21
11184,4.89
11196,3.35
11208,1.68
11220,0.05
11232,-1.35
11244,-2.48
11256,-3.41
11268,-4.36
11280,-5.55
11291,-7.04
11302,-8.75
11314,-10.49
11326,-12.03
11338,-13.28
11350,-14.3
11362,-15.29
11374,-16.49
11386,-18.09
11398,-20.17
11410,-22.66
11422,-25.39
11434,-28.0
11446,-30.06
11458,-31.0
11470,-30.3
11481,-27.63
11492,-22.98
11504,-16.76
11516,-9.75
11528,-2.83
11540,3.25
11552,8.07
11564,11.59
11576,13.97
11588,15.4
11600,15.95
11612,15.66
11624,14.6
11636,13.04
11648,11.42
11660,10.17
11671,9.62
11682,9.79
11694,10.46
11706,11.28
11718,11.97
11730,12.41
11742,12.62
11754,12.73
11766,12.83
11778,12.94
11790,12.99
11802,12.88
11814,12.51
11826,11.87
11838,10.95
11850,9.82
11861,8.58
11872,7.29
11884,6.01
11896,4.77
11908,3.53
11920,2.26
11932,0.92
11944,-0.5
11956,-1.96
11968,-3.37
11980,-4.64
11992,-5.72
12004,-6.68
12016,-7.67
12028,-8.84
12040,-10.27
12051,-11.95
12062,-13.71
12074,-15.39
12086,-16.84
12098,-18.03
12110,-19.04
12122,-20.03
12134,-21.27
12146,-22.98
12158,-25.3
12170,-28.19
12182,-31.33
12194,-34.12
12206,-35.83
12218,-35.8
12230,-33.64
12241,-29.36
12252,-23.4
12264,-16.44
12276,-9.23
12288,-2.41
12300,3.53
12312,8.3
12324,11.79
12336,13.97
12348,14.97
12360,14.98
12372,14.31
12384,13.27
12396,12.18
12408,11.27
12420,10.66
12431,10.37
12442,10.37
12454,10.56
12466,10.89
12478,11.33
12490,11.89
12502,12.6
12514,13.43
12526,14.3
12538,15.06
12550,15.57
12562,15.7
12574,15.41
12586,14.75
12598,13.86
12610,12.89
12621,11.94
12632,11.08
12644,10.26
12656,9.41
12668,8.43
12680,7.26
12692,5.9
12704,4.37
12716,2.76
12728,1.14
12740,-0.43
12752,-1.91
12764,-3.31
12776,-4.63
12788,-5.91
12800,-7.18
12811,-8.46
12822,-9.79
12834,-11.22
12846,-12.79
12858,-14.47
12870,-16.18
12882,-17.82
12894,-19.28
12906,-20.57
12918,-21.82
12930,-23.27
12942,-25.17
12954,-27.67
12966,-30.61
12978,-33.54
12990,-35.75
13001,-36.47
13012,-35.14
13024,-31.56
13036,-26.02
13048,-19.11
13060,-11.59
13072,-4.18
13084,2.59
13096,8.37
13108,12.97
13120,16.26
13132,18.22
13144,18.9
13156,18.53
13168,17.45
13180,16.1
13191,14.86
13202,13.98
13214,13.53
13226,13.42
13238,13.46
13250,13.53
13262,13.58
13274,13.67
13286,13.88
13298,14.28
13310,14.84
13322,15.45
13334,15.97
13346,16.23
13358,16.13
13370,15.61
13381,14.74
13392,13.64
13404,12.47
13416,11.4
13428,10.5
13440,9.78
13452,9.15
13464,8.51
13476,7.77
13488,6.94
13500,6.06
13512,5.17
13524,4.32
13536,3.48
13548,2.64
13560,1.74
13571,0.74
13582,-0.39
13594,-1.71
13606,-3.24
13618,-5.01
13630,-6.98
13642,-9.09
13654,-11.23
13666,-13.3
13678,-15.29
13690,-17.28
13702,-19.48
13714,-22.11
13726,-25.3
13738,-28.91
13750,-32.46
13761,-35.23
13772,-36.41
13784,-35.43
13796,-32.14
13808,-26.88
13820,-20.32
13832,-13.25
13844,-6.37
13856,-0.16
13868,5.14
13880,9.42
13892,12.61
13904,14.66
13916,15.61
13928,15.59
13940,14.88
13951,13.86
13962,12.86
13974,12.1
13986,11.65
13998,11.44
14010,11.36
14022,11.34
14034,11.41
14046,11.66
14058,12.18
14070,12.94
14082,13.81
14094,14.52
14106,14.85
14118,14.67
14130,14.01
14141,13.01
14152,11.84
14164,10.61
14176,9.33
14188,7.94
14200,6.4
14212,4.74
14224,3.04
14236,1.43
14248,0.02
14260,-1.14
14272,-2.03
14284,-2.63
14296,-2.9
14308,-2.8
14320,-2.31
14331,-1.46
14342,-0.32
14354,1.0
14366,2.37
14378,3.6
14390,4.48
14402,4.73
14414,4.04
14426,2.12
14438,-1.18
14450,-5.8
14462,-11.31
14474,-17.01
14486,-21.92
14498,-25.07
14510,-25.76
14521,-23.73
14532,-19.31
14544,-13.24
14556,-6.45
14568,0.21
14580,6.21
14592,11.31
14604,15.5
14616,18.83
14628,21.29
14640,22.79
14652,23.19
14664,22.43
14676,20.58
14688,17.93
14700,14.93
14711,12.1
14722,9.85
14734,8.34
14746,7.52
14758,7.18
14770,7.08
14782,7.11
14794,7.27
14806,7.57
14818,7.99
14830,8.38
14842,8.52
14854,8.23
14866,7.48
14878,6.35
14890,5.0
14901,3.54
14912,2.01
14924,0.41
14936,-1.27
14948,-2.97
14960,-4.59
14972,-6.05
14984,-7.28
14996,-8.33
15008,-9.25
15020,-10.13
15032,-11.05
15044,-12.05
15056,-13.18
15068,-14.4
15080,-15.73
15091,-17.1
15102,-18.45
15114,-19.72
15126,-20.87
15138,-21.93
15150,-23.05
15162,-24.45
15174,-26.34
15186,-28.85
15198,-31.83
15210,-34.78
15222,-36.92
15234,-37.36
15246,-35.46
15258,-31.0
15270,-24.34
15281,-16.3
15292,-7.84
15304,0.13
15316,6.99
15328,12.44
15340,16.41
15352,18.96
15364,20.24
15376,20.45
15388,19.83
15400,18.67
15412,17.29
15424,15.95
15436,14.83
15448,14.03
15460,13.57
15471,13.44
15482,13.59
15494,14.0
15506,14.61
15518,15.38
15530,16.24
15542,17.05
15554,17.63
15566,17.8
15578,17.44
15590,16.59
15602,15.45
15614,14.28
15626,13.28
15638,12.47
15650,11.7
15661,10.66
15672,9.15
15684,7.17
15696,4.91
15708,2.7
15720,0.78
15732,-0.74
15744,-1.95
15756,-3.06
15768,-4.29
15780,-5.81
15792,-7.67
15804,-9.84
15816,-12.22
15828,-14.68
15840,-17.12
15851,-19.44
15862,-21.61
15874,-23.71
15886,-25.91
15898,-28.44
15910,-31.52
15922,-35.23
15934,-39.31
15946,-43.17
15958,-45.95
15970,-46.83
15982,-45.24
15994,-41.11
16006,-34.91
16018,-27.42
16030,-19.48
16041,-11.72
16052,-4.52
16064,1.98
16076,7.7
16088,12.57
16100,16.55
16112,19.68
16124,22.13
16136,24.19
16148,26.09
16160,27.96
16172,29.75
16184,31.33
16196,32.58
16208,33.48
16220,34.13
16231,34.69
16242,35.26
16254,35.87
16266,36.43
16278,36.81
16290,36.92
16302,36.7
16314,36.16
16326,35.31
16338,34.12
16350,32.53
16362,30.47
16374,27.9
16386,24.82
16398,21.31
16410,17.47
16421,13.45
16432,9.42
16444,5.52
16456,1.92
16468,-1.32
16480,-4.21
16492,-6.92
16504,-9.68
16516,-12.72
16528,-16.13
16540,-19.81
16552,-23.48
16564,-26.76
16576,-29.34
16588,-31.04
16600,-31.91
16611,-32.14
16622,-32.06
16634,-32.03
16646,-32.32
16658,-33.08
16670,-34.2
16682,-35.32
16694,-35.84
16706,-35.1
16718,-32.55
16730,-28.01
16742,-21.69
16754,-14.21
16766,-6.4
16778,0.91
16790,7.11
16801,11.83
16812,15.0
16824,16.74
16836,17.24
16848,16.72
16860,15.4
16872,13.48
16884,11.14
16896,8.61
16908,6.09
16920,3.76
16932,1.76
16944,0.14
16956,-1.11
16968,-2.04
16980,-2.73
16991,-3.32
17002,-3.98
17014,-4.91
17026,-6.31
17038,-8.36
17050,-11.07
17062,-14.29
17074,-17.68
17086,-20.72
17098,-22.92
17110,-23.91
17122,-23.56
17134,-21.98
17146,-19.49
17158,-16.46
17170,-13.21
17181,-9.96
17192,-6.85
17204,-3.96
17216,-1.39
17228,0.74
17240,2.33
17252,3.32
17264,3.76
17276,3.83
17288,3.8
17300,3.98
17312,4.62
17324,5.75
17336,7.13
17348,8.26
17360,8.6
17371,7.75
17382,5.74
17394,3.01
17406,0.37
17418,-1.31
17430,-1.36
17442,0.46
17454,3.94
17466,8.52
17478,13.49
17490,18.15
17502,21.97
17514,24.66
17526,26.15
17538,26.6
17550,26.3
17561,25.63
17572,24.94
17584,24.48
17596,24.42
17608,24.77
17620,25.51
17632,26.55
17644,27.79
17656,29.14
17668,30.47
17680,31.69
17692,32.72
17704,33.56
17716,34.28
17728,34.94
17740,35.56
17751,36.02
17762,36.06
17774,35.35
17786,33.67
17798,31.0
17810,27.62
17822,23.98
17834,20.54
17846,17.59
17858,15.15
17870,13.05
17882,11.05
17894,8.95
17906,6.73
17918,4.4
17930,1.99
17941,-0.53
17952,-3.24
17964,-6.21
17976,-9.38
17988,-12.56
18000,-15.51
18012,-18.03
18024,-20.11
18036,-21.95
18048,-23.88
18060,-26.26
18072,-29.36
18084,-33.15
18096,-37.35
18108,-41.37
18120,-44.45
18131,-45.82
18142,-44.93
18154,-41.64
18166,-36.21
18178,-29.3
18190,-21.71
18202,-14.25
18214,-7.55
18226,-2.02
18238,2.17
18250,5.05
18262,6.73
18274,7.48
18286,7.58
18298,7.33
18310,6.96
18321,6.62
18332,6.34
18344,6.11
18356,5.9
18368,5.74
18380,5.7
18392,5.92
18404,6.47
18416,7.38
18428,8.62
18440,10.06
18452,11.54
18464,12.86
18476,13.79
18488,14.12
18500,13.76
18511,12.74
18522,11.26
18534,9.63
18546,8.1
18558,6.83
18570,5.77
18582,4.72
18594,3.47
18606,1.91
18618,0.08
18630,-1.85
18642,-3.68
18654,-5.3
18666,-6.74
18678,-8.11
18690,-9.59
18701,-11.25
18712,-13.07
18724,-14.87
18736,-16.46
18748,-17.72
18760,-18.7
18772,-19.59
18784,-20.66
18796,-22.14
18808,-24.13
18820,-26.53
18832,-29.11
18844,-31.48
18856,-33.2
18868,-33.79
18880,-32.8
18891,-29.97
18902,-25.26
18914,-18.97
18926,-11.66
18938,-4.04
18950,3.18
18962,9.49
18974,14.56
18986,18.32
18998,20.83
19010,22.23
19022,22.71
19034,22.5
19046,21.85
19058,21.06
19070,20.39
19081,20.03
19092,19.95
19104,19.96
19116,19.71
19128,18.84
19140,17.14
19152,14.64
19164,11.62
19176,8.47
19188,5.58
19200,3.2
19212,1.43
19224,0.19
19236,-0.64
19248,-1.24
19260,-1.73
19271,-2.24
19282,-2.86
19294,-3.63
19306,-4.54
19318,-5.5
19330,-6.36
19342,-7.02
19354,-7.45
19366,-7.73
19378,-8.01
19390,-8.46
19402,-9.16
19414,-10.1
19426,-11.17
19438,-12.22
19450,-13.15
19461,-13.92
19472,-14.61
19484,-15.32
19496,-16.22
19508,-17.42
19520,-19.04
19532,-21.1
19544,-23.54
19556,-26.09
19568,-28.33
19580,-29.66
19592,-29.5
19604,-27.47
19616,-23.48
19628,-17.86
19640,-11.22
19651,-4.3
19662,2.2
19674,7.75
19686,12.02
19698,14.87
19710,16.34
19722,16.57
19734,15.8
19746,14.39
19758,12.71
19770,11.07
19782,9.68
19794,8.65
19806,8.02
19818,7.78
19830,7.91
19841,8.31
19852,8.91
19864,9.61
19876,10.36
19888,11.12
19900,11.88
19912,12.57
19924,13.03
19936,13.09
19948,12.61
19960,11.59
19972,10.15
19984,8.5
19996,6.81
20008,5.14
20020,3.46
20031,1.65
20042,-0.35
20054,-2.52
20066,-4.78
20078,-7.07
20090,-9.36
20102,-11.68
20114,-14.06
20126,-16.49
20138,-18.96
20150,-21.39
20162,-23.82
20174,-26.32
20186,-29.04
20198,-32.02
20210,-35.1
20221,-37.86
20232,-39.69
20244,-39.98
20256,-38.3
20268,-34.59
20280,-29.06
20292,-22.15
20304,-14.4
20316,-6.28
20328,1.78
20340,9.47
20352,16.49
20364,22.65
20376,27.84
20388,32.11
20400,35.57
20411,38.41
20422,40.75
20434,42.69
20446,44.22
20458,45.3
20470,45.87
20482,45.88
20494,45.31
20506,44.17
20518,42.47
20530,40.24
20542,37.54
20554,34.44
20566,31.0
20578,27.28
20590,23.27
20601,18.98
20612,14.44
20624,9.76
20636,5.14
20648,0.86
20660,-2.87
20672,-5.9
20684,-8.26
20696,-10.02
20708,-11.32
20720,-12.27
20732,-12.94
20744,-13.44
20756,-13.88
20768,-14.38
20780,-15.1
20791,-16.18
20802,-17.76
20814,-19.94
20826,-22.72
20838,-25.94
20850,-29.22
20862,-31.92
20874,-33.33
20886,-32.86
20898,-30.27
20910,-25.76
20922,-19.91
20934,-13.47
20946,-7.15
20958,-1.42
20970,3.45
20981,7.36
20992,10.27
