seconds,BVP
5,2.0
17,2.97
29,3.77
41,4.24
53,4.32
65,4.09
77,3.66
89,3.17
101,2.7
113,2.24
125,1.77
137,1.24
149,0.68
161,0.12
172,-0.39
183,-0.9
195,-1.49
207,-2.21
219,-3.12
231,-4.15
243,-5.22
255,-6.15
267,-6.9
279,-7.41
291,-7.75
303,-8.0
315,-8.25
327,-8.59
339,-9.09
351,-9.78
362,-10.56
373,-11.3
385,-11.8
397,-11.89
409,-11.5
421,-10.64
433,-9.47
445,-8.22
457,-7.09
469,-6.17
481,-5.43
493,-4.72
505,-3.9
517,-2.88
529,-1.64
541,-0.28
552,1.13
563,2.53
575,3.88
587,5.19
599,6.41
611,7.47
623,8.22
635,8.66
647,8.83
659,8.89
671,8.95
683,9.0
695,8.92
707,8.58
719,7.9
731,6.96
742,6.05
753,5.43
765,5.31
777,5.65
789,6.2
801,6.69
813,6.88
825,6.68
837,6.1
849,5.31
861,4.48
873,3.76
885,3.22
897,2.86
909,2.65
921,2.55
932,2.49
943,2.39
955,2.19
967,1.79
979,1.19
991,0.38
1003,-0.56
1015,-1.57
1027,-2.54
1039,-3.38
1051,-4.05
1063,-4.45
1075,-4.59
1087,-4.41
1099,-3.92
1111,-3.17
1122,-2.27
1133,-1.29
1145,-0.33
1157,0.6
1169,1.52
1181,2.39
1193,3.2
1205,3.91
1217,4.51
1229,5.08
1241,5.7
1253,6.39
1265,7.18
1277,7.98
1289,8.65
1301,9.09
1312,9.26
1323,9.15
1335,8.78
1347,8.17
1359,7.27
1371,6.11
1383,4.75
1395,3.3
1407,1.97
1419,0.93
1431,0.29
1443,0.12
1455,0.36
1467,0.83
1479,1.37
1491,1.82
1502,2.02
1513,1.95
1525,1.66
1537,1.24
1549,0.81
1561,0.41
1573,-0.06
1585,-0.73
1597,-1.77
1609,-3.25
1621,-5.03
1633,-6.91
1645,-8.66
1657,-10.07
1669,-11.07
1681,-11.63
1692,-11.74
1703,-11.38
1715,-10.55
1727,-9.28
1739,-7.73
1751,-6.16
1763,-4.77
1775,-3.69
1787,-2.89
1799,-2.21
1811,-1.54
1823,-0.79
1835,-0.01
1847,0.72
1859,1.3
1871,1.7
1882,2.04
1893,2.42
1905,3.0
1917,3.8
1929,4.77
1941,5.75
1953,6.56
1965,7.07
1977,7.26
1989,7.22
2001,7.11
2013,7.01
2025,6.94
2037,6.83
2049,6.57
2061,6.1
2072,5.46
2083,4.78
2095,4.18
2107,3.8
2119,3.65
2131,3.71
2143,3.91
2155,4.18
2167,4.41
2179,4.51
2191,4.38
2203,3.98
2215,3.32
2227,2.46
2239,1.54
2251,0.56
2262,-0.5
2273,-1.75
2285,-3.25
2297,-4.98
2309,-6.82
2321,-8.6
2333,-10.21
2345,-11.51
2357,-12.49
2369,-13.1
2381,-13.25
2393,-12.84
2405,-11.79
2417,-10.17
2429,-8.11
2441,-5.89
2452,-3.74
2463,-1.88
2475,-0.46
2487,0.48
2499,0.97
2511,1.1
2523,1.02
2535,0.89
2547,0.79
2559,0.79
2571,0.85
2583,0.95
2595,1.02
2607,1.06
2619,1.12
2631,1.3
2642,1.67
2653,2.26
2665,3.0
2677,3.76
2689,4.41
2701,4.86
2713,5.05
2725,5.04
2737,4.91
2749,4.76
2761,4.61
2773,4.45
2785,4.23
2797,3.85
2809,3.33
2821,2.71
2832,2.11
2843,1.62
2855,1.33
2867,1.19
2879,1.11
2891,0.93
2903,0.53
2915,-0.12
2927,-0.99
2939,-1.95
2951,-2.94
2963,-3.92
2975,-4.89
2987,-5.88
2999,-6.87
3011,-7.79
3022,-8.51
3033,-8.96
3045,-9.12
3057,-9.08
3069,-8.97
3081,-8.86
3093,-8.74
3105,-8.54
3117,-8.12
3129,-7.33
3141,-6.11
3153,-4.48
3165,-2.51
3177,-0.35
3189,1.87
3201,4.05
3212,6.05
3223,7.74
3235,9.03
3247,9.9
3259,10.36
3271,10.51
3283,10.4
3295,10.1
3307,9.58
3319,8.85
3331,7.93
3343,6.9
3355,5.94
3367,5.22
3379,4.83
3391,4.79
3402,5.03
3413,5.44
3425,5.92
3437,6.41
3449,6.86
3461,7.23
3473,7.49
3485,7.58
3497,7.48
3509,7.18
3521,6.69
3533,6.09
3545,5.42
3557,4.75
3569,4.08
3581,3.42
3592,2.78
3603,2.15
3615,1.51
3627,0.8
3639,-0.03
3651,-1.02
3663,-2.15
3675,-3.38
3687,-4.6
3699,-5.7
3711,-6.65
3723,-7.44
3735,-8.1
3747,-8.68
3759,-9.15
3771,-9.46
3782,-9.56
3793,-9.43
3805,-9.04
3817,-8.36
3829,-7.39
3841,-6.12
3853,-4.62
3865,-3.01
3877,-1.47
3889,-0.13
3901,0.96
3913,1.84
3925,2.64
3937,3.44
3949,4.26
3961,5.08
3972,5.85
3983,6.57
3995,7.24
4007,7.81
4019,8.14
4031,8.11
4043,7.72
4055,7.13
4067,6.61
4079,6.39
4091,6.53
4103,6.84
4115,7.06
4127,6.94
4139,6.44
4151,5.74
4162,5.08
4173,4.62
4185,4.36
4197,4.24
4209,4.11
4221,3.89
4233,3.58
4245,3.19
4257,2.75
4269,2.3
4281,1.88
4293,1.49
4305,1.17
4317,0.96
4329,0.83
4341,0.76
4352,0.66
4363,0.47
4375,0.12
4387,-0.41
4399,-1.12
4411,-1.98
4423,-2.88
4435,-3.77
4447,-4.57
4459,-5.32
4471,-6.05
4483,-6.8
4495,-7.48
4507,-8.0
4519,-8.22
4531,-8.12
4542,-7.75
4553,-7.24
4565,-6.69
4577,-6.18
4589,-5.69
4601,-5.12
4613,-4.45
4625,-3.67
4637,-2.88
4649,-2.13
4661,-1.44
4673,-0.82
4685,-0.26
4697,0.23
4709,0.61
4721,0.84
4732,0.95
4743,1.03
4755,1.18
4767,1.49
4779,1.94
4791,2.45
4803,2.9
4815,3.25
4827,3.48
4839,3.67
4851,3.87
4863,4.05
4875,4.14
4887,4.06
4899,3.79
4911,3.4
4922,3.0
4933,2.69
4945,2.51
4957,2.38
4969,2.14
4981,1.74
4993,1.12
5005,0.37
5017,-0.36
5029,-0.9
5041,-1.19
5053,-1.31
5065,-1.41
5077,-1.71
5089,-2.37
5101,-3.43
5112,-4.76
5123,-6.16
5135,-7.44
5147,-8.51
5159,-9.4
5171,-10.2
5183,-11.06
5195,-11.97
5207,-12.86
5219,-13.54
5231,-13.82
5243,-13.59
5255,-12.82
5267,-11.63
5279,-10.15
5291,-8.56
5302,-6.95
5313,-5.39
5325,-3.91
5337,-2.56
5349,-1.39
5361,-0.39
5373,0.44
5385,1.18
5397,1.88
5409,2.56
5421,3.24
5433,3.89
5445,4.5
5457,5.02
5469,5.44
5481,5.68
5492,5.71
5503,5.52
5515,5.16
5527,4.74
5539,4.37
5551,4.2
5563,4.3
5575,4.68
5587,5.24
5599,5.9
5611,6.55
5623,7.07
5635,7.35
5647,7.31
5659,6.96
5671,6.36
5682,5.62
5693,4.89
5705,4.3
5717,3.91
5729,3.7
5741,3.58
5753,3.36
5765,2.95
5777,2.25
5789,1.3
5801,0.2
5813,-0.88
5825,-1.81
5837,-2.57
5849,-3.16
5861,-3.67
5872,-4.11
5883,-4.53
5895,-4.93
5907,-5.31
5919,-5.7
5931,-6.11
5943,-6.53
5955,-6.85
5967,-6.94
5979,-6.73
5991,-6.19
6003,-5.44
6015,-4.68
6027,-4.08
6039,-3.71
6051,-3.55
6062,-3.45
6073,-3.23
6085,-2.79
6097,-2.14
6109,-1.4
6121,-0.72
6133,-0.19
6145,0.2
6157,0.54
6169,0.98
6181,1.58
6193,2.32
6205,3.12
6217,3.84
6229,4.37
6241,4.72
6252,4.98
6263,5.27
6275,5.7
6287,6.24
6299,6.79
6311,7.2
6323,7.38
6335,7.31
6347,7.09
6359,6.82
6371,6.54
6383,6.15
6395,5.53
6407,4.56
6419,3.3
6431,1.94
6442,0.7
6453,-0.23
6465,-0.85
6477,-1.28
6489,-1.69
6501,-2.19
6513,-2.76
6525,-3.29
6537,-3.72
6549,-4.06
6561,-4.42
6573,-4.93
6585,-5.66
6597,-6.5
6609,-7.26
6621,-7.75
6632,-7.83
6643,-7.53
6655,-7.0
6667,-6.38
6679,-5.74
6691,-5.05
6703,-4.23
6715,-3.23
6727,-2.1
6739,-1.02
6751,-0.17
6763,0.27
6775,0.34
6787,0.15
6799,-0.09
6811,-0.25
6822,-0.26
6833,-0.21
6845,-0.21
6857,-0.3
6869,-0.44
6881,-0.45
6893,-0.15
6905,0.51
6917,1.47
6929,2.44
6941,3.1
6953,3.2
6965,2.74
6977,1.82
6989,0.74
7001,-0.21
7012,-0.91
7023,-1.3
7035,-1.48
7047,-1.57
7059,-1.69
7071,-1.84
7083,-2.09
7095,-2.46
7107,-3.02
7119,-3.84
7131,-4.87
7143,-5.99
7155,-6.96
7167,-7.63
7179,-7.95
7191,-8.02
7202,-8.09
7213,-8.37
7225,-8.92
7237,-9.57
7249,-10.09
7261,-10.21
7273,-9.86
7285,-9.15
7297,-8.3
7309,-7.54
7321,-6.98
7333,-6.56
7345,-6.11
7357,-5.5
7369,-4.61
7381,-3.47
7392,-2.12
7403,-0.61
7415,0.97
7427,2.54
7439,3.95
7451,5.08
7463,5.78
7475,6.04
7487,5.87
7499,5.35
7511,4.6
7523,3.72
7535,2.82
7547,1.97
7559,1.22
7571,0.61
7582,0.15
7593,-0.21
7605,-0.43
7617,-0.5
7629,-0.4
7641,-0.14
7653,0.15
7665,0.32
7677,0.24
7689,-0.11
7701,-0.67
7713,-1.27
7725,-1.82
7737,-2.32
7749,-2.87
7761,-3.58
7772,-4.47
7783,-5.47
7795,-6.4
7807,-7.15
7819,-7.73
7831,-8.21
7843,-8.7
7855,-9.24
7867,-9.74
7879,-10.0
7891,-9.83
7903,-9.04
7915,-7.59
7927,-5.57
7939,-3.15
7951,-0.58
7962,1.98
7973,4.39
7985,6.62
7997,8.68
8009,10.5
8021,11.96
8033,12.87
8045,13.1
8057,12.67
8069,11.81
8081,10.83
8093,9.99
8105,9.39
8117,9.02
8129,8.77
8141,8.59
8152,8.52
8163,8.56
8175,8.66
8187,8.69
8199,8.45
8211,7.87
8223,7.09
8235,6.39
8247,6.02
8259,6.07
8271,6.35
8283,6.57
8295,6.4
8307,5.72
8319,4.58
8331,3.16
8342,1.66
8353,0.22
8365,-1.12
8377,-2.28
8389,-3.18
8401,-3.72
8413,-3.83
8425,-3.57
8437,-3.08
8449,-2.56
8461,-2.15
8473,-1.88
8485,-1.65
8497,-1.34
8509,-0.84
8521,-0.1
8532,0.8
8543,1.74
8555,2.6
8567,3.31
8579,3.9
8591,4.45
8603,5.02
8615,5.59
8627,6.1
8639,6.46
8651,6.61
8663,6.59
8675,6.46
8687,6.35
8699,6.34
8711,6.42
8722,6.54
8733,6.6
8745,6.5
8757,6.21
8769,5.72
8781,5.07
8793,4.26
8805,3.36
8817,2.42
8829,1.51
8841,0.71
8853,0.03
8865,-0.5
8877,-1.0
8889,-1.63
8901,-2.54
8912,-3.77
8923,-5.24
8935,-6.71
8947,-7.93
8959,-8.72
8971,-8.99
8983,-8.8
8995,-8.22
9007,-7.32
9019,-6.15
9031,-4.82
9043,-3.44
9055,-2.17
9067,-1.14
9079,-0.32
9091,0.38
9102,1.06
9113,1.85
9125,2.72
9137,3.64
9149,4.58
9161,5.52
9173,6.41
9185,7.18
9197,7.7
9209,7.85
9221,7.7
9233,7.37
9245,7.1
9257,7.03
9269,7.2
9281,7.5
9292,7.78
9303,7.92
9315,7.92
9327,7.86
9339,7.78
9351,7.74
9363,7.68
9375,7.58
9387,7.39
9399,7.1
9411,6.72
9423,6.17
9435,5.5
9447,4.66
9459,3.74
9471,2.76
9482,1.72
9493,0.63
9505,-0.58
9517,-1.91
9529,-3.36
9541,-4.86
9553,-6.35
9565,-7.74
9577,-8.95
9589,-9.91
9601,-10.5
9613,-10.64
9625,-10.3
9637,-9.59
9649,-8.7
9661,-7.83
9672,-7.05
9683,-6.28
9695,-5.35
9707,-4.09
9719,-2.52
9731,-0.82
9743,0.72
9755,1.86
9767,2.52
9779,2.81
9791,2.91
9803,2.93
9815,2.95
9827,2.9
9839,2.77
9851,2.63
9862,2.59
9873,2.77
9885,3.16
9897,3.64
9909,4.01
9921,4.13
9933,3.93
9945,3.51
9957,3.02
9969,2.55
9981,2.09
9993,1.56
10005,0.9
10017,0.09
10029,-0.77
10041,-1.55
10052,-2.11
10063,-2.42
10075,-2.54
10087,-2.6
10099,-2.72
10111,-3.01
10123,-3.5
10135,-4.13
10147,-4.77
10159,-5.28
10171,-5.51
10183,-5.46
10195,-5.21
10207,-4.91
10219,-4.73
10231,-4.74
10242,-4.9
10253,-5.14
10265,-5.41
10277,-5.66
10289,-5.85
10301,-5.9
10313,-5.67
10325,-5.06
10337,-4.03
10349,-2.69
10361,-1.26
10373,0.04
10385,1.11
10397,1.97
10409,2.74
10421,3.5
10432,4.28
10443,4.99
10455,5.54
10467,5.84
10479,5.98
10491,6.1
10503,6.33
10515,6.75
10527,7.29
10539,7.76
10551,8.01
10563,7.88
10575,7.4
10587,6.71
10599,6.02
10611,5.48
10622,5.18
10633,5.14
10645,5.21
10657,5.24
10669,5.08
10681,4.65
10693,3.97
10705,3.09
10717,2.1
10729,1.07
10741,0.04
10753,-1.01
10765,-2.03
10777,-2.94
10789,-3.55
10801,-3.7
10812,-3.33
10823,-2.52
10835,-1.52
10847,-0.58
10859,0.1
10871,0.5
10883,0.65
10895,0.67
10907,0.58
10919,0.31
10931,-0.23
10943,-1.11
10955,-2.28
10967,-3.61
10979,-4.86
10991,-5.78
11002,-6.16
11013,-5.88
11025,-4.96
11037,-3.64
11049,-2.26
11061,-1.11
11073,-0.37
11085,0.02
11097,0.24
11109,0.56
11121,1.12
11133,1.92
11145,2.79
11157,3.54
11169,4.07
11181,4.38
11192,4.53
11203,4.63
11215,4.65
11227,4.55
11239,4.23
11251,3.67
11263,2.87
11275,1.95
11287,1.02
11299,0.17
11311,-0.55
11323,-1.16
11335,-1.7
11347,-2.19
11359,-2.63
11371,-2.99
11382,-3.28
11393,-3.54
11405,-3.81
11417,-4.09
11429,-4.38
11441,-4.62
11453,-4.79
11465,-4.89
11477,-4.97
11489,-5.12
11501,-5.37
11513,-5.74
11525,-6.22
11537,-6.8
11549,-7.47
11561,-8.28
11572,-9.21
11583,-10.09
11595,-10.77
11607,-11.05
11619,-10.85
11631,-10.22
11643,-9.31
11655,-8.33
11667,-7.45
11679,-6.78
11691,-6.28
11703,-5.96
11715,-5.77
11727,-5.67
11739,-5.57
11751,-5.37
11762,-4.92
11773,-4.19
11785,-3.19
11797,-2.03
11809,-0.89
11821,0.11
11833,0.87
11845,1.39
11857,1.74
11869,2.04
11881,2.37
11893,2.78
11905,3.26
11917,3.74
11929,4.15
11941,4.42
11952,4.47
11963,4.33
11975,4.05
11987,3.66
11999,3.2
12011,2.68
12023,2.09
12035,1.47
12047,0.84
12059,0.23
12071,-0.3
12083,-0.67
12095,-0.79
12107,-0.62
12119,-0.13
12131,0.63
12142,1.56
12153,2.52
12165,3.27
12177,3.62
12189,3.44
12201,2.73
12213,1.58
12225,0.19
12237,-1.29
12249,-2.69
12261,-3.91
12273,-4.9
12285,-5.58
12297,-5.89
12309,-5.77
12321,-5.28
12332,-4.53
12343,-3.76
12355,-3.14
12367,-2.75
12379,-2.55
12391,-2.44
12403,-2.27
12415,-1.96
12427,-1.51
12439,-0.93
12451,-0.29
12463,0.39
12475,1.1
12487,1.82
12499,2.56
12511,3.28
12522,3.94
12533,4.5
12545,4.94
12557,5.24
12569,5.47
12581,5.7
12593,6.01
12605,6.37
12617,6.6
12629,6.5
12641,5.91
12653,4.84
12665,3.51
12677,2.23
12689,1.29
12701,0.76
12712,0.54
12723,0.38
12735,0.17
12747,-0.1
12759,-0.33
12771,-0.43
12783,-0.4
12795,-0.35
12807,-0.43
12819,-0.76
12831,-1.27
12843,-1.79
12855,-2.17
12867,-2.34
12879,-2.34
12891,-2.27
12902,-2.23
12913,-2.21
12925,-2.16
12937,-1.96
12949,-1.58
12961,-1.0
12973,-0.31
12985,0.4
12997,1.04
13009,1.55
13021,2.0
13033,2.4
13045,2.79
13057,3.1
13069,3.31
13081,3.36
13092,3.33
13103,3.27
13115,3.23
13127,3.19
13139,3.07
13151,2.75
13163,2.13
13175,1.24
13187,0.24
13199,-0.7
13211,-1.42
13223,-1.84
13235,-2.01
13247,-2.03
13259,-2.05
13271,-2.22
13282,-2.57
13293,-3.06
13305,-3.59
13317,-4.06
13329,-4.4
13341,-4.61
13353,-4.7
13365,-4.66
13377,-4.46
13389,-4.12
13401,-3.65
13413,-3.13
13425,-2.66
13437,-2.31
13449,-2.09
13461,-1.92
13472,-1.64
13483,-1.1
13495,-0.29
13507,0.7
13519,1.67
13531,2.45
13543,2.91
13555,3.07
13567,3.02
13579,2.88
13591,2.7
13603,2.47
13615,2.14
13627,1.72
13639,1.3
13651,1.1
13662,1.29
13673,1.91
13685,2.83
13697,3.77
13709,4.44
13721,4.65
13733,4.4
13745,3.8
13757,3.14
13769,2.58
13781,2.15
13793,1.73
13805,1.09
13817,0.07
13829,-1.31
13841,-2.88
13852,-4.44
13863,-5.77
13875,-6.82
13887,-7.61
13899,-8.19
13911,-8.56
13923,-8.62
13935,-8.26
13947,-7.43
13959,-6.24
13971,-4.92
13983,-3.7
13995,-2.74
14007,-2.04
14019,-1.5
14031,-1.0
14042,-0.49
14053,0.0
14065,0.41
14077,0.7
14089,0.95
14101,1.29
14113,1.84
14125,2.57
14137,3.35
14149,4.03
14161,4.47
14173,4.67
14185,4.71
14197,4.68
14209,4.6
14221,4.45
14232,4.14
14243,3.58
14255,2.79
14267,1.82
14279,0.75
14291,-0.38
14303,-1.51
14315,-2.66
14327,-3.76
14339,-4.75
14351,-5.54
14363,-6.04
14375,-6.21
14387,-6.04
14399,-5.53
14411,-4.7
14422,-3.61
14433,-2.34
14445,-1.03
14457,0.23
14469,1.45
14481,2.78
14493,4.39
14505,6.36
14517,8.58
14529,10.77
14541,12.63
14553,13.95
14565,14.73
14577,15.08
14589,15.12
14601,14.92
14612,14.47
14623,13.74
14635,12.78
14647,11.71
14659,10.65
14671,9.71
14683,8.85
14695,7.98
14707,7.01
14719,5.93
14731,4.76
14743,3.57
14755,2.45
14767,1.44
14779,0.6
14791,-0.03
14802,-0.44
14813,-0.64
14825,-0.64
14837,-0.52
14849,-0.34
14861,-0.21
14873,-0.19
14885,-0.37
14897,-0.79
14909,-1.42
14921,-2.22
14933,-3.05
14945,-3.87
14957,-4.62
14969,-5.33
14981,-6.0
14992,-6.63
15003,-7.13
15015,-7.4
15027,-7.37
15039,-7.05
15051,-6.56
15063,-6.07
15075,-5.71
15087,-5.54
15099,-5.47
15111,-5.39
15123,-5.11
15135,-4.52
15147,-3.63
15159,-2.5
15171,-1.22
15182,0.1
15193,1.37
15205,2.59
15217,3.73
15229,4.76
15241,5.56
15253,6.08
15265,6.25
15277,6.16
15289,5.94
15301,5.77
15313,5.83
15325,6.15
15337,6.67
15349,7.26
15361,7.79
15372,8.2
15383,8.43
15395,8.49
15407,8.32
15419,7.89
15431,7.16
15443,6.11
15455,4.82
15467,3.42
15479,2.1
15491,1.01
15503,0.22
15515,-0.24
15527,-0.43
15539,-0.47
15551,-0.51
15562,-0.61
15573,-0.79
15585,-0.98
15597,-1.06
15609,-0.97
15621,-0.76
15633,-0.61
15645,-0.73
15657,-1.32
15669,-2.4
15681,-3.87
15693,-5.51
15705,-7.06
15717,-8.32
15729,-9.12
15741,-9.4
15752,-9.14
15763,-8.4
15775,-7.26
15787,-5.88
15799,-4.38
15811,-2.91
15823,-1.61
15835,-0.57
15847,0.14
15859,0.49
15871,0.53
15883,0.38
15895,0.14
15907,-0.07
15919,-0.15
15931,-0.05
15942,0.21
15953,0.63
15965,1.15
15977,1.67
15989,2.06
16001,2.24
16013,2.18
16025,1.93
16037,1.55
16049,1.07
16061,0.48
16073,-0.22
16085,-1.02
16097,-1.86
16109,-2.6
16121,-3.13
16132,-3.38
16143,-3.36
16155,-3.15
16167,-2.85
16179,-2.52
16191,-2.21
16203,-1.98
16215,-1.89
16227,-2.0
16239,-2.32
16251,-2.82
16263,-3.43
16275,-4.05
16287,-4.64
16299,-5.19
16311,-5.67
16322,-6.11
16333,-6.5
16345,-6.83
16357,-7.07
16369,-7.16
16381,-7.04
16393,-6.64
16405,-5.95
16417,-4.94
16429,-3.68
16441,-2.3
16453,-0.89
16465,0.44
16477,1.63
16489,2.67
16501,3.54
16512,4.22
16523,4.71
16535,5.02
16547,5.22
16559,5.4
16571,5.65
16583,5.98
16595,6.31
16607,6.5
16619,6.41
16631,6.02
16643,5.36
16655,4.53
16667,3.67
16679,2.81
16691,1.99
16702,1.2
16713,0.42
16725,-0.36
16737,-1.12
16749,-1.83
16761,-2.41
16773,-2.76
16785,-2.8
16797,-2.5
16809,-1.94
16821,-1.34
16833,-0.98
16845,-1.02
16857,-1.49
16869,-2.26
16881,-3.09
16892,-3.83
16903,-4.33
16915,-4.59
16927,-4.66
16939,-4.6
16951,-4.41
16963,-4.13
16975,-3.78
16987,-3.42
16999,-3.18
17011,-3.11
17023,-3.23
17035,-3.5
17047,-3.83
17059,-4.12
17071,-4.3
17082,-4.35
17093,-4.26
17105,-4.04
17117,-3.73
17129,-3.38
17141,-2.99
17153,-2.6
17165,-2.24
17177,-1.92
17189,-1.63
17201,-1.33
17213,-1.01
17225,-0.68
17237,-0.37
17249,-0.08
17261,0.2
17272,0.48
17283,0.77
17295,1.06
17307,1.31
17319,1.38
17331,1.22
17343,0.8
17355,0.2
17367,-0.42
17379,-0.95
17391,-1.35
17403,-1.64
17415,-1.9
17427,-2.19
17439,-2.5
17451,-2.81
17462,-3.11
17473,-3.41
17485,-3.74
17497,-4.11
17509,-4.42
17521,-4.55
17533,-4.4
17545,-4.02
17557,-3.58
17569,-3.3
17581,-3.33
17593,-3.63
17605,-4.02
17617,-4.34
17629,-4.5
17641,-4.5
17652,-4.47
17663,-4.48
17675,-4.52
17687,-4.53
17699,-4.39
17711,-4.08
17723,-3.58
17735,-2.94
17747,-2.18
17759,-1.32
17771,-0.41
17783,0.5
17795,1.28
17807,1.79
17819,1.99
17831,1.91
17842,1.63
17853,1.25
17865,0.85
17877,0.44
17889,0.08
17901,-0.22
17913,-0.38
17925,-0.38
17937,-0.25
17949,-0.05
17961,0.12
17973,0.22
17985,0.28
17997,0.38
18009,0.57
18021,0.82
18032,1.04
18043,1.08
18055,0.86
18067,0.43
18079,-0.03
18091,-0.34
18103,-0.37
18115,-0.13
18127,0.27
18139,0.69
18151,0.97
18163,1.13
18175,1.24
18187,1.4
18199,1.65
18211,1.91
18222,2.09
18233,2.1
18245,1.96
18257,1.68
18269,1.32
18281,0.83
18293,0.13
18305,-0.79
18317,-1.92
18329,-3.07
18341,-4.03
18353,-4.59
18365,-4.67
18377,-4.29
18389,-3.53
18401,-2.52
18412,-1.38
18423,-0.25
18435,0.71
18447,1.37
18459,1.7
18471,1.72
18483,1.53
18495,1.24
18507,0.87
18519,0.42
18531,-0.16
18543,-0.82
18555,-1.51
18567,-2.12
18579,-2.49
18591,-2.54
18602,-2.19
18613,-1.45
18625,-0.36
18637,0.97
18649,2.41
18661,3.78
18673,4.87
18685,5.58
18697,5.83
18709,5.68
18721,5.18
18733,4.48
18745,3.7
18757,2.92
18769,2.27
18781,1.79
18792,1.54
18803,1.5
18815,1.6
18827,1.73
18839,1.78
18851,1.67
18863,1.35
18875,0.87
18887,0.28
18899,-0.33
18911,-0.99
18923,-1.72
18935,-2.59
18947,-3.68
18959,-4.92
18971,-6.19
18982,-7.21
18993,-7.78
19005,-7.77
19017,-7.22
19029,-6.35
19041,-5.47
19053,-4.81
19065,-4.41
19077,-4.2
19089,-3.95
19101,-3.49
19113,-2.73
19125,-1.69
19137,-0.53
19149,0.56
19161,1.45
19172,2.07
19183,2.41
19195,2.52
19207,2.44
19219,2.21
19231,1.93
19243,1.67
19255,1.48
19267,1.41
19279,1.51
19291,1.73
19303,2.03
19315,2.31
19327,2.46
19339,2.47
19351,2.38
19362,2.26
19373,2.24
19385,2.4
19397,2.74
19409,3.19
19421,3.67
19433,4.05
19445,4.3
19457,4.36
19469,4.26
19481,4.03
19493,3.68
19505,3.17
19517,2.52
19529,1.69
19541,0.66
19552,-0.53
19563,-1.86
19575,-3.25
19587,-4.62
19599,-5.9
19611,-7.06
19623,-7.99
19635,-8.63
19647,-8.93
19659,-8.86
19671,-8.45
19683,-7.78
19695,-6.93
19707,-6.0
19719,-5.02
19731,-4.03
19742,-3.05
19753,-2.14
19765,-1.34
19777,-0.69
19789,-0.17
19801,0.31
19813,0.84
19825,1.44
19837,2.09
19849,2.67
19861,3.09
19873,3.34
19885,3.53
19897,3.75
19909,4.06
19921,4.42
19932,4.67
19943,4.7
19955,4.48
19967,4.08
19979,3.69
19991,3.45
20003,3.39
20015,3.45
20027,3.5
20039,3.43
20051,3.18
20063,2.71
20075,2.02
20087,1.14
20099,0.1
20111,-0.96
20122,-1.92
20133,-2.62
20145,-3.0
20157,-3.09
20169,-3.01
20181,-2.95
20193,-3.06
20205,-3.48
20217,-4.19
20229,-5.09
20241,-5.97
20253,-6.62
20265,-6.84
20277,-6.57
20289,-5.92
20301,-5.07
20312,-4.21
20323,-3.45
20335,-2.76
20347,-2.03
20359,-1.16
20371,-0.09
20383,1.17
20395,2.51
20407,3.88
20419,5.23
20431,6.56
20443,7.86
20455,9.07
20467,10.12
20479,10.93
20491,11.44
20502,11.6
20513,11.5
20525,11.23
20537,10.93
20549,10.7
20561,10.57
20573,10.5
20585,10.4
20597,10.19
20609,9.75
20621,9.05
20633,8.09
20645,6.94
20657,5.72
20669,4.6
20681,3.71
20692,3.16
20703,2.95
20715,2.96
20727,2.92
20739,2.54
20751,1.58
20763,0.06
20775,-1.79
20787,-3.62
20799,-5.11
20811,-6.14
20823,-6.83
20835,-7.41
20847,-8.16
20859,-9.16
20871,-10.29
20882,-11.31
20893,-11.89
20905,-11.89
20917,-11.26
20929,-10.12
20941,-8.68
20953,-7.12
20965,-5.63
20977,-4.3
20989,-3.17
