seconds,BVP
0,70.38
11,70.05
23,68.59
35,66.51
47,64.13
59,61.68
71,59.31
83,57.05
95,54.78
107,52.25
119,49.22
131,45.46
143,41.01
155,36.07
167,30.93
179,25.83
190,20.87
201,16.01
213,11.13
225,6.11
237,0.87
249,-4.58
261,-10.23
273,-15.99
285,-21.83
297,-27.71
309,-33.51
321,-39.12
333,-44.32
345,-48.83
357,-52.31
369,-54.46
380,-55.02
391,-53.89
403,-51.16
415,-47.08
427,-42.14
439,-36.98
451,-32.32
463,-28.78
475,-26.7
487,-25.98
499,-26.08
511,-26.3
523,-26.01
535,-24.91
547,-23.13
559,-21.05
570,-19.06
581,-17.27
593,-15.43
605,-13.0
617,-9.4
629,-4.27
641,2.37
653,10.17
665,18.52
677,26.78
689,34.51
701,41.47
713,47.65
725,53.06
737,57.59
749,61.0
760,62.93
771,63.09
783,61.34
795,57.8
807,52.79
819,46.88
831,40.72
843,34.98
855,30.24
867,26.85
879,24.93
891,24.29
903,24.62
915,25.56
927,26.93
939,28.69
950,30.85
961,33.33
973,35.89
985,38.15
997,39.74
1009,40.41
1021,40.04
1033,38.67
1045,36.36
1057,33.23
1069,29.35
1081,24.84
1093,19.91
1105,14.85
1117,9.94
1129,5.38
1140,1.21
1151,-2.63
1163,-6.36
1175,-10.26
1187,-14.56
1199,-19.37
1211,-24.53
1223,-29.63
1235,-34.15
1247,-37.63
1259,-39.93
1271,-41.28
1283,-42.27
1295,-43.59
1307,-45.74
1319,-48.81
1330,-52.52
1341,-56.31
1353,-59.54
1365,-61.73
1377,-62.53
1389,-61.71
1401,-59.11
1413,-54.68
1425,-48.56
1437,-41.08
1449,-32.8
1461,-24.29
1473,-16.01
1485,-8.2
1497,-0.86
1509,6.05
1520,12.52
1531,18.41
1543,23.47
1555,27.45
1567,30.25
1579,31.89
1591,32.54
1603,32.43
1615,31.77
1627,30.76
1639,29.58
1651,28.4
1663,27.3
1675,26.33
1687,25.35
1699,24.22
1710,22.83
1721,21.19
1733,19.46
1745,17.85
1757,16.56
1769,15.6
1781,14.83
1793,13.96
1805,12.7
1817,10.92
1829,8.65
1841,6.05
1853,3.33
1865,0.7
1877,-1.7
1889,-3.76
1900,-5.44
1911,-6.78
1923,-7.92
1935,-9.1
1947,-10.46
1959,-11.98
1971,-13.35
1983,-14.06
1995,-13.65
2007,-11.88
2019,-8.96
2031,-5.44
2043,-2.02
2055,0.79
2067,2.77
2079,4.01
2090,4.76
2101,5.19
2113,5.31
2125,5.04
2137,4.25
2149,2.94
2161,1.19
2173,-0.86
2185,-3.11
2197,-5.55
2209,-8.19
2221,-11.04
2233,-13.96
2245,-16.71
2257,-19.04
2269,-20.82
2280,-22.04
2291,-22.85
2303,-23.47
2315,-24.05
2327,-24.7
2339,-25.39
2351,-26.07
2363,-26.67
2375,-27.13
2387,-27.36
2399,-27.19
2411,-26.39
2423,-24.74
2435,-22.16
2447,-18.73
2459,-14.82
2470,-10.84
2481,-7.12
2493,-3.65
2505,-0.04
2517,4.37
2529,10.13
2541,17.35
2553,25.58
2565,33.83
2577,40.92
2589,45.87
2601,48.16
2613,47.83
2625,45.27
2637,40.99
2649,35.42
2660,28.97
2671,22.02
2683,15.07
2695,8.68
2707,3.35
2719,-0.66
2731,-3.4
2743,-5.18
2755,-6.4
2767,-7.34
2779,-8.08
2791,-8.55
2803,-8.6
2815,-8.16
2827,-7.29
2839,-6.2
2850,-5.08
2861,-4.14
2873,-3.46
2885,-2.97
2897,-2.44
2909,-1.54
2921,0.14
2933,2.87
2945,6.74
2957,11.6
2969,17.06
2981,22.63
2993,27.82
3005,32.25
3017,35.68
3029,38.06
3040,39.44
3051,40.01
3063,39.98
3075,39.45
3087,38.32
3099,36.39
3111,33.51
3123,29.79
3135,25.81
3147,22.42
3159,20.38
3171,19.85
3183,20.19
3195,20.16
3207,18.53
3219,14.71
3230,9.06
3241,2.62
3253,-3.48
3265,-8.65
3277,-13.03
3289,-17.16
3301,-21.41
3313,-25.63
3325,-29.16
3337,-31.27
3349,-31.6
3361,-30.55
3373,-29.02
3385,-28.03
3397,-28.33
3409,-30.1
3420,-33.07
3431,-36.72
3443,-40.57
3455,-44.27
3467,-47.66
3479,-50.62
3491,-53.02
3503,-54.59
3515,-54.87
3527,-53.3
3539,-49.36
3551,-42.82
3563,-33.9
3575,-23.33
3587,-12.2
3599,-1.65
3610,7.41
3621,14.48
3633,19.55
3645,22.88
3657,24.8
3669,25.49
3681,25.0
3693,23.34
3705,20.6
3717,17.07
3729,13.16
3741,9.31
3753,5.78
3765,2.68
3777,-0.06
3789,-2.63
3800,-5.15
3811,-7.72
3823,-10.35
3835,-13.0
3847,-15.64
3859,-18.19
3871,-20.58
3883,-22.7
3895,-24.55
3907,-26.23
3919,-27.92
3931,-29.79
3943,-31.83
3955,-33.82
3967,-35.31
3979,-35.85
3990,-35.16
4001,-33.27
4013,-30.41
4025,-26.95
4037,-23.23
4049,-19.47
4061,-15.78
4073,-12.19
4085,-8.8
4097,-5.68
4109,-2.99
4121,-0.79
4133,0.87
4145,2.1
4157,3.11
4169,4.19
4180,5.65
4191,7.61
4203,9.99
4215,12.39
4227,14.24
4239,14.93
4251,14.08
4263,11.63
4275,7.94
4287,3.64
4299,-0.43
4311,-3.44
4323,-4.58
4335,-3.33
4347,0.56
4359,6.91
4370,15.12
4381,24.2
4393,32.94
4405,40.29
4417,45.56
4429,48.62
4441,49.94
4453,50.34
4465,50.69
4477,51.62
4489,53.25
4501,55.25
4513,56.98
4525,57.82
4537,57.39
4549,55.66
4560,52.89
4571,49.43
4583,45.59
4595,41.46
4607,37.07
4619,32.36
4631,27.29
4643,21.87
4655,16.13
4667,10.12
4679,3.96
4691,-2.11
4703,-7.75
4715,-12.48
4727,-15.95
4739,-18.06
4750,-19.0
4761,-19.28
4773,-19.48
4785,-20.1
4797,-21.32
4809,-23.04
4821,-24.9
4833,-26.53
4845,-27.69
4857,-28.3
4869,-28.44
4881,-28.13
4893,-27.23
4905,-25.42
4917,-22.29
4929,-17.59
4940,-11.43
4951,-4.35
4963,2.97
4975,9.82
4987,15.79
4999,20.74
5011,24.62
5023,27.32
5035,28.55
5047,27.95
5059,25.27
5071,20.6
5083,14.35
5095,7.19
5107,-0.26
5119,-7.49
5130,-14.17
5141,-20.13
5153,-25.21
5165,-29.36
5177,-32.55
5189,-34.87
5201,-36.42
5213,-37.31
5225,-37.61
5237,-37.41
5249,-36.86
5261,-36.23
5273,-35.86
5285,-35.99
5297,-36.59
5309,-37.37
5320,-37.8
5331,-37.37
5343,-35.7
5355,-32.67
5367,-28.32
5379,-22.89
5391,-16.72
5403,-10.26
5415,-3.97
5427,1.7
5439,6.47
5451,10.29
5463,13.33
5475,15.9
5487,18.32
5499,20.75
5510,23.19
5521,25.53
5533,27.58
5545,29.21
5557,30.39
5569,31.25
5581,32.03
5593,33.07
5605,34.65
5617,36.89
5629,39.62
5641,42.41
5653,44.69
5665,45.93
5677,45.83
5689,44.36
5700,41.73
5711,38.19
5723,33.99
5735,29.2
5747,23.81
5759,17.83
5771,11.32
5783,4.47
5795,-2.36
5807,-8.66
5819,-13.85
5831,-17.32
5843,-18.66
5855,-17.85
5867,-15.29
5879,-11.77
5890,-8.24
5901,-5.46
5913,-3.83
5925,-3.4
5937,-4.02
5949,-5.58
5961,-8.11
5973,-11.68
5985,-16.25
5997,-21.56
6009,-27.13
6021,-32.42
6033,-37.02
6045,-40.68
6057,-43.31
6069,-44.9
6080,-45.43
6091,-44.89
6103,-43.34
6115,-40.97
6127,-38.06
6139,-34.94
6151,-31.81
6163,-28.79
6175,-25.92
6187,-23.27
6199,-21.03
6211,-19.43
6223,-18.65
6235,-18.67
6247,-19.2
6259,-19.75
6270,-19.86
6281,-19.27
6293,-18.03
6305,-16.42
6317,-14.71
6329,-13.05
6341,-11.32
6353,-9.32
6365,-6.96
6377,-4.34
6389,-1.85
6401,0.08
6413,1.1
6425,1.14
6437,0.39
6449,-0.78
6460,-2.07
6471,-3.3
6483,-4.53
6495,-6.0
6507,-7.9
6519,-10.27
6531,-12.87
6543,-15.15
6555,-16.38
6567,-15.78
6579,-12.67
6591,-6.71
6603,1.98
6615,12.78
6627,24.59
6639,36.05
6650,45.84
6661,53.01
6673,57.29
6685,59.02
6697,59.03
6709,58.14
6721,56.91
6733,55.53
6745,53.9
6757,51.92
6769,49.63
6781,47.29
6793,45.19
6805,43.48
6817,42.02
6829,40.48
6840,38.54
6851,36.04
6863,33.1
6875,29.96
6887,26.84
6899,23.78
6911,20.62
6923,17.16
6935,13.28
6947,9.07
6959,4.82
6971,0.93
6983,-2.28
6995,-4.64
7007,-6.29
7019,-7.44
7030,-8.4
7041,-9.37
7053,-10.46
7065,-11.69
7077,-13.02
7089,-14.48
7101,-16.05
7113,-17.72
7125,-19.25
7137,-20.35
7149,-20.62
7161,-19.81
7173,-17.87
7185,-15.02
7197,-11.66
7209,-8.29
7220,-5.34
7231,-3.03
7243,-1.42
7255,-0.36
7267,0.43
7279,1.16
7291,1.94
7303,2.69
7315,3.15
7327,3.0
7339,2.08
7351,0.45
7363,-1.59
7375,-3.6
7387,-5.21
7399,-6.17
7410,-6.35
7421,-5.63
7433,-3.99
7445,-1.4
7457,1.92
7469,5.6
7481,9.12
7493,11.96
7505,13.82
7517,14.67
7529,14.72
7541,14.2
7553,13.24
7565,11.78
7577,9.64
7589,6.71
7600,2.99
7611,-1.25
7623,-5.61
7635,-9.67
7647,-13.05
7659,-15.48
7671,-16.82
7683,-16.91
7695,-15.63
7707,-12.95
7719,-9.06
7731,-4.37
7743,0.5
7755,4.96
7767,8.72
7779,11.82
7790,14.54
7801,17.22
7813,19.94
7825,22.46
7837,24.34
7849,25.21
7861,24.94
7873,23.8
7885,22.31
7897,21.02
7909,20.32
7921,20.3
7933,20.81
7945,21.56
7957,22.25
7969,22.71
7980,22.71
7991,22.02
8003,20.23
8015,16.92
8027,11.83
8039,5.1
8051,-2.66
8063,-10.53
8075,-17.64
8087,-23.58
8099,-28.51
8111,-33.09
8123,-37.98
8135,-43.44
8147,-49.14
8159,-54.29
8170,-58.09
8181,-60.03
8193,-60.14
8205,-58.88
8217,-56.81
8229,-54.41
8241,-51.9
8253,-49.28
8265,-46.41
8277,-43.16
8289,-39.48
8301,-35.5
8313,-31.45
8325,-27.66
8337,-24.42
8349,-21.91
8360,-20.04
8371,-18.52
8383,-16.89
8395,-14.77
8407,-11.87
8419,-8.14
8431,-3.69
8443,1.14
8455,5.91
8467,10.01
8479,12.93
8491,14.28
8503,14.06
8515,12.64
8527,10.62
8539,8.61
8550,6.97
8561,5.74
8573,4.69
8585,3.54
8597,2.15
8609,0.67
8621,-0.59
8633,-1.27
8645,-1.1
8657,-0.03
8669,1.9
8681,4.55
8693,7.78
8705,11.51
8717,15.69
8729,20.24
8740,24.99
8751,29.68
8763,33.97
8775,37.39
8787,39.45
8799,39.67
8811,37.78
8823,33.85
8835,28.3
8847,21.84
8859,15.31
8871,9.42
8883,4.73
8895,1.58
8907,0.14
8919,0.42
8930,2.2
8941,4.97
8953,7.97
8965,10.31
8977,11.18
8989,10.09
9001,6.99
9013,2.26
9025,-3.45
9037,-9.43
9049,-14.98
9061,-19.58
9073,-22.9
9085,-24.84
9097,-25.5
9109,-25.07
9120,-23.74
9131,-21.73
9143,-19.22
9155,-16.42
9167,-13.56
9179,-10.86
9191,-8.41
9203,-6.15
9215,-3.84
9227,-1.28
9239,1.57
9251,4.47
9263,6.93
9275,8.5
9287,8.97
9299,8.55
9310,7.78
9321,7.27
9333,7.4
9345,8.14
9357,9.09
9369,9.69
9381,9.52
9393,8.54
9405,7.07
9417,5.58
9429,4.54
9441,4.1
9453,4.14
9465,4.32
9477,4.3
9489,3.87
9500,3.1
9511,2.21
9523,1.55
9535,1.46
9547,2.11
9559,3.6
9571,5.85
9583,8.74
9595,12.11
9607,15.8
9619,19.62
9631,23.35
9643,26.72
9655,29.43
9667,31.2
9679,31.86
9690,31.47
9701,30.25
9713,28.6
9725,26.88
9737,25.29
9749,23.82
9761,22.25
9773,20.24
9785,17.48
9797,13.79
9809,9.16
9821,3.82
9833,-1.88
9845,-7.47
9857,-12.56
9869,-16.94
9880,-20.67
9891,-23.96
9903,-27.12
9915,-30.32
9927,-33.47
9939,-36.24
9951,-38.21
9963,-39.01
9975,-38.47
9987,-36.66
9999,-33.82
10011,-30.29
10023,-26.39
10035,-22.51
10047,-18.99
10059,-16.17
10070,-14.17
10081,-12.92
10093,-12.09
10105,-11.21
10117,-9.96
10129,-8.29
10141,-6.45
10153,-4.84
10165,-3.77
10177,-3.3
10189,-3.2
10201,-3.09
10213,-2.61
10225,-1.67
10237,-0.39
10249,0.96
10260,2.08
10271,2.77
10283,2.87
10295,2.26
10307,0.87
10319,-1.3
10331,-4.15
10343,-7.4
10355,-10.73
10367,-13.89
10379,-16.86
10391,-19.8
10403,-22.95
10415,-26.41
10427,-30.0
10439,-33.27
10450,-35.58
10461,-36.43
10473,-35.57
10485,-33.1
10497,-29.43
10509,-25.08
10521,-20.54
10533,-16.13
10545,-11.99
10557,-8.13
10569,-4.53
10581,-1.27
10593,1.54
10605,3.71
10617,5.15
10629,5.9
10640,6.15
10651,6.25
10663,6.53
10675,7.13
10687,8.06
10699,9.25
10711,10.65
10723,12.33
10735,14.33
10747,16.55
10759,18.66
10771,20.15
10783,20.47
10795,19.25
10807,16.52
10819,12.67
10830,8.38
10841,4.28
10853,0.86
10865,-1.59
10877,-2.93
10889,-3.18
10901,-2.35
10913,-0.57
10925,1.98
10937,4.99
10949,7.74
10961,9.41
10973,9.41
10985,7.52
10997,4.02
11009,-0.43
11020,-5.06
11031,-9.25
11043,-12.72
11055,-16.05
11067,-20.06
11079,-25.2
11091,-31.5
11103,-38.65
11115,-46.15
11127,-53.48
11139,-60.07
11151,-65.28
11163,-69.07
11175,-71.48
11187,-72.22
11199,-71.25
11210,-68.83
11221,-65.51
11233,-61.8
11245,-57.73
11257,-52.73
11269,-46.86
11281,-40.25
11293,-32.65
11305,-24.06
11317,-14.49
11329,-3.84
11341,6.45
11353,13.94
11365,21.38
11377,31.11
11389,41.87
11400,52.73
11411,62.83
11423,71.53
11435,78.61
11447,84.07
11459,88.27
11471,91.64
11483,93.48
11495,92.71
11507,88.67
11519,80.96
11531,69.65
11543,55.38
11555,39.25
11567,22.74
11579,7.61
11590,-5.1
11601,-14.53
11613,-19.68
11625,-20.02
11637,-15.81
11649,-8.29
11661,0.53
11673,8.51
11685,14.05
11697,16.21
11709,15.14
11721,12.15
11733,8.89
11745,6.74
11757,6.49
11769,8.24
11780,11.64
11791,16.17
11803,21.1
11815,25.82
11827,30.07
11839,33.75
11851,36.77
11863,39.04
11875,40.42
11887,40.76
11899,40.08
11911,38.49
11923,36.28
11935,33.84
11947,31.52
11959,29.44
11970,27.62
11981,25.99
11993,24.48
12005,23.07
12017,21.67
12029,20.1
12041,18.14
12053,15.59
12065,12.32
12077,8.47
12089,4.32
12101,0.19
12113,-3.56
12125,-6.68
12137,-8.98
12149,-10.3
12160,-10.6
12171,-9.95
12183,-8.55
12195,-6.66
12207,-4.47
12219,-1.96
12231,1.01
12243,4.56
12255,8.61
12267,12.75
12279,16.36
12291,18.9
12303,20.16
12315,20.36
12327,20.11
12339,20.03
12350,20.45
12361,21.27
12373,22.1
12385,22.39
12397,21.81
12409,20.26
12421,17.93
12433,15.15
12445,12.19
12457,9.24
12469,6.34
12481,3.43
12493,0.56
12505,-2.16
12517,-4.61
12529,-6.7
12540,-8.5
12551,-10.3
12563,-12.42
12575,-15.21
12587,-18.75
12599,-22.81
12611,-26.84
12623,-30.15
12635,-32.04
12647,-32.12
12659,-30.37
12671,-27.2
12683,-23.28
12695,-19.3
12707,-15.79
12719,-13.0
12730,-10.92
12741,-9.35
12753,-8.12
12765,-7.2
12777,-6.62
12789,-6.41
12801,-6.49
12813,-6.6
12825,-6.42
12837,-5.66
12849,-4.2
12861,-2.23
12873,-0.17
12885,1.47
12897,2.22
12909,1.85
12920,0.45
12931,-1.68
12943,-4.16
12955,-6.75
12967,-9.45
12979,-12.39
12991,-15.81
13003,-19.79
13015,-24.22
13027,-28.75
13039,-32.96
13051,-36.43
13063,-38.88
13075,-40.09
13087,-39.95
13099,-38.35
13110,-35.22
13121,-30.61
13133,-24.76
13145,-18.11
13157,-11.33
13169,-5.04
13181,0.24
13193,4.36
13205,7.46
13217,9.88
13229,11.92
13241,13.75
13253,15.35
13265,16.62
13277,17.48
13289,18.01
13300,18.41
13311,18.89
13323,19.59
13335,20.4
13347,21.07
13359,21.33
13371,21.0
13383,20.05
13395,18.66
13407,17.09
13419,15.57
13431,14.24
13443,13.14
13455,12.24
13467,11.54
13479,11.05
13490,10.8
13501,10.75
13513,10.8
13525,10.82
13537,10.69
13549,10.42
13561,10.12
13573,10.01
13585,10.28
13597,11.01
13609,12.13
13621,13.38
13633,14.39
13645,14.79
13657,14.28
13669,12.74
13680,10.24
13691,7.04
13703,3.47
13715,-0.14
13727,-3.62
13739,-6.93
13751,-10.17
13763,-13.42
13775,-16.65
13787,-19.66
13799,-22.16
13811,-23.86
13823,-24.52
13835,-24.06
13847,-22.5
13859,-19.98
13870,-16.67
13881,-12.81
13893,-8.68
13905,-4.53
13917,-0.58
13929,3.1
13941,6.6
13953,10.14
13965,13.93
13977,18.03
13989,22.19
14001,25.83
14013,28.25
14025,28.81
14037,27.16
14049,23.49
14060,18.4
14071,12.78
14083,7.48
14095,3.18
14107,0.28
14119,-1.06
14131,-0.77
14143,1.17
14155,4.74
14167,9.73
14179,15.64
14191,21.66
14203,26.71
14215,29.77
14227,30.11
14239,27.53
14250,22.39
14261,15.52
14273,7.85
14285,0.18
14297,-6.99
14309,-13.52
14321,-19.45
14333,-24.86
14345,-29.8
14357,-34.35
14369,-38.61
14381,-42.84
14393,-47.3
14405,-52.09
14417,-57.01
14429,-61.47
14440,-64.65
14451,-65.74
14463,-64.27
14475,-60.34
14487,-54.63
14499,-48.17
14511,-42.07
14523,-37.22
14535,-34.06
14547,-32.5
14559,-32.06
14571,-32.09
14583,-31.97
14595,-31.38
14607,-30.27
14619,-28.92
14630,-27.74
14641,-27.01
14653,-26.76
14665,-26.76
14677,-26.56
14689,-25.84
14701,-24.53
14713,-22.87
14725,-21.27
14737,-20.13
14749,-19.53
14761,-19.31
14773,-19.08
14785,-18.54
14797,-17.58
14809,-16.36
14820,-15.09
14831,-13.9
14843,-12.69
14855,-11.16
14867,-9.05
14879,-6.37
14891,-3.39
14903,-0.65
14915,1.41
14927,2.61
14939,3.18
14951,3.55
14963,4.18
14975,5.33
14987,6.95
14999,8.75
15010,10.43
15021,11.75
15033,12.64
15045,13.18
15057,13.45
15069,13.54
15081,13.47
15093,13.24
15105,12.94
15117,12.75
15129,12.96
15141,13.83
15153,15.56
15165,18.13
15177,21.31
15189,24.71
15200,27.93
15211,30.7
15223,32.87
15235,34.47
15247,35.63
15259,36.49
15271,37.14
15283,37.55
15295,37.65
15307,37.3
15319,36.44
15331,35.08
15343,33.44
15355,31.9
15367,30.93
15379,30.91
15390,31.98
15401,33.97
15413,36.51
15425,39.14
15437,41.48
15449,43.33
15461,44.6
15473,45.27
15485,45.29
15497,44.49
15509,42.74
15521,39.87
15533,35.86
15545,30.8
15557,24.96
15569,18.74
15580,12.57
15591,6.86
15603,1.81
15615,-2.53
15627,-6.34
15639,-9.76
15651,-12.81
15663,-15.38
15675,-17.3
15687,-18.52
15699,-19.25
15711,-19.94
15723,-21.04
15735,-22.75
15747,-24.94
15759,-27.08
15770,-28.6
15781,-29.03
15793,-28.22
15805,-26.34
15817,-23.73
15829,-20.82
15841,-17.97
15853,-15.46
15865,-13.51
15877,-12.3
15889,-11.86
15901,-12.05
15913,-12.58
15925,-13.07
15937,-13.29
15949,-13.2
15960,-12.98
15971,-12.92
15983,-13.29
15995,-14.16
16007,-15.37
16019,-16.65
16031,-17.66
16043,-18.21
16055,-18.3
16067,-18.09
16079,-17.82
16091,-17.65
16103,-17.66
16115,-17.77
16127,-17.89
16139,-18.0
16150,-18.27
16161,-18.97
16173,-20.38
16185,-22.53
16197,-25.03
16209,-27.13
16221,-27.95
16233,-26.84
16245,-23.59
16257,-18.58
16269,-12.55
16281,-6.38
16293,-0.74
16305,4.05
16317,8.06
16329,11.54
16340,14.75
16351,17.82
16363,20.64
16375,22.96
16387,24.48
16399,25.02
16411,24.56
16423,23.25
16435,21.34
16447,19.07
16459,16.65
16471,14.21
16483,11.8
16495,9.5
16507,7.39
16519,5.56
16530,4.06
16541,2.86
16553,1.87
16565,1.0
16577,0.17
16589,-0.59
16601,-1.21
16613,-1.67
16625,-1.94
16637,-2.19
16649,-2.63
16661,-3.45
16673,-4.71
16685,-6.23
16697,-7.6
16709,-8.27
16720,-7.75
16731,-5.79
16743,-2.46
16755,1.8
16767,6.42
16779,10.89
16791,14.91
16803,18.44
16815,21.56
16827,24.26
16839,26.33
16851,27.37
16863,26.96
16875,24.94
16887,21.56
16899,17.39
16910,13.23
16921,9.68
16933,6.95
16945,4.8
16957,2.65
16969,-0.09
16981,-3.65
16993,-7.79
17005,-11.83
17017,-14.97
17029,-16.62
17041,-16.71
17053,-15.65
17065,-14.16
17077,-12.94
17089,-12.51
17100,-13.13
17111,-14.82
17123,-17.39
17135,-20.48
17147,-23.59
17159,-26.1
17171,-27.58
17183,-27.81
17195,-26.91
17207,-25.31
17219,-23.44
17231,-21.54
17243,-19.51
17255,-16.99
17267,-13.54
17279,-8.91
17290,-3.21
17301,3.14
17313,9.33
17325,14.46
17337,17.75
17349,18.78
17361,17.67
17373,15.17
17385,12.34
17397,10.29
17409,9.81
17421,11.12
17433,13.95
17445,17.72
17457,21.8
17469,25.69
17480,29.02
17491,31.48
17503,32.76
17515,32.61
17527,30.91
17539,27.93
17551,24.19
17563,20.36
17575,16.97
17587,14.18
17599,11.81
17611,9.47
17623,6.87
17635,3.98
17647,1.18
17659,-1.0
17670,-2.06
17681,-1.7
17693,0.07
17705,2.99
17717,6.67
17729,10.67
17741,14.51
17753,17.76
17765,20.04
17777,21.15
17789,21.11
17801,20.17
17813,18.75
17825,17.25
17837,16.0
17849,15.1
17860,14.53
17871,14.12
17883,13.69
17895,13.08
17907,12.22
17919,11.22
17931,10.3
17943,9.73
17955,9.69
17967,10.12
17979,10.64
17991,10.79
18003,10.2
18015,8.79
18027,6.9
18039,4.96
18050,3.35
18061,2.2
18073,1.37
18085,0.7
18097,0.14
18109,-0.21
18121,-0.27
18133,-0.1
18145,-0.04
18157,-0.51
18169,-1.8
18181,-3.85
18193,-6.16
18205,-8.07
18217,-8.99
18229,-8.72
18240,-7.44
18251,-5.62
18263,-3.74
18275,-2.12
18287,-0.7
18299,0.81
18311,2.83
18323,5.71
18335,9.56
18347,14.31
18359,19.73
18371,25.54
18383,31.53
18395,37.41
18407,42.88
18419,47.5
18430,50.73
18441,52.05
18453,51.08
18465,47.7
18477,42.01
18489,34.19
18501,24.35
18513,12.51
18525,-1.34
18537,-16.93
18549,-33.57
18561,-50.02
18573,-64.76
18585,-76.34
18597,-83.88
18609,-87.28
18620,-87.25
18631,-85.06
18643,-82.09
18655,-79.54
18667,-78.13
18679,-78.04
18691,-78.96
18703,-80.27
18715,-81.19
18727,-81.06
18739,-79.6
18751,-76.97
18763,-73.77
18775,-70.69
18787,-68.09
18799,-65.71
18810,-62.6
18821,-57.48
18833,-49.25
18845,-37.5
18857,-22.71
18869,-6.08
18881,10.92
18893,27.05
18905,41.62
18917,54.42
18929,65.49
18941,74.82
18953,82.21
18965,87.28
18977,89.55
18989,88.7
19000,84.7
19011,77.98
19023,69.52
19035,60.78
19047,53.45
19059,48.9
19071,47.68
19083,49.14
19095,51.65
19107,53.15
19119,51.87
19131,46.91
19143,38.48
19155,27.67
19167,15.93
19179,4.61
19190,-5.28
19201,-13.13
19213,-18.69
19225,-22.04
19237,-23.86
19249,-25.08
19261,-26.6
19273,-29.06
19285,-32.6
19297,-36.91
19309,-41.36
19321,-45.32
19333,-48.48
19345,-51.25
19357,-54.12
19369,-57.26
19380,-60.41
19391,-63.15
19403,-65.14
19415,-66.14
19427,-66.03
19439,-64.75
19451,-62.78
19463,-60.37
19475,-57.47
19487,-53.96
19499,-50.04
19511,-46.26
19523,-42.98
19535,-40.01
19547,-36.73
19559,-33.03
19570,-28.66
19581,-23.32
19593,-16.99
19605,-10.1
19617,-3.61
19629,1.68
19641,5.47
19653,12.31
19665,23.74
19677,37.92
19689,51.07
19701,60.25
19713,64.38
19725,63.55
19737,58.19
19749,50.17
19760,41.28
19771,32.33
19783,23.96
19795,16.45
19807,9.41
19819,3.26
19831,-2.8
19843,-9.54
19855,-17.07
19867,-24.92
19879,-32.74
19891,-39.93
19903,-45.76
19915,-49.61
19927,-51.08
19939,-50.2
19950,-47.09
19961,-41.9
19973,-35.09
19985,-27.61
19997,-20.22
20009,-13.25
20021,-6.55
20033,0.18
20045,7.0
20057,13.77
20069,20.31
20081,26.35
20093,31.56
20105,35.91
20117,39.61
20129,43.02
20140,46.48
20151,50.14
20163,54.13
20175,58.61
20187,63.62
20199,68.92
20211,73.97
20223,78.04
20235,80.34
20247,80.3
20259,77.67
20271,72.62
20283,65.68
20295,57.5
20307,48.66
20319,39.61
20330,30.68
20341,22.14
20353,14.34
20365,7.67
20377,2.52
20389,-0.91
20401,-2.65
20413,-3.09
20425,-2.77
20437,-2.25
20449,-1.83
20461,-1.49
20473,-0.98
20485,-0.04
20497,1.36
20509,2.89
20520,4.01
20531,4.18
20543,3.13
20555,1.01
20567,-1.82
20579,-4.9
20591,-7.92
20603,-10.78
20615,-13.54
20627,-16.28
20639,-19.0
20651,-21.58
20663,-23.81
20675,-25.49
20687,-26.39
20699,-26.28
20710,-24.96
20721,-22.31
20733,-18.39
20745,-13.5
20757,-8.16
20769,-2.92
20781,1.76
20793,5.71
20805,8.89
20817,11.3
20829,12.8
20841,13.1
20853,11.93
20865,9.22
20877,5.35
20889,0.99
20900,-3.08
20911,-6.26
20923,-8.41
20935,-9.73
20947,-10.61
20959,-11.38
20971,-12.11
20983,-12.62
20995,-12.74
