seconds,BVP
5,25.78
17,30.5
29,33.23
41,34.22
53,33.86
65,32.6
76,30.96
87,29.39
99,28.25
111,27.73
123,27.86
135,28.5
147,29.39
159,30.23
171,30.7
183,30.56
195,29.7
207,28.16
219,26.06
231,23.54
243,20.63
255,17.26
266,13.31
277,8.69
289,3.45
301,-2.2
313,-7.95
325,-13.49
337,-18.6
349,-23.24
361,-27.53
373,-31.76
385,-36.31
397,-41.48
409,-47.43
421,-53.89
433,-60.23
445,-65.43
456,-68.38
467,-68.19
479,-64.4
491,-57.2
503,-47.25
515,-35.61
527,-23.36
539,-11.47
551,-0.64
563,8.66
575,16.19
587,21.85
599,25.63
611,27.67
623,28.24
635,27.74
646,26.68
657,25.56
669,24.77
681,24.55
693,24.98
705,25.94
717,27.27
729,28.65
741,29.8
753,30.39
765,30.19
777,29.11
789,27.21
801,24.69
813,21.78
825,18.69
836,15.54
847,12.35
859,9.14
871,5.91
883,2.65
895,-0.65
907,-4.05
919,-7.62
931,-11.39
943,-15.29
955,-19.22
967,-23.12
979,-27.12
991,-31.52
1003,-36.74
1015,-42.98
1026,-50.0
1037,-56.92
1049,-62.36
1061,-64.84
1073,-63.31
1085,-57.54
1097,-48.16
1109,-36.48
1121,-24.0
1133,-11.97
1145,-1.19
1157,7.99
1169,15.49
1181,21.33
1193,25.52
1205,28.14
1216,29.4
1227,29.67
1239,29.46
1251,29.23
1263,29.22
1275,29.44
1287,29.64
1299,29.54
1311,28.97
1323,27.9
1335,26.51
1347,24.96
1359,23.29
1371,21.4
1383,19.09
1395,16.18
1406,12.63
1417,8.6
1429,4.39
1441,0.3
1453,-3.42
1465,-6.7
1477,-9.67
1489,-12.5
1501,-15.44
1513,-18.61
1525,-22.01
1537,-25.51
1549,-28.91
1561,-31.98
1573,-34.62
1585,-36.87
1596,-38.95
1607,-41.19
1619,-43.96
1631,-47.54
1643,-51.92
1655,-56.63
1667,-60.78
1679,-63.18
1691,-62.63
1703,-58.43
1715,-50.5
1727,-39.44
1739,-26.41
1751,-12.69
1763,0.55
1775,12.5
1786,22.66
1797,30.87
1809,37.09
1821,41.44
1833,44.12
1845,45.47
1857,45.93
1869,45.99
1881,46.04
1893,46.29
1905,46.75
1917,47.3
1929,47.77
1941,48.06
1953,48.19
1965,48.22
1976,48.22
1987,48.14
1999,47.8
2011,46.91
2023,45.17
2035,42.4
2047,38.63
2059,34.12
2071,29.34
2083,24.76
2095,20.76
2107,17.5
2119,14.78
2131,12.27
2143,9.54
2155,6.32
2166,2.49
2177,-1.85
2189,-6.51
2201,-11.29
2213,-16.04
2225,-20.76
2237,-25.5
2249,-30.37
2261,-35.51
2273,-40.93
2285,-46.5
2297,-51.81
2309,-56.16
2321,-58.61
2333,-58.28
2345,-54.6
2356,-47.59
2367,-37.95
2379,-26.85
2391,-15.56
2403,-5.17
2415,3.66
2427,10.65
2439,15.76
2451,19.06
2463,20.7
2475,20.87
2487,19.94
2499,18.43
2511,16.86
2523,15.67
2535,15.14
2546,15.35
2557,16.21
2569,17.55
2581,19.11
2593,20.6
2605,21.77
2617,22.39
2629,22.37
2641,21.7
2653,20.43
2665,18.66
2677,16.39
2689,13.65
2701,10.49
2713,7.03
2725,3.41
2736,-0.19
2747,-3.66
2759,-6.92
2771,-9.95
2783,-12.75
2795,-15.36
2807,-17.84
2819,-20.32
2831,-22.99
2843,-26.07
2855,-29.74
2867,-34.01
2879,-38.6
2891,-42.9
2903,-46.05
2915,-47.08
2926,-45.26
2937,-40.34
2949,-32.68
2961,-23.18
2973,-13.04
2985,-3.35
2997,5.12
3009,12.02
3021,17.28
3033,20.95
3045,23.05
3057,23.62
3069,22.88
3081,21.3
3093,19.58
3105,18.45
3116,18.4
3127,19.47
3139,21.32
3151,23.34
3163,25.02
3175,26.03
3187,26.32
3199,25.96
3211,25.01
3223,23.49
3235,21.29
3247,18.35
3259,14.62
3271,10.13
3283,5.05
3295,-0.39
3306,-5.82
3317,-10.9
3329,-15.34
3341,-19.05
3353,-22.18
3365,-25.1
3377,-28.27
3389,-32.06
3401,-36.63
3413,-41.81
3425,-47.08
3437,-51.67
3449,-54.69
3461,-55.32
3473,-53.04
3485,-47.73
3496,-39.82
3507,-30.14
3519,-19.75
3531,-9.67
3543,-0.7
3555,6.7
3567,12.32
3579,16.18
3591,18.41
3603,19.28
3615,19.15
3627,18.54
3639,17.96
3651,17.85
3663,18.43
3675,19.69
3686,21.34
3697,22.98
3709,24.22
3721,24.82
3733,24.73
3745,24.11
3757,23.15
3769,22.0
3781,20.58
3793,18.63
3805,15.84
3817,11.97
3829,7.09
3841,1.52
3853,-4.25
3865,-9.74
3876,-14.66
3887,-18.97
3899,-22.84
3911,-26.54
3923,-30.35
3935,-34.52
3947,-39.18
3959,-44.29
3971,-49.45
3983,-53.89
3995,-56.6
4007,-56.57
4019,-53.18
4031,-46.45
4043,-37.06
4055,-26.1
4066,-14.78
4077,-4.09
4089,5.33
4101,13.2
4113,19.46
4125,24.17
4137,27.49
4149,29.58
4161,30.66
4173,30.95
4185,30.7
4197,30.22
4209,29.82
4221,29.74
4233,30.11
4245,30.87
4256,31.75
4267,32.41
4279,32.57
4291,32.07
4303,30.91
4315,29.24
4327,27.15
4339,24.62
4351,21.56
4363,17.83
4375,13.33
4387,8.14
4399,2.49
4411,-3.32
4423,-9.0
4435,-14.31
4446,-19.1
4457,-23.3
4469,-26.97
4481,-30.31
4493,-33.7
4505,-37.66
4517,-42.64
4529,-48.71
4541,-55.37
4553,-61.56
4565,-65.9
4577,-67.12
4589,-64.48
4601,-58.0
4613,-48.41
4625,-36.88
4636,-24.67
4647,-12.85
4659,-2.17
4671,6.98
4683,14.45
4695,20.26
4707,24.58
4719,27.65
4731,29.78
4743,31.3
4755,32.52
4767,33.67
4779,34.85
4791,36.07
4803,37.22
4815,38.18
4826,38.86
4837,39.21
4849,39.27
4861,39.04
4873,38.51
4885,37.6
4897,36.18
4909,34.16
4921,31.59
4933,28.63
4945,25.48
4957,22.34
4969,19.31
4981,16.33
4993,13.28
5005,9.97
5016,6.27
5027,2.16
5039,-2.26
5051,-6.8
5063,-11.24
5075,-15.47
5087,-19.49
5099,-23.54
5111,-28.03
5123,-33.37
5135,-39.73
5147,-46.87
5159,-54.02
5171,-60.01
5183,-63.52
5195,-63.52
5206,-59.49
5217,-51.64
5229,-40.76
5241,-28.05
5253,-14.76
5265,-1.95
5277,9.69
5289,19.79
5301,28.25
5313,35.03
5325,40.14
5337,43.58
5349,45.44
5361,45.92
5373,45.44
5385,44.5
5396,43.66
5407,43.3
5419,43.52
5431,44.12
5443,44.72
5455,44.95
5467,44.62
5479,43.77
5491,42.59
5503,41.24
5515,39.71
5527,37.8
5539,35.21
5551,31.8
5563,27.67
5575,23.22
5586,18.99
5597,15.39
5609,12.56
5621,10.24
5633,7.98
5645,5.33
5657,2.06
5669,-1.74
5681,-5.76
5693,-9.63
5705,-13.09
5717,-16.16
5729,-19.02
5741,-22.02
5753,-25.52
5765,-29.83
5776,-35.2
5787,-41.69
5799,-49.12
5811,-56.91
5823,-64.06
5835,-69.29
5847,-71.31
5859,-69.23
5871,-62.81
5883,-52.64
5895,-39.94
5907,-26.24
5919,-13.0
5931,-1.2
5943,8.6
5955,16.33
5966,22.1
5977,26.06
5989,28.35
6001,29.15
6013,28.79
6025,27.77
6037,26.68
6049,26.02
6061,26.0
6073,26.54
6085,27.33
6097,28.04
6109,28.41
6121,28.38
6133,27.95
6145,27.1
6156,25.79
6167,23.92
6179,21.45
6191,18.51
6203,15.36
6215,12.25
6227,9.36
6239,6.73
6251,4.21
6263,1.58
6275,-1.33
6287,-4.63
6299,-8.28
6311,-12.18
6323,-16.13
6335,-20.03
6346,-23.8
6357,-27.56
6369,-31.49
6381,-35.87
6393,-40.85
6405,-46.34
6417,-51.87
6429,-56.58
6441,-59.42
6453,-59.39
6465,-55.91
6477,-48.98
6489,-39.18
6501,-27.55
6513,-15.22
6525,-3.22
6536,7.65
6547,16.88
6559,24.14
6571,29.29
6583,32.35
6595,33.5
6607,33.12
6619,31.76
6631,29.96
6643,28.21
6655,26.84
6667,26.0
6679,25.72
6691,25.92
6703,26.38
6715,26.84
6726,26.97
6737,26.49
6749,25.29
6761,23.41
6773,21.04
6785,18.38
6797,15.55
6809,12.55
6821,9.28
6833,5.66
6845,1.68
6857,-2.57
6869,-6.92
6881,-11.24
6893,-15.4
6905,-19.29
6916,-22.87
6927,-26.15
6939,-29.26
6951,-32.5
6963,-36.26
6975,-40.93
6987,-46.61
6999,-52.96
7011,-59.16
7023,-64.0
7035,-66.23
7047,-64.89
7059,-59.61
7071,-50.74
7083,-39.21
7095,-26.26
7106,-13.13
7117,-0.79
7129,10.12
7141,19.31
7153,26.66
7165,32.14
7177,35.82
7189,37.83
7201,38.44
7213,38.04
7225,37.1
7237,36.03
7249,35.11
7261,34.47
7273,34.08
7285,33.87
7296,33.82
7307,33.88
7319,34.0
7331,34.07
7343,33.89
7355,33.16
7367,31.64
7379,29.15
7391,25.71
7403,21.54
7415,16.99
7427,12.51
7439,8.46
7451,4.97
7463,1.9
7475,-1.11
7486,-4.47
7497,-8.43
7509,-12.94
7521,-17.67
7533,-22.18
7545,-26.16
7557,-29.59
7569,-32.76
7581,-36.17
7593,-40.34
7605,-45.66
7617,-52.3
7629,-60.02
7641,-68.09
7653,-75.29
7665,-80.11
7676,-81.09
7687,-77.3
7699,-68.76
7711,-56.41
7723,-41.82
7735,-26.76
7747,-12.55
7759,0.08
7771,10.97
7783,20.26
7795,28.09
7807,34.4
7819,39.04
7831,41.93
7843,43.22
7855,43.4
7866,43.13
7877,43.02
7889,43.44
7901,44.29
7913,45.21
7925,45.77
7937,45.69
7949,45.01
7961,44.03
7973,43.04
7985,42.15
7997,41.18
8009,39.83
8021,37.76
8033,34.89
8045,31.38
8056,27.5
8067,23.51
8079,19.53
8091,15.56
8103,11.65
8115,7.93
8127,4.61
8139,1.86
8151,-0.39
8163,-2.42
8175,-4.71
8187,-7.62
8199,-11.28
8211,-15.49
8223,-19.92
8235,-24.21
8246,-28.19
8257,-31.92
8269,-35.72
8281,-40.0
8293,-45.22
8305,-51.63
8317,-59.08
8329,-66.9
8341,-73.89
8353,-78.52
8365,-79.35
8377,-75.5
8389,-66.9
8401,-54.4
8413,-39.47
8425,-23.77
8436,-8.74
8447,4.68
8459,16.04
8471,25.27
8483,32.47
8495,37.72
8507,41.1
8519,42.79
8531,43.08
8543,42.51
8555,41.63
8567,40.94
8579,40.67
8591,40.74
8603,40.95
8615,41.04
8626,40.96
8637,40.78
8649,40.65
8661,40.66
8673,40.73
8685,40.62
8697,40.09
8709,38.96
8721,37.21
8733,34.95
8745,32.3
8757,29.35
8769,26.11
8781,22.55
8793,18.73
8805,14.75
8816,10.87
8827,7.32
8839,4.26
8851,1.64
8863,-0.76
8875,-3.3
8887,-6.31
8899,-9.91
8911,-14.01
8923,-18.33
8935,-22.54
8947,-26.47
8959,-30.16
8971,-33.86
8983,-37.89
8995,-42.58
9006,-48.14
9017,-54.64
9029,-61.82
9041,-69.11
9053,-75.46
9065,-79.53
9077,-80.02
9089,-76.07
9101,-67.62
9113,-55.47
9125,-41.09
9137,-26.1
9149,-11.91
9161,0.58
9173,10.93
9185,19.03
9196,24.92
9207,28.7
9219,30.62
9231,31.17
9243,30.98
9255,30.77
9267,31.07
9279,32.12
9291,33.76
9303,35.58
9315,37.17
9327,38.21
9339,38.65
9351,38.61
9363,38.27
9375,37.76
9386,36.95
9397,35.54
9409,33.24
9421,29.87
9433,25.5
9445,20.53
9457,15.49
9469,10.92
9481,7.1
9493,4.0
9505,1.3
9517,-1.5
9529,-4.73
9541,-8.5
9553,-12.63
9565,-16.73
9576,-20.46
9587,-23.65
9599,-26.41
9611,-29.11
9623,-32.24
9635,-36.2
9647,-41.12
9659,-46.68
9671,-52.11
9683,-56.32
9695,-58.07
9707,-56.36
9719,-50.68
9731,-41.17
9743,-28.72
9755,-14.61
9766,-0.29
9777,12.95
9789,24.19
9801,32.99
9813,39.25
9825,43.15
9837,45.06
9849,45.47
9861,44.9
9873,43.9
9885,42.87
9897,41.97
9909,41.14
9921,40.15
9933,38.87
9945,37.29
9956,35.63
9967,34.18
9979,33.15
9991,32.47
10003,31.9
10015,31.07
10027,29.66
10039,27.52
10051,24.62
10063,21.02
10075,16.78
10087,11.98
10099,6.74
10111,1.18
10123,-4.56
10135,-10.33
10146,-15.99
10157,-21.44
10169,-26.58
10181,-31.38
10193,-35.92
10205,-40.49
10217,-45.51
10229,-51.36
10241,-58.22
10253,-65.78
10265,-73.23
10277,-79.42
10289,-83.08
10301,-83.2
10313,-79.28
10325,-71.44
10336,-60.41
10347,-47.35
10359,-33.57
10371,-20.3
10383,-8.45
10395,1.47
10407,9.3
10419,15.15
10431,19.22
10443,21.83
10455,23.35
10467,24.25
10479,25.06
10491,26.23
10503,27.92
10515,30.0
10526,32.09
10537,33.72
10549,34.66
10561,34.98
10573,34.99
10585,34.99
10597,35.06
10609,34.97
10621,34.28
10633,32.62
10645,29.9
10657,26.32
10669,22.26
10681,18.08
10693,13.96
10705,9.89
10716,5.72
10727,1.32
10739,-3.39
10751,-8.4
10763,-13.6
10775,-18.86
10787,-23.95
10799,-28.69
10811,-32.97
10823,-36.91
10835,-40.9
10847,-45.52
10859,-51.31
10871,-58.56
10883,-66.99
10895,-75.73
10906,-83.4
10917,-88.48
10929,-89.66
10941,-86.27
10953,-78.39
10965,-66.92
10977,-53.17
10989,-38.56
11001,-24.26
11013,-11.0
11025,0.85
11037,11.17
11049,19.85
11061,26.79
11073,31.87
11085,35.16
11096,36.99
11107,37.91
11119,38.53
11131,39.33
11143,40.48
11155,41.83
11167,43.09
11179,43.98
11191,44.39
11203,44.43
11215,44.32
11227,44.23
11239,44.21
11251,44.09
11263,43.62
11275,42.54
11286,40.69
11297,38.09
11309,34.93
11321,31.51
11333,28.15
11345,25.08
11357,22.32
11369,19.73
11381,17.02
11393,13.86
11405,10.02
11417,5.5
11429,0.45
11441,-4.86
11453,-10.15
11465,-15.27
11476,-20.2
11487,-25.08
11499,-30.15
11511,-35.72
11523,-42.04
11535,-49.27
11547,-57.24
11559,-65.4
11571,-72.72
11583,-77.93
11595,-79.76
11607,-77.36
11619,-70.58
11631,-60.03
11643,-46.87
11655,-32.5
11666,-18.24
11677,-5.0
11689,6.68
11701,16.56
11713,24.59
11725,30.7
11737,34.9
11749,37.23
11761,37.96
11773,37.55
11785,36.61
11797,35.71
11809,35.14
11821,34.82
11833,34.37
11845,33.26
11856,31.2
11867,28.33
11879,25.19
11891,22.55
11903,20.99
11915,20.72
11927,21.5
11939,22.81
11951,24.16
11963,25.31
11975,26.29
11987,27.24
11999,28.19
12011,28.89
12023,28.88
12035,27.66
12046,24.93
12057,20.77
12069,15.61
12081,10.06
12093,4.66
12105,-0.25
12117,-4.65
12129,-8.76
12141,-12.91
12153,-17.47
12165,-22.8
12177,-29.11
12189,-36.5
12201,-44.77
12213,-53.29
12225,-61.03
12236,-66.67
12247,-68.97
12259,-67.06
12271,-60.81
12283,-50.81
12295,-38.3
12307,-24.74
12319,-11.53
12331,0.32
12343,10.19
12355,17.89
12367,23.44
12379,26.99
12391,28.76
12403,29.02
12415,28.14
12426,26.6
12437,24.89
12449,23.5
12461,22.76
12473,22.84
12485,23.68
12497,25.04
12509,26.59
12521,27.89
12533,28.57
12545,28.34
12557,27.05
12569,24.79
12581,21.76
12593,18.28
12605,14.61
12616,10.95
12627,7.34
12639,3.76
12651,0.2
12663,-3.36
12675,-6.83
12687,-10.1
12699,-13.1
12711,-15.8
12723,-18.28
12735,-20.76
12747,-23.59
12759,-27.21
12771,-32.02
12783,-38.16
12795,-45.39
12806,-52.91
12817,-59.51
12829,-63.81
12841,-64.65
12853,-61.4
12865,-54.17
12877,-43.71
12889,-31.19
12901,-17.91
12913,-5.0
12925,6.75
12937,16.8
12949,24.91
12961,30.93
12973,34.85
12985,36.8
12996,37.07
13007,36.18
13019,34.69
13031,33.18
13043,32.04
13055,31.46
13067,31.41
13079,31.72
13091,32.12
13103,32.32
13115,32.05
13127,31.03
13139,29.1
13151,26.23
13163,22.61
13175,18.5
13186,14.23
13197,10.06
13209,6.05
13221,2.1
13233,-1.97
13245,-6.3
13257,-10.91
13269,-15.64
13281,-20.28
13293,-24.63
13305,-28.67
13317,-32.57
13329,-36.66
13341,-41.36
13353,-47.05
13365,-53.84
13376,-61.48
13387,-69.25
13399,-75.92
13411,-80.03
13423,-80.21
13435,-75.62
13447,-66.26
13459,-52.93
13471,-37.14
13483,-20.52
13495,-4.53
13507,9.86
13519,22.11
13531,32.05
13543,39.68
13555,45.06
13566,48.35
13577,49.89
13589,50.18
13601,49.86
13613,49.49
13625,49.46
13637,49.81
13649,50.34
13661,50.73
13673,50.76
13685,50.36
13697,49.65
13709,48.79
13721,47.82
13733,46.6
13745,44.87
13756,42.29
13767,38.72
13779,34.25
13791,29.26
13803,24.24
13815,19.58
13827,15.35
13839,11.33
13851,7.11
13863,2.34
13875,-3.01
13887,-8.68
13899,-14.25
13911,-19.39
13923,-23.98
13935,-28.17
13946,-32.37
13957,-37.0
13969,-42.51
13981,-49.14
13993,-56.84
14005,-65.1
14017,-72.92
14029,-78.89
14041,-81.52
14053,-79.7
14065,-73.08
14077,-62.28
14089,-48.7
14101,-34.03
14113,-19.8
14125,-6.92
14136,4.3
14147,14.03
14159,22.46
14171,29.66
14183,35.47
14195,39.73
14207,42.41
14219,43.73
14231,44.16
14243,44.16
14255,44.08
14267,44.03
14279,43.97
14291,43.81
14303,43.57
14315,43.37
14326,43.36
14337,43.58
14349,43.83
14361,43.72
14373,42.71
14385,40.44
14397,36.86
14409,32.38
14421,27.79
14433,23.91
14445,21.32
14457,20.1
14469,19.89
14481,20.02
14493,19.88
14505,19.06
14516,17.42
14527,14.97
14539,11.77
14551,7.9
14563,3.44
14575,-1.45
14587,-6.47
14599,-11.4
14611,-16.2
14623,-21.06
14635,-26.46
14647,-32.86
14659,-40.48
14671,-49.05
14683,-57.74
14695,-65.27
14706,-70.21
14717,-71.35
14729,-68.06
14741,-60.47
14753,-49.49
14765,-36.55
14777,-23.22
14789,-10.79
14801,0.02
14813,9.09
14825,16.65
14837,23.04
14849,28.41
14861,32.74
14873,35.89
14885,37.89
14896,38.98
14907,39.63
14919,40.27
14931,41.18
14943,42.31
14955,43.41
14967,44.16
14979,44.45
14991,44.33
15003,43.97
15015,43.52
15027,42.91
15039,41.93
15051,40.26
15063,37.72
15075,34.32
15086,30.27
15097,25.94
15109,21.7
15121,17.84
15133,14.5
15145,11.61
15157,8.97
15169,6.27
15181,3.17
15193,-0.52
15205,-4.81
15217,-9.46
15229,-14.12
15241,-18.46
15253,-22.38
15265,-26.03
15276,-29.77
15287,-34.04
15299,-39.21
15311,-45.37
15323,-52.3
15335,-59.4
15347,-65.74
15359,-70.16
15371,-71.54
15383,-69.09
15395,-62.56
15407,-52.45
15419,-39.81
15431,-26.07
15443,-12.62
15455,-0.53
15466,9.63
15477,17.62
15489,23.52
15501,27.53
15513,29.89
15525,30.87
15537,30.84
15549,30.24
15561,29.56
15573,29.25
15585,29.59
15597,30.64
15609,32.19
15621,33.9
15633,35.32
15645,36.09
15656,36.03
15667,35.11
15679,33.44
15691,31.15
15703,28.31
15715,24.93
15727,20.97
15739,16.41
15751,11.37
15763,5.99
15775,0.49
15787,-4.93
15799,-10.07
15811,-14.82
15823,-19.07
15835,-22.85
15846,-26.22
15857,-29.35
15869,-32.47
15881,-35.83
15893,-39.69
15905,-44.26
15917,-49.56
15929,-55.31
15941,-60.82
15953,-64.96
15965,-66.48
15977,-64.36
15989,-58.14
16001,-48.21
16013,-35.66
16025,-21.93
16036,-8.43
16047,3.86
16059,14.37
16071,22.91
16083,29.43
16095,33.87
16107,36.22
16119,36.6
16131,35.32
16143,32.94
16155,30.13
16167,27.52
16179,25.52
16191,24.26
16203,23.61
16215,23.31
16226,23.08
16237,22.68
16249,21.95
16261,20.8
16273,19.17
16285,17.1
16297,14.67
16309,12.04
16321,9.31
16333,6.49
16345,3.49
16357,0.14
16369,-3.67
16381,-7.93
16393,-12.49
16405,-17.03
16416,-21.27
16427,-25.02
16439,-28.27
16451,-31.3
16463,-34.56
16475,-38.59
16487,-43.78
16499,-50.19
16511,-57.33
16523,-64.14
16535,-69.23
16547,-71.16
16559,-68.93
16571,-62.25
16583,-51.75
16595,-38.67
16606,-24.57
16617,-10.76
16629,1.86
16641,12.89
16653,22.24
16665,29.89
16677,35.76
16689,39.7
16701,41.73
16713,42.1
16725,41.32
16737,39.99
16749,38.66
16761,37.64
16773,36.95
16785,36.49
16796,36.15
16807,35.85
16819,35.63
16831,35.43
16843,35.11
16855,34.4
16867,33.04
16879,30.81
16891,27.69
16903,23.79
16915,19.36
16927,14.62
16939,9.7
16951,4.68
16963,-0.36
16975,-5.32
16986,-10.07
16997,-14.44
17009,-18.43
17021,-22.16
17033,-25.97
17045,-30.24
17057,-35.32
17069,-41.4
17081,-48.47
17093,-56.19
17105,-63.9
17117,-70.68
17129,-75.42
17141,-77.02
17153,-74.71
17165,-68.29
17176,-58.25
17187,-45.68
17199,-31.87
17211,-18.06
17223,-5.15
17235,6.37
17247,16.32
17259,24.6
17271,31.12
17283,35.84
17295,38.83
17307,40.39
17319,41.02
17331,41.3
17343,41.73
17355,42.52
17366,43.61
17377,44.73
17389,45.64
17401,46.21
17413,46.51
17425,46.77
17437,47.13
17449,47.55
17461,47.75
17473,47.3
17485,45.82
17497,43.12
17509,39.27
17521,34.6
17533,29.48
17545,24.26
17556,19.1
17567,13.9
17579,8.45
17591,2.48
17603,-4.1
17615,-11.15
17627,-18.28
17639,-25.01
17651,-30.9
17663,-35.78
17675,-39.78
17687,-43.3
17699,-46.92
17711,-51.27
17723,-56.83
17735,-63.81
17746,-71.99
17757,-80.62
17769,-88.38
17781,-93.69
17793,-95.04
17805,-91.53
17817,-83.06
17829,-70.45
17841,-55.16
17853,-38.79
17865,-22.76
17877,-8.05
17889,4.87
17901,15.91
17913,25.05
17925,32.32
17936,37.77
17947,41.42
17959,43.46
17971,44.25
17983,44.27
17995,44.06
18007,44.02
18019,44.43
18031,45.34
18043,46.62
18055,48.11
18067,49.61
18079,50.98
18091,52.09
18103,52.74
18115,52.7
18126,51.69
18137,49.47
18149,45.96
18161,41.25
18173,35.66
18185,29.66
18197,23.78
18209,18.44
18221,13.78
18233,9.71
18245,5.9
18257,1.97
18269,-2.33
18281,-7.07
18293,-12.08
18305,-17.11
18316,-21.92
18327,-26.42
18339,-30.68
18351,-34.89
18363,-39.35
18375,-44.33
18387,-50.11
18399,-56.79
18411,-64.17
18423,-71.58
18435,-77.89
18447,-81.76
18459,-81.95
18471,-77.75
18483,-69.19
18495,-57.04
18506,-42.59
18517,-27.21
18529,-12.21
18541,1.45
18553,13.15
18565,22.53
18577,29.49
18589,34.15
18601,36.81
18613,37.89
18625,37.91
18637,37.31
18649,36.5
18661,35.71
18673,35.1
18685,34.7
18696,34.51
18707,34.54
18719,34.82
18731,35.33
18743,35.96
18755,36.53
18767,36.71
18779,36.13
18791,34.55
18803,31.87
18815,28.28
18827,24.11
18839,19.68
18851,15.23
18863,10.76
18875,6.14
18886,1.2
18897,-4.06
18909,-9.51
18921,-14.87
18933,-19.89
18945,-24.45
18957,-28.62
18969,-32.66
18981,-36.89
18993,-41.69
19005,-47.28
19017,-53.65
19029,-60.38
19041,-66.6
19053,-71.13
19065,-72.75
19076,-70.56
19087,-64.32
19099,-54.45
19111,-41.94
19123,-28.06
19135,-14.01
19147,-0.81
19159,10.71
19171,19.99
19183,26.69
19195,30.77
19207,32.51
19219,32.42
19231,31.18
19243,29.39
19255,27.57
19266,26.15
19277,25.43
19289,25.64
19301,26.75
19313,28.54
19325,30.52
19337,32.14
19349,32.98
19361,32.83
19373,31.78
19385,30.05
19397,27.83
19409,25.18
19421,22.0
19433,18.17
19445,13.62
19456,8.48
19467,3.0
19479,-2.51
19491,-7.76
19503,-12.59
19515,-17.02
19527,-21.18
19539,-25.31
19551,-29.69
19563,-34.6
19575,-40.22
19587,-46.54
19599,-53.27
19611,-59.72
19623,-64.82
19635,-67.42
19646,-66.53
19657,-61.69
19669,-53.1
19681,-41.61
19693,-28.46
19705,-14.94
19717,-2.08
19729,9.38
19741,19.05
19753,26.76
19765,32.45
19777,36.16
19789,38.04
19801,38.4
19813,37.62
19825,36.23
19836,34.7
19847,33.46
19859,32.77
19871,32.68
19883,33.11
19895,33.83
19907,34.61
19919,35.18
19931,35.31
19943,34.79
19955,33.52
19967,31.49
19979,28.83
19991,25.75
20003,22.5
20015,19.3
20026,16.21
20037,13.17
20049,9.95
20061,6.31
20073,2.07
20085,-2.81
20097,-8.18
20109,-13.74
20121,-19.16
20133,-24.2
20145,-28.86
20157,-33.44
20169,-38.41
20181,-44.28
20193,-51.26
20205,-59.07
20216,-66.82
20227,-73.19
20239,-76.76
20251,-76.42
20263,-71.7
20275,-62.9
20287,-50.95
20299,-37.12
20311,-22.71
20323,-8.78
20335,3.95
20347,15.04
20359,24.25
20371,31.46
20383,36.68
20395,40.05
20406,41.83
20417,42.43
20429,42.28
20441,41.79
20453,41.21
20465,40.71
20477,40.33
20489,40.01
20501,39.73
20513,39.44
20525,39.17
20537,38.95
20549,38.73
20561,38.41
20573,37.75
20585,36.54
20596,34.59
20607,31.87
20619,28.5
20631,24.72
20643,20.77
20655,16.86
20667,13.07
20679,9.35
20691,5.55
20703,1.43
20715,-3.17
20727,-8.31
20739,-13.86
20751,-19.52
20763,-24.87
20775,-29.61
20786,-33.6
20797,-37.03
20809,-40.32
20821,-43.98
20833,-48.49
20845,-54.01
20857,-60.33
20869,-66.74
20881,-72.13
20893,-75.23
20905,-74.85
20917,-70.31
20929,-61.56
20941,-49.33
20953,-34.84
20965,-19.47
20976,-4.49
20987,9.21
20999,21.13
