seconds,BVP
4,-22.79
16,-17.29
28,-11.05
40,-4.85
52,0.63
64,5.0
76,8.15
88,10.2
100,11.4
112,12.01
124,12.24
136,12.22
148,12.04
159,11.76
170,11.45
182,11.17
194,10.97
206,10.88
218,10.94
230,11.2
242,11.69
254,12.41
266,13.28
278,14.16
290,14.91
302,15.36
314,15.43
326,15.14
338,14.55
349,13.78
360,12.95
372,12.15
384,11.4
396,10.69
408,9.91
420,8.97
432,7.76
444,6.24
456,4.49
468,2.65
480,0.91
492,-0.54
504,-1.63
516,-2.42
528,-3.07
539,-3.83
550,-4.9
562,-6.38
574,-8.17
586,-10.04
598,-11.73
610,-13.05
622,-14.04
634,-14.86
646,-15.83
658,-17.25
670,-19.27
682,-21.88
694,-24.78
706,-27.49
718,-29.39
729,-29.88
740,-28.6
752,-25.47
764,-20.83
776,-15.31
788,-9.62
800,-4.4
812,-0.04
824,3.36
836,5.87
848,7.62
860,8.73
872,9.26
884,9.27
896,8.85
908,8.13
919,7.29
930,6.51
942,5.94
954,5.63
966,5.56
978,5.67
990,5.89
1002,6.22
1014,6.78
1026,7.65
1038,8.87
1050,10.28
1062,11.56
1074,12.33
1086,12.36
1098,11.63
1109,10.41
1120,9.11
1132,8.05
1144,7.37
1156,6.99
1168,6.68
1180,6.23
1192,5.53
1204,4.6
1216,3.56
1228,2.52
1240,1.58
1252,0.78
1264,0.07
1276,-0.65
1288,-1.53
1299,-2.63
1310,-3.98
1322,-5.52
1334,-7.1
1346,-8.58
1358,-9.9
1370,-11.04
1382,-12.07
1394,-13.12
1406,-14.3
1418,-15.69
1430,-17.33
1442,-19.25
1454,-21.41
1466,-23.62
1478,-25.57
1489,-26.78
1500,-26.79
1512,-25.27
1524,-22.21
1536,-17.92
1548,-12.91
1560,-7.79
1572,-3.01
1584,1.18
1596,4.71
1608,7.59
1620,9.86
1632,11.51
1644,12.5
1656,12.85
1668,12.63
1679,11.97
1690,11.07
1702,10.12
1714,9.34
1726,8.88
1738,8.82
1750,9.14
1762,9.76
1774,10.56
1786,11.42
1798,12.24
1810,12.94
1822,13.42
1834,13.58
1846,13.36
1858,12.81
1869,12.04
1880,11.23
1892,10.54
1904,10.0
1916,9.52
1928,8.93
1940,8.08
1952,6.86
1964,5.36
1976,3.73
1988,2.2
2000,0.96
2012,0.1
2024,-0.41
2036,-0.71
2048,-0.98
2059,-1.38
2070,-1.98
2082,-2.77
2094,-3.69
2106,-4.71
2118,-5.82
2130,-7.07
2142,-8.43
2154,-9.84
2166,-11.18
2178,-12.4
2190,-13.56
2202,-14.85
2214,-16.48
2226,-18.52
2238,-20.74
2249,-22.61
2260,-23.45
2272,-22.74
2284,-20.34
2296,-16.54
2308,-11.93
2320,-7.2
2332,-2.81
2344,0.98
2356,4.13
2368,6.64
2380,8.46
2392,9.51
2404,9.79
2416,9.44
2428,8.71
2439,7.9
2450,7.22
2462,6.71
2474,6.36
2486,6.1
2498,5.94
2510,6.0
2522,6.38
2534,7.12
2546,8.12
2558,9.23
2570,10.23
2582,10.97
2594,11.32
2606,11.22
2618,10.67
2629,9.73
2640,8.53
2652,7.24
2664,6.05
2676,5.05
2688,4.24
2700,3.51
2712,2.74
2724,1.83
2736,0.8
2748,-0.28
2760,-1.31
2772,-2.23
2784,-3.05
2796,-3.79
2808,-4.48
2819,-5.06
2830,-5.47
2842,-5.67
2854,-5.67
2866,-5.61
2878,-5.7
2890,-6.16
2902,-7.13
2914,-8.65
2926,-10.67
2938,-13.04
2950,-15.53
2962,-17.85
2974,-19.64
2986,-20.5
2998,-20.07
3009,-18.19
3020,-14.97
3032,-10.74
3044,-6.02
3056,-1.33
3068,2.95
3080,6.59
3092,9.53
3104,11.76
3116,13.28
3128,14.07
3140,14.18
3152,13.72
3164,12.9
3176,11.95
3188,11.06
3199,10.34
3210,9.82
3222,9.45
3234,9.24
3246,9.26
3258,9.61
3270,10.36
3282,11.46
3294,12.7
3306,13.8
3318,14.47
3330,14.58
3342,14.11
3354,13.18
3366,11.98
3378,10.68
3389,9.4
3400,8.22
3412,7.18
3424,6.35
3436,5.74
3448,5.34
3460,4.99
3472,4.49
3484,3.63
3496,2.32
3508,0.68
3520,-0.97
3532,-2.29
3544,-3.06
3556,-3.3
3568,-3.31
3579,-3.51
3590,-4.2
3602,-5.51
3614,-7.31
3626,-9.33
3638,-11.27
3650,-13.0
3662,-14.48
3674,-15.8
3686,-17.05
3698,-18.37
3710,-19.89
3722,-21.73
3734,-23.98
3746,-26.58
3758,-29.26
3769,-31.54
3780,-32.81
3792,-32.52
3804,-30.42
3816,-26.62
3828,-21.65
3840,-16.22
3852,-11.03
3864,-6.56
3876,-2.97
3888,-0.18
3900,2.0
3912,3.75
3924,5.17
3936,6.24
3948,6.91
3959,7.16
3970,7.07
3982,6.78
3994,6.48
4006,6.29
4018,6.25
4030,6.35
4042,6.55
4054,6.86
4066,7.35
4078,8.09
4090,9.08
4102,10.15
4114,11.06
4126,11.57
4138,11.57
4149,11.1
4160,10.39
4172,9.65
4184,9.04
4196,8.54
4208,8.05
4220,7.41
4232,6.56
4244,5.52
4256,4.38
4268,3.27
4280,2.25
4292,1.34
4304,0.47
4316,-0.42
4328,-1.34
4339,-2.28
4350,-3.15
4362,-3.94
4374,-4.68
4386,-5.48
4398,-6.41
4410,-7.52
4422,-8.77
4434,-10.07
4446,-11.31
4458,-12.41
4470,-13.39
4482,-14.29
4494,-15.19
4506,-16.21
4518,-17.46
4529,-19.13
4540,-21.33
4552,-24.08
4564,-27.16
4576,-30.12
4588,-32.33
4600,-33.17
4612,-32.21
4624,-29.34
4636,-24.81
4648,-19.18
4660,-13.14
4672,-7.35
4684,-2.27
4696,1.83
4708,4.94
4719,7.16
4730,8.66
4742,9.64
4754,10.22
4766,10.5
4778,10.55
4790,10.46
4802,10.38
4814,10.48
4826,10.91
4838,11.72
4850,12.86
4862,14.15
4874,15.39
4886,16.47
4898,17.35
4909,18.12
4920,18.87
4932,19.59
4944,20.19
4956,20.51
4968,20.47
4980,20.12
4992,19.67
5004,19.33
5016,19.26
5028,19.39
5040,19.54
5052,19.49
5064,19.14
5076,18.59
5088,18.02
5099,17.6
5110,17.42
5122,17.47
5134,17.68
5146,18.04
5158,18.52
5170,19.03
5182,19.32
5194,19.05
5206,17.85
5218,15.55
5230,12.31
5242,8.51
5254,4.66
5266,1.12
5278,-1.96
5289,-4.67
5300,-7.22
5312,-9.81
5324,-12.56
5336,-15.49
5348,-18.55
5360,-21.56
5372,-24.23
5384,-26.1
5396,-26.68
5408,-25.62
5420,-22.86
5432,-18.72
5444,-13.86
5456,-9.02
5468,-4.88
5479,-1.8
5490,0.12
5502,1.04
5514,1.17
5526,0.75
5538,-0.07
5550,-1.12
5562,-2.22
5574,-3.15
5586,-3.68
5598,-3.71
5610,-3.24
5622,-2.44
5634,-1.55
5646,-0.73
5658,-0.06
5669,0.52
5680,1.14
5692,1.89
5704,2.75
5716,3.6
5728,4.25
5740,4.52
5752,4.27
5764,3.54
5776,2.48
5788,1.29
5800,0.21
5812,-0.66
5824,-1.35
5836,-2.02
5848,-2.79
5859,-3.74
5870,-4.76
5882,-5.71
5894,-6.46
5906,-7.02
5918,-7.48
5930,-7.97
5942,-8.57
5954,-9.19
5966,-9.76
5978,-10.23
5990,-10.69
6002,-11.28
6014,-12.09
6026,-13.06
6038,-14.01
6049,-14.77
6060,-15.3
6072,-15.75
6084,-16.42
6096,-17.58
6108,-19.34
6120,-21.56
6132,-23.86
6144,-25.71
6156,-26.6
6168,-26.14
6180,-24.19
6192,-20.87
6204,-16.53
6216,-11.68
6228,-6.8
6239,-2.25
6250,1.8
6262,5.31
6274,8.28
6286,10.64
6298,12.3
6310,13.19
6322,13.41
6334,13.16
6346,12.75
6358,12.38
6370,12.19
6382,12.16
6394,12.24
6406,12.37
6418,12.55
6429,12.82
6440,13.18
6452,13.62
6464,14.1
6476,14.6
6488,15.09
6500,15.52
6512,15.8
6524,15.77
6536,15.31
6548,14.42
6560,13.2
6572,11.89
6584,10.72
6596,9.84
6608,9.23
6619,8.78
6630,8.31
6642,7.66
6654,6.76
6666,5.62
6678,4.36
6690,3.13
6702,2.07
6714,1.25
6726,0.66
6738,0.21
6750,-0.26
6762,-0.9
6774,-1.82
6786,-3.05
6798,-4.54
6809,-6.17
6820,-7.85
6832,-9.52
6844,-11.2
6856,-12.97
6868,-14.93
6880,-17.17
6892,-19.69
6904,-22.36
6916,-24.87
6928,-26.82
6940,-27.73
6952,-27.2
6964,-25.08
6976,-21.47
6988,-16.76
6999,-11.53
7010,-6.36
7022,-1.71
7034,2.21
7046,5.34
7058,7.76
7070,9.56
7082,10.82
7094,11.58
7106,11.9
7118,11.87
7130,11.6
7142,11.27
7154,11.01
7166,10.96
7178,11.19
7189,11.77
7200,12.66
7212,13.79
7224,15.01
7236,16.11
7248,16.93
7260,17.38
7272,17.47
7284,17.27
7296,16.85
7308,16.25
7320,15.48
7332,14.58
7344,13.63
7356,12.78
7368,12.11
7379,11.62
7390,11.15
7402,10.45
7414,9.35
7426,7.83
7438,6.03
7450,4.24
7462,2.72
7474,1.62
7486,0.92
7498,0.47
7510,0.06
7522,-0.49
7534,-1.26
7546,-2.29
7558,-3.53
7569,-4.93
7580,-6.39
7592,-7.84
7604,-9.18
7616,-10.38
7628,-11.48
7640,-12.59
7652,-13.94
7664,-15.76
7676,-18.19
7688,-21.15
7700,-24.29
7712,-27.03
7724,-28.74
7736,-28.88
7748,-27.23
7759,-23.94
7770,-19.44
7782,-14.32
7794,-9.09
7806,-4.15
7818,0.3
7830,4.1
7842,7.1
7854,9.2
7866,10.35
7878,10.69
7890,10.47
7902,10.03
7914,9.64
7926,9.41
7938,9.35
7949,9.41
7960,9.58
7972,9.89
7984,10.44
7996,11.24
8008,12.21
8020,13.18
8032,13.97
8044,14.46
8056,14.65
8068,14.66
8080,14.63
8092,14.64
8104,14.61
8116,14.4
8128,13.81
8139,12.74
8150,11.28
8162,9.61
8174,7.98
8186,6.54
8198,5.32
8210,4.27
8222,3.28
8234,2.33
8246,1.41
8258,0.53
8270,-0.41
8282,-1.51
8294,-2.89
8306,-4.5
8318,-6.17
8329,-7.68
8340,-8.89
8352,-9.86
8364,-10.83
8376,-12.06
8388,-13.73
8400,-15.8
8412,-18.0
8424,-19.98
8436,-21.32
8448,-21.67
8460,-20.82
8472,-18.71
8484,-15.47
8496,-11.38
8508,-6.83
8519,-2.25
8530,1.98
8542,5.59
8554,8.39
8566,10.33
8578,11.42
8590,11.77
8602,11.55
8614,10.95
8626,10.2
8638,9.44
8650,8.77
8662,8.23
8674,7.84
8686,7.66
8698,7.77
8709,8.24
8720,9.1
8732,10.28
8744,11.63
8756,12.92
8768,13.9
8780,14.4
8792,14.35
8804,13.81
8816,12.9
8828,11.74
8840,10.41
8852,8.94
8864,7.36
8876,5.69
8888,3.99
8899,2.35
8910,0.84
8922,-0.46
8934,-1.5
8946,-2.28
8958,-2.9
8970,-3.46
8982,-4.13
8994,-5.02
9006,-6.16
9018,-7.51
9030,-9.01
9042,-10.65
9054,-12.45
9066,-14.48
9078,-16.8
9089,-19.37
9100,-22.1
9112,-24.75
9124,-27.03
9136,-28.58
9148,-29.01
9160,-28.02
9172,-25.46
9184,-21.46
9196,-16.4
9208,-10.84
9220,-5.34
9232,-0.39
9244,3.72
9256,6.83
9268,8.93
9279,10.12
9290,10.6
9302,10.59
9314,10.35
9326,10.04
9338,9.8
9350,9.67
9362,9.68
9374,9.85
9386,10.23
9398,10.83
9410,11.66
9422,12.65
9434,13.7
9446,14.68
9458,15.47
9469,15.99
9480,16.15
9492,15.94
9504,15.35
9516,14.49
9528,13.48
9540,12.45
9552,11.51
9564,10.68
9576,9.92
9588,9.13
9600,8.25
9612,7.21
9624,5.99
9636,4.62
9648,3.18
9659,1.79
9670,0.54
9682,-0.54
9694,-1.5
9706,-2.46
9718,-3.53
9730,-4.77
9742,-6.16
9754,-7.58
9766,-8.92
9778,-10.12
9790,-11.22
9802,-12.3
9814,-13.47
9826,-14.86
9838,-16.59
9849,-18.74
9860,-21.33
9872,-24.16
9884,-26.81
9896,-28.71
9908,-29.26
9920,-28.08
9932,-25.18
9944,-20.92
9956,-15.92
9968,-10.82
9980,-6.06
9992,-1.84
10004,1.81
10016,4.94
10028,7.58
10039,9.66
10050,11.13
10062,11.98
10074,12.31
10086,12.28
10098,12.1
10110,11.95
10122,11.92
10134,12.01
10146,12.19
10158,12.44
10170,12.76
10182,13.16
10194,13.68
10206,14.28
10218,14.86
10229,15.28
10240,15.4
10252,15.14
10264,14.5
10276,13.54
10288,12.41
10300,11.23
10312,10.09
10324,8.98
10336,7.78
10348,6.39
10360,4.68
10372,2.69
10384,0.5
10396,-1.81
10408,-4.2
10419,-6.78
10430,-9.68
10442,-12.93
10454,-16.39
10466,-19.8
10478,-22.91
10490,-25.67
10502,-28.3
10514,-31.16
10526,-34.53
10538,-38.35
10550,-42.26
10562,-45.73
10574,-48.36
10586,-49.99
10598,-50.69
10609,-50.67
10620,-50.13
10632,-49.22
10644,-48.12
10656,-47.01
10668,-46.01
10680,-45.0
10692,-43.53
10704,-40.88
10716,-36.31
10728,-29.39
10740,-20.2
10752,-9.39
10764,2.02
10776,12.94
10788,22.46
10799,30.16
10810,36.17
10822,41.1
10834,45.81
10846,51.02
10858,57.05
10870,63.6
10882,69.93
10894,75.08
10906,78.23
10918,78.84
10930,76.7
10942,71.78
10954,64.21
10966,54.28
10978,42.54
10989,29.83
11000,17.17
11012,5.52
11024,-4.43
11036,-12.4
11048,-18.48
11060,-23.0
11072,-26.39
11084,-29.04
11096,-31.25
11108,-33.13
11120,-34.7
11132,-35.81
11144,-36.29
11156,-36.05
11168,-35.15
11179,-33.83
11190,-32.35
11202,-30.93
11214,-29.59
11226,-28.27
11238,-26.9
11250,-25.52
11262,-24.29
11274,-23.36
11286,-22.81
11298,-22.59
11310,-22.61
11322,-22.82
11334,-23.32
11346,-24.36
11358,-26.25
11369,-29.05
11380,-32.38
11392,-35.35
11404,-36.7
11416,-35.32
11428,-30.63
11440,-22.89
11452,-13.11
11464,-2.61
11476,7.48
11488,16.54
11500,24.5
11512,31.52
11524,37.73
11536,43.04
11548,47.17
11559,49.87
11570,51.02
11582,50.74
11594,49.27
11606,46.96
11618,44.16
11630,41.24
11642,38.52
11654,36.18
11666,34.27
11678,32.71
11690,31.35
11702,30.05
11714,28.76
11726,27.44
11738,26.05
11749,24.55
11760,22.96
11772,21.37
11784,19.98
11796,19.03
11808,18.66
11820,18.86
11832,19.42
11844,20.0
11856,20.3
11868,20.18
11880,19.7
11892,19.11
11904,18.67
11916,18.54
11928,18.69
11939,18.94
11950,19.1
11962,19.06
11974,18.89
11986,18.76
11998,18.88
12010,19.36
12022,20.18
12034,21.19
12046,22.12
12058,22.74
12070,22.87
12082,22.48
12094,21.77
12106,21.09
12118,20.89
12129,21.57
12140,23.37
12152,26.34
12164,30.29
12176,34.91
12188,39.8
12200,44.58
12212,48.9
12224,52.44
12236,54.9
12248,55.92
12260,55.14
12272,52.21
12284,46.92
12296,39.41
12308,30.19
12319,20.12
12330,10.22
12342,1.4
12354,-5.77
12366,-11.16
12378,-14.99
12390,-17.71
12402,-19.88
12414,-22.08
12426,-24.87
12438,-28.68
12450,-33.67
12462,-39.58
12474,-45.71
12486,-51.07
12498,-54.81
12509,-56.45
12520,-56.08
12532,-54.24
12544,-51.65
12556,-48.89
12568,-46.19
12580,-43.38
12592,-40.05
12604,-35.62
12616,-29.58
12628,-21.55
12640,-11.49
12652,0.26
12664,12.86
12676,25.12
12688,35.71
12699,43.54
12710,48.01
12722,49.12
12734,47.42
12746,43.74
12758,38.9
12770,33.53
12782,28.0
12794,22.57
12806,17.49
12818,13.15
12830,9.94
12842,8.14
12854,7.76
12866,8.43
12878,9.54
12889,10.46
12900,10.72
12912,10.11
12924,8.72
12936,6.83
12948,4.83
12960,3.12
12972,2.05
12984,1.8
12996,2.33
13008,3.31
13020,4.12
13032,4.1
13044,2.7
13056,-0.34
13068,-4.86
13079,-10.43
13090,-16.42
13102,-22.15
13114,-27.07
13126,-30.77
13138,-33.0
13150,-33.71
13162,-33.01
13174,-31.19
13186,-28.66
13198,-25.87
13210,-23.2
13222,-20.88
13234,-18.92
13246,-17.14
13258,-15.31
13269,-13.27
13280,-11.04
13292,-8.78
13304,-6.71
13316,-4.84
13328,-2.95
13340,-0.54
13352,2.9
13364,7.61
13376,13.39
13388,19.51
13400,24.91
13412,28.52
13424,29.66
13436,28.19
13448,24.51
13459,19.35
13470,13.38
13482,7.06
13494,0.54
13506,-6.2
13518,-13.18
13530,-20.27
13542,-27.24
13554,-33.86
13566,-39.99
13578,-45.67
13590,-50.97
13602,-55.81
13614,-59.94
13626,-62.98
13638,-64.59
13649,-64.67
13660,-63.45
13672,-61.41
13684,-59.03
13696,-56.66
13708,-54.35
13720,-51.95
13732,-49.17
13744,-45.8
13756,-41.73
13768,-36.98
13780,-31.68
13792,-25.97
13804,-20.03
13816,-14.1
13828,-8.51
13839,-3.55
13850,0.6
13862,4.0
13874,7.01
13886,10.1
13898,13.69
13910,17.88
13922,22.47
13934,27.01
13946,31.05
13958,34.35
13970,36.9
13982,38.89
13994,40.5
14006,41.86
14018,42.94
14029,43.65
14040,43.96
14052,43.89
14064,43.51
14076,42.76
14088,41.54
14100,39.64
14112,36.88
14124,33.19
14136,28.62
14148,23.4
14160,17.8
14172,12.06
14184,6.17
14196,0.02
14208,-6.61
14219,-13.83
14230,-21.63
14242,-29.89
14254,-38.33
14266,-46.61
14278,-54.22
14290,-60.76
14302,-65.68
14314,-68.28
14326,-67.88
14338,-64.06
14350,-56.92
14362,-47.12
14374,-35.88
14386,-24.66
14398,-15.31
14409,-9.0
14420,-5.79
14432,-4.66
14444,-4.14
14456,-3.03
14468,-0.6
14480,3.04
14492,7.55
14504,11.53
14516,14.11
14528,15.3
14540,15.82
14552,16.29
14564,16.61
14576,16.26
14588,14.07
14599,9.22
14610,-0.34
14622,-15.65
14634,-36.26
14646,-60.2
14658,-85.02
14670,-108.71
14682,-129.55
14694,-147.09
14706,-160.94
14718,-172.98
14730,-184.53
14742,-195.54
14754,-204.69
14766,-210.62
14778,-213.09
14789,-212.46
14800,-210.43
14812,-193.63
14824,-154.85
14836,-96.11
14848,-28.66
14860,34.54
14872,85.56
14884,119.09
14896,140.19
14908,153.15
14920,161.24
14932,164.58
14944,163.16
14956,157.76
14968,149.97
14979,141.35
14990,132.61
15002,124.18
15014,115.23
15026,105.42
15038,93.24
15050,78.25
15062,61.59
15074,45.81
15086,33.79
15098,27.49
15110,27.8
15122,33.46
15134,42.29
15146,50.66
15158,55.47
15169,55.34
15180,50.97
15192,44.56
15204,38.65
15216,35.37
15228,35.25
15240,37.76
15252,41.15
15264,43.71
15276,44.49
15288,43.48
15300,41.24
15312,38.31
15324,35.03
15336,31.29
15348,27.06
15359,22.42
15370,17.88
15382,14.14
15394,11.8
15406,11.02
15418,11.32
15430,11.9
15442,12.01
15454,11.51
15466,10.99
15478,11.5
15490,13.92
15502,18.4
15514,24.07
15526,29.26
15538,32.15
15549,31.47
15560,26.96
15572,19.34
15584,9.95
15596,0.17
15608,-8.91
15620,-16.62
15632,-22.62
15644,-26.76
15656,-29.04
15668,-29.65
15680,-29.03
15692,-27.76
15704,-26.46
15716,-25.52
15728,-25.04
15739,-24.91
15750,-24.88
15762,-24.71
15774,-24.25
15786,-23.34
15798,-21.81
15810,-19.47
15822,-16.22
15834,-12.14
15846,-7.54
15858,-2.94
15870,1.11
15882,4.19
15894,6.06
15906,6.74
15918,6.42
15929,5.37
15940,3.98
15952,2.67
15964,1.91
15976,2.06
15988,3.29
16000,5.47
16012,8.15
16024,10.75
16036,12.71
16048,13.7
16060,13.65
16072,12.74
16084,11.17
16096,9.07
16108,6.39
16119,3.01
16130,-1.16
16142,-5.96
16154,-10.97
16166,-15.61
16178,-19.22
16190,-21.26
16202,-21.3
16214,-19.08
16226,-14.53
16238,-7.87
16250,0.26
16262,8.79
16274,16.48
16286,22.22
16298,25.5
16309,26.54
16320,26.23
16332,25.68
16344,25.7
16356,26.55
16368,27.91
16380,29.18
16392,29.83
16404,29.59
16416,28.45
16428,26.52
16440,23.83
16452,20.33
16464,16.03
16476,11.14
16488,6.06
16499,1.28
16510,-2.93
16522,-6.68
16534,-10.48
16546,-14.96
16558,-20.52
16570,-27.06
16582,-33.9
16594,-39.97
16606,-44.16
16618,-45.68
16630,-44.14
16642,-39.58
16654,-32.35
16666,-23.08
16678,-12.7
16689,-2.46
16700,6.29
16712,12.53
16724,15.95
16736,17.22
16748,17.7
16760,18.86
16772,21.6
16784,25.84
16796,30.63
16808,34.71
16820,37.21
16832,38.06
16844,37.87
16856,37.55
16868,37.69
16879,38.24
16890,38.65
16902,38.18
16914,36.35
16926,33.22
16938,29.29
16950,25.22
16962,21.51
16974,18.25
16986,15.26
16998,12.22
17010,9.05
17022,5.93
17034,3.29
17046,1.49
17058,0.66
17069,0.48
17080,0.33
17092,-0.51
17104,-2.57
17116,-6.0
17128,-10.54
17140,-15.64
17152,-20.77
17164,-25.54
17176,-29.84
17188,-33.71
17200,-37.23
17212,-40.42
17224,-43.17
17236,-45.39
17248,-47.07
17259,-48.3
17270,-49.28
17282,-50.15
17294,-50.92
17306,-51.46
17318,-51.51
17330,-50.82
17342,-49.3
17354,-47.01
17366,-44.18
17378,-41.12
17390,-38.1
17402,-35.27
17414,-32.68
17426,-30.28
17438,-27.99
17449,-25.77
17460,-23.6
17472,-21.45
17484,-19.26
17496,-17.0
17508,-14.7
17520,-12.45
17532,-10.39
17544,-8.61
17556,-7.12
17568,-5.79
17580,-4.5
17592,-3.14
17604,-1.73
17616,-0.4
17628,0.71
17639,1.47
17650,1.8
17662,1.68
17674,1.17
17686,0.32
17698,-0.72
17710,-1.81
17722,-2.78
17734,-3.53
17746,-4.04
17758,-4.36
17770,-4.6
17782,-4.82
17794,-5.01
17806,-5.09
17818,-4.96
17829,-4.55
17840,-3.79
17852,-2.78
17864,-1.66
17876,-0.64
17888,0.1
17900,0.48
17912,0.58
17924,0.64
17936,0.91
17948,1.59
17960,2.68
17972,4.04
17984,5.5
17996,6.87
18008,8.07
18019,9.13
18030,10.11
18042,11.08
18054,12.11
18066,13.25
18078,14.55
18090,15.95
18102,17.32
18114,18.5
18126,19.32
18138,19.73
18150,19.76
18162,19.52
18174,19.16
18186,18.8
18198,18.52
18209,18.36
18220,18.29
18232,18.24
18244,18.04
18256,17.58
18268,16.79
18280,15.67
18292,14.21
18304,12.37
18316,10.08
18328,7.19
18340,3.63
18352,-0.53
18364,-5.13
18376,-9.9
18388,-14.6
18399,-19.03
18410,-23.02
18422,-26.39
18434,-28.93
18446,-30.55
18458,-31.25
18470,-31.25
18482,-30.85
18494,-30.31
18506,-29.77
18518,-29.19
18530,-28.38
18542,-27.17
18554,-25.44
18566,-23.19
18578,-20.54
18589,-17.64
18600,-14.69
18612,-11.86
18624,-9.32
18636,-7.24
18648,-5.71
18660,-4.75
18672,-4.25
18684,-4.02
18696,-3.85
18708,-3.58
18720,-3.13
18732,-2.57
18744,-2.06
18756,-1.76
18768,-1.79
18779,-2.16
18790,-2.81
18802,-3.63
18814,-4.54
18826,-5.55
18838,-6.78
18850,-8.37
18862,-10.55
18874,-13.53
18886,-17.47
18898,-22.41
18910,-28.2
18922,-34.5
18934,-40.79
18946,-46.5
18958,-51.16
18969,-54.55
18980,-56.76
18992,-58.17
19004,-59.23
19016,-60.27
19028,-61.22
19040,-61.59
19052,-60.57
19064,-57.29
19076,-51.14
19088,-41.99
19100,-30.32
19112,-17.15
19124,-3.85
19136,8.15
19148,17.72
19159,24.21
19170,27.68
19182,28.76
19194,28.49
19206,27.98
19218,28.06
19230,29.13
19242,31.15
19254,33.74
19266,36.43
19278,38.76
19290,40.42
19302,41.26
19314,41.29
19326,40.66
19338,39.59
19349,38.27
19360,36.82
19372,35.26
19384,33.5
19396,31.54
19408,29.49
19420,27.57
19432,26.1
19444,25.28
19456,25.09
19468,25.27
19480,25.39
19492,24.96
19504,23.63
19516,21.24
19528,17.84
19539,13.6
19550,8.74
19562,3.44
19574,-2.18
19586,-8.05
19598,-14.07
19610,-19.94
19622,-25.0
19634,-28.25
19646,-28.58
19658,-25.2
19670,-18.09
19682,-8.05
19694,3.45
19706,14.84
19718,24.96
19729,33.41
19740,40.4
19752,46.34
19764,51.41
19776,55.39
19788,57.73
19800,57.92
19812,55.82
19824,51.79
19836,46.56
19848,41.01
19860,35.99
19872,32.16
19884,30.0
19896,29.77
19908,31.51
19919,34.94
19930,39.51
19942,44.38
19954,48.7
19966,51.75
19978,53.06
19990,52.46
20002,50.0
20014,45.9
20026,40.45
20038,34.1
20050,27.4
20062,20.9
20074,15.09
20086,10.4
20098,7.16
20109,5.79
20120,6.83
20132,10.74
20144,17.65
20156,26.94
20168,37.08
20180,45.83
20192,50.89
20204,50.68
20216,45.01
20228,35.2
20240,23.56
20252,12.6
20264,4.14
20276,-1.08
20288,-3.37
20299,-3.6
20310,-2.65
20322,-1.07
20334,0.92
20346,3.17
20358,5.35
20370,6.87
20382,7.1
20394,5.61
20406,2.4
20418,-2.09
20430,-7.17
20442,-12.23
20454,-16.91
20466,-21.19
20478,-25.27
20489,-29.35
20500,-33.42
20512,-37.24
20524,-40.38
20536,-42.46
20548,-43.28
20560,-42.97
20572,-41.9
20584,-40.59
20596,-39.45
20608,-38.69
20620,-38.19
20632,-37.61
20644,-36.53
20656,-34.64
20668,-31.83
20679,-28.25
20690,-24.23
20702,-20.17
20714,-16.4
20726,-13.1
20738,-10.29
20750,-7.86
20762,-5.62
20774,-3.28
20786,-0.57
20798,2.76
20810,6.83
20822,11.51
20834,16.4
20846,20.91
20858,24.47
20869,26.71
20880,27.62
20892,27.42
20904,26.45
20916,24.94
20928,22.98
20940,20.53
20952,17.59
20964,14.2
20976,10.45
20988,6.36
