seconds,BVP
4,10.19
16,12.02
28,12.86
40,13.04
52,12.97
64,12.93
76,13.06
88,13.31
100,13.54
112,13.68
124,13.75
136,13.87
148,14.15
160,14.6
171,15.14
182,15.6
194,15.84
206,15.8
218,15.46
230,14.84
242,13.93
254,12.69
266,11.13
278,9.35
290,7.51
302,5.79
314,4.28
326,2.93
338,1.56
350,-0.03
361,-1.95
372,-4.13
384,-6.35
396,-8.34
408,-9.9
420,-11.0
432,-11.85
444,-12.72
456,-13.94
468,-15.71
480,-18.03
492,-20.68
504,-23.23
516,-25.12
528,-25.81
540,-24.87
551,-22.18
562,-17.93
574,-12.61
586,-6.82
598,-1.17
610,3.89
622,8.13
634,11.48
646,13.96
658,15.63
670,16.54
682,16.74
694,16.33
706,15.51
718,14.56
730,13.8
741,13.47
752,13.68
764,14.33
776,15.14
788,15.81
800,16.16
812,16.14
824,15.88
836,15.54
848,15.23
860,14.92
872,14.42
884,13.52
896,12.07
908,10.04
920,7.53
931,4.77
942,1.97
954,-0.74
966,-3.32
978,-5.78
990,-8.14
1002,-10.32
1014,-12.16
1026,-13.5
1038,-14.22
1050,-14.37
1062,-14.11
1074,-13.7
1086,-13.34
1098,-13.18
1110,-13.27
1121,-13.65
1132,-14.36
1144,-15.49
1156,-17.08
1168,-19.03
1180,-20.99
1192,-22.45
1204,-22.76
1216,-21.46
1228,-18.35
1240,-13.62
1252,-7.75
1264,-1.34
1276,5.05
1288,11.03
1300,16.31
1311,20.63
1322,23.75
1334,25.41
1346,25.52
1358,24.2
1370,21.88
1382,19.14
1394,16.57
1406,14.57
1418,13.27
1430,12.58
1442,12.33
1454,12.36
1466,12.57
1478,12.88
1490,13.2
1501,13.38
1512,13.32
1524,13.03
1536,12.66
1548,12.43
1560,12.48
1572,12.78
1584,13.09
1596,13.14
1608,12.77
1620,12.0
1632,11.07
1644,10.2
1656,9.56
1668,9.11
1680,8.73
1691,8.31
1702,7.81
1714,7.33
1726,7.0
1738,6.94
1750,7.21
1762,7.8
1774,8.7
1786,9.85
1798,11.18
1810,12.54
1822,13.71
1834,14.48
1846,14.84
1858,15.04
1870,15.58
1881,17.03
1892,19.74
1904,23.61
1916,28.16
1928,32.59
1940,36.18
1952,38.47
1964,39.36
1976,39.1
1988,38.04
2000,36.56
2012,34.93
2024,33.33
2036,31.77
2048,30.14
2060,28.24
2071,25.84
2082,22.8
2094,19.15
2106,15.1
2118,10.95
2130,6.96
2142,3.24
2154,-0.29
2166,-3.82
2178,-7.52
2190,-11.46
2202,-15.51
2214,-19.46
2226,-23.14
2238,-26.5
2250,-29.71
2261,-33.01
2272,-36.67
2284,-40.8
2296,-45.32
2308,-50.04
2320,-54.79
2332,-59.49
2344,-64.09
2356,-68.5
2368,-72.5
2380,-75.8
2392,-78.2
2404,-79.72
2416,-80.71
2428,-81.68
2440,-83.14
2451,-85.3
2462,-88.03
2474,-90.88
2486,-93.16
2498,-94.18
2510,-93.3
2522,-90.13
2534,-84.55
2546,-76.76
2558,-67.3
2570,-56.87
2582,-46.22
2594,-35.95
2606,-26.48
2618,-18.05
2630,-10.87
2641,-5.09
2652,-0.82
2664,1.95
2676,3.44
2688,4.01
2700,4.07
2712,4.0
2724,4.08
2736,4.49
2748,5.33
2760,6.65
2772,8.39
2784,10.42
2796,12.47
2808,14.27
2820,15.6
2831,16.4
2842,16.73
2854,16.74
2866,16.56
2878,16.22
2890,15.75
2902,15.11
2914,14.37
2926,13.58
2938,12.83
2950,12.12
2962,11.39
2974,10.51
2986,9.41
2998,8.07
3010,6.56
3021,5.0
3032,3.53
3044,2.22
3056,1.11
3068,0.15
3080,-0.74
3092,-1.7
3104,-2.9
3116,-4.52
3128,-6.64
3140,-9.13
3152,-11.62
3164,-13.55
3176,-14.23
3188,-13.16
3200,-10.1
3211,-5.22
3222,0.98
3234,7.81
3246,14.55
3258,20.6
3270,25.58
3282,29.28
3294,31.69
3306,32.94
3318,33.24
3330,32.88
3342,32.21
3354,31.54
3366,31.14
3378,31.15
3390,31.57
3401,32.27
3412,33.06
3424,33.73
3436,34.08
3448,33.97
3460,33.35
3472,32.26
3484,30.81
3496,29.15
3508,27.39
3520,25.58
3532,23.65
3544,21.48
3556,19.03
3568,16.36
3580,13.64
3591,11.11
3602,8.88
3614,6.93
3626,5.11
3638,3.2
3650,1.09
3662,-1.22
3674,-3.57
3686,-5.78
3698,-7.61
3710,-8.91
3722,-9.55
3734,-9.57
3746,-9.17
3758,-8.72
3770,-8.7
3781,-9.57
3792,-11.58
3804,-14.69
3816,-18.52
3828,-22.4
3840,-25.55
3852,-27.28
3864,-27.13
3876,-25.02
3888,-21.26
3900,-16.43
3912,-11.22
3924,-6.23
3936,-1.85
3948,1.71
3960,4.43
3971,6.31
3982,7.38
3994,7.68
4006,7.33
4018,6.54
4030,5.6
4042,4.79
4054,4.31
4066,4.26
4078,4.64
4090,5.36
4102,6.31
4114,7.38
4126,8.49
4138,9.57
4150,10.54
4161,11.32
4172,11.82
4184,11.95
4196,11.66
4208,10.96
4220,9.95
4232,8.79
4244,7.61
4256,6.49
4268,5.44
4280,4.35
4292,3.17
4304,1.83
4316,0.36
4328,-1.14
4340,-2.59
4351,-3.91
4362,-5.08
4374,-6.15
4386,-7.17
4398,-8.25
4410,-9.48
4422,-10.93
4434,-12.66
4446,-14.62
4458,-16.62
4470,-18.29
4482,-19.07
4494,-18.47
4506,-16.17
4518,-12.25
4530,-7.12
4541,-1.48
4552,4.0
4564,8.83
4576,12.78
4588,15.8
4600,17.93
4612,19.14
4624,19.4
4636,18.75
4648,17.4
4660,15.68
4672,13.95
4684,12.53
4696,11.55
4708,11.02
4720,10.89
4731,11.07
4742,11.48
4754,12.03
4766,12.6
4778,12.99
4790,13.07
4802,12.73
4814,11.96
4826,10.83
4838,9.39
4850,7.67
4862,5.7
4874,3.55
4886,1.29
4898,-0.91
4910,-2.87
4921,-4.44
4932,-5.57
4944,-6.28
4956,-6.7
4968,-6.95
4980,-7.15
4992,-7.33
5004,-7.51
5016,-7.67
5028,-7.83
5040,-7.98
5052,-8.1
5064,-8.07
5076,-7.71
5088,-6.89
5100,-5.58
5111,-3.97
5122,-2.37
5134,-1.1
5146,-0.29
5158,0.24
5170,0.86
5182,1.98
5194,3.81
5206,6.24
5218,8.92
5230,11.42
5242,13.49
5254,15.15
5266,16.69
5278,18.5
5290,20.82
5301,23.67
5312,26.79
5324,29.8
5336,32.4
5348,34.46
5360,36.08
5372,37.46
5384,38.72
5396,39.75
5408,40.29
5420,39.97
5432,38.55
5444,36.06
5456,32.79
5468,29.19
5480,25.7
5491,22.55
5502,19.74
5514,17.07
5526,14.21
5538,10.81
5550,6.6
5562,1.45
5574,-4.61
5586,-11.32
5598,-18.28
5610,-24.93
5622,-30.73
5634,-35.27
5646,-38.39
5658,-40.14
5670,-40.73
5681,-40.35
5692,-39.04
5704,-36.7
5716,-33.14
5728,-28.27
5740,-22.26
5752,-15.55
5764,-8.75
5776,-2.47
5788,2.85
5800,7.08
5812,10.25
5824,12.44
5836,13.68
5848,13.9
5860,13.08
5871,11.32
5882,8.91
5894,6.25
5906,3.78
5918,1.8
5930,0.37
5942,-0.59
5954,-1.3
5966,-1.93
5978,-2.53
5990,-3.05
6002,-3.39
6014,-3.44
6026,-3.15
6038,-2.54
6050,-1.71
6061,-0.8
6072,0.04
6084,0.7
6096,1.15
6108,1.4
6120,1.48
6132,1.39
6144,1.09
6156,0.56
6168,-0.19
6180,-1.05
6192,-1.86
6204,-2.41
6216,-2.53
6228,-2.21
6240,-1.65
6251,-1.19
6262,-1.29
6274,-2.32
6286,-4.4
6298,-7.28
6310,-10.33
6322,-12.67
6334,-13.45
6346,-12.19
6358,-8.88
6370,-4.02
6382,1.62
6394,7.32
6406,12.54
6418,17.09
6430,20.96
6441,24.2
6452,26.75
6464,28.41
6476,28.88
6488,27.91
6500,25.41
6512,21.51
6524,16.57
6536,11.1
6548,5.61
6560,0.47
6572,-4.07
6584,-7.93
6596,-11.05
6608,-13.34
6620,-14.72
6631,-15.22
6642,-15.01
6654,-14.5
6666,-14.21
6678,-14.56
6690,-15.71
6702,-17.49
6714,-19.56
6726,-21.5
6738,-23.08
6750,-24.29
6762,-25.29
6774,-26.3
6786,-27.49
6798,-28.88
6810,-30.37
6821,-31.78
6832,-32.97
6844,-33.86
6856,-34.5
6868,-35.0
6880,-35.54
6892,-36.28
6904,-37.34
6916,-38.73
6928,-40.27
6940,-41.6
6952,-42.13
6964,-41.26
6976,-38.51
6988,-33.75
7000,-27.22
7011,-19.53
7022,-11.47
7034,-3.76
7046,3.02
7058,8.55
7070,12.68
7082,15.41
7094,16.83
7106,17.08
7118,16.4
7130,15.05
7142,13.37
7154,11.68
7166,10.26
7178,9.29
7190,8.8
7201,8.69
7212,8.77
7224,8.84
7236,8.83
7248,8.79
7260,8.81
7272,8.97
7284,9.2
7296,9.33
7308,9.16
7320,8.56
7332,7.58
7344,6.34
7356,5.03
7368,3.74
7380,2.47
7391,1.15
7402,-0.29
7414,-1.89
7426,-3.58
7438,-5.23
7450,-6.74
7462,-8.05
7474,-9.21
7486,-10.38
7498,-11.76
7510,-13.54
7522,-15.79
7534,-18.36
7546,-20.9
7558,-22.87
7570,-23.71
7581,-22.98
7592,-20.5
7604,-16.39
7616,-11.02
7628,-4.93
7640,1.27
7652,7.02
7664,11.93
7676,15.75
7688,18.42
7700,19.93
7712,20.39
7724,19.9
7736,18.66
7748,16.96
7760,15.18
7771,13.72
7782,12.86
7794,12.69
7806,13.03
7818,13.61
7830,14.17
7842,14.59
7854,14.9
7866,15.21
7878,15.58
7890,15.96
7902,16.18
7914,16.07
7926,15.54
7938,14.61
7950,13.39
7961,12.06
7972,10.72
7984,9.45
7996,8.26
8008,7.09
8020,5.9
8032,4.63
8044,3.24
8056,1.75
8068,0.21
8080,-1.3
8092,-2.69
8104,-3.85
8116,-4.7
8128,-5.19
8140,-5.38
8151,-5.51
8162,-5.95
8174,-7.14
8186,-9.33
8198,-12.47
8210,-16.11
8222,-19.46
8234,-21.64
8246,-21.97
8258,-20.16
8270,-16.39
8282,-11.22
8294,-5.37
8306,0.44
8318,5.62
8330,9.79
8341,12.74
8352,14.4
8364,14.85
8376,14.25
8388,12.83
8400,10.88
8412,8.67
8424,6.39
8436,4.15
8448,2.0
8460,-0.04
8472,-1.88
8484,-3.44
8496,-4.61
8508,-5.36
8520,-5.74
8531,-5.96
8542,-6.31
8554,-7.09
8566,-8.5
8578,-10.54
8590,-12.96
8602,-15.32
8614,-17.15
8626,-18.14
8638,-18.27
8650,-17.8
8662,-17.15
8674,-16.67
8686,-16.43
8698,-16.18
8710,-15.43
8721,-13.76
8732,-11.02
8744,-7.43
8756,-3.47
8768,0.36
8780,3.8
8792,6.92
8804,10.05
8816,13.6
8828,17.87
8840,22.98
8852,28.84
8864,35.25
8876,41.92
8888,48.49
8900,54.57
8911,59.72
8922,63.59
8934,65.93
8946,66.7
8958,65.97
8970,63.9
8982,60.69
8994,56.49
9006,51.45
9018,45.66
9030,39.22
9042,32.24
9054,24.9
9066,17.49
9078,10.43
9090,4.2
9101,-0.83
9112,-4.43
9124,-6.58
9136,-7.47
9148,-7.41
9160,-6.76
9172,-5.91
9184,-5.19
9196,-4.83
9208,-4.92
9220,-5.43
9232,-6.3
9244,-7.46
9256,-8.97
9268,-10.95
9280,-13.51
9291,-16.65
9302,-20.13
9314,-23.51
9326,-26.22
9338,-27.72
9350,-27.71
9362,-26.15
9374,-23.39
9386,-20.02
9398,-16.78
9410,-14.36
9422,-13.17
9434,-13.23
9446,-14.08
9458,-14.92
9470,-14.84
9481,-13.13
9492,-9.48
9504,-4.11
9516,2.29
9528,8.81
9540,14.54
9552,18.74
9564,21.05
9576,21.41
9588,20.01
9600,17.27
9612,13.65
9624,9.63
9636,5.6
9648,1.81
9660,-1.69
9671,-4.94
9682,-7.94
9694,-10.61
9706,-12.68
9718,-13.86
9730,-14.01
9742,-13.31
9754,-12.33
9766,-11.79
9778,-12.37
9790,-14.38
9802,-17.71
9814,-21.85
9826,-26.05
9838,-29.54
9850,-31.67
9861,-32.02
9872,-30.38
9884,-26.78
9896,-21.41
9908,-14.54
9920,-6.45
9932,2.6
9944,12.36
9956,22.54
9968,32.72
9980,42.32
9992,50.6
10004,56.72
10016,59.87
10028,59.49
10040,55.5
10051,48.48
10062,39.68
10074,30.68
10086,22.94
10098,17.38
10110,14.1
10122,12.56
10134,11.99
10146,11.71
10158,11.46
10170,11.29
10182,11.41
10194,11.9
10206,12.66
10218,13.46
10230,14.04
10241,14.3
10252,14.3
10264,14.22
10276,14.31
10288,14.71
10300,15.35
10312,15.99
10324,16.25
10336,15.73
10348,14.16
10360,11.44
10372,7.62
10384,2.77
10396,-2.99
10408,-9.56
10420,-16.7
10431,-23.99
10442,-30.88
10454,-36.8
10466,-41.41
10478,-44.65
10490,-46.79
10502,-48.24
10514,-49.38
10526,-50.44
10538,-51.51
10550,-52.56
10562,-53.59
10574,-54.61
10586,-55.63
10598,-56.64
10610,-57.59
10621,-58.43
10632,-59.17
10644,-59.74
10656,-59.99
10668,-59.58
10680,-57.99
10692,-54.7
10704,-49.37
10716,-42.06
10728,-33.25
10740,-23.72
10752,-14.34
10764,-5.86
10776,1.25
10788,6.75
10800,10.62
10811,12.99
10822,14.09
10834,14.22
10846,13.71
10858,12.9
10870,12.07
10882,11.45
10894,11.19
10906,11.36
10918,11.91
10930,12.73
10942,13.66
10954,14.53
10966,15.24
10978,15.76
10990,16.08
11001,16.16
11012,15.9
11024,15.18
11036,13.91
11048,12.12
11060,9.97
11072,7.64
11084,5.3
11096,3.0
11108,0.63
11120,-1.94
11132,-4.85
11144,-8.07
11156,-11.48
11168,-14.84
11180,-17.91
11191,-20.53
11202,-22.68
11214,-24.51
11226,-26.27
11238,-28.24
11250,-30.58
11262,-33.34
11274,-36.4
11286,-39.48
11298,-42.18
11310,-43.93
11322,-44.15
11334,-42.32
11346,-38.18
11358,-31.89
11370,-24.02
11381,-15.42
11392,-6.97
11404,0.62
11416,6.96
11428,11.87
11440,15.37
11452,17.48
11464,18.27
11476,17.89
11488,16.66
11500,15.03
11512,13.47
11524,12.35
11536,11.86
11548,11.95
11560,12.45
11571,13.18
11582,13.98
11594,14.85
11606,15.8
11618,16.89
11630,18.11
11642,19.36
11654,20.44
11666,21.13
11678,21.21
11690,20.61
11702,19.38
11714,17.7
11726,15.76
11738,13.72
11750,11.62
11761,9.45
11772,7.17
11784,4.81
11796,2.47
11808,0.35
11820,-1.37
11832,-2.62
11844,-3.44
11856,-4.04
11868,-4.69
11880,-5.65
11892,-7.09
11904,-9.04
11916,-11.37
11928,-13.8
11940,-15.9
11951,-17.15
11962,-17.02
11974,-15.15
11986,-11.48
11998,-6.34
12010,-0.36
12022,5.7
12034,11.16
12046,15.55
12058,18.65
12070,20.41
12082,20.88
12094,20.15
12106,18.38
12118,15.84
12130,12.91
12141,10.03
12152,7.59
12164,5.84
12176,4.84
12188,4.5
12200,4.64
12212,5.09
12224,5.69
12236,6.36
12248,7.0
12260,7.56
12272,7.97
12284,8.17
12296,8.05
12308,7.52
12320,6.48
12331,4.9
12342,2.8
12354,0.32
12366,-2.34
12378,-4.86
12390,-6.95
12402,-8.36
12414,-8.97
12426,-8.86
12438,-8.26
12450,-7.5
12462,-6.95
12474,-6.91
12486,-7.6
12498,-9.15
12510,-11.57
12521,-14.69
12532,-18.14
12544,-21.31
12556,-23.45
12568,-23.85
12580,-22.09
12592,-18.15
12604,-12.48
12616,-5.81
12628,1.06
12640,7.45
12652,12.95
12664,17.38
12676,20.71
12688,22.95
12700,24.13
12711,24.23
12722,23.32
12734,21.57
12746,19.31
12758,16.97
12770,15.0
12782,13.71
12794,13.25
12806,13.53
12818,14.32
12830,15.28
12842,16.12
12854,16.6
12866,16.6
12878,16.13
12890,15.29
12901,14.24
12912,13.11
12924,11.92
12936,10.62
12948,9.09
12960,7.3
12972,5.3
12984,3.19
12996,1.14
13008,-0.79
13020,-2.56
13032,-4.21
13044,-5.75
13056,-7.16
13068,-8.38
13080,-9.48
13091,-10.62
13102,-12.09
13114,-14.19
13126,-17.05
13138,-20.43
13150,-23.73
13162,-26.09
13174,-26.65
13186,-24.92
13198,-20.94
13210,-15.28
13222,-8.83
13234,-2.51
13246,3.06
13258,7.55
13270,10.96
13281,13.36
13292,14.82
13304,15.39
13316,15.13
13328,14.18
13340,12.78
13352,11.25
13364,9.84
13376,8.69
13388,7.84
13400,7.27
13412,6.93
13424,6.81
13436,6.94
13448,7.38
13460,8.18
13471,9.33
13482,10.72
13494,12.11
13506,13.19
13518,13.63
13530,13.25
13542,12.08
13554,10.35
13566,8.38
13578,6.46
13590,4.74
13602,3.23
13614,1.82
13626,0.37
13638,-1.22
13650,-3.02
13661,-5.0
13672,-7.11
13684,-9.28
13696,-11.39
13708,-13.36
13720,-15.14
13732,-16.81
13744,-18.53
13756,-20.56
13768,-23.11
13780,-26.2
13792,-29.6
13804,-32.79
13816,-35.11
13828,-35.94
13840,-34.88
13851,-31.88
13862,-27.19
13874,-21.27
13886,-14.57
13898,-7.48
13910,-0.29
13922,6.79
13934,13.52
13946,19.69
13958,25.1
13970,29.66
13982,33.42
13994,36.58
14006,39.36
14018,41.96
14030,44.44
14041,46.65
14052,48.34
14064,49.21
14076,49.02
14088,47.74
14100,45.56
14112,42.85
14124,40.13
14136,37.84
14148,36.3
14160,35.53
14172,35.23
14184,34.89
14196,33.94
14208,31.95
14220,28.75
14231,24.48
14242,19.48
14254,14.1
14266,8.63
14278,3.24
14290,-1.97
14302,-6.89
14314,-11.43
14326,-15.48
14338,-19.03
14350,-22.09
14362,-24.78
14374,-27.2
14386,-29.38
14398,-31.34
14410,-33.0
14421,-34.36
14432,-35.43
14444,-36.36
14456,-37.34
14468,-38.54
14480,-40.01
14492,-41.56
14504,-42.71
14516,-42.81
14528,-41.19
14540,-37.42
14552,-31.5
14564,-23.84
14576,-15.17
14588,-6.36
14600,1.82
14611,8.79
14622,14.18
14634,17.76
14646,19.48
14658,19.42
14670,17.82
14682,15.08
14694,11.75
14706,8.4
14718,5.54
14730,3.58
14742,2.73
14754,3.04
14766,4.39
14778,6.55
14790,9.21
14801,12.06
14812,14.74
14824,16.95
14836,18.39
14848,18.88
14860,18.37
14872,16.99
14884,15.1
14896,13.11
14908,11.37
14920,10.03
14932,8.99
14944,7.99
14956,6.72
14968,5.02
14980,2.95
14991,0.75
15002,-1.18
15014,-2.47
15026,-2.95
15038,-2.61
15050,-1.74
15062,-0.71
15074,0.08
15086,0.36
15098,0.13
15110,-0.38
15122,-0.73
15134,-0.45
15146,0.86
15158,3.39
15170,7.09
15181,11.75
15192,16.94
15204,22.2
15216,27.03
15228,31.01
15240,33.82
15252,35.28
15264,35.36
15276,34.16
15288,31.95
15300,29.07
15312,25.93
15324,22.92
15336,20.37
15348,18.48
15360,17.31
15371,16.74
15382,16.54
15394,16.45
15406,16.21
15418,15.69
15430,14.87
15442,13.78
15454,12.47
15466,10.94
15478,9.14
15490,7.07
15502,4.82
15514,2.59
15526,0.65
15538,-0.73
15550,-1.46
15561,-1.55
15572,-1.13
15584,-0.43
15596,0.33
15608,0.92
15620,1.13
15632,0.8
15644,-0.11
15656,-1.49
15668,-3.07
15680,-4.58
15692,-5.88
15704,-7.06
15716,-8.37
15728,-10.03
15740,-12.0
15751,-13.92
15762,-15.18
15774,-15.2
15786,-13.7
15798,-10.79
15810,-6.92
15822,-2.67
15834,1.48
15846,5.3
15858,8.8
15870,12.09
15882,15.25
15894,18.22
15906,20.84
15918,22.92
15930,24.31
15941,25.02
15952,25.2
15964,25.09
15976,24.9
15988,24.76
16000,24.72
16012,24.8
16024,24.98
16036,25.22
16048,25.31
16060,24.95
16072,23.74
16084,21.39
16096,17.96
16108,13.89
16120,9.9
16131,6.74
16142,4.83
16154,4.12
16166,4.14
16178,4.13
16190,3.31
16202,1.1
16214,-2.78
16226,-8.3
16238,-15.18
16250,-22.97
16262,-31.13
16274,-39.17
16286,-46.65
16298,-53.26
16310,-58.8
16321,-63.28
16332,-66.86
16344,-69.84
16356,-72.45
16368,-74.68
16380,-76.14
16392,-76.13
16404,-74.0
16416,-69.44
16428,-62.76
16440,-54.85
16452,-46.84
16464,-39.7
16476,-33.96
16488,-29.69
16500,-26.67
16511,-24.65
16522,-23.51
16534,-23.23
16546,-23.78
16558,-24.97
16570,-26.54
16582,-28.2
16594,-29.85
16606,-31.52
16618,-33.33
16630,-35.23
16642,-36.9
16654,-37.78
16666,-37.27
16678,-35.04
16690,-31.21
16701,-26.35
16712,-21.26
16724,-16.68
16736,-13.13
16748,-10.86
16760,-9.95
16772,-10.45
16784,-12.44
16796,-15.89
16808,-20.55
16820,-25.79
16832,-30.78
16844,-34.65
16856,-36.82
16868,-37.15
16880,-35.92
16891,-33.66
16902,-30.9
16914,-27.99
16926,-25.1
16938,-22.26
16950,-19.41
16962,-16.46
16974,-13.24
16986,-9.44
16998,-4.68
17010,1.42
17022,9.06
17034,18.28
17046,28.87
17058,40.55
17070,52.9
17081,65.3
17092,76.81
17104,85.98
17116,91.04
17128,90.17
17140,82.13
17152,66.78
17164,45.34
17176,20.23
17188,-5.51
17200,-28.94
17212,-47.92
17224,-61.46
17236,-69.68
17248,-73.42
17260,-73.8
17271,-71.81
17282,-68.23
17294,-63.53
17306,-58.05
17318,-52.06
17330,-45.78
17342,-39.45
17354,-33.28
17366,-27.49
17378,-22.3
17390,-17.84
17402,-14.2
17414,-11.31
17426,-8.97
17438,-6.88
17450,-4.62
17461,-1.81
17472,1.86
17484,6.37
17496,11.36
17508,16.08
17520,19.72
17532,21.68
17544,21.98
17556,21.32
17568,20.78
17580,21.46
17592,23.99
17604,28.48
17616,34.64
17628,42.09
17640,50.51
17651,59.7
17662,69.33
17674,78.83
17686,87.37
17698,94.1
17710,98.43
17722,100.28
17734,100.04
17746,98.46
17758,96.33
17770,94.28
17782,92.52
17794,90.77
17806,88.35
17818,84.49
17830,78.68
17841,71.08
17852,62.62
17864,54.78
17876,49.11
17888,46.61
17900,47.43
17912,50.84
17924,55.66
17936,60.63
17948,64.8
17960,67.56
17972,68.53
17984,67.43
17996,64.03
18008,58.27
18020,50.35
18031,40.8
18042,30.28
18054,19.4
18066,8.44
18078,-2.77
18090,-14.77
18102,-28.28
18114,-43.95
18126,-61.98
18138,-81.99
18150,-102.84
18162,-122.66
18174,-139.17
18186,-150.05
18198,-153.53
18210,-148.83
18221,-136.46
18232,-118.21
18244,-96.8
18256,-75.33
18268,-56.63
18280,-42.73
18292,-34.66
18304,-32.35
18316,-34.9
18328,-40.86
18340,-48.54
18352,-56.25
18364,-62.51
18376,-66.15
18388,-66.46
18400,-63.29
18411,-57.13
18422,-49.0
18434,-40.21
18446,-32.03
18458,-25.38
18470,-20.61
18482,-17.49
18494,-15.5
18506,-13.98
18518,-12.47
18530,-10.72
18542,-8.71
18554,-6.58
18566,-4.44
18578,-2.45
18590,-0.69
18601,0.73
18612,1.74
18624,2.34
18636,2.55
18648,2.47
18660,2.2
18672,1.83
18684,1.31
18696,0.57
18708,-0.55
18720,-2.18
18732,-4.37
18744,-6.97
18756,-9.59
18768,-11.56
18780,-12.06
18791,-10.36
18802,-6.05
18814,0.74
18826,9.42
18838,19.04
18850,28.67
18862,37.63
18874,45.62
18886,52.53
18898,58.31
18910,62.72
18922,65.35
18934,65.86
18946,64.16
18958,60.59
18970,55.9
18981,51.0
18992,46.72
19004,43.56
19016,41.63
19028,40.66
19040,40.2
19052,39.81
19064,39.12
19076,37.89
19088,36.02
19100,33.47
19112,30.27
19124,26.46
19136,22.11
19148,17.28
19160,12.03
19171,6.46
19182,0.74
19194,-4.85
19206,-10.04
19218,-14.59
19230,-18.44
19242,-21.8
19254,-25.03
19266,-28.52
19278,-32.58
19290,-37.29
19302,-42.54
19314,-48.08
19326,-53.5
19338,-58.29
19350,-61.87
19361,-63.62
19372,-63.11
19384,-60.21
19396,-55.14
19408,-48.48
19420,-40.9
19432,-33.06
19444,-25.51
19456,-18.64
19468,-12.79
19480,-8.23
19492,-5.11
19504,-3.4
19516,-2.81
19528,-2.95
19540,-3.4
19551,-3.88
19562,-4.3
19574,-4.69
19586,-5.05
19598,-5.31
19610,-5.26
19622,-4.66
19634,-3.31
19646,-1.26
19658,1.18
19670,3.46
19682,4.98
19694,5.25
19706,4.15
19718,1.86
19730,-1.15
19741,-4.38
19752,-7.43
19764,-10.11
19776,-12.42
19788,-14.47
19800,-16.43
19812,-18.48
19824,-20.8
19836,-23.43
19848,-26.17
19860,-28.51
19872,-29.67
19884,-28.86
19896,-25.59
19908,-19.93
19920,-12.47
19931,-4.12
19942,4.25
19954,12.03
19966,18.93
19978,24.79
19990,29.45
20002,32.67
20014,34.22
20026,34.07
20038,32.53
20050,30.14
20062,27.52
20074,25.09
20086,23.06
20098,21.35
20110,19.82
20121,18.38
20132,17.1
20144,16.12
20156,15.56
20168,15.38
20180,15.33
20192,15.05
20204,14.22
20216,12.7
20228,10.55
20240,8.02
20252,5.43
20264,3.03
20276,0.89
20288,-1.09
20300,-3.17
20311,-5.62
20322,-8.7
20334,-12.55
20346,-17.09
20358,-21.97
20370,-26.51
20382,-29.83
20394,-31.07
20406,-29.67
20418,-25.58
20430,-19.28
20442,-11.64
20454,-3.63
20466,3.93
20478,10.55
20490,16.01
20501,20.24
20512,23.23
20524,25.0
20536,25.57
20548,25.06
20560,23.71
20572,21.82
20584,19.75
20596,17.78
20608,16.07
20620,14.66
20632,13.52
20644,12.61
20656,11.9
20668,11.39
20680,11.04
20691,10.74
20702,10.29
20714,9.46
20726,8.14
20738,6.37
20750,4.38
20762,2.46
20774,0.83
20786,-0.53
20798,-1.83
20810,-3.42
20822,-5.62
20834,-8.59
20846,-12.31
20858,-16.5
20870,-20.69
20881,-24.19
20892,-26.24
20904,-26.15
20916,-23.48
20928,-18.26
20940,-11.05
20952,-2.78
20964,5.43
20976,12.63
20988,18.24
