seconds,BVP
2,-57.58
14,-56.93
26,-52.48
38,-43.75
50,-31.07
62,-15.63
74,0.88
86,16.7
98,30.44
110,41.36
122,49.4
134,55.02
146,58.86
158,61.47
170,63.1
181,63.64
192,62.74
204,59.97
216,55.05
228,48.07
240,39.47
252,29.93
264,20.2
276,10.87
288,2.31
300,-5.34
312,-12.1
324,-18.16
336,-23.86
348,-29.62
360,-35.85
371,-42.62
382,-49.4
394,-55.04
406,-58.0
418,-56.95
430,-51.3
442,-41.56
454,-29.27
466,-16.52
478,-5.31
490,3.02
502,7.99
514,9.87
526,9.42
538,7.47
550,4.72
561,1.61
572,-1.63
584,-4.92
596,-8.25
608,-11.55
620,-14.65
632,-17.28
644,-19.08
656,-19.74
668,-19.14
680,-17.41
692,-14.99
704,-12.56
716,-10.9
728,-10.73
740,-12.48
751,-16.13
762,-21.04
774,-25.95
786,-29.19
798,-28.98
810,-24.08
822,-14.17
834,-0.08
846,16.38
858,32.86
870,47.17
882,57.75
894,63.96
906,65.93
918,64.37
930,60.16
941,54.19
952,47.23
964,39.89
976,32.64
988,25.76
1000,19.3
1012,13.12
1024,7.03
1036,0.91
1048,-5.17
1060,-10.98
1072,-16.18
1084,-20.52
1096,-23.97
1108,-26.72
1120,-29.21
1131,-31.97
1142,-35.5
1154,-40.13
1166,-45.74
1178,-51.68
1190,-56.73
1202,-59.33
1214,-58.01
1226,-51.98
1238,-41.42
1250,-27.55
1262,-12.17
1274,2.91
1286,16.36
1298,27.57
1310,36.5
1321,43.33
1332,48.26
1344,51.3
1356,52.49
1368,51.96
1380,50.12
1392,47.51
1404,44.73
1416,42.14
1428,39.85
1440,37.73
1452,35.49
1464,32.87
1476,29.72
1488,26.06
1500,21.98
1511,17.7
1522,13.43
1534,9.33
1546,5.43
1558,1.56
1570,-2.63
1582,-7.65
1594,-14.02
1606,-21.99
1618,-31.26
1630,-40.8
1642,-49.02
1654,-54.0
1666,-54.22
1678,-49.02
1690,-38.87
1701,-25.29
1712,-10.24
1724,4.38
1736,17.27
1748,27.81
1760,35.97
1772,41.88
1784,45.67
1796,47.35
1808,46.88
1820,44.42
1832,40.43
1844,35.62
1856,30.77
1868,26.54
1880,23.22
1891,20.69
1902,18.5
1914,16.13
1926,13.21
1938,9.69
1950,5.85
1962,2.07
1974,-1.41
1986,-4.54
1998,-7.59
2010,-10.91
2022,-14.83
2034,-19.57
2046,-25.23
2058,-31.86
2070,-39.29
2081,-47.12
2092,-54.46
2104,-59.99
2116,-62.21
2128,-59.92
2140,-52.71
2152,-41.21
2164,-26.99
2176,-12.01
2188,1.92
2200,13.64
2212,22.72
2224,29.24
2236,33.55
2248,35.94
2260,36.61
2271,35.77
2282,33.7
2294,30.86
2306,27.79
2318,24.97
2330,22.64
2342,20.77
2354,19.07
2366,17.21
2378,14.93
2390,12.15
2402,9.01
2414,5.75
2426,2.58
2438,-0.43
2450,-3.37
2461,-6.47
2472,-9.98
2484,-14.1
2496,-18.99
2508,-24.77
2520,-31.45
2532,-38.89
2544,-46.63
2556,-53.74
2568,-58.93
2580,-60.81
2592,-58.29
2604,-51.03
2616,-39.61
2628,-25.42
2640,-10.23
2651,4.26
2662,16.9
2674,27.17
2686,35.02
2698,40.6
2710,44.07
2722,45.48
2734,44.91
2746,42.64
2758,39.21
2770,35.3
2782,31.6
2794,28.53
2806,26.16
2818,24.26
2830,22.39
2841,20.12
2852,17.19
2864,13.61
2876,9.57
2888,5.42
2900,1.46
2912,-2.13
2924,-5.42
2936,-8.67
2948,-12.28
2960,-16.64
2972,-22.05
2984,-28.65
2996,-36.33
3008,-44.74
3020,-53.11
3031,-60.33
3042,-65.0
3054,-65.78
3066,-61.74
3078,-52.8
3090,-39.78
3102,-24.24
3114,-8.11
3126,6.87
3138,19.49
3150,29.23
3162,36.11
3174,40.51
3186,42.87
3198,43.59
3210,42.97
3221,41.27
3232,38.78
3244,35.87
3256,32.88
3268,30.08
3280,27.58
3292,25.33
3304,23.16
3316,20.9
3328,18.37
3340,15.51
3352,12.33
3364,8.87
3376,5.15
3388,1.17
3400,-3.09
3411,-7.65
3422,-12.51
3434,-17.7
3446,-23.25
3458,-29.3
3470,-35.96
3482,-43.21
3494,-50.69
3506,-57.51
3518,-62.4
3530,-63.98
3542,-61.28
3554,-54.13
3566,-43.33
3578,-30.37
3590,-16.96
3601,-4.45
3612,6.4
3624,15.42
3636,22.71
3648,28.37
3660,32.32
3672,34.41
3684,34.58
3696,33.04
3708,30.28
3720,26.95
3732,23.65
3744,20.86
3756,18.88
3768,17.85
3780,17.74
3791,18.38
3802,19.43
3814,20.44
3826,20.94
3838,20.55
3850,19.1
3862,16.67
3874,13.46
3886,9.78
3898,5.87
3910,1.87
3922,-2.18
3934,-6.38
3946,-10.93
3958,-16.05
3970,-21.91
3981,-28.39
3992,-35.0
4004,-40.76
4016,-44.35
4028,-44.56
4040,-40.61
4052,-32.57
4064,-21.45
4076,-8.89
4088,3.18
4100,13.26
4112,20.54
4124,24.99
4136,27.16
4148,27.73
4160,27.31
4171,26.18
4182,24.44
4194,22.14
4206,19.42
4218,16.49
4230,13.6
4242,10.88
4254,8.39
4266,6.06
4278,3.85
4290,1.78
4302,-0.07
4314,-1.66
4326,-3.01
4338,-4.29
4350,-5.71
4361,-7.51
4372,-9.8
4384,-12.6
4396,-15.81
4408,-19.39
4420,-23.34
4432,-27.82
4444,-33.06
4456,-39.15
4468,-45.82
4480,-52.29
4492,-57.34
4504,-59.59
4516,-57.99
4528,-52.22
4540,-42.83
4551,-31.13
4562,-18.64
4574,-6.65
4586,4.08
4598,13.37
4610,21.31
4622,28.03
4634,33.51
4646,37.59
4658,40.16
4670,41.23
4682,41.02
4694,39.94
4706,38.45
4718,37.05
4730,36.09
4741,35.76
4752,36.07
4764,36.79
4776,37.68
4788,38.45
4800,39.05
4812,39.55
4824,40.13
4836,40.93
4848,41.91
4860,42.9
4872,43.6
4884,43.76
4896,43.31
4908,42.38
4920,41.24
4931,40.27
4942,39.86
4954,40.43
4966,42.45
4978,46.44
4990,52.88
5002,62.08
5014,74.05
5026,88.34
5038,104.18
5050,120.64
5062,136.89
5074,152.24
5086,165.83
5098,176.39
5110,182.0
5121,180.44
5132,170.02
5144,150.5
5156,123.78
5168,93.55
5180,64.37
5192,40.22
5204,23.42
5216,14.23
5228,11.29
5240,12.48
5252,15.71
5264,19.35
5276,22.36
5288,24.29
5300,25.5
5311,27.35
5322,32.14
5334,42.35
5346,59.28
5358,81.74
5370,105.52
5382,124.31
5394,131.89
5406,124.63
5418,102.92
5430,71.01
5442,35.13
5454,0.85
5466,-28.93
5478,-54.56
5490,-78.96
5501,-106.22
5512,-139.99
5524,-182.07
5536,-231.11
5548,-281.92
5560,-325.68
5572,-351.96
5584,-352.25
5596,-323.79
5608,-271.64
5620,-207.84
5632,-147.29
5644,-102.3
5656,-78.42
5668,-73.29
5680,-79.07
5691,-86.82
5702,-90.54
5714,-89.11
5726,-85.49
5738,-84.2
5750,-88.66
5762,-99.73
5774,-115.93
5786,-134.52
5798,-152.63
5810,-167.43
5822,-175.82
5834,-174.48
5846,-160.98
5858,-135.46
5870,-101.96
5881,-67.9
5892,-41.38
5904,-27.65
5916,-26.46
5928,-32.09
5940,-36.09
5952,-31.22
5964,-14.47
5976,12.31
5988,44.04
6000,74.9
6012,100.28
6024,117.4
6036,124.86
6048,122.11
6060,109.37
6071,87.92
6082,60.34
6094,30.32
6106,1.95
6118,-21.38
6130,-37.8
6142,-47.45
6154,-52.16
6166,-54.57
6178,-57.14
6190,-61.24
6202,-66.88
6214,-72.96
6226,-78.09
6238,-81.31
6250,-82.61
6261,-82.82
6272,-83.1
6284,-84.28
6296,-86.38
6308,-88.59
6320,-89.66
6332,-88.4
6344,-84.16
6356,-76.9
6368,-67.05
6380,-55.01
6392,-40.99
6404,-24.86
6416,-6.48
6428,13.93
6440,35.51
6451,56.69
6462,75.54
6474,90.28
6486,99.72
6498,103.56
6510,102.32
6522,97.05
6534,88.94
6546,79.08
6558,68.16
6570,56.38
6582,43.39
6594,28.46
6606,10.88
6618,-9.58
6630,-32.24
6641,-55.4
6652,-76.7
6664,-93.81
6676,-105.16
6688,-110.34
6700,-110.09
6712,-105.75
6724,-98.7
6736,-89.87
6748,-79.61
6760,-67.88
6772,-54.69
6784,-40.46
6796,-26.21
6808,-13.51
6820,-3.95
6831,1.45
6842,2.82
6854,1.63
6866,0.19
6878,0.91
6890,5.42
6902,14.29
6914,27.16
6926,43.36
6938,62.4
6950,84.05
6962,108.01
6974,133.33
6986,158.02
6998,179.32
7010,194.52
7021,201.82
7032,201.05
7044,193.65
7056,181.99
7068,168.36
7080,154.08
7092,139.26
7104,123.19
7116,105.19
7128,85.38
7140,65.12
7152,46.58
7164,31.96
7176,22.63
7188,18.57
7200,18.49
7211,20.34
7222,21.92
7234,21.42
7246,17.7
7258,10.37
7270,-0.26
7282,-13.37
7294,-27.76
7306,-42.1
7318,-55.15
7330,-65.9
7342,-73.62
7354,-77.83
7366,-78.38
7378,-75.5
7390,-69.9
7401,-62.73
7412,-55.32
7424,-48.92
7436,-44.39
7448,-42.09
7460,-41.97
7472,-43.82
7484,-47.3
7496,-52.01
7508,-57.25
7520,-61.98
7532,-64.79
7544,-64.21
7556,-59.03
7568,-48.73
7580,-33.67
7591,-15.1
7602,5.28
7614,25.68
7626,44.77
7638,61.77
7650,76.45
7662,88.78
7674,98.69
7686,106.02
7698,110.66
7710,112.86
7722,113.3
7734,113.04
7746,113.09
7758,114.02
7770,115.71
7781,117.44
7792,118.26
7804,117.37
7816,114.45
7828,109.64
7840,103.37
7852,96.25
7864,88.97
7876,82.32
7888,77.17
7900,74.17
7912,73.54
7924,74.77
7936,76.75
7948,78.2
7960,78.23
7971,76.69
7982,74.05
7994,70.8
8006,66.85
8018,61.16
8030,52.02
8042,37.76
8054,17.56
8066,-8.09
8078,-37.59
8090,-68.73
8102,-99.55
8114,-128.71
8126,-155.61
8138,-180.06
8150,-201.87
8161,-220.61
8172,-235.71
8184,-246.71
8196,-253.6
8208,-256.84
8220,-257.24
8232,-255.68
8244,-252.73
8256,-248.66
8268,-243.38
8280,-236.63
8292,-227.97
8304,-216.9
8316,-202.81
8328,-185.1
8340,-163.34
8351,-137.59
8362,-108.48
8374,-77.29
8386,-45.69
8398,-15.48
8410,11.73
8422,34.71
8434,52.71
8446,65.51
8458,73.35
8470,76.93
8482,77.21
8494,75.29
8506,72.22
8518,68.79
8530,65.55
8541,62.72
8552,60.35
8564,58.37
8576,56.62
8588,54.93
8600,53.04
8612,50.64
8624,47.42
8636,43.14
8648,37.73
8660,31.41
8672,24.79
8684,18.83
8696,14.72
8708,13.59
8720,16.17
8731,22.47
8742,31.76
8754,42.64
8766,53.52
8778,63.01
8790,70.23
8802,74.96
8814,77.44
8826,78.09
8838,77.29
8850,75.27
8862,72.13
8874,68.01
8886,63.17
8898,57.98
8910,52.88
8921,48.27
8932,44.32
8944,41.03
8956,38.11
8968,35.17
8980,31.78
8992,27.53
9004,22.16
9016,15.52
9028,7.59
9040,-1.41
9052,-10.94
9064,-20.14
9076,-27.82
9088,-32.79
9100,-34.2
9111,-31.9
9122,-26.48
9134,-19.06
9146,-10.96
9158,-3.14
9170,3.83
9182,9.82
9194,14.81
9206,18.74
9218,21.4
9230,22.58
9242,22.24
9254,20.61
9266,18.22
9278,15.69
9290,13.56
9301,12.12
9312,11.37
9324,11.16
9336,11.28
9348,11.62
9360,12.23
9372,13.2
9384,14.63
9396,16.5
9408,18.71
9420,21.21
9432,24.14
9444,27.94
9456,33.21
9468,40.58
9480,50.37
9491,62.38
9502,75.84
9514,89.63
9526,102.49
9538,113.33
9550,121.43
9562,126.43
9574,128.38
9586,127.59
9598,124.58
9610,119.91
9622,114.06
9634,107.31
9646,99.67
9658,91.0
9670,81.14
9681,70.12
9692,58.24
9704,46.08
9716,34.21
9728,23.08
9740,12.9
9752,3.52
9764,-5.33
9776,-13.96
9788,-22.58
9800,-31.18
9812,-39.46
9824,-46.84
9836,-52.58
9848,-55.9
9860,-56.27
9871,-53.6
9882,-48.34
9894,-41.39
9906,-33.86
9918,-26.79
9930,-20.91
9942,-16.55
9954,-13.76
9966,-12.38
9978,-12.23
9990,-13.08
10002,-14.74
10014,-16.95
10026,-19.5
10038,-22.23
10050,-25.02
10061,-27.82
10072,-30.55
10084,-33.08
10096,-35.29
10108,-37.14
10120,-38.72
10132,-40.27
10144,-42.07
10156,-44.36
10168,-47.12
10180,-49.99
10192,-52.31
10204,-53.25
10216,-51.97
10228,-47.91
10240,-40.95
10251,-31.44
10262,-20.2
10274,-8.39
10286,2.8
10298,12.32
10310,19.47
10322,24.04
10334,26.16
10346,26.26
10358,24.8
10370,22.16
10382,18.59
10394,14.29
10406,9.57
10418,4.83
10430,0.59
10441,-2.76
10452,-5.06
10464,-6.5
10476,-7.41
10488,-8.25
10500,-9.35
10512,-10.97
10524,-13.3
10536,-16.48
10548,-20.52
10560,-25.19
10572,-29.89
10584,-33.66
10596,-35.42
10608,-34.27
10620,-29.89
10631,-22.64
10642,-13.48
10654,-3.72
10666,5.43
10678,13.06
10690,18.73
10702,22.39
10714,24.18
10726,24.32
10738,23.03
10750,20.55
10762,17.17
10774,13.25
10786,9.15
10798,5.12
10810,1.26
10821,-2.42
10832,-5.99
10844,-9.42
10856,-12.62
10868,-15.5
10880,-18.03
10892,-20.32
10904,-22.67
10916,-25.39
10928,-28.69
10940,-32.41
10952,-35.97
10964,-38.37
10976,-38.48
10988,-35.38
11000,-28.66
11011,-18.68
11022,-6.45
11034,6.6
11046,19.05
11058,29.74
11070,38.0
11082,43.59
11094,46.57
11106,47.22
11118,45.92
11130,43.12
11142,39.42
11154,35.42
11166,31.7
11178,28.67
11190,26.46
11201,24.94
11212,23.83
11224,22.85
11236,21.92
11248,21.11
11260,20.58
11272,20.38
11284,20.35
11296,20.04
11308,18.81
11320,16.07
11332,11.46
11344,5.0
11356,-2.8
11368,-10.97
11380,-18.32
11391,-23.65
11402,-26.16
11414,-25.62
11426,-22.47
11438,-17.56
11450,-11.87
11462,-6.23
11474,-1.12
11486,3.16
11498,6.43
11510,8.42
11522,8.87
11534,7.56
11546,4.5
11558,-0.04
11570,-5.54
11581,-11.44
11592,-17.19
11604,-22.36
11616,-26.56
11628,-29.4
11640,-30.48
11652,-29.37
11664,-25.73
11676,-19.33
11688,-10.25
11700,1.16
11712,14.21
11724,27.92
11736,41.16
11748,52.89
11760,62.31
11771,69.13
11782,73.55
11794,76.23
11806,78.02
11818,79.75
11830,82.03
11842,85.22
11854,89.5
11866,95.05
11878,102.0
11890,110.5
11902,120.52
11914,131.76
11926,143.63
11938,155.4
11950,166.45
11961,176.45
11972,185.52
11984,194.05
11996,202.48
12008,211.08
12020,219.86
12032,228.71
12044,237.49
12056,246.09
12068,254.1
12080,260.53
12092,263.72
12104,261.84
12116,253.72
12128,239.68
12140,221.58
12151,202.19
12162,184.0
12174,168.35
12186,155.24
12198,143.9
12210,133.61
12222,124.06
12234,115.1
12246,106.22
12258,96.44
12270,84.83
12282,71.47
12294,57.92
12306,46.74
12318,40.06
12330,38.19
12341,39.05
12352,39.06
12364,34.87
12376,24.95
12388,10.19
12400,-6.77
12412,-22.99
12424,-36.59
12436,-47.21
12448,-55.67
12460,-63.12
12472,-70.24
12484,-77.03
12496,-83.03
12508,-87.8
12520,-91.31
12531,-94.07
12542,-97.0
12554,-101.11
12566,-107.19
12578,-115.52
12590,-125.87
12602,-137.59
12614,-150.04
12626,-162.82
12638,-176.05
12650,-190.22
12662,-206.01
12674,-223.89
12686,-244.15
12698,-267.01
12710,-292.88
12721,-322.03
12732,-353.97
12744,-386.58
12756,-415.97
12768,-437.25
12780,-446.27
12792,-441.27
12804,-423.68
12816,-397.49
12828,-367.66
12840,-338.35
12852,-311.98
12864,-289.35
12876,-270.5
12888,-255.53
12900,-244.73
12911,-238.17
12922,-235.17
12934,-234.16
12946,-233.12
12958,-230.49
12970,-225.83
12982,-219.98
12994,-214.78
13006,-212.32
13018,-213.9
13030,-219.51
13042,-227.64
13054,-235.86
13066,-241.86
13078,-244.38
13090,-243.51
13101,-240.28
13112,-235.65
13124,-229.67
13136,-221.33
13148,-209.04
13160,-191.65
13172,-169.13
13184,-142.67
13196,-114.11
13208,-85.28
13220,-57.41
13232,-31.04
13244,-6.39
13256,16.38
13268,37.0
13280,55.22
13291,71.05
13302,84.89
13314,97.4
13326,109.3
13338,121.14
13350,133.11
13362,145.1
13374,156.74
13386,167.53
13398,177.02
13410,184.9
13422,191.1
13434,195.85
13446,199.57
13458,202.81
13470,206.09
13481,209.81
13492,214.37
13504,220.27
13516,228.09
13528,238.31
13540,250.99
13552,265.53
13564,280.83
13576,295.7
13588,309.29
13600,321.08
13612,330.47
13624,336.25
13636,336.63
13648,329.94
13660,315.66
13671,295.24
13682,271.79
13694,248.97
13706,229.38
13718,213.55
13730,199.97
13742,186.14
13754,169.77
13766,149.57
13778,125.15
13790,96.55
13802,63.99
13814,28.25
13826,-8.56
13838,-42.62
13850,-69.05
13861,-83.77
13872,-85.6
13884,-77.6
13896,-66.54
13908,-60.61
13920,-66.31
13932,-86.08
13944,-117.83
13956,-156.43
13968,-196.35
13980,-233.71
13992,-266.94
14004,-295.93
14016,-320.65
14028,-340.25
14040,-353.42
14051,-359.32
14062,-358.59
14074,-353.49
14086,-347.11
14098,-342.11
14110,-339.65
14122,-339.11
14134,-338.59
14146,-335.79
14158,-328.82
14170,-316.61
14182,-298.78
14194,-275.4
14206,-246.81
14218,-213.64
14230,-177.06
14241,-139.0
14252,-102.01
14264,-68.89
14276,-41.99
14288,-22.57
14300,-10.58
14312,-4.73
14324,-3.06
14336,-3.59
14348,-4.87
14360,-6.1
14372,-6.97
14384,-7.24
14396,-6.5
14408,-3.97
14420,1.18
14431,9.62
14442,21.46
14454,36.19
14466,52.71
14478,69.66
14490,85.79
14502,100.15
14514,112.14
14526,121.31
14538,127.31
14550,129.81
14562,128.65
14574,124.03
14586,116.58
14598,107.29
14610,97.16
14621,86.98
14632,77.1
14644,67.55
14656,58.23
14668,49.2
14680,40.67
14692,32.94
14704,26.12
14716,20.06
14728,14.31
14740,8.4
14752,2.11
14764,-4.44
14776,-10.92
14788,-17.06
14800,-22.89
14811,-28.68
14822,-34.61
14834,-40.35
14846,-44.87
14858,-46.69
14870,-44.44
14882,-37.45
14894,-26.16
14906,-11.91
14918,3.5
14930,18.34
14942,31.4
14954,41.89
14966,49.41
14978,53.73
14990,54.85
15001,53.17
15012,49.52
15024,45.11
15036,41.18
15048,38.65
15060,37.8
15072,38.27
15084,39.28
15096,40.07
15108,40.23
15120,39.82
15132,39.29
15144,39.11
15156,39.5
15168,40.15
15180,40.29
15191,38.89
15202,35.13
15214,28.89
15226,21.0
15238,13.15
15250,7.43
15262,5.74
15274,9.13
15286,17.58
15298,30.07
15310,44.99
15322,60.64
15334,75.5
15346,88.38
15358,98.37
15370,104.83
15381,107.47
15392,106.48
15404,102.65
15416,97.14
15428,91.17
15440,85.67
15452,81.02
15464,77.09
15476,73.49
15488,69.87
15500,66.11
15512,62.33
15524,58.72
15536,55.4
15548,52.3
15560,49.14
15571,45.58
15582,41.3
15594,36.06
15606,29.71
15618,22.27
15630,13.98
15642,5.44
15654,-2.39
15666,-8.36
15678,-11.37
15690,-10.73
15702,-6.37
15714,1.11
15726,10.59
15738,20.69
15750,30.04
15761,37.56
15772,42.6
15784,45.03
15796,45.12
15808,43.42
15820,40.47
15832,36.68
15844,32.26
15856,27.28
15868,21.87
15880,16.26
15892,10.81
15904,5.84
15916,1.5
15928,-2.32
15940,-5.92
15951,-9.6
15962,-13.55
15974,-17.69
15986,-21.79
15998,-25.58
16010,-28.99
16022,-32.12
16034,-35.25
16046,-38.59
16058,-42.02
16070,-44.97
16082,-46.47
16094,-45.46
16106,-41.2
16118,-33.58
16130,-23.19
16141,-11.18
16152,1.06
16164,12.31
16176,21.67
16188,28.74
16200,33.48
16212,36.21
16224,37.43
16236,37.77
16248,37.81
16260,37.95
16272,38.32
16284,38.81
16296,39.17
16308,39.15
16320,38.67
16331,37.84
16342,36.92
16354,36.12
16366,35.51
16378,34.87
16390,33.87
16402,32.24
16414,30.09
16426,28.04
16438,27.18
16450,28.6
16462,32.97
16474,40.11
16486,48.91
16498,57.6
16510,64.27
16521,67.43
16532,66.48
16544,61.78
16556,54.58
16568,46.57
16580,39.47
16592,34.53
16604,32.28
16616,32.38
16628,33.75
16640,34.9
16652,34.46
16664,31.56
16676,26.2
16688,19.18
16700,11.86
16711,5.65
16722,1.59
16734,-0.05
16746,0.23
16758,1.3
16770,1.79
16782,0.47
16794,-3.52
16806,-10.43
16818,-19.78
16830,-30.31
16842,-40.08
16854,-46.84
16866,-48.6
16878,-44.26
16890,-34.03
16901,-19.38
16912,-2.58
16924,14.0
16936,28.65
16948,40.61
16960,50.0
16972,57.47
16984,63.7
16996,69.11
17008,73.83
17020,77.86
17032,81.35
17044,84.68
17056,88.51
17068,93.58
17080,100.46
17091,109.32
17102,119.86
17114,131.31
17126,142.81
17138,153.72
17150,164.0
17162,174.4
17174,186.32
17186,201.26
17198,219.88
17210,241.31
17222,262.7
17234,279.78
17246,288.22
17258,285.03
17270,269.65
17281,244.01
17292,211.84
17304,177.68
17316,145.91
17328,119.87
17340,101.36
17352,90.13
17364,83.75
17376,78.0
17388,68.0
17400,50.17
17412,23.84
17424,-8.16
17436,-40.68
17448,-68.63
17460,-89.23
17471,-103.01
17482,-112.68
17494,-121.2
17506,-130.09
17518,-139.26
17530,-148.43
17542,-158.59
17554,-172.32
17566,-192.5
17578,-220.14
17590,-252.55
17602,-283.58
17614,-305.65
17626,-312.67
17638,-302.16
17650,-275.76
17661,-238.03
17672,-194.73
17684,-151.23
17696,-111.44
17708,-77.44
17720,-49.49
17732,-26.38
17744,-6.18
17756,12.71
17768,30.6
17780,46.29
17792,57.64
17804,62.74
17816,60.9
17828,52.86
17840,40.31
17851,24.97
17862,8.01
17874,-10.04
17886,-28.69
17898,-47.06
17910,-63.79
17922,-77.53
17934,-87.49
17946,-93.88
17958,-97.76
17970,-100.38
17982,-102.54
17994,-104.2
18006,-104.55
18018,-102.6
18030,-97.79
18041,-90.38
18052,-81.38
18064,-72.18
18076,-63.96
18088,-57.36
18100,-52.44
18112,-48.8
18124,-45.97
18136,-43.56
18148,-41.4
18160,-39.49
18172,-37.94
18184,-36.83
18196,-36.13
18208,-35.72
18220,-35.32
18231,-34.58
18242,-33.23
18254,-31.11
18266,-28.36
18278,-25.39
18290,-22.81
18302,-21.29
18314,-21.31
18326,-22.97
18338,-25.86
18350,-29.14
18362,-31.65
18374,-32.24
18386,-30.08
18398,-24.95
18410,-17.35
18421,-8.38
18432,0.56
18444,8.21
18456,13.74
18468,16.9
18480,17.89
18492,17.06
18504,14.69
18516,10.9
18528,5.74
18540,-0.57
18552,-7.41
18564,-13.92
18576,-19.25
18588,-22.92
18600,-25.1
18611,-26.44
18622,-27.81
18634,-29.8
18646,-32.49
18658,-35.49
18670,-38.11
18682,-39.71
18694,-39.87
18706,-38.49
18718,-35.8
18730,-32.26
18742,-28.55
18754,-25.35
18766,-23.12
18778,-21.71
18790,-20.3
18801,-17.45
18812,-11.69
18824,-2.01
18836,11.53
18848,27.84
18860,45.08
18872,61.33
18884,75.11
18896,85.65
18908,92.78
18920,96.71
18932,97.78
18944,96.36
18956,92.94
18968,88.21
18980,82.92
18991,77.75
19002,72.97
19014,68.42
19026,63.61
19038,58.03
19050,51.48
19062,44.23
19074,36.91
19086,30.24
19098,24.69
19110,20.29
19122,16.66
19134,13.17
19146,9.16
19158,4.19
19170,-1.94
19181,-9.16
19192,-17.25
19204,-25.91
19216,-34.87
19228,-44.01
19240,-53.36
19252,-63.02
19264,-73.02
19276,-83.07
19288,-92.38
19300,-99.78
19312,-103.94
19324,-103.87
19336,-99.3
19348,-90.82
19360,-79.64
19371,-67.23
19382,-54.81
19394,-43.11
19406,-32.38
19418,-22.62
19430,-13.84
19442,-6.22
19454,-0.03
19466,4.55
19478,7.59
19490,9.45
19502,10.64
19514,11.63
19526,12.69
19538,13.95
19550,15.37
19561,16.93
19572,18.62
19584,20.42
19596,22.26
19608,23.95
19620,25.27
19632,25.97
19644,25.91
19656,25.05
19668,23.43
19680,21.1
19692,18.09
19704,14.38
19716,10.06
19728,5.29
19740,0.38
19751,-4.4
19762,-8.82
19774,-12.87
19786,-16.72
19798,-20.62
19810,-24.87
19822,-29.6
19834,-34.91
19846,-40.77
19858,-47.17
19870,-53.97
19882,-60.89
19894,-67.33
19906,-72.41
19918,-75.11
19930,-74.59
19941,-70.47
19952,-62.93
19964,-52.74
19976,-41.01
19988,-29.06
20000,-18.11
20012,-9.18
20024,-2.99
20036,0.13
20048,0.31
20060,-1.74
20072,-4.74
20084,-6.86
20096,-6.19
20108,-1.2
20120,8.64
20131,22.54
20142,38.6
20154,54.46
20166,68.19
20178,78.97
20190,87.24
20202,94.21
20214,101.08
20226,108.36
20238,115.6
20250,121.82
20262,126.02
20274,127.77
20286,127.27
20298,125.07
20310,121.66
20321,117.1
20332,111.11
20344,103.31
20356,93.63
20368,82.51
20380,70.77
20392,59.3
20404,48.67
20416,38.86
20428,29.41
20440,19.67
20452,9.15
20464,-2.26
20476,-14.24
20488,-26.08
20500,-36.9
20511,-45.73
20522,-51.73
20534,-54.41
20546,-53.67
20558,-49.99
20570,-44.17
20582,-37.24
20594,-30.06
20606,-23.19
20618,-16.85
20630,-11.11
20642,-6.15
20654,-2.46
20666,-0.69
20678,-1.45
20690,-4.92
20701,-10.68
20712,-17.81
20724,-25.28
20736,-32.32
20748,-38.68
20760,-44.58
20772,-50.36
20784,-56.11
20796,-61.48
20808,-65.76
20820,-68.21
20832,-68.47
20844,-66.78
20856,-64.05
20868,-61.51
20880,-60.37
20891,-61.4
20902,-64.69
20914,-69.63
20926,-75.1
20938,-79.74
20950,-82.25
20962,-81.57
20974,-77.0
20986,-68.29
20998,-55.69
