seconds,BVP
1,0.01
13,0.26
25,0.55
37,0.97
49,1.58
61,2.45
73,3.5
85,4.59
97,5.5
109,6.02
121,6.07
133,5.67
145,5.01
156,4.32
167,3.74
179,3.36
191,3.1
203,2.87
215,2.57
227,2.15
239,1.62
251,1.03
263,0.42
275,-0.2
287,-0.84
299,-1.5
311,-2.21
323,-2.95
335,-3.65
346,-4.23
357,-4.59
369,-4.65
381,-4.38
393,-3.84
405,-3.16
417,-2.44
429,-1.75
441,-1.09
453,-0.4
465,0.37
477,1.18
489,1.94
501,2.48
513,2.71
525,2.63
536,2.35
547,2.06
559,1.91
571,1.97
583,2.18
595,2.45
607,2.66
619,2.74
631,2.67
643,2.47
655,2.14
667,1.7
679,1.17
691,0.57
703,-0.02
715,-0.52
726,-0.87
737,-1.04
749,-1.08
761,-1.04
773,-0.95
785,-0.83
797,-0.63
809,-0.27
821,0.32
833,1.15
845,2.09
857,2.96
869,3.58
881,3.85
893,3.8
905,3.57
916,3.34
927,3.22
939,3.24
951,3.37
963,3.53
975,3.64
987,3.66
999,3.56
1011,3.35
1023,3.05
1035,2.74
1047,2.44
1059,2.16
1071,1.85
1083,1.44
1095,0.96
1106,0.49
1117,0.16
1129,0.01
1141,-0.03
1153,-0.13
1165,-0.44
1177,-0.96
1189,-1.53
1201,-1.96
1213,-2.1
1225,-1.97
1237,-1.69
1249,-1.39
1261,-1.12
1273,-0.82
1285,-0.43
1296,0.12
1307,0.75
1319,1.31
1331,1.66
1343,1.72
1355,1.55
1367,1.27
1379,1.04
1391,0.95
1403,1.01
1415,1.12
1427,1.19
1439,1.14
1451,1.0
1463,0.84
1475,0.76
1486,0.82
1497,1.01
1509,1.26
1521,1.52
1533,1.76
1545,1.97
1557,2.13
1569,2.19
1581,2.05
1593,1.67
1605,1.1
1617,0.46
1629,-0.08
1641,-0.38
1653,-0.41
1665,-0.25
1676,-0.05
1687,0.1
1699,0.17
1711,0.26
1723,0.46
1735,0.81
1747,1.2
1759,1.48
1771,1.52
1783,1.3
1795,0.95
1807,0.67
1819,0.62
1831,0.84
1843,1.2
1855,1.51
1866,1.62
1877,1.5
1889,1.28
1901,1.15
1913,1.24
1925,1.56
1937,1.96
1949,2.24
1961,2.21
1973,1.87
1985,1.35
1997,0.81
2009,0.42
2021,0.2
2033,0.08
2045,-0.07
2056,-0.32
2067,-0.63
2079,-0.85
2091,-0.84
2103,-0.52
2115,0.05
2127,0.73
2139,1.35
2151,1.81
2163,2.14
2175,2.41
2187,2.7
2199,3.01
2211,3.27
2223,3.4
2235,3.38
2246,3.3
2257,3.28
2269,3.39
2281,3.6
2293,3.79
2305,3.81
2317,3.62
2329,3.25
2341,2.8
2353,2.35
2365,1.91
2377,1.44
2389,0.92
2401,0.38
2413,-0.1
2425,-0.49
2436,-0.88
2447,-1.38
2459,-2.12
2471,-3.07
2483,-4.06
2495,-4.82
2507,-5.11
2519,-4.87
2531,-4.21
2543,-3.34
2555,-2.48
2567,-1.78
2579,-1.28
2591,-0.97
2603,-0.81
2615,-0.78
2626,-0.88
2637,-1.04
2649,-1.23
2661,-1.4
2673,-1.51
2685,-1.59
2697,-1.66
2709,-1.72
2721,-1.77
2733,-1.76
2745,-1.65
2757,-1.41
2769,-1.06
2781,-0.68
2793,-0.33
2805,-0.07
2816,0.08
2827,0.16
2839,0.26
2851,0.45
2863,0.75
2875,1.13
2887,1.54
2899,1.93
2911,2.3
2923,2.7
2935,3.23
2947,3.92
2959,4.73
2971,5.52
2983,6.11
2995,6.34
3006,6.16
3017,5.65
3029,4.96
3041,4.25
3053,3.65
3065,3.2
3077,2.88
3089,2.65
3101,2.47
3113,2.27
3125,2.01
3137,1.65
3149,1.18
3161,0.59
3173,-0.07
3185,-0.71
3196,-1.28
3207,-1.73
3219,-2.06
3231,-2.34
3243,-2.63
3255,-2.97
3267,-3.37
3279,-3.77
3291,-4.09
3303,-4.21
3315,-4.05
3327,-3.63
3339,-3.0
3351,-2.3
3363,-1.66
3375,-1.17
3386,-0.84
3397,-0.65
3409,-0.57
3421,-0.6
3433,-0.72
3445,-0.91
3457,-1.05
3469,-1.04
3481,-0.82
3493,-0.41
3505,0.03
3517,0.36
3529,0.46
3541,0.38
3553,0.25
3565,0.25
3576,0.45
3587,0.78
3599,1.05
3611,1.02
3623,0.59
3635,-0.21
3647,-1.15
3659,-1.94
3671,-2.3
3683,-2.15
3695,-1.55
3707,-0.76
3719,-0.01
3731,0.53
3743,0.82
3755,0.97
3766,1.08
3777,1.21
3789,1.33
3801,1.37
3813,1.31
3825,1.22
3837,1.23
3849,1.43
3861,1.82
3873,2.27
3885,2.61
3897,2.7
3909,2.55
3921,2.24
3933,1.9
3945,1.58
3956,1.19
3967,0.62
3979,-0.15
3991,-1.02
4003,-1.76
4015,-2.12
4027,-2.0
4039,-1.46
4051,-0.8
4063,-0.31
4075,-0.18
4087,-0.42
4099,-0.83
4111,-1.18
4123,-1.29
4135,-1.15
4146,-0.87
4157,-0.6
4169,-0.45
4181,-0.47
4193,-0.59
4205,-0.75
4217,-0.92
4229,-1.08
4241,-1.22
4253,-1.32
4265,-1.34
4277,-1.26
4289,-1.11
4301,-0.97
4313,-0.93
4325,-1.0
4336,-1.15
4347,-1.35
4359,-1.58
4371,-1.86
4383,-2.22
4395,-2.65
4407,-3.09
4419,-3.44
4431,-3.67
4443,-3.76
4455,-3.74
4467,-3.63
4479,-3.36
4491,-2.91
4503,-2.24
4515,-1.45
4526,-0.71
4537,-0.18
4549,0.04
4561,0.01
4573,-0.12
4585,-0.2
4597,-0.15
4609,0.02
4621,0.2
4633,0.31
4645,0.28
4657,0.09
4669,-0.24
4681,-0.64
4693,-1.02
4705,-1.3
4716,-1.44
4727,-1.44
4739,-1.38
4751,-1.33
4763,-1.34
4775,-1.35
4787,-1.31
4799,-1.11
4811,-0.78
4823,-0.37
4835,-0.01
4847,0.24
4859,0.35
4871,0.4
4883,0.44
4895,0.5
4906,0.58
4917,0.62
4929,0.6
4941,0.52
4953,0.4
4965,0.24
4977,0.06
4989,-0.17
5001,-0.44
5013,-0.73
5025,-0.99
5037,-1.19
5049,-1.29
5061,-1.34
5073,-1.35
5085,-1.39
5096,-1.5
5107,-1.71
5119,-1.99
5131,-2.26
5143,-2.42
5155,-2.38
5167,-2.12
5179,-1.67
5191,-1.16
5203,-0.69
5215,-0.32
5227,-0.06
5239,0.1
5251,0.21
5263,0.27
5275,0.27
5286,0.22
5297,0.16
5309,0.18
5321,0.38
5333,0.8
5345,1.44
5357,2.24
5369,3.1
5381,3.88
5393,4.43
5405,4.58
5417,4.22
5429,3.31
5441,1.98
5453,0.46
5465,-0.93
5476,-1.92
5487,-2.35
5499,-2.23
5511,-1.76
5523,-1.18
5535,-0.72
5547,-0.52
5559,-0.56
5571,-0.74
5583,-0.88
5595,-0.86
5607,-0.67
5619,-0.41
5631,-0.19
5643,-0.11
5655,-0.14
5666,-0.21
5677,-0.19
5689,-0.05
5701,0.19
5713,0.47
5725,0.74
5737,1.01
5749,1.32
5761,1.66
5773,1.96
5785,2.1
5797,1.97
5809,1.55
5821,0.89
5833,0.16
5845,-0.49
5856,-0.9
5867,-1.04
5879,-0.96
5891,-0.77
5903,-0.61
5915,-0.52
5927,-0.5
5939,-0.49
5951,-0.43
5963,-0.3
5975,-0.16
5987,-0.12
5999,-0.27
6011,-0.62
6023,-1.11
6035,-1.63
6046,-2.08
6057,-2.45
6069,-2.78
6081,-3.11
6093,-3.5
6105,-3.92
6117,-4.32
6129,-4.63
6141,-4.79
6153,-4.81
6165,-4.71
6177,-4.56
6189,-4.46
6201,-4.47
6213,-4.64
6225,-4.98
6236,-5.45
6247,-5.95
6259,-6.38
6271,-6.62
6283,-6.62
6295,-6.37
6307,-5.9
6319,-5.3
6331,-4.62
6343,-3.92
6355,-3.2
6367,-2.45
6379,-1.69
6391,-0.97
6403,-0.37
6415,0.05
6426,0.26
6437,0.31
6449,0.29
6461,0.3
6473,0.38
6485,0.55
6497,0.77
6509,1.01
6521,1.27
6533,1.51
6545,1.7
6557,1.81
6569,1.78
6581,1.63
6593,1.4
6605,1.17
6616,1.04
6627,1.09
6639,1.29
6651,1.59
6663,1.89
6675,2.11
6687,2.23
6699,2.35
6711,2.59
6723,3.09
6735,3.89
6747,4.95
6759,6.11
6771,7.21
6783,8.15
6795,8.95
6806,9.7
6817,10.49
6829,11.33
6841,12.18
6853,12.98
6865,13.74
6877,14.56
6889,15.63
6901,17.17
6913,19.29
6925,21.94
6937,24.89
6949,27.83
6961,30.49
6973,32.77
6985,34.81
6996,36.94
7007,39.57
7019,42.95
7031,47.09
7043,51.74
7055,56.51
7067,61.05
7079,65.24
7091,69.23
7103,73.29
7115,77.65
7127,82.35
7139,87.27
7151,92.19
7163,96.86
7175,100.93
7186,103.78
7197,104.38
7209,101.34
7221,93.37
7233,79.83
7245,61.26
7257,39.43
7269,16.93
7281,-3.63
7293,-20.34
7305,-32.39
7317,-39.98
7329,-43.78
7341,-44.59
7353,-43.1
7365,-40.11
7376,-36.86
7387,-34.97
7399,-36.06
7411,-41.06
7423,-49.59
7435,-59.98
7447,-69.84
7459,-77.06
7471,-80.7
7483,-81.23
7495,-80.25
7507,-79.56
7519,-80.42
7531,-83.17
7543,-87.29
7555,-91.96
7566,-96.49
7577,-100.55
7589,-104.23
7601,-107.74
7613,-111.07
7625,-113.7
7637,-114.58
7649,-112.43
7661,-106.33
7673,-96.21
7685,-83.04
7697,-68.47
7709,-54.18
7721,-41.29
7733,-30.06
7745,-20.23
7756,-11.46
7767,-3.81
7779,2.32
7791,6.46
7803,8.52
7815,8.96
7827,8.63
7839,8.36
7851,8.55
7863,9.13
7875,9.69
7887,9.83
7899,9.37
7911,8.35
7923,7.12
7935,6.03
7946,5.36
7957,5.18
7969,5.34
7981,5.61
7993,5.74
8005,5.6
8017,5.15
8029,4.49
8041,3.71
8053,2.92
8065,2.13
8077,1.3
8089,0.4
8101,-0.63
8113,-1.77
8125,-2.98
8136,-4.17
8147,-5.31
8159,-6.38
8171,-7.45
8183,-8.62
8195,-10.05
8207,-11.79
8219,-13.85
8231,-16.15
8243,-18.56
8255,-20.97
8267,-23.24
8279,-25.23
8291,-26.76
8303,-27.62
8315,-27.63
8326,-26.72
8337,-24.97
8349,-22.59
8361,-19.86
8373,-17.07
8385,-14.37
8397,-11.78
8409,-9.21
8421,-6.5
8433,-3.58
8445,-0.46
8457,2.72
8469,5.78
8481,8.57
8493,11.05
8505,13.31
8516,15.49
8527,17.7
8539,19.94
8551,22.1
8563,24.03
8575,25.64
8587,26.93
8599,28.01
8611,29.01
8623,29.99
8635,30.88
8647,31.51
8659,31.71
8671,31.42
8683,30.72
8695,29.83
8706,29.0
8717,28.44
8729,28.26
8741,28.43
8753,28.89
8765,29.5
8777,30.13
8789,30.68
8801,31.08
8813,31.31
8825,31.41
8837,31.46
8849,31.59
8861,31.94
8873,32.59
8885,33.58
8896,34.88
8907,36.43
8919,38.14
8931,39.92
8943,41.66
8955,43.29
8967,44.72
8979,45.86
8991,46.59
9003,46.75
9015,46.16
9027,44.57
9039,41.74
9051,37.51
9063,31.9
9075,25.14
9086,17.67
9097,10.05
9109,2.79
9121,-3.76
9133,-9.46
9145,-14.29
9157,-18.3
9169,-21.47
9181,-23.67
9193,-24.75
9205,-24.59
9217,-23.18
9229,-20.64
9241,-17.2
9253,-13.14
9265,-8.75
9276,-4.3
9287,-0.07
9299,3.7
9311,6.86
9323,9.39
9335,11.42
9347,13.24
9359,15.16
9371,17.45
9383,20.25
9395,23.64
9407,27.57
9419,31.97
9431,36.59
9443,41.01
9455,44.62
9466,46.85
9477,47.42
9489,46.53
9501,44.81
9513,43.1
9525,41.99
9537,41.61
9549,41.65
9561,41.53
9573,40.74
9585,38.99
9597,36.21
9609,32.47
9621,27.77
9633,22.03
9645,15.19
9656,7.38
9667,-1.02
9679,-9.41
9691,-17.07
9703,-23.35
9715,-27.87
9727,-30.57
9739,-31.68
9751,-31.58
9763,-30.66
9775,-29.22
9787,-27.46
9799,-25.66
9811,-24.17
9823,-23.4
9835,-23.66
9846,-25.03
9857,-27.35
9869,-30.32
9881,-33.74
9893,-37.46
9905,-41.45
9917,-45.59
9929,-49.66
9941,-53.42
9953,-56.82
9965,-60.13
9977,-63.81
9989,-68.24
10001,-73.36
10013,-78.54
10025,-82.78
10036,-85.15
10047,-85.32
10059,-83.67
10071,-81.11
10083,-78.54
10095,-76.34
10107,-74.12
10119,-71.1
10131,-66.55
10143,-60.37
10155,-53.09
10167,-45.59
10179,-38.57
10191,-32.19
10203,-26.13
10215,-19.94
10226,-13.54
10237,-7.38
10249,-2.21
10261,1.3
10273,2.97
10285,3.16
10297,2.53
10309,1.64
10321,0.72
10333,-0.43
10345,-2.24
10357,-5.05
10369,-8.92
10381,-13.56
10393,-18.39
10405,-22.69
10416,-25.86
10427,-27.52
10439,-27.61
10451,-26.33
10463,-24.01
10475,-21.01
10487,-17.57
10499,-13.85
10511,-9.88
10523,-5.66
10535,-1.26
10547,3.19
10559,7.52
10571,11.55
10583,15.14
10595,18.29
10606,21.11
10617,23.81
10629,26.63
10641,29.75
10653,33.22
10665,37.01
10677,40.98
10689,44.97
10701,48.88
10713,52.73
10725,56.61
10737,60.7
10749,65.13
10761,69.92
10773,74.88
10785,79.65
10796,83.76
10807,86.79
10819,88.41
10831,88.41
10843,86.67
10855,83.13
10867,77.76
10879,70.64
10891,61.96
10903,52.03
10915,41.16
10927,29.59
10939,17.49
10951,5.04
10963,-7.47
10975,-19.53
10986,-30.55
10997,-40.04
11009,-47.83
11021,-54.14
11033,-59.4
11045,-63.99
11057,-67.98
11069,-71.06
11081,-72.79
11093,-72.82
11105,-71.16
11117,-68.14
11129,-64.25
11141,-59.94
11153,-55.44
11165,-50.76
11176,-45.86
11187,-40.7
11199,-35.39
11211,-30.14
11223,-25.23
11235,-20.89
11247,-17.27
11259,-14.31
11271,-11.86
11283,-9.6
11295,-7.31
11307,-4.87
11319,-2.36
11331,0.02
11343,2.12
11355,3.9
11366,5.54
11377,7.25
11389,9.2
11401,11.33
11413,13.39
11425,15.07
11437,16.12
11449,16.56
11461,16.55
11473,16.39
11485,16.3
11497,16.43
11509,16.81
11521,17.48
11533,18.49
11545,19.87
11556,21.65
11567,23.74
11579,25.97
11591,28.13
11603,29.99
11615,31.37
11627,32.13
11639,32.19
11651,31.54
11663,30.26
11675,28.56
11687,26.74
11699,25.12
11711,23.98
11723,23.36
11735,23.14
11746,23.04
11757,22.77
11769,22.13
11781,21.1
11793,19.74
11805,18.1
11817,16.17
11829,13.87
11841,11.25
11853,8.56
11865,6.29
11877,4.99
11889,4.94
11901,5.98
11913,7.44
11925,8.52
11936,8.76
11947,8.27
11959,7.74
11971,8.0
11983,9.47
11995,11.92
12007,14.59
12019,16.62
12031,17.61
12043,17.84
12055,18.1
12067,19.24
12079,21.66
12091,25.18
12103,29.16
12115,32.9
12126,35.89
12137,37.81
12149,38.34
12161,36.9
12173,32.81
12185,25.72
12197,16.14
12209,5.68
12221,-3.38
12233,-9.1
12245,-10.88
12257,-9.94
12269,-8.89
12281,-10.5
12293,-16.37
12305,-26.21
12316,-38.07
12327,-49.39
12339,-58.16
12351,-63.56
12363,-65.83
12375,-65.58
12387,-63.15
12399,-58.39
12411,-50.96
12423,-40.93
12435,-29.11
12447,-16.92
12459,-5.85
12471,3.16
12483,10.01
12495,15.33
12506,19.99
12517,24.54
12529,28.89
12541,32.44
12553,34.39
12565,34.31
12577,32.38
12589,29.41
12601,26.45
12613,24.34
12625,23.37
12637,23.17
12649,22.94
12661,21.72
12673,18.77
12685,13.78
12696,6.97
12707,-1.07
12719,-9.49
12731,-17.4
12743,-23.99
12755,-28.7
12767,-31.23
12779,-31.48
12791,-29.55
12803,-25.53
12815,-19.5
12827,-11.55
12839,-1.82
12851,9.38
12863,21.47
12875,33.58
12886,44.52
12897,52.96
12909,57.63
12921,57.64
12933,52.75
12945,43.51
12957,31.19
12969,17.51
12981,4.23
12993,-7.21
13005,-16.02
13017,-22.07
13029,-25.81
13041,-28.0
13053,-29.47
13065,-31.02
13076,-33.28
13087,-36.71
13099,-41.57
13111,-47.74
13123,-54.72
13135,-61.68
13147,-67.68
13159,-71.99
13171,-74.32
13183,-74.89
13195,-74.35
13207,-73.44
13219,-72.64
13231,-71.94
13243,-70.79
13255,-68.26
13266,-63.46
13277,-55.91
13289,-45.85
13301,-34.25
13313,-22.55
13325,-12.15
13337,-4.04
13349,1.51
13361,4.82
13373,6.53
13385,7.16
13397,6.88
13409,5.48
13421,2.6
13433,-2.03
13445,-8.43
13456,-16.54
13467,-26.35
13479,-37.83
13491,-50.42
13503,-62.5
13515,-71.4
13527,-74.23
13539,-69.29
13551,-57.21
13563,-41.0
13575,-24.89
13587,-12.35
13599,-4.71
13611,-0.88
13623,1.47
13635,4.28
13646,8.05
13657,11.87
13669,14.52
13681,15.46
13693,15.27
13705,15.14
13717,15.93
13729,17.56
13741,19.1
13753,19.34
13765,17.45
13777,13.48
13789,8.4
13801,3.56
13813,0.17
13825,-1.16
13836,-0.57
13847,1.28
13859,3.51
13871,5.51
13883,7.03
13895,8.23
13907,9.4
13919,10.79
13931,12.38
13943,13.97
13955,15.24
13967,15.93
13979,15.97
13991,15.52
14003,14.86
14015,14.27
14026,13.91
14037,13.78
14049,13.76
14061,13.71
14073,13.54
14085,13.22
14097,12.77
14109,12.16
14121,11.22
14133,9.78
14145,7.72
14157,5.13
14169,2.32
14181,-0.27
14193,-2.23
14205,-3.36
14216,-3.68
14227,-3.41
14239,-2.8
14251,-2.04
14263,-1.22
14275,-0.41
14287,0.34
14299,0.97
14311,1.46
14323,1.87
14335,2.33
14347,3.0
14359,3.93
14371,5.04
14383,6.15
14395,7.06
14406,7.69
14417,8.09
14429,8.46
14441,8.97
14453,9.74
14465,10.75
14477,11.84
14489,12.82
14501,13.56
14513,14.07
14525,14.48
14537,14.98
14549,15.77
14561,16.95
14573,18.49
14585,20.32
14596,22.28
14607,24.24
14619,26.02
14631,27.48
14643,28.5
14655,28.99
14667,28.95
14679,28.47
14691,27.69
14703,26.75
14715,25.7
14727,24.48
14739,22.88
14751,20.65
14763,17.61
14775,13.71
14786,9.06
14797,3.91
14809,-1.43
14821,-6.77
14833,-12.06
14845,-17.37
14857,-22.81
14869,-28.36
14881,-33.75
14893,-38.6
14905,-42.45
14917,-45.02
14929,-46.28
14941,-46.37
14953,-45.53
14965,-43.9
14976,-41.47
14987,-38.19
14999,-34.05
15011,-29.19
15023,-23.92
15035,-18.64
15047,-13.76
15059,-9.55
15071,-6.11
15083,-3.4
15095,-1.23
15107,0.65
15119,2.41
15131,4.1
15143,5.62
15155,6.85
15166,7.72
15177,8.28
15189,8.7
15201,9.12
15213,9.54
15225,9.82
15237,9.79
15249,9.36
15261,8.64
15273,7.89
15285,7.37
15297,7.25
15309,7.53
15321,8.12
15333,8.87
15345,9.68
15356,10.52
15367,11.4
15379,12.3
15391,13.21
15403,14.15
15415,15.12
15427,16.19
15439,17.47
15451,19.02
15463,20.85
15475,22.89
15487,25.03
15499,27.23
15511,29.52
15523,32.04
15535,34.95
15546,38.37
15557,42.25
15569,46.43
15581,50.65
15593,54.66
15605,58.22
15617,61.17
15629,63.3
15641,64.39
15653,64.2
15665,62.58
15677,59.44
15689,54.69
15701,48.25
15713,40.06
15725,30.18
15736,18.97
15747,7.03
15759,-4.84
15771,-15.87
15783,-25.49
15795,-33.47
15807,-39.86
15819,-44.92
15831,-49.03
15843,-52.62
15855,-56.06
15867,-59.52
15879,-62.77
15891,-65.18
15903,-65.81
15915,-63.88
15926,-59.09
15937,-51.71
15949,-42.38
15961,-31.75
15973,-20.28
15985,-8.24
15997,3.96
16009,15.54
16021,25.33
16033,32.13
16045,35.25
16057,34.86
16069,31.95
16081,27.88
16093,23.77
16105,20.16
16116,17.03
16127,14.17
16139,11.53
16151,9.44
16163,8.44
16175,9.03
16187,11.38
16199,15.24
16211,20.0
16223,24.88
16235,29.07
16247,31.91
16259,32.93
16271,31.91
16283,29.01
16295,24.73
16306,19.91
16317,15.47
16329,12.24
16341,10.64
16353,10.51
16365,11.18
16377,11.6
16389,10.77
16401,8.17
16413,4.04
16425,-0.64
16437,-4.52
16449,-6.47
16461,-6.08
16473,-3.88
16485,-1.13
16496,0.78
16507,0.85
16519,-1.13
16531,-4.7
16543,-8.98
16555,-13.14
16567,-16.63
16579,-19.24
16591,-21.0
16603,-22.08
16615,-22.77
16627,-23.46
16639,-24.51
16651,-26.11
16663,-28.17
16675,-30.17
16686,-31.28
16697,-30.53
16709,-27.11
16721,-20.69
16733,-11.59
16745,-0.86
16757,9.93
16769,18.99
16781,24.82
16793,26.69
16805,24.88
16817,20.64
16829,15.71
16841,11.72
16853,9.66
16865,9.72
16876,11.44
16887,14.07
16899,16.92
16911,19.4
16923,21.04
16935,21.43
16947,20.2
16959,17.2
16971,12.69
16983,7.44
16995,2.5
17007,-1.08
17019,-2.66
17031,-2.21
17043,-0.27
17055,2.39
17066,5.15
17077,7.67
17089,9.97
17101,12.1
17113,13.99
17125,15.27
17137,15.48
17149,14.3
17161,11.84
17173,8.63
17185,5.47
17197,3.05
17209,1.68
17221,1.11
17233,0.7
17245,-0.23
17256,-2.09
17267,-4.9
17279,-8.44
17291,-12.48
17303,-16.94
17315,-21.93
17327,-27.54
17339,-33.75
17351,-40.39
17363,-47.25
17375,-54.18
17387,-61.15
17399,-68.03
17411,-74.44
17423,-79.62
17435,-82.54
17446,-82.2
17457,-78.01
17469,-70.04
17481,-59.07
17493,-46.34
17505,-33.23
17517,-20.9
17529,-10.08
17541,-0.97
17553,6.64
17565,13.0
17577,18.26
17589,22.24
17601,24.52
17613,24.7
17625,22.67
17636,18.72
17647,13.55
17659,8.03
17671,2.97
17683,-1.03
17695,-3.61
17707,-4.75
17719,-4.68
17731,-3.85
17743,-2.88
17755,-2.32
17767,-2.45
17779,-3.12
17791,-3.73
17803,-3.59
17815,-2.34
17826,-0.29
17837,1.64
17849,2.38
17861,1.3
17873,-1.42
17885,-4.82
17897,-7.72
17909,-9.25
17921,-9.2
17933,-7.96
17945,-6.09
17957,-4.0
17969,-1.74
17981,0.77
17993,3.48
18005,6.01
18016,7.64
18027,7.63
18039,5.46
18051,1.08
18063,-5.05
18075,-12.03
18087,-18.73
18099,-24.01
18111,-27.01
18123,-27.33
18135,-25.12
18147,-21.03
18159,-16.02
18171,-11.15
18183,-7.3
18195,-5.05
18206,-4.52
18217,-5.43
18229,-7.22
18241,-9.2
18253,-10.8
18265,-11.71
18277,-11.94
18289,-11.73
18301,-11.41
18313,-11.25
18325,-11.37
18337,-11.78
18349,-12.4
18361,-13.13
18373,-13.8
18385,-14.21
18396,-14.06
18407,-12.99
18419,-10.79
18431,-7.45
18443,-3.28
18455,1.27
18467,5.84
18479,10.37
18491,15.0
18503,19.97
18515,25.22
18527,30.31
18539,34.45
18551,36.89
18563,37.2
18575,35.52
18586,32.4
18597,28.57
18609,24.59
18621,20.71
18633,16.99
18645,13.51
18657,10.51
18669,8.32
18681,7.26
18693,7.37
18705,8.34
18717,9.63
18729,10.73
18741,11.34
18753,11.55
18765,11.71
18776,12.24
18787,13.4
18799,15.16
18811,17.2
18823,19.02
18835,20.14
18847,20.23
18859,19.25
18871,17.44
18883,15.29
18895,13.26
18907,11.55
18919,10.07
18931,8.53
18943,6.69
18955,4.66
18966,2.87
18977,1.88
18989,2.11
19001,3.69
19013,6.47
19025,10.33
19037,15.35
19049,21.76
19061,29.64
19073,38.6
19085,47.62
19097,55.35
19109,60.62
19121,62.96
19133,62.7
19145,60.85
19156,58.52
19167,56.58
19179,55.46
19191,55.25
19203,55.93
19215,57.56
19227,60.3
19239,64.19
19251,68.96
19263,73.96
19275,78.23
19287,80.8
19299,80.93
19311,78.27
19323,72.94
19335,65.42
19346,56.36
19357,46.43
19369,36.11
19381,25.69
19393,15.25
19405,4.75
19417,-5.87
19429,-16.6
19441,-27.32
19453,-37.85
19465,-47.92
19477,-57.18
19489,-65.19
19501,-71.52
19513,-75.87
19525,-78.11
19536,-78.3
19547,-76.62
19559,-73.3
19571,-68.63
19583,-63.0
19595,-56.88
19607,-50.75
19619,-44.97
19631,-39.65
19643,-34.83
19655,-30.6
19667,-27.28
19679,-25.36
19691,-25.26
19703,-27.01
19715,-30.12
19726,-33.66
19737,-36.68
19749,-38.66
19761,-39.66
19773,-40.21
19785,-40.94
19797,-42.22
19809,-43.98
19821,-45.78
19833,-47.06
19845,-47.37
19857,-46.51
19869,-44.54
19881,-41.68
19893,-38.15
19905,-34.08
19916,-29.56
19927,-24.69
19939,-19.66
19951,-14.81
19963,-10.52
19975,-7.15
19987,-4.86
19999,-3.66
20011,-3.37
20023,-3.7
20035,-4.44
20047,-5.43
20059,-6.54
20071,-7.71
20083,-8.79
20095,-9.6
20106,-9.95
20117,-9.7
20129,-8.83
20141,-7.43
20153,-5.67
20165,-3.78
20177,-2.05
20189,-0.81
20201,-0.39
20213,-1.02
20225,-2.7
20237,-5.13
20249,-7.79
20261,-10.13
20273,-11.74
20285,-12.55
20296,-12.72
20307,-12.53
20319,-12.21
20331,-11.85
20343,-11.42
20355,-10.77
20367,-9.7
20379,-8.0
20391,-5.49
20403,-2.14
20415,1.77
20427,5.59
20439,8.44
20451,9.43
20463,8.08
20475,4.55
20486,-0.29
20497,-5.15
20509,-8.7
20521,-10.06
20533,-9.08
20545,-6.29
20557,-2.72
20569,0.4
20581,1.9
20593,0.89
20605,-3.04
20617,-9.58
20629,-17.53
20641,-24.99
20653,-29.74
20665,-30.02
20676,-25.13
20687,-15.7
20699,-3.46
20711,9.47
20723,21.22
20735,30.59
20747,36.89
20759,39.86
20771,39.28
20783,35.11
20795,27.73
20807,17.96
20819,6.98
20831,-4.08
20843,-14.38
20855,-23.4
20866,-30.76
20877,-36.09
20889,-39.06
20901,-39.58
20913,-37.98
20925,-34.96
20937,-31.33
20949,-27.59
20961,-23.83
20973,-19.81
20985,-15.34
20997,-10.59
