seconds,BVP
6,14.96
18,13.83
30,13.11
41,12.77
52,12.79
64,13.15
76,13.86
88,14.91
100,16.19
112,17.46
124,18.47
136,18.96
148,18.82
160,18.07
172,16.87
184,15.42
196,13.93
208,12.46
220,10.97
231,9.34
242,7.41
254,5.05
266,2.31
278,-0.63
290,-3.47
302,-5.93
314,-7.88
326,-9.42
338,-10.89
350,-12.75
362,-15.45
374,-19.23
386,-24.06
398,-29.49
410,-34.79
421,-39.03
432,-41.31
444,-41.06
456,-38.1
468,-32.82
480,-25.95
492,-18.44
504,-11.14
516,-4.63
528,0.81
540,5.15
552,8.51
564,11.01
576,12.77
588,13.85
600,14.35
611,14.41
622,14.24
634,14.08
646,14.1
658,14.4
670,14.94
682,15.59
694,16.23
706,16.8
718,17.28
730,17.71
742,18.08
754,18.31
766,18.26
778,17.81
790,16.9
801,15.59
812,14.0
824,12.24
836,10.37
848,8.37
860,6.22
872,3.9
884,1.4
896,-1.22
908,-3.9
920,-6.54
932,-9.03
944,-11.28
956,-13.24
968,-14.91
980,-16.35
991,-17.69
1002,-19.05
1014,-20.63
1026,-22.59
1038,-25.04
1050,-27.88
1062,-30.76
1074,-33.07
1086,-34.07
1098,-33.16
1110,-30.08
1122,-25.04
1134,-18.65
1146,-11.67
1158,-4.86
1170,1.27
1181,6.45
1192,10.64
1204,13.87
1216,16.2
1228,17.66
1240,18.3
1252,18.23
1264,17.67
1276,16.91
1288,16.23
1300,15.83
1312,15.71
1324,15.76
1336,15.77
1348,15.61
1360,15.28
1371,14.94
1382,14.77
1394,14.92
1406,15.33
1418,15.77
1430,15.9
1442,15.45
1454,14.27
1466,12.49
1478,10.36
1490,8.21
1502,6.24
1514,4.51
1526,2.9
1538,1.24
1550,-0.62
1561,-2.69
1572,-4.85
1584,-6.96
1596,-8.84
1608,-10.44
1620,-11.77
1632,-12.92
1644,-14.0
1656,-15.15
1668,-16.51
1680,-18.18
1692,-20.27
1704,-22.72
1716,-25.29
1728,-27.56
1740,-28.94
1751,-28.9
1762,-27.08
1774,-23.49
1786,-18.44
1798,-12.5
1810,-6.27
1822,-0.26
1834,5.19
1846,9.87
1858,13.65
1870,16.43
1882,18.09
1894,18.6
1906,18.07
1918,16.79
1930,15.19
1941,13.73
1952,12.74
1964,12.34
1976,12.41
1988,12.72
2000,13.03
2012,13.25
2024,13.41
2036,13.63
2048,13.97
2060,14.44
2072,14.9
2084,15.18
2096,15.13
2108,14.63
2120,13.68
2131,12.36
2142,10.77
2154,9.08
2166,7.39
2178,5.75
2190,4.15
2202,2.51
2214,0.76
2226,-1.12
2238,-3.09
2250,-5.03
2262,-6.83
2274,-8.39
2286,-9.67
2298,-10.71
2310,-11.64
2321,-12.59
2332,-13.73
2344,-15.22
2356,-17.12
2368,-19.37
2380,-21.72
2392,-23.7
2404,-24.7
2416,-24.19
2428,-21.84
2440,-17.72
2452,-12.28
2464,-6.18
2476,-0.16
2488,5.21
2500,9.59
2511,12.83
2522,14.94
2534,15.91
2546,15.8
2558,14.74
2570,12.96
2582,10.84
2594,8.85
2606,7.36
2618,6.58
2630,6.53
2642,6.99
2654,7.74
2666,8.57
2678,9.42
2690,10.31
2701,11.28
2712,12.3
2724,13.26
2736,13.97
2748,14.24
2760,13.98
2772,13.21
2784,12.05
2796,10.7
2808,9.3
2820,7.91
2832,6.48
2844,4.94
2856,3.23
2868,1.39
2880,-0.46
2891,-2.19
2902,-3.69
2914,-4.96
2926,-6.06
2938,-7.17
2950,-8.49
2962,-10.24
2974,-12.6
2986,-15.61
2998,-19.11
3010,-22.72
3022,-25.84
3034,-27.86
3046,-28.27
3058,-26.85
3070,-23.68
3081,-19.11
3092,-13.64
3104,-7.8
3116,-2.09
3128,3.06
3140,7.32
3152,10.45
3164,12.35
3176,13.06
3188,12.77
3200,11.81
3212,10.54
3224,9.35
3236,8.49
3248,8.11
3260,8.23
3271,8.74
3282,9.48
3294,10.28
3306,11.02
3318,11.61
3330,11.99
3342,12.12
3354,11.97
3366,11.54
3378,10.81
3390,9.79
3402,8.49
3414,6.93
3426,5.14
3438,3.15
3450,1.01
3461,-1.24
3472,-3.53
3484,-5.77
3496,-7.86
3508,-9.71
3520,-11.32
3532,-12.79
3544,-14.36
3556,-16.28
3568,-18.74
3580,-21.73
3592,-24.94
3604,-27.82
3616,-29.73
3628,-30.04
3640,-28.37
3651,-24.63
3662,-19.13
3674,-12.48
3686,-5.44
3698,1.25
3710,7.03
3722,11.64
3734,15.03
3746,17.34
3758,18.7
3770,19.23
3782,19.02
3794,18.15
3806,16.82
3818,15.3
3830,13.87
3841,12.76
3852,12.08
3864,11.82
3876,11.88
3888,12.11
3900,12.42
3912,12.77
3924,13.15
3936,13.53
3948,13.88
3960,14.07
3972,13.93
3984,13.27
3996,11.94
4008,9.86
4020,7.07
4031,3.72
4042,0.05
4054,-3.71
4066,-7.35
4078,-10.74
4090,-13.8
4102,-16.54
4114,-19.01
4126,-21.28
4138,-23.51
4150,-25.86
4162,-28.43
4174,-31.17
4186,-33.75
4198,-35.61
4210,-36.07
4221,-34.53
4232,-30.7
4244,-24.77
4256,-17.33
4268,-9.25
4280,-1.4
4292,5.51
4304,11.09
4316,15.22
4328,17.97
4340,19.49
4352,19.94
4364,19.51
4376,18.43
4388,16.99
4400,15.52
4411,14.35
4422,13.62
4434,13.33
4446,13.31
4458,13.29
4470,13.11
4482,12.65
4494,12.0
4506,11.25
4518,10.53
4530,9.82
4542,9.02
4554,7.97
4566,6.47
4578,4.42
4590,1.82
4601,-1.18
4612,-4.33
4624,-7.33
4636,-9.91
4648,-11.88
4660,-13.22
4672,-14.07
4684,-14.69
4696,-15.38
4708,-16.4
4720,-17.84
4732,-19.56
4744,-21.19
4756,-22.22
4768,-22.1
4780,-20.45
4791,-17.15
4802,-12.44
4814,-6.79
4826,-0.82
4838,4.9
4850,9.97
4862,14.15
4874,17.3
4886,19.37
4898,20.35
4910,20.3
4922,19.41
4934,17.99
4946,16.41
4958,15.01
4970,14.0
4981,13.46
4992,13.29
5004,13.38
5016,13.6
5028,13.83
5040,14.02
5052,14.12
5064,14.07
5076,13.82
5088,13.31
5100,12.53
5112,11.49
5124,10.22
5136,8.75
5148,7.1
5160,5.23
5171,3.13
5182,0.77
5194,-1.78
5206,-4.41
5218,-6.95
5230,-9.23
5242,-11.15
5254,-12.71
5266,-14.04
5278,-15.33
5290,-16.82
5302,-18.69
5314,-21.04
5326,-23.78
5338,-26.64
5350,-29.14
5361,-30.72
5372,-30.88
5384,-29.28
5396,-25.88
5408,-20.91
5420,-14.83
5432,-8.18
5444,-1.51
5456,4.7
5468,10.07
5480,14.27
5492,17.06
5504,18.4
5516,18.42
5528,17.47
5540,16.01
5551,14.51
5562,13.3
5574,12.52
5586,12.14
5598,12.02
5610,12.05
5622,12.16
5634,12.36
5646,12.66
5658,13.02
5670,13.35
5682,13.52
5694,13.43
5706,12.98
5718,12.17
5730,11.02
5741,9.57
5752,7.89
5764,6.05
5776,4.15
5788,2.29
5800,0.56
5812,-1.04
5824,-2.59
5836,-4.23
5848,-6.09
5860,-8.11
5872,-10.06
5884,-11.52
5896,-12.11
5908,-11.6
5920,-10.07
5931,-7.92
5942,-5.74
5954,-4.08
5966,-3.27
5978,-3.27
5990,-3.74
6002,-4.07
6014,-3.67
6026,-2.1
6038,0.77
6050,4.75
6062,9.43
6074,14.26
6086,18.66
6098,22.18
6110,24.42
6121,25.15
6132,24.28
6144,21.86
6156,18.11
6168,13.43
6180,8.32
6192,3.26
6204,-1.36
6216,-5.31
6228,-8.57
6240,-11.3
6252,-13.67
6264,-15.76
6276,-17.52
6288,-18.73
6300,-19.2
6311,-18.87
6322,-18.0
6334,-17.05
6346,-16.59
6358,-17.02
6370,-18.42
6382,-20.51
6394,-22.82
6406,-24.89
6418,-26.51
6430,-27.69
6442,-28.63
6454,-29.46
6466,-30.12
6478,-30.43
6490,-30.18
6501,-29.35
6512,-28.11
6524,-26.82
6536,-25.77
6548,-25.11
6560,-24.7
6572,-24.28
6584,-23.46
6596,-21.95
6608,-19.55
6620,-16.22
6632,-12.02
6644,-7.16
6656,-1.91
6668,3.36
6680,8.33
6691,12.77
6702,16.58
6714,19.75
6726,22.38
6738,24.59
6750,26.55
6762,28.44
6774,30.49
6786,32.88
6798,35.68
6810,38.84
6822,42.14
6834,45.29
6846,48.02
6858,50.11
6870,51.42
6881,51.91
6892,51.58
6904,50.48
6916,48.72
6928,46.42
6940,43.69
6952,40.58
6964,37.14
6976,33.36
6988,29.35
7000,25.29
7012,21.43
7024,18.01
7036,15.19
7048,12.99
7060,11.42
7071,10.46
7082,10.16
7094,10.58
7106,11.71
7118,13.47
7130,15.63
7142,17.9
7154,19.92
7166,21.27
7178,21.47
7190,20.05
7202,16.7
7214,11.51
7226,5.16
7238,-1.13
7250,-5.98
7261,-8.26
7272,-7.54
7284,-4.21
7296,0.64
7308,5.68
7320,9.62
7332,11.52
7344,10.82
7356,7.32
7368,1.1
7380,-7.43
7392,-17.62
7404,-28.61
7416,-39.55
7428,-49.69
7440,-58.46
7451,-65.49
7462,-70.5
7474,-73.28
7486,-73.75
7498,-71.99
7510,-68.27
7522,-63.02
7534,-56.74
7546,-49.92
7558,-42.99
7570,-36.33
7582,-30.28
7594,-25.08
7606,-20.86
7618,-17.56
7630,-15.03
7641,-13.1
7652,-11.65
7664,-10.63
7676,-10.14
7688,-10.23
7700,-10.98
7712,-12.33
7724,-14.15
7736,-16.21
7748,-18.28
7760,-20.17
7772,-21.79
7784,-23.17
7796,-24.38
7808,-25.48
7820,-26.44
7831,-27.06
7842,-26.99
7854,-25.86
7866,-23.35
7878,-19.35
7890,-13.99
7902,-7.62
7914,-0.76
7926,6.03
7938,12.22
7950,17.44
7962,21.49
7974,24.35
7986,26.18
7998,27.27
8010,27.96
8021,28.56
8032,29.29
8044,30.19
8056,31.17
8068,31.99
8080,32.41
8092,32.24
8104,31.37
8116,29.79
8128,27.55
8140,24.78
8152,21.63
8164,18.32
8176,15.09
8188,12.15
8200,9.69
8211,7.74
8222,6.2
8234,4.88
8246,3.54
8258,2.02
8270,0.24
8282,-1.79
8294,-3.99
8306,-6.23
8318,-8.4
8330,-10.33
8342,-11.88
8354,-12.94
8366,-13.54
8378,-13.89
8390,-14.29
8401,-15.03
8412,-16.15
8424,-17.38
8436,-18.14
8448,-17.72
8460,-15.6
8472,-11.6
8484,-5.99
8496,0.68
8508,7.67
8520,14.31
8532,20.07
8544,24.63
8556,27.87
8568,29.81
8580,30.6
8591,30.5
8602,29.86
8614,29.09
8626,28.65
8638,28.97
8650,30.35
8662,32.84
8674,36.18
8686,39.75
8698,42.8
8710,44.56
8722,44.5
8734,42.46
8746,38.57
8758,33.17
8770,26.63
8781,19.33
8792,11.65
8804,4.1
8816,-2.8
8828,-8.56
8840,-13.0
8852,-16.3
8864,-18.97
8876,-21.58
8888,-24.44
8900,-27.44
8912,-30.06
8924,-31.66
8936,-31.81
8948,-30.48
8960,-28.11
8971,-25.33
8982,-22.75
8994,-20.65
9006,-18.94
9018,-17.25
9030,-15.0
9042,-11.72
9054,-7.12
9066,-1.21
9078,5.74
9090,13.33
9102,21.14
9114,28.86
9126,36.35
9138,43.58
9150,50.59
9161,57.33
9172,63.68
9184,69.41
9196,74.28
9208,78.19
9220,81.24
9232,83.67
9244,85.84
9256,87.98
9268,90.14
9280,92.09
9292,93.29
9304,92.92
9316,90.0
9328,83.49
9340,72.55
9351,56.82
9362,36.66
9374,13.11
9386,-12.21
9398,-37.52
9410,-61.2
9422,-82.06
9434,-99.37
9446,-112.74
9458,-121.98
9470,-126.96
9482,-127.69
9494,-124.37
9506,-117.47
9518,-107.81
9530,-96.39
9541,-84.24
9552,-72.2
9564,-60.83
9576,-50.52
9588,-41.69
9600,-34.99
9612,-31.27
9624,-31.3
9636,-35.32
9648,-42.69
9660,-51.84
9672,-60.67
9684,-67.16
9696,-70.02
9708,-68.91
9720,-64.44
9731,-57.63
9742,-49.58
9754,-41.11
9766,-32.72
9778,-24.76
9790,-17.56
9802,-11.52
9814,-7.03
9826,-4.29
9838,-3.2
9850,-3.33
9862,-4.04
9874,-4.69
9886,-4.83
9898,-4.27
9910,-3.12
9921,-1.6
9932,0.04
9944,1.65
9956,3.18
9968,4.66
9980,6.1
9992,7.47
10004,8.64
10016,9.46
10028,9.79
10040,9.56
10052,8.79
10064,7.62
10076,6.25
10088,4.89
10100,3.68
10111,2.62
10122,1.59
10134,0.41
10146,-1.04
10158,-2.7
10170,-4.36
10182,-5.74
10194,-6.64
10206,-7.09
10218,-7.36
10230,-7.8
10242,-8.71
10254,-10.23
10266,-12.37
10278,-14.99
10290,-17.93
10301,-20.93
10312,-23.59
10324,-25.34
10336,-25.57
10348,-23.78
10360,-19.82
10372,-13.96
10384,-6.87
10396,0.64
10408,7.79
10420,14.02
10432,18.98
10444,22.54
10456,24.67
10468,25.48
10480,25.15
10491,23.98
10502,22.29
10514,20.44
10526,18.76
10538,17.52
10550,16.84
10562,16.71
10574,17.03
10586,17.66
10598,18.51
10610,19.55
10622,20.77
10634,22.14
10646,23.55
10658,24.78
10670,25.64
10681,26.0
10692,25.86
10704,25.32
10716,24.53
10728,23.6
10740,22.6
10752,21.51
10764,20.33
10776,19.0
10788,17.48
10800,15.7
10812,13.69
10824,11.58
10836,9.6
10848,8.05
10860,7.16
10871,6.98
10882,7.32
10894,7.74
10906,7.66
10918,6.54
10930,4.07
10942,0.33
10954,-4.15
10966,-8.52
10978,-11.76
10990,-13.08
11002,-12.05
11014,-8.81
11026,-3.93
11038,1.76
11050,7.43
11061,12.45
11072,16.44
11084,19.26
11096,20.91
11108,21.5
11120,21.18
11132,20.2
11144,18.89
11156,17.58
11168,16.57
11180,16.01
11192,15.89
11204,15.98
11216,16.01
11228,15.73
11240,15.05
11251,14.04
11262,12.94
11274,11.99
11286,11.28
11298,10.69
11310,9.95
11322,8.73
11334,6.85
11346,4.39
11358,1.62
11370,-1.09
11382,-3.45
11394,-5.39
11406,-7.01
11418,-8.51
11430,-10.06
11441,-11.69
11452,-13.36
11464,-14.97
11476,-16.45
11488,-17.8
11500,-19.03
11512,-20.17
11524,-21.25
11536,-22.26
11548,-23.28
11560,-24.4
11572,-25.83
11584,-27.79
11596,-30.42
11608,-33.57
11620,-36.72
11631,-39.04
11642,-39.55
11654,-37.53
11666,-32.77
11678,-25.69
11690,-17.12
11702,-8.12
11714,0.45
11726,8.01
11738,14.28
11750,19.14
11762,22.55
11774,24.44
11786,24.9
11798,24.14
11810,22.58
11821,20.69
11832,18.92
11844,17.55
11856,16.7
11868,16.34
11880,16.35
11892,16.59
11904,16.89
11916,17.11
11928,17.14
11940,16.99
11952,16.69
11964,16.35
11976,15.98
11988,15.57
12000,15.01
12011,14.19
12022,13.01
12034,11.47
12046,9.61
12058,7.49
12070,5.22
12082,2.95
12094,0.85
12106,-0.89
12118,-2.18
12130,-3.09
12142,-3.81
12154,-4.63
12166,-5.79
12178,-7.37
12190,-9.27
12201,-11.32
12212,-13.33
12224,-15.17
12236,-16.81
12248,-18.3
12260,-19.72
12272,-21.17
12284,-22.85
12296,-24.93
12308,-27.53
12320,-30.61
12332,-33.82
12344,-36.53
12356,-37.93
12368,-37.27
12380,-34.15
12391,-28.62
12402,-21.24
12414,-12.89
12426,-4.51
12438,3.16
12450,9.63
12462,14.72
12474,18.43
12486,20.81
12498,21.96
12510,22.02
12522,21.18
12534,19.77
12546,18.17
12558,16.71
12570,15.61
12581,14.98
12592,14.77
12604,14.89
12616,15.25
12628,15.78
12640,16.43
12652,17.17
12664,17.95
12676,18.65
12688,19.15
12700,19.31
12712,18.98
12724,18.11
12736,16.75
12748,15.06
12760,13.26
12771,11.55
12782,10.02
12794,8.67
12806,7.4
12818,6.08
12830,4.67
12842,3.12
12854,1.49
12866,-0.17
12878,-1.84
12890,-3.52
12902,-5.21
12914,-6.9
12926,-8.53
12938,-10.04
12950,-11.37
12961,-12.54
12972,-13.65
12984,-14.83
12996,-16.23
13008,-17.94
13020,-20.0
13032,-22.42
13044,-25.13
13056,-28.01
13068,-30.76
13080,-32.89
13092,-33.8
13104,-32.95
13116,-30.07
13128,-25.28
13140,-19.06
13151,-12.1
13162,-5.06
13174,1.52
13186,7.29
13198,12.04
13210,15.61
13222,17.9
13234,18.96
13246,19.01
13258,18.38
13270,17.46
13282,16.52
13294,15.73
13306,15.09
13318,14.62
13330,14.36
13341,14.4
13352,14.86
13364,15.76
13376,16.99
13388,18.35
13400,19.59
13412,20.47
13424,20.88
13436,20.81
13448,20.33
13460,19.54
13472,18.5
13484,17.22
13496,15.67
13508,13.81
13520,11.61
13531,9.1
13542,6.39
13554,3.63
13566,1.0
13578,-1.32
13590,-3.24
13602,-4.75
13614,-5.95
13626,-6.97
13638,-7.95
13650,-8.96
13662,-10.01
13674,-11.07
13686,-12.11
13698,-13.16
13710,-14.38
13721,-15.9
13732,-17.86
13744,-20.27
13756,-22.93
13768,-25.44
13780,-27.21
13792,-27.61
13804,-26.14
13816,-22.6
13828,-17.21
13840,-10.53
13852,-3.29
13864,3.79
13876,10.2
13888,15.62
13900,19.85
13911,22.72
13922,24.05
13934,23.74
13946,21.89
13958,18.86
13970,15.23
13982,11.63
13994,8.54
14006,6.25
14018,4.82
14030,4.15
14042,4.09
14054,4.5
14066,5.26
14078,6.24
14090,7.34
14101,8.41
14112,9.3
14124,9.88
14136,10.04
14148,9.75
14160,9.1
14172,8.21
14184,7.23
14196,6.26
14208,5.3
14220,4.23
14232,2.95
14244,1.36
14256,-0.57
14268,-2.78
14280,-5.24
14291,-7.91
14302,-10.75
14314,-13.64
14326,-16.35
14338,-18.52
14350,-19.84
14362,-20.07
14374,-19.26
14386,-17.68
14398,-15.79
14410,-14.18
14422,-13.42
14434,-13.94
14446,-15.9
14458,-19.07
14470,-22.79
14481,-26.08
14492,-27.9
14504,-27.48
14516,-24.52
14528,-19.39
14540,-12.85
14552,-5.79
14564,1.1
14576,7.45
14588,13.17
14600,18.25
14612,22.59
14624,25.94
14636,28.06
14648,28.83
14660,28.4
14671,27.19
14682,25.7
14694,24.35
14706,23.31
14718,22.51
14730,21.76
14742,20.87
14754,19.81
14766,18.66
14778,17.52
14790,16.46
14802,15.46
14814,14.44
14826,13.33
14838,12.08
14850,10.69
14861,9.11
14872,7.22
14884,4.91
14896,2.12
14908,-1.09
14920,-4.55
14932,-8.03
14944,-11.34
14956,-14.37
14968,-17.12
14980,-19.68
14992,-22.15
15004,-24.59
15016,-26.99
15028,-29.27
15040,-31.37
15051,-33.25
15062,-34.96
15074,-36.64
15086,-38.4
15098,-40.38
15110,-42.66
15122,-45.3
15134,-48.33
15146,-51.68
15158,-55.12
15170,-58.06
15182,-59.69
15194,-59.11
15206,-55.68
15218,-49.29
15230,-40.42
15241,-30.05
15252,-19.32
15264,-9.18
15276,-0.28
15288,7.07
15300,12.77
15312,16.85
15324,19.36
15336,20.47
15348,20.48
15360,19.79
15372,18.87
15384,18.09
15396,17.7
15408,17.77
15420,18.21
15431,18.88
15442,19.59
15454,20.21
15466,20.63
15478,20.8
15490,20.68
15502,20.28
15514,19.6
15526,18.63
15538,17.37
15550,15.83
15562,14.03
15574,12.0
15586,9.85
15598,7.67
15610,5.56
15621,3.59
15632,1.8
15644,0.2
15656,-1.24
15668,-2.56
15680,-3.79
15692,-4.94
15704,-6.07
15716,-7.2
15728,-8.41
15740,-9.72
15752,-11.16
15764,-12.69
15776,-14.25
15788,-15.78
15800,-17.26
15811,-18.71
15822,-20.23
15834,-21.94
15846,-23.95
15858,-26.25
15870,-28.56
15882,-30.31
15894,-30.71
15906,-28.97
15918,-24.61
15930,-17.67
15942,-8.83
15954,0.86
15966,10.2
15978,18.27
15990,24.55
16001,28.97
16012,31.7
16024,32.95
16036,32.89
16048,31.69
16060,29.6
16072,27.03
16084,24.55
16096,22.73
16108,21.94
16120,22.24
16132,23.37
16144,24.87
16156,26.35
16168,27.58
16180,28.58
16191,29.49
16202,30.46
16214,31.49
16226,32.44
16238,33.07
16250,33.16
16262,32.66
16274,31.66
16286,30.32
16298,28.8
16310,27.09
16322,25.06
16334,22.47
16346,19.13
16358,15.07
16370,10.51
16381,5.86
16392,1.49
16404,-2.36
16416,-5.71
16428,-8.73
16440,-11.6
16452,-14.45
16464,-17.28
16476,-20.11
16488,-23.06
16500,-26.29
16512,-29.88
16524,-33.63
16536,-36.99
16548,-39.12
16560,-39.21
16571,-36.77
16582,-31.9
16594,-25.23
16606,-17.7
16618,-10.25
16630,-3.55
16642,2.06
16654,6.46
16666,9.62
16678,11.53
16690,12.19
16702,11.74
16714,10.48
16726,8.87
16738,7.42
16750,6.47
16761,6.18
16772,6.42
16784,6.96
16796,7.52
16808,7.94
16820,8.22
16832,8.42
16844,8.65
16856,8.95
16868,9.21
16880,9.28
16892,8.95
16904,8.15
16916,6.94
16928,5.52
16940,4.11
16951,2.9
16962,1.91
16974,1.03
16986,0.1
16998,-1.08
17010,-2.66
17022,-4.68
17034,-7.12
17046,-9.81
17058,-12.51
17070,-14.97
17082,-16.97
17094,-18.48
17106,-19.63
17118,-20.71
17130,-22.08
17141,-24.06
17152,-26.77
17164,-30.03
17176,-33.36
17188,-36.02
17200,-37.18
17212,-36.17
17224,-32.69
17236,-26.92
17248,-19.45
17260,-11.14
17272,-2.81
17284,4.86
17296,11.43
17308,16.66
17320,20.48
17331,22.89
17342,24.04
17354,24.18
17366,23.73
17378,23.17
17390,22.91
17402,23.15
17414,23.83
17426,24.67
17438,25.33
17450,25.59
17462,25.44
17474,25.09
17486,24.79
17498,24.67
17510,24.66
17521,24.42
17532,23.57
17544,21.86
17556,19.27
17568,16.03
17580,12.49
17592,8.95
17604,5.61
17616,2.48
17628,-0.48
17640,-3.33
17652,-6.12
17664,-8.85
17676,-11.53
17688,-14.17
17700,-16.76
17711,-19.27
17722,-21.56
17734,-23.46
17746,-24.8
17758,-25.58
17770,-25.96
17782,-26.29
17794,-27.0
17806,-28.46
17818,-30.83
17830,-33.88
17842,-36.98
17854,-39.18
17866,-39.52
17878,-37.31
17890,-32.34
17901,-24.99
17912,-16.05
17924,-6.51
17936,2.71
17948,10.9
17960,17.6
17972,22.59
17984,25.85
17996,27.51
18008,27.86
18020,27.31
18032,26.3
18044,25.22
18056,24.37
18068,23.92
18080,23.95
18091,24.44
18102,25.29
18114,26.3
18126,27.22
18138,27.83
18150,28.02
18162,27.82
18174,27.38
18186,26.86
18198,26.35
18210,25.78
18222,24.98
18234,23.71
18246,21.79
18258,19.18
18270,16.01
18281,12.56
18292,9.11
18304,5.95
18316,3.17
18328,0.71
18340,-1.64
18352,-4.12
18364,-6.9
18376,-9.96
18388,-13.18
18400,-16.35
18412,-19.33
18424,-22.07
18436,-24.65
18448,-27.16
18460,-29.65
18471,-32.18
18482,-34.84
18494,-37.75
18506,-41.0
18518,-44.52
18530,-47.95
18542,-50.59
18554,-51.6
18566,-50.24
18578,-46.2
18590,-39.74
18602,-31.61
18614,-22.87
18626,-14.5
18638,-7.19
18650,-1.29
18661,3.16
18672,6.21
18684,7.95
18696,8.48
18708,7.92
18720,6.55
18732,4.8
18744,3.14
18756,2.03
18768,1.71
18780,2.21
18792,3.35
18804,4.84
18816,6.48
18828,8.16
18840,9.87
18851,11.64
18862,13.42
18874,15.07
18886,16.37
18898,17.13
18910,17.26
18922,16.78
18934,15.78
18946,14.39
18958,12.73
18970,10.91
18982,9.03
18994,7.21
19006,5.55
19018,4.09
19030,2.78
19041,1.54
19052,0.27
19064,-1.08
19076,-2.49
19088,-3.93
19100,-5.31
19112,-6.6
19124,-7.8
19136,-8.94
19148,-10.09
19160,-11.35
19172,-12.87
19184,-14.77
19196,-17.02
19208,-19.34
19220,-21.15
19231,-21.73
19242,-20.43
19254,-16.92
19266,-11.36
19278,-4.36
19290,3.23
19302,10.61
19314,17.18
19326,22.59
19338,26.71
19350,29.47
19362,30.92
19374,31.14
19386,30.39
19398,29.0
19410,27.35
19421,25.76
19432,24.42
19444,23.42
19456,22.8
19468,22.55
19480,22.64
19492,23.03
19504,23.64
19516,24.36
19528,25.09
19540,25.77
19552,26.37
19564,26.82
19576,27.07
19588,27.03
19600,26.68
19611,26.06
19622,25.29
19634,24.55
19646,23.97
19658,23.59
19670,23.38
19682,23.22
19694,22.95
19706,22.41
19718,21.43
19730,19.85
19742,17.52
19754,14.33
19766,10.23
19778,5.3
19790,-0.25
19801,-6.09
19812,-11.92
19824,-17.54
19836,-23.02
19848,-28.54
19860,-34.27
19872,-40.07
19884,-45.4
19896,-49.43
19908,-51.34
19920,-50.65
19932,-47.43
19944,-42.24
19956,-35.86
19968,-28.95
19980,-21.93
19991,-14.99
20002,-8.28
20014,-2.03
20026,3.43
20038,7.79
20050,10.94
20062,13.0
20074,14.32
20086,15.34
20098,16.39
20110,17.64
20122,19.05
20134,20.41
20146,21.49
20158,22.09
20170,22.06
20181,21.32
20192,19.91
20204,17.91
20216,15.46
20228,12.68
20240,9.68
20252,6.48
20264,3.05
20276,-0.61
20288,-4.45
20300,-8.25
20312,-11.77
20324,-14.77
20336,-17.14
20348,-18.98
20360,-20.54
20371,-22.11
20382,-23.95
20394,-26.14
20406,-28.59
20418,-31.05
20430,-33.27
20442,-35.07
20454,-36.39
20466,-37.33
20478,-38.12
20490,-39.03
20502,-40.38
20514,-42.39
20526,-45.17
20538,-48.64
20550,-52.43
20561,-55.84
20572,-57.98
20584,-57.97
20596,-55.24
20608,-49.78
20620,-42.16
20632,-33.34
20644,-24.3
20656,-15.78
20668,-8.15
20680,-1.46
20692,4.28
20704,8.99
20716,12.46
20728,14.47
20740,14.92
20751,14.06
20762,12.46
20774,10.98
20786,10.5
20798,11.73
20810,14.96
20822,19.97
20834,26.08
20846,32.37
20858,37.95
20870,42.26
20882,45.22
20894,47.2
20906,48.81
20918,50.6
20930,52.76
20941,55.14
20952,57.27
20964,58.65
20976,58.92
20988,57.97
