seconds,BVP
8,-8.79
19,-225.22
31,-429.21
43,-590.06
55,-696.38
67,-752.26
79,-768.65
91,-757.24
103,-728.33
115,-684.83
127,-630.5
139,-570.78
151,-511.44
163,-456.27
175,-405.55
187,-358.36
198,-314.16
209,-273.94
221,-233.66
233,-193.49
245,-156.36
257,-126.35
269,-106.23
281,-95.75
293,-93.28
305,-96.26
317,-102.47
329,-106.73
341,-105.49
353,-97.89
365,-85.56
377,-71.47
388,-58.49
399,-50.11
411,-49.03
423,-57.33
435,-73.76
447,-94.37
459,-116.17
471,-137.87
483,-159.69
495,-176.51
507,-185.08
519,-184.71
531,-179.03
543,-172.5
555,-168.87
567,-169.08
578,-170.57
589,-167.46
601,-153.21
613,-131.52
625,-102.63
637,-69.63
649,-36.88
661,-8.95
673,11.75
685,26.1
697,38.02
709,51.72
721,75.15
733,108.51
745,139.67
757,159.94
768,164.1
779,152.5
791,128.12
803,97.08
815,66.11
827,39.79
839,19.42
851,3.69
863,-8.26
875,-16.44
887,-19.97
899,-17.91
911,-9.85
923,2.42
935,15.12
947,23.38
958,23.29
969,13.73
981,-3.76
993,-26.46
1005,-51.61
1017,-76.57
1029,-99.55
1041,-119.43
1053,-135.36
1065,-145.82
1077,-148.65
1089,-139.03
1101,-113.27
1113,-69.2
1125,-6.7
1137,71.35
1148,159.18
1159,248.76
1171,331.27
1183,397.11
1195,443.04
1207,466.63
1219,468.11
1231,449.74
1243,414.63
1255,365.91
1267,306.13
1279,237.4
1291,158.65
1303,75.22
1315,-10.84
1327,-97.03
1338,-179.46
1349,-252.62
1361,-309.89
1373,-344.8
1385,-353.71
1397,-341.58
1409,-309.79
1421,-267.67
1433,-224.77
1445,-187.6
1457,-158.08
1469,-133.93
1481,-110.87
1493,-60.25
1505,-15.99
1517,22.23
1528,47.65
1539,54.91
1551,42.93
1563,16.11
1575,-17.11
1587,-47.28
1599,-67.73
1611,-80.57
1623,-83.74
1635,-82.06
1647,-79.96
1659,-79.47
1671,-80.17
1683,-80.43
1695,-79.15
1707,-77.1
1718,-80.08
1729,-88.19
1741,-104.81
1753,-131.74
1765,-169.16
1777,-216.22
1789,-271.81
1801,-334.58
1813,-401.74
1825,-469.61
1837,-526.75
1849,-562.9
1861,-570.67
1873,-550.15
1885,-509.68
1897,-462.6
1908,-420.87
1919,-389.32
1931,-365.23
1943,-338.65
1955,-301.9
1967,-253.38
1979,-198.6
1991,-146.59
2003,-104.61
2015,-74.45
2027,-52.49
2039,-33.17
2051,-11.46
2063,13.9
2075,41.06
2087,67.12
2098,90.03
2109,109.35
2121,125.99
2133,141.24
2145,155.85
2157,169.66
2169,181.93
2181,191.81
2193,199.33
2205,205.8
2217,213.75
2229,226.19
2241,245.73
2253,273.46
2265,308.69
2277,349.22
2288,392.37
2299,435.94
2311,478.85
2323,520.2
2335,558.11
2347,588.81
2359,606.87
2371,606.76
2383,584.83
2395,541.1
2407,479.98
2419,409.38
2431,338.52
2443,275.82
2455,227.19
2467,195.19
2478,179.62
2489,177.7
2501,184.57
2513,194.09
2525,199.62
2537,195.07
2549,176.56
2561,143.67
2573,100.17
2585,53.78
2597,14.23
2609,-10.09
2621,-15.51
2633,-5.08
2645,11.83
2657,23.05
2668,18.34
2679,-7.08
2691,-51.12
2703,-106.38
2715,-163.86
2727,-216.27
2739,-259.33
2751,-291.04
2763,-309.6
2775,-312.35
2787,-296.32
2799,-260.71
2811,-208.68
2823,-147.94
2835,-89.44
2847,-44.68
2858,-22.56
2869,-27.24
2881,-57.56
2893,-107.32
2905,-166.8
2917,-224.98
2929,-272.75
2941,-305.92
2953,-327.21
2965,-345.39
2977,-371.72
2989,-414.46
3001,-474.2
3013,-542.4
3025,-604.05
3037,-643.69
3048,-651.55
3059,-626.74
3071,-576.55
3083,-512.21
3095,-443.8
3107,-377.58
3119,-315.77
3131,-258.56
3143,-206.68
3155,-162.32
3167,-127.81
3179,-104.33
3191,-90.33
3203,-81.38
3215,-72.21
3227,-58.89
3238,-40.52
3249,-19.36
3261,0.41
3273,15.15
3285,23.2
3297,25.95
3309,27.15
3321,31.18
3333,41.13
3345,57.66
3357,78.86
3369,101.22
3381,121.6
3393,138.27
3405,151.69
3417,163.96
3428,177.5
3439,194.0
3451,213.93
3463,236.89
3475,262.61
3487,291.18
3499,322.48
3511,355.07
3523,385.78
3535,410.24
3547,425.38
3559,431.13
3571,431.12
3583,431.3
3595,436.76
3607,449.22
3618,466.4
3629,483.72
3641,496.56
3653,502.01
3665,498.24
3677,482.77
3689,451.85
3701,401.24
3713,329.16
3725,238.91
3737,139.51
3749,43.3
3761,-37.91
3773,-96.42
3785,-130.12
3797,-141.35
3808,-134.54
3819,-114.13
3831,-83.91
3843,-47.45
3855,-9.0
3867,26.44
3879,54.05
3891,70.5
3903,75.1
3915,69.64
3927,57.71
3939,42.96
3951,27.89
3963,13.29
3975,-1.73
3987,-19.35
3998,-42.72
4009,-74.91
4021,-117.99
4033,-171.67
4045,-232.59
4057,-294.73
4069,-351.03
4081,-395.84
4093,-426.68
4105,-444.65
4117,-452.78
4129,-453.84
4141,-448.6
4153,-435.88
4165,-413.88
4177,-381.86
4188,-341.0
4199,-293.67
4211,-242.23
4223,-187.78
4235,-130.49
4247,-70.4
4259,-8.78
4271,51.71
4283,107.59
4295,156.03
4307,196.27
4319,230.12
4331,261.58
4343,295.55
4355,336.64
4367,387.91
4378,449.62
4389,518.03
4401,585.62
4413,641.99
4425,676.47
4437,681.53
4449,655.48
4461,603.37
4473,535.06
4485,461.55
4497,390.73
4509,325.44
4521,263.72
4533,201.5
4545,135.74
4557,66.23
4568,-4.47
4579,-72.56
4591,-134.87
4603,-189.67
4615,-236.12
4627,-273.49
4639,-300.46
4651,-315.01
4663,-315.98
4675,-304.46
4687,-284.96
4699,-264.67
4711,-250.9
4723,-247.74
4735,-253.49
4747,-260.32
4758,-256.7
4769,-232.31
4781,-182.23
4793,-109.64
4805,-25.24
4817,56.05
4829,119.49
4841,154.32
4853,155.69
4865,125.24
4877,69.93
4889,1.46
4901,-65.86
4913,-118.18
4925,-145.37
4937,-143.98
4948,-117.91
4959,-76.49
4971,-30.91
4983,9.06
4995,37.22
5007,51.31
5019,52.46
5031,44.94
5043,35.18
5055,30.26
5067,35.41
5079,51.9
5091,76.17
5103,101.61
5115,122.22
5127,135.38
5138,143.26
5149,150.93
5161,163.04
5173,180.78
5185,201.03
5197,217.2
5209,221.48
5221,207.19
5233,170.41
5245,111.63
5257,36.05
5269,-46.58
5281,-123.82
5293,-184.13
5305,-220.01
5317,-229.95
5328,-218.17
5339,-192.56
5351,-162.25
5363,-135.54
5375,-118.83
5387,-115.85
5399,-126.53
5411,-146.59
5423,-168.24
5435,-182.8
5447,-184.63
5459,-174.24
5471,-158.65
5483,-148.48
5495,-151.91
5507,-169.52
5518,-192.55
5529,-205.79
5541,-194.24
5553,-149.73
5565,-74.57
5577,19.93
5589,118.27
5601,207.01
5613,278.79
5625,333.41
5637,375.88
5649,412.72
5661,448.31
5673,481.99
5685,508.55
5697,520.33
5708,510.58
5719,476.53
5731,420.7
5743,350.4
5755,275.16
5767,203.22
5779,138.92
5791,83.25
5803,34.68
5815,-9.38
5827,-51.17
5839,-92.56
5851,-134.42
5863,-177.29
5875,-221.94
5887,-270.34
5898,-322.95
5909,-378.5
5921,-434.64
5933,-488.32
5945,-537.54
5957,-580.97
5969,-618.17
5981,-649.61
5993,-677.63
6005,-701.92
6017,-719.62
6029,-726.95
6041,-720.44
6053,-699.38
6065,-665.34
6077,-621.85
6088,-573.77
6099,-527.43
6111,-483.82
6123,-438.39
6135,-384.19
6147,-315.42
6159,-232.41
6171,-141.15
6183,-51.87
6195,39.46
6207,121.97
6219,180.89
6231,207.71
6243,200.6
6255,171.24
6267,128.68
6278,78.25
6289,26.7
6301,-20.87
6313,-62.57
6325,-95.51
6337,-117.09
6349,-126.55
6361,-125.12
6373,-116.43
6385,-103.35
6397,-87.02
6409,-67.64
6421,-46.49
6433,-23.09
6445,3.8
6457,34.69
6468,68.88
6479,103.8
6491,136.97
6503,166.84
6515,192.15
6527,210.95
6539,222.72
6551,228.05
6563,227.79
6575,222.96
6587,214.04
6599,201.85
6611,187.74
6623,172.93
6635,157.86
6647,143.07
6658,129.33
6669,117.47
6681,108.5
6693,103.39
6705,103.41
6717,109.88
6729,123.55
6741,144.06
6753,169.86
6765,198.42
6777,226.71
6789,252.14
6801,273.62
6813,292.14
6825,310.07
6837,329.07
6848,347.93
6859,361.18
6871,360.26
6883,336.7
6895,286.08
6907,210.44
6919,118.09
6931,20.96
6943,-69.06
6955,-142.55
6967,-193.65
6979,-219.38
6991,-219.39
7003,-196.19
7015,-155.98
7027,-108.26
7038,-63.71
7049,-30.51
7061,-11.47
7073,-4.13
7085,-3.61
7097,-6.41
7109,-12.94
7121,-26.39
7133,-49.11
7145,-79.28
7157,-110.07
7169,-131.87
7181,-137.03
7193,-123.76
7205,-97.47
7217,-69.46
7228,-52.47
7239,-56.08
7251,-83.29
7263,-129.54
7275,-184.02
7287,-233.46
7299,-266.37
7311,-276.52
7323,-264.49
7335,-236.0
7347,-198.83
7359,-159.55
7371,-121.79
7383,-86.64
7395,-54.33
7407,-25.46
7418,-1.09
7429,18.23
7441,33.84
7453,49.07
7465,67.92
7477,93.62
7489,126.85
7501,165.15
7513,203.61
7525,236.7
7537,259.98
7549,271.6
7561,272.47
7573,265.3
7585,253.5
7597,239.76
7608,225.23
7619,209.54
7631,191.52
7643,170.08
7655,145.24
7667,118.38
7679,92.1
7691,69.69
7703,54.15
7715,47.35
7727,49.67
7739,59.86
7751,75.66
7763,94.49
7775,114.07
7787,132.87
7798,150.19
7809,166.15
7821,181.77
7833,199.12
7845,220.74
7857,248.55
7869,281.95
7881,316.64
7893,344.44
7905,355.68
7917,342.65
7929,302.96
7941,241.02
7953,166.56
7965,90.94
7977,23.25
7988,-31.91
7999,-74.6
8011,-107.45
8023,-133.4
8035,-154.36
8047,-171.43
8059,-185.6
8071,-198.42
8083,-211.62
8095,-226.36
8107,-242.84
8119,-260.66
8131,-279.43
8143,-299.14
8155,-319.7
8167,-339.96
8178,-356.76
8189,-365.1
8201,-359.67
8213,-337.15
8225,-298.42
8237,-249.09
8249,-198.59
8261,-157.58
8273,-134.87
8285,-134.41
8297,-153.7
8309,-184.12
8321,-213.44
8333,-229.58
8345,-224.36
8357,-195.8
8368,-147.77
8379,-87.63
8391,-23.2
8403,39.85
8415,98.41
8427,151.25
8439,197.95
8451,238.56
8463,274.15
8475,307.43
8487,342.51
8499,383.78
8511,433.53
8523,490.13
8535,547.86
8547,598.08
8558,631.71
8569,641.94
8581,626.03
8593,585.71
8605,526.49
8617,456.19
8629,383.51
8641,316.52
8653,261.12
8665,219.71
8677,190.65
8689,169.07
8701,148.99
8713,125.94
8725,98.85
8737,70.21
8748,44.37
8759,24.93
8771,13.0
8783,7.12
8795,4.55
8807,3.21
8819,2.74
8831,4.2
8843,8.93
8855,17.45
8867,29.03
8879,42.39
8891,56.68
8903,71.91
8915,88.75
8927,107.91
8938,129.14
8949,150.88
8961,170.55
8973,185.33
8985,193.33
8997,194.29
9009,189.66
9021,182.02
9033,173.88
9045,166.66
9057,160.1
9069,152.47
9081,141.21
9093,124.1
9105,99.9
9117,68.69
9128,31.79
9139,-9.2
9151,-53.08
9163,-99.65
9175,-149.49
9187,-203.53
9199,-261.88
9211,-322.87
9223,-382.46
9235,-434.52
9247,-472.35
9259,-490.81
9271,-488.42
9283,-468.49
9295,-438.91
9307,-410.09
9318,-391.71
9329,-389.38
9341,-402.24
9353,-423.04
9365,-440.5
9377,-443.16
9389,-423.18
9401,-378.66
9413,-313.94
9425,-238.17
9437,-162.84
9449,-99.31
9461,-56.63
9473,-39.92
9485,-49.45
9497,-80.69
9508,-125.3
9519,-173.05
9531,-214.19
9543,-241.45
9555,-251.01
9567,-242.54
9579,-218.39
9591,-182.46
9603,-139.34
9615,-93.66
9627,-50.18
9639,-13.73
9651,11.21
9663,21.65
9675,17.64
9687,3.11
9698,-14.66
9709,-27.17
9721,-27.82
9733,-14.39
9745,10.49
9757,40.94
9769,70.58
9781,95.07
9793,112.81
9805,123.56
9817,127.11
9829,122.43
9841,108.19
9853,84.7
9865,55.22
9877,26.21
9888,6.02
9899,2.29
9911,19.15
9923,55.48
9935,104.79
9947,156.75
9959,200.15
9971,226.08
9983,230.66
9995,216.18
10007,190.3
10019,163.33
10031,145.05
10043,141.4
10055,152.64
10067,173.66
10078,196.58
10089,214.13
10101,222.85
10113,224.35
10125,224.12
10137,229.0
10149,244.24
10161,271.65
10173,309.78
10185,354.5
10197,399.68
10209,437.79
10221,460.57
10233,460.6
10245,433.73
10257,380.9
10268,307.55
10279,223.36
10291,139.71
10303,66.8
10315,11.5
10327,-23.55
10339,-39.21
10351,-38.35
10363,-24.74
10375,-4.52
10387,16.1
10399,32.45
10411,42.71
10423,47.78
10435,49.96
10447,51.36
10458,53.16
10469,55.12
10481,52.37
10493,39.43
10505,12.62
10517,-27.84
10529,-78.56
10541,-135.02
10553,-193.43
10565,-251.15
10577,-306.44
10589,-362.6
10601,-423.41
10613,-491.34
10625,-565.75
10637,-643.77
10648,-722.16
10659,-798.45
10671,-870.61
10683,-910.18
10695,-893.3
10707,-810.77
10719,-676.95
10731,-520.35
10743,-366.63
10755,-229.65
10767,-112.97
10779,-14.61
10791,69.54
10803,138.6
10815,191.83
10827,230.14
10838,258.03
10849,282.05
10861,308.11
10873,339.24
10885,375.01
10897,415.25
10909,452.54
10921,480.29
10933,493.7
10945,491.78
10957,476.26
10969,449.99
10981,415.36
10993,373.23
11005,325.23
11017,270.68
11028,212.04
11039,151.89
11051,93.33
11063,38.39
11075,-12.88
11087,-63.6
11099,-122.12
11111,-187.65
11123,-260.96
11135,-337.0
11147,-410.06
11159,-472.93
11171,-518.9
11183,-542.26
11195,-540.12
11207,-515.87
11218,-475.07
11229,-426.24
11241,-374.41
11253,-326.55
11265,-287.83
11277,-260.71
11289,-243.14
11301,-214.68
11313,-165.76
11325,-99.36
11337,-48.45
11349,-23.24
11361,-24.76
11373,-41.08
11385,-61.44
11397,-74.5
11408,-71.51
11419,-51.24
11431,-16.74
11443,26.09
11455,74.45
11467,123.83
11479,170.67
11491,212.53
11503,249.63
11515,283.31
11527,312.51
11539,336.36
11551,354.09
11563,367.86
11575,377.88
11587,383.72
11598,384.79
11609,382.5
11621,380.15
11633,380.76
11645,387.16
11657,399.73
11669,416.38
11681,429.83
11693,430.87
11705,412.04
11717,371.41
11729,312.64
11741,242.07
11753,166.56
11765,91.09
11777,19.07
11788,-47.91
11799,-107.99
11811,-158.49
11823,-196.36
11835,-219.92
11847,-230.35
11859,-231.17
11871,-226.68
11883,-219.93
11895,-211.97
11907,-201.92
11919,-187.91
11931,-168.79
11943,-145.71
11955,-122.06
11967,-102.6
11978,-91.77
11989,-92.06
12001,-103.26
12013,-123.09
12025,-148.19
12037,-175.73
12049,-204.51
12061,-234.81
12073,-267.98
12085,-305.75
12097,-349.42
12109,-399.23
12121,-453.46
12133,-507.75
12145,-555.32
12157,-588.36
12168,-600.37
12179,-588.79
12191,-556.38
12203,-510.35
12215,-459.95
12227,-413.01
12239,-373.71
12251,-342.1
12263,-315.54
12275,-290.61
12287,-264.89
12299,-237.03
12311,-206.4
12323,-172.59
12335,-135.59
12347,-96.42
12358,-57.7
12369,-23.38
12381,2.17
12393,15.55
12405,15.95
12417,5.51
12429,-11.03
12441,-27.75
12453,-39.1
12465,-41.45
12477,-33.39
12489,-15.45
12501,10.82
12513,43.97
12525,83.0
12537,127.17
12548,175.29
12559,225.18
12571,273.55
12583,316.56
12595,351.12
12607,375.89
12619,391.87
12631,402.06
12643,410.5
12655,421.29
12667,437.28
12679,459.21
12691,485.08
12703,510.42
12715,529.13
12727,535.17
12738,524.33
12749,495.84
12761,453.06
12773,402.75
12785,353.27
12797,311.76
12809,282.3
12821,264.63
12833,255.0
12845,248.27
12857,240.79
12869,232.16
12881,224.97
12893,222.73
12905,226.36
12917,232.53
12928,234.17
12939,223.78
12951,197.49
12963,157.16
12975,109.33
12987,61.25
12999,17.41
13011,-21.84
13023,-58.18
13035,-91.9
13047,-120.02
13059,-137.4
13071,-140.59
13083,-131.2
13095,-116.64
13107,-106.85
13118,-109.75
13129,-127.5
13141,-156.65
13153,-190.77
13165,-223.54
13177,-250.59
13189,-268.57
13201,-273.64
13213,-261.87
13225,-231.55
13237,-186.03
13249,-135.0
13261,-92.45
13273,-71.12
13285,-77.65
13297,-110.11
13308,-159.48
13319,-213.93
13331,-263.19
13343,-300.18
13355,-320.34
13367,-320.17
13379,-297.01
13391,-251.05
13403,-188.08
13415,-120.04
13427,-62.44
13439,-29.01
13451,-26.27
13463,-51.13
13475,-92.16
13487,-134.19
13498,-163.85
13509,-173.45
13521,-161.93
13533,-133.65
13545,-95.67
13557,-55.22
13569,-18.02
13581,13.26
13593,39.27
13605,63.5
13617,90.38
13629,122.57
13641,159.02
13653,195.11
13665,224.88
13677,244.39
13688,254.2
13699,259.34
13711,266.9
13723,282.74
13735,309.17
13747,344.34
13759,383.37
13771,419.95
13783,447.67
13795,460.75
13807,454.6
13819,426.78
13831,377.98
13843,312.25
13855,236.36
13867,158.46
13878,86.96
13889,29.95
13901,-5.47
13913,-14.52
13925,2.85
13937,40.24
13949,84.8
13961,120.77
13973,134.63
13985,120.3
13997,81.13
14009,27.79
14021,-26.98
14033,-73.48
14045,-108.4
14057,-134.49
14068,-157.79
14079,-183.92
14091,-215.49
14103,-251.28
14115,-287.52
14127,-320.02
14139,-346.18
14151,-366.27
14163,-382.89
14175,-399.17
14187,-416.46
14199,-433.17
14211,-444.96
14223,-447.3
14235,-438.29
14247,-420.3
14258,-399.2
14269,-381.51
14281,-371.09
14293,-367.04
14305,-364.8
14317,-359.3
14329,-348.57
14341,-335.29
14353,-324.95
14365,-321.6
14377,-323.96
14389,-324.5
14401,-312.48
14413,-279.17
14425,-222.31
14437,-147.13
14448,-63.75
14459,17.86
14471,91.75
14483,157.51
14495,218.26
14507,277.4
14519,336.17
14531,393.48
14543,447.39
14555,496.73
14567,541.43
14579,581.17
14591,614.68
14603,640.27
14615,657.22
14627,667.39
14638,674.81
14649,683.11
14661,692.33
14673,697.64
14685,691.08
14697,666.28
14709,622.47
14721,565.64
14733,505.49
14745,450.21
14757,402.6
14769,359.35
14781,314.68
14793,264.59
14805,209.83
14817,155.28
14828,106.89
14839,68.52
14851,40.42
14863,20.23
14875,4.91
14887,-6.97
14899,-14.91
14911,-17.23
14923,-12.72
14935,-2.03
14947,12.29
14959,26.29
14971,36.0
14983,38.49
14995,32.74
15007,19.3
15018,-0.3
15029,-24.31
15041,-51.37
15053,-80.49
15065,-110.89
15077,-141.44
15089,-170.61
15101,-196.36
15113,-216.64
15125,-229.78
15137,-234.72
15149,-231.24
15161,-219.78
15173,-201.48
15185,-178.1
15197,-152.13
15208,-126.76
15219,-105.96
15231,-93.85
15243,-93.67
15255,-107.33
15267,-134.62
15279,-173.53
15291,-220.69
15303,-272.27
15315,-324.84
15327,-375.74
15339,-423.44
15351,-467.18
15363,-507.4
15375,-545.08
15387,-580.72
15398,-612.94
15409,-637.46
15421,-647.61
15433,-636.23
15445,-598.93
15457,-536.31
15469,-454.75
15481,-364.52
15493,-276.55
15505,-199.38
15517,-137.54
15529,-91.98
15541,-61.84
15553,-45.99
15565,-43.47
15577,-53.04
15588,-72.27
15599,-97.47
15611,-124.45
15623,-149.48
15635,-170.18
15647,-185.68
15659,-196.33
15671,-202.89
15683,-205.76
15695,-204.83
15707,-199.65
15719,-190.14
15731,-177.0
15743,-162.03
15755,-147.76
15767,-136.78
15778,-131.09
15789,-131.33
15801,-136.69
15813,-145.09
15825,-153.82
15837,-160.51
15849,-163.57
15861,-162.54
15873,-157.91
15885,-150.93
15897,-143.07
15909,-135.75
15921,-130.0
15933,-126.15
15945,-124.12
15957,-123.26
15968,-122.64
15979,-121.07
15991,-117.4
16003,-110.65
16015,-100.41
16027,-86.93
16039,-71.09
16051,-54.44
16063,-38.78
16075,-25.85
16087,-16.96
16099,-12.72
16111,-12.94
16123,-16.67
16135,-22.43
16147,-28.31
16158,-32.4
16169,-32.91
16181,-28.46
16193,-18.16
16205,-1.61
16217,20.97
16229,48.86
16241,80.78
16253,115.03
16265,149.62
16277,182.56
16289,211.88
16301,235.83
16313,253.15
16325,263.16
16337,265.86
16348,261.88
16359,252.27
16371,238.29
16383,221.24
16395,202.22
16407,181.97
16419,160.82
16431,138.93
16443,116.37
16455,93.26
16467,69.99
16479,47.15
16491,25.7
16503,6.61
16515,-9.22
16527,-21.3
16538,-29.56
16549,-34.58
16561,-37.49
16573,-39.69
16585,-42.71
16597,-47.74
16609,-55.41
16621,-65.74
16633,-78.17
16645,-91.64
16657,-104.87
16669,-116.58
16681,-125.68
16693,-131.41
16705,-133.34
16717,-131.46
16728,-126.08
16739,-118.04
16751,-108.43
16763,-98.52
16775,-89.47
16787,-82.0
16799,-76.16
16811,-71.13
16823,-65.47
16835,-56.78
16847,-43.01
16859,-23.22
16871,2.08
16883,31.06
16895,61.29
16907,90.38
16918,116.77
16929,139.65
16941,159.52
16953,176.97
16965,192.12
16977,204.31
16989,212.46
17001,215.91
17013,215.18
17025,212.17
17037,209.71
17049,211.92
17061,221.47
17073,238.66
17085,261.4
17097,286.52
17108,311.39
17119,334.47
17131,354.86
17143,371.25
17155,385.74
17167,400.3
17179,416.65
17191,435.71
17203,456.73
17215,477.1
17227,492.33
17239,497.17
17251,488.33
17263,474.87
17275,469.88
17287,485.35
17298,525.94
17309,586.77
17321,656.49
17333,722.66
17345,776.68
17357,816.38
17369,857.73
17381,917.23
17393,1003.35
17405,1110.74
17417,1222.47
17429,1318.87
17441,1385.28
17453,1415.82
17465,1413.54
17477,1403.47
17488,1409.94
17499,1447.24
17511,1513.83
17523,1595.77
17535,1676.15
17547,1742.57
17559,1789.0
17571,1714.93
17583,1459.39
17595,1015.53
17607,445.67
17619,-147.75
17631,-672.69
17643,-1077.85
17655,-1353.03
17667,-1515.83
17678,-1597.73
17689,-1617.86
17701,-1593.7
17713,-1541.51
17725,-1477.85
17737,-1417.19
17749,-1367.7
17761,-1330.37
17773,-1302.19
17785,-1279.75
17797,-1248.66
17809,-1197.38
17821,-1121.23
17833,-1025.48
17845,-922.77
17857,-826.99
17868,-747.74
17879,-688.29
17891,-646.39
17903,-608.23
17915,-560.41
17927,-495.51
17939,-415.73
17951,-331.31
17963,-254.22
17975,-194.27
17987,-155.8
17999,-137.7
18011,-131.28
18023,-127.28
18035,-119.19
18047,-106.09
18058,-91.74
18069,-81.01
18081,-77.49
18093,-81.97
18105,-92.92
18117,-105.38
18129,-113.28
18141,-110.0
18153,-91.36
18165,-57.66
18177,-13.95
18189,30.11
18201,62.92
18213,74.55
18225,61.26
18237,26.9
18248,-18.24
18259,-62.92
18271,-99.81
18283,-126.55
18295,-145.41
18307,-160.48
18319,-175.35
18331,-191.99
18343,-212.06
18355,-230.83
18367,-239.15
18379,-233.34
18391,-213.81
18403,-184.84
18415,-151.3
18427,-115.79
18438,-78.34
18449,-37.54
18461,6.92
18473,53.19
18485,97.59
18497,137.68
18509,172.56
18521,203.51
18533,233.25
18545,264.22
18557,297.84
18569,334.25
18581,369.86
18593,399.1
18605,417.5
18617,422.01
18628,412.08
18639,389.55
18651,357.39
18663,319.42
18675,278.1
18687,235.27
18699,192.32
18711,150.89
18723,112.47
18735,77.99
18747,47.69
18759,19.53
18771,-0.0
18783,-9.7
18795,-10.61
18807,-5.22
18818,3.6
18829,13.15
18841,21.04
18853,26.04
18865,27.57
18877,26.0
18889,20.92
18901,12.74
18913,2.67
18925,-7.49
18937,-15.58
18949,-19.47
18961,-16.95
18973,-6.67
18985,11.89
18997,37.1
19008,66.24
19019,95.99
19031,123.03
19043,144.38
19055,157.74
19067,162.24
19079,158.12
19091,146.7
19103,129.78
19115,109.43
19127,87.86
19139,67.36
19151,49.79
19163,36.01
19175,26.31
19187,20.23
19198,16.51
19209,13.37
19221,8.95
19233,1.76
19245,-8.63
19257,-21.42
19269,-35.13
19281,-47.63
19293,-57.13
19305,-63.0
19317,-66.35
19329,-69.77
19341,-76.72
19353,-89.94
19365,-110.49
19377,-137.28
19388,-166.78
19399,-194.68
19411,-217.35
19423,-232.92
19435,-241.82
19447,-246.34
19459,-248.52
19471,-249.48
19483,-248.44
19495,-243.05
19507,-231.31
19519,-213.19
19531,-191.08
19543,-169.2
19555,-151.99
19567,-141.73
19578,-138.1
19589,-138.74
19601,-140.43
19613,-140.04
19625,-134.57
19637,-120.16
19649,-92.57
19661,-49.32
19673,7.6
19685,69.91
19697,124.17
19709,157.79
19721,165.19
19733,151.23
19745,129.39
19757,114.5
19768,114.0
19779,123.8
19791,130.65
19803,120.0
19815,85.46
19827,32.02
19839,-26.96
19851,-77.8
19863,-114.45
19875,-141.5
19887,-170.35
19899,-212.15
19911,-271.62
19923,-344.35
19935,-420.57
19947,-490.65
19958,-549.4
19969,-597.35
19981,-638.76
19993,-677.39
20005,-713.95
20017,-745.98
20029,-769.58
20041,-782.78
20053,-786.4
20065,-782.98
20077,-774.44
20089,-759.76
20101,-734.12
20113,-691.11
20125,-626.57
20137,-541.19
20148,-441.83
20159,-339.36
20171,-244.91
20183,-166.46
20195,-107.13
20207,-65.28
20219,-36.45
20231,-15.75
20243,1.44
20255,18.37
20267,37.35
20279,59.72
20291,85.6
20303,113.78
20315,141.99
20327,167.26
20338,186.38
20349,197.32
20361,198.99
20373,191.79
20385,177.44
20397,158.33
20409,137.12
20421,116.02
20433,96.75
20445,80.09
20457,66.58
20469,56.14
20481,48.48
20493,43.22
20505,39.87
20517,37.88
20528,36.65
20539,35.6
20551,33.97
20563,31.24
20575,26.98
20587,21.12
20599,14.2
20611,7.45
20623,2.69
20635,1.89
20647,6.77
20659,17.63
20671,33.32
20683,51.43
20695,68.88
20707,83.43
20718,94.46
20729,103.76
20741,114.98
20753,132.5
20765,159.33
20777,196.01
20789,240.32
20801,287.72
20813,333.22
20825,372.94
20837,405.58
20849,432.27
20861,456.1
20873,480.88
20885,509.58
20897,542.83
20908,577.51
20919,606.56
20931,620.34
20943,609.84
20955,570.37
20967,504.9
20979,424.93
20991,347.43
