seconds,BVP
10,69.63
22,75.91
34,78.65
46,78.52
57,76.17
68,72.27
80,67.56
92,62.72
104,58.34
116,54.8
128,52.23
140,50.62
152,49.88
164,49.97
176,50.85
188,52.47
200,54.66
212,57.05
224,59.08
236,60.08
247,59.48
258,57.01
270,52.83
282,47.48
294,41.67
306,36.03
318,30.82
330,25.99
342,21.22
354,16.23
366,10.92
378,5.47
390,0.2
402,-4.63
414,-9.02
426,-13.25
437,-17.78
448,-22.96
460,-28.9
472,-35.32
484,-41.75
496,-47.67
508,-52.82
520,-57.34
532,-61.76
544,-66.9
556,-73.62
568,-82.55
580,-93.67
592,-105.97
604,-117.29
616,-124.59
627,-124.72
638,-115.39
650,-96.13
662,-68.66
674,-36.44
686,-3.64
698,26.08
710,50.41
722,68.58
734,80.98
746,88.51
758,92.01
770,92.2
782,89.71
794,85.27
806,79.74
817,73.96
828,68.57
840,63.88
852,59.94
864,56.69
876,54.14
888,52.48
900,51.97
912,52.75
924,54.62
936,57.04
948,59.13
960,59.97
972,58.93
984,55.89
996,51.27
1007,45.88
1018,40.53
1030,35.8
1042,31.84
1054,28.45
1066,25.3
1078,22.23
1090,19.26
1102,16.67
1114,14.71
1126,13.46
1138,12.66
1150,11.9
1162,10.72
1174,8.88
1186,6.49
1197,3.88
1208,1.47
1220,-0.5
1232,-2.11
1244,-3.78
1256,-6.1
1268,-9.6
1280,-14.49
1292,-20.55
1304,-27.27
1316,-33.94
1328,-40.0
1340,-45.2
1352,-49.72
1364,-54.08
1376,-59.03
1387,-65.41
1398,-73.89
1410,-84.6
1422,-96.81
1434,-108.67
1446,-117.38
1458,-119.88
1470,-113.84
1482,-98.65
1494,-75.76
1506,-48.31
1518,-20.18
1530,5.29
1542,25.96
1554,41.18
1566,51.25
1577,56.94
1588,58.97
1600,57.91
1612,54.31
1624,48.86
1636,42.44
1648,35.99
1660,30.34
1672,26.05
1684,23.33
1696,22.16
1708,22.4
1720,23.89
1732,26.43
1744,29.86
1756,33.87
1767,38.03
1778,41.79
1790,44.54
1802,45.82
1814,45.41
1826,43.44
1838,40.24
1850,36.33
1862,32.16
1874,28.05
1886,24.18
1898,20.59
1910,17.27
1922,14.17
1934,11.24
1946,8.35
1957,5.34
1968,2.09
1980,-1.43
1992,-5.04
2004,-8.44
2016,-11.32
2028,-13.53
2040,-15.23
2052,-16.84
2064,-18.99
2076,-22.16
2088,-26.46
2100,-31.59
2112,-36.96
2124,-41.95
2136,-46.23
2147,-49.9
2158,-53.43
2170,-57.52
2182,-62.91
2194,-70.2
2206,-79.67
2218,-91.04
2230,-103.16
2242,-113.9
2254,-120.39
2266,-119.74
2278,-110.1
2290,-91.38
2302,-65.57
2314,-36.16
2326,-7.05
2337,18.62
2348,39.07
2360,54.01
2372,64.05
2384,70.04
2396,72.71
2408,72.59
2420,70.17
2432,66.11
2444,61.3
2456,56.55
2468,52.49
2480,49.41
2492,47.31
2504,46.02
2516,45.41
2527,45.48
2538,46.26
2550,47.76
2562,49.85
2574,52.24
2586,54.48
2598,56.06
2610,56.52
2622,55.53
2634,53.02
2646,49.18
2658,44.48
2670,39.46
2682,34.64
2694,30.27
2706,26.37
2717,22.72
2728,19.07
2740,15.28
2752,11.4
2764,7.65
2776,4.37
2788,1.84
2800,0.23
2812,-0.57
2824,-0.85
2836,-1.09
2848,-1.77
2860,-3.24
2872,-5.57
2884,-8.53
2896,-11.7
2907,-14.67
2918,-17.25
2930,-19.56
2942,-21.99
2954,-24.98
2966,-28.81
2978,-33.45
2990,-38.56
3002,-43.64
3014,-48.22
3026,-52.07
3038,-55.25
3050,-58.12
3062,-61.23
3074,-65.27
3086,-70.85
3097,-78.28
3108,-87.16
3120,-96.11
3132,-102.84
3144,-104.61
3156,-99.18
3168,-85.59
3180,-64.8
3192,-39.42
3204,-12.98
3216,11.19
3228,30.84
3240,45.09
3252,54.22
3264,59.04
3276,60.38
3287,58.85
3298,54.93
3310,49.2
3322,42.44
3334,35.6
3346,29.53
3358,24.85
3370,21.75
3382,20.07
3394,19.5
3406,19.74
3418,20.69
3430,22.39
3442,24.89
3454,28.06
3466,31.47
3477,34.47
3488,36.37
3500,36.7
3512,35.38
3524,32.71
3536,29.27
3548,25.62
3560,22.13
3572,18.87
3584,15.66
3596,12.22
3608,8.31
3620,3.88
3632,-0.89
3644,-5.67
3656,-10.06
3667,-13.75
3678,-16.68
3690,-19.08
3702,-21.43
3714,-24.24
3726,-27.89
3738,-32.4
3750,-37.47
3762,-42.52
3774,-47.0
3786,-50.54
3798,-53.17
3810,-55.36
3822,-57.85
3834,-61.49
3846,-66.9
3857,-74.25
3868,-82.93
3880,-91.48
3892,-97.69
3904,-99.11
3916,-93.72
3928,-80.66
3940,-60.75
3952,-36.28
3964,-10.44
3976,13.7
3988,33.92
4000,49.28
4012,59.89
4024,66.44
4036,69.67
4047,70.16
4058,68.36
4070,64.76
4082,59.97
4094,54.68
4106,49.56
4118,45.05
4130,41.43
4142,38.82
4154,37.27
4166,36.74
4178,37.23
4190,38.62
4202,40.76
4214,43.4
4226,46.23
4237,48.82
4248,50.7
4260,51.45
4272,50.85
4284,48.94
4296,46.04
4308,42.68
4320,39.35
4332,36.41
4344,33.96
4356,31.85
4368,29.77
4380,27.4
4392,24.55
4404,21.27
4416,17.88
4427,14.87
4438,12.62
4450,11.15
4462,9.85
4474,7.63
4486,3.18
4498,-4.52
4510,-15.78
4522,-29.99
4534,-45.82
4546,-61.62
4558,-75.93
4570,-87.86
4582,-97.24
4594,-104.54
4606,-110.74
4617,-116.98
4628,-124.27
4640,-133.05
4652,-142.87
4664,-152.14
4676,-158.34
4688,-158.55
4700,-150.47
4712,-133.24
4724,-107.98
4736,-77.56
4748,-45.75
4760,-16.13
4772,8.78
4784,27.87
4796,41.28
4807,49.78
4818,54.3
4830,55.66
4842,54.55
4854,51.7
4866,47.85
4878,43.72
4890,39.87
4902,36.66
4914,34.19
4926,32.54
4938,31.79
4950,32.07
4962,33.47
4974,35.96
4986,39.26
4997,42.84
5008,46.06
5020,48.25
5032,48.98
5044,48.1
5056,45.77
5068,42.41
5080,38.5
5092,34.44
5104,30.45
5116,26.5
5128,22.39
5140,17.88
5152,12.85
5164,7.41
5176,1.94
5187,-3.11
5198,-7.41
5210,-10.88
5222,-13.83
5234,-16.77
5246,-20.18
5258,-24.27
5270,-28.83
5282,-33.4
5294,-37.48
5306,-40.85
5318,-43.7
5330,-46.65
5342,-50.55
5354,-56.18
5366,-63.9
5377,-73.35
5388,-83.24
5400,-91.48
5412,-95.55
5424,-93.25
5436,-83.44
5448,-66.57
5460,-44.64
5472,-20.64
5484,2.36
5496,22.02
5508,37.16
5520,47.64
5532,53.94
5544,56.72
5556,56.5
5567,53.66
5578,48.66
5590,42.2
5602,35.23
5614,28.81
5626,23.82
5638,20.78
5650,19.77
5662,20.47
5674,22.39
5686,24.99
5698,27.91
5710,30.93
5722,33.86
5734,36.43
5746,38.2
5757,38.63
5768,37.23
5780,33.81
5792,28.57
5804,22.15
5816,15.39
5828,9.05
5840,3.54
5852,-1.2
5864,-5.61
5876,-10.31
5888,-15.74
5900,-22.0
5912,-28.79
5924,-35.56
5936,-41.67
5947,-46.72
5958,-50.67
5970,-53.86
5982,-56.96
5994,-60.79
6006,-66.18
6018,-73.61
6030,-82.93
6042,-93.03
6054,-101.88
6066,-106.85
6078,-105.47
6090,-96.21
6102,-79.17
6114,-56.17
6126,-30.18
6137,-4.43
6148,18.45
6160,37.0
6172,50.82
6184,60.22
6196,65.77
6208,67.89
6220,67.0
6232,63.55
6244,58.23
6256,51.95
6268,45.66
6280,40.2
6292,36.13
6304,33.72
6316,33.04
6327,33.96
6338,36.33
6350,39.87
6362,44.18
6374,48.76
6386,52.96
6398,56.14
6410,57.81
6422,57.65
6434,55.73
6446,52.39
6458,48.13
6470,43.46
6482,38.66
6494,33.75
6506,28.54
6517,22.79
6528,16.4
6540,9.52
6552,2.49
6564,-4.22
6576,-10.23
6588,-15.42
6600,-19.99
6612,-24.35
6624,-28.98
6636,-34.17
6648,-39.86
6660,-45.69
6672,-51.08
6684,-55.61
6696,-59.2
6707,-62.25
6718,-65.6
6730,-70.26
6742,-77.17
6754,-86.73
6766,-98.48
6778,-110.85
6790,-121.22
6802,-126.47
6814,-123.84
6826,-111.96
6838,-91.36
6850,-64.5
6862,-34.97
6874,-6.46
6886,18.27
6897,37.88
6908,52.28
6920,62.14
6932,68.27
6944,71.35
6956,71.89
6968,70.35
6980,67.37
6992,63.7
7004,60.1
7016,57.15
7028,55.19
7040,54.27
7052,54.37
7064,55.45
7076,57.51
7087,60.56
7098,64.44
7110,68.78
7122,72.95
7134,76.2
7146,77.83
7158,77.46
7170,75.04
7182,70.93
7194,65.72
7206,60.03
7218,54.38
7230,48.96
7242,43.76
7254,38.57
7266,33.18
7277,27.46
7288,21.48
7300,15.54
7312,10.02
7324,5.31
7336,1.63
7348,-1.1
7360,-3.25
7372,-5.41
7384,-8.16
7396,-11.87
7408,-16.49
7420,-21.64
7432,-26.75
7444,-31.38
7456,-35.43
7467,-39.19
7478,-43.27
7490,-48.43
7502,-55.35
7514,-64.41
7526,-75.37
7538,-87.13
7550,-97.63
7562,-104.18
7574,-104.18
7586,-96.08
7598,-80.0
7610,-57.9
7622,-32.98
7634,-8.62
7646,12.56
7657,29.23
7668,41.17
7680,48.88
7692,52.9
7704,53.64
7716,51.46
7728,46.87
7740,40.72
7752,34.14
7764,28.29
7776,24.06
7788,21.99
7800,22.16
7812,24.38
7824,28.17
7836,33.04
7847,38.39
7858,43.7
7870,48.43
7882,52.15
7894,54.48
7906,55.12
7918,53.92
7930,51.02
7942,46.79
7954,41.81
7966,36.65
7978,31.63
7990,26.71
8002,21.6
8014,15.94
8026,9.7
8037,3.19
8048,-3.05
8060,-8.53
8072,-13.03
8084,-16.76
8096,-20.14
8108,-23.6
8120,-27.37
8132,-31.39
8144,-35.36
8156,-38.98
8168,-42.07
8180,-44.68
8192,-47.11
8204,-49.89
8216,-53.64
8227,-58.92
8238,-65.93
8250,-74.19
8262,-82.39
8274,-88.48
8286,-90.08
8298,-85.27
8310,-73.21
8322,-54.62
8334,-31.62
8346,-7.17
8358,15.81
8370,35.19
8382,49.99
8394,60.25
8406,66.62
8417,69.87
8428,70.55
8440,69.01
8452,65.52
8464,60.47
8476,54.46
8488,48.3
8500,42.8
8512,38.6
8524,36.02
8536,35.03
8548,35.35
8560,36.5
8572,38.02
8584,39.52
8596,40.68
8607,41.2
8618,40.86
8630,39.43
8642,36.84
8654,33.21
8666,28.82
8678,24.12
8690,19.59
8702,15.58
8714,12.22
8726,9.42
8738,6.99
8750,4.76
8762,2.67
8774,0.77
8786,-0.84
8797,-2.13
8808,-3.15
8820,-4.07
8832,-5.06
8844,-6.24
8856,-7.65
8868,-9.23
8880,-10.94
8892,-12.82
8904,-15.05
8916,-17.84
8928,-21.38
8940,-25.62
8952,-30.33
8964,-35.1
8976,-39.55
8987,-43.55
8998,-47.25
9010,-51.12
9022,-55.8
9034,-61.94
9046,-69.97
9058,-79.96
9070,-91.28
9082,-102.47
9094,-111.33
9106,-115.3
9118,-112.19
9130,-100.92
9142,-82.07
9154,-57.83
9166,-31.36
9177,-5.94
9188,15.99
9200,33.19
9212,45.64
9224,53.96
9236,58.98
9248,61.39
9260,61.68
9272,60.27
9284,57.61
9296,54.29
9308,50.86
9320,47.75
9332,45.22
9344,43.33
9356,42.08
9367,41.49
9378,41.68
9390,42.75
9402,44.67
9414,47.17
9426,49.75
9438,51.8
9450,52.78
9462,52.42
9474,50.79
9486,48.22
9498,45.18
9510,42.16
9522,39.46
9534,37.18
9546,35.22
9557,33.35
9568,31.35
9580,29.12
9592,26.73
9604,24.38
9616,22.28
9628,20.55
9640,19.12
9652,17.82
9664,16.51
9676,15.15
9688,13.86
9700,12.81
9712,12.01
9724,11.24
9736,10.06
9747,8.04
9758,4.91
9770,0.8
9782,-3.9
9794,-8.64
9806,-12.99
9818,-16.82
9830,-20.37
9842,-24.07
9854,-28.35
9866,-33.41
9878,-39.04
9890,-44.78
9902,-50.02
9914,-54.34
9926,-57.66
9937,-60.31
9948,-62.96
9960,-66.41
9972,-71.38
9984,-78.31
9996,-87.05
10008,-96.68
10020,-105.43
10032,-110.91
10044,-110.73
10056,-103.23
10068,-88.22
10080,-67.14
10092,-42.76
10104,-18.27
10116,3.61
10127,21.2
10138,34.04
10150,42.58
10162,47.6
10174,49.89
10186,50.05
10198,48.48
10210,45.65
10222,42.04
10234,38.22
10246,34.71
10258,31.92
10270,30.11
10282,29.36
10294,29.63
10306,30.8
10317,32.77
10328,35.38
10340,38.42
10352,41.6
10364,44.45
10376,46.39
10388,46.84
10400,45.4
10412,41.98
10424,36.91
10436,30.82
10448,24.49
10460,18.57
10472,13.4
10484,8.95
10496,4.88
10507,0.79
10518,-3.62
10530,-8.34
10542,-13.12
10554,-17.54
10566,-21.22
10578,-24.01
10590,-26.06
10602,-27.8
10614,-29.76
10626,-32.35
10638,-35.67
10650,-39.51
10662,-43.42
10674,-46.95
10686,-49.81
10697,-52.07
10708,-54.07
10720,-56.38
10732,-59.63
10744,-64.35
10756,-70.74
10768,-78.41
10780,-86.2
10792,-92.23
10804,-94.22
10816,-90.18
10828,-79.15
10840,-61.62
10852,-39.53
10864,-15.65
10876,7.26
10887,27.19
10898,43.09
10910,54.83
10922,62.76
10934,67.33
10946,68.99
10958,68.19
10970,65.47
10982,61.49
10994,56.93
11006,52.31
11018,47.97
11030,44.06
11042,40.67
11054,37.89
11066,35.93
11077,34.95
11088,35.02
11100,36.0
11112,37.51
11124,39.02
11136,40.02
11148,40.11
11160,39.16
11172,37.23
11184,34.54
11196,31.32
11208,27.73
11220,23.92
11232,19.96
11244,15.97
11256,12.06
11267,8.39
11278,5.02
11290,2.05
11302,-0.5
11314,-2.63
11326,-4.26
11338,-5.35
11350,-5.8
11362,-5.55
11374,-4.6
11386,-3.07
11398,-1.18
11410,0.71
11422,2.21
11434,2.99
11446,2.88
11457,1.95
11468,0.48
11480,-1.17
11492,-2.69
11504,-3.97
11516,-5.18
11528,-6.72
11540,-9.03
11552,-12.42
11564,-16.89
11576,-22.12
11588,-27.56
11600,-32.69
11612,-37.21
11624,-41.23
11636,-45.26
11647,-50.02
11658,-56.4
11670,-64.96
11682,-75.74
11694,-87.83
11706,-99.32
11718,-107.55
11730,-109.78
11742,-104.13
11754,-90.27
11766,-69.74
11778,-45.44
11790,-20.78
11802,1.36
11814,19.21
11826,32.22
11837,40.68
11848,45.28
11860,46.73
11872,45.68
11884,42.81
11896,38.82
11908,34.41
11920,30.09
11932,26.18
11944,22.81
11956,20.08
11968,18.13
11980,17.22
11992,17.59
12004,19.38
12016,22.46
12027,26.49
12038,30.92
12050,35.1
12062,38.41
12074,40.37
12086,40.7
12098,39.48
12110,37.03
12122,33.9
12134,30.63
12146,27.63
12158,25.0
12170,22.59
12182,20.13
12194,17.38
12206,14.3
12217,11.08
12228,8.01
12240,5.35
12252,3.12
12264,1.16
12276,-0.84
12288,-3.13
12300,-5.74
12312,-8.52
12324,-11.24
12336,-13.73
12348,-16.03
12360,-18.39
12372,-21.13
12384,-24.47
12396,-28.44
12407,-32.83
12418,-37.31
12430,-41.57
12442,-45.44
12454,-49.0
12466,-52.55
12478,-56.61
12490,-61.82
12502,-68.8
12514,-77.86
12526,-88.69
12538,-100.03
12550,-109.68
12562,-114.9
12574,-113.2
12586,-103.16
12597,-85.1
12608,-61.01
12620,-34.04
12632,-7.51
12644,15.95
12656,34.88
12668,48.96
12680,58.58
12692,64.33
12704,66.72
12716,66.18
12728,63.24
12740,58.59
12752,53.17
12764,47.88
12776,43.42
12787,40.11
12798,37.93
12810,36.73
12822,36.39
12834,36.94
12846,38.49
12858,41.09
12870,44.57
12882,48.46
12894,52.14
12906,54.95
12918,56.46
12930,56.48
12942,55.1
12954,52.58
12966,49.26
12977,45.45
12988,41.35
13000,37.12
13012,32.82
13024,28.53
13036,24.35
13048,20.43
13060,16.81
13072,13.49
13084,10.29
13096,6.97
13108,3.33
13120,-0.64
13132,-4.75
13144,-8.66
13156,-12.09
13167,-15.01
13178,-17.67
13190,-20.59
13202,-24.29
13214,-29.13
13226,-35.06
13238,-41.72
13250,-48.55
13262,-54.99
13274,-60.72
13286,-65.76
13298,-70.42
13310,-75.28
13322,-81.03
13334,-88.32
13346,-97.49
13357,-108.16
13368,-118.97
13380,-127.51
13392,-130.87
13404,-126.44
13416,-112.92
13428,-90.93
13440,-62.97
13452,-32.61
13464,-3.46
13476,21.83
13488,41.89
13500,56.55
13512,66.31
13524,71.87
13536,73.9
13547,73.09
13558,70.17
13570,65.95
13582,61.22
13594,56.53
13606,52.19
13618,48.34
13630,45.07
13642,42.52
13654,40.92
13666,40.43
13678,41.11
13690,42.83
13702,45.26
13714,47.96
13726,50.45
13737,52.3
13748,53.09
13760,52.56
13772,50.6
13784,47.3
13796,42.98
13808,38.08
13820,33.08
13832,28.41
13844,24.34
13856,21.0
13868,18.37
13880,16.27
13892,14.45
13904,12.64
13916,10.56
13927,8.14
13938,5.47
13950,2.82
13962,0.54
13974,-1.19
13986,-2.48
13998,-3.78
14010,-5.74
14022,-8.93
14034,-13.5
14046,-19.19
14058,-25.38
14070,-31.38
14082,-36.76
14094,-41.49
14106,-45.93
14117,-50.69
14128,-56.49
14140,-63.96
14152,-73.41
14164,-84.52
14176,-96.06
14188,-105.88
14200,-111.23
14212,-109.58
14224,-99.51
14236,-81.38
14248,-57.35
14260,-30.78
14272,-5.15
14284,16.87
14296,33.86
14307,45.63
14318,52.74
14330,55.95
14342,55.92
14354,53.24
14366,48.51
14378,42.48
14390,36.05
14402,30.08
14414,25.19
14426,21.69
14438,19.59
14450,18.77
14462,19.14
14474,20.66
14486,23.33
14497,27.09
14508,31.63
14520,36.37
14532,40.51
14544,43.25
14556,44.02
14568,42.66
14580,39.47
14592,35.11
14604,30.39
14616,25.97
14628,22.11
14640,18.67
14652,15.19
14664,11.14
14676,6.24
14687,0.53
14698,-5.54
14710,-11.36
14722,-16.43
14734,-20.58
14746,-24.15
14758,-27.83
14770,-32.32
14782,-38.01
14794,-44.74
14806,-51.89
14818,-58.66
14830,-64.45
14842,-69.12
14854,-73.09
14866,-77.16
14877,-82.28
14888,-89.28
14900,-98.57
14912,-109.86
14924,-121.87
14936,-132.31
14948,-138.21
14960,-136.7
14972,-125.97
14984,-106.05
14996,-78.93
15008,-47.97
15020,-16.88
15032,11.32
15044,34.9
15056,53.33
15067,66.89
15078,76.14
15090,81.65
15102,83.92
15114,83.56
15126,81.31
15138,78.02
15150,74.43
15162,71.08
15174,68.26
15186,66.09
15198,64.66
15210,64.12
15222,64.64
15234,66.33
15246,69.12
15257,72.61
15268,76.17
15280,79.01
15292,80.43
15304,79.99
15316,77.66
15328,73.73
15340,68.74
15352,63.24
15364,57.66
15376,52.24
15388,46.99
15400,41.78
15412,36.46
15424,30.92
15436,25.18
15447,19.41
15458,13.86
15470,8.76
15482,4.28
15494,0.35
15506,-3.22
15518,-6.65
15530,-10.07
15542,-13.44
15554,-16.55
15566,-19.2
15578,-21.39
15590,-23.37
15602,-25.66
15614,-28.75
15626,-32.97
15637,-38.18
15648,-43.94
15660,-49.56
15672,-54.46
15684,-58.4
15696,-61.6
15708,-64.74
15720,-68.8
15732,-74.85
15744,-83.61
15756,-95.03
15768,-107.84
15780,-119.57
15792,-126.85
15804,-126.47
15816,-116.39
15827,-96.61
15838,-69.31
15850,-38.17
15862,-7.26
15874,20.09
15886,41.99
15898,57.96
15910,68.51
15922,74.58
15934,77.05
15946,76.71
15958,74.18
15970,70.03
15982,64.85
15994,59.16
16006,53.43
16017,48.11
16028,43.55
16040,40.06
16052,37.89
16064,37.22
16076,38.07
16088,40.32
16100,43.59
16112,47.31
16124,50.7
16136,53.0
16148,53.64
16160,52.4
16172,49.47
16184,45.32
16196,40.58
16207,35.75
16218,31.16
16230,26.92
16242,23.01
16254,19.3
16266,15.73
16278,12.27
16290,8.86
16302,5.44
16314,1.94
16326,-1.72
16338,-5.52
16350,-9.34
16362,-12.98
16374,-16.22
16386,-18.99
16397,-21.41
16408,-23.86
16420,-26.81
16432,-30.66
16444,-35.58
16456,-41.32
16468,-47.38
16480,-53.15
16492,-58.17
16504,-62.4
16516,-66.2
16528,-70.32
16540,-75.55
16552,-82.6
16564,-91.65
16576,-102.04
16587,-112.13
16598,-119.41
16610,-120.99
16622,-114.5
16634,-98.95
16646,-75.36
16658,-46.52
16670,-16.24
16682,11.8
16694,35.07
16706,52.6
16718,64.66
16730,72.19
16742,76.05
16754,76.81
16766,74.84
16777,70.56
16788,64.72
16800,58.22
16812,52.03
16824,46.89
16836,43.23
16848,41.18
16860,40.75
16872,41.89
16884,44.48
16896,48.27
16908,52.77
16920,57.36
16932,61.34
16944,64.09
16956,65.23
16967,64.65
16978,62.48
16990,58.99
17002,54.55
17014,49.51
17026,44.16
17038,38.71
17050,33.25
17062,27.78
17074,22.24
17086,16.58
17098,10.77
17110,4.9
17122,-0.91
17134,-6.52
17146,-11.82
17157,-16.78
17168,-21.34
17180,-25.45
17192,-29.08
17204,-32.25
17216,-35.06
17228,-37.76
17240,-40.63
17252,-43.91
17264,-47.62
17276,-51.58
17288,-55.41
17300,-58.78
17312,-61.61
17324,-64.13
17336,-66.97
17347,-70.91
17358,-76.74
17370,-84.83
17382,-94.81
17394,-105.25
17406,-113.74
17418,-117.31
17430,-113.29
17442,-100.23
17454,-78.59
17466,-50.66
17478,-20.01
17490,9.63
17502,35.32
17514,55.48
17526,69.85
17537,79.04
17548,83.98
17560,85.53
17572,84.39
17584,81.14
17596,76.37
17608,70.72
17620,64.8
17632,59.2
17644,54.3
17656,50.27
17668,47.19
17680,45.08
17692,44.02
17704,44.15
17716,45.54
17727,48.06
17738,51.28
17750,54.48
17762,56.85
17774,57.68
17786,56.63
17798,53.78
17810,49.61
17822,44.79
17834,39.98
17846,35.67
17858,31.99
17870,28.8
17882,25.76
17894,22.54
17906,18.97
17917,15.13
17928,11.3
17940,7.86
17952,5.18
17964,3.41
17976,2.43
17988,1.89
18000,1.23
18012,0.01
18024,-2.04
18036,-4.87
18048,-8.13
18060,-11.37
18072,-14.27
18084,-16.82
18096,-19.32
18107,-22.28
18118,-26.11
18130,-30.94
18142,-36.53
18154,-42.38
18166,-47.92
18178,-52.74
18190,-56.76
18202,-60.28
18214,-63.91
18226,-68.4
18238,-74.54
18250,-82.84
18262,-93.15
18274,-104.38
18286,-114.33
18297,-120.07
18308,-118.73
18320,-108.52
18332,-89.54
18344,-63.93
18356,-35.27
18368,-7.46
18380,16.42
18392,34.74
18404,47.34
18416,54.97
18428,58.62
18440,59.13
18452,57.13
18464,53.11
18476,47.69
18487,41.56
18498,35.48
18510,30.03
18522,25.64
18534,22.49
18546,20.62
18558,20.04
18570,20.75
18582,22.75
18594,25.96
18606,30.14
18618,34.82
18630,39.33
18642,42.84
18654,44.64
18666,44.33
18677,42.01
18688,38.24
18700,33.81
18712,29.46
18724,25.62
18736,22.29
18748,19.1
18760,15.59
18772,11.42
18784,6.5
18796,1.14
18808,-4.18
18820,-8.86
18832,-12.42
18844,-14.67
18856,-15.79
18867,-16.34
18878,-17.06
18890,-18.63
18902,-21.41
18914,-25.28
18926,-29.75
18938,-34.15
18950,-37.95
18962,-40.96
18974,-43.5
18986,-46.27
18998,-50.16
19010,-55.97
19022,-64.05
19034,-74.02
19046,-84.48
19057,-93.14
19068,-97.24
19080,-94.29
19092,-83.03
19104,-63.97
19116,-39.4
19128,-12.74
19140,12.5
19152,33.68
19164,49.57
19176,60.17
19188,66.23
19200,68.69
19212,68.32
19224,65.66
19236,61.24
19247,55.67
19258,49.65
19270,43.84
19282,38.71
19294,34.5
19306,31.3
19318,29.16
19330,28.14
19342,28.32
19354,29.7
19366,32.1
19378,35.14
19390,38.27
19402,40.88
19414,42.41
19426,42.56
19437,41.33
19448,38.94
19460,35.8
19472,32.31
19484,28.76
19496,25.26
19508,21.83
19520,18.4
19532,14.98
19544,11.59
19556,8.26
19568,4.97
19580,1.68
19592,-1.65
19604,-4.97
19616,-8.11
19627,-10.84
19638,-12.98
19650,-14.52
19662,-15.74
19674,-17.1
19686,-19.18
19698,-22.34
19710,-26.68
19722,-31.92
19734,-37.5
19746,-42.8
19758,-47.4
19770,-51.23
19782,-54.63
19794,-58.28
19806,-63.02
19817,-69.6
19828,-78.35
19840,-88.81
19852,-99.54
19864,-108.18
19876,-111.89
19888,-108.25
19900,-96.15
19912,-76.32
19924,-51.26
19936,-24.45
19948,0.7
19960,21.77
19972,37.69
19984,48.57
19996,55.16
20007,58.31
20018,58.73
20030,56.89
20042,53.3
20054,48.57
20066,43.35
20078,38.29
20090,33.89
20102,30.42
20114,28.0
20126,26.66
20138,26.45
20150,27.43
20162,29.69
20174,33.16
20186,37.49
20197,42.04
20208,45.92
20220,48.23
20232,48.42
20244,46.41
20256,42.66
20268,38.01
20280,33.29
20292,29.07
20304,25.47
20316,22.16
20328,18.65
20340,14.57
20352,9.81
20364,4.65
20376,-0.48
20387,-5.18
20398,-9.28
20410,-12.93
20422,-16.57
20434,-20.66
20446,-25.52
20458,-31.12
20470,-37.1
20482,-42.93
20494,-48.11
20506,-52.46
20518,-56.17
20530,-59.82
20542,-64.17
20554,-69.98
20566,-77.73
20577,-87.31
20588,-97.74
20600,-107.11
20612,-112.88
20624,-112.48
20636,-104.19
20648,-87.86
20660,-65.14
20672,-38.99
20684,-12.83
20696,10.51
20708,29.37
20720,43.37
20732,53.0
20744,59.03
20756,62.12
20767,62.72
20778,61.2
20790,58.05
20802,53.94
20814,49.63
20826,45.75
20838,42.76
20850,40.83
20862,39.96
20874,40.1
20886,41.17
20898,43.11
20910,45.76
20922,48.8
20934,51.79
20946,54.17
20957,55.43
20968,55.24
20980,53.51
20992,50.39
