seconds,BVP
3,40.46
15,42.75
27,44.08
39,44.31
50,43.23
61,40.76
73,37.12
85,32.86
97,28.74
109,25.39
121,23.08
133,21.55
145,20.17
157,18.28
169,15.59
181,12.41
193,9.58
205,8.17
217,9.02
229,12.49
240,18.43
251,26.28
263,35.49
275,45.76
287,57.12
299,69.87
311,84.33
323,100.54
335,118.05
347,135.94
359,153.02
371,168.18
383,180.82
395,191.04
407,199.7
419,208.18
430,218.03
441,230.73
453,247.18
465,267.35
477,289.76
489,311.4
501,328.26
513,336.36
525,333.18
537,318.47
549,294.34
561,264.17
573,231.27
585,197.67
597,163.94
609,129.8
620,94.97
631,59.8
643,25.06
655,-8.65
667,-41.54
679,-74.77
691,-110.1
703,-149.32
715,-193.58
727,-242.76
739,-294.92
751,-346.12
763,-390.88
775,-423.36
787,-439.06
799,-436.16
810,-416.11
821,-382.89
833,-341.54
845,-296.59
857,-251.24
869,-207.39
881,-166.2
893,-128.68
905,-95.73
917,-67.83
929,-44.64
941,-25.04
953,-7.49
965,9.34
977,26.17
989,42.96
1000,59.02
1011,73.09
1023,83.61
1035,88.87
1047,87.45
1059,78.71
1071,63.17
1083,42.65
1095,19.79
1107,-2.59
1119,-22.4
1131,-38.67
1143,-51.58
1155,-61.88
1167,-70.26
1179,-76.99
1190,-81.9
1201,-84.84
1213,-86.0
1225,-86.03
1237,-85.66
1249,-85.34
1261,-84.89
1273,-83.6
1285,-80.76
1297,-76.07
1309,-70.04
1321,-63.82
1333,-58.79
1345,-56.03
1357,-55.96
1369,-58.37
1380,-62.59
1391,-67.96
1403,-73.98
1415,-80.4
1427,-86.96
1439,-93.18
1451,-98.13
1463,-100.61
1475,-99.51
1487,-94.22
1499,-84.87
1511,-72.32
1523,-57.8
1535,-42.45
1547,-27.13
1559,-12.32
1570,1.66
1581,14.46
1593,25.72
1605,35.19
1617,43.0
1629,49.64
1641,55.87
1653,62.23
1665,68.73
1677,74.75
1689,79.18
1701,80.99
1713,79.62
1725,75.23
1737,68.55
1749,60.47
1760,51.63
1771,42.2
1783,31.99
1795,20.73
1807,8.33
1819,-4.97
1831,-18.71
1843,-32.4
1855,-45.58
1867,-57.87
1879,-68.93
1891,-78.44
1903,-86.21
1915,-92.25
1927,-96.85
1939,-100.4
1950,-103.23
1961,-105.41
1973,-106.85
1985,-107.55
1997,-107.76
2009,-108.11
2021,-109.46
2033,-112.5
2045,-117.3
2057,-123.03
2069,-128.15
2081,-130.87
2093,-129.98
2105,-125.32
2117,-117.99
2129,-109.83
2140,-102.59
2151,-97.16
2163,-93.17
2175,-89.29
2187,-84.02
2199,-76.53
2211,-67.13
2223,-57.09
2235,-47.91
2247,-40.33
2259,-33.73
2271,-26.12
2283,-14.86
2295,2.34
2307,26.3
2319,55.76
2330,87.6
2341,117.55
2353,141.52
2365,156.7
2377,162.52
2389,161.06
2401,157.0
2413,156.88
2425,167.57
2437,193.95
2449,236.45
2461,289.8
2473,343.82
2485,386.6
2497,408.67
2509,406.47
2520,383.07
2531,345.98
2543,303.18
2555,259.7
2567,216.39
2579,171.31
2591,122.75
2603,71.77
2615,22.72
2627,-18.52
2639,-47.43
2651,-63.03
2663,-68.27
2675,-68.46
2687,-68.94
2699,-73.32
2710,-82.66
2721,-95.57
2733,-108.61
2745,-116.8
2757,-114.6
2769,-97.71
2781,-65.28
2793,-21.61
2805,24.07
2817,60.25
2829,77.42
2841,71.86
2853,46.97
2865,11.45
2877,-24.82
2889,-54.57
2900,-75.08
2911,-87.61
2923,-95.26
2935,-101.12
2947,-107.22
2959,-114.6
2971,-123.81
2983,-135.22
2995,-148.78
3007,-163.49
3019,-177.12
3031,-186.28
3043,-187.39
3055,-178.05
3067,-158.31
3079,-131.22
3090,-102.19
3101,-77.15
3113,-60.53
3125,-53.78
3137,-55.12
3149,-60.68
3161,-66.28
3173,-69.0
3185,-67.9
3197,-63.74
3209,-58.21
3221,-53.12
3233,-49.92
3245,-49.43
3257,-51.92
3269,-57.03
3280,-64.01
3291,-71.93
3303,-80.03
3315,-88.03
3327,-96.18
3339,-105.07
3351,-115.04
3363,-125.83
3375,-136.33
3387,-144.75
3399,-149.14
3411,-148.0
3423,-140.76
3435,-127.94
3447,-110.9
3459,-91.42
3470,-71.17
3481,-51.38
3493,-32.79
3505,-15.8
3517,-0.66
3529,12.34
3541,22.93
3553,31.0
3565,36.74
3577,40.64
3589,43.34
3601,45.4
3613,47.14
3625,48.58
3637,49.5
3649,49.69
3660,49.07
3671,47.77
3683,46.04
3695,44.15
3707,42.21
3719,40.11
3731,37.58
3743,34.31
3755,30.11
3767,25.09
3779,19.73
3791,14.82
3803,11.35
3815,10.16
3827,11.79
3839,16.23
3850,23.01
3861,31.28
3873,40.16
3885,48.83
3897,56.69
3909,63.28
3921,68.23
3933,71.25
3945,72.16
3957,71.03
3969,68.15
3981,64.08
3993,59.5
4005,55.02
4017,51.11
4029,48.05
4040,45.89
4051,44.56
4063,43.86
4075,43.48
4087,43.05
4099,42.16
4111,40.38
4123,37.34
4135,32.86
4147,26.98
4159,20.03
4171,12.67
4183,5.81
4195,0.42
4207,-2.64
4219,-2.83
4230,-0.1
4241,5.11
4253,12.02
4265,19.72
4277,27.41
4289,34.48
4301,40.53
4313,45.35
4325,48.81
4337,50.89
4349,51.7
4361,51.47
4373,50.48
4385,49.05
4397,47.42
4409,45.69
4420,43.87
4431,41.96
4443,39.99
4455,38.05
4467,36.21
4479,34.48
4491,32.75
4503,30.78
4515,28.26
4527,24.95
4539,20.73
4551,15.75
4563,10.47
4575,5.59
4587,1.97
4599,0.38
4610,1.34
4621,4.94
4633,10.77
4645,18.06
4657,25.85
4669,33.22
4681,39.52
4693,44.43
4705,47.92
4717,50.13
4729,51.3
4741,51.64
4753,51.31
4765,50.46
4777,49.17
4789,47.57
4800,45.73
4811,43.74
4823,41.68
4835,39.58
4847,37.43
4859,35.21
4871,32.79
4883,30.01
4895,26.7
4907,22.68
4919,17.9
4931,12.45
4943,6.65
4955,1.07
4967,-3.57
4979,-6.46
4990,-6.96
5001,-4.74
5013,0.05
5025,6.83
5037,14.69
5049,22.58
5061,29.64
5073,35.31
5085,39.39
5097,42.03
5109,43.45
5121,43.88
5133,43.42
5145,42.06
5157,39.87
5169,37.01
5180,33.78
5191,30.56
5203,27.6
5215,24.98
5227,22.6
5239,20.25
5251,17.69
5263,14.76
5275,11.34
5287,7.39
5299,2.89
5311,-2.12
5323,-7.54
5335,-13.13
5347,-18.49
5359,-23.0
5370,-25.98
5381,-26.81
5393,-25.11
5405,-20.91
5417,-14.65
5429,-7.09
5441,0.85
5453,8.38
5465,14.88
5477,19.98
5489,23.51
5501,25.43
5513,25.83
5525,24.89
5537,22.9
5549,20.25
5560,17.32
5571,14.39
5583,11.63
5595,9.09
5607,6.7
5619,4.38
5631,2.04
5643,-0.39
5655,-2.94
5667,-5.67
5679,-8.58
5691,-11.7
5703,-15.04
5715,-18.59
5727,-22.28
5739,-25.83
5750,-28.73
5761,-30.33
5773,-29.98
5785,-27.34
5797,-22.5
5809,-16.04
5821,-8.82
5833,-1.66
5845,4.8
5857,10.26
5869,14.62
5881,17.86
5893,19.94
5905,20.8
5917,20.49
5929,19.19
5940,17.29
5951,15.24
5963,13.45
5975,12.13
5987,11.28
5999,10.69
6011,10.02
6023,8.87
6035,6.95
6047,4.08
6059,0.32
6071,-4.11
6083,-8.91
6095,-13.77
6107,-18.46
6119,-22.84
6130,-26.79
6141,-30.21
6153,-32.89
6165,-34.62
6177,-35.06
6189,-33.98
6201,-31.19
6213,-26.71
6225,-20.78
6237,-13.86
6249,-6.52
6261,0.67
6273,7.27
6285,13.05
6297,17.9
6309,21.78
6320,24.63
6331,26.3
6343,26.66
6355,25.64
6367,23.25
6379,19.67
6391,15.18
6403,10.15
6415,4.98
6427,0.02
6439,-4.43
6451,-8.14
6463,-10.95
6475,-12.68
6487,-13.23
6499,-12.6
6510,-10.97
6521,-8.74
6533,-6.51
6545,-4.93
6557,-4.57
6569,-5.71
6581,-8.29
6593,-11.86
6605,-15.69
6617,-18.97
6629,-20.97
6641,-21.3
6653,-19.9
6665,-16.99
6677,-12.91
6689,-7.92
6700,-2.16
6711,4.21
6723,10.9
6735,17.35
6747,22.78
6759,26.54
6771,28.27
6783,28.14
6795,26.66
6807,24.43
6819,21.88
6831,19.05
6843,15.76
6855,11.76
6867,6.98
6879,1.7
6890,-3.49
6901,-7.81
6913,-10.38
6925,-10.44
6937,-7.38
6949,-0.95
6961,8.6
6973,20.42
6985,33.11
6997,44.99
7009,54.53
7021,60.8
7033,63.66
7045,63.71
7057,61.96
7069,59.5
7080,57.11
7091,55.14
7103,53.46
7115,51.4
7127,47.85
7139,41.37
7151,30.59
7163,14.65
7175,-6.27
7187,-30.86
7199,-56.87
7211,-81.74
7223,-103.27
7235,-120.05
7247,-131.55
7259,-137.86
7270,-139.36
7281,-136.55
7293,-130.1
7305,-120.95
7317,-110.38
7329,-99.8
7341,-90.47
7353,-83.17
7365,-78.03
7377,-74.59
7389,-72.06
7401,-69.71
7413,-67.04
7425,-63.87
7437,-60.2
7449,-55.95
7460,-50.82
7471,-44.37
7483,-36.22
7495,-26.33
7507,-15.24
7519,-3.87
7531,6.69
7543,15.66
7555,22.78
7567,28.35
7579,32.94
7591,37.03
7603,40.75
7615,43.79
7627,45.62
7639,45.78
7650,44.13
7661,40.97
7673,36.87
7685,32.46
7697,28.14
7709,24.01
7721,19.96
7733,15.87
7745,11.84
7757,8.19
7769,5.28
7781,3.29
7793,2.03
7805,0.99
7817,-0.38
7829,-2.38
7840,-4.85
7851,-7.21
7863,-8.64
7875,-8.46
7887,-6.31
7899,-2.29
7911,3.13
7923,9.26
7935,15.33
7947,20.66
7959,24.76
7971,27.31
7983,28.19
7995,27.45
8007,25.29
8019,22.0
8030,18.03
8041,13.85
8053,9.98
8065,6.79
8077,4.48
8089,2.99
8101,2.15
8113,1.68
8125,1.36
8137,1.13
8149,1.05
8161,1.28
8173,1.96
8185,3.05
8197,4.31
8209,5.32
8220,5.64
8231,5.0
8243,3.48
8255,1.42
8267,-0.61
8279,-2.11
8291,-2.74
8303,-2.39
8315,-1.13
8327,0.9
8339,3.54
8351,6.53
8363,9.55
8375,12.23
8387,14.19
8399,15.18
8410,15.21
8421,14.54
8433,13.65
8445,13.11
8457,13.44
8469,14.91
8481,17.47
8493,20.74
8505,24.08
8517,26.81
8529,28.39
8541,28.5
8553,27.14
8565,24.54
8577,21.01
8589,16.98
8600,12.82
8611,8.93
8623,5.65
8635,3.25
8647,1.93
8659,1.73
8671,2.65
8683,4.62
8695,7.53
8707,11.25
8719,15.55
8731,20.21
8743,25.0
8755,29.88
8767,35.11
8779,41.19
8790,48.7
8801,58.02
8813,69.06
8825,81.16
8837,93.27
8849,104.13
8861,112.59
8873,117.76
8885,119.01
8897,116.0
8909,108.69
8921,97.47
8933,83.19
8945,67.05
8957,50.3
8969,33.93
8980,18.32
8991,3.28
9003,-11.79
9015,-27.53
9027,-44.28
9039,-61.88
9051,-79.59
9063,-96.21
9075,-110.23
9087,-120.2
9099,-124.98
9111,-124.09
9123,-117.76
9135,-106.95
9147,-93.04
9159,-77.54
9170,-61.71
9181,-46.47
9193,-32.38
9205,-19.72
9217,-8.71
9229,0.38
9241,7.16
9253,11.11
9265,11.62
9277,8.19
9289,0.59
9301,-10.95
9313,-25.6
9325,-42.03
9337,-58.57
9349,-73.52
9360,-85.45
9371,-93.43
9383,-97.1
9395,-96.67
9407,-92.75
9419,-86.13
9431,-77.66
9443,-68.07
9455,-57.96
9467,-47.78
9479,-37.87
9491,-28.45
9503,-19.71
9515,-11.83
9527,-4.97
9539,0.67
9550,4.9
9561,7.56
9573,8.56
9585,7.97
9597,5.93
9609,2.73
9621,-1.28
9633,-5.66
9645,-9.96
9657,-13.72
9669,-16.56
9681,-18.23
9693,-18.68
9705,-18.12
9717,-16.93
9729,-15.6
9740,-14.54
9751,-14.02
9763,-14.06
9775,-14.43
9787,-14.78
9799,-14.67
9811,-13.81
9823,-12.06
9835,-9.53
9847,-6.53
9859,-3.48
9871,-0.76
9883,1.39
9895,2.9
9907,3.88
9919,4.53
9930,5.03
9941,5.47
9953,5.87
9965,6.19
9977,6.38
9989,6.4
10001,6.22
10013,5.77
10025,4.98
10037,3.76
10049,2.13
10061,0.23
10073,-1.69
10085,-3.27
10097,-4.27
10109,-4.57
10120,-4.23
10131,-3.37
10143,-2.16
10155,-0.64
10167,1.23
10179,3.57
10191,6.44
10203,9.78
10215,13.39
10227,16.95
10239,20.13
10251,22.71
10263,24.63
10275,25.97
10287,26.9
10299,27.57
10310,28.09
10321,28.46
10333,28.61
10345,28.46
10357,27.93
10369,26.92
10381,25.36
10393,23.21
10405,20.55
10417,17.59
10429,14.72
10441,12.35
10453,10.81
10465,10.22
10477,10.4
10489,10.93
10500,11.22
10511,10.77
10523,9.34
10535,7.13
10547,4.86
10559,3.55
10571,4.27
10583,7.72
10595,13.92
10607,22.14
10619,31.16
10631,39.78
10643,47.33
10655,54.01
10667,60.75
10679,68.66
10690,78.36
10701,89.41
10713,100.21
10725,108.4
10737,111.57
10749,108.03
10761,97.43
10773,81.17
10785,62.47
10797,46.11
10809,37.48
10821,40.7
10833,56.7
10845,81.96
10857,109.09
10869,129.03
10880,134.21
10891,121.09
10903,91.24
10915,50.52
10927,7.28
10939,-29.87
10951,-53.85
10963,-60.48
10975,-49.35
10987,-24.12
10999,8.19
11011,38.98
11023,60.7
11035,69.19
11047,64.73
11059,51.33
11070,34.61
11081,19.69
11093,9.84
11105,6.3
11117,8.81
11129,16.14
11141,26.42
11153,37.28
11165,46.06
11177,50.26
11189,48.33
11201,40.18
11213,27.36
11225,12.56
11237,-1.2
11249,-11.56
11260,-17.54
11271,-19.65
11283,-19.4
11295,-18.44
11307,-17.71
11319,-17.18
11331,-16.4
11343,-15.42
11355,-15.37
11367,-18.29
11379,-26.22
11391,-40.05
11403,-58.76
11415,-79.52
11427,-98.74
11439,-113.28
11450,-121.46
11461,-123.35
11473,-120.42
11485,-114.72
11497,-107.94
11509,-100.66
11521,-92.12
11533,-80.36
11545,-63.01
11557,-38.38
11569,-6.39
11581,31.1
11593,70.84
11605,109.18
11617,143.12
11629,170.53
11640,189.97
11651,200.28
11663,200.55
11675,190.39
11687,170.54
11699,143.06
11711,110.98
11723,77.21
11735,43.56
11747,10.02
11759,-25.08
11771,-64.14
11783,-108.77
11795,-158.28
11807,-208.95
11819,-254.43
11830,-287.54
11841,-302.73
11853,-298.09
11865,-276.24
11877,-243.25
11889,-206.51
11901,-172.22
11913,-143.97
11925,-122.65
11937,-107.48
11949,-97.39
11961,-91.77
11973,-90.41
11985,-92.88
11997,-98.08
12009,-104.25
12020,-109.51
12031,-112.51
12043,-112.78
12055,-110.74
12067,-107.24
12079,-102.99
12091,-98.22
12103,-92.61
12115,-85.55
12127,-76.55
12139,-65.6
12151,-53.33
12163,-40.84
12175,-29.32
12187,-19.71
12199,-12.37
12210,-7.06
12221,-3.14
12233,0.12
12245,3.25
12257,6.39
12269,9.29
12281,11.54
12293,12.78
12305,12.89
12317,12.13
12329,10.95
12341,9.91
12353,9.4
12365,9.54
12377,10.16
12389,10.92
12400,11.5
12411,11.73
12423,11.65
12435,11.42
12447,11.21
12459,11.06
12471,10.85
12483,10.36
12495,9.39
12507,7.8
12519,5.55
12531,2.71
12543,-0.59
12555,-4.07
12567,-7.33
12579,-9.85
12590,-11.09
12601,-10.61
12613,-8.26
12625,-4.21
12637,1.06
12649,6.92
12661,12.76
12673,18.15
12685,22.87
12697,26.83
12709,30.04
12721,32.54
12733,34.37
12745,35.61
12757,36.33
12769,36.64
12780,36.62
12791,36.36
12803,35.92
12815,35.38
12827,34.8
12839,34.25
12851,33.77
12863,33.36
12875,32.99
12887,32.52
12899,31.83
12911,30.83
12923,29.46
12935,27.77
12947,25.83
12959,23.76
12970,21.61
12981,19.41
12993,17.17
13005,14.9
13017,12.59
13029,10.18
13041,7.57
13053,4.7
13065,1.62
13077,-1.38
13089,-3.79
13101,-5.02
13113,-4.66
13125,-2.64
13137,0.69
13149,4.7
13160,8.77
13171,12.46
13183,15.63
13195,18.34
13207,20.67
13219,22.55
13231,23.8
13243,24.24
13255,23.81
13267,22.72
13279,21.28
13291,19.84
13303,18.62
13315,17.63
13327,16.8
13339,16.05
13350,15.33
13361,14.69
13373,14.16
13385,13.65
13397,13.01
13409,12.03
13421,10.56
13433,8.62
13445,6.41
13457,4.14
13469,2.03
13481,0.11
13493,-1.79
13505,-3.94
13517,-6.65
13529,-9.98
13540,-13.72
13551,-17.36
13563,-20.22
13575,-21.67
13587,-21.39
13599,-19.4
13611,-16.07
13623,-11.92
13635,-7.47
13647,-3.1
13659,0.94
13671,4.49
13683,7.47
13695,9.8
13707,11.48
13719,12.57
13730,13.16
13741,13.35
13753,13.23
13765,12.83
13777,12.14
13789,11.21
13801,10.14
13813,9.05
13825,8.11
13837,7.41
13849,6.93
13861,6.57
13873,6.11
13885,5.35
13897,4.13
13909,2.42
13920,0.22
13931,-2.42
13943,-5.45
13955,-8.75
13967,-12.11
13979,-15.16
13991,-17.44
14003,-18.52
14015,-18.14
14027,-16.3
14039,-13.26
14051,-9.47
14063,-5.36
14075,-1.37
14087,2.18
14099,5.07
14110,7.09
14121,8.13
14133,8.18
14145,7.34
14157,5.84
14169,3.94
14181,1.95
14193,0.07
14205,-1.56
14217,-2.92
14229,-4.07
14241,-5.1
14253,-6.03
14265,-6.85
14277,-7.38
14289,-7.42
14300,-6.84
14311,-5.67
14323,-4.17
14335,-2.84
14347,-2.26
14359,-2.92
14371,-5.05
14383,-8.6
14395,-13.16
14407,-18.1
14419,-22.68
14431,-26.22
14443,-28.21
14455,-28.4
14467,-26.83
14479,-23.76
14490,-19.63
14501,-14.87
14513,-9.85
14525,-4.77
14537,0.26
14549,5.16
14561,9.82
14573,14.1
14585,17.8
14597,20.8
14609,23.0
14621,24.45
14633,25.23
14645,25.46
14657,25.22
14669,24.54
14680,23.47
14691,22.06
14703,20.43
14715,18.74
14727,17.12
14739,15.6
14751,14.11
14763,12.47
14775,10.45
14787,7.85
14799,4.57
14811,0.68
14823,-3.64
14835,-8.06
14847,-12.21
14859,-15.67
14870,-18.08
14881,-19.17
14893,-18.86
14905,-17.21
14917,-14.45
14929,-10.86
14941,-6.8
14953,-2.55
14965,1.65
14977,5.61
14989,9.19
15001,12.28
15013,14.79
15025,16.67
15037,17.87
15049,18.43
15060,18.43
15071,18.02
15083,17.37
15095,16.59
15107,15.72
15119,14.71
15131,13.53
15143,12.15
15155,10.65
15167,9.12
15179,7.59
15191,6.0
15203,4.23
15215,2.17
15227,-0.24
15239,-2.92
15250,-5.79
15261,-8.85
15273,-12.13
15285,-15.68
15297,-19.36
15309,-22.78
15321,-25.34
15333,-26.41
15345,-25.59
15357,-22.88
15369,-18.67
15381,-13.55
15393,-8.11
15405,-2.8
15417,2.12
15429,6.46
15440,10.02
15451,12.62
15463,14.15
15475,14.66
15487,14.42
15499,13.8
15511,13.21
15523,12.91
15535,12.96
15547,13.27
15559,13.66
15571,13.89
15583,13.79
15595,13.22
15607,12.1
15619,10.43
15630,8.18
15641,5.34
15653,1.89
15665,-2.11
15677,-6.52
15689,-11.06
15701,-15.39
15713,-19.18
15725,-22.21
15737,-24.34
15749,-25.5
15761,-25.64
15773,-24.68
15785,-22.59
15797,-19.47
15809,-15.55
15820,-11.16
15831,-6.67
15843,-2.42
15855,1.37
15867,4.52
15879,6.93
15891,8.56
15903,9.52
15915,10.05
15927,10.46
15939,11.02
15951,11.89
15963,13.01
15975,14.21
15987,15.2
15999,15.83
16010,16.03
16021,15.88
16033,15.53
16045,15.17
16057,14.91
16069,14.75
16081,14.58
16093,14.19
16105,13.34
16117,11.8
16129,9.54
16141,6.68
16153,3.62
16165,0.87
16177,-1.01
16189,-1.53
16200,-0.42
16211,2.37
16223,6.63
16235,11.99
16247,17.89
16259,23.79
16271,29.16
16283,33.64
16295,37.09
16307,39.53
16319,41.18
16331,42.27
16343,43.05
16355,43.7
16367,44.33
16379,44.93
16390,45.44
16401,45.7
16413,45.51
16425,44.71
16437,43.23
16449,41.11
16461,38.46
16473,35.47
16485,32.33
16497,29.2
16509,26.22
16521,23.49
16533,21.03
16545,18.8
16557,16.66
16569,14.45
16580,12.01
16591,9.3
16603,6.47
16615,3.82
16627,1.79
16639,0.82
16651,1.16
16663,2.82
16675,5.51
16687,8.71
16699,11.88
16711,14.59
16723,16.66
16735,18.15
16747,19.28
16759,20.27
16770,21.26
16781,22.27
16793,23.23
16805,24.04
16817,24.63
16829,24.93
16841,24.9
16853,24.48
16865,23.63
16877,22.32
16889,20.53
16901,18.28
16913,15.6
16925,12.58
16937,9.34
16949,5.98
16960,2.62
16971,-0.67
16983,-3.89
16995,-7.02
17007,-10.11
17019,-13.19
17031,-16.27
17043,-19.35
17055,-22.36
17067,-25.13
17079,-27.37
17091,-28.71
17103,-28.83
17115,-27.56
17127,-25.01
17139,-21.57
17150,-17.73
17161,-14.0
17173,-10.72
17185,-8.06
17197,-6.03
17209,-4.65
17221,-3.93
17233,-3.91
17245,-4.56
17257,-5.71
17269,-7.05
17281,-8.2
17293,-8.91
17305,-9.11
17317,-8.93
17329,-8.65
17340,-8.54
17351,-8.75
17363,-9.3
17375,-10.13
17387,-11.11
17399,-12.2
17411,-13.35
17423,-14.6
17435,-16.01
17447,-17.65
17459,-19.57
17471,-21.85
17483,-24.45
17495,-27.25
17507,-29.97
17519,-32.2
17530,-33.44
17541,-33.33
17553,-31.67
17565,-28.56
17577,-24.34
17589,-19.53
17601,-14.64
17613,-10.1
17625,-6.16
17637,-2.94
17649,-0.43
17661,1.43
17673,2.67
17685,3.36
17697,3.58
17709,3.46
17720,3.16
17731,2.89
17743,2.78
17755,2.86
17767,3.05
17779,3.2
17791,3.16
17803,2.86
17815,2.28
17827,1.54
17839,0.74
17851,-0.06
17863,-0.83
17875,-1.63
17887,-2.54
17899,-3.68
17910,-5.14
17921,-6.99
17933,-9.22
17945,-11.77
17957,-14.43
17969,-16.88
17981,-18.72
17993,-19.51
18005,-18.98
18017,-17.04
18029,-13.93
18041,-10.11
18053,-6.11
18065,-2.43
18077,0.67
18089,3.12
18100,4.96
18111,6.28
18123,7.1
18135,7.45
18147,7.35
18159,6.87
18171,6.19
18183,5.49
18195,4.94
18207,4.65
18219,4.59
18231,4.64
18243,4.63
18255,4.4
18267,3.9
18279,3.17
18290,2.37
18301,1.62
18313,0.96
18325,0.31
18337,-0.54
18349,-1.79
18361,-3.57
18373,-5.84
18385,-8.48
18397,-11.25
18409,-13.96
18421,-16.4
18433,-18.37
18445,-19.64
18457,-19.97
18469,-19.2
18480,-17.36
18491,-14.67
18503,-11.52
18515,-8.35
18527,-5.48
18539,-3.08
18551,-1.11
18563,0.51
18575,1.87
18587,3.01
18599,3.89
18611,4.54
18623,5.03
18635,5.5
18647,6.13
18659,7.02
18670,8.16
18681,9.43
18693,10.65
18705,11.62
18717,12.21
18729,12.35
18741,12.06
18753,11.41
18765,10.48
18777,9.35
18789,8.02
18801,6.49
18813,4.76
18825,2.82
18837,0.71
18849,-1.56
18860,-4.01
18871,-6.66
18883,-9.5
18895,-12.4
18907,-15.1
18919,-17.2
18931,-18.3
18943,-18.12
18955,-16.6
18967,-13.94
18979,-10.52
18991,-6.84
19003,-3.3
19015,-0.16
19027,2.47
19039,4.65
19050,6.46
19061,7.96
19073,9.17
19085,10.06
19097,10.67
19109,11.13
19121,11.62
19133,12.33
19145,13.34
19157,14.52
19169,15.64
19181,16.37
19193,16.52
19205,16.09
19217,15.3
19229,14.49
19240,13.94
19251,13.75
19263,13.79
19275,13.74
19287,13.18
19299,11.76
19311,9.26
19323,5.59
19335,0.81
19347,-5.0
19359,-11.69
19371,-19.01
19383,-26.64
19395,-34.08
19407,-40.73
19419,-45.94
19430,-49.15
19441,-50.04
19453,-48.58
19465,-45.08
19477,-40.08
19489,-34.18
19501,-27.91
19513,-21.57
19525,-15.31
19537,-9.2
19549,-3.4
19561,1.76
19573,5.81
19585,8.29
19597,8.88
19609,7.53
19620,4.41
19631,-0.04
19643,-5.25
19655,-10.55
19667,-15.26
19679,-18.73
19691,-20.51
19703,-20.39
19715,-18.47
19727,-15.15
19739,-11.0
19751,-6.66
19763,-2.72
19775,0.3
19787,2.04
19799,2.31
19810,1.12
19821,-1.33
19833,-4.69
19845,-8.54
19857,-12.48
19869,-16.17
19881,-19.37
19893,-21.85
19905,-23.44
19917,-23.92
19929,-23.11
19941,-20.94
19953,-17.5
19965,-13.09
19977,-8.16
19989,-3.21
20000,1.32
20011,5.19
20023,8.33
20035,10.85
20047,12.82
20059,14.32
20071,15.37
20083,15.99
20095,16.27
20107,16.36
20119,16.41
20131,16.53
20143,16.73
20155,16.94
20167,17.09
20179,17.14
20190,17.13
20201,17.1
20213,17.05
20225,16.92
20237,16.61
20249,15.98
20261,14.98
20273,13.61
20285,11.94
20297,10.09
20309,8.13
20321,6.16
20333,4.18
20345,2.14
20357,-0.02
20369,-2.33
20380,-4.73
20391,-7.02
20403,-8.92
20415,-10.13
20427,-10.47
20439,-9.92
20451,-8.62
20463,-6.83
20475,-4.82
20487,-2.77
20499,-0.78
20511,1.11
20523,2.89
20535,4.52
20547,5.96
20559,7.18
20570,8.2
20581,9.09
20593,9.95
20605,10.84
20617,11.79
20629,12.75
20641,13.65
20653,14.37
20665,14.86
20677,15.06
20689,14.96
20701,14.52
20713,13.73
20725,12.59
20737,11.13
20749,9.46
20760,7.69
20771,5.91
20783,4.15
20795,2.36
20807,0.41
20819,-1.81
20831,-4.37
20843,-7.28
20855,-10.5
20867,-13.96
20879,-17.51
20891,-20.89
20903,-23.73
20915,-25.59
20927,-26.09
20939,-25.12
20950,-22.84
20961,-19.66
20973,-16.07
20985,-12.47
20997,-9.07
