seconds,BVP
10,7.14
22,6.58
34,6.02
46,5.66
58,5.63
70,5.95
81,6.47
92,7.0
104,7.4
116,7.61
128,7.69
140,7.67
152,7.53
164,7.19
176,6.56
188,5.64
200,4.49
212,3.3
224,2.25
236,1.47
248,0.98
260,0.71
271,0.57
282,0.45
294,0.29
306,0.06
318,-0.2
330,-0.51
342,-0.85
354,-1.2
366,-1.56
378,-1.88
390,-2.14
402,-2.33
414,-2.48
426,-2.67
438,-3.03
450,-3.63
461,-4.45
472,-5.39
484,-6.29
496,-7.04
508,-7.64
520,-8.21
532,-8.88
544,-9.83
556,-11.07
568,-12.49
580,-13.84
592,-14.79
604,-15.03
616,-14.36
628,-12.74
640,-10.29
651,-7.27
662,-4.0
674,-0.75
686,2.2
698,4.7
710,6.62
722,7.87
734,8.5
746,8.59
758,8.28
770,7.81
782,7.31
794,6.88
806,6.55
818,6.29
830,6.09
841,5.96
852,5.92
864,5.96
876,6.05
888,6.16
900,6.26
912,6.36
924,6.51
936,6.71
948,6.92
960,7.08
972,7.06
984,6.8
996,6.29
1008,5.57
1020,4.72
1031,3.86
1042,3.07
1054,2.42
1066,1.94
1078,1.62
1090,1.38
1102,1.13
1114,0.78
1126,0.28
1138,-0.37
1150,-1.11
1162,-1.86
1174,-2.55
1186,-3.13
1198,-3.63
1210,-4.12
1221,-4.67
1232,-5.32
1244,-6.02
1256,-6.72
1268,-7.33
1280,-7.84
1292,-8.3
1304,-8.8
1316,-9.43
1328,-10.2
1340,-11.04
1352,-11.88
1364,-12.61
1376,-13.16
1388,-13.41
1400,-13.19
1411,-12.27
1422,-10.53
1434,-8.01
1446,-4.95
1458,-1.78
1470,1.11
1482,3.43
1494,5.13
1506,6.33
1518,7.15
1530,7.69
1542,7.92
1554,7.83
1566,7.44
1578,6.92
1590,6.43
1601,6.14
1612,6.12
1624,6.31
1636,6.58
1648,6.86
1660,7.08
1672,7.23
1684,7.31
1696,7.26
1708,7.07
1720,6.74
1732,6.29
1744,5.81
1756,5.37
1768,4.98
1780,4.61
1791,4.18
1802,3.65
1814,2.98
1826,2.24
1838,1.5
1850,0.87
1862,0.37
1874,0.0
1886,-0.3
1898,-0.59
1910,-0.94
1922,-1.38
1934,-1.86
1946,-2.35
1958,-2.79
1970,-3.16
1981,-3.42
1992,-3.59
2004,-3.64
2016,-3.59
2028,-3.46
2040,-3.29
2052,-3.16
2064,-3.16
2076,-3.3
2088,-3.6
2100,-4.05
2112,-4.59
2124,-5.21
2136,-5.89
2148,-6.61
2160,-7.4
2171,-8.27
2182,-9.24
2194,-10.33
2206,-11.52
2218,-12.62
2230,-13.35
2242,-13.34
2254,-12.27
2266,-10.08
2278,-6.97
2290,-3.43
2302,-0.02
2314,2.8
2326,4.84
2338,6.15
2350,6.98
2361,7.6
2372,8.18
2384,8.75
2396,9.22
2408,9.45
2420,9.4
2432,9.1
2444,8.65
2456,8.2
2468,7.86
2480,7.7
2492,7.65
2504,7.67
2516,7.67
2528,7.64
2540,7.58
2551,7.48
2562,7.32
2574,7.03
2586,6.53
2598,5.81
2610,4.95
2622,4.1
2634,3.44
2646,3.07
2658,2.97
2670,3.04
2682,3.08
2694,2.92
2706,2.46
2718,1.69
2730,0.72
2741,-0.32
2752,-1.33
2764,-2.24
2776,-3.03
2788,-3.71
2800,-4.29
2812,-4.76
2824,-5.14
2836,-5.44
2848,-5.71
2860,-6.0
2872,-6.33
2884,-6.64
2896,-6.87
2908,-6.99
2920,-7.04
2931,-7.18
2942,-7.58
2954,-8.36
2966,-9.5
2978,-10.85
2990,-12.14
3002,-13.1
3014,-13.45
3026,-13.01
3038,-11.75
3050,-9.76
3062,-7.25
3074,-4.52
3086,-1.86
3098,0.47
3110,2.36
3121,3.79
3132,4.84
3144,5.62
3156,6.24
3168,6.75
3180,7.13
3192,7.36
3204,7.42
3216,7.34
3228,7.21
3240,7.15
3252,7.27
3264,7.6
3276,8.07
3288,8.57
3300,8.98
3311,9.25
3322,9.35
3334,9.26
3346,8.84
3358,7.95
3370,6.5
3382,4.56
3394,2.42
3406,0.48
3418,-0.92
3430,-1.64
3442,-1.82
3454,-1.79
3466,-1.86
3478,-2.2
3490,-2.77
3501,-3.38
3512,-3.85
3524,-4.12
3536,-4.22
3548,-4.27
3560,-4.38
3572,-4.57
3584,-4.79
3596,-4.98
3608,-5.11
3620,-5.23
3632,-5.4
3644,-5.72
3656,-6.2
3668,-6.86
3680,-7.65
3691,-8.54
3702,-9.51
3714,-10.51
3726,-11.43
3738,-12.11
3750,-12.32
3762,-11.88
3774,-10.64
3786,-8.65
3798,-6.05
3810,-3.13
3822,-0.2
3834,2.45
3846,4.63
3858,6.28
3870,7.43
3881,8.21
3892,8.74
3904,9.12
3916,9.44
3928,9.7
3940,9.88
3952,9.94
3964,9.87
3976,9.69
3988,9.48
4000,9.3
4012,9.23
4024,9.34
4036,9.61
4048,10.01
4060,10.5
4071,10.97
4082,11.31
4094,11.42
4106,11.2
4118,10.61
4130,9.68
4142,8.5
4154,7.18
4166,5.86
4178,4.61
4190,3.46
4202,2.44
4214,1.52
4226,0.69
4238,-0.08
4250,-0.81
4261,-1.54
4272,-2.28
4284,-3.04
4296,-3.83
4308,-4.57
4320,-5.21
4332,-5.67
4344,-5.91
4356,-5.98
4368,-5.99
4380,-6.08
4392,-6.41
4404,-7.04
4416,-7.91
4428,-8.87
4440,-9.74
4451,-10.45
4462,-11.03
4474,-11.57
4486,-12.16
4498,-12.72
4510,-13.03
4522,-12.76
4534,-11.67
4546,-9.67
4558,-6.94
4570,-3.86
4582,-0.84
4594,1.74
4606,3.67
4618,4.89
4630,5.45
4641,5.5
4652,5.15
4664,4.55
4676,3.79
4688,2.94
4700,2.07
4712,1.25
4724,0.55
4736,-0.0
4748,-0.38
4760,-0.62
4772,-0.8
4784,-0.98
4796,-1.16
4808,-1.32
4820,-1.41
4831,-1.4
4842,-1.34
4854,-1.34
4866,-1.52
4878,-1.91
4890,-2.5
4902,-3.18
4914,-3.8
4926,-4.26
4938,-4.51
4950,-4.56
4962,-4.41
4974,-4.08
4986,-3.54
4998,-2.81
5010,-1.96
5021,-1.16
5032,-0.67
5044,-0.7
5056,-1.32
5068,-2.4
5080,-3.67
5092,-4.8
5104,-5.61
5116,-6.07
5128,-6.32
5140,-6.49
5152,-6.62
5164,-6.61
5176,-6.29
5188,-5.6
5200,-4.67
5211,-3.75
5222,-3.17
5234,-3.08
5246,-3.48
5258,-4.14
5270,-4.76
5282,-5.07
5294,-4.93
5306,-4.25
5318,-3.09
5330,-1.49
5342,0.47
5354,2.66
5366,4.92
5378,7.04
5390,8.86
5401,10.21
5412,11.07
5424,11.45
5436,11.42
5448,11.05
5460,10.39
5472,9.49
5484,8.39
5496,7.19
5508,6.06
5520,5.14
5532,4.6
5544,4.48
5556,4.72
5568,5.17
5580,5.65
5591,6.01
5602,6.2
5614,6.25
5626,6.23
5638,6.22
5650,6.24
5662,6.23
5674,6.1
5686,5.8
5698,5.31
5710,4.67
5722,3.92
5734,3.12
5746,2.32
5758,1.53
5770,0.77
5781,0.07
5792,-0.53
5804,-1.0
5816,-1.34
5828,-1.59
5840,-1.82
5852,-2.09
5864,-2.42
5876,-2.82
5888,-3.25
5900,-3.67
5912,-4.06
5924,-4.41
5936,-4.75
5948,-5.16
5960,-5.69
5971,-6.4
5982,-7.25
5994,-8.13
6006,-8.86
6018,-9.21
6030,-9.02
6042,-8.22
6054,-6.9
6066,-5.23
6078,-3.42
6090,-1.69
6102,-0.21
6114,0.89
6126,1.57
6138,1.89
6150,1.96
6161,1.99
6172,2.15
6184,2.53
6196,3.08
6208,3.65
6220,4.09
6232,4.28
6244,4.26
6256,4.1
6268,3.92
6280,3.8
6292,3.74
6304,3.68
6316,3.61
6328,3.54
6340,3.5
6351,3.54
6362,3.64
6374,3.72
6386,3.67
6398,3.39
6410,2.85
6422,2.1
6434,1.23
6446,0.41
6458,-0.22
6470,-0.59
6482,-0.69
6494,-0.65
6506,-0.61
6518,-0.71
6530,-1.0
6541,-1.51
6552,-2.17
6564,-2.95
6576,-3.79
6588,-4.64
6600,-5.41
6612,-5.96
6624,-6.18
6636,-6.08
6648,-5.82
6660,-5.62
6672,-5.7
6684,-6.13
6696,-6.82
6708,-7.59
6720,-8.3
6731,-8.91
6742,-9.46
6754,-9.99
6766,-10.37
6778,-10.36
6790,-9.67
6802,-8.14
6814,-5.86
6826,-3.13
6838,-0.41
6850,1.94
6862,3.75
6874,5.12
6886,6.28
6898,7.43
6910,8.6
6921,9.7
6932,10.5
6944,10.89
6956,10.89
6968,10.65
6980,10.35
6992,10.09
7004,9.82
7016,9.44
7028,8.88
7040,8.23
7052,7.64
7064,7.34
7076,7.46
7088,7.95
7100,8.62
7111,9.23
7122,9.57
7134,9.58
7146,9.28
7158,8.76
7170,8.11
7182,7.36
7194,6.54
7206,5.69
7218,4.84
7230,4.04
7242,3.32
7254,2.67
7266,2.07
7278,1.5
7290,0.94
7301,0.42
7312,-0.03
7324,-0.4
7336,-0.71
7348,-1.0
7360,-1.31
7372,-1.69
7384,-2.19
7396,-2.83
7408,-3.62
7420,-4.53
7432,-5.49
7444,-6.4
7456,-7.17
7468,-7.75
7480,-8.17
7491,-8.49
7502,-8.81
7514,-9.26
7526,-9.92
7538,-10.79
7550,-11.75
7562,-12.6
7574,-13.09
7586,-13.0
7598,-12.21
7610,-10.73
7622,-8.66
7634,-6.17
7646,-3.46
7658,-0.72
7670,1.85
7681,4.05
7692,5.7
7704,6.74
7716,7.16
7728,7.06
7740,6.63
7752,6.06
7764,5.52
7776,5.16
7788,5.05
7800,5.15
7812,5.36
7824,5.57
7836,5.67
7848,5.69
7860,5.71
7871,5.85
7882,6.18
7894,6.66
7906,7.15
7918,7.49
7930,7.54
7942,7.28
7954,6.73
7966,6.01
7978,5.22
7990,4.42
8002,3.64
8014,2.91
8026,2.21
8038,1.55
8050,0.92
8061,0.33
8072,-0.18
8084,-0.6
8096,-0.93
8108,-1.21
8120,-1.46
8132,-1.71
8144,-1.91
8156,-2.02
8168,-2.03
8180,-1.97
8192,-1.93
8204,-2.01
8216,-2.28
8228,-2.75
8240,-3.41
8251,-4.16
8262,-4.95
8274,-5.7
8286,-6.34
8298,-6.82
8310,-7.15
8322,-7.37
8334,-7.63
8346,-8.07
8358,-8.81
8370,-9.82
8382,-10.94
8394,-11.9
8406,-12.39
8418,-12.15
8430,-11.08
8441,-9.21
8452,-6.71
8464,-3.89
8476,-1.06
8488,1.5
8500,3.59
8512,5.14
8524,6.21
8536,6.92
8548,7.42
8560,7.8
8572,8.05
8584,8.12
8596,7.96
8608,7.58
8620,7.09
8631,6.62
8642,6.29
8654,6.15
8666,6.15
8678,6.16
8690,6.09
8702,5.94
8714,5.78
8726,5.71
8738,5.82
8750,6.05
8762,6.27
8774,6.27
8786,5.9
8798,5.12
8810,4.03
8821,2.85
8832,1.8
8844,1.04
8856,0.6
8868,0.43
8880,0.43
8892,0.5
8904,0.56
8916,0.54
8928,0.4
8940,0.09
8952,-0.38
8964,-0.99
8976,-1.66
8988,-2.27
9000,-2.76
9011,-3.09
9022,-3.3
9034,-3.46
9046,-3.66
9058,-3.95
9070,-4.36
9082,-4.9
9094,-5.58
9106,-6.39
9118,-7.3
9130,-8.24
9142,-9.07
9154,-9.71
9166,-10.12
9178,-10.37
9190,-10.61
9201,-10.9
9212,-11.15
9224,-11.15
9236,-10.6
9248,-9.33
9260,-7.34
9272,-4.87
9284,-2.24
9296,0.21
9308,2.3
9320,3.97
9332,5.27
9344,6.26
9356,6.97
9368,7.39
9380,7.54
9391,7.45
9402,7.2
9414,6.81
9426,6.33
9438,5.77
9450,5.17
9462,4.63
9474,4.26
9486,4.18
9498,4.44
9510,4.97
9522,5.65
9534,6.28
9546,6.72
9558,6.9
9570,6.87
9581,6.68
9592,6.37
9604,5.94
9616,5.32
9628,4.49
9640,3.45
9652,2.33
9664,1.26
9676,0.38
9688,-0.25
9700,-0.65
9712,-0.87
9724,-0.96
9736,-0.94
9748,-0.79
9760,-0.49
9771,-0.1
9782,0.31
9794,0.64
9806,0.77
9818,0.67
9830,0.3
9842,-0.3
9854,-1.11
9866,-2.05
9878,-3.04
9890,-3.98
9902,-4.79
9914,-5.38
9926,-5.74
9938,-5.92
9950,-6.03
9961,-6.21
9972,-6.61
9984,-7.32
9996,-8.3
10008,-9.35
10020,-10.2
10032,-10.52
10044,-10.08
10056,-8.79
10068,-6.71
10080,-4.06
10092,-1.09
10104,1.89
10116,4.63
10128,6.91
10140,8.62
10151,9.71
10162,10.2
10174,10.16
10186,9.7
10198,8.94
10210,7.98
10222,6.94
10234,5.9
10246,4.98
10258,4.22
10270,3.64
10282,3.23
10294,2.98
10306,2.89
10318,2.96
10330,3.21
10341,3.56
10352,3.91
10364,4.12
10376,4.08
10388,3.76
10400,3.2
10412,2.51
10424,1.8
10436,1.15
10448,0.58
10460,0.08
10472,-0.37
10484,-0.79
10496,-1.16
10508,-1.47
10520,-1.71
10531,-1.93
10542,-2.19
10554,-2.55
10566,-3.02
10578,-3.58
10590,-4.12
10602,-4.54
10614,-4.78
10626,-4.85
10638,-4.82
10650,-4.85
10662,-5.04
10674,-5.45
10686,-6.03
10698,-6.6
10710,-6.97
10721,-7.08
10732,-6.99
10744,-6.88
10756,-7.01
10768,-7.54
10780,-8.49
10792,-9.75
10804,-11.12
10816,-12.39
10828,-13.35
10840,-13.8
10852,-13.56
10864,-12.48
10876,-10.56
10888,-7.96
10900,-5.03
10911,-2.19
10922,0.2
10934,1.94
10946,3.05
10958,3.65
10970,3.94
10982,4.07
10994,4.1
11006,4.03
11018,3.82
11030,3.49
11042,3.1
11054,2.76
11066,2.59
11078,2.66
11090,2.99
11101,3.5
11112,4.11
11124,4.72
11136,5.3
11148,5.84
11160,6.36
11172,6.84
11184,7.23
11196,7.41
11208,7.29
11220,6.8
11232,5.97
11244,4.91
11256,3.74
11268,2.62
11280,1.61
11291,0.72
11302,-0.09
11314,-0.84
11326,-1.52
11338,-2.07
11350,-2.41
11362,-2.54
11374,-2.51
11386,-2.44
11398,-2.47
11410,-2.67
11422,-3.02
11434,-3.48
11446,-3.99
11458,-4.49
11470,-4.98
11481,-5.47
11492,-5.96
11504,-6.5
11516,-7.13
11528,-7.92
11540,-8.94
11552,-10.16
11564,-11.41
11576,-12.38
11588,-12.76
11600,-12.29
11612,-10.9
11624,-8.74
11636,-6.04
11648,-3.14
11660,-0.31
11671,2.25
11682,4.41
11694,6.15
11706,7.52
11718,8.57
11730,9.39
11742,10.02
11754,10.5
11766,10.88
11778,11.16
11790,11.4
11802,11.63
11814,11.88
11826,12.11
11838,12.26
11850,12.25
11861,12.06
11872,11.72
11884,11.31
11896,10.88
11908,10.44
11920,9.96
11932,9.35
11944,8.58
11956,7.66
11968,6.7
11980,5.79
11992,4.98
12004,4.22
12016,3.44
12028,2.51
12040,1.43
12051,0.28
12062,-0.78
12074,-1.63
12086,-2.19
12098,-2.54
12110,-2.79
12122,-3.06
12134,-3.4
12146,-3.81
12158,-4.27
12170,-4.75
12182,-5.3
12194,-5.95
12206,-6.72
12218,-7.54
12230,-8.32
12241,-8.96
12252,-9.46
12264,-9.91
12276,-10.47
12288,-11.27
12300,-12.24
12312,-13.1
12324,-13.45
12336,-12.91
12348,-11.35
12360,-8.92
12372,-6.02
12384,-3.11
12396,-0.55
12408,1.5
12420,3.07
12431,4.26
12442,5.15
12454,5.79
12466,6.2
12478,6.42
12490,6.5
12502,6.47
12514,6.38
12526,6.2
12538,5.94
12550,5.62
12562,5.3
12574,5.06
12586,4.95
12598,4.93
12610,4.93
12621,4.88
12632,4.74
12644,4.52
12656,4.25
12668,3.98
12680,3.69
12692,3.33
12704,2.84
12716,2.2
12728,1.46
12740,0.69
12752,-0.05
12764,-0.76
12776,-1.5
12788,-2.34
12800,-3.29
12811,-4.28
12822,-5.2
12834,-5.97
12846,-6.56
12858,-7.04
12870,-7.5
12882,-8.02
12894,-8.59
12906,-9.14
12918,-9.58
12930,-9.84
12942,-9.94
12954,-9.95
12966,-9.99
12978,-10.17
12990,-10.57
13001,-11.16
13012,-11.81
13024,-12.35
13036,-12.56
13048,-12.23
13060,-11.28
13072,-9.7
13084,-7.59
13096,-5.12
13108,-2.48
13120,0.1
13132,2.43
13144,4.37
13156,5.87
13168,7.0
13180,7.9
13191,8.68
13202,9.4
13214,10.02
13226,10.42
13238,10.56
13250,10.47
13262,10.24
13274,10.01
13286,9.82
13298,9.64
13310,9.38
13322,9.03
13334,8.69
13346,8.55
13358,8.79
13370,9.41
13381,10.24
13392,10.97
13404,11.31
13416,11.12
13428,10.48
13440,9.58
13452,8.66
13464,7.87
13476,7.25
13488,6.74
13500,6.29
13512,5.91
13524,5.64
13536,5.56
13548,5.58
13560,5.58
13571,5.34
13582,4.71
13594,3.71
13606,2.47
13618,1.25
13630,0.27
13642,-0.4
13654,-0.82
13666,-1.16
13678,-1.52
13690,-1.97
13702,-2.46
13714,-2.97
13726,-3.52
13738,-4.22
13750,-5.21
13761,-6.59
13772,-8.34
13784,-10.27
13796,-12.14
13808,-13.61
13820,-14.41
13832,-14.38
13844,-13.49
13856,-11.87
13868,-9.75
13880,-7.4
13892,-5.1
13904,-3.04
13916,-1.3
13928,0.11
13940,1.25
13951,2.16
13962,2.82
13974,3.2
13986,3.27
13998,3.05
14010,2.6
14022,2.08
14034,1.66
14046,1.51
14058,1.71
14070,2.24
14082,2.98
14094,3.69
14106,4.17
14118,4.24
14130,3.95
14141,3.46
14152,2.97
14164,2.66
14176,2.56
14188,2.55
14200,2.47
14212,2.2
14224,1.73
14236,1.18
14248,0.66
14260,0.23
14272,-0.16
14284,-0.6
14296,-1.18
14308,-1.85
14320,-2.47
14331,-2.85
14342,-2.86
14354,-2.55
14366,-2.08
14378,-1.68
14390,-1.54
14402,-1.71
14414,-2.1
14426,-2.57
14438,-3.02
14450,-3.41
14462,-3.75
14474,-4.04
14486,-4.29
14498,-4.51
14510,-4.75
14521,-5.08
14532,-5.61
14544,-6.33
14556,-7.11
14568,-7.69
14580,-7.81
14592,-7.24
14604,-5.97
14616,-4.11
14628,-1.91
14640,0.35
14652,2.43
14664,4.14
14676,5.38
14688,6.12
14700,6.4
14711,6.38
14722,6.24
14734,6.15
14746,6.22
14758,6.45
14770,6.71
14782,6.89
14794,6.95
14806,6.91
14818,6.86
14830,6.81
14842,6.76
14854,6.64
14866,6.42
14878,6.09
14890,5.75
14901,5.47
14912,5.22
14924,4.93
14936,4.49
14948,3.9
14960,3.21
14972,2.57
14984,2.04
14996,1.62
15008,1.26
15020,0.89
15032,0.52
15044,0.18
15056,-0.06
15068,-0.22
15080,-0.36
15091,-0.55
15102,-0.82
15114,-1.11
15126,-1.36
15138,-1.51
15150,-1.55
15162,-1.54
15174,-1.5
15186,-1.47
15198,-1.42
15210,-1.37
15222,-1.33
15234,-1.36
15246,-1.51
15258,-1.83
15270,-2.33
15281,-2.98
15292,-3.72
15304,-4.46
15316,-5.12
15328,-5.65
15340,-6.03
15352,-6.28
15364,-6.43
15376,-6.53
15388,-6.57
15400,-6.58
15412,-6.57
15424,-6.62
15436,-6.75
15448,-6.99
15460,-7.3
15471,-7.65
15482,-8.01
15494,-8.41
15506,-8.9
15518,-9.5
15530,-10.13
15542,-10.62
15554,-10.74
15566,-10.29
15578,-9.19
15590,-7.5
15602,-5.44
15614,-3.28
15626,-1.25
15638,0.48
15650,1.8
15661,2.69
15672,3.14
15684,3.21
15696,3.01
15708,2.68
15720,2.38
15732,2.26
15744,2.33
15756,2.55
15768,2.81
15780,3.02
15792,3.15
15804,3.23
15816,3.33
15828,3.52
15840,3.83
15851,4.27
15862,4.82
15874,5.45
15886,6.08
15898,6.6
15910,6.92
15922,6.96
15934,6.73
15946,6.3
15958,5.79
15970,5.29
15982,4.85
15994,4.44
16006,4.08
16018,3.77
16030,3.54
16041,3.37
16052,3.23
16064,3.03
16076,2.72
16088,2.3
16100,1.78
16112,1.24
16124,0.73
16136,0.33
16148,0.05
16160,-0.1
16172,-0.19
16184,-0.28
16196,-0.47
16208,-0.84
16220,-1.37
16231,-2.02
16242,-2.66
16254,-3.21
16266,-3.66
16278,-4.05
16290,-4.44
16302,-4.94
16314,-5.55
16326,-6.26
16338,-7.02
16350,-7.72
16362,-8.24
16374,-8.4
16386,-8.02
16398,-6.98
16410,-5.31
16421,-3.19
16432,-0.96
16444,1.01
16456,2.4
16468,3.12
16480,3.23
16492,2.95
16504,2.58
16516,2.34
16528,2.37
16540,2.65
16552,3.1
16564,3.61
16576,4.08
16588,4.48
16600,4.86
16611,5.26
16622,5.76
16634,6.34
16646,6.97
16658,7.59
16670,8.17
16682,8.74
16694,9.36
16706,10.07
16718,10.81
16730,11.44
16742,11.72
16754,11.47
16766,10.61
16778,9.19
16790,7.42
16801,5.52
16812,3.73
16824,2.16
16836,0.87
16848,-0.2
16860,-1.11
16872,-1.92
16884,-2.67
16896,-3.39
16908,-4.07
16920,-4.71
16932,-5.32
16944,-5.93
16956,-6.52
16968,-7.04
16980,-7.41
16991,-7.55
17002,-7.42
17014,-7.08
17026,-6.69
17038,-6.42
17050,-6.45
17062,-6.85
17074,-7.64
17086,-8.74
17098,-10.04
17110,-11.38
17122,-12.54
17134,-13.31
17146,-13.43
17158,-12.76
17170,-11.28
17181,-9.17
17192,-6.75
17204,-4.37
17216,-2.27
17228,-0.59
17240,0.74
17252,1.85
17264,2.86
17276,3.84
17288,4.72
17300,5.41
17312,5.81
17324,5.9
17336,5.72
17348,5.38
17360,5.01
17371,4.68
17382,4.42
17394,4.22
17406,4.09
17418,4.0
17430,3.97
17442,3.98
17454,4.01
17466,4.02
17478,3.95
17490,3.78
17502,3.51
17514,3.17
17526,2.77
17538,2.33
17550,1.84
17561,1.3
17572,0.71
17584,0.09
17596,-0.56
17608,-1.26
17620,-2.04
17632,-2.92
17644,-3.86
17656,-4.76
17668,-5.5
17680,-5.93
17692,-6.04
17704,-5.92
17716,-5.74
17728,-5.73
17740,-5.99
17751,-6.54
17762,-7.26
17774,-7.99
17786,-8.57
17798,-8.87
17810,-8.78
17822,-8.23
17834,-7.17
17846,-5.62
17858,-3.77
17870,-1.85
17882,-0.15
17894,1.11
17906,1.85
17918,2.14
17930,2.1
17941,1.89
17952,1.63
17964,1.37
17976,1.17
17988,1.06
18000,1.1
18012,1.31
18024,1.7
18036,2.25
18048,2.9
18060,3.57
18072,4.13
18084,4.53
18096,4.73
18108,4.81
18120,4.95
18131,5.25
18142,5.71
18154,6.17
18166,6.34
18178,5.97
18190,5.02
18202,3.65
18214,2.23
18226,1.14
18238,0.55
18250,0.38
18262,0.35
18274,0.13
18286,-0.49
18298,-1.5
18310,-2.71
18321,-3.85
18332,-4.7
18344,-5.18
18356,-5.38
18368,-5.41
18380,-5.44
18392,-5.55
18404,-5.71
18416,-5.9
18428,-6.06
18440,-6.13
18452,-6.04
18464,-5.71
18476,-5.02
18488,-3.91
18500,-2.39
18511,-0.6
18522,1.21
18534,2.79
18546,4.0
18558,4.83
18570,5.4
18582,5.86
18594,6.27
18606,6.58
18618,6.71
18630,6.61
18642,6.35
18654,6.09
18666,5.99
18678,6.14
18690,6.44
18701,6.71
18712,6.75
18724,6.5
18736,6.03
18748,5.55
18760,5.2
18772,5.02
18784,4.91
18796,4.72
18808,4.37
18820,3.89
18832,3.43
18844,3.12
18856,2.97
18868,2.89
18880,2.71
18891,2.31
18902,1.68
18914,0.94
18926,0.23
18938,-0.35
18950,-0.78
18962,-1.1
18974,-1.37
18986,-1.66
18998,-2.04
19010,-2.62
19022,-3.53
19034,-4.87
19046,-6.59
19058,-8.55
19070,-10.47
19081,-12.03
19092,-12.95
19104,-13.05
19116,-12.29
19128,-10.73
19140,-8.58
19152,-6.12
19164,-3.68
19176,-1.58
19188,0.02
19200,1.06
19212,1.65
19224,1.97
19236,2.18
19248,2.41
19260,2.7
19271,3.06
19282,3.46
19294,3.84
19306,4.11
19318,4.17
19330,3.97
19342,3.53
19354,2.96
19366,2.43
19378,2.08
19390,1.98
19402,2.12
19414,2.37
19426,2.62
19438,2.79
19450,2.89
19461,2.95
19472,2.99
19484,3.0
19496,2.94
19508,2.74
19520,2.37
19532,1.85
19544,1.2
19556,0.46
19568,-0.38
19580,-1.32
19592,-2.35
19604,-3.44
19616,-4.51
19628,-5.48
19640,-6.29
19651,-6.93
19662,-7.43
19674,-7.88
19686,-8.32
19698,-8.73
19710,-9.05
19722,-9.16
19734,-8.91
19746,-8.13
19758,-6.75
19770,-4.79
19782,-2.41
19794,0.12
19806,2.52
19818,4.53
19830,6.09
19841,7.25
19852,8.13
19864,8.84
19876,9.4
19888,9.72
19900,9.74
19912,9.45
19924,9.01
19936,8.64
19948,8.49
19960,8.62
19972,8.88
19984,9.1
19996,9.13
20008,8.96
20020,8.71
20031,8.48
20042,8.36
20054,8.28
20066,8.12
20078,7.78
20090,7.23
20102,6.51
20114,5.74
20126,4.99
20138,4.3
20150,3.66
20162,3.04
20174,2.44
20186,1.93
20198,1.58
20210,1.4
20221,1.33
20232,1.23
20244,0.97
20256,0.46
20268,-0.26
20280,-1.05
20292,-1.74
20304,-2.23
20316,-2.52
20328,-2.74
20340,-3.06
20352,-3.54
20364,-4.18
20376,-4.85
20388,-5.4
20400,-5.77
20411,-5.97
20422,-6.07
20434,-6.16
20446,-6.29
20458,-6.38
20470,-6.39
20482,-6.28
20494,-6.09
20506,-5.95
20518,-6.05
20530,-6.55
20542,-7.52
20554,-8.9
20566,-10.5
20578,-12.04
20590,-13.18
20601,-13.59
20612,-13.04
20624,-11.5
20636,-9.11
20648,-6.23
20660,-3.26
20672,-0.56
20684,1.62
20696,3.23
20708,4.38
20720,5.23
20732,5.9
20744,6.44
20756,6.85
20768,7.09
20780,7.18
20791,7.16
20802,7.13
20814,7.17
20826,7.28
20838,7.45
20850,7.62
20862,7.77
20874,7.9
20886,8.06
20898,8.29
20910,8.53
20922,8.73
20934,8.77
20946,8.59
20958,8.21
20970,7.69
20981,7.09
20992,6.47
