seconds,BVP
2,-16.92
14,-17.75
26,-17.93
38,-17.22
50,-15.59
62,-13.22
74,-10.45
86,-7.57
98,-4.81
110,-2.28
121,-0.08
132,1.65
144,2.71
156,2.95
168,2.3
180,0.92
192,-0.88
204,-2.74
216,-4.37
228,-5.62
240,-6.52
252,-7.21
264,-7.83
276,-8.5
288,-9.25
300,-10.07
311,-10.92
322,-11.8
334,-12.72
346,-13.71
358,-14.82
370,-16.1
382,-17.59
394,-19.34
406,-21.43
418,-23.89
430,-26.71
442,-29.74
454,-32.61
466,-34.78
478,-35.69
490,-34.95
501,-32.47
512,-28.55
524,-23.66
536,-18.3
548,-12.8
560,-7.37
572,-2.18
584,2.54
596,6.41
608,9.07
620,10.36
632,10.42
644,9.68
656,8.65
668,7.73
680,7.08
691,6.65
702,6.26
714,5.78
726,5.15
738,4.38
750,3.45
762,2.28
774,0.77
786,-1.17
798,-3.52
810,-6.15
822,-8.87
834,-11.53
846,-14.11
858,-16.73
870,-19.63
881,-23.05
892,-27.04
904,-31.4
916,-35.63
928,-39.04
940,-40.92
952,-40.72
964,-38.27
976,-33.77
988,-27.69
1000,-20.69
1012,-13.39
1024,-6.34
1036,0.03
1048,5.41
1060,9.61
1071,12.55
1082,14.3
1094,15.08
1106,15.14
1118,14.71
1130,13.95
1142,12.9
1154,11.61
1166,10.16
1178,8.7
1190,7.43
1202,6.47
1214,5.87
1226,5.5
1238,5.21
1250,4.79
1261,4.09
1272,2.99
1284,1.46
1296,-0.46
1308,-2.66
1320,-5.02
1332,-7.45
1344,-9.99
1356,-12.74
1368,-15.83
1380,-19.31
1392,-22.98
1404,-26.4
1416,-28.95
1428,-30.0
1440,-29.12
1451,-26.18
1462,-21.45
1474,-15.45
1486,-8.79
1498,-2.07
1510,4.27
1522,9.92
1534,14.63
1546,18.25
1558,20.66
1570,21.85
1582,22.01
1594,21.45
1606,20.57
1618,19.68
1630,18.98
1641,18.51
1652,18.17
1664,17.84
1676,17.36
1688,16.64
1700,15.64
1712,14.37
1724,12.96
1736,11.58
1748,10.35
1760,9.33
1772,8.37
1784,7.24
1796,5.73
1808,3.77
1820,1.42
1831,-1.16
1842,-3.88
1854,-6.76
1866,-9.98
1878,-13.77
1890,-18.21
1902,-23.17
1914,-28.26
1926,-32.87
1938,-36.34
1950,-38.07
1962,-37.66
1974,-35.0
1986,-30.25
1998,-23.84
2010,-16.38
2021,-8.54
2032,-0.95
2044,5.9
2056,11.7
2068,16.29
2080,19.65
2092,21.91
2104,23.22
2116,23.81
2128,23.94
2140,23.84
2152,23.72
2164,23.69
2176,23.8
2188,23.97
2200,24.12
2211,24.12
2222,23.92
2234,23.46
2246,22.76
2258,21.8
2270,20.6
2282,19.16
2294,17.49
2306,15.66
2318,13.69
2330,11.64
2342,9.53
2354,7.35
2366,5.08
2378,2.76
2390,0.48
2401,-1.66
2412,-3.6
2424,-5.35
2436,-7.03
2448,-8.77
2460,-10.68
2472,-12.83
2484,-15.27
2496,-18.03
2508,-21.09
2520,-24.33
2532,-27.39
2544,-29.71
2556,-30.63
2568,-29.62
2580,-26.47
2591,-21.42
2602,-15.08
2614,-8.2
2626,-1.44
2638,4.71
2650,9.93
2662,14.05
2674,16.92
2686,18.48
2698,18.82
2710,18.24
2722,17.19
2734,16.15
2746,15.45
2758,15.24
2770,15.45
2781,15.91
2792,16.46
2804,16.96
2816,17.35
2828,17.53
2840,17.44
2852,17.05
2864,16.35
2876,15.41
2888,14.32
2900,13.15
2912,11.92
2924,10.62
2936,9.24
2948,7.79
2960,6.28
2971,4.71
2982,3.05
2994,1.21
3006,-0.84
3018,-3.06
3030,-5.26
3042,-7.24
3054,-8.84
3066,-10.05
3078,-11.02
3090,-12.04
3102,-13.35
3114,-15.14
3126,-17.43
3138,-20.08
3150,-22.82
3161,-25.21
3172,-26.76
3184,-26.99
3196,-25.51
3208,-22.22
3220,-17.36
3232,-11.5
3244,-5.37
3256,0.32
3268,5.06
3280,8.62
3292,10.97
3304,12.2
3316,12.47
3328,12.0
3340,11.04
3351,9.9
3362,8.89
3374,8.19
3386,7.85
3398,7.73
3410,7.64
3422,7.44
3434,7.1
3446,6.74
3458,6.47
3470,6.34
3482,6.32
3494,6.27
3506,6.1
3518,5.75
3530,5.2
3541,4.47
3552,3.56
3564,2.44
3576,1.13
3588,-0.3
3600,-1.75
3612,-3.07
3624,-4.17
3636,-5.04
3648,-5.75
3660,-6.45
3672,-7.23
3684,-8.16
3696,-9.24
3708,-10.43
3720,-11.7
3731,-13.05
3742,-14.53
3754,-16.11
3766,-17.67
3778,-18.93
3790,-19.5
3802,-19.01
3814,-17.24
3826,-14.26
3838,-10.36
3850,-6.03
3862,-1.75
3874,2.07
3886,5.18
3898,7.43
3910,8.79
3921,9.26
3932,8.94
3944,8.03
3956,6.79
3968,5.52
3980,4.48
3992,3.83
4004,3.54
4016,3.48
4028,3.51
4040,3.51
4052,3.47
4064,3.46
4076,3.53
4088,3.65
4100,3.72
4111,3.63
4122,3.32
4134,2.8
4146,2.13
4158,1.34
4170,0.41
4182,-0.69
4194,-1.96
4206,-3.29
4218,-4.54
4230,-5.58
4242,-6.38
4254,-7.02
4266,-7.62
4278,-8.27
4290,-9.01
4301,-9.86
4312,-10.78
4324,-11.78
4336,-12.84
4348,-13.85
4360,-14.64
4372,-14.98
4384,-14.65
4396,-13.51
4408,-11.6
4420,-9.1
4432,-6.28
4444,-3.43
4456,-0.81
4468,1.41
4480,3.14
4491,4.31
4502,4.91
4514,4.89
4526,4.26
4538,3.13
4550,1.72
4562,0.32
4574,-0.78
4586,-1.39
4598,-1.51
4610,-1.25
4622,-0.81
4634,-0.4
4646,-0.12
4658,0.02
4670,0.05
4681,0.01
4692,-0.11
4704,-0.33
4716,-0.71
4728,-1.28
4740,-2.07
4752,-3.04
4764,-4.16
4776,-5.36
4788,-6.51
4800,-7.52
4812,-8.38
4824,-9.12
4836,-9.87
4848,-10.79
4860,-11.97
4871,-13.37
4882,-14.85
4894,-16.13
4906,-16.97
4918,-17.18
4930,-16.66
4942,-15.41
4954,-13.54
4966,-11.18
4978,-8.52
4990,-5.77
5002,-3.14
5014,-0.77
5026,1.21
5038,2.76
5050,3.82
5061,4.35
5072,4.33
5084,3.81
5096,2.89
5108,1.76
5120,0.65
5132,-0.25
5144,-0.8
5156,-0.99
5168,-0.88
5180,-0.6
5192,-0.24
5204,0.11
5216,0.41
5228,0.62
5240,0.71
5251,0.6
5262,0.27
5274,-0.27
5286,-0.98
5298,-1.77
5310,-2.58
5322,-3.39
5334,-4.19
5346,-5.02
5358,-5.92
5370,-6.97
5382,-8.2
5394,-9.69
5406,-11.46
5418,-13.42
5430,-15.39
5441,-17.08
5452,-18.15
5464,-18.3
5476,-17.38
5488,-15.36
5500,-12.41
5512,-8.8
5524,-4.85
5536,-0.93
5548,2.62
5560,5.53
5572,7.62
5584,8.84
5596,9.29
5608,9.15
5620,8.6
5631,7.8
5642,6.8
5654,5.65
5666,4.44
5678,3.29
5690,2.34
5702,1.71
5714,1.43
5726,1.44
5738,1.67
5750,1.97
5762,2.22
5774,2.26
5786,1.98
5798,1.31
5810,0.24
5821,-1.16
5832,-2.71
5844,-4.23
5856,-5.59
5868,-6.69
5880,-7.58
5892,-8.38
5904,-9.3
5916,-10.58
5928,-12.36
5940,-14.68
5952,-17.34
5964,-19.98
5976,-22.12
5988,-23.37
6000,-23.45
6011,-22.29
6022,-20.0
6034,-16.76
6046,-12.85
6058,-8.54
6070,-4.15
6082,0.01
6094,3.68
6106,6.64
6118,8.76
6130,9.98
6142,10.35
6154,10.01
6166,9.21
6178,8.22
6190,7.29
6201,6.59
6212,6.11
6224,5.83
6236,5.66
6248,5.56
6260,5.53
6272,5.61
6284,5.78
6296,5.98
6308,6.05
6320,5.85
6332,5.25
6344,4.26
6356,2.95
6368,1.48
6380,-0.03
6391,-1.51
6402,-3.0
6414,-4.59
6426,-6.38
6438,-8.41
6450,-10.66
6462,-13.05
6474,-15.49
6486,-17.83
6498,-19.86
6510,-21.32
6522,-21.8
6534,-20.96
6546,-18.59
6558,-14.78
6570,-9.93
6581,-4.63
6592,0.54
6604,5.14
6616,8.96
6628,11.96
6640,14.16
6652,15.57
6664,16.19
6676,16.1
6688,15.43
6700,14.45
6712,13.44
6724,12.64
6736,12.13
6748,11.91
6760,11.9
6771,12.04
6782,12.28
6794,12.6
6806,12.96
6818,13.24
6830,13.32
6842,13.1
6854,12.49
6866,11.5
6878,10.16
6890,8.57
6902,6.83
6914,5.01
6926,3.11
6938,1.03
6950,-1.39
6961,-4.28
6972,-7.65
6984,-11.35
6996,-15.02
7008,-18.2
7020,-20.42
7032,-21.29
7044,-20.59
7056,-18.32
7068,-14.7
7080,-10.1
7092,-5.0
7104,0.15
7116,4.91
7128,8.95
7140,12.07
7151,14.13
7162,15.11
7174,15.11
7186,14.34
7198,13.08
7210,11.64
7222,10.3
7234,9.19
7246,8.42
7258,7.97
7270,7.86
7282,8.06
7294,8.49
7306,9.05
7318,9.58
7330,9.91
7341,9.91
7352,9.53
7364,8.79
7376,7.76
7388,6.49
7400,5.05
7412,3.43
7424,1.64
7436,-0.3
7448,-2.42
7460,-4.7
7472,-7.16
7484,-9.81
7496,-12.59
7508,-15.36
7520,-17.83
7531,-19.56
7542,-20.03
7554,-18.88
7566,-15.97
7578,-11.54
7590,-6.15
7602,-0.52
7614,4.69
7626,9.07
7638,12.48
7650,14.96
7662,16.63
7674,17.58
7686,17.82
7698,17.37
7710,16.33
7721,14.89
7732,13.34
7744,11.93
7756,10.87
7768,10.24
7780,10.05
7792,10.21
7804,10.62
7816,11.15
7828,11.64
7840,11.92
7852,11.8
7864,11.18
7876,9.98
7888,8.27
7900,6.19
7911,3.93
7922,1.66
7934,-0.55
7946,-2.75
7958,-5.07
7970,-7.67
7982,-10.61
7994,-13.84
8006,-17.1
8018,-20.02
8030,-22.11
8042,-22.91
8054,-22.05
8066,-19.36
8078,-14.94
8090,-9.18
8101,-2.68
8112,3.88
8124,9.92
8136,15.0
8148,18.94
8160,21.71
8172,23.4
8184,24.12
8196,24.08
8208,23.52
8220,22.74
8232,22.05
8244,21.65
8256,21.65
8268,21.98
8280,22.46
8291,22.81
8302,22.72
8314,21.98
8326,20.51
8338,18.35
8350,15.65
8362,12.58
8374,9.25
8386,5.73
8398,2.02
8410,-1.87
8422,-5.86
8434,-9.87
8446,-13.77
8458,-17.51
8470,-21.14
8481,-24.74
8492,-28.36
8504,-31.95
8516,-35.23
8528,-37.76
8540,-39.05
8552,-38.7
8564,-36.56
8576,-32.83
8588,-27.97
8600,-22.57
8612,-17.12
8624,-11.96
8636,-7.29
8648,-3.22
8660,0.07
8671,2.33
8682,3.4
8694,3.24
8706,2.08
8718,0.37
8730,-1.44
8742,-2.98
8754,-4.11
8766,-4.84
8778,-5.31
8790,-5.6
8802,-5.77
8814,-5.86
8826,-5.93
8838,-6.12
8850,-6.57
8861,-7.44
8872,-8.79
8884,-10.61
8896,-12.84
8908,-15.44
8920,-18.41
8932,-21.79
8944,-25.55
8956,-29.62
8968,-33.85
8980,-38.12
8992,-42.35
9004,-46.51
9016,-50.52
9028,-54.1
9040,-56.68
9051,-57.53
9062,-55.93
9074,-51.41
9086,-43.99
9098,-34.2
9110,-23.02
9122,-11.59
9134,-1.0
9146,7.98
9158,14.95
9170,19.89
9182,23.03
9194,24.7
9206,25.26
9218,25.02
9230,24.25
9241,23.16
9252,21.94
9264,20.77
9276,19.74
9288,18.88
9300,18.13
9312,17.35
9324,16.37
9336,15.04
9348,13.22
9360,10.82
9372,7.78
9384,4.09
9396,-0.16
9408,-4.85
9420,-9.78
9431,-14.83
9442,-19.94
9454,-25.17
9466,-30.7
9478,-36.76
9490,-43.46
9502,-50.65
9514,-57.78
9526,-63.87
9538,-67.71
9550,-68.14
9562,-64.34
9574,-56.18
9586,-44.27
9598,-29.91
9610,-14.71
9621,-0.27
9632,12.21
9644,22.07
9656,29.19
9668,33.85
9680,36.48
9692,37.56
9704,37.49
9716,36.61
9728,35.3
9740,33.97
9752,33.07
9764,32.91
9776,33.61
9788,34.97
9800,36.52
9811,37.67
9822,37.93
9834,37.02
9846,34.92
9858,31.8
9870,27.88
9882,23.37
9894,18.43
9906,13.21
9918,7.83
9930,2.37
9942,-3.25
9954,-9.26
9966,-15.98
9978,-23.61
9990,-31.91
10001,-40.12
10012,-46.95
10024,-50.87
10036,-50.62
10048,-45.53
10060,-35.82
10072,-22.55
10084,-7.28
10096,8.28
10108,22.61
10120,34.69
10132,43.96
10144,50.28
10156,53.82
10168,54.93
10180,54.13
10191,52.02
10202,49.25
10214,46.39
10226,43.82
10238,41.74
10250,40.1
10262,38.74
10274,37.48
10286,36.18
10298,34.81
10310,33.41
10322,31.97
10334,30.43
10346,28.59
10358,26.14
10370,22.83
10381,18.53
10392,13.33
10404,7.57
10416,1.69
10428,-3.93
10440,-9.16
10452,-14.17
10464,-19.36
10476,-25.21
10488,-32.09
10500,-39.98
10512,-48.43
10524,-56.48
10536,-62.76
10548,-65.8
10560,-64.35
10571,-57.86
10582,-46.65
10594,-31.92
10606,-15.44
10618,0.93
10630,15.71
10642,28.05
10654,37.67
10666,44.65
10678,49.2
10690,51.54
10702,51.93
10714,50.77
10726,48.73
10738,46.56
10750,44.98
10761,44.41
10772,44.86
10784,46.01
10796,47.35
10808,48.45
10820,48.98
10832,48.88
10844,48.18
10856,46.96
10868,45.25
10880,43.01
10892,40.09
10904,36.34
10916,31.67
10928,26.12
10940,19.91
10951,13.41
10962,7.0
10974,0.98
10986,-4.52
10998,-9.54
11010,-14.22
11022,-18.68
11034,-23.09
11046,-27.61
11058,-32.52
11070,-38.11
11082,-44.55
11094,-51.64
11106,-58.57
11118,-64.01
11130,-66.35
11141,-64.3
11152,-57.26
11164,-45.67
11176,-30.81
11188,-14.48
11200,1.53
11212,15.84
11224,27.67
11236,36.7
11248,42.97
11260,46.63
11272,47.96
11284,47.32
11296,45.31
11308,42.66
11320,40.18
11331,38.53
11342,38.07
11354,38.83
11366,40.51
11378,42.64
11390,44.74
11402,46.46
11414,47.6
11426,48.12
11438,48.04
11450,47.38
11462,46.17
11474,44.44
11486,42.26
11498,39.74
11510,37.01
11521,34.16
11532,31.21
11544,28.16
11556,24.99
11568,21.77
11580,18.61
11592,15.61
11604,12.86
11616,10.26
11628,7.64
11640,4.72
11652,1.33
11664,-2.6
11676,-6.92
11688,-11.36
11700,-15.66
11711,-19.61
11722,-23.22
11734,-26.72
11746,-30.45
11758,-34.84
11770,-40.23
11782,-46.79
11794,-54.32
11806,-62.15
11818,-69.09
11830,-73.6
11842,-74.14
11854,-69.58
11866,-59.7
11878,-45.27
11890,-27.96
11901,-9.84
11912,7.12
11924,21.56
11936,32.8
11948,40.8
11960,45.88
11972,48.47
11984,49.1
11996,48.3
12008,46.74
12020,45.1
12032,43.98
12044,43.78
12056,44.51
12068,45.88
12080,47.41
12091,48.6
12102,49.17
12114,49.09
12126,48.54
12138,47.76
12150,46.84
12162,45.65
12174,43.9
12186,41.28
12198,37.69
12210,33.27
12222,28.41
12234,23.57
12246,19.05
12258,14.92
12270,10.99
12281,6.93
12292,2.49
12304,-2.38
12316,-7.48
12328,-12.44
12340,-16.88
12352,-20.61
12364,-23.74
12376,-26.59
12388,-29.65
12400,-33.36
12412,-37.97
12424,-43.44
12436,-49.42
12448,-55.2
12460,-59.86
12471,-62.36
12482,-61.72
12494,-57.35
12506,-49.22
12518,-37.99
12530,-24.85
12542,-11.24
12554,1.43
12566,12.14
12578,20.31
12590,25.81
12602,28.85
12614,29.82
12626,29.24
12638,27.69
12650,25.77
12661,24.0
12672,22.73
12684,22.11
12696,22.11
12708,22.56
12720,23.24
12732,23.98
12744,24.66
12756,25.18
12768,25.48
12780,25.43
12792,24.9
12804,23.73
12816,21.81
12828,19.18
12840,15.97
12851,12.43
12862,8.84
12874,5.42
12886,2.24
12898,-0.76
12910,-3.72
12922,-6.79
12934,-10.01
12946,-13.31
12958,-16.53
12970,-19.44
12982,-21.94
12994,-24.06
13006,-26.01
13018,-28.19
13030,-31.01
13041,-34.76
13052,-39.42
13064,-44.54
13076,-49.26
13088,-52.43
13100,-52.95
13112,-50.02
13124,-43.42
13136,-33.63
13148,-21.68
13160,-8.96
13172,3.18
13184,13.7
13196,21.98
13208,27.86
13220,31.49
13231,33.16
13242,33.22
13254,32.07
13266,30.2
13278,28.11
13290,26.28
13302,25.05
13314,24.52
13326,24.62
13338,25.08
13350,25.66
13362,26.19
13374,26.59
13386,26.84
13398,26.88
13410,26.61
13421,25.84
13432,24.41
13444,22.21
13456,19.32
13468,15.93
13480,12.35
13492,8.86
13504,5.65
13516,2.68
13528,-0.2
13540,-3.21
13552,-6.51
13564,-10.11
13576,-13.84
13588,-17.5
13600,-20.93
13611,-24.12
13622,-27.24
13634,-30.56
13646,-34.35
13658,-38.72
13670,-43.54
13682,-48.4
13694,-52.62
13706,-55.36
13718,-55.79
13730,-53.39
13742,-48.04
13754,-40.23
13766,-30.9
13778,-21.23
13790,-12.32
13801,-4.95
13812,0.55
13824,4.19
13836,6.24
13848,6.98
13860,6.68
13872,5.59
13884,3.96
13896,2.12
13908,0.4
13920,-0.83
13932,-1.28
13944,-0.84
13956,0.43
13968,2.23
13980,4.18
13991,5.89
14002,7.06
14014,7.59
14026,7.56
14038,7.13
14050,6.43
14062,5.5
14074,4.26
14086,2.62
14098,0.51
14110,-2.01
14122,-4.81
14134,-7.75
14146,-10.72
14158,-13.67
14170,-16.62
14181,-19.59
14192,-22.58
14204,-25.61
14216,-28.77
14228,-32.18
14240,-35.97
14252,-40.09
14264,-44.19
14276,-47.57
14288,-49.32
14300,-48.6
14312,-44.91
14324,-38.35
14336,-29.58
14348,-19.69
14360,-9.82
14371,-0.94
14382,6.37
14394,11.83
14406,15.42
14418,17.18
14430,17.23
14442,15.8
14454,13.27
14466,10.26
14478,7.48
14490,5.57
14502,4.89
14514,5.45
14526,6.89
14538,8.68
14550,10.33
14561,11.53
14572,12.18
14584,12.37
14596,12.2
14608,11.75
14620,11.01
14632,9.91
14644,8.43
14656,6.58
14668,4.45
14680,2.12
14692,-0.28
14704,-2.64
14716,-4.88
14728,-6.92
14740,-8.77
14751,-10.53
14762,-12.37
14774,-14.55
14786,-17.23
14798,-20.46
14810,-24.02
14822,-27.45
14834,-30.08
14846,-31.21
14858,-30.23
14870,-26.83
14882,-21.08
14894,-13.48
14906,-4.85
14918,3.88
14930,11.85
14941,18.44
14952,23.36
14964,26.58
14976,28.27
14988,28.59
15000,27.75
15012,25.91
15024,23.34
15036,20.36
15048,17.35
15060,14.67
15072,12.53
15084,10.97
15096,9.87
15108,9.08
15120,8.47
15131,8.01
15142,7.76
15154,7.75
15166,7.95
15178,8.22
15190,8.34
15202,8.13
15214,7.51
15226,6.48
15238,5.13
15250,3.56
15262,1.84
15274,0.03
15286,-1.85
15298,-3.76
15310,-5.66
15321,-7.53
15332,-9.37
15344,-11.18
15356,-12.83
15368,-14.08
15380,-14.58
15392,-14.0
15404,-12.16
15416,-9.15
15428,-5.32
15440,-1.13
15452,2.94
15464,6.51
15476,9.34
15488,11.24
15500,12.07
15511,11.76
15522,10.27
15534,7.73
15546,4.4
15558,0.62
15570,-3.25
15582,-6.94
15594,-10.28
15606,-13.28
15618,-16.01
15630,-18.57
15642,-21.05
15654,-23.5
15666,-25.98
15678,-28.58
15690,-31.38
15701,-34.52
15712,-38.07
15724,-41.99
15736,-46.1
15748,-50.09
15760,-53.61
15772,-56.39
15784,-58.3
15796,-59.45
15808,-60.08
15820,-60.47
15832,-60.79
15844,-61.04
15856,-61.03
15868,-60.41
15880,-58.77
15891,-55.64
15902,-50.57
15914,-43.25
15926,-33.55
15938,-21.71
15950,-8.3
15962,5.8
15974,19.68
15986,32.5
15998,43.65
16010,52.76
16022,59.61
16034,64.14
16046,66.46
16058,66.83
16070,65.66
16081,63.48
16092,60.74
16104,57.78
16116,54.79
16128,51.86
16140,49.05
16152,46.42
16164,43.97
16176,41.61
16188,39.08
16200,36.1
16212,32.48
16224,28.29
16236,23.81
16248,19.44
16260,15.5
16271,12.05
16282,8.89
16294,5.65
16306,1.97
16318,-2.4
16330,-7.46
16342,-13.02
16354,-18.75
16366,-24.12
16378,-28.48
16390,-31.05
16402,-31.22
16414,-28.66
16426,-23.57
16438,-16.67
16450,-8.99
16461,-1.62
16472,4.62
16484,9.29
16496,12.25
16508,13.62
16520,13.58
16532,12.39
16544,10.35
16556,7.83
16568,5.22
16580,2.89
16592,1.1
16604,0.0
16616,-0.37
16628,-0.07
16640,0.79
16651,2.02
16662,3.37
16674,4.54
16686,5.25
16698,5.29
16710,4.58
16722,3.12
16734,0.95
16746,-1.89
16758,-5.43
16770,-9.68
16782,-14.62
16794,-20.15
16806,-26.11
16818,-32.28
16830,-38.35
16841,-43.89
16852,-48.26
16864,-50.69
16876,-50.34
16888,-46.65
16900,-39.55
16912,-29.68
16924,-18.24
16936,-6.73
16948,3.5
16960,11.56
16972,17.22
16984,20.73
16996,22.66
17008,23.54
17020,23.75
17031,23.49
17042,22.83
17054,21.85
17066,20.71
17078,19.58
17090,18.61
17102,17.85
17114,17.19
17126,16.41
17138,15.22
17150,13.35
17162,10.68
17174,7.28
17186,3.34
17198,-0.87
17210,-5.12
17221,-9.32
17232,-13.5
17244,-17.82
17256,-22.46
17268,-27.54
17280,-33.1
17292,-39.1
17304,-45.34
17316,-51.36
17328,-56.4
17340,-59.44
17352,-59.4
17364,-55.53
17376,-47.72
17388,-36.67
17400,-23.76
17411,-10.63
17422,1.29
17434,11.12
17446,18.61
17458,23.96
17470,27.55
17482,29.7
17494,30.63
17506,30.51
17518,29.6
17530,28.23
17542,26.8
17554,25.65
17566,24.91
17578,24.46
17590,24.01
17601,23.2
17612,21.76
17624,19.63
17636,16.91
17648,13.84
17660,10.58
17672,7.21
17684,3.66
17696,-0.21
17708,-4.5
17720,-9.22
17732,-14.29
17744,-19.68
17756,-25.36
17768,-31.28
17780,-37.19
17791,-42.53
17802,-46.37
17814,-47.61
17826,-45.34
17838,-39.19
17850,-29.52
17862,-17.4
17874,-4.31
17886,8.3
17898,19.29
17910,28.03
17922,34.3
17934,38.2
17946,39.94
17958,39.81
17970,38.14
17981,35.37
17992,31.98
18004,28.47
18016,25.24
18028,22.49
18040,20.25
18052,18.38
18064,16.7
18076,15.06
18088,13.32
18100,11.43
18112,9.31
18124,6.88
18136,4.07
18148,0.84
18160,-2.74
18171,-6.56
18182,-10.44
18194,-14.2
18206,-17.77
18218,-21.24
18230,-24.78
18242,-28.71
18254,-33.25
18266,-38.48
18278,-44.18
18290,-49.76
18302,-54.29
18314,-56.62
18326,-55.72
18338,-50.87
18350,-42.0
18361,-29.75
18372,-15.37
18384,-0.36
18396,13.82
18408,26.11
18420,35.98
18432,43.32
18444,48.31
18456,51.24
18468,52.44
18480,52.29
18492,51.23
18504,49.78
18516,48.41
18528,47.39
18540,46.75
18551,46.25
18562,45.53
18574,44.35
18586,42.62
18598,40.53
18610,38.31
18622,36.19
18634,34.13
18646,31.92
18658,29.17
18670,25.51
18682,20.79
18694,15.16
18706,9.0
18718,2.83
18730,-2.88
18741,-7.93
18752,-12.35
18764,-16.44
18776,-20.61
18788,-25.24
18800,-30.54
18812,-36.45
18824,-42.55
18836,-48.05
18848,-51.88
18860,-52.88
18872,-50.18
18884,-43.55
18896,-33.56
18908,-21.48
18920,-8.95
18931,2.57
18942,12.13
18954,19.38
18966,24.45
18978,27.6
18990,29.1
19002,29.13
19014,27.9
19026,25.8
19038,23.4
19050,21.27
19062,19.8
19074,19.07
19086,18.86
19098,18.8
19110,18.58
19121,18.07
19132,17.35
19144,16.58
19156,15.86
19168,15.1
19180,14.01
19192,12.27
19204,9.62
19216,6.02
19228,1.67
19240,-3.05
19252,-7.71
19264,-12.0
19276,-15.81
19288,-19.3
19300,-22.85
19311,-26.9
19322,-31.87
19334,-37.88
19346,-44.64
19358,-51.36
19370,-56.9
19382,-59.97
19394,-59.55
19406,-55.13
19418,-46.96
19430,-35.95
19442,-23.47
19454,-10.95
19466,0.42
19478,9.89
19490,17.16
19501,22.27
19512,25.46
19524,27.0
19536,27.16
19548,26.27
19560,24.69
19572,22.85
19584,21.18
19596,20.03
19608,19.55
19620,19.63
19632,20.03
19644,20.39
19656,20.49
19668,20.25
19680,19.76
19691,19.24
19702,18.81
19714,18.45
19726,17.89
19738,16.74
19750,14.67
19762,11.58
19774,7.66
19786,3.32
19798,-0.97
19810,-4.89
19822,-8.39
19834,-11.7
19846,-15.16
19858,-19.12
19870,-23.83
19881,-29.34
19892,-35.51
19904,-41.88
19916,-47.66
19928,-51.78
19940,-53.03
19952,-50.5
19964,-43.84
19976,-33.54
19988,-20.88
20000,-7.5
20012,4.98
20024,15.45
20036,23.42
20048,28.96
20060,32.49
20071,34.43
20082,35.13
20094,34.83
20106,33.74
20118,32.06
20130,30.1
20142,28.19
20154,26.66
20166,25.67
20178,25.23
20190,25.15
20202,25.15
20214,24.96
20226,24.39
20238,23.36
20250,21.88
20261,19.97
20272,17.64
20284,14.84
20296,11.6
20308,7.96
20320,4.03
20332,-0.08
20344,-4.29
20356,-8.53
20368,-12.72
20380,-16.75
20392,-20.47
20404,-23.81
20416,-26.83
20428,-29.79
20440,-33.02
20451,-36.87
20462,-41.48
20474,-46.66
20486,-51.81
20498,-56.02
20510,-58.19
20522,-57.35
20534,-52.92
20546,-44.9
20558,-33.97
20570,-21.25
20582,-8.08
20594,4.35
20606,15.18
20618,23.93
20630,30.46
20641,34.8
20652,37.11
20664,37.61
20676,36.68
20688,34.84
20700,32.7
20712,30.83
20724,29.64
20736,29.27
20748,29.55
20760,30.12
20772,30.58
20784,30.62
20796,30.1
20808,29.06
20820,27.63
20831,25.93
20842,24.07
20854,22.06
20866,19.89
20878,17.53
20890,14.91
20902,11.96
20914,8.65
20926,5.0
20938,1.14
20950,-2.77
20962,-6.56
20974,-10.21
20986,-13.86
20998,-17.75
