seconds,BVP
10,9.26
22,9.37
34,9.23
46,8.87
58,8.42
70,7.98
82,7.61
94,7.26
106,6.82
118,6.22
130,5.47
141,4.7
152,4.04
164,3.56
176,3.23
188,2.92
200,2.46
212,1.78
224,0.91
236,-0.01
248,-0.81
260,-1.36
272,-1.65
284,-1.78
296,-1.9
308,-2.14
320,-2.58
331,-3.23
342,-4.02
354,-4.83
366,-5.52
378,-6.03
390,-6.33
402,-6.51
414,-6.78
426,-7.29
438,-8.16
450,-9.33
462,-10.61
474,-11.7
486,-12.34
498,-12.31
510,-11.51
521,-9.96
532,-7.76
544,-5.1
556,-2.22
568,0.58
580,3.05
592,4.98
604,6.28
616,7.02
628,7.4
640,7.62
652,7.83
664,8.06
676,8.26
688,8.3
700,8.12
711,7.76
722,7.36
734,7.09
746,7.07
758,7.3
770,7.67
782,8.02
794,8.22
806,8.23
818,8.11
830,7.95
842,7.81
854,7.68
866,7.53
878,7.3
890,6.94
901,6.49
912,5.95
924,5.35
936,4.72
948,4.05
960,3.39
972,2.76
984,2.19
996,1.7
1008,1.29
1020,0.94
1032,0.62
1044,0.32
1056,0.03
1068,-0.25
1080,-0.51
1091,-0.77
1102,-1.06
1114,-1.43
1126,-1.9
1138,-2.48
1150,-3.12
1162,-3.78
1174,-4.41
1186,-4.98
1198,-5.5
1210,-6.01
1222,-6.57
1234,-7.22
1246,-7.98
1258,-8.81
1270,-9.6
1281,-10.17
1292,-10.3
1304,-9.81
1316,-8.6
1328,-6.74
1340,-4.37
1352,-1.76
1364,0.84
1376,3.19
1388,5.16
1400,6.65
1412,7.65
1424,8.18
1436,8.32
1448,8.14
1460,7.68
1471,7.01
1482,6.19
1494,5.31
1506,4.47
1518,3.78
1530,3.33
1542,3.13
1554,3.15
1566,3.3
1578,3.48
1590,3.62
1602,3.71
1614,3.74
1626,3.71
1638,3.61
1650,3.43
1661,3.19
1672,2.84
1684,2.41
1696,1.93
1708,1.44
1720,0.99
1732,0.56
1744,0.12
1756,-0.4
1768,-1.06
1780,-1.86
1792,-2.72
1804,-3.53
1816,-4.16
1828,-4.58
1840,-4.82
1851,-4.98
1862,-5.17
1874,-5.45
1886,-5.83
1898,-6.22
1910,-6.56
1922,-6.75
1934,-6.8
1946,-6.78
1958,-6.85
1970,-7.19
1982,-7.85
1994,-8.79
2006,-9.82
2018,-10.62
2030,-10.91
2041,-10.46
2052,-9.24
2064,-7.34
2076,-5.02
2088,-2.6
2100,-0.35
2112,1.55
2124,3.01
2136,4.08
2148,4.85
2160,5.42
2172,5.85
2184,6.12
2196,6.19
2208,6.03
2220,5.59
2231,4.93
2242,4.13
2254,3.36
2266,2.77
2278,2.49
2290,2.56
2302,2.89
2314,3.33
2326,3.71
2338,3.94
2350,3.96
2362,3.83
2374,3.6
2386,3.32
2398,3.0
2410,2.63
2421,2.26
2432,1.92
2444,1.67
2456,1.48
2468,1.32
2480,1.12
2492,0.83
2504,0.45
2516,0.04
2528,-0.4
2540,-0.82
2552,-1.23
2564,-1.6
2576,-1.87
2588,-1.97
2600,-1.91
2611,-1.75
2622,-1.66
2634,-1.81
2646,-2.31
2658,-3.14
2670,-4.17
2682,-5.22
2694,-6.14
2706,-6.89
2718,-7.5
2730,-8.03
2742,-8.57
2754,-9.18
2766,-9.84
2778,-10.49
2790,-10.97
2801,-11.05
2812,-10.53
2824,-9.3
2836,-7.39
2848,-5.03
2860,-2.52
2872,-0.16
2884,1.83
2896,3.34
2908,4.4
2920,5.1
2932,5.56
2944,5.85
2956,5.99
2968,6.0
2980,5.86
2991,5.57
3002,5.17
3014,4.76
3026,4.45
3038,4.31
3050,4.39
3062,4.65
3074,5.04
3086,5.45
3098,5.78
3110,5.92
3122,5.77
3134,5.28
3146,4.48
3158,3.5
3170,2.55
3181,1.81
3192,1.38
3204,1.22
3216,1.23
3228,1.27
3240,1.27
3252,1.21
3264,1.14
3276,1.06
3288,0.94
3300,0.74
3312,0.43
3324,0.04
3336,-0.36
3348,-0.73
3360,-1.0
3371,-1.17
3382,-1.25
3394,-1.3
3406,-1.37
3418,-1.55
3430,-1.93
3442,-2.55
3454,-3.4
3466,-4.38
3478,-5.38
3490,-6.25
3502,-6.91
3514,-7.33
3526,-7.54
3538,-7.65
3550,-7.76
3561,-7.98
3572,-8.37
3584,-8.88
3596,-9.35
3608,-9.56
3620,-9.27
3632,-8.34
3644,-6.76
3656,-4.65
3668,-2.21
3680,0.32
3692,2.7
3704,4.72
3716,6.26
3728,7.23
3740,7.64
3751,7.55
3762,7.11
3774,6.45
3786,5.74
3798,5.09
3810,4.6
3822,4.29
3834,4.18
3846,4.19
3858,4.24
3870,4.27
3882,4.23
3894,4.13
3906,4.02
3918,3.96
3930,3.96
3941,4.03
3952,4.12
3964,4.14
3976,4.07
3988,3.86
4000,3.54
4012,3.16
4024,2.73
4036,2.27
4048,1.73
4060,1.09
4072,0.36
4084,-0.4
4096,-1.14
4108,-1.83
4120,-2.46
4131,-3.11
4142,-3.81
4154,-4.56
4166,-5.32
4178,-6.02
4190,-6.63
4202,-7.14
4214,-7.57
4226,-7.87
4238,-7.99
4250,-7.9
4262,-7.68
4274,-7.55
4286,-7.74
4298,-8.43
4310,-9.53
4321,-10.72
4332,-11.55
4344,-11.6
4356,-10.67
4368,-8.83
4380,-6.38
4392,-3.69
4404,-1.1
4416,1.2
4428,3.17
4440,4.8
4452,6.12
4464,7.09
4476,7.69
4488,7.94
4500,7.9
4511,7.7
4522,7.45
4534,7.25
4546,7.12
4558,7.02
4570,6.92
4582,6.82
4594,6.75
4606,6.74
4618,6.83
4630,6.99
4642,7.16
4654,7.24
4666,7.14
4678,6.84
4690,6.35
4701,5.76
4712,5.18
4724,4.69
4736,4.34
4748,4.06
4760,3.79
4772,3.42
4784,2.88
4796,2.16
4808,1.26
4820,0.24
4832,-0.8
4844,-1.78
4856,-2.6
4868,-3.19
4880,-3.54
4891,-3.72
4902,-3.85
4914,-4.06
4926,-4.41
4938,-4.9
4950,-5.47
4962,-6.02
4974,-6.48
4986,-6.83
4998,-7.1
5010,-7.36
5022,-7.73
5034,-8.34
5046,-9.24
5058,-10.4
5070,-11.64
5081,-12.66
5092,-13.13
5104,-12.79
5116,-11.53
5128,-9.47
5140,-6.86
5152,-4.04
5164,-1.34
5176,1.05
5188,3.02
5200,4.57
5212,5.71
5224,6.5
5236,6.99
5248,7.24
5260,7.33
5271,7.37
5282,7.4
5294,7.43
5306,7.4
5318,7.27
5330,7.04
5342,6.82
5354,6.73
5366,6.83
5378,7.12
5390,7.49
5402,7.84
5414,8.08
5426,8.23
5438,8.34
5450,8.4
5461,8.35
5472,8.08
5484,7.48
5496,6.56
5508,5.42
5520,4.23
5532,3.15
5544,2.28
5556,1.6
5568,1.04
5580,0.48
5592,-0.22
5604,-1.21
5616,-2.6
5628,-4.44
5640,-6.66
5651,-9.12
5662,-11.55
5674,-13.69
5686,-15.35
5698,-16.43
5710,-16.95
5722,-16.98
5734,-16.6
5746,-15.97
5758,-15.28
5770,-14.74
5782,-14.51
5794,-14.66
5806,-15.14
5818,-15.79
5830,-16.46
5841,-16.95
5852,-17.1
5864,-16.69
5876,-15.41
5888,-12.97
5900,-9.24
5912,-4.47
5924,0.66
5936,5.24
5948,8.45
5960,9.91
5972,9.84
5984,8.91
5996,7.85
6008,7.2
6020,7.09
6031,7.31
6042,7.61
6054,7.8
6066,7.92
6078,8.1
6090,8.41
6102,8.8
6114,9.14
6126,9.29
6138,9.18
6150,8.86
6162,8.48
6174,8.15
6186,8.03
6198,8.19
6210,8.61
6221,9.23
6232,9.89
6244,10.36
6256,10.46
6268,10.04
6280,9.0
6292,7.36
6304,5.19
6316,2.66
6328,0.03
6340,-2.44
6352,-4.54
6364,-6.14
6376,-7.25
6388,-7.98
6400,-8.46
6411,-8.76
6422,-8.86
6434,-8.74
6446,-8.39
6458,-7.88
6470,-7.33
6482,-6.86
6494,-6.5
6506,-6.3
6518,-6.21
6530,-6.24
6542,-6.34
6554,-6.42
6566,-6.31
6578,-5.8
6590,-4.74
6601,-3.11
6612,-1.05
6624,1.18
6636,3.29
6648,5.1
6660,6.54
6672,7.67
6684,8.53
6696,9.19
6708,9.6
6720,9.71
6732,9.45
6744,8.86
6756,8.05
6768,7.2
6780,6.49
6791,6.01
6802,5.8
6814,5.8
6826,5.98
6838,6.29
6850,6.7
6862,7.13
6874,7.47
6886,7.59
6898,7.34
6910,6.68
6922,5.65
6934,4.37
6946,2.97
6958,1.61
6970,0.41
6981,-0.53
6992,-1.18
7004,-1.55
7016,-1.72
7028,-1.79
7040,-1.9
7052,-2.14
7064,-2.53
7076,-3.03
7088,-3.59
7100,-4.17
7112,-4.76
7124,-5.42
7136,-6.19
7148,-7.1
7160,-8.16
7171,-9.37
7182,-10.68
7194,-11.96
7206,-13.03
7218,-13.64
7230,-13.55
7242,-12.63
7254,-10.89
7266,-8.51
7278,-5.78
7290,-2.98
7302,-0.32
7314,2.08
7326,4.18
7338,5.97
7350,7.44
7361,8.56
7372,9.3
7384,9.65
7396,9.6
7408,9.18
7420,8.49
7432,7.69
7444,7.01
7456,6.68
7468,6.81
7480,7.34
7492,8.08
7504,8.77
7516,9.19
7528,9.23
7540,8.91
7551,8.29
7562,7.47
7574,6.49
7586,5.42
7598,4.31
7610,3.23
7622,2.21
7634,1.19
7646,0.09
7658,-1.2
7670,-2.71
7682,-4.4
7694,-6.17
7706,-7.89
7718,-9.49
7730,-10.9
7741,-12.02
7752,-12.72
7764,-12.86
7776,-12.36
7788,-11.33
7800,-10.02
7812,-8.79
7824,-7.92
7836,-7.57
7848,-7.74
7860,-8.28
7872,-8.87
7884,-9.14
7896,-8.68
7908,-7.19
7920,-4.63
7931,-1.26
7942,2.38
7954,5.66
7966,8.1
7978,9.56
7990,10.24
8002,10.57
8014,10.99
8026,11.74
8038,12.87
8050,14.24
8062,15.64
8074,16.81
8086,17.57
8098,17.74
8110,17.2
8121,15.93
8132,13.97
8144,11.45
8156,8.52
8168,5.35
8180,2.11
8192,-0.97
8204,-3.62
8216,-5.56
8228,-6.59
8240,-6.66
8252,-5.92
8264,-4.63
8276,-3.08
8288,-1.46
8300,0.19
8311,1.87
8322,3.63
8334,5.36
8346,6.88
8358,7.92
8370,8.26
8382,7.78
8394,6.43
8406,4.29
8418,1.43
8430,-2.04
8442,-6.0
8454,-10.31
8466,-14.78
8478,-19.22
8490,-23.42
8501,-27.23
8512,-30.48
8524,-32.98
8536,-34.49
8548,-34.76
8560,-33.56
8572,-30.82
8584,-26.7
8596,-21.58
8608,-15.95
8620,-10.32
8632,-5.07
8644,-0.45
8656,3.44
8668,6.53
8680,8.78
8691,10.17
8702,10.79
8714,10.83
8726,10.55
8738,10.23
8750,10.09
8762,10.25
8774,10.71
8786,11.41
8798,12.25
8810,13.14
8822,14.01
8834,14.84
8846,15.63
8858,16.35
8870,16.99
8881,17.46
8892,17.65
8904,17.47
8916,16.91
8928,16.03
8940,14.92
8952,13.7
8964,12.38
8976,10.92
8988,9.27
9000,7.4
9012,5.37
9024,3.34
9036,1.46
9048,-0.13
9060,-1.42
9071,-2.49
9082,-3.5
9094,-4.55
9106,-5.64
9118,-6.71
9130,-7.6
9142,-8.23
9154,-8.6
9166,-8.88
9178,-9.28
9190,-9.99
9202,-11.08
9214,-12.44
9226,-13.85
9238,-14.98
9250,-15.48
9261,-15.08
9272,-13.68
9284,-11.31
9296,-8.23
9308,-4.79
9320,-1.36
9332,1.73
9344,4.32
9356,6.35
9368,7.88
9380,8.97
9392,9.69
9404,10.04
9416,10.01
9428,9.63
9440,8.96
9451,8.12
9462,7.25
9474,6.49
9486,5.94
9498,5.61
9510,5.45
9522,5.39
9534,5.4
9546,5.47
9558,5.6
9570,5.78
9582,5.97
9594,6.09
9606,6.1
9618,6.0
9630,5.85
9641,5.68
9652,5.46
9664,5.11
9676,4.53
9688,3.7
9700,2.66
9712,1.55
9724,0.49
9736,-0.39
9748,-1.02
9760,-1.35
9772,-1.38
9784,-1.14
9796,-0.72
9808,-0.28
9820,0.01
9831,0.05
9842,-0.2
9854,-0.65
9866,-1.2
9878,-1.75
9890,-2.24
9902,-2.66
9914,-3.02
9926,-3.34
9938,-3.66
9950,-4.0
9962,-4.41
9974,-4.9
9986,-5.45
9998,-5.99
10010,-6.43
10021,-6.76
10032,-7.02
10044,-7.31
10056,-7.75
10068,-8.33
10080,-8.94
10092,-9.32
10104,-9.18
10116,-8.29
10128,-6.61
10140,-4.33
10152,-1.79
10164,0.6
10176,2.5
10188,3.77
10200,4.45
10211,4.71
10222,4.8
10234,4.85
10246,4.92
10258,4.96
10270,4.93
10282,4.83
10294,4.73
10306,4.68
10318,4.71
10330,4.75
10342,4.76
10354,4.68
10366,4.56
10378,4.47
10390,4.53
10401,4.74
10412,5.06
10424,5.38
10436,5.61
10448,5.69
10460,5.63
10472,5.4
10484,4.99
10496,4.39
10508,3.61
10520,2.72
10532,1.86
10544,1.14
10556,0.68
10568,0.5
10580,0.53
10591,0.66
10602,0.78
10614,0.79
10626,0.67
10638,0.43
10650,0.14
10662,-0.16
10674,-0.38
10686,-0.49
10698,-0.53
10710,-0.57
10722,-0.74
10734,-1.15
10746,-1.8
10758,-2.62
10770,-3.43
10781,-4.05
10792,-4.42
10804,-4.58
10816,-4.73
10828,-5.05
10840,-5.61
10852,-6.38
10864,-7.16
10876,-7.78
10888,-8.14
10900,-8.3
10912,-8.4
10924,-8.63
10936,-9.03
10948,-9.5
10960,-9.83
10971,-9.77
10982,-9.14
10994,-7.9
11006,-6.17
11018,-4.14
11030,-2.08
11042,-0.23
11054,1.25
11066,2.25
11078,2.79
11090,2.94
11102,2.8
11114,2.48
11126,2.07
11138,1.61
11150,1.13
11161,0.69
11172,0.3
11184,0.03
11196,-0.1
11208,-0.06
11220,0.15
11232,0.55
11244,1.13
11256,1.88
11268,2.74
11280,3.64
11292,4.46
11304,5.05
11316,5.32
11328,5.23
11340,4.82
11351,4.18
11362,3.44
11374,2.71
11386,2.08
11398,1.57
11410,1.14
11422,0.77
11434,0.41
11446,0.07
11458,-0.27
11470,-0.62
11482,-1.03
11494,-1.52
11506,-2.11
11518,-2.77
11530,-3.45
11541,-4.12
11552,-4.72
11564,-5.22
11576,-5.63
11588,-5.95
11600,-6.19
11612,-6.37
11624,-6.51
11636,-6.66
11648,-6.83
11660,-7.09
11672,-7.51
11684,-8.14
11696,-8.97
11708,-9.93
11720,-10.81
11731,-11.37
11742,-11.36
11754,-10.65
11766,-9.27
11778,-7.35
11790,-5.11
11802,-2.8
11814,-0.63
11826,1.24
11838,2.69
11850,3.66
11862,4.19
11874,4.36
11886,4.34
11898,4.3
11910,4.33
11921,4.5
11932,4.78
11944,5.09
11956,5.36
11968,5.51
11980,5.54
11992,5.52
12004,5.54
12016,5.68
12028,5.95
12040,6.28
12052,6.56
12064,6.71
12076,6.71
12088,6.6
12100,6.41
12111,6.12
12122,5.67
12134,5.0
12146,4.14
12158,3.18
12170,2.3
12182,1.65
12194,1.27
12206,1.1
12218,0.98
12230,0.79
12242,0.43
12254,-0.09
12266,-0.7
12278,-1.31
12290,-1.79
12301,-2.06
12312,-2.13
12324,-2.07
12336,-2.01
12348,-2.1
12360,-2.41
12372,-2.92
12384,-3.57
12396,-4.24
12408,-4.86
12420,-5.4
12432,-5.88
12444,-6.31
12456,-6.72
12468,-7.14
12480,-7.64
12491,-8.29
12502,-9.1
12514,-9.99
12526,-10.71
12538,-10.96
12550,-10.52
12562,-9.32
12574,-7.5
12586,-5.3
12598,-2.98
12610,-0.74
12622,1.31
12634,3.08
12646,4.47
12658,5.42
12670,5.89
12681,6.02
12692,5.97
12704,5.96
12716,6.07
12728,6.26
12740,6.41
12752,6.39
12764,6.21
12776,5.99
12788,5.89
12800,6.0
12812,6.31
12824,6.72
12836,7.11
12848,7.4
12860,7.56
12871,7.59
12882,7.49
12894,7.22
12906,6.75
12918,6.07
12930,5.23
12942,4.31
12954,3.41
12966,2.59
12978,1.87
12990,1.27
13002,0.84
13014,0.59
13026,0.54
13038,0.61
13050,0.69
13061,0.66
13072,0.47
13084,0.14
13096,-0.25
13108,-0.62
13120,-0.93
13132,-1.2
13144,-1.48
13156,-1.83
13168,-2.3
13180,-2.91
13192,-3.63
13204,-4.45
13216,-5.32
13228,-6.19
13240,-7.04
13251,-7.88
13262,-8.76
13274,-9.73
13286,-10.86
13298,-12.11
13310,-13.35
13322,-14.35
13334,-14.82
13346,-14.52
13358,-13.35
13370,-11.34
13382,-8.69
13394,-5.73
13406,-2.75
13418,-0.02
13430,2.3
13441,4.13
13452,5.45
13464,6.33
13476,6.85
13488,7.16
13500,7.35
13512,7.48
13524,7.47
13536,7.23
13548,6.71
13560,5.94
13572,5.09
13584,4.38
13596,4.0
13608,4.01
13620,4.35
13631,4.9
13642,5.48
13654,6.01
13666,6.4
13678,6.6
13690,6.6
13702,6.4
13714,6.03
13726,5.51
13738,4.86
13750,4.06
13762,3.12
13774,2.06
13786,0.94
13798,-0.15
13810,-1.11
13821,-1.89
13832,-2.49
13844,-2.91
13856,-3.19
13868,-3.36
13880,-3.51
13892,-3.72
13904,-4.1
13916,-4.75
13928,-5.67
13940,-6.77
13952,-7.91
13964,-8.93
13976,-9.77
13988,-10.45
14000,-11.08
14011,-11.74
14022,-12.48
14034,-13.19
14046,-13.64
14058,-13.53
14070,-12.63
14082,-10.83
14094,-8.19
14106,-4.98
14118,-1.53
14130,1.81
14142,4.71
14154,6.96
14166,8.45
14178,9.21
14190,9.41
14201,9.29
14212,9.08
14224,8.94
14236,8.9
14248,8.89
14260,8.76
14272,8.42
14284,7.88
14296,7.25
14308,6.71
14320,6.4
14332,6.35
14344,6.54
14356,6.86
14368,7.2
14380,7.5
14391,7.69
14402,7.74
14414,7.6
14426,7.21
14438,6.56
14450,5.74
14462,4.86
14474,4.08
14486,3.47
14498,3.0
14510,2.52
14522,1.88
14534,1.0
14546,-0.06
14558,-1.13
14570,-2.02
14581,-2.61
14592,-2.89
14604,-2.99
14616,-3.08
14628,-3.33
14640,-3.79
14652,-4.47
14664,-5.31
14676,-6.24
14688,-7.19
14700,-8.06
14712,-8.84
14724,-9.56
14736,-10.32
14748,-11.21
14760,-12.28
14771,-13.39
14782,-14.26
14794,-14.52
14806,-13.86
14818,-12.15
14830,-9.51
14842,-6.28
14854,-2.86
14866,0.37
14878,3.17
14890,5.42
14902,7.08
14914,8.16
14926,8.74
14938,8.89
14950,8.74
14961,8.4
14972,7.93
14984,7.42
14996,6.89
15008,6.39
15020,5.98
15032,5.73
15044,5.67
15056,5.79
15068,6.04
15080,6.37
15092,6.74
15104,7.15
15116,7.56
15128,7.88
15140,8.0
15151,7.81
15162,7.28
15174,6.49
15186,5.64
15198,4.9
15210,4.36
15222,3.96
15234,3.53
15246,2.92
15258,2.06
15270,1.06
15282,0.09
15294,-0.64
15306,-1.08
15318,-1.29
15330,-1.46
15341,-1.75
15352,-2.26
15364,-2.94
15376,-3.65
15388,-4.25
15400,-4.67
15412,-4.95
15424,-5.2
15436,-5.54
15448,-6.04
15460,-6.72
15472,-7.48
15484,-8.27
15496,-9.06
15508,-9.85
15520,-10.69
15531,-11.51
15542,-12.12
15554,-12.26
15566,-11.67
15578,-10.21
15590,-7.98
15602,-5.22
15614,-2.29
15626,0.52
15638,2.97
15650,4.96
15662,6.45
15674,7.44
15686,7.95
15698,8.02
15710,7.75
15721,7.28
15732,6.71
15744,6.17
15756,5.73
15768,5.44
15780,5.29
15792,5.27
15804,5.29
15816,5.28
15828,5.15
15840,4.85
15852,4.43
15864,3.99
15876,3.64
15888,3.49
15900,3.51
15911,3.57
15922,3.52
15934,3.21
15946,2.57
15958,1.66
15970,0.62
15982,-0.37
15994,-1.14
16006,-1.61
16018,-1.79
16030,-1.82
16042,-1.86
16054,-2.07
16066,-2.53
16078,-3.23
16090,-4.07
16101,-4.91
16112,-5.63
16124,-6.15
16136,-6.46
16148,-6.65
16160,-6.82
16172,-7.1
16184,-7.61
16196,-8.4
16208,-9.42
16220,-10.46
16232,-11.21
16244,-11.34
16256,-10.63
16268,-8.99
16280,-6.54
16291,-3.55
16302,-0.41
16314,2.48
16326,4.79
16338,6.37
16350,7.2
16362,7.44
16374,7.31
16386,7.03
16398,6.74
16410,6.5
16422,6.33
16434,6.2
16446,6.12
16458,6.08
16470,6.11
16481,6.18
16492,6.26
16504,6.35
16516,6.44
16528,6.58
16540,6.8
16552,7.1
16564,7.45
16576,7.72
16588,7.75
16600,7.44
16612,6.78
16624,5.89
16636,4.96
16648,4.16
16660,3.53
16671,3.02
16682,2.5
16694,1.85
16706,1.02
16718,0.08
16730,-0.86
16742,-1.66
16754,-2.27
16766,-2.65
16778,-2.84
16790,-2.9
16802,-2.94
16814,-3.09
16826,-3.46
16838,-4.1
16850,-4.93
16861,-5.82
16872,-6.62
16884,-7.24
16896,-7.73
16908,-8.24
16920,-8.93
16932,-9.9
16944,-11.08
16956,-12.27
16968,-13.12
16980,-13.32
16992,-12.6
17004,-10.92
17016,-8.37
17028,-5.23
17040,-1.9
17051,1.21
17062,3.78
17074,5.61
17086,6.73
17098,7.29
17110,7.5
17122,7.56
17134,7.53
17146,7.42
17158,7.19
17170,6.87
17182,6.52
17194,6.25
17206,6.12
17218,6.15
17230,6.28
17241,6.43
17252,6.51
17264,6.48
17276,6.33
17288,6.08
17300,5.8
17312,5.53
17324,5.3
17336,5.11
17348,4.88
17360,4.49
17372,3.89
17384,3.09
17396,2.23
17408,1.47
17420,0.94
17431,0.65
17442,0.51
17454,0.37
17466,0.11
17478,-0.3
17490,-0.84
17502,-1.43
17514,-2.0
17526,-2.5
17538,-2.9
17550,-3.19
17562,-3.35
17574,-3.4
17586,-3.41
17598,-3.5
17610,-3.79
17621,-4.36
17632,-5.19
17644,-6.15
17656,-7.08
17668,-7.85
17680,-8.39
17692,-8.79
17704,-9.21
17716,-9.82
17728,-10.68
17740,-11.75
17752,-12.79
17764,-13.49
17776,-13.52
17788,-12.63
17800,-10.78
17811,-8.14
17822,-5.06
17834,-1.93
17846,0.88
17858,3.16
17870,4.83
17882,5.97
17894,6.69
17906,7.12
17918,7.36
17930,7.45
17942,7.42
17954,7.32
17966,7.19
17978,7.07
17990,7.01
18001,6.99
18012,7.0
18024,6.97
18036,6.85
18048,6.64
18060,6.41
18072,6.24
18084,6.21
18096,6.33
18108,6.5
18120,6.56
18132,6.32
18144,5.71
18156,4.78
18168,3.69
18180,2.62
18191,1.74
18202,1.03
18214,0.42
18226,-0.26
18238,-1.09
18250,-2.06
18262,-3.04
18274,-3.84
18286,-4.33
18298,-4.47
18310,-4.36
18322,-4.14
18334,-3.96
18346,-3.93
18358,-4.06
18370,-4.31
18381,-4.65
18392,-5.02
18404,-5.41
18416,-5.78
18428,-6.14
18440,-6.48
18452,-6.87
18464,-7.38
18476,-8.1
18488,-9.04
18500,-10.11
18512,-11.08
18524,-11.67
18536,-11.65
18548,-10.88
18560,-9.39
18571,-7.38
18582,-5.09
18594,-2.75
18606,-0.54
18618,1.48
18630,3.25
18642,4.78
18654,6.0
18666,6.87
18678,7.36
18690,7.47
18702,7.28
18714,6.87
18726,6.35
18738,5.82
18750,5.34
18761,4.98
18772,4.81
18784,4.88
18796,5.2
18808,5.69
18820,6.22
18832,6.67
18844,6.92
18856,6.97
18868,6.86
18880,6.67
18892,6.44
18904,6.18
18916,5.84
18928,5.38
18940,4.79
18951,4.06
18962,3.26
18974,2.46
18986,1.72
18998,1.11
19010,0.68
19022,0.4
19034,0.17
19046,-0.13
19058,-0.6
19070,-1.24
19082,-2.0
19094,-2.72
19106,-3.31
19118,-3.7
19130,-3.99
19141,-4.32
19152,-4.81
19164,-5.51
19176,-6.34
19188,-7.2
19200,-8.0
19212,-8.69
19224,-9.29
19236,-9.88
19248,-10.53
19260,-11.24
19272,-11.95
19284,-12.55
19296,-12.88
19308,-12.77
19320,-12.08
19331,-10.73
19342,-8.72
19354,-6.15
19366,-3.28
19378,-0.45
19390,2.04
19402,3.97
19414,5.31
19426,6.14
19438,6.62
19450,6.92
19462,7.12
19474,7.24
19486,7.28
19498,7.28
19510,7.25
19521,7.22
19532,7.16
19544,7.02
19556,6.81
19568,6.58
19580,6.46
19592,6.54
19604,6.85
19616,7.3
19628,7.71
19640,7.91
19652,7.81
19664,7.39
19676,6.72
19688,5.87
19700,4.91
19711,3.92
19722,2.99
19734,2.2
19746,1.61
19758,1.17
19770,0.8
19782,0.37
19794,-0.17
19806,-0.8
19818,-1.42
19830,-1.91
19842,-2.24
19854,-2.43
19866,-2.6
19878,-2.82
19890,-3.15
19901,-3.53
19912,-3.93
19924,-4.32
19936,-4.76
19948,-5.32
19960,-6.04
19972,-6.86
19984,-7.64
19996,-8.26
20008,-8.69
20020,-9.07
20032,-9.56
20044,-10.29
20056,-11.1
20068,-11.71
20080,-11.7
20091,-10.81
20102,-9.02
20114,-6.59
20126,-3.9
20138,-1.31
20150,0.99
20162,2.98
20174,4.68
20186,6.07
20198,7.12
20210,7.75
20222,8.0
20234,7.97
20246,7.84
20258,7.73
20270,7.64
20281,7.51
20292,7.25
20304,6.87
20316,6.5
20328,6.33
20340,6.48
20352,6.94
20364,7.52
20376,7.97
20388,8.09
20400,7.83
20412,7.27
20424,6.57
20436,5.87
20448,5.18
20460,4.48
20471,3.75
20482,3.03
20494,2.44
20506,2.08
20518,1.94
20530,1.9
20542,1.73
20554,1.26
20566,0.41
20578,-0.71
20590,-1.88
20602,-2.89
20614,-3.61
20626,-4.07
20638,-4.42
20650,-4.87
20661,-5.52
20672,-6.35
20684,-7.2
20696,-7.89
20708,-8.33
20720,-8.54
20732,-8.69
20744,-8.95
20756,-9.46
20768,-10.19
20780,-11.03
20792,-11.78
20804,-12.22
20816,-12.17
20828,-11.45
20840,-10.0
20851,-7.8
20862,-5.03
20874,-2.0
20886,0.93
20898,3.41
20910,5.26
20922,6.49
20934,7.24
20946,7.69
20958,7.95
20970,8.0
20982,7.76
20994,7.2
