seconds,BVP
7,28.64
19,36.24
31,42.76
43,47.76
55,50.98
67,52.54
79,52.76
90,51.99
101,50.57
113,48.69
125,46.47
137,43.91
149,41.03
161,37.93
173,35.19
185,33.22
197,32.04
209,31.34
221,30.79
233,30.25
245,29.71
257,29.23
269,28.82
280,29.23
291,30.76
303,33.18
315,36.08
327,39.44
339,43.69
351,49.29
363,56.35
375,64.48
387,74.13
399,85.04
411,96.08
423,105.82
435,113.36
447,118.55
459,121.61
470,122.81
481,122.34
493,122.0
505,122.71
517,123.97
529,124.25
541,122.12
553,116.87
565,108.4
577,97.18
589,73.97
601,37.21
613,-6.85
625,-48.73
637,-82.66
649,-108.26
660,-127.54
671,-142.13
683,-152.34
695,-157.82
707,-157.08
719,-150.47
731,-140.62
743,-130.98
755,-123.74
767,-118.96
779,-115.31
791,-111.23
803,-105.82
815,-97.82
827,-87.12
839,-74.72
850,-61.88
861,-49.26
873,-36.82
885,-24.6
897,-13.3
909,-4.47
921,0.88
933,1.9
945,-1.64
957,-8.7
969,-17.03
981,-24.12
993,-28.61
1005,-30.98
1017,-32.8
1029,-34.95
1040,-36.05
1051,-33.33
1063,-23.83
1075,-6.58
1087,16.02
1099,38.47
1111,54.27
1123,58.89
1135,51.67
1147,35.51
1159,14.9
1171,-5.86
1183,-24.04
1195,-38.67
1207,-49.87
1219,-58.2
1230,-64.23
1241,-68.8
1253,-73.25
1265,-78.96
1277,-85.94
1289,-92.54
1301,-95.72
1313,-92.63
1325,-82.04
1337,-65.04
1349,-44.93
1361,-26.48
1373,-14.08
1385,-9.33
1397,-10.53
1409,-13.32
1420,-12.39
1431,-3.45
1443,15.76
1455,44.95
1467,79.76
1479,112.88
1491,136.49
1503,144.91
1515,137.14
1527,117.76
1539,95.42
1551,80.16
1563,79.45
1575,95.42
1587,119.15
1599,137.95
1610,142.13
1621,132.3
1633,116.92
1645,103.61
1657,94.2
1669,84.16
1681,66.06
1693,34.42
1705,-9.87
1717,-58.76
1729,-103.7
1741,-136.68
1753,-153.54
1765,-154.35
1777,-142.54
1789,-122.87
1800,-99.52
1811,-74.59
1823,-48.68
1835,-22.35
1847,2.97
1859,22.93
1871,33.64
1883,33.53
1895,24.19
1907,9.75
1919,-4.31
1931,-13.11
1943,-14.11
1955,-7.67
1967,3.01
1979,13.77
1990,21.05
2001,23.11
2013,20.32
2025,14.44
2037,7.73
2049,1.85
2061,-2.65
2073,-6.63
2085,-11.62
2097,-19.5
2109,-31.01
2121,-45.36
2133,-60.96
2145,-75.87
2157,-88.36
2169,-96.99
2180,-100.68
2191,-98.84
2203,-91.51
2215,-79.45
2227,-63.77
2239,-46.73
2251,-30.77
2263,-17.78
2275,-8.5
2287,-2.3
2299,2.52
2311,8.08
2323,16.1
2335,28.29
2347,44.23
2359,62.61
2370,81.65
2381,99.33
2393,113.77
2405,123.63
2417,128.57
2429,125.88
2441,118.65
2453,108.98
2465,97.45
2477,83.34
2489,65.7
2501,44.71
2513,22.29
2525,1.67
2537,-14.0
2549,-22.56
2560,-25.09
2571,-24.53
2583,-24.19
2595,-26.36
2607,-31.49
2619,-38.45
2631,-45.38
2643,-50.93
2655,-53.33
2667,-52.23
2679,-47.72
2691,-40.3
2703,-31.09
2715,-22.14
2727,-16.43
2739,-16.97
2750,-25.28
2761,-39.64
2773,-55.53
2785,-66.48
2797,-66.64
2809,-53.38
2821,-28.64
2833,1.83
2845,30.69
2857,51.89
2869,62.8
2881,64.06
2893,58.64
2905,49.96
2917,40.56
2929,31.8
2940,24.22
2951,17.96
2963,13.12
2975,9.82
2987,7.74
2999,6.33
3011,4.64
3023,1.56
3035,-3.54
3047,-10.42
3059,-18.04
3071,-24.86
3083,-29.05
3095,-29.06
3107,-24.07
3119,-14.54
3130,-2.01
3141,11.35
3153,23.54
3165,32.98
3177,38.82
3189,41.05
3201,40.04
3213,35.63
3225,26.41
3237,10.08
3249,-15.08
3261,-46.47
3273,-77.18
3285,-99.73
3297,-110.13
3309,-109.0
3320,-100.34
3331,-89.19
3343,-79.18
3355,-70.87
3367,-62.05
3379,-49.88
3391,-32.97
3403,-12.35
3415,9.33
3427,29.05
3439,44.79
3451,56.01
3463,63.45
3475,67.76
3487,68.63
3499,65.12
3510,56.84
3521,45.12
3533,32.77
3545,22.81
3557,17.12
3569,15.05
3581,14.26
3593,11.92
3605,6.21
3617,-2.89
3629,-13.63
3641,-23.61
3653,-30.69
3665,-33.43
3677,-30.79
3689,-22.62
3700,-9.69
3711,6.42
3723,23.08
3735,37.37
3747,46.97
3759,51.06
3771,49.03
3783,44.73
3795,41.99
3807,42.01
3819,42.84
3831,40.68
3843,32.66
3855,18.74
3867,1.76
3879,-14.4
3890,-26.96
3901,-36.21
3913,-44.83
3925,-54.63
3937,-65.03
3949,-72.73
3961,-73.66
3973,-65.39
3985,-49.06
3997,-29.04
4009,-11.32
4021,-0.68
4033,1.48
4045,-2.96
4057,-9.99
4069,-15.65
4080,-17.58
4091,-15.41
4103,-10.37
4115,-4.62
4127,-0.07
4139,2.3
4151,1.52
4163,-2.48
4175,-9.06
4187,-16.89
4199,-23.91
4211,-27.62
4223,-25.71
4235,-16.84
4247,-1.36
4259,18.33
4270,38.48
4281,54.99
4293,64.72
4305,66.46
4317,61.05
4329,50.79
4341,38.29
4353,25.7
4365,14.11
4377,3.83
4389,-5.19
4401,-12.93
4413,-18.99
4425,-22.64
4437,-23.11
4449,-19.89
4460,-12.85
4471,-2.17
4483,11.84
4495,28.88
4507,48.44
4519,69.61
4531,90.88
4543,110.26
4555,125.68
4567,135.58
4579,139.2
4591,136.42
4603,127.17
4615,110.87
4627,86.43
4639,53.18
4650,12.13
4661,-33.13
4673,-76.79
4685,-112.43
4697,-135.26
4709,-143.7
4721,-139.57
4733,-126.9
4745,-109.91
4757,-91.75
4769,-74.23
4781,-58.48
4793,-45.84
4805,-37.99
4817,-36.33
4829,-40.96
4840,-50.09
4851,-60.14
4863,-66.83
4875,-66.69
4887,-58.29
4899,-42.93
4911,-24.29
4923,-7.29
4935,3.61
4947,5.9
4959,-0.05
4971,-11.37
4983,-23.93
4995,-33.99
5007,-39.6
5019,-40.95
5030,-39.7
5041,-37.79
5053,-36.51
5065,-36.08
5077,-36.08
5089,-35.98
5101,-35.52
5113,-34.68
5125,-33.49
5137,-31.77
5149,-29.33
5161,-26.22
5173,-22.96
5185,-20.51
5197,-19.86
5209,-21.56
5220,-25.24
5231,-29.62
5243,-32.77
5255,-32.8
5267,-28.51
5279,-19.76
5291,-7.47
5303,6.7
5315,20.93
5327,33.62
5339,43.65
5351,50.39
5363,53.75
5375,54.07
5387,52.23
5399,49.55
5410,47.42
5421,46.98
5433,48.55
5445,51.57
5457,54.85
5469,57.17
5481,57.9
5493,57.33
5505,56.33
5517,55.74
5529,55.71
5541,55.57
5553,54.04
5565,49.9
5577,42.69
5589,33.02
5600,22.63
5611,13.6
5623,7.53
5635,5.02
5647,5.57
5659,7.95
5671,10.78
5683,13.04
5695,14.32
5707,15.15
5719,16.23
5731,18.01
5743,20.52
5755,23.55
5767,26.94
5779,30.6
5790,34.53
5801,38.78
5813,44.05
5825,50.68
5837,58.18
5849,65.34
5861,70.79
5873,73.65
5885,73.69
5897,71.42
5909,67.87
5921,65.4
5933,65.72
5945,68.97
5957,73.63
5969,77.58
5980,79.13
5991,77.52
6003,73.05
6015,66.91
6027,62.1
6039,60.91
6051,63.74
6063,69.11
6075,74.89
6087,79.3
6099,80.87
6111,78.11
6123,61.17
6135,25.74
6147,-23.69
6159,-75.63
6170,-119.26
6181,-149.17
6193,-165.03
6205,-169.77
6217,-167.68
6229,-162.93
6241,-156.92
6253,-149.58
6265,-140.37
6277,-128.91
6289,-115.08
6301,-99.13
6313,-82.11
6325,-65.73
6337,-51.73
6349,-40.03
6360,-29.9
6371,-21.01
6383,-13.92
6395,-9.57
6407,-8.44
6419,-10.21
6431,-13.66
6443,-16.98
6455,-17.92
6467,-15.52
6479,-10.78
6491,-6.11
6503,-3.72
6515,-4.61
6527,-7.95
6539,-11.37
6550,-11.73
6561,-5.91
6573,7.62
6585,27.9
6597,51.54
6609,72.79
6621,86.51
6633,88.93
6645,78.82
6657,57.93
6669,30.81
6681,3.46
6693,-18.29
6705,-30.34
6717,-31.49
6729,-23.76
6740,-11.71
6751,-0.8
6763,4.65
6775,2.91
6787,-4.62
6799,-14.85
6811,-24.13
6823,-29.64
6835,-30.19
6847,-26.34
6859,-19.88
6871,-12.96
6883,-7.35
6895,-3.93
6907,-2.74
6919,-3.06
6930,-4.03
6941,-5.02
6953,-5.92
6965,-6.97
6977,-8.3
6989,-9.58
7001,-9.93
7013,-8.37
7025,-4.45
7037,1.12
7049,6.74
7061,10.49
7073,11.1
7085,8.66
7097,4.54
7109,0.63
7120,-1.7
7131,-2.29
7143,-2.3
7155,-3.33
7167,-6.46
7179,-11.54
7191,-17.29
7203,-21.91
7215,-24.02
7227,-23.31
7239,-20.03
7251,-15.54
7263,-11.42
7275,-8.79
7287,-7.98
7299,-8.64
7310,-10.13
7321,-11.98
7333,-13.88
7345,-15.69
7357,-17.24
7369,-17.99
7381,-17.01
7393,-13.37
7405,-6.6
7417,3.1
7429,14.87
7441,27.78
7453,40.74
7465,52.51
7477,61.64
7489,67.04
7500,67.92
7511,63.96
7523,55.44
7535,43.29
7547,29.16
7559,14.54
7571,0.29
7583,-13.62
7595,-26.71
7607,-38.26
7619,-47.38
7631,-53.52
7643,-56.49
7655,-56.03
7667,-52.38
7679,-46.45
7690,-39.89
7701,-33.31
7713,-26.7
7725,-19.81
7737,-12.29
7749,-3.71
7761,7.25
7773,21.41
7785,38.33
7797,55.77
7809,72.0
7821,85.57
7833,95.45
7845,100.97
7857,97.21
7869,82.48
7880,59.91
7891,39.09
7903,21.46
7915,6.3
7927,-7.88
7939,-21.16
7951,-33.29
7963,-43.81
7975,-51.42
7987,-55.2
7999,-55.25
8011,-53.13
8023,-49.71
8035,-45.63
8047,-41.42
8059,-37.63
8070,-34.68
8081,-32.17
8093,-29.8
8105,-27.71
8117,-26.79
8129,-27.03
8141,-27.89
8153,-28.56
8165,-28.32
8177,-26.64
8189,-22.92
8201,-17.09
8213,-9.71
8225,-1.97
8237,5.32
8249,11.62
8260,16.62
8271,20.3
8283,22.91
8295,25.0
8307,26.98
8319,28.99
8331,30.89
8343,32.57
8355,33.86
8367,34.64
8379,34.94
8391,34.92
8403,34.68
8415,34.24
8427,33.59
8439,32.9
8450,32.38
8461,32.0
8473,31.31
8485,29.61
8497,25.95
8509,19.35
8521,9.12
8533,-5.68
8545,-23.47
8557,-40.73
8569,-54.1
8581,-62.16
8593,-64.92
8605,-62.81
8617,-56.22
8629,-45.75
8640,-32.51
8651,-18.07
8663,-4.63
8675,6.55
8687,14.36
8699,18.49
8711,19.29
8723,17.43
8735,13.77
8747,9.36
8759,5.56
8771,3.5
8783,3.64
8795,5.14
8807,6.79
8819,7.07
8830,4.68
8841,-0.78
8853,-8.54
8865,-16.88
8877,-24.01
8889,-28.76
8901,-30.95
8913,-31.01
8925,-29.74
8937,-28.0
8949,-26.55
8961,-26.06
8973,-27.04
8985,-29.86
8997,-34.39
9009,-39.94
9020,-45.09
9031,-48.06
9043,-47.32
9055,-42.0
9067,-32.11
9079,-18.38
9091,-1.95
9103,15.99
9115,34.4
9127,52.43
9139,69.35
9151,84.38
9163,96.79
9175,105.98
9187,111.69
9199,113.94
9210,113.01
9221,109.27
9233,103.12
9245,94.83
9257,84.64
9269,72.94
9281,60.34
9293,47.63
9305,35.58
9317,24.72
9329,15.36
9341,7.6
9353,1.12
9365,-4.66
9377,-10.28
9389,-16.01
9400,-21.68
9411,-26.75
9423,-30.48
9435,-32.02
9447,-30.69
9459,-26.75
9471,-21.28
9483,-15.84
9495,-11.68
9507,-9.44
9519,-9.19
9531,-10.69
9543,-13.46
9555,-16.85
9567,-20.5
9579,-23.97
9590,-26.78
9601,-28.55
9613,-29.72
9625,-32.13
9637,-38.75
9649,-52.29
9661,-70.35
9673,-87.62
9685,-98.16
9697,-99.67
9709,-93.83
9721,-83.93
9733,-72.66
9745,-61.69
9757,-51.45
9769,-41.78
9780,-33.2
9791,-26.81
9803,-23.83
9815,-24.44
9827,-27.32
9839,-29.84
9851,-29.0
9863,-22.04
9875,-7.65
9887,12.63
9899,34.75
9911,53.58
9923,65.16
9935,68.25
9947,65.05
9959,58.22
9970,50.54
9981,43.57
9993,36.92
10005,29.14
10017,19.06
10029,7.08
10041,-4.72
10053,-13.62
10065,-17.81
10077,-17.05
10089,-12.93
10101,-8.24
10113,-5.52
10125,-5.95
10137,-8.81
10149,-12.14
10160,-13.78
10171,-12.5
10183,-8.21
10195,-1.77
10207,5.78
10219,14.08
10231,23.05
10243,32.72
10255,42.82
10267,52.52
10279,60.44
10291,65.23
10303,66.07
10315,63.14
10327,57.6
10339,51.21
10350,45.7
10361,42.22
10373,41.21
10385,42.5
10397,45.31
10409,48.36
10421,50.15
10433,49.14
10445,44.04
10457,34.18
10469,19.49
10481,1.33
10493,-17.71
10505,-34.79
10517,-47.87
10529,-56.08
10540,-59.55
10551,-59.11
10563,-55.71
10575,-50.77
10587,-44.8
10599,-37.49
10611,-29.07
10623,-20.74
10635,-13.88
10647,-8.88
10659,-4.89
10671,-0.44
10683,4.43
10695,9.52
10707,14.47
10719,18.08
10730,18.42
10741,14.1
10753,5.29
10765,-6.99
10777,-21.95
10789,-40.93
10801,-64.07
10813,-89.15
10825,-112.52
10837,-129.92
10849,-136.81
10861,-129.16
10873,-105.74
10885,-61.9
10897,-8.87
10909,31.64
10920,44.81
10931,32.44
10943,7.68
10955,-14.29
10967,-22.6
10979,-14.28
10991,6.08
11003,28.44
11015,44.92
11027,52.53
11039,51.38
11051,43.14
11063,26.95
11075,2.29
11087,-29.76
11099,-65.49
11110,-99.5
11121,-123.46
11133,-129.23
11145,-113.4
11157,-79.62
11169,-37.01
11181,4.79
11193,38.65
11205,62.24
11217,74.25
11229,77.59
11241,77.3
11253,77.01
11265,77.13
11277,75.63
11289,71.3
11300,64.16
11311,55.59
11323,47.43
11335,42.15
11347,41.4
11359,45.04
11371,51.36
11383,58.24
11395,65.28
11407,72.28
11419,78.69
11431,83.33
11443,85.54
11455,85.2
11467,82.67
11479,78.54
11490,67.67
11501,49.31
11513,26.61
11525,4.16
11537,-15.45
11549,-31.85
11561,-45.65
11573,-57.23
11585,-66.92
11597,-74.46
11609,-77.93
11621,-76.32
11633,-70.23
11645,-61.86
11657,-53.82
11669,-48.34
11680,-46.06
11691,-46.86
11703,-49.49
11715,-51.28
11727,-49.91
11739,-43.88
11751,-33.11
11763,-18.86
11775,-3.51
11787,9.99
11799,18.79
11811,21.39
11823,18.97
11835,14.76
11847,13.13
11859,17.51
11870,28.96
11881,45.78
11893,64.25
11905,79.73
11917,88.37
11929,88.54
11941,80.94
11953,68.61
11965,55.25
11977,43.87
11989,35.87
12001,30.72
12013,25.71
12025,16.78
12037,0.25
12049,-26.59
12060,-60.49
12071,-93.32
12083,-117.3
12095,-128.97
12107,-128.46
12119,-117.23
12131,-96.83
12143,-69.25
12155,-37.76
12167,-6.97
12179,17.57
12191,31.19
12203,32.63
12215,25.0
12227,14.18
12239,5.81
12250,2.68
12261,4.07
12273,7.05
12285,8.45
12297,5.97
12309,-0.61
12321,-9.34
12333,-17.18
12345,-21.45
12357,-21.18
12369,-17.16
12381,-11.11
12393,-5.23
12405,-1.48
12417,-0.9
12429,-3.15
12440,-6.55
12451,-8.9
12463,-8.73
12475,-5.75
12487,-0.71
12499,4.81
12511,8.93
12523,9.17
12535,4.13
12547,-5.63
12559,-17.75
12571,-29.06
12583,-36.36
12595,-36.76
12607,-28.14
12619,-9.64
12630,17.68
12641,47.78
12653,72.66
12665,87.49
12677,92.12
12689,89.15
12701,81.95
12713,73.49
12725,65.49
12737,57.99
12749,49.94
12761,40.43
12773,29.44
12785,17.71
12797,6.45
12809,-3.0
12820,-9.71
12831,-13.68
12843,-15.94
12855,-17.8
12867,-19.92
12879,-22.08
12891,-23.75
12903,-24.69
12915,-25.06
12927,-25.33
12939,-26.03
12951,-27.52
12963,-29.33
12975,-30.34
12987,-29.36
12999,-25.77
13010,-19.88
13021,-12.56
13033,-4.73
13045,2.97
13057,10.26
13069,17.21
13081,23.93
13093,30.4
13105,36.28
13117,41.05
13129,44.27
13141,45.81
13153,45.78
13165,44.5
13177,42.43
13189,40.02
13200,37.77
13211,35.98
13223,34.68
13235,33.48
13247,31.77
13259,28.65
13271,23.19
13283,15.0
13295,4.3
13307,-8.21
13319,-21.55
13331,-34.68
13343,-46.71
13355,-56.5
13367,-63.14
13379,-65.86
13390,-64.39
13401,-59.18
13413,-51.52
13425,-43.14
13437,-35.77
13449,-30.72
13461,-28.1
13473,-27.64
13485,-28.82
13497,-31.07
13509,-33.92
13521,-36.76
13533,-38.81
13545,-39.1
13557,-36.98
13569,-31.74
13580,-23.63
13591,-13.35
13603,-1.71
13615,10.44
13627,22.12
13639,31.75
13651,38.72
13663,38.63
13675,30.88
13687,16.35
13699,-2.0
13711,-19.98
13723,-33.73
13735,-41.19
13747,-42.9
13759,-41.18
13770,-38.79
13781,-36.68
13793,-34.36
13805,-30.31
13817,-23.3
13829,-13.46
13841,-2.43
13853,7.27
13865,13.8
13877,16.79
13889,17.92
13901,19.23
13913,22.04
13925,26.16
13937,30.09
13949,31.92
13960,30.18
13971,24.82
13983,17.18
13995,9.68
14007,4.18
14019,1.26
14031,0.02
14043,-1.09
14055,-1.52
14067,-0.4
14079,2.7
14091,6.92
14103,10.49
14115,11.38
14127,8.06
14139,0.31
14150,-10.38
14161,-21.34
14173,-30.21
14185,-35.76
14197,-38.19
14209,-38.5
14221,-37.51
14233,-35.21
14245,-30.87
14257,-23.67
14269,-13.62
14281,-2.19
14293,8.44
14305,16.32
14317,20.67
14329,22.17
14340,22.56
14351,23.57
14363,26.09
14375,29.95
14387,33.87
14399,36.38
14411,36.7
14423,34.54
14435,30.41
14447,25.21
14459,19.64
14471,14.12
14483,8.93
14495,4.29
14507,0.54
14519,-2.03
14530,-3.37
14541,-3.66
14553,-3.37
14565,-3.51
14577,-5.12
14589,-8.63
14601,-13.31
14613,-16.78
14625,-15.41
14637,-5.69
14649,13.93
14661,41.16
14673,69.13
14685,88.32
14697,90.53
14709,72.75
14720,38.91
14731,-1.79
14743,-39.05
14755,-65.76
14767,-77.78
14779,-75.4
14791,-62.84
14803,-45.65
14815,-28.74
14827,-15.59
14839,-9.22
14851,-12.61
14863,-27.5
14875,-52.31
14887,-81.46
14899,-106.38
14910,-118.58
14921,-113.33
14933,-90.99
14945,-57.53
14957,-21.97
14969,7.4
14981,25.99
14993,33.23
15005,31.29
15017,23.27
15029,11.93
15041,0.57
15053,-8.16
15065,-12.67
15077,-12.27
15089,-6.77
15100,3.28
15111,16.44
15123,30.71
15135,44.32
15147,57.91
15159,72.72
15171,89.19
15183,106.74
15195,124.58
15207,141.85
15219,157.58
15231,170.56
15243,169.63
15255,149.05
15267,112.67
15279,70.79
15290,32.27
15301,1.14
15313,-22.24
15325,-39.33
15337,-52.13
15349,-62.4
15361,-70.21
15373,-74.58
15385,-75.45
15397,-73.8
15409,-70.87
15421,-67.66
15433,-64.82
15445,-62.76
15457,-61.56
15469,-59.76
15480,-55.16
15491,-47.48
15503,-37.76
15515,-27.32
15527,-17.19
15539,-8.1
15551,-0.61
15563,4.79
15575,8.61
15587,11.48
15599,13.47
15611,14.44
15623,14.47
15635,13.87
15647,12.92
15659,11.64
15670,9.72
15681,7.19
15693,4.13
15705,0.45
15717,-3.86
15729,-8.54
15741,-13.12
15753,-17.04
15765,-19.84
15777,-21.31
15789,-21.3
15801,-19.94
15813,-17.71
15825,-15.22
15837,-12.9
15849,-10.93
15860,-9.28
15871,-7.84
15883,-6.61
15895,-5.73
15907,-5.48
15919,-6.1
15931,-7.58
15943,-9.66
15955,-11.86
15967,-13.65
15979,-14.53
15991,-14.17
16003,-12.39
16015,-9.14
16027,-4.55
16039,1.03
16050,7.05
16061,12.82
16073,17.61
16085,20.84
16097,22.27
16109,21.97
16121,20.32
16133,17.82
16145,14.9
16157,11.88
16169,8.81
16181,5.59
16193,2.07
16205,-1.76
16217,-5.71
16229,-9.42
16240,-12.46
16251,-14.5
16263,-15.34
16275,-15.08
16287,-14.1
16299,-13.05
16311,-12.64
16323,-13.34
16335,-15.21
16347,-17.78
16359,-20.1
16371,-20.95
16383,-19.47
16395,-15.51
16407,-9.73
16419,-3.28
16430,2.58
16441,6.88
16453,9.18
16465,9.59
16477,8.94
16489,8.06
16501,7.5
16513,7.54
16525,8.46
16537,10.52
16549,13.92
16561,18.67
16573,24.55
16585,31.53
16597,39.02
16609,45.68
16620,50.1
16631,51.67
16643,50.87
16655,49.04
16667,47.8
16679,48.52
16691,52.63
16703,60.05
16715,69.01
16727,77.0
16739,82.29
16751,84.47
16763,84.21
16775,82.7
16787,81.24
16799,81.91
16810,85.56
16821,91.17
16833,96.48
16845,99.03
16857,96.65
16869,87.31
16881,69.45
16893,36.45
16905,-10.16
16917,-60.12
16929,-101.01
16941,-126.6
16953,-138.2
16965,-140.79
16977,-139.07
16989,-135.3
17000,-129.01
17011,-117.24
17023,-98.42
17035,-74.15
17047,-48.64
17059,-26.24
17071,-9.59
17083,0.9
17095,6.62
17107,9.53
17119,11.93
17131,14.34
17143,15.64
17155,14.39
17167,10.45
17179,5.15
17190,0.32
17201,-2.92
17213,-4.66
17225,-5.31
17237,-5.84
17249,-7.26
17261,-9.9
17273,-13.04
17285,-15.38
17297,-15.95
17309,-14.77
17321,-13.09
17333,-11.97
17345,-12.79
17357,-16.55
17369,-23.33
17380,-32.1
17391,-40.93
17403,-47.78
17415,-51.11
17427,-50.51
17439,-46.35
17451,-40.36
17463,-35.1
17475,-32.92
17487,-34.96
17499,-40.44
17511,-46.82
17523,-50.81
17535,-49.82
17547,-42.54
17559,-30.24
17570,-16.27
17581,-4.79
17593,1.24
17605,1.59
17617,-1.33
17629,-3.56
17641,-1.32
17653,8.13
17665,24.41
17677,44.33
17689,63.47
17701,78.22
17713,87.67
17725,93.38
17737,97.7
17749,97.73
17760,92.3
17771,80.4
17783,61.72
17795,37.34
17807,9.92
17819,-16.22
17831,-36.52
17843,-48.19
17855,-50.45
17867,-43.34
17879,-28.24
17891,-7.77
17903,14.23
17915,29.93
17927,32.59
17939,22.01
17950,3.39
17961,-17.07
17973,-34.41
17985,-46.53
17997,-53.81
18009,-57.54
18021,-58.93
18033,-58.71
18045,-55.76
18057,-50.24
18069,-43.7
18081,-37.89
18093,-34.32
18105,-33.65
18117,-35.53
18129,-38.78
18140,-41.34
18151,-40.87
18163,-36.35
18175,-28.17
18187,-17.4
18199,-5.44
18211,6.34
18223,16.74
18235,24.78
18247,29.99
18259,32.69
18271,33.11
18283,31.76
18295,29.86
18307,29.09
18319,31.05
18330,36.42
18341,44.62
18353,54.16
18365,63.83
18377,72.42
18389,79.25
18401,84.23
18413,87.68
18425,89.97
18437,91.28
18449,91.65
18461,91.07
18473,90.02
18485,88.18
18497,84.61
18509,78.43
18520,69.83
18531,60.34
18543,52.12
18555,46.56
18567,38.79
18579,25.03
18591,3.54
18603,-23.94
18615,-52.88
18627,-77.76
18639,-94.26
18651,-101.05
18663,-100.12
18675,-95.43
18687,-90.11
18699,-85.67
18710,-81.84
18721,-77.74
18733,-72.99
18745,-68.23
18757,-64.42
18769,-61.65
18781,-58.58
18793,-52.52
18805,-41.32
18817,-24.88
18829,-5.74
18841,11.97
18853,24.59
18865,29.85
18877,28.01
18889,21.31
18900,12.79
18911,4.99
18923,-0.67
18935,-3.88
18947,-4.95
18959,-4.31
18971,-2.39
18983,0.22
18995,2.65
19007,3.46
19019,1.51
19031,-3.51
19043,-10.78
19055,-18.42
19067,-23.76
19079,-24.2
19090,-18.03
19101,-3.64
19113,15.75
19125,33.93
19137,45.72
19149,49.85
19161,48.87
19173,46.62
19185,45.4
19197,44.39
19209,40.6
19221,30.29
19233,12.2
19245,-11.48
19257,-36.27
19269,-57.7
19280,-73.17
19291,-82.49
19303,-88.12
19315,-91.13
19327,-92.21
19339,-90.95
19351,-86.24
19363,-77.27
19375,-64.25
19387,-48.65
19399,-32.86
19411,-19.51
19423,-10.21
19435,-5.77
19447,-5.46
19459,-7.23
19470,-8.72
19481,-8.1
19493,-4.54
19505,1.97
19517,9.24
19529,15.83
19541,20.3
19553,21.7
19565,19.5
19577,13.66
19589,4.75
19601,-5.82
19613,-15.81
19625,-22.6
19637,-23.55
19649,-17.46
19660,-4.94
19671,11.63
19683,28.63
19695,42.27
19707,49.57
19719,49.16
19731,41.36
19743,28.12
19755,11.95
19767,-4.73
19779,-20.09
19791,-33.01
19803,-42.84
19815,-49.19
19827,-51.78
19839,-50.62
19850,-46.03
19861,-38.88
19873,-30.31
19885,-21.34
19897,-12.53
19909,-3.93
19921,4.67
19933,13.43
19945,22.09
19957,30.05
19969,36.43
19981,40.44
19993,41.69
20005,40.28
20017,36.82
20029,32.16
20040,27.18
20051,22.54
20063,18.56
20075,15.19
20087,12.18
20099,9.17
20111,5.86
20123,2.1
20135,-2.2
20147,-7.1
20159,-12.61
20171,-18.72
20183,-25.24
20195,-31.8
20207,-37.93
20219,-43.14
20230,-47.12
20241,-49.74
20253,-50.97
20265,-50.73
20277,-48.73
20289,-44.59
20301,-38.03
20313,-29.15
20325,-18.61
20337,-7.5
20349,2.94
20361,11.79
20373,18.64
20385,23.63
20397,27.25
20409,29.95
20420,32.0
20431,33.33
20443,33.72
20455,32.98
20467,31.12
20479,28.47
20491,25.51
20503,22.79
20515,20.66
20527,19.17
20539,18.08
20551,16.99
20563,15.55
20575,13.62
20587,11.33
20599,8.93
20610,6.65
20621,4.49
20633,2.29
20645,-0.27
20657,-3.46
20669,-7.39
20681,-11.9
20693,-16.51
20705,-20.56
20717,-23.22
20729,-23.83
20741,-21.94
20753,-17.6
20765,-11.29
20777,-3.78
20789,4.12
20800,11.82
20811,18.93
20823,25.34
20835,30.9
20847,35.4
20859,38.52
20871,39.92
20883,39.51
20895,37.45
20907,34.17
20919,30.16
20931,25.82
20943,21.38
20955,16.88
20967,12.3
20979,7.56
20990,2.61
