seconds,BVP
9,-5.89
21,-2.88
33,0.02
45,2.75
57,5.26
69,7.49
81,9.43
93,11.15
105,12.74
117,14.24
129,15.58
140,16.62
151,17.19
163,17.18
175,16.57
187,15.5
199,14.18
211,12.84
223,11.65
235,10.65
247,9.75
259,8.77
271,7.5
283,5.78
295,3.47
307,0.53
319,-3.0
330,-7.04
341,-11.48
353,-16.07
365,-20.48
377,-24.25
389,-26.91
401,-28.1
413,-27.63
425,-25.67
437,-22.6
449,-18.94
461,-15.17
473,-11.6
485,-8.34
497,-5.36
509,-2.58
520,0.09
531,2.71
543,5.31
555,7.95
567,10.65
579,13.42
591,16.2
603,18.87
615,21.31
627,23.35
639,24.86
651,25.74
663,25.92
675,25.39
687,24.15
699,22.3
710,19.99
721,17.41
733,14.72
745,12.05
757,9.43
769,6.86
781,4.29
793,1.74
805,-0.8
817,-3.32
829,-5.81
841,-8.29
853,-10.71
865,-12.97
877,-14.87
889,-16.17
900,-16.69
911,-16.41
923,-15.49
935,-14.23
947,-12.95
959,-11.81
971,-10.85
983,-9.97
995,-9.06
1007,-8.06
1019,-7.04
1031,-6.12
1043,-5.45
1055,-5.06
1067,-4.95
1079,-5.05
1090,-5.32
1101,-5.76
1113,-6.39
1125,-7.25
1137,-8.3
1149,-9.44
1161,-10.5
1173,-11.29
1185,-11.7
1197,-11.69
1209,-11.36
1221,-10.87
1233,-10.45
1245,-10.27
1257,-10.44
1269,-10.97
1280,-11.82
1291,-12.89
1303,-14.08
1315,-15.23
1327,-16.16
1339,-16.6
1351,-16.24
1363,-14.79
1375,-12.13
1387,-8.33
1399,-3.73
1411,1.17
1423,5.87
1435,10.02
1447,13.5
1459,16.4
1470,18.86
1481,21.01
1493,22.83
1505,24.25
1517,25.14
1529,25.45
1541,25.23
1553,24.66
1565,23.96
1577,23.33
1589,22.88
1601,22.63
1613,22.45
1625,22.18
1637,21.72
1649,21.04
1660,20.19
1671,19.26
1683,18.24
1695,17.09
1707,15.7
1719,14.05
1731,12.16
1743,10.16
1755,8.18
1767,6.25
1779,4.34
1791,2.44
1803,0.62
1815,-0.89
1827,-1.83
1839,-2.0
1850,-1.34
1861,-0.02
1873,1.72
1885,3.63
1897,5.55
1909,7.41
1921,9.18
1933,10.84
1945,12.38
1957,13.77
1969,15.07
1981,16.33
1993,17.58
2005,18.76
2017,19.74
2029,20.32
2040,20.34
2051,19.78
2063,18.78
2075,17.57
2087,16.42
2099,15.49
2111,14.78
2123,14.18
2135,13.54
2147,12.76
2159,11.81
2171,10.73
2183,9.56
2195,8.23
2207,6.58
2219,4.45
2230,1.83
2241,-1.11
2253,-3.96
2265,-6.26
2277,-7.64
2289,-7.97
2301,-7.42
2313,-6.33
2325,-5.07
2337,-3.91
2349,-2.93
2361,-2.09
2373,-1.29
2385,-0.48
2397,0.34
2409,1.12
2420,1.85
2431,2.62
2443,3.64
2455,5.14
2467,7.34
2479,10.26
2491,13.72
2503,17.32
2515,20.6
2527,23.14
2539,24.69
2551,25.18
2563,24.7
2575,23.32
2587,21.14
2599,18.18
2610,14.57
2621,10.55
2633,6.52
2645,2.93
2657,0.07
2669,-2.0
2681,-3.49
2693,-4.74
2705,-6.08
2717,-7.64
2729,-9.33
2741,-10.9
2753,-12.11
2765,-12.83
2777,-13.07
2789,-12.96
2800,-12.62
2811,-12.14
2823,-11.55
2835,-10.87
2847,-10.13
2859,-9.4
2871,-8.75
2883,-8.2
2895,-7.75
2907,-7.33
2919,-6.9
2931,-6.5
2943,-6.23
2955,-6.21
2967,-6.54
2979,-7.2
2990,-8.05
3001,-8.91
3013,-9.6
3025,-10.07
3037,-10.36
3049,-10.61
3061,-10.93
3073,-11.34
3085,-11.81
3097,-12.2
3109,-12.37
3121,-12.17
3133,-11.5
3145,-10.25
3157,-8.4
3169,-5.95
3180,-3.03
3191,0.16
3203,3.37
3215,6.38
3227,9.02
3239,11.24
3251,12.99
3263,14.26
3275,15.03
3287,15.21
3299,14.75
3311,13.62
3323,11.82
3335,9.4
3347,6.51
3359,3.41
3370,0.4
3381,-2.26
3393,-4.45
3405,-6.28
3417,-8.02
3429,-10.01
3441,-12.47
3453,-15.43
3465,-18.76
3477,-22.22
3489,-25.57
3501,-28.6
3513,-31.1
3525,-32.85
3537,-33.64
3549,-33.36
3560,-32.15
3571,-30.29
3583,-28.23
3595,-26.32
3607,-24.75
3619,-23.48
3631,-22.36
3643,-21.23
3655,-20.1
3667,-19.15
3679,-18.69
3691,-19.02
3703,-20.3
3715,-22.44
3727,-25.07
3739,-27.7
3750,-29.86
3761,-31.33
3773,-32.16
3785,-32.63
3797,-33.06
3809,-33.62
3821,-34.24
3833,-34.64
3845,-34.54
3857,-33.79
3869,-32.49
3881,-30.88
3893,-29.21
3905,-27.6
3917,-26.03
3929,-24.36
3940,-22.51
3951,-20.5
3963,-18.48
3975,-16.58
3987,-14.85
3999,-13.18
4011,-11.38
4023,-9.35
4035,-7.13
4047,-4.93
4059,-3.05
4071,-1.71
4083,-0.94
4095,-0.54
4107,-0.26
4119,0.14
4130,0.72
4141,1.42
4153,2.06
4165,2.45
4177,2.5
4189,2.16
4201,1.43
4213,0.31
4225,-1.16
4237,-2.92
4249,-4.75
4261,-6.35
4273,-7.38
4285,-7.52
4297,-6.61
4309,-4.64
4320,-1.83
4331,1.47
4343,4.84
4355,7.89
4367,10.32
4379,12.03
4391,13.12
4403,13.82
4415,14.42
4427,15.11
4439,15.95
4451,16.8
4463,17.43
4475,17.65
4487,17.38
4499,16.74
4510,15.95
4521,15.24
4533,14.72
4545,14.32
4557,13.84
4569,13.0
4581,11.57
4593,9.45
4605,6.66
4617,3.37
4629,-0.17
4641,-3.57
4653,-6.42
4665,-8.31
4677,-8.9
4689,-8.01
4700,-5.71
4711,-2.26
4723,1.85
4735,6.1
4747,9.95
4759,13.03
4771,15.19
4783,16.45
4795,16.99
4807,17.06
4819,16.88
4831,16.68
4843,16.57
4855,16.59
4867,16.75
4879,16.93
4890,17.03
4901,16.9
4913,16.47
4925,15.77
4937,14.89
4949,13.97
4961,13.04
4973,12.0
4985,10.66
4997,8.82
5009,6.42
5021,3.62
5033,0.76
5045,-1.77
5057,-3.6
5069,-4.49
5080,-4.34
5091,-3.2
5103,-1.2
5115,1.42
5127,4.34
5139,7.21
5151,9.73
5163,11.73
5175,13.19
5187,14.23
5199,14.97
5211,15.54
5223,15.98
5235,16.31
5247,16.53
5259,16.69
5270,16.8
5281,16.89
5293,16.99
5305,17.14
5317,17.37
5329,17.68
5341,17.98
5353,18.07
5365,17.71
5377,16.64
5389,14.73
5401,12.0
5413,8.66
5425,4.99
5437,1.29
5449,-2.23
5460,-5.45
5471,-8.3
5483,-10.78
5495,-12.87
5507,-14.57
5519,-15.84
5531,-16.61
5543,-16.76
5555,-16.19
5567,-14.79
5579,-12.58
5591,-9.71
5603,-6.52
5615,-3.45
5627,-0.89
5639,0.92
5650,1.97
5661,2.47
5673,2.7
5685,2.86
5697,3.0
5709,3.06
5721,2.94
5733,2.61
5745,2.18
5757,1.84
5769,1.78
5781,2.05
5793,2.54
5805,3.06
5817,3.42
5829,3.53
5840,3.44
5851,3.23
5863,2.99
5875,2.67
5887,2.2
5899,1.51
5911,0.6
5923,-0.41
5935,-1.38
5947,-2.19
5959,-2.89
5971,-3.66
5983,-4.75
5995,-6.33
6007,-8.42
6019,-10.8
6030,-13.16
6041,-15.12
6053,-16.38
6065,-16.71
6077,-16.04
6089,-14.43
6101,-12.1
6113,-9.38
6125,-6.64
6137,-4.21
6149,-2.27
6161,-0.81
6173,0.28
6185,1.11
6197,1.77
6209,2.24
6220,2.52
6231,2.62
6243,2.61
6255,2.59
6267,2.65
6279,2.8
6291,3.04
6303,3.37
6315,3.78
6327,4.25
6339,4.72
6351,5.03
6363,5.03
6375,4.66
6387,3.98
6399,3.15
6410,2.38
6421,1.73
6433,1.19
6445,0.66
6457,0.08
6469,-0.49
6481,-0.94
6493,-1.17
6505,-1.22
6517,-1.28
6529,-1.66
6541,-2.58
6553,-4.11
6565,-6.11
6577,-8.37
6589,-10.68
6600,-12.93
6611,-15.08
6623,-17.06
6635,-18.69
6647,-19.69
6659,-19.8
6671,-18.92
6683,-17.21
6695,-15.02
6707,-12.78
6719,-10.78
6731,-9.11
6743,-7.68
6755,-6.31
6767,-4.89
6779,-3.43
6790,-2.03
6801,-0.78
6813,0.25
6825,1.09
6837,1.78
6849,2.34
6861,2.74
6873,2.98
6885,3.08
6897,3.17
6909,3.38
6921,3.76
6933,4.23
6945,4.61
6957,4.71
6969,4.42
6980,3.82
6991,3.1
7003,2.46
7015,1.96
7027,1.52
7039,0.97
7051,0.19
7063,-0.82
7075,-1.9
7087,-2.88
7099,-3.62
7111,-4.13
7123,-4.53
7135,-5.0
7147,-5.71
7159,-6.74
7170,-8.08
7181,-9.61
7193,-11.14
7205,-12.42
7217,-13.19
7229,-13.18
7241,-12.22
7253,-10.31
7265,-7.64
7277,-4.6
7289,-1.62
7301,0.92
7313,2.85
7325,4.21
7337,5.21
7349,6.08
7360,6.94
7371,7.77
7383,8.45
7395,8.88
7407,9.1
7419,9.25
7431,9.53
7443,10.03
7455,10.7
7467,11.38
7479,11.89
7491,12.09
7503,12.0
7515,11.69
7527,11.28
7539,10.87
7550,10.48
7561,10.07
7573,9.55
7585,8.82
7597,7.83
7609,6.56
7621,5.08
7633,3.47
7645,1.86
7657,0.35
7669,-0.98
7681,-2.13
7693,-3.21
7705,-4.37
7717,-5.74
7729,-7.39
7740,-9.19
7751,-10.88
7763,-12.11
7775,-12.58
7787,-12.21
7799,-11.13
7811,-9.64
7823,-8.04
7835,-6.52
7847,-5.1
7859,-3.69
7871,-2.21
7883,-0.66
7895,0.87
7907,2.27
7919,3.46
7930,4.48
7941,5.46
7953,6.51
7965,7.66
7977,8.84
7989,9.85
8001,10.51
8013,10.69
8025,10.41
8037,9.8
8049,9.07
8061,8.39
8073,7.8
8085,7.26
8097,6.64
8109,5.84
8120,4.85
8131,3.75
8143,2.65
8155,1.62
8167,0.66
8179,-0.34
8191,-1.51
8203,-2.94
8215,-4.65
8227,-6.63
8239,-8.77
8251,-10.94
8263,-12.91
8275,-14.39
8287,-15.13
8299,-14.9
8310,-13.66
8321,-11.56
8333,-8.92
8345,-6.11
8357,-3.43
8369,-1.07
8381,0.92
8393,2.58
8405,3.98
8417,5.2
8429,6.32
8441,7.34
8453,8.23
8465,8.93
8477,9.36
8489,9.51
8500,9.46
8511,9.33
8523,9.3
8535,9.45
8547,9.78
8559,10.18
8571,10.44
8583,10.42
8595,10.02
8607,9.29
8619,8.37
8631,7.37
8643,6.37
8655,5.32
8667,4.08
8679,2.48
8690,0.47
8701,-1.85
8713,-4.32
8725,-6.78
8737,-9.15
8749,-11.46
8761,-13.71
8773,-15.77
8785,-17.34
8797,-18.02
8809,-17.5
8821,-15.71
8833,-12.88
8845,-9.47
8857,-5.95
8869,-2.66
8880,0.26
8891,2.83
8903,5.1
8915,7.11
8927,8.8
8939,10.11
8951,11.0
8963,11.49
8975,11.66
8987,11.61
8999,11.44
9011,11.25
9023,11.07
9035,10.92
9047,10.79
9059,10.68
9070,10.54
9081,10.38
9093,10.14
9105,9.75
9117,9.13
9129,8.2
9141,6.95
9153,5.4
9165,3.65
9177,1.79
9189,-0.1
9201,-2.02
9213,-4.02
9225,-6.22
9237,-8.72
9249,-11.54
9260,-14.55
9271,-17.49
9283,-19.94
9295,-21.38
9307,-21.42
9319,-19.91
9331,-16.97
9343,-13.03
9355,-8.64
9367,-4.33
9379,-0.49
9391,2.73
9403,5.31
9415,7.35
9427,8.99
9439,10.33
9450,11.38
9461,12.14
9473,12.6
9485,12.76
9497,12.67
9509,12.47
9521,12.28
9533,12.18
9545,12.13
9557,12.03
9569,11.75
9581,11.2
9593,10.39
9605,9.36
9617,8.15
9629,6.72
9640,4.95
9651,2.78
9663,0.23
9675,-2.56
9687,-5.37
9699,-8.05
9711,-10.59
9723,-13.07
9735,-15.54
9747,-17.84
9759,-19.56
9771,-20.05
9783,-18.68
9795,-15.1
9807,-9.37
9819,-1.95
9830,6.4
9841,14.8
9853,22.46
9865,28.67
9877,32.87
9889,34.69
9901,33.97
9913,30.84
9925,25.75
9937,19.38
9949,12.52
9961,5.96
9973,0.32
9985,-3.94
9997,-6.54
10009,-7.33
10020,-6.31
10031,-3.63
10043,0.32
10055,4.96
10067,9.56
10079,13.37
10091,15.78
10103,16.46
10115,15.39
10127,12.83
10139,9.13
10151,4.61
10163,-0.52
10175,-6.15
10187,-12.09
10199,-18.03
10210,-23.41
10221,-27.56
10233,-29.87
10245,-29.98
10257,-27.88
10269,-23.94
10281,-18.78
10293,-13.09
10305,-7.47
10317,-2.33
10329,2.09
10341,5.64
10353,8.24
10365,9.8
10377,10.29
10389,9.82
10400,8.65
10411,7.17
10423,5.84
10435,4.99
10447,4.76
10459,5.04
10471,5.52
10483,5.86
10495,5.85
10507,5.43
10519,4.75
10531,4.01
10543,3.32
10555,2.67
10567,1.89
10579,0.76
10590,-0.9
10601,-3.14
10613,-5.88
10625,-8.93
10637,-12.0
10649,-14.78
10661,-16.95
10673,-18.19
10685,-18.26
10697,-17.05
10709,-14.65
10721,-11.3
10733,-7.37
10745,-3.27
10757,0.68
10769,4.19
10780,7.13
10791,9.4
10803,10.99
10815,11.92
10827,12.26
10839,12.08
10851,11.49
10863,10.64
10875,9.67
10887,8.73
10899,7.92
10911,7.25
10923,6.67
10935,6.07
10947,5.35
10959,4.47
10970,3.47
10981,2.42
10993,1.37
11005,0.26
11017,-1.01
11029,-2.63
11041,-4.74
11053,-7.39
11065,-10.43
11077,-13.54
11089,-16.26
11101,-18.15
11113,-18.87
11125,-18.31
11137,-16.55
11149,-13.85
11160,-10.49
11171,-6.8
11183,-3.05
11195,0.51
11207,3.64
11219,6.13
11231,7.86
11243,8.81
11255,9.06
11267,8.77
11279,8.18
11291,7.5
11303,6.88
11315,6.44
11327,6.19
11339,6.05
11350,5.9
11361,5.62
11373,5.13
11385,4.47
11397,3.77
11409,3.15
11421,2.68
11433,2.27
11445,1.71
11457,0.77
11469,-0.74
11481,-2.85
11493,-5.39
11505,-8.08
11517,-10.54
11529,-12.38
11540,-13.27
11551,-12.98
11563,-11.44
11575,-8.78
11587,-5.29
11599,-1.41
11611,2.43
11623,5.85
11635,8.64
11647,10.77
11659,12.28
11671,13.31
11683,13.97
11695,14.32
11707,14.4
11719,14.22
11730,13.8
11741,13.23
11753,12.63
11765,12.07
11777,11.55
11789,10.94
11801,10.07
11813,8.86
11825,7.36
11837,5.8
11849,4.44
11861,3.42
11873,2.68
11885,1.94
11897,0.84
11909,-0.85
11920,-3.13
11931,-5.72
11943,-8.17
11955,-9.99
11967,-10.82
11979,-10.46
11991,-8.96
12003,-6.52
12015,-3.45
12027,-0.05
12039,3.39
12051,6.69
12063,9.72
12075,12.39
12087,14.63
12099,16.39
12110,17.67
12121,18.52
12133,19.03
12145,19.31
12157,19.42
12169,19.39
12181,19.2
12193,18.85
12205,18.32
12217,17.64
12229,16.81
12241,15.9
12253,14.94
12265,14.02
12277,13.18
12289,12.44
12300,11.71
12311,10.87
12323,9.81
12335,8.45
12347,6.86
12359,5.2
12371,3.8
12383,2.97
12395,3.02
12407,4.04
12419,5.94
12431,8.41
12443,11.02
12455,13.44
12467,15.46
12479,17.06
12490,18.37
12501,19.53
12513,20.57
12525,21.47
12537,22.12
12549,22.45
12561,22.45
12573,22.21
12585,21.83
12597,21.43
12609,21.03
12621,20.57
12633,19.94
12645,18.98
12657,17.59
12669,15.77
12680,13.62
12691,11.31
12703,8.99
12715,6.73
12727,4.51
12739,2.21
12751,-0.26
12763,-2.97
12775,-5.86
12787,-8.85
12799,-11.78
12811,-14.46
12823,-16.65
12835,-18.11
12847,-18.69
12859,-18.37
12870,-17.34
12881,-15.92
12893,-14.47
12905,-13.23
12917,-12.3
12929,-11.61
12941,-11.08
12953,-10.67
12965,-10.45
12977,-10.5
12989,-10.87
13001,-11.49
13013,-12.21
13025,-12.89
13037,-13.44
13049,-13.85
13060,-14.16
13071,-14.4
13083,-14.6
13095,-14.78
13107,-14.94
13119,-15.14
13131,-15.44
13143,-15.88
13155,-16.48
13167,-17.19
13179,-18.0
13191,-18.88
13203,-19.83
13215,-20.83
13227,-21.82
13239,-22.67
13250,-23.22
13261,-23.31
13273,-22.84
13285,-21.81
13297,-20.3
13309,-18.46
13321,-16.42
13333,-14.28
13345,-12.09
13357,-9.86
13369,-7.67
13381,-5.67
13393,-4.03
13405,-2.9
13417,-2.32
13429,-2.17
13440,-2.2
13451,-2.14
13463,-1.83
13475,-1.32
13487,-0.79
13499,-0.54
13511,-0.74
13523,-1.43
13535,-2.47
13547,-3.59
13559,-4.58
13571,-5.3
13583,-5.77
13595,-6.16
13607,-6.7
13619,-7.62
13630,-9.02
13641,-10.87
13653,-13.02
13665,-15.21
13677,-17.12
13689,-18.52
13701,-19.21
13713,-19.1
13725,-18.18
13737,-16.56
13749,-14.43
13761,-12.1
13773,-9.93
13785,-8.2
13797,-7.07
13809,-6.48
13820,-6.23
13831,-6.04
13843,-5.69
13855,-5.1
13867,-4.37
13879,-3.64
13891,-3.04
13903,-2.63
13915,-2.37
13927,-2.18
13939,-2.04
13951,-1.97
13963,-2.06
13975,-2.43
13987,-3.14
13999,-4.21
14010,-5.59
14021,-7.12
14033,-8.65
14045,-10.0
14057,-11.05
14069,-11.77
14081,-12.2
14093,-12.44
14105,-12.57
14117,-12.58
14129,-12.39
14141,-11.84
14153,-10.77
14165,-9.1
14177,-6.87
14189,-4.26
14200,-1.48
14211,1.29
14223,3.92
14235,6.4
14247,8.74
14259,10.98
14271,13.07
14283,14.96
14295,16.57
14307,17.88
14319,18.87
14331,19.61
14343,20.12
14355,20.41
14367,20.46
14379,20.21
14390,19.67
14401,18.8
14413,17.63
14425,16.18
14437,14.5
14449,12.62
14461,10.6
14473,8.5
14485,6.41
14497,4.44
14509,2.67
14521,1.15
14533,-0.15
14545,-1.34
14557,-2.57
14569,-3.96
14580,-5.56
14591,-7.31
14603,-9.04
14615,-10.55
14627,-11.58
14639,-11.94
14651,-11.5
14663,-10.3
14675,-8.51
14687,-6.4
14699,-4.25
14711,-2.3
14723,-0.65
14735,0.73
14747,1.97
14759,3.23
14770,4.6
14781,6.13
14793,7.75
14805,9.34
14817,10.79
14829,12.03
14841,13.07
14853,13.99
14865,14.83
14877,15.6
14889,16.23
14901,16.62
14913,16.67
14925,16.35
14937,15.73
14949,14.87
14960,13.85
14971,12.69
14983,11.36
14995,9.86
15007,8.15
15019,6.19
15031,3.96
15043,1.46
15055,-1.32
15067,-4.35
15079,-7.59
15091,-10.96
15103,-14.28
15115,-17.35
15127,-19.89
15139,-21.66
15150,-22.49
15161,-22.37
15173,-21.36
15185,-19.68
15197,-17.55
15209,-15.16
15221,-12.71
15233,-10.34
15245,-8.17
15257,-6.31
15269,-4.8
15281,-3.68
15293,-2.91
15305,-2.42
15317,-2.12
15329,-1.9
15340,-1.69
15351,-1.49
15363,-1.37
15375,-1.44
15387,-1.79
15399,-2.46
15411,-3.39
15423,-4.44
15435,-5.46
15447,-6.34
15459,-7.08
15471,-7.75
15483,-8.44
15495,-9.24
15507,-10.12
15519,-10.98
15530,-11.68
15541,-12.15
15553,-12.38
15565,-12.54
15577,-12.82
15589,-13.4
15601,-14.29
15613,-15.31
15625,-16.14
15637,-16.43
15649,-15.95
15661,-14.61
15673,-12.55
15685,-9.98
15697,-7.13
15709,-4.19
15720,-1.31
15731,1.42
15743,3.92
15755,6.16
15767,8.15
15779,9.92
15791,11.51
15803,12.9
15815,14.07
15827,14.92
15839,15.4
15851,15.57
15863,15.55
15875,15.53
15887,15.61
15899,15.77
15910,15.84
15921,15.63
15933,14.99
15945,13.93
15957,12.61
15969,11.25
15981,9.97
15993,8.8
16005,7.67
16017,6.49
16029,5.23
16041,3.91
16053,2.55
16065,1.07
16077,-0.66
16089,-2.79
16100,-5.4
16111,-8.39
16123,-11.52
16135,-14.4
16147,-16.68
16159,-18.07
16171,-18.43
16183,-17.76
16195,-16.21
16207,-13.99
16219,-11.37
16231,-8.56
16243,-5.73
16255,-3.0
16267,-0.48
16279,1.75
16290,3.61
16301,5.09
16313,6.21
16325,7.05
16337,7.68
16349,8.14
16361,8.4
16373,8.45
16385,8.27
16397,7.87
16409,7.31
16421,6.67
16433,5.99
16445,5.3
16457,4.63
16469,4.0
16480,3.44
16491,2.97
16503,2.56
16515,2.18
16527,1.82
16539,1.5
16551,1.24
16563,1.05
16575,0.93
16587,0.82
16599,0.65
16611,0.36
16623,-0.07
16635,-0.67
16647,-1.46
16659,-2.43
16670,-3.51
16681,-4.51
16693,-5.15
16705,-5.18
16717,-4.44
16729,-2.99
16741,-1.08
16753,0.97
16765,2.92
16777,4.64
16789,6.18
16801,7.63
16813,9.03
16825,10.34
16837,11.46
16849,12.34
16860,13.03
16871,13.65
16883,14.31
16895,15.03
16907,15.68
16919,16.02
16931,15.84
16943,14.98
16955,13.48
16967,11.48
16979,9.18
16991,6.72
17003,4.17
17015,1.53
17027,-1.19
17039,-3.9
17050,-6.44
17061,-8.59
17073,-10.21
17085,-11.33
17097,-12.16
17109,-12.96
17121,-13.94
17133,-15.13
17145,-16.36
17157,-17.39
17169,-18.02
17181,-18.15
17193,-17.73
17205,-16.75
17217,-15.17
17229,-12.95
17240,-10.16
17251,-7.03
17263,-3.9
17275,-1.1
17287,1.16
17299,2.9
17311,4.29
17323,5.52
17335,6.68
17347,7.75
17359,8.65
17371,9.34
17383,9.8
17395,10.13
17407,10.38
17419,10.56
17430,10.63
17441,10.56
17453,10.29
17465,9.82
17477,9.08
17489,8.01
17501,6.53
17513,4.67
17525,2.53
17537,0.33
17549,-1.72
17561,-3.48
17573,-4.98
17585,-6.37
17597,-7.84
17609,-9.53
17620,-11.5
17631,-13.74
17643,-16.19
17655,-18.71
17667,-21.09
17679,-22.96
17691,-23.91
17703,-23.59
17715,-21.82
17727,-18.72
17739,-14.67
17751,-10.16
17763,-5.72
17775,-1.7
17787,1.68
17799,4.41
17810,6.57
17821,8.29
17833,9.68
17845,10.84
17857,11.79
17869,12.51
17881,12.98
17893,13.2
17905,13.19
17917,13.03
17929,12.8
17941,12.52
17953,12.2
17965,11.82
17977,11.3
17989,10.6
18000,9.69
18011,8.59
18023,7.4
18035,6.21
18047,5.13
18059,4.21
18071,3.44
18083,2.73
18095,1.98
18107,1.04
18119,-0.17
18131,-1.72
18143,-3.56
18155,-5.51
18167,-7.25
18179,-8.38
18190,-8.48
18201,-7.29
18213,-4.83
18225,-1.41
18237,2.48
18249,6.31
18261,9.67
18273,12.43
18285,14.66
18297,16.58
18309,18.36
18321,20.09
18333,21.69
18345,22.99
18357,23.85
18369,24.22
18380,24.14
18391,23.64
18403,22.71
18415,21.22
18427,19.03
18439,16.04
18451,12.32
18463,8.07
18475,3.6
18487,-0.85
18499,-5.11
18511,-9.08
18523,-12.69
18535,-15.82
18547,-18.36
18559,-20.2
18570,-21.3
18581,-21.73
18593,-21.65
18605,-21.34
18617,-21.1
18629,-21.19
18641,-21.72
18653,-22.55
18665,-23.33
18677,-23.56
18689,-22.81
18701,-20.86
18713,-17.81
18725,-13.95
18737,-9.7
18749,-5.42
18760,-1.34
18771,2.43
18783,5.81
18795,8.74
18807,11.17
18819,13.04
18831,14.34
18843,15.07
18855,15.27
18867,15.04
18879,14.49
18891,13.75
18903,12.96
18915,12.14
18927,11.33
18939,10.5
18950,9.59
18961,8.58
18973,7.41
18985,6.08
18997,4.6
19009,3.03
19021,1.49
19033,0.08
19045,-1.15
19057,-2.22
19069,-3.23
19081,-4.34
19093,-5.69
19105,-7.34
19117,-9.27
19129,-11.3
19140,-13.16
19151,-14.51
19163,-15.02
19175,-14.48
19187,-12.91
19199,-10.56
19211,-7.86
19223,-5.22
19235,-2.99
19247,-1.26
19259,-0.0
19271,0.92
19283,1.63
19295,2.16
19307,2.48
19319,2.58
19330,2.48
19341,2.28
19353,2.1
19365,1.99
19377,1.98
19389,2.0
19401,1.94
19413,1.69
19425,1.23
19437,0.59
19449,-0.19
19461,-1.05
19473,-1.99
19485,-3.03
19497,-4.22
19509,-5.58
19520,-7.07
19531,-8.6
19543,-10.08
19555,-11.42
19567,-12.62
19579,-13.75
19591,-14.88
19603,-16.07
19615,-17.24
19627,-18.15
19639,-18.52
19651,-18.08
19663,-16.73
19675,-14.6
19687,-11.99
19699,-9.27
19710,-6.67
19721,-4.29
19733,-2.1
19745,-0.07
19757,1.77
19769,3.31
19781,4.4
19793,5.06
19805,5.43
19817,5.76
19829,6.3
19841,7.12
19853,8.13
19865,9.07
19877,9.69
19889,9.78
19900,9.3
19911,8.34
19923,7.05
19935,5.58
19947,4.03
19959,2.49
19971,0.97
19983,-0.52
19995,-2.04
20007,-3.61
20019,-5.28
20031,-7.07
20043,-8.93
20055,-10.8
20067,-12.58
20079,-14.13
20090,-15.26
20101,-15.73
20113,-15.29
20125,-13.77
20137,-11.18
20149,-7.75
20161,-3.89
20173,-0.11
20185,3.17
20197,5.71
20209,7.48
20221,8.67
20233,9.55
20245,10.42
20257,11.48
20269,12.75
20280,14.15
20291,15.43
20303,16.37
20315,16.79
20327,16.68
20339,16.14
20351,15.36
20363,14.51
20375,13.66
20387,12.82
20399,11.98
20411,11.08
20423,10.06
20435,8.84
20447,7.33
20459,5.49
20470,3.35
20481,1.03
20493,-1.33
20505,-3.62
20517,-5.81
20529,-7.88
20541,-9.83
20553,-11.56
20565,-12.88
20577,-13.6
20589,-13.6
20601,-12.9
20613,-11.59
20625,-9.81
20637,-7.67
20649,-5.2
20660,-2.46
20671,0.41
20683,3.21
20695,5.71
20707,7.71
20719,9.11
20731,9.91
20743,10.19
20755,10.09
20767,9.74
20779,9.22
20791,8.58
20803,7.84
20815,6.97
20827,5.98
20839,4.92
20850,3.9
20861,3.02
20873,2.32
20885,1.78
20897,1.29
20909,0.73
20921,-0.02
20933,-1.0
20945,-2.29
20957,-3.93
20969,-6.02
20981,-8.56
20993,-11.46
