seconds,BVP
6,11.66
18,7.62
30,2.79
41,-2.38
52,-7.38
64,-11.79
76,-15.48
88,-18.62
100,-21.58
112,-24.85
124,-28.86
136,-33.85
148,-39.76
160,-46.11
172,-51.97
184,-56.07
196,-57.11
208,-54.07
220,-46.6
231,-35.16
242,-20.88
254,-5.28
266,10.14
278,24.23
290,36.39
302,46.43
314,54.4
326,60.36
338,64.28
350,66.11
362,65.89
374,63.96
386,60.9
398,57.5
410,54.46
421,52.21
432,50.75
444,49.79
456,48.89
468,47.69
480,46.02
492,43.92
504,41.54
516,39.06
528,36.66
540,34.42
552,32.34
564,30.33
576,28.26
588,26.02
600,23.58
611,20.98
622,18.3
634,15.54
646,12.59
658,9.25
670,5.26
682,0.43
694,-5.33
706,-11.95
718,-19.15
730,-26.32
742,-32.49
754,-36.43
766,-36.91
778,-33.15
790,-25.22
801,-14.14
812,-1.67
824,10.22
836,19.92
848,26.59
860,30.09
872,30.86
884,29.46
896,26.42
908,22.19
920,17.18
932,11.96
944,7.21
956,3.67
968,1.93
980,2.29
991,4.64
1002,8.56
1014,13.46
1026,18.78
1038,24.11
1050,29.22
1062,33.91
1074,37.92
1086,40.91
1098,42.48
1110,42.35
1122,40.44
1134,36.98
1146,32.39
1158,27.13
1170,21.5
1181,15.56
1192,9.17
1204,2.12
1216,-5.71
1228,-14.36
1240,-23.73
1252,-33.68
1264,-44.07
1276,-54.68
1288,-65.13
1300,-74.78
1312,-82.77
1324,-88.17
1336,-90.21
1348,-88.5
1360,-83.11
1371,-74.61
1382,-63.96
1394,-52.32
1406,-40.9
1418,-30.76
1430,-22.61
1442,-16.71
1454,-12.94
1466,-10.92
1478,-10.22
1490,-10.48
1502,-11.38
1514,-12.6
1526,-13.72
1538,-14.32
1550,-14.14
1561,-13.25
1572,-12.09
1584,-11.24
1596,-11.17
1608,-11.98
1620,-13.48
1632,-15.27
1644,-17.15
1656,-19.23
1668,-21.86
1680,-25.41
1692,-29.89
1704,-34.92
1716,-39.77
1728,-43.77
1740,-46.61
1751,-48.51
1762,-50.13
1774,-52.43
1786,-56.32
1798,-62.48
1810,-71.13
1822,-81.78
1834,-93.24
1846,-103.66
1858,-110.91
1870,-113.18
1882,-109.48
1894,-99.97
1906,-85.91
1918,-69.24
1930,-52.07
1941,-36.13
1952,-22.51
1964,-11.58
1976,-3.1
1988,3.53
2000,9.08
2012,14.2
2024,19.2
2036,24.11
2048,28.64
2060,32.53
2072,35.69
2084,38.32
2096,40.86
2108,43.78
2120,47.48
2131,52.05
2142,57.29
2154,62.81
2166,68.06
2178,72.49
2190,75.65
2202,77.32
2214,77.58
2226,76.88
2238,75.84
2250,75.03
2262,74.63
2274,74.35
2286,73.48
2298,71.19
2310,66.82
2321,60.19
2332,51.58
2344,41.69
2356,31.47
2368,21.93
2380,13.92
2392,8.02
2404,4.4
2416,2.83
2428,2.84
2440,3.94
2452,5.73
2464,7.98
2476,10.48
2488,12.93
2500,14.97
2511,16.31
2522,16.91
2534,16.98
2546,16.84
2558,16.68
2570,16.42
2582,15.72
2594,14.34
2606,12.3
2618,9.93
2630,7.69
2642,5.88
2654,4.51
2666,3.38
2678,2.28
2690,1.21
2701,0.35
2712,-0.12
2724,-0.23
2736,-0.22
2748,-0.51
2760,-1.36
2772,-2.82
2784,-4.72
2796,-6.82
2808,-8.98
2820,-11.26
2832,-13.81
2844,-16.79
2856,-20.27
2868,-24.15
2880,-28.22
2891,-32.11
2902,-35.29
2914,-37.13
2926,-37.07
2938,-34.77
2950,-30.26
2962,-23.99
2974,-16.69
2986,-9.21
2998,-2.27
3010,3.52
3022,7.74
3034,10.12
3046,10.58
3058,9.27
3070,6.62
3081,3.28
3092,-0.02
3104,-2.65
3116,-4.24
3128,-4.78
3140,-4.62
3152,-4.31
3164,-4.44
3176,-5.39
3188,-7.2
3200,-9.55
3212,-11.96
3224,-13.94
3236,-15.26
3248,-16.03
3260,-16.65
3271,-17.67
3282,-19.6
3294,-22.71
3306,-26.96
3318,-31.94
3330,-36.98
3342,-41.26
3354,-44.07
3366,-45.02
3378,-44.19
3390,-42.22
3402,-40.06
3414,-38.58
3426,-38.11
3438,-38.26
3450,-37.89
3461,-35.58
3472,-30.2
3484,-21.42
3496,-9.92
3508,2.78
3520,14.84
3532,24.69
3544,31.54
3556,35.5
3568,37.53
3580,39.03
3592,41.42
3604,45.83
3616,52.82
3628,62.32
3640,73.75
3651,86.24
3662,98.85
3674,110.75
3686,121.19
3698,129.52
3710,135.11
3722,137.48
3734,136.41
3746,132.15
3758,125.38
3770,117.16
3782,108.65
3794,100.87
3806,94.44
3818,89.22
3830,84.22
3841,77.71
3852,67.64
3864,52.38
3876,31.4
3888,5.6
3900,-22.88
3912,-51.34
3924,-77.31
3936,-99.18
3948,-116.32
3960,-128.87
3972,-137.39
3984,-142.57
3996,-145.14
4008,-145.76
4020,-144.84
4031,-142.38
4042,-137.79
4054,-129.98
4066,-117.78
4078,-100.42
4090,-78.06
4102,-52.02
4114,-24.59
4126,1.43
4138,23.46
4150,39.68
4162,49.44
4174,53.13
4186,51.98
4198,47.56
4210,41.44
4221,35.0
4232,29.26
4244,24.91
4256,22.31
4268,21.6
4280,22.79
4292,25.89
4304,30.93
4316,37.82
4328,46.2
4340,55.26
4352,63.84
4364,70.72
4376,74.91
4388,75.95
4400,73.96
4411,69.47
4422,63.19
4434,55.78
4446,47.72
4458,39.32
4470,30.74
4482,22.07
4494,13.35
4506,4.64
4518,-3.97
4530,-12.38
4542,-20.48
4554,-28.15
4566,-35.31
4578,-41.91
4590,-47.87
4601,-53.08
4612,-57.31
4624,-60.23
4636,-61.47
4648,-60.65
4660,-57.61
4672,-52.41
4684,-45.5
4696,-37.59
4708,-29.53
4720,-22.11
4732,-15.95
4744,-11.43
4756,-8.73
4768,-7.81
4780,-8.52
4791,-10.51
4802,-13.32
4814,-16.42
4826,-19.31
4838,-21.58
4850,-23.02
4862,-23.58
4874,-23.33
4886,-22.43
4898,-21.04
4910,-19.32
4922,-17.36
4934,-15.24
4946,-12.97
4958,-10.57
4970,-8.11
4981,-5.71
4992,-3.58
5004,-1.95
5016,-1.03
5028,-0.93
5040,-1.61
5052,-2.93
5064,-4.65
5076,-6.54
5088,-8.44
5100,-10.3
5112,-12.17
5124,-14.14
5136,-16.3
5148,-18.66
5160,-21.16
5171,-23.75
5182,-26.41
5194,-29.1
5206,-31.62
5218,-33.57
5230,-34.3
5242,-33.14
5254,-29.63
5266,-23.86
5278,-16.49
5290,-8.58
5302,-1.2
5314,4.87
5326,9.33
5338,12.31
5350,14.05
5361,14.71
5372,14.28
5384,12.74
5396,10.25
5408,7.24
5420,4.34
5432,2.16
5444,1.06
5456,1.02
5468,1.73
5480,2.78
5492,3.86
5504,4.84
5516,5.75
5528,6.63
5540,7.44
5551,8.06
5562,8.29
5574,7.98
5586,7.05
5598,5.54
5610,3.55
5622,1.29
5634,-1.02
5646,-3.21
5658,-5.2
5670,-7.03
5682,-8.83
5694,-10.78
5706,-13.06
5718,-15.83
5730,-19.13
5741,-22.89
5752,-26.85
5764,-30.45
5776,-32.97
5788,-33.65
5800,-32.0
5812,-28.01
5824,-22.24
5836,-15.59
5848,-9.07
5860,-3.42
5872,1.06
5884,4.4
5896,6.81
5908,8.46
5920,9.36
5931,9.41
5942,8.49
5954,6.61
5966,3.93
5978,0.67
5990,-2.91
6002,-6.57
6014,-10.06
6026,-13.01
6038,-15.0
6050,-15.62
6062,-14.67
6074,-12.27
6086,-8.9
6098,-5.32
6110,-2.24
6121,-0.19
6132,0.69
6144,0.57
6156,-0.24
6168,-1.4
6180,-2.68
6192,-3.95
6204,-5.14
6216,-6.23
6228,-7.26
6240,-8.32
6252,-9.53
6264,-10.91
6276,-12.39
6288,-13.78
6300,-14.91
6311,-15.76
6322,-16.47
6334,-17.22
6346,-18.01
6358,-18.53
6370,-18.17
6382,-16.3
6394,-12.57
6406,-7.21
6418,-0.93
6430,5.28
6442,10.55
6454,14.37
6466,16.61
6478,17.34
6490,16.65
6501,14.57
6512,11.18
6524,6.79
6536,2.02
6548,-2.31
6560,-5.43
6572,-6.91
6584,-6.78
6596,-5.51
6608,-3.75
6620,-2.07
6632,-0.76
6644,0.18
6656,0.93
6668,1.75
6680,2.84
6691,4.29
6702,6.03
6714,7.84
6726,9.44
6738,10.52
6750,10.86
6762,10.38
6774,9.18
6786,7.47
6798,5.51
6810,3.56
6822,1.78
6834,0.28
6846,-0.94
6858,-2.04
6870,-3.32
6881,-5.16
6892,-7.9
6904,-11.65
6916,-16.16
6928,-20.8
6940,-24.63
6952,-26.7
6964,-26.3
6976,-23.22
6988,-17.79
7000,-10.79
7012,-3.22
7024,4.01
7036,10.26
7048,15.22
7060,18.82
7071,21.13
7082,22.23
7094,22.22
7106,21.22
7118,19.46
7130,17.26
7142,14.97
7154,12.88
7166,11.18
7178,9.86
7190,8.85
7202,8.05
7214,7.43
7226,7.08
7238,7.12
7250,7.66
7261,8.66
7272,9.9
7284,11.01
7296,11.65
7308,11.59
7320,10.85
7332,9.62
7344,8.21
7356,6.83
7368,5.54
7380,4.22
7392,2.65
7404,0.68
7416,-1.72
7428,-4.47
7440,-7.4
7451,-10.37
7462,-13.34
7474,-16.33
7486,-19.44
7498,-22.79
7510,-26.44
7522,-30.32
7534,-34.18
7546,-37.54
7558,-39.75
7570,-40.12
7582,-38.17
7594,-33.79
7606,-27.36
7618,-19.62
7630,-11.45
7641,-3.64
7652,3.3
7664,9.1
7676,13.69
7688,17.07
7700,19.28
7712,20.37
7724,20.48
7736,19.81
7748,18.64
7760,17.26
7772,15.91
7784,14.74
7796,13.83
7808,13.24
7820,13.03
7831,13.24
7842,13.9
7854,14.89
7866,16.02
7878,16.99
7890,17.54
7902,17.49
7914,16.81
7926,15.6
7938,14.06
7950,12.33
7962,10.54
7974,8.74
7986,6.91
7998,5.06
8010,3.17
8021,1.18
8032,-0.96
8044,-3.3
8056,-5.81
8068,-8.37
8080,-10.79
8092,-12.88
8104,-14.59
8116,-16.02
8128,-17.44
8140,-19.19
8152,-21.51
8164,-24.3
8176,-27.14
8188,-29.25
8200,-29.79
8211,-28.11
8222,-24.02
8234,-17.91
8246,-10.59
8258,-3.06
8270,3.81
8282,9.47
8294,13.71
8306,16.59
8318,18.21
8330,18.66
8342,18.03
8354,16.48
8366,14.29
8378,11.91
8390,9.78
8401,8.24
8412,7.43
8424,7.3
8436,7.64
8448,8.22
8460,8.9
8472,9.58
8484,10.28
8496,11.0
8508,11.74
8520,12.41
8532,12.91
8544,13.06
8556,12.76
8568,11.93
8580,10.6
8591,8.91
8602,7.08
8614,5.37
8626,3.96
8638,2.89
8650,2.04
8662,1.2
8674,0.12
8686,-1.32
8698,-3.08
8710,-5.01
8722,-6.9
8734,-8.6
8746,-10.02
8758,-11.21
8770,-12.26
8781,-13.31
8792,-14.56
8804,-16.17
8816,-18.31
8828,-20.96
8840,-23.91
8852,-26.63
8864,-28.48
8876,-28.84
8888,-27.3
8900,-23.87
8912,-18.94
8924,-13.17
8936,-7.29
8948,-1.88
8960,2.69
8971,6.33
8982,9.08
8994,11.03
9006,12.26
9018,12.82
9030,12.78
9042,12.29
9054,11.55
9066,10.79
9078,10.16
9090,9.75
9102,9.57
9114,9.59
9126,9.8
9138,10.22
9150,10.84
9161,11.6
9172,12.4
9184,13.12
9196,13.67
9208,14.04
9220,14.25
9232,14.32
9244,14.28
9256,14.11
9268,13.78
9280,13.25
9292,12.52
9304,11.59
9316,10.53
9328,9.39
9340,8.25
9351,7.15
9362,6.06
9374,4.94
9386,3.69
9398,2.25
9410,0.6
9422,-1.24
9434,-3.21
9446,-5.27
9458,-7.37
9470,-9.54
9482,-11.88
9494,-14.55
9506,-17.66
9518,-21.22
9530,-24.99
9541,-28.51
9552,-31.11
9564,-32.12
9576,-31.1
9588,-27.94
9600,-23.01
9612,-16.97
9624,-10.56
9636,-4.45
9648,0.98
9660,5.6
9672,9.41
9684,12.42
9696,14.53
9708,15.55
9720,15.37
9731,14.06
9742,11.97
9754,9.7
9766,7.89
9778,6.99
9790,7.14
9802,8.13
9814,9.48
9826,10.67
9838,11.27
9850,11.09
9862,10.17
9874,8.7
9886,6.99
9898,5.37
9910,4.09
9921,3.25
9932,2.8
9944,2.54
9956,2.25
9968,1.75
9980,0.98
9992,0.06
10004,-0.82
10016,-1.45
10028,-1.7
10040,-1.58
10052,-1.21
10064,-0.77
10076,-0.48
10088,-0.5
10100,-0.89
10111,-1.63
10122,-2.6
10134,-3.65
10146,-4.65
10158,-5.51
10170,-6.25
10182,-7.0
10194,-7.95
10206,-9.34
10218,-11.32
10230,-13.87
10242,-16.74
10254,-19.43
10266,-21.3
10278,-21.7
10290,-20.2
10301,-16.68
10312,-11.47
10324,-5.18
10336,1.43
10348,7.6
10360,12.77
10372,16.59
10384,18.95
10396,19.83
10408,19.34
10420,17.62
10432,14.89
10444,11.55
10456,8.09
10468,5.05
10480,2.89
10491,1.82
10502,1.77
10514,2.47
10526,3.6
10538,4.91
10550,6.32
10562,7.84
10574,9.49
10586,11.18
10598,12.73
10610,13.91
10622,14.59
10634,14.77
10646,14.55
10658,14.07
10670,13.47
10681,12.81
10692,12.12
10704,11.35
10716,10.4
10728,9.14
10740,7.39
10752,5.05
10764,2.12
10776,-1.24
10788,-4.74
10800,-8.01
10812,-10.8
10824,-12.97
10836,-14.56
10848,-15.77
10860,-16.88
10871,-18.19
10882,-19.92
10894,-22.07
10906,-24.4
10918,-26.35
10930,-27.26
10942,-26.59
10954,-24.12
10966,-20.1
10978,-15.1
10990,-9.82
11002,-4.87
11014,-0.58
11026,2.93
11038,5.63
11050,7.52
11061,8.53
11072,8.65
11084,8.02
11096,6.94
11108,5.84
11120,5.09
11132,4.91
11144,5.28
11156,6.03
11168,6.92
11180,7.75
11192,8.37
11204,8.74
11216,8.85
11228,8.71
11240,8.38
11251,7.91
11262,7.38
11274,6.81
11286,6.16
11298,5.36
11310,4.36
11322,3.16
11334,1.85
11346,0.56
11358,-0.59
11370,-1.53
11382,-2.29
11394,-2.94
11406,-3.55
11418,-4.19
11430,-4.84
11441,-5.5
11452,-6.17
11464,-6.87
11476,-7.63
11488,-8.48
11500,-9.37
11512,-10.29
11524,-11.23
11536,-12.3
11548,-13.65
11560,-15.36
11572,-17.37
11584,-19.35
11596,-20.76
11608,-21.01
11620,-19.68
11631,-16.74
11642,-12.57
11654,-7.84
11666,-3.27
11678,0.63
11690,3.63
11702,5.81
11714,7.34
11726,8.35
11738,8.84
11750,8.72
11762,7.93
11774,6.57
11786,4.93
11798,3.41
11810,2.36
11821,1.92
11832,2.01
11844,2.38
11856,2.8
11868,3.17
11880,3.53
11892,4.03
11904,4.81
11916,5.87
11928,7.12
11940,8.36
11952,9.39
11964,10.07
11976,10.38
11988,10.36
12000,10.12
12011,9.76
12022,9.36
12034,8.96
12046,8.56
12058,8.15
12070,7.72
12082,7.29
12094,6.91
12106,6.6
12118,6.4
12130,6.31
12142,6.34
12154,6.46
12166,6.57
12178,6.56
12190,6.33
12201,5.9
12212,5.5
12224,5.62
12236,6.82
12248,9.58
12260,14.12
12272,20.23
12284,27.38
12296,34.85
12308,41.96
12320,48.2
12332,53.37
12344,57.59
12356,61.2
12368,64.62
12380,68.22
12391,72.17
12402,76.39
12414,80.59
12426,84.33
12438,87.13
12450,88.44
12462,87.69
12474,84.35
12486,78.07
12498,68.89
12510,57.26
12522,44.16
12534,30.83
12546,18.55
12558,8.37
12570,1.01
12581,-3.1
12592,-3.94
12604,-1.92
12616,2.02
12628,6.54
12640,10.2
12652,11.89
12664,11.15
12676,8.42
12688,4.85
12700,1.78
12712,0.15
12724,-0.04
12736,0.32
12748,-0.19
12760,-2.91
12771,-8.7
12782,-17.46
12794,-28.17
12806,-39.34
12818,-49.6
12830,-58.06
12842,-64.39
12854,-68.77
12866,-71.55
12878,-73.56
12890,-75.36
12902,-76.95
12914,-77.98
12926,-78.07
12938,-77.11
12950,-75.24
12961,-72.75
12972,-69.95
12984,-67.95
12996,-67.39
13008,-68.05
13020,-69.13
13032,-69.99
13044,-70.52
13056,-70.96
13068,-71.57
13080,-72.39
13092,-74.68
13104,-79.0
13116,-84.79
13128,-90.58
13140,-95.08
13151,-97.64
13162,-98.31
13174,-97.53
13186,-96.12
13198,-96.91
13210,-101.99
13222,-111.38
13234,-123.03
13246,-134.01
13258,-141.54
13270,-143.52
13282,-138.82
13294,-116.58
13306,-74.36
13318,-20.44
13330,30.44
13341,66.96
13352,85.96
13364,90.73
13376,87.17
13388,80.78
13400,75.19
13412,70.19
13424,65.03
13436,60.31
13448,58.19
13460,60.28
13472,67.72
13484,79.5
13496,92.75
13508,103.98
13520,109.03
13531,105.81
13542,94.9
13554,78.7
13566,59.72
13578,39.36
13590,20.07
13602,4.72
13614,-4.2
13626,-6.39
13638,-3.1
13650,3.56
13662,11.42
13674,18.83
13686,25.01
13698,30.02
13710,34.11
13721,37.6
13732,40.0
13744,41.15
13756,41.7
13768,42.9
13780,45.74
13792,50.42
13804,56.19
13816,61.65
13828,65.32
13840,66.03
13852,63.45
13864,58.02
13876,50.62
13888,42.17
13900,33.44
13911,24.57
13922,15.92
13934,7.77
13946,0.16
13958,-7.01
13970,-13.87
13982,-20.47
13994,-26.68
14006,-32.3
14018,-37.14
14030,-41.25
14042,-45.01
14054,-48.94
14066,-53.4
14078,-58.47
14090,-63.87
14101,-69.18
14112,-73.96
14124,-77.89
14136,-80.78
14148,-82.53
14160,-83.04
14172,-82.08
14184,-79.31
14196,-74.42
14208,-67.15
14220,-57.36
14232,-45.0
14244,-30.16
14256,-13.3
14268,4.64
14280,22.25
14291,37.88
14302,50.15
14314,58.38
14326,62.85
14338,64.68
14350,65.41
14362,66.35
14374,68.16
14386,70.78
14398,73.69
14410,76.29
14422,78.21
14434,79.39
14446,79.96
14458,80.0
14470,79.42
14481,77.96
14492,75.34
14504,71.37
14516,66.15
14528,59.99
14540,53.36
14552,46.8
14564,40.76
14576,35.54
14588,31.06
14600,26.87
14612,22.12
14624,15.82
14636,7.21
14648,-3.83
14660,-16.61
14671,-29.8
14682,-41.7
14694,-50.87
14706,-56.35
14718,-57.92
14730,-55.98
14742,-51.53
14754,-46.09
14766,-41.58
14778,-39.95
14790,-42.57
14802,-49.6
14814,-59.59
14826,-69.73
14838,-76.67
14850,-77.66
14861,-71.45
14872,-58.57
14884,-40.99
14896,-21.36
14908,-2.21
14920,14.53
14932,27.74
14944,36.94
14956,42.14
14968,43.69
14980,42.13
14992,38.2
15004,32.66
15016,26.29
15028,19.8
15040,13.74
15051,8.5
15062,4.32
15074,1.24
15086,-0.81
15098,-2.08
15110,-2.89
15122,-3.68
15134,-4.87
15146,-6.77
15158,-9.44
15170,-12.68
15182,-16.08
15194,-19.26
15206,-22.1
15218,-24.83
15230,-27.9
15241,-31.69
15252,-36.28
15264,-41.38
15276,-46.47
15288,-51.07
15300,-54.91
15312,-57.95
15324,-60.22
15336,-61.63
15348,-61.89
15360,-60.66
15372,-57.77
15384,-53.33
15396,-47.69
15408,-41.19
15420,-33.98
15431,-26.03
15442,-17.4
15454,-8.49
15466,-0.11
15478,6.74
15490,11.28
15502,13.31
15514,13.2
15526,11.57
15538,8.95
15550,5.59
15562,1.6
15574,-2.73
15586,-6.7
15598,-9.24
15610,-9.44
15621,-6.95
15632,-2.29
15644,3.36
15656,8.58
15668,12.29
15680,14.04
15692,14.02
15704,12.75
15716,10.87
15728,8.85
15740,7.01
15752,5.66
15764,5.16
15776,5.91
15788,8.21
15800,12.04
15811,17.01
15822,22.41
15834,27.56
15846,32.09
15858,36.04
15870,39.73
15882,43.39
15894,46.9
15906,49.81
15918,51.62
15930,52.21
15942,51.89
15954,51.21
15966,50.46
15978,49.35
15990,47.15
16001,43.14
16012,37.24
16024,30.25
16036,23.58
16048,18.54
16060,15.79
16072,15.1
16084,15.61
16096,16.39
16108,16.83
16120,16.75
16132,16.19
16144,15.17
16156,13.54
16168,11.06
16180,7.59
16191,3.17
16202,-1.99
16214,-7.67
16226,-13.77
16238,-20.28
16250,-27.2
16262,-34.29
16274,-41.02
16286,-46.6
16298,-50.24
16310,-51.34
16322,-49.76
16334,-45.83
16346,-40.3
16358,-34.08
16370,-28.01
16381,-22.69
16392,-18.37
16404,-14.97
16416,-12.18
16428,-9.69
16440,-7.31
16452,-5.08
16464,-3.24
16476,-2.09
16488,-1.83
16500,-2.46
16512,-3.69
16524,-5.05
16536,-6.04
16548,-6.29
16560,-5.59
16571,-3.96
16582,-1.58
16594,1.17
16606,3.85
16618,5.91
16630,6.85
16642,6.4
16654,4.61
16666,1.88
16678,-1.15
16690,-3.83
16702,-5.75
16714,-6.86
16726,-7.43
16738,-7.85
16750,-8.46
16761,-9.36
16772,-10.43
16784,-11.49
16796,-12.41
16808,-13.19
16820,-13.87
16832,-14.51
16844,-15.04
16856,-15.34
16868,-15.32
16880,-15.03
16892,-14.68
16904,-14.63
16916,-15.22
16928,-16.73
16940,-19.21
16951,-22.44
16962,-25.92
16974,-28.95
16986,-30.75
16998,-30.68
17010,-28.47
17022,-24.33
17034,-18.94
17046,-13.19
17058,-7.92
17070,-3.61
17082,-0.28
17094,2.45
17106,5.12
17118,8.16
17130,11.8
17141,15.91
17152,20.17
17164,24.16
17176,27.5
17188,29.98
17200,31.57
17212,32.41
17224,32.71
17236,32.64
17248,32.24
17260,31.37
17272,29.85
17284,27.47
17296,24.16
17308,19.95
17320,14.96
17331,9.4
17342,3.47
17354,-2.62
17366,-8.62
17378,-14.19
17390,-18.92
17402,-22.36
17414,-24.18
17426,-24.23
17438,-22.64
17450,-19.77
17462,-16.22
17474,-12.61
17486,-9.51
17498,-7.26
17510,-5.94
17521,-5.43
17532,-5.51
17544,-5.77
17556,-5.85
17568,-5.53
17580,-4.73
17592,-3.58
17604,-2.42
17616,-1.72
17628,-1.99
17640,-3.54
17652,-5.96
17664,-8.37
17676,-9.6
17688,-8.58
17700,-4.67
17711,2.07
17722,10.93
17734,20.66
17746,29.83
17758,37.62
17770,43.51
17782,47.36
17794,49.28
17806,49.67
17818,49.15
17830,48.6
17842,48.85
17854,50.5
17866,54.27
17878,60.18
17890,67.54
17901,75.07
17912,81.42
17924,85.65
17936,87.64
17948,87.76
17960,84.01
17972,75.88
17984,64.59
17996,52.67
18008,42.36
18020,35.14
18032,30.36
18044,27.54
18056,26.33
18068,26.17
18080,27.44
18091,30.02
18102,33.4
18114,36.83
18126,39.6
18138,41.14
18150,41.2
18162,39.67
18174,36.62
18186,32.71
18198,28.58
18210,24.61
18222,20.75
18234,16.57
18246,11.43
18258,4.93
18270,-3.17
18281,-12.81
18292,-23.46
18304,-34.56
18316,-45.6
18328,-56.16
18340,-65.73
18352,-73.69
18364,-79.29
18376,-82.02
18388,-81.83
18400,-79.05
18412,-74.51
18424,-69.24
18436,-64.15
18448,-59.79
18460,-56.24
18471,-53.2
18482,-50.29
18494,-47.22
18506,-43.75
18518,-39.77
18530,-35.2
18542,-30.06
18554,-24.46
18566,-18.75
18578,-13.41
18590,-8.99
18602,-5.86
18614,-4.12
18626,-3.57
18638,-3.8
18650,-4.41
18661,-5.14
18672,-5.9
18684,-6.73
18696,-7.64
18708,-8.52
18720,-9.0
18732,-8.57
18744,-6.74
18756,-3.28
18768,1.58
18780,7.1
18792,12.18
18804,15.7
18816,16.95
18828,15.86
18840,13.0
18851,9.3
18862,5.74
18874,2.9
18886,0.92
18898,-0.41
18910,-1.45
18922,-2.39
18934,-3.28
18946,-4.1
18958,-4.97
18970,-6.21
18982,-8.29
18994,-11.57
19006,-16.02
19018,-21.18
19030,-26.31
19041,-30.73
19052,-34.07
19064,-36.35
19076,-37.83
19088,-38.71
19100,-39.02
19112,-38.61
19124,-37.31
19136,-35.17
19148,-32.35
19160,-28.97
19172,-24.94
19184,-19.88
19196,-13.35
19208,-5.21
19220,4.17
19231,13.9
19242,22.89
19254,30.24
19266,35.62
19278,39.29
19290,41.92
19302,44.18
19314,46.48
19326,48.89
19338,51.17
19350,53.06
19362,54.43
19374,55.36
19386,56.06
19398,56.67
19410,57.15
19421,57.2
19432,56.4
19444,54.46
19456,51.36
19468,47.34
19480,42.82
19492,38.12
19504,33.31
19516,28.22
19528,22.52
19540,15.89
19552,8.16
19564,-0.67
19576,-10.34
19588,-20.38
19600,-30.05
19611,-38.4
19622,-44.51
19634,-47.76
19646,-48.12
19658,-46.16
19670,-42.84
19682,-39.01
19694,-35.03
19706,-30.62
19718,-25.21
19730,-18.38
19742,-10.34
19754,-1.94
19766,5.65
19778,11.5
19790,15.3
19801,17.46
19812,18.75
19824,19.83
19836,20.91
19848,21.71
19860,21.78
19872,20.81
19884,18.92
19896,16.61
19908,14.56
19920,13.31
19932,13.16
19944,14.08
19956,15.85
19968,18.04
19980,20.12
19991,21.5
20002,21.71
20014,20.56
20026,18.23
20038,15.26
20050,12.29
20062,9.8
20074,7.95
20086,6.56
20098,5.4
20110,4.31
20122,3.34
20134,2.54
20146,1.89
20158,1.16
20170,0.03
20181,-1.74
20192,-4.12
20204,-6.8
20216,-9.32
20228,-11.24
20240,-12.27
20252,-12.37
20264,-11.79
20276,-10.93
20288,-10.27
20300,-10.24
20312,-11.07
20324,-12.81
20336,-15.36
20348,-18.68
20360,-22.85
20371,-28.12
20382,-34.8
20394,-42.97
20406,-52.39
20418,-62.32
20430,-71.65
20442,-79.09
20454,-83.46
20466,-83.96
20478,-80.4
20490,-73.22
20502,-63.46
20514,-52.45
20526,-41.51
20538,-31.65
20550,-23.37
20561,-16.7
20572,-11.4
20584,-7.21
20596,-3.97
20608,-1.65
20620,-0.17
20632,0.7
20644,1.37
20656,2.33
20668,3.94
20680,6.23
20692,8.93
20704,11.6
20716,13.87
20728,15.64
20740,17.1
20751,18.59
20762,20.43
20774,22.71
20786,25.27
20798,27.84
20810,30.17
20822,32.2
20834,33.98
20846,35.65
20858,37.27
20870,38.69
20882,39.56
20894,39.45
20906,37.93
20918,34.77
20930,29.95
20941,23.6
20952,15.92
20964,7.06
20976,-2.83
20988,-13.57
