seconds,BVP
0,-124.71
11,-124.95
22,-125.92
34,-127.0
46,-127.11
58,-125.02
70,-119.74
82,-110.83
94,-98.67
106,-84.35
118,-69.33
130,-54.95
142,-42.11
154,-31.04
166,-21.53
178,-13.24
190,-5.98
201,0.17
212,5.0
224,8.31
236,10.15
248,10.81
260,10.72
272,10.28
284,9.76
296,9.27
308,8.86
320,8.58
332,8.47
344,8.49
356,8.54
368,8.4
380,7.82
391,6.59
402,4.63
414,1.98
426,-1.25
438,-4.95
450,-9.05
462,-13.5
474,-18.23
486,-23.1
498,-28.0
510,-32.84
522,-37.65
534,-42.55
546,-47.68
558,-53.09
570,-58.69
581,-64.29
592,-69.64
604,-74.55
616,-78.81
628,-82.07
640,-83.77
652,-83.25
664,-79.87
676,-73.45
688,-64.37
700,-53.57
712,-42.18
724,-31.16
736,-20.98
748,-11.67
760,-3.03
771,4.99
782,12.21
794,18.28
806,22.93
818,26.21
830,28.52
842,30.46
854,32.58
866,35.19
878,38.28
890,41.59
902,44.74
914,47.33
926,49.11
938,49.96
950,49.97
961,49.37
972,48.51
984,47.74
996,47.34
1008,47.44
1020,47.98
1032,48.73
1044,49.36
1056,49.57
1068,49.23
1080,48.42
1092,47.41
1104,46.53
1116,45.92
1128,45.39
1140,44.39
1151,42.2
1162,38.15
1174,31.93
1186,23.71
1198,14.17
1210,4.36
1222,-4.55
1234,-11.52
1246,-15.89
1258,-17.52
1270,-16.82
1282,-14.58
1294,-11.74
1306,-9.11
1318,-7.18
1330,-6.09
1341,-5.76
1352,-6.01
1364,-6.76
1376,-8.04
1388,-9.98
1400,-12.63
1412,-15.86
1424,-19.35
1436,-22.63
1448,-25.3
1460,-27.18
1472,-28.36
1484,-29.14
1496,-29.86
1508,-30.69
1520,-31.59
1531,-32.39
1542,-32.9
1554,-33.11
1566,-33.25
1578,-33.67
1590,-34.74
1602,-36.58
1614,-39.05
1626,-41.72
1638,-44.12
1650,-45.88
1662,-46.91
1674,-47.47
1686,-48.0
1698,-49.02
1710,-50.92
1721,-53.81
1732,-57.51
1744,-61.57
1756,-65.37
1768,-68.15
1780,-69.18
1792,-67.86
1804,-63.9
1816,-57.41
1828,-48.94
1840,-39.38
1852,-29.69
1864,-20.68
1876,-12.86
1888,-6.42
1900,-1.36
1911,2.38
1922,4.86
1934,6.11
1946,6.24
1958,5.52
1970,4.3
1982,3.0
1994,1.94
2006,1.25
2018,0.84
2030,0.51
2042,0.09
2054,-0.46
2066,-0.99
2078,-1.33
2090,-1.34
2101,-1.13
2112,-1.01
2124,-1.42
2136,-2.67
2148,-4.79
2160,-7.55
2172,-10.48
2184,-13.13
2196,-15.24
2208,-16.76
2220,-17.89
2232,-18.92
2244,-20.19
2256,-22.01
2268,-24.61
2280,-28.01
2291,-31.95
2302,-35.8
2314,-38.67
2326,-39.61
2338,-37.94
2350,-33.47
2362,-26.61
2374,-18.19
2386,-9.13
2398,-0.2
2410,8.22
2422,16.06
2434,23.39
2446,30.21
2458,36.37
2470,41.52
2481,45.37
2492,47.8
2504,48.99
2516,49.38
2528,49.47
2540,49.69
2552,50.27
2564,51.28
2576,52.72
2588,54.68
2600,57.37
2612,60.99
2624,65.71
2636,71.47
2648,77.96
2660,84.73
2671,91.19
2682,96.71
2694,100.67
2706,102.46
2718,101.63
2730,98.04
2742,91.97
2754,84.13
2766,75.41
2778,66.49
2790,57.47
2802,47.68
2814,35.98
2826,21.27
2838,3.14
2850,-17.68
2861,-39.33
2872,-59.21
2884,-74.8
2896,-84.3
2908,-87.09
2920,-83.74
2932,-75.59
2944,-64.35
2956,-51.6
2968,-38.69
2980,-26.57
2992,-15.9
3004,-7.05
3016,-0.2
3028,4.63
3040,7.54
3051,8.65
3062,8.18
3074,6.39
3086,3.73
3098,0.77
3110,-1.9
3122,-3.8
3134,-4.66
3146,-4.54
3158,-3.62
3170,-2.17
3182,-0.43
3194,1.38
3206,2.96
3218,3.92
3230,3.85
3241,2.49
3252,-0.08
3264,-3.47
3276,-7.1
3288,-10.39
3300,-13.1
3312,-15.31
3324,-17.42
3336,-19.99
3348,-23.43
3360,-27.93
3372,-33.3
3384,-38.96
3396,-44.09
3408,-47.77
3420,-49.22
3431,-48.13
3442,-44.73
3454,-39.77
3466,-34.2
3478,-28.89
3490,-24.37
3502,-20.76
3514,-17.94
3526,-15.76
3538,-14.19
3550,-13.32
3562,-13.25
3574,-13.98
3586,-15.31
3598,-16.99
3610,-18.71
3621,-20.3
3632,-21.72
3644,-23.0
3656,-24.24
3668,-25.45
3680,-26.63
3692,-27.7
3704,-28.62
3716,-29.43
3728,-30.25
3740,-31.3
3752,-32.82
3764,-35.01
3776,-37.88
3788,-41.21
3800,-44.59
3811,-47.55
3822,-49.73
3834,-51.06
3846,-51.78
3858,-52.43
3870,-53.6
3882,-55.76
3894,-59.08
3906,-63.37
3918,-68.1
3930,-72.46
3942,-75.53
3954,-76.41
3966,-74.4
3978,-69.22
3990,-61.1
4001,-50.77
4012,-39.22
4024,-27.44
4036,-16.18
4048,-5.87
4060,3.28
4072,11.07
4084,17.29
4096,21.67
4108,24.12
4120,24.77
4132,24.13
4144,22.8
4156,21.38
4168,20.3
4180,19.67
4191,19.42
4202,19.39
4214,19.44
4226,19.51
4238,19.63
4250,19.85
4262,20.18
4274,20.56
4286,20.77
4298,20.48
4310,19.35
4322,17.17
4334,14.01
4346,10.24
4358,6.43
4370,3.15
4381,0.68
4392,-0.96
4404,-2.06
4416,-2.98
4428,-4.01
4440,-5.35
4452,-7.1
4464,-9.34
4476,-12.03
4488,-14.84
4500,-17.1
4512,-17.75
4524,-15.71
4536,-10.31
4548,-1.61
4560,9.48
4571,21.56
4582,33.2
4594,43.37
4606,51.58
4618,57.84
4630,62.36
4642,65.37
4654,67.0
4666,67.34
4678,66.5
4690,64.68
4702,62.08
4714,58.96
4726,55.57
4738,52.16
4750,49.0
4761,46.3
4772,44.14
4784,42.49
4796,41.2
4808,40.04
4820,38.84
4832,37.42
4844,35.58
4856,33.08
4868,29.65
4880,25.04
4892,19.07
4904,11.7
4916,3.0
4928,-6.87
4940,-17.63
4951,-28.93
4962,-40.35
4974,-51.46
4986,-61.82
4998,-70.98
5010,-78.53
5022,-84.13
5034,-87.6
5046,-88.99
5058,-88.5
5070,-86.33
5082,-82.45
5094,-76.56
5106,-68.22
5118,-57.22
5130,-43.94
5141,-29.49
5152,-15.51
5164,-3.63
5176,5.07
5188,10.39
5200,12.99
5212,13.86
5224,13.88
5236,13.41
5248,12.46
5260,10.93
5272,9.1
5284,7.69
5296,7.54
5308,9.14
5320,12.2
5331,15.65
5342,18.18
5354,18.93
5366,18.0
5378,16.37
5390,15.28
5402,15.51
5414,16.94
5426,18.64
5438,19.44
5450,18.63
5462,16.44
5474,13.94
5486,12.62
5498,13.73
5510,17.98
5521,25.3
5532,34.87
5544,45.14
5556,53.99
5568,58.96
5580,57.89
5592,49.52
5604,34.01
5616,13.06
5628,-10.58
5640,-33.99
5652,-54.86
5664,-71.92
5676,-84.8
5688,-93.56
5700,-98.3
5711,-99.01
5722,-95.77
5734,-89.02
5746,-79.62
5758,-68.64
5770,-57.1
5782,-45.72
5794,-34.95
5806,-25.0
5818,-16.12
5830,-8.67
5842,-3.05
5854,0.41
5866,1.69
5878,1.15
5890,-0.45
5901,-2.13
5912,-2.86
5924,-1.87
5936,1.2
5948,6.17
5960,12.42
5972,19.03
5984,25.03
5996,29.65
6008,32.47
6020,33.44
6032,32.79
6044,30.91
6056,28.14
6068,24.72
6080,20.86
6091,16.77
6102,12.79
6114,9.33
6126,6.75
6138,5.13
6150,4.15
6162,3.19
6174,1.57
6186,-1.07
6198,-4.54
6210,-8.16
6222,-10.97
6234,-12.21
6246,-11.71
6258,-9.9
6270,-7.7
6281,-6.01
6292,-5.26
6304,-5.15
6316,-4.76
6328,-2.86
6340,1.58
6352,9.06
6364,19.39
6376,31.81
6388,45.26
6400,58.63
6412,70.96
6424,81.57
6436,90.04
6448,96.26
6460,100.37
6471,102.71
6482,103.72
6494,103.78
6506,103.13
6518,101.87
6530,100.0
6542,97.52
6554,94.51
6566,91.13
6578,87.62
6590,84.17
6602,80.92
6614,77.89
6626,74.96
6638,71.96
6650,68.71
6661,65.11
6672,61.16
6684,56.92
6696,52.5
6708,47.98
6720,43.31
6732,38.36
6744,32.95
6756,26.89
6768,20.12
6780,12.67
6792,4.71
6804,-3.51
6816,-11.71
6828,-19.64
6840,-27.18
6851,-34.27
6862,-40.99
6874,-47.41
6886,-53.58
6898,-59.45
6910,-64.82
6922,-69.25
6934,-72.2
6946,-73.06
6958,-71.42
6970,-67.18
6982,-60.72
6994,-52.83
7006,-44.53
7018,-36.78
7030,-30.2
7041,-25.04
7052,-21.13
7064,-18.21
7076,-16.06
7088,-14.6
7100,-13.83
7112,-13.69
7124,-13.97
7136,-14.36
7148,-14.53
7160,-14.29
7172,-13.65
7184,-12.72
7196,-11.68
7208,-10.67
7220,-9.72
7231,-8.86
7242,-8.12
7254,-7.6
7266,-7.38
7278,-7.47
7290,-7.78
7302,-8.2
7314,-8.67
7326,-9.24
7338,-10.08
7350,-11.32
7362,-13.05
7374,-15.14
7386,-17.41
7398,-19.6
7410,-21.6
7421,-23.41
7432,-25.19
7444,-27.15
7456,-29.54
7468,-32.59
7480,-36.46
7492,-41.11
7504,-46.19
7516,-51.01
7528,-54.53
7540,-55.63
7552,-53.52
7564,-47.97
7576,-39.54
7588,-29.37
7600,-18.85
7611,-9.18
7622,-1.02
7634,5.45
7646,10.5
7658,14.42
7670,17.41
7682,19.43
7694,20.36
7706,20.19
7718,19.16
7730,17.71
7742,16.44
7754,15.79
7766,15.9
7778,16.64
7790,17.59
7801,18.39
7812,18.78
7824,18.74
7836,18.37
7848,17.82
7860,17.15
7872,16.32
7884,15.23
7896,13.77
7908,11.86
7920,9.5
7932,6.73
7944,3.59
7956,0.19
7968,-3.36
7980,-6.94
7991,-10.46
8002,-13.97
8014,-17.63
8026,-21.69
8038,-26.36
8050,-31.74
8062,-37.65
8074,-43.68
8086,-49.12
8098,-53.12
8110,-54.84
8122,-53.69
8134,-49.48
8146,-42.54
8158,-33.64
8170,-23.84
8181,-14.19
8192,-5.5
8204,1.76
8216,7.47
8228,11.73
8240,14.68
8252,16.48
8264,17.24
8276,17.16
8288,16.55
8300,15.81
8312,15.31
8324,15.27
8336,15.68
8348,16.3
8360,16.85
8371,17.07
8382,16.91
8394,16.49
8406,16.01
8418,15.63
8430,15.35
8442,14.99
8454,14.3
8466,12.99
8478,10.93
8490,8.15
8502,4.84
8514,1.33
8526,-2.07
8538,-5.19
8550,-7.98
8561,-10.62
8572,-13.4
8584,-16.65
8596,-20.64
8608,-25.44
8620,-30.88
8632,-36.38
8644,-41.06
8656,-43.89
8668,-44.01
8680,-41.0
8692,-35.08
8704,-27.02
8716,-17.9
8728,-8.74
8740,-0.3
8751,7.02
8762,13.05
8774,17.7
8786,20.88
8798,22.54
8810,22.74
8822,21.78
8834,20.16
8846,18.43
8858,17.07
8870,16.28
8882,16.04
8894,16.14
8906,16.33
8918,16.41
8930,16.3
8941,16.03
8952,15.67
8964,15.26
8976,14.76
8988,14.07
9000,12.98
9012,11.34
9024,9.05
9036,6.16
9048,2.86
9060,-0.63
9072,-4.06
9084,-7.31
9096,-10.39
9108,-13.48
9120,-16.82
9131,-20.67
9142,-25.18
9154,-30.27
9166,-35.63
9178,-40.62
9190,-44.42
9202,-46.16
9214,-45.16
9226,-41.21
9238,-34.59
9250,-26.07
9262,-16.66
9274,-7.35
9286,1.09
9298,8.21
9310,13.86
9321,17.99
9332,20.66
9344,21.91
9356,21.9
9368,20.97
9380,19.6
9392,18.37
9404,17.7
9416,17.74
9428,18.32
9440,19.04
9452,19.51
9464,19.47
9476,18.91
9488,18.0
9500,16.94
9511,15.81
9522,14.49
9534,12.76
9546,10.38
9558,7.3
9570,3.68
9582,-0.11
9594,-3.69
9606,-6.84
9618,-9.57
9630,-12.15
9642,-15.02
9654,-18.6
9666,-23.13
9678,-28.55
9690,-34.41
9701,-39.99
9712,-44.31
9724,-46.43
9736,-45.68
9748,-41.87
9760,-35.38
9772,-27.06
9784,-17.95
9796,-8.97
9808,-0.75
9820,6.43
9832,12.51
9844,17.43
9856,21.06
9868,23.22
9880,23.83
9891,23.12
9902,21.6
9914,19.97
9926,18.83
9938,18.45
9950,18.73
9962,19.24
9974,19.56
9986,19.41
9998,18.83
10010,18.02
10022,17.23
10034,16.54
10046,15.82
10058,14.79
10070,13.1
10081,10.59
10092,7.24
10104,3.31
10116,-0.87
10128,-4.91
10140,-8.59
10152,-11.86
10164,-14.85
10176,-17.85
10188,-21.17
10200,-25.11
10212,-29.85
10224,-35.35
10236,-41.28
10248,-46.97
10260,-51.46
10271,-53.68
10282,-52.83
10294,-48.59
10306,-41.34
10318,-32.02
10330,-21.82
10342,-11.8
10354,-2.63
10366,5.45
10378,12.46
10390,18.47
10402,23.48
10414,27.36
10426,30.05
10438,31.56
10450,32.1
10461,31.97
10472,31.49
10484,30.93
10496,30.48
10508,30.26
10520,30.32
10532,30.61
10544,31.03
10556,31.41
10568,31.58
10580,31.42
10592,30.87
10604,29.89
10616,28.46
10628,26.56
10640,24.2
10651,21.45
10662,18.4
10674,15.17
10686,11.8
10698,8.3
10710,4.65
10722,0.87
10734,-2.92
10746,-6.63
10758,-10.2
10770,-13.72
10782,-17.43
10794,-21.64
10806,-26.65
10818,-32.58
10830,-39.21
10841,-45.98
10852,-51.95
10864,-56.0
10876,-57.09
10888,-54.61
10900,-48.61
10912,-39.82
10924,-29.45
10936,-18.79
10948,-8.81
10960,-0.02
10972,7.53
10984,14.0
10996,19.55
11008,24.18
11020,27.75
11031,30.14
11042,31.38
11054,31.71
11066,31.52
11078,31.22
11090,31.12
11102,31.35
11114,31.93
11126,32.82
11138,33.97
11150,35.28
11162,36.6
11174,37.75
11186,38.53
11198,38.82
11210,38.57
11221,37.87
11232,36.8
11244,35.34
11256,33.49
11268,31.19
11280,28.48
11292,25.55
11304,22.65
11316,19.99
11328,17.59
11340,15.27
11352,12.72
11364,9.71
11376,6.18
11388,2.32
11400,-1.61
11411,-5.36
11422,-8.86
11434,-12.21
11446,-15.6
11458,-19.16
11470,-22.97
11482,-27.11
11494,-31.68
11506,-36.83
11518,-42.56
11530,-48.6
11542,-54.24
11554,-58.36
11566,-59.88
11578,-58.04
11590,-52.77
11601,-44.72
11612,-35.0
11624,-24.79
11636,-14.98
11648,-6.02
11660,1.99
11672,9.13
11684,15.45
11696,20.88
11708,25.29
11720,28.64
11732,31.0
11744,32.59
11756,33.76
11768,34.82
11780,35.98
11791,37.3
11802,38.73
11814,40.12
11826,41.36
11838,42.35
11850,43.09
11862,43.53
11874,43.6
11886,43.15
11898,42.0
11910,40.02
11922,37.2
11934,33.66
11946,29.63
11958,25.37
11970,21.06
11981,16.84
11992,12.79
12004,8.94
12016,5.31
12028,1.94
12040,-1.15
12052,-3.92
12064,-6.4
12076,-8.65
12088,-10.79
12100,-12.96
12112,-15.28
12124,-17.79
12136,-20.47
12148,-23.18
12160,-25.86
12171,-28.47
12182,-31.11
12194,-33.97
12206,-37.24
12218,-41.1
12230,-45.58
12242,-50.49
12254,-55.34
12266,-59.36
12278,-61.59
12290,-61.11
12302,-57.39
12314,-50.48
12326,-41.11
12338,-30.49
12350,-19.91
12361,-10.38
12372,-2.4
12384,3.99
12396,9.04
12408,13.0
12420,15.98
12432,17.99
12444,19.08
12456,19.42
12468,19.39
12480,19.41
12492,19.83
12504,20.73
12516,21.97
12528,23.23
12540,24.22
12551,24.8
12562,25.03
12574,25.07
12586,25.12
12598,25.27
12610,25.45
12622,25.46
12634,25.05
12646,24.01
12658,22.3
12670,20.1
12682,17.75
12694,15.63
12706,13.96
12718,12.69
12730,11.53
12741,10.08
12752,8.01
12764,5.27
12776,2.02
12788,-1.38
12800,-4.64
12812,-7.63
12824,-10.38
12836,-13.11
12848,-16.03
12860,-19.35
12872,-23.2
12884,-27.67
12896,-32.72
12908,-38.11
12920,-43.3
12931,-47.46
12942,-49.65
12954,-49.09
12966,-45.43
12978,-38.96
12990,-30.49
13002,-21.15
13014,-12.03
13026,-3.88
13038,2.98
13050,8.56
13062,13.03
13074,16.5
13086,19.03
13098,20.59
13110,21.23
13121,21.13
13132,20.6
13144,20.0
13156,19.6
13168,19.54
13180,19.8
13192,20.25
13204,20.74
13216,21.17
13228,21.52
13240,21.75
13252,21.81
13264,21.64
13276,21.14
13288,20.27
13300,19.03
13311,17.52
13322,15.85
13334,14.13
13346,12.39
13358,10.6
13370,8.74
13382,6.77
13394,4.75
13406,2.71
13418,0.66
13430,-1.43
13442,-3.66
13454,-6.11
13466,-8.78
13478,-11.59
13490,-14.37
13501,-16.91
13512,-19.13
13524,-21.06
13536,-22.93
13548,-25.14
13560,-28.07
13572,-31.98
13584,-36.85
13596,-42.24
13608,-47.35
13620,-51.14
13632,-52.62
13644,-51.14
13656,-46.58
13668,-39.44
13680,-30.62
13691,-21.21
13702,-12.13
13714,-3.99
13726,3.07
13738,9.17
13750,14.58
13762,19.51
13774,24.02
13786,27.98
13798,31.25
13810,33.69
13822,35.27
13834,36.05
13846,36.22
13858,35.97
13870,35.48
13881,34.9
13892,34.29
13904,33.66
13916,33.0
13928,32.26
13940,31.38
13952,30.32
13964,29.07
13976,27.62
13988,25.95
14000,24.0
14012,21.75
14024,19.22
14036,16.5
14048,13.74
14060,11.1
14071,8.68
14082,6.45
14094,4.28
14106,2.03
14118,-0.38
14130,-2.91
14142,-5.4
14154,-7.7
14166,-9.68
14178,-11.36
14190,-12.82
14202,-14.14
14214,-15.43
14226,-16.77
14238,-18.35
14250,-20.49
14261,-23.58
14272,-27.91
14284,-33.54
14296,-40.03
14308,-46.53
14320,-51.89
14332,-55.01
14344,-55.21
14356,-52.4
14368,-47.1
14380,-40.17
14392,-32.56
14404,-25.04
14416,-18.09
14428,-11.9
14440,-6.54
14451,-2.01
14462,1.72
14474,4.68
14486,6.94
14498,8.64
14510,9.92
14522,10.95
14534,11.85
14546,12.7
14558,13.54
14570,14.39
14582,15.23
14594,15.99
14606,16.64
14618,17.17
14630,17.56
14641,17.85
14652,18.03
14664,18.05
14676,17.81
14688,17.2
14700,16.14
14712,14.7
14724,13.01
14736,11.31
14748,9.75
14760,8.45
14772,7.36
14784,6.37
14796,5.28
14808,3.91
14820,2.08
14831,-0.36
14842,-3.47
14854,-7.12
14866,-11.07
14878,-14.98
14890,-18.61
14902,-21.94
14914,-25.22
14926,-28.84
14938,-33.2
14950,-38.52
14962,-44.71
14974,-51.35
14986,-57.73
14998,-62.9
15010,-65.87
15021,-65.81
15032,-62.35
15044,-55.66
15056,-46.52
15068,-36.03
15080,-25.32
15092,-15.29
15104,-6.4
15116,1.19
15128,7.56
15140,12.79
15152,16.92
15164,19.92
15176,21.84
15188,22.83
15200,23.19
15211,23.31
15222,23.51
15234,23.98
15246,24.74
15258,25.64
15270,26.46
15282,27.11
15294,27.58
15306,27.96
15318,28.33
15330,28.63
15342,28.68
15354,28.2
15366,27.02
15378,25.12
15390,22.66
15401,19.9
15412,17.11
15424,14.47
15436,12.03
15448,9.83
15460,7.88
15472,6.19
15484,4.74
15496,3.45
15508,2.19
15520,0.8
15532,-0.82
15544,-2.68
15556,-4.69
15568,-6.66
15580,-8.48
15591,-10.1
15602,-11.65
15614,-13.42
15626,-15.76
15638,-19.05
15650,-23.45
15662,-28.78
15674,-34.38
15686,-39.18
15698,-41.83
15710,-41.19
15722,-36.68
15734,-28.49
15746,-17.56
15758,-5.26
15770,7.03
15781,18.33
15792,28.16
15804,36.54
15816,43.66
15828,49.72
15840,54.82
15852,58.91
15864,61.99
15876,64.07
15888,65.28
15900,65.79
15912,65.74
15924,65.2
15936,64.21
15948,62.82
15960,61.1
15971,59.19
15982,57.24
15994,55.29
16006,53.3
16018,51.1
16030,48.49
16042,45.29
16054,41.4
16066,36.81
16078,31.6
16090,25.99
16102,20.26
16114,14.73
16126,9.67
16138,5.2
16150,1.27
16161,-2.28
16172,-5.68
16184,-9.06
16196,-12.46
16208,-15.84
16220,-19.08
16232,-22.1
16244,-24.82
16256,-27.24
16268,-29.37
16280,-31.29
16292,-33.2
16304,-35.4
16316,-38.24
16328,-42.02
16340,-46.82
16351,-52.35
16362,-57.87
16374,-62.38
16386,-64.78
16398,-64.32
16410,-60.77
16422,-54.6
16434,-46.79
16446,-38.54
16458,-30.84
16470,-24.33
16482,-19.24
16494,-15.51
16506,-12.98
16518,-11.46
16530,-10.77
16541,-10.63
16552,-10.67
16564,-10.52
16576,-9.91
16588,-8.81
16600,-7.4
16612,-5.94
16624,-4.64
16636,-3.55
16648,-2.54
16660,-1.49
16672,-0.36
16684,0.73
16696,1.56
16708,1.93
16720,1.75
16731,1.14
16742,0.38
16754,-0.17
16766,-0.21
16778,0.41
16790,1.63
16802,3.18
16814,4.72
16826,5.97
16838,6.78
16850,7.17
16862,7.21
16874,6.94
16886,6.32
16898,5.22
16910,3.52
16921,1.16
16932,-1.84
16944,-5.49
16956,-9.84
16968,-14.95
16980,-20.72
16992,-26.67
17004,-31.85
17016,-34.96
17028,-34.7
17040,-30.24
17052,-21.52
17064,-9.24
17076,5.39
17088,21.01
17100,36.46
17111,50.73
17122,62.83
17134,71.75
17146,76.57
17158,76.86
17170,72.94
17182,65.93
17194,57.4
17206,48.82
17218,41.06
17230,34.38
17242,28.6
17254,23.44
17266,18.78
17278,14.54
17290,10.41
17301,5.81
17312,0.02
17324,-7.32
17336,-15.72
17348,-23.7
17360,-29.2
17372,-30.3
17384,-26.19
17396,-17.56
17408,-6.51
17420,4.21
17432,12.33
17444,16.85
17456,18.36
17468,18.6
17480,19.58
17491,22.71
17502,28.2
17514,35.1
17526,41.56
17538,45.4
17550,44.61
17562,37.84
17574,24.93
17586,7.32
17598,-12.0
17610,-29.02
17622,-40.09
17634,-43.32
17646,-39.53
17658,-32.13
17670,-25.8
17681,-24.67
17692,-30.7
17704,-43.09
17716,-58.76
17728,-73.79
17740,-84.75
17752,-89.74
17764,-88.65
17776,-82.78
17788,-74.16
17800,-64.7
17812,-55.7
17824,-47.57
17836,-40.04
17848,-32.62
17860,-25.02
17871,-17.37
17882,-10.11
17894,-3.68
17906,1.72
17918,6.15
17930,9.8
17942,12.64
17954,14.37
17966,14.57
17978,12.91
17990,9.45
18002,4.49
18014,-1.5
18026,-8.2
18038,-15.51
18050,-23.38
18061,-31.64
18072,-39.93
18084,-47.77
18096,-54.66
18108,-60.26
18120,-64.31
18132,-66.6
18144,-67.02
18156,-65.71
18168,-63.26
18180,-60.71
18192,-59.18
18204,-59.32
18216,-60.74
18228,-62.01
18240,-61.19
18251,-56.63
18262,-47.81
18274,-35.51
18286,-21.39
18298,-7.33
18310,5.36
18322,16.21
18334,25.44
18346,33.6
18358,41.11
18370,48.16
18382,54.64
18394,60.37
18406,65.19
18418,69.08
18430,72.09
18441,74.38
18452,76.09
18464,77.41
18476,78.5
18488,79.57
18500,80.76
18512,82.23
18524,83.99
18536,85.9
18548,87.59
18560,88.55
18572,88.3
18584,86.66
18596,83.85
18608,80.5
18620,77.34
18631,74.85
18642,73.0
18654,71.12
18666,68.19
18678,63.11
18690,55.13
18702,43.96
18714,29.83
18726,13.34
18738,-4.7
18750,-23.43
18762,-42.09
18774,-60.16
18786,-77.4
18798,-93.79
18810,-109.32
18821,-123.68
18832,-136.08
18844,-145.3
18856,-149.98
18868,-149.18
18880,-142.77
18892,-131.57
18904,-117.09
18916,-101.06
18928,-84.89
18940,-69.44
18952,-55.07
18964,-41.93
18976,-30.16
18988,-20.06
19000,-11.84
19011,-5.53
19022,-0.78
19034,2.91
19046,6.08
19058,8.97
19070,11.55
19082,13.63
19094,15.09
19106,15.99
19118,16.61
19130,17.2
19142,17.87
19154,18.45
19166,18.65
19178,18.18
19190,16.93
19201,15.02
19212,12.75
19224,10.44
19236,8.28
19248,6.3
19260,4.36
19272,2.25
19284,-0.19
19296,-3.0
19308,-6.11
19320,-9.34
19332,-12.54
19344,-15.64
19356,-18.64
19368,-21.67
19380,-24.87
19391,-28.46
19402,-32.71
19414,-37.87
19426,-44.04
19438,-50.97
19450,-57.88
19462,-63.55
19474,-66.61
19486,-65.98
19498,-61.28
19510,-52.98
19522,-42.25
19534,-30.55
19546,-19.12
19558,-8.76
19570,0.28
19581,8.12
19592,15.03
19604,21.16
19616,26.55
19628,31.13
19640,34.86
19652,37.77
19664,40.01
19676,41.77
19688,43.21
19700,44.46
19712,45.61
19724,46.75
19736,47.98
19748,49.35
19760,50.83
19771,52.22
19782,53.22
19794,53.55
19806,53.08
19818,51.88
19830,50.23
19842,48.47
19854,46.86
19866,45.46
19878,44.1
19890,42.55
19902,40.6
19914,38.21
19926,35.53
19938,32.79
19950,30.2
19961,27.79
19972,25.37
19984,22.59
19996,19.13
20008,14.73
20020,9.37
20032,3.28
20044,-3.06
20056,-8.85
20068,-13.21
20080,-15.35
20092,-14.86
20104,-11.87
20116,-7.13
20128,-1.74
20140,3.24
20151,7.09
20162,9.67
20174,11.29
20186,12.45
20198,13.6
20210,14.92
20222,16.38
20234,17.88
20246,19.38
20258,20.96
20270,22.82
20282,25.17
20294,28.1
20306,31.55
20318,35.25
20330,38.82
20341,41.82
20352,43.87
20364,44.71
20376,44.2
20388,42.29
20400,39.06
20412,34.68
20424,29.41
20436,23.59
20448,17.57
20460,11.69
20472,6.14
20484,1.02
20496,-3.69
20508,-8.07
20520,-12.18
20531,-16.04
20542,-19.7
20554,-23.22
20566,-26.76
20578,-30.53
20590,-34.79
20602,-39.69
20614,-45.21
20626,-51.03
20638,-56.53
20650,-60.85
20662,-63.09
20674,-62.56
20686,-59.05
20698,-52.93
20710,-45.07
20721,-36.52
20732,-28.16
20744,-20.53
20756,-13.69
20768,-7.49
20780,-1.74
20792,3.53
20804,8.14
20816,11.89
20828,14.68
20840,16.69
20852,18.24
20864,19.68
20876,21.23
20888,22.93
20900,24.7
20911,26.39
20922,27.96
20934,29.36
20946,30.59
20958,31.57
20970,32.12
20982,32.05
20994,31.25
