seconds,BVP
6,128.47
17,131.73
29,132.22
41,128.67
53,119.74
65,104.54
77,83.16
89,56.63
101,26.76
113,-4.5
125,-35.42
137,-64.81
149,-92.17
161,-117.45
173,-140.9
185,-162.67
196,-182.52
207,-199.72
219,-213.09
231,-221.37
243,-223.56
255,-219.41
267,-209.61
279,-195.8
291,-180.19
303,-165.11
315,-152.4
327,-142.99
339,-136.69
351,-132.45
363,-128.86
375,-124.66
386,-119.26
397,-112.78
409,-105.79
421,-98.88
433,-92.28
445,-85.76
457,-78.71
469,-70.49
481,-60.67
493,-49.21
505,-36.42
517,-22.86
529,-9.18
541,4.0
553,16.11
565,26.68
576,35.3
587,41.71
599,45.82
611,47.76
623,47.88
635,46.66
647,44.66
659,42.38
671,40.2
683,38.35
695,36.92
707,35.89
719,35.17
731,34.73
743,34.52
755,34.44
766,34.31
777,33.87
789,32.79
801,30.82
813,27.88
825,24.11
837,19.84
849,15.46
861,11.29
873,7.45
885,3.9
897,0.46
909,-3.03
921,-6.69
933,-10.54
945,-14.49
956,-18.39
967,-22.13
979,-25.67
991,-29.09
1003,-32.63
1015,-36.54
1027,-41.01
1039,-45.97
1051,-51.07
1063,-55.63
1075,-58.83
1087,-59.82
1099,-58.05
1111,-53.37
1123,-46.13
1135,-37.04
1146,-27.03
1157,-17.01
1169,-7.67
1181,0.52
1193,7.31
1205,12.56
1217,16.19
1229,18.2
1241,18.72
1253,18.06
1265,16.75
1277,15.38
1289,14.45
1301,14.24
1313,14.77
1325,15.88
1336,17.33
1347,18.91
1359,20.47
1371,21.89
1383,22.99
1395,23.59
1407,23.53
1419,22.8
1431,21.46
1443,19.62
1455,17.37
1467,14.67
1479,11.42
1491,7.58
1503,3.19
1515,-1.51
1526,-6.27
1537,-10.82
1549,-15.01
1561,-18.87
1573,-22.58
1585,-26.44
1597,-30.79
1609,-35.92
1621,-41.93
1633,-48.49
1645,-54.8
1657,-59.66
1669,-61.78
1681,-60.24
1693,-54.79
1705,-45.92
1716,-34.76
1727,-22.67
1739,-10.9
1751,-0.31
1763,8.66
1775,15.94
1787,21.69
1799,26.11
1811,29.42
1823,31.72
1835,33.12
1847,33.73
1859,33.74
1871,33.4
1883,33.01
1895,32.82
1906,32.91
1917,33.19
1929,33.49
1941,33.65
1953,33.64
1965,33.49
1977,33.25
1989,32.81
2001,31.98
2013,30.53
2025,28.33
2037,25.43
2049,22.04
2061,18.42
2073,14.75
2085,11.06
2096,7.29
2107,3.32
2119,-0.85
2131,-5.16
2143,-9.5
2155,-13.73
2167,-17.82
2179,-21.85
2191,-25.98
2203,-30.41
2215,-35.36
2227,-40.92
2239,-46.91
2251,-52.8
2263,-57.69
2275,-60.46
2286,-60.05
2297,-55.86
2309,-47.97
2321,-37.23
2333,-24.9
2345,-12.35
2357,-0.61
2369,9.77
2381,18.68
2393,26.16
2405,32.26
2417,36.93
2429,40.07
2441,41.74
2453,42.15
2465,41.68
2476,40.78
2487,39.81
2499,38.97
2511,38.32
2523,37.81
2535,37.35
2547,36.92
2559,36.52
2571,36.24
2583,36.1
2595,36.05
2607,35.86
2619,35.26
2631,33.99
2643,32.04
2655,29.59
2666,27.02
2677,24.64
2689,22.56
2701,20.59
2713,18.41
2725,15.72
2737,12.4
2749,8.61
2761,4.64
2773,0.76
2785,-2.85
2797,-6.18
2809,-9.35
2821,-12.51
2833,-15.88
2845,-19.77
2856,-24.47
2867,-30.16
2879,-36.67
2891,-43.33
2903,-48.99
2915,-52.29
2927,-52.04
2939,-47.69
2951,-39.57
2963,-28.76
2975,-16.79
2987,-5.12
2999,5.24
3011,13.8
3023,20.56
3035,25.71
3046,29.45
3057,31.9
3069,33.12
3081,33.21
3093,32.45
3105,31.19
3117,29.79
3129,28.55
3141,27.64
3153,27.05
3165,26.76
3177,26.7
3189,26.81
3201,27.05
3213,27.28
3225,27.35
3236,27.04
3247,26.2
3259,24.77
3271,22.83
3283,20.54
3295,18.09
3307,15.55
3319,12.88
3331,10.0
3343,6.82
3355,3.33
3367,-0.41
3379,-4.26
3391,-8.13
3403,-11.95
3415,-15.72
3426,-19.52
3437,-23.48
3449,-27.78
3461,-32.52
3473,-37.6
3485,-42.63
3497,-46.86
3509,-49.32
3521,-49.04
3533,-45.4
3545,-38.37
3557,-28.55
3569,-17.07
3581,-5.23
3593,5.78
3605,15.16
3616,22.54
3627,27.94
3639,31.57
3651,33.72
3663,34.66
3675,34.61
3687,33.84
3699,32.58
3711,31.1
3723,29.66
3735,28.41
3747,27.47
3759,26.85
3771,26.53
3783,26.44
3795,26.44
3806,26.35
3817,25.93
3829,25.03
3841,23.55
3853,21.56
3865,19.25
3877,16.79
3889,14.25
3901,11.63
3913,8.81
3925,5.71
3937,2.34
3949,-1.21
3961,-4.81
3973,-8.4
3985,-12.0
3996,-15.74
4007,-19.77
4019,-24.2
4031,-29.1
4043,-34.43
4055,-40.11
4067,-45.92
4079,-51.4
4091,-55.83
4103,-58.32
4115,-58.05
4127,-54.47
4139,-47.64
4151,-38.19
4163,-27.2
4175,-15.86
4186,-5.2
4197,4.12
4209,11.78
4221,17.73
4233,22.07
4245,24.94
4257,26.47
4269,26.86
4281,26.4
4293,25.41
4305,24.22
4317,23.11
4329,22.31
4341,21.87
4353,21.77
4365,21.95
4376,22.37
4387,23.01
4399,23.87
4411,24.94
4423,26.06
4435,26.95
4447,27.24
4459,26.64
4471,25.06
4483,22.62
4495,19.64
4507,16.48
4519,13.4
4531,10.45
4543,7.53
4555,4.4
4566,0.94
4577,-2.87
4589,-6.95
4601,-11.16
4613,-15.36
4625,-19.43
4637,-23.32
4649,-27.08
4661,-30.86
4673,-34.96
4685,-39.64
4697,-45.04
4709,-50.9
4721,-56.57
4733,-60.95
4745,-62.86
4756,-61.36
4767,-56.1
4779,-47.45
4791,-36.45
4803,-24.47
4815,-12.85
4827,-2.56
4839,5.94
4851,12.61
4863,17.68
4875,21.46
4887,24.15
4899,25.86
4911,26.67
4923,26.75
4935,26.36
4946,25.79
4957,25.27
4969,24.94
4981,24.73
4993,24.54
5005,24.28
5017,23.99
5029,23.77
5041,23.75
5053,24.0
5065,24.41
5077,24.76
5089,24.78
5101,24.19
5113,22.85
5125,20.77
5136,18.11
5147,15.21
5159,12.38
5171,9.86
5183,7.68
5195,5.68
5207,3.54
5219,0.96
5231,-2.22
5243,-5.98
5255,-10.07
5267,-14.17
5279,-17.96
5291,-21.28
5303,-24.14
5315,-26.74
5326,-29.43
5337,-32.61
5349,-36.61
5361,-41.46
5373,-46.84
5385,-51.94
5397,-55.62
5409,-56.71
5421,-54.37
5433,-48.41
5445,-39.42
5457,-28.55
5469,-17.19
5481,-6.55
5493,2.61
5505,10.01
5516,15.73
5527,19.95
5539,22.83
5551,24.48
5563,25.02
5575,24.64
5587,23.64
5599,22.37
5611,21.14
5623,20.14
5635,19.42
5647,18.92
5659,18.59
5671,18.39
5683,18.37
5695,18.62
5706,19.18
5717,19.99
5729,20.79
5741,21.28
5753,21.16
5765,20.21
5777,18.43
5789,15.99
5801,13.15
5813,10.16
5825,7.16
5837,4.18
5849,1.12
5861,-2.11
5873,-5.59
5885,-9.25
5896,-12.89
5907,-16.27
5919,-19.17
5931,-21.54
5943,-23.52
5955,-25.48
5967,-27.81
5979,-30.83
5991,-34.51
6003,-38.44
6015,-41.83
6027,-43.75
6039,-43.42
6051,-40.43
6063,-34.91
6075,-27.43
6086,-18.87
6097,-10.12
6109,-1.9
6121,5.28
6133,11.18
6145,15.67
6157,18.73
6169,20.33
6181,20.63
6193,19.87
6205,18.46
6217,16.83
6229,15.4
6241,14.46
6253,14.09
6265,14.28
6276,14.93
6287,15.92
6299,17.07
6311,18.21
6323,19.11
6335,19.52
6347,19.31
6359,18.43
6371,16.98
6383,15.12
6395,13.0
6407,10.65
6419,8.09
6431,5.24
6443,2.08
6455,-1.3
6466,-4.78
6477,-8.23
6489,-11.55
6501,-14.76
6513,-17.95
6525,-21.24
6537,-24.73
6549,-28.41
6561,-32.27
6573,-36.22
6585,-40.05
6597,-43.45
6609,-45.84
6621,-46.5
6633,-44.74
6645,-40.17
6656,-32.92
6667,-23.66
6679,-13.48
6691,-3.48
6703,5.48
6715,12.98
6727,18.9
6739,23.3
6751,26.24
6763,27.73
6775,27.78
6787,26.54
6799,24.38
6811,21.8
6823,19.34
6835,17.4
6846,16.15
6857,15.53
6869,15.35
6881,15.46
6893,15.75
6905,16.18
6917,16.66
6929,16.98
6941,16.87
6953,16.01
6965,14.3
6977,11.8
6989,8.82
7001,5.7
7013,2.7
7025,-0.12
7036,-2.84
7047,-5.59
7059,-8.41
7071,-11.28
7083,-14.12
7095,-16.92
7107,-19.77
7119,-22.87
7131,-26.49
7143,-30.8
7155,-35.89
7167,-41.63
7179,-47.64
7191,-53.32
7203,-57.8
7215,-60.17
7226,-59.6
7237,-55.67
7249,-48.51
7261,-38.79
7273,-27.56
7285,-16.0
7297,-5.09
7309,4.52
7321,12.54
7333,18.9
7345,23.69
7357,27.06
7369,29.18
7381,30.29
7393,30.65
7405,30.58
7416,30.35
7427,30.14
7439,30.05
7451,30.04
7463,29.99
7475,29.82
7487,29.52
7499,29.13
7511,28.72
7523,28.29
7535,27.77
7547,27.0
7559,25.82
7571,24.09
7583,21.81
7595,19.0
7606,15.78
7617,12.27
7629,8.63
7641,5.0
7653,1.51
7665,-1.79
7677,-4.95
7689,-8.1
7701,-11.38
7713,-14.87
7725,-18.49
7737,-22.09
7749,-25.44
7761,-28.45
7773,-31.19
7785,-33.9
7796,-36.95
7807,-40.63
7819,-45.14
7831,-50.37
7843,-55.9
7855,-60.98
7867,-64.62
7879,-65.77
7891,-63.64
7903,-57.92
7915,-48.93
7927,-37.51
7939,-24.89
7951,-12.39
7963,-1.03
7975,8.56
7986,16.17
7997,21.96
8009,26.24
8021,29.3
8033,31.4
8045,32.7
8057,33.38
8069,33.63
8081,33.71
8093,33.88
8105,34.37
8117,35.28
8129,36.54
8141,38.02
8153,39.48
8165,40.71
8176,41.55
8187,41.85
8199,41.49
8211,40.38
8223,38.48
8235,35.91
8247,32.85
8259,29.58
8271,26.39
8283,23.46
8295,20.81
8307,18.36
8319,15.99
8331,13.57
8343,11.04
8355,8.41
8366,5.67
8377,2.83
8389,-0.13
8401,-3.25
8413,-6.56
8425,-10.07
8437,-13.71
8449,-17.37
8461,-20.87
8473,-24.15
8485,-27.27
8497,-30.45
8509,-34.06
8521,-38.43
8533,-43.74
8545,-49.92
8556,-56.58
8567,-62.99
8579,-68.12
8591,-70.84
8603,-70.13
8615,-65.39
8627,-56.7
8639,-44.83
8651,-31.07
8663,-16.92
8675,-3.66
8687,7.87
8699,17.33
8711,24.7
8723,30.11
8735,33.72
8746,35.72
8757,36.34
8769,36.02
8781,35.26
8793,34.58
8805,34.36
8817,34.72
8829,35.52
8841,36.49
8853,37.36
8865,37.98
8877,38.34
8889,38.53
8901,38.57
8913,38.37
8925,37.74
8936,36.44
8947,34.32
8959,31.44
8971,27.99
8983,24.32
8995,20.77
9007,17.56
9019,14.75
9031,12.23
9043,9.81
9055,7.25
9067,4.38
9079,1.1
9091,-2.55
9103,-6.4
9115,-10.24
9126,-13.85
9137,-17.15
9149,-20.23
9161,-23.37
9173,-27.01
9185,-31.61
9197,-37.44
9209,-44.37
9221,-51.74
9233,-58.39
9245,-62.95
9257,-64.11
9269,-61.1
9281,-53.88
9293,-43.21
9305,-30.4
9316,-16.9
9327,-3.97
9339,7.52
9351,17.13
9363,24.66
9375,30.08
9387,33.43
9399,34.94
9411,34.99
9423,34.09
9435,32.76
9447,31.41
9459,30.27
9471,29.34
9483,28.63
9495,28.14
9506,27.97
9517,28.21
9529,28.89
9541,29.89
9553,30.95
9565,31.71
9577,31.84
9589,31.07
9601,29.32
9613,26.69
9625,23.41
9637,19.78
9649,16.04
9661,12.25
9673,8.29
9685,3.95
9696,-0.93
9707,-6.29
9719,-11.88
9731,-17.31
9743,-22.3
9755,-26.76
9767,-30.86
9779,-34.98
9791,-39.57
9803,-44.96
9815,-51.3
9827,-58.37
9839,-65.5
9851,-71.54
9863,-75.16
9875,-75.03
9886,-70.3
9897,-60.91
9909,-47.73
9921,-32.26
9933,-16.31
9945,-1.48
9957,11.2
9969,21.32
9981,28.98
9993,34.46
10005,38.04
10017,39.91
10029,40.26
10041,39.42
10053,37.9
10065,36.37
10076,35.41
10087,35.29
10099,35.93
10111,36.96
10123,37.96
10135,38.67
10147,39.02
10159,39.14
10171,39.13
10183,39.01
10195,38.65
10207,37.8
10219,36.23
10231,33.77
10243,30.4
10255,26.31
10266,21.83
10277,17.38
10289,13.32
10301,9.86
10313,6.93
10325,4.22
10337,1.26
10349,-2.3
10361,-6.64
10373,-11.64
10385,-16.97
10397,-22.27
10409,-27.24
10421,-31.79
10433,-36.03
10445,-40.27
10456,-44.89
10467,-50.28
10479,-56.69
10491,-64.05
10503,-71.85
10515,-79.05
10527,-84.17
10539,-85.63
10551,-82.17
10563,-73.35
10575,-59.79
10587,-43.1
10599,-25.37
10611,-8.6
10623,5.87
10635,17.51
10646,26.54
10657,33.51
10669,38.92
10681,43.01
10693,45.89
10705,47.62
10717,48.42
10729,48.61
10741,48.57
10753,48.56
10765,48.62
10777,48.67
10789,48.58
10801,48.3
10813,47.84
10825,47.28
10836,46.65
10847,45.9
10859,44.92
10871,43.57
10883,41.75
10895,39.43
10907,36.61
10919,33.33
10931,29.58
10943,25.4
10955,20.87
10967,16.17
10979,11.55
10991,7.29
11003,3.56
11015,0.34
11026,-2.6
11037,-5.6
11049,-8.92
11061,-12.68
11073,-16.74
11085,-20.89
11097,-24.86
11109,-28.49
11121,-31.88
11133,-35.29
11145,-39.12
11157,-43.82
11169,-49.65
11181,-56.58
11193,-64.1
11205,-71.18
11216,-76.44
11227,-78.45
11239,-76.1
11251,-69.03
11263,-57.67
11275,-43.21
11287,-27.22
11299,-11.3
11311,3.27
11323,15.71
11335,25.7
11347,33.26
11359,38.55
11371,41.8
11383,43.25
11395,43.22
11406,42.17
11417,40.62
11429,39.06
11441,37.87
11453,37.2
11465,36.98
11477,37.05
11489,37.28
11501,37.61
11513,38.05
11525,38.58
11537,39.05
11549,39.22
11561,38.82
11573,37.61
11585,35.53
11596,32.62
11607,29.06
11619,25.13
11631,21.16
11643,17.43
11655,14.01
11667,10.82
11679,7.52
11691,3.73
11703,-0.78
11715,-5.9
11727,-11.24
11739,-16.25
11751,-20.47
11763,-23.84
11775,-26.66
11786,-29.51
11797,-33.08
11809,-37.86
11821,-44.03
11833,-51.25
11845,-58.65
11857,-64.91
11869,-68.52
11881,-68.22
11893,-63.35
11905,-54.12
11917,-41.57
11929,-27.25
11941,-12.72
11953,0.73
11965,12.38
11976,21.92
11987,29.29
11999,34.49
12011,37.49
12023,38.35
12035,37.28
12047,34.82
12059,31.74
12071,28.89
12083,26.94
12095,26.26
12107,26.79
12119,28.2
12131,30.01
12143,31.76
12155,33.1
12166,33.82
12177,33.75
12189,32.79
12201,30.91
12213,28.15
12225,24.65
12237,20.67
12249,16.45
12261,12.15
12273,7.79
12285,3.31
12297,-1.38
12309,-6.3
12321,-11.27
12333,-16.01
12345,-20.23
12356,-23.78
12367,-26.83
12379,-29.8
12391,-33.24
12403,-37.64
12415,-43.19
12427,-49.65
12439,-56.39
12451,-62.41
12463,-66.49
12475,-67.44
12487,-64.38
12499,-57.01
12511,-45.83
12523,-32.01
12535,-17.15
12546,-2.79
12557,9.97
12569,20.59
12581,29.05
12593,35.49
12605,40.04
12617,42.72
12629,43.55
12641,42.76
12653,40.87
12665,38.58
12677,36.57
12689,35.27
12701,34.73
12713,34.72
12725,34.93
12736,35.13
12747,35.29
12759,35.47
12771,35.74
12783,36.03
12795,36.1
12807,35.68
12819,34.53
12831,32.55
12843,29.75
12855,26.21
12867,22.03
12879,17.38
12891,12.45
12903,7.51
12915,2.82
12926,-1.46
12937,-5.37
12949,-9.12
12961,-13.0
12973,-17.2
12985,-21.73
12997,-26.39
13009,-30.92
13021,-35.11
13033,-38.95
13045,-42.62
13057,-46.49
13069,-50.91
13081,-56.17
13093,-62.28
13105,-68.88
13116,-75.17
13127,-79.96
13139,-81.9
13151,-79.83
13163,-73.13
13175,-62.04
13187,-47.61
13199,-31.44
13211,-15.26
13223,-0.44
13235,12.2
13247,22.45
13259,30.45
13271,36.47
13283,40.75
13295,43.44
13306,44.73
13317,44.93
13329,44.5
13341,43.92
13353,43.57
13365,43.61
13377,43.96
13389,44.46
13401,44.92
13413,45.22
13425,45.4
13437,45.5
13449,45.56
13461,45.51
13473,45.19
13485,44.38
13496,42.92
13507,40.68
13519,37.71
13531,34.22
13543,30.53
13555,26.99
13567,23.92
13579,21.44
13591,19.39
13603,17.48
13615,15.27
13627,12.46
13639,8.99
13651,5.08
13663,1.15
13675,-2.38
13686,-5.33
13697,-7.82
13709,-10.19
13721,-12.85
13733,-16.1
13745,-19.93
13757,-24.12
13769,-28.36
13781,-32.37
13793,-36.01
13805,-39.28
13817,-42.37
13829,-45.5
13841,-49.01
13853,-53.23
13865,-58.38
13876,-64.38
13887,-70.7
13899,-76.22
13911,-79.48
13923,-79.05
13935,-74.02
13947,-64.33
13959,-50.85
13971,-35.12
13983,-18.85
13995,-3.53
14007,9.86
14019,20.85
14031,29.38
14043,35.61
14055,39.8
14066,42.25
14077,43.29
14089,43.33
14101,42.76
14113,41.92
14125,41.07
14137,40.39
14149,39.93
14161,39.66
14173,39.5
14185,39.4
14197,39.34
14209,39.3
14221,39.22
14233,38.91
14245,38.18
14256,36.83
14267,34.77
14279,32.08
14291,28.96
14303,25.66
14315,22.35
14327,19.11
14339,15.91
14351,12.7
14363,9.48
14375,6.29
14387,3.31
14399,0.69
14411,-1.46
14423,-3.13
14435,-4.47
14446,-5.75
14457,-7.25
14469,-9.22
14481,-11.78
14493,-14.89
14505,-18.37
14517,-21.94
14529,-25.38
14541,-28.54
14553,-31.47
14565,-34.45
14577,-37.9
14589,-42.18
14601,-47.45
14613,-53.44
14625,-59.32
14636,-63.85
14647,-65.7
14659,-63.8
14671,-57.75
14683,-47.99
14695,-35.67
14707,-22.31
14719,-9.38
14731,2.06
14743,11.47
14755,18.72
14767,23.93
14779,27.23
14791,28.76
14803,28.72
14815,27.45
14826,25.48
14837,23.43
14849,21.84
14861,21.01
14873,20.98
14885,21.52
14897,22.33
14909,23.13
14921,23.79
14933,24.32
14945,24.7
14957,24.89
14969,24.7
14981,23.87
14993,22.17
15005,19.49
15016,15.97
15027,11.98
15039,7.93
15051,4.21
15063,0.98
15075,-1.81
15087,-4.39
15099,-7.0
15111,-9.8
15123,-12.82
15135,-15.98
15147,-19.13
15159,-22.14
15171,-24.97
15183,-27.66
15195,-30.37
15206,-33.33
15217,-36.85
15229,-41.18
15241,-46.38
15253,-52.14
15265,-57.75
15277,-62.08
15289,-63.92
15301,-62.29
15313,-56.8
15325,-47.77
15337,-36.23
15349,-23.53
15361,-11.06
15373,0.13
15385,9.41
15396,16.61
15407,21.81
15419,25.23
15431,27.14
15443,27.82
15455,27.59
15467,26.78
15479,25.72
15491,24.73
15503,24.06
15515,23.87
15527,24.24
15539,25.13
15551,26.39
15563,27.78
15575,29.06
15586,30.06
15597,30.69
15609,30.94
15621,30.82
15633,30.3
15645,29.27
15657,27.6
15669,25.2
15681,22.12
15693,18.53
15705,14.73
15717,10.99
15729,7.49
15741,4.24
15753,1.11
15765,-2.16
15776,-5.83
15787,-10.05
15799,-14.81
15811,-19.91
15823,-24.97
15835,-29.62
15847,-33.64
15859,-37.0
15871,-39.97
15883,-43.03
15895,-46.68
15907,-51.3
15919,-56.92
15931,-63.1
15943,-68.94
15955,-73.26
15966,-74.89
15977,-73.0
15989,-67.34
16001,-58.31
16013,-46.87
16025,-34.29
16037,-21.86
16049,-10.58
16061,-1.12
16073,6.29
16085,11.76
16097,15.61
16109,18.24
16121,20.05
16133,21.32
16145,22.27
16156,23.01
16167,23.7
16179,24.42
16191,25.25
16203,26.15
16215,27.0
16227,27.57
16239,27.74
16251,27.51
16263,26.97
16275,26.31
16287,25.66
16299,25.05
16311,24.33
16323,23.32
16335,21.88
16346,20.04
16357,17.93
16369,15.74
16381,13.56
16393,11.34
16405,8.91
16417,6.07
16429,2.79
16441,-0.78
16453,-4.35
16465,-7.66
16477,-10.54
16489,-13.04
16501,-15.3
16513,-17.46
16525,-19.57
16536,-21.6
16547,-23.48
16559,-25.24
16571,-27.0
16583,-29.03
16595,-31.64
16607,-35.06
16619,-39.3
16631,-43.95
16643,-48.2
16655,-50.93
16667,-51.0
16679,-47.64
16691,-40.72
16703,-30.78
16715,-18.9
16726,-6.34
16737,5.84
16749,16.9
16761,26.46
16773,34.34
16785,40.39
16797,44.51
16809,46.69
16821,47.13
16833,46.26
16845,44.58
16857,42.58
16869,40.58
16881,38.66
16893,36.82
16905,35.02
16916,33.29
16927,31.79
16939,30.63
16951,29.85
16963,29.29
16975,28.65
16987,27.61
16999,25.89
17011,23.4
17023,20.22
17035,16.57
17047,12.7
17059,8.87
17071,5.19
17083,1.7
17095,-1.69
17106,-5.09
17117,-8.62
17129,-12.3
17141,-16.05
17153,-19.68
17165,-23.02
17177,-25.99
17189,-28.66
17201,-31.3
17213,-34.24
17225,-37.83
17237,-42.23
17249,-47.26
17261,-52.36
17273,-56.55
17285,-58.64
17296,-57.6
17307,-52.84
17319,-44.48
17331,-33.38
17343,-20.88
17355,-8.42
17367,2.81
17379,12.1
17391,19.14
17403,23.96
17415,26.74
17427,27.7
17439,27.1
17451,25.33
17463,22.91
17475,20.41
17486,18.38
17497,17.19
17509,16.93
17521,17.5
17533,18.59
17545,19.88
17557,21.08
17569,22.01
17581,22.56
17593,22.68
17605,22.32
17617,21.4
17629,19.89
17641,17.8
17653,15.19
17665,12.16
17676,8.81
17687,5.17
17699,1.24
17711,-3.0
17723,-7.53
17735,-12.26
17747,-17.02
17759,-21.6
17771,-25.89
17783,-29.93
17795,-33.93
17807,-38.25
17819,-43.21
17831,-48.97
17843,-55.23
17855,-61.28
17866,-65.98
17877,-68.08
17889,-66.57
17901,-61.03
17913,-51.78
17925,-39.84
17937,-26.58
17949,-13.37
17961,-1.28
17973,9.08
17985,17.44
17997,23.81
18009,28.35
18021,31.29
18033,32.97
18045,33.81
18056,34.22
18067,34.51
18079,34.86
18091,35.24
18103,35.55
18115,35.63
18127,35.44
18139,35.01
18151,34.49
18163,34.05
18175,33.79
18187,33.67
18199,33.43
18211,32.71
18223,31.11
18235,28.41
18246,24.67
18257,20.22
18269,15.56
18281,11.14
18293,7.15
18305,3.48
18317,-0.14
18329,-4.0
18341,-8.21
18353,-12.61
18365,-16.91
18377,-20.83
18389,-24.26
18401,-27.3
18413,-30.26
18425,-33.54
18436,-37.48
18447,-42.3
18459,-47.96
18471,-54.04
18483,-59.72
18495,-63.87
18507,-65.26
18519,-62.93
18531,-56.49
18543,-46.27
18555,-33.33
18567,-19.06
18579,-4.95
18591,7.91
18603,18.86
18615,27.74
18626,34.65
18637,39.83
18649,43.5
18661,45.84
18673,47.08
18685,47.49
18697,47.45
18709,47.28
18721,47.22
18733,47.3
18745,47.36
18757,47.15
18769,46.54
18781,45.57
18793,44.46
18805,43.52
18816,42.98
18827,42.79
18839,42.7
18851,42.25
18863,41.0
18875,38.63
18887,35.11
18899,30.69
18911,25.77
18923,20.78
18935,16.01
18947,11.55
18959,7.23
18971,2.85
18983,-1.8
18995,-6.74
19006,-11.82
19017,-16.8
19029,-21.43
19041,-25.62
19053,-29.48
19065,-33.29
19077,-37.38
19089,-42.1
19101,-47.62
19113,-53.86
19125,-60.39
19137,-66.39
19149,-70.74
19161,-72.32
19173,-70.26
19185,-64.28
19196,-54.73
19207,-42.55
19219,-29.03
19231,-15.46
19243,-2.88
19255,8.0
19267,16.81
19279,23.47
19291,28.09
19303,30.94
19315,32.39
19327,32.84
19339,32.66
19351,32.19
19363,31.61
19375,31.1
19386,30.77
19397,30.72
19409,31.03
19421,31.67
19433,32.51
19445,33.3
19457,33.75
19469,33.59
19481,32.64
19493,30.85
19505,28.25
19517,24.97
19529,21.13
19541,16.87
19553,12.39
19565,7.86
19576,3.46
19587,-0.68
19599,-4.5
19611,-8.03
19623,-11.32
19635,-14.44
19647,-17.4
19659,-20.29
19671,-23.22
19683,-26.47
19695,-30.39
19707,-35.26
19719,-41.04
19731,-47.19
19743,-52.72
19755,-56.32
19766,-56.84
19777,-53.62
19789,-46.74
19801,-36.97
19813,-25.48
19825,-13.5
19837,-1.98
19849,8.44
19861,17.45
19873,24.81
19885,30.33
19897,33.85
19909,35.34
19921,35.01
19933,33.3
19945,30.86
19956,28.29
19967,26.04
19979,24.33
19991,23.2
20003,22.52
20015,22.15
20027,21.93
20039,21.71
20051,21.31
20063,20.56
20075,19.35
20087,17.62
20099,15.38
20111,12.64
20123,9.42
20135,5.72
20146,1.65
20157,-2.62
20169,-6.81
20181,-10.69
20193,-14.11
20205,-17.16
20217,-20.1
20229,-23.26
20241,-26.97
20253,-31.39
20265,-36.52
20277,-42.11
20289,-47.66
20301,-52.36
20313,-55.25
20325,-55.39
20336,-52.13
20347,-45.33
20359,-35.5
20371,-23.62
20383,-10.9
20395,1.5
20407,12.66
20419,22.0
20431,29.19
20443,34.16
20455,37.05
20467,38.11
20479,37.67
20491,36.05
20503,33.6
20515,30.62
20526,27.48
20537,24.52
20549,22.06
20561,20.3
20573,19.25
20585,18.72
20597,18.4
20609,17.97
20621,17.25
20633,16.17
20645,14.74
20657,13.03
20669,11.09
20681,8.93
20693,6.51
20705,3.77
20716,0.69
20727,-2.76
20739,-6.53
20751,-10.57
20763,-14.74
20775,-18.91
20787,-22.95
20799,-26.75
20811,-30.37
20823,-33.96
20835,-37.78
20847,-42.14
20859,-47.21
20871,-52.9
20883,-58.76
20895,-63.89
20906,-67.14
20917,-67.35
20929,-63.65
20941,-55.81
20953,-44.37
20965,-30.55
20977,-15.91
20989,-1.96
