seconds,BVP
6,-7.2
18,-4.28
30,-0.69
42,3.3
54,7.28
66,10.78
78,13.53
90,15.65
101,17.68
112,20.43
124,24.66
136,30.76
148,38.61
160,47.64
172,57.03
184,66.0
196,73.94
208,80.47
220,85.41
232,88.69
244,90.4
256,90.74
268,90.11
280,88.98
291,87.83
302,86.96
314,86.5
326,86.31
338,86.05
350,85.26
362,83.43
374,80.14
386,75.05
398,68.06
410,59.25
422,49.0
434,37.91
446,26.77
458,16.4
470,7.54
481,0.64
492,-4.13
504,-6.88
516,-7.9
528,-7.55
540,-6.21
552,-4.34
564,-2.43
576,-0.97
588,-0.34
600,-0.7
612,-1.88
624,-3.53
636,-5.23
648,-6.73
660,-7.98
671,-9.11
682,-10.3
694,-11.66
706,-13.17
718,-14.81
730,-16.53
742,-18.33
754,-20.1
766,-21.5
778,-21.93
790,-20.72
802,-17.42
814,-12.06
826,-5.26
838,2.0
850,8.7
861,14.11
872,17.96
884,20.31
896,21.41
908,21.47
920,20.62
932,18.92
944,16.39
956,12.95
968,8.48
980,2.81
992,-4.2
1004,-12.46
1016,-21.62
1028,-31.07
1040,-40.04
1051,-47.88
1062,-54.12
1074,-58.64
1086,-61.65
1098,-63.56
1110,-64.76
1122,-65.38
1134,-65.16
1146,-63.54
1158,-60.01
1170,-54.4
1182,-47.07
1194,-38.72
1206,-30.12
1218,-21.76
1230,-13.82
1241,-6.34
1252,0.52
1264,6.47
1276,11.21
1288,14.8
1300,17.69
1312,20.58
1324,23.92
1336,27.67
1348,31.23
1360,33.75
1372,34.59
1384,33.59
1396,30.99
1408,27.16
1420,22.3
1431,16.43
1442,9.59
1454,2.26
1466,-4.57
1478,-9.62
1490,-11.84
1502,-10.85
1514,-7.03
1526,-1.3
1538,5.39
1550,12.34
1562,19.09
1574,25.19
1586,29.93
1598,32.4
1610,31.9
1621,28.46
1632,23.04
1644,17.41
1656,13.58
1668,13.25
1680,17.18
1692,25.03
1704,35.28
1716,45.56
1728,53.29
1740,56.41
1752,54.1
1764,46.99
1776,36.99
1788,26.52
1800,17.75
1811,12.03
1822,9.69
1834,10.38
1846,13.41
1858,17.96
1870,23.09
1882,27.71
1894,30.69
1906,31.07
1918,28.39
1930,22.92
1942,15.51
1954,7.31
1966,-0.57
1978,-7.39
1990,-12.84
2001,-16.96
2012,-19.93
2024,-21.98
2036,-23.33
2048,-24.23
2060,-24.99
2072,-25.84
2084,-26.83
2096,-27.7
2108,-27.89
2120,-26.75
2132,-23.79
2144,-18.94
2156,-12.67
2168,-5.96
2180,-0.01
2191,4.08
2202,5.63
2214,4.62
2226,1.65
2238,-2.46
2250,-7.05
2262,-11.99
2274,-17.66
2286,-24.62
2298,-33.07
2310,-42.56
2322,-51.97
2334,-59.91
2346,-65.27
2358,-67.63
2370,-67.19
2381,-64.54
2392,-60.28
2404,-54.96
2416,-49.25
2428,-44.03
2440,-40.26
2452,-38.51
2464,-38.54
2476,-39.12
2488,-38.5
2500,-35.16
2512,-28.58
2524,-19.49
2536,-9.42
2548,-0.01
2560,7.73
2571,13.64
2582,18.12
2594,21.64
2606,24.28
2618,25.74
2630,25.68
2642,24.02
2654,21.19
2666,17.92
2678,14.96
2690,12.7
2702,11.02
2714,9.37
2726,7.08
2738,3.62
2750,-1.17
2761,-7.06
2772,-13.5
2784,-19.73
2796,-24.98
2808,-28.55
2820,-29.93
2832,-28.9
2844,-25.64
2856,-20.76
2868,-15.2
2880,-9.96
2892,-5.87
2904,-3.3
2916,-2.2
2928,-2.18
2940,-2.73
2951,-3.36
2962,-3.69
2974,-3.46
2986,-2.57
2998,-1.16
3010,0.41
3022,1.62
3034,1.95
3046,1.04
3058,-1.2
3070,-4.71
3082,-9.35
3094,-14.93
3106,-21.06
3118,-26.98
3130,-31.49
3141,-33.25
3152,-31.28
3164,-25.36
3176,-16.18
3188,-5.14
3200,6.27
3212,16.83
3224,25.93
3236,33.46
3248,39.57
3260,44.41
3272,47.9
3284,49.81
3296,49.91
3308,48.35
3320,45.8
3331,43.47
3342,42.66
3354,44.18
3366,47.84
3378,52.28
3390,55.43
3402,55.34
3414,50.95
3426,42.48
3438,31.2
3450,18.87
3462,7.14
3474,-2.72
3486,-9.89
3498,-13.86
3510,-14.4
3521,-11.69
3532,-6.27
3544,0.91
3556,8.78
3568,16.37
3580,23.04
3592,28.54
3604,32.84
3616,35.99
3628,37.9
3640,38.4
3652,37.28
3664,34.53
3676,30.54
3688,26.15
3700,22.48
3711,20.52
3722,20.71
3734,22.55
3746,24.69
3758,25.38
3770,23.32
3782,18.24
3794,11.17
3806,4.07
3818,-1.04
3830,-2.85
3842,-1.21
3854,2.98
3866,8.29
3878,13.42
3890,17.53
3901,20.39
3912,22.16
3924,23.16
3936,23.69
3948,24.07
3960,24.59
3972,25.58
3984,27.32
3996,29.95
4008,33.39
4020,37.25
4032,40.91
4044,43.63
4056,44.66
4068,43.42
4080,39.67
4091,33.47
4102,25.22
4114,15.5
4126,5.0
4138,-5.63
4150,-15.88
4162,-25.49
4174,-34.46
4186,-43.08
4198,-51.79
4210,-61.03
4222,-71.08
4234,-81.78
4246,-92.53
4258,-102.22
4270,-109.6
4281,-113.58
4292,-113.67
4304,-110.09
4316,-103.73
4328,-95.82
4340,-87.5
4352,-79.73
4364,-73.17
4376,-68.35
4388,-65.7
4400,-65.36
4412,-67.08
4424,-70.05
4436,-73.18
4448,-75.43
4460,-76.2
4471,-75.37
4482,-73.15
4494,-69.75
4506,-65.19
4518,-59.45
4530,-52.5
4542,-44.63
4554,-36.33
4566,-28.25
4578,-20.89
4590,-14.56
4602,-9.36
4614,-5.31
4626,-2.36
4638,-0.37
4650,0.88
4661,1.68
4672,2.23
4684,2.62
4696,2.77
4708,2.6
4720,2.1
4732,1.38
4744,0.51
4756,-0.65
4768,-2.51
4780,-5.5
4792,-9.77
4804,-14.85
4816,-19.69
4828,-22.97
4840,-23.71
4851,-21.67
4862,-17.48
4874,-12.24
4886,-7.01
4898,-2.39
4910,1.5
4922,4.81
4934,7.61
4946,9.72
4958,10.88
4970,10.98
4982,10.2
4994,8.95
5006,7.63
5018,6.4
5030,5.09
5041,3.44
5052,1.31
5064,-1.13
5076,-3.59
5088,-5.84
5100,-7.98
5112,-10.32
5124,-13.03
5136,-15.95
5148,-18.37
5160,-19.42
5172,-18.43
5184,-15.32
5196,-10.58
5208,-5.06
5220,0.52
5231,5.76
5242,10.57
5254,14.93
5266,18.64
5278,21.25
5290,22.33
5302,21.74
5314,19.79
5326,17.18
5338,14.73
5350,12.95
5362,11.98
5374,11.55
5386,11.22
5398,10.58
5410,9.32
5421,7.3
5432,4.47
5444,0.95
5456,-2.94
5468,-6.66
5480,-9.5
5492,-10.79
5504,-10.12
5516,-7.5
5528,-3.37
5540,1.49
5552,6.27
5564,10.33
5576,13.27
5588,14.92
5600,15.3
5611,14.46
5622,12.54
5634,9.69
5646,6.19
5658,2.38
5670,-1.34
5682,-4.65
5694,-7.33
5706,-9.37
5718,-10.87
5730,-12.05
5742,-13.17
5754,-14.44
5766,-16.02
5778,-17.9
5790,-19.82
5801,-21.3
5812,-21.73
5824,-20.62
5836,-17.74
5848,-13.31
5860,-7.87
5872,-2.05
5884,3.65
5896,9.04
5908,14.17
5920,19.13
5932,23.85
5944,27.91
5956,30.69
5968,31.61
5980,30.42
5991,27.37
6002,23.2
6014,18.89
6026,15.31
6038,12.97
6050,11.89
6062,11.69
6074,11.85
6086,11.86
6098,11.44
6110,10.55
6122,9.44
6134,8.61
6146,8.77
6158,10.66
6170,14.81
6181,21.33
6192,29.8
6204,39.37
6216,49.12
6228,58.36
6240,66.78
6252,74.36
6264,81.14
6276,87.05
6288,91.83
6300,95.23
6312,97.12
6324,97.69
6336,97.27
6348,96.33
6360,95.27
6371,94.37
6382,93.78
6394,93.48
6406,93.27
6418,92.87
6430,92.06
6442,90.79
6454,89.35
6466,88.16
6478,87.53
6490,87.43
6502,87.31
6514,86.23
6526,83.14
6538,77.17
6550,67.81
6561,54.93
6572,38.62
6584,19.22
6596,-2.67
6608,-26.0
6620,-49.24
6632,-70.43
6644,-87.55
6656,-98.92
6668,-103.73
6680,-102.21
6692,-95.55
6704,-85.56
6716,-74.06
6728,-62.51
6740,-51.69
6751,-41.6
6762,-31.72
6774,-21.21
6786,-9.35
6798,4.11
6810,18.62
6822,32.91
6834,45.31
6846,54.39
6858,59.51
6870,61.05
6882,59.97
6894,57.23
6906,53.14
6918,47.27
6930,38.93
6941,27.9
6952,14.96
6964,1.78
6976,-9.71
6988,-18.24
7000,-23.71
7012,-27.17
7024,-30.19
7036,-34.11
7048,-39.54
7060,-46.36
7072,-54.02
7084,-61.85
7096,-69.24
7108,-75.61
7120,-80.31
7131,-82.65
7142,-82.15
7154,-78.83
7166,-73.35
7178,-66.84
7190,-60.63
7202,-55.72
7214,-52.66
7226,-51.45
7238,-51.79
7250,-53.31
7262,-55.7
7274,-58.74
7286,-62.23
7298,-65.95
7310,-69.68
7321,-73.21
7332,-76.41
7344,-79.14
7356,-81.24
7368,-82.46
7380,-82.56
7392,-81.45
7404,-79.17
7416,-75.93
7428,-71.88
7440,-67.03
7452,-61.21
7464,-54.28
7476,-46.36
7488,-37.87
7500,-29.53
7511,-22.03
7522,-15.74
7534,-10.65
7546,-6.44
7558,-2.8
7570,0.38
7582,2.96
7594,4.69
7606,5.44
7618,5.32
7630,4.72
7642,4.11
7654,3.86
7666,4.13
7678,4.76
7690,5.43
7701,5.72
7712,5.26
7724,3.8
7736,1.35
7748,-1.79
7760,-4.88
7772,-7.0
7784,-7.21
7796,-4.98
7808,-0.38
7820,5.92
7832,12.9
7844,19.59
7856,25.35
7868,29.9
7880,33.16
7891,35.07
7902,35.48
7914,34.3
7926,31.67
7938,28.07
7950,24.2
7962,20.73
7974,18.06
7986,16.2
7998,14.85
8010,13.66
8022,12.28
8034,10.5
8046,8.24
8058,5.51
8070,2.57
8081,-0.04
8092,-1.57
8104,-1.22
8116,1.52
8128,6.65
8140,13.57
8152,21.33
8164,28.83
8176,35.18
8188,39.75
8200,42.17
8212,42.24
8224,39.94
8236,35.47
8248,29.31
8260,22.24
8271,15.13
8282,8.73
8294,3.44
8306,-0.75
8318,-4.13
8330,-7.12
8342,-10.04
8354,-13.01
8366,-16.04
8378,-18.99
8390,-21.69
8402,-23.84
8414,-25.09
8426,-25.0
8438,-23.19
8450,-19.5
8461,-14.12
8472,-7.61
8484,-0.71
8496,5.82
8508,11.47
8520,16.05
8532,19.65
8544,22.45
8556,24.63
8568,26.27
8580,27.47
8592,28.46
8604,29.61
8616,31.38
8628,34.11
8640,37.78
8651,41.97
8662,45.9
8674,48.71
8686,49.7
8698,48.47
8710,45.0
8722,39.49
8734,32.36
8746,24.17
8758,15.66
8770,7.75
8782,1.42
8794,-2.53
8806,-3.77
8818,-2.66
8830,-0.3
8841,1.82
8852,2.25
8864,0.08
8876,-4.82
8888,-11.76
8900,-19.6
8912,-27.08
8924,-33.13
8936,-37.08
8948,-38.67
8960,-38.02
8972,-35.64
8984,-32.38
8996,-29.27
9008,-27.3
9020,-27.0
9031,-28.25
9042,-30.24
9054,-31.69
9066,-31.33
9078,-28.36
9090,-22.69
9102,-14.93
9114,-6.01
9126,3.22
9138,12.37
9150,21.49
9162,30.86
9174,40.6
9186,50.38
9198,59.37
9210,66.5
9221,70.79
9232,71.66
9244,68.97
9256,63.07
9268,54.61
9280,44.45
9292,33.61
9304,23.07
9316,13.62
9328,5.66
9340,-0.84
9352,-6.29
9364,-11.12
9376,-15.5
9388,-19.23
9400,-21.82
9411,-22.72
9422,-21.6
9434,-18.41
9446,-13.39
9458,-6.97
9470,0.25
9482,7.41
9494,13.43
9506,17.2
9518,17.96
9530,15.76
9542,11.64
9554,7.47
9566,5.32
9578,6.73
9590,12.06
9601,20.38
9612,29.75
9624,37.86
9636,42.73
9648,43.23
9660,39.31
9672,31.96
9684,22.8
9696,13.61
9708,5.78
9720,0.03
9732,-3.56
9744,-5.41
9756,-6.0
9768,-5.63
9780,-4.36
9791,-2.19
9802,0.67
9814,3.69
9826,6.14
9838,7.4
9850,7.28
9862,6.12
9874,4.65
9886,3.59
9898,3.35
9910,3.89
9922,4.82
9934,5.68
9946,6.16
9958,6.14
9970,5.6
9981,4.55
9992,2.96
10004,0.89
10016,-1.42
10028,-3.48
10040,-4.74
10052,-4.78
10064,-3.54
10076,-1.31
10088,1.24
10100,3.4
10112,4.5
10124,4.17
10136,2.46
10148,-0.13
10160,-2.8
10171,-4.64
10182,-4.88
10194,-3.13
10206,0.5
10218,5.54
10230,11.25
10242,16.97
10254,22.3
10266,27.22
10278,31.99
10290,36.98
10302,42.42
10314,48.3
10326,54.31
10338,59.84
10350,64.12
10361,66.2
10372,65.2
10384,60.45
10396,51.78
10408,39.6
10420,24.95
10432,9.19
10444,-6.38
10456,-20.87
10468,-33.84
10480,-45.15
10492,-54.71
10504,-62.32
10516,-67.71
10528,-70.72
10540,-71.47
10551,-70.39
10562,-68.04
10574,-64.97
10586,-61.53
10598,-57.98
10610,-54.43
10622,-50.8
10634,-46.83
10646,-42.1
10658,-36.24
10670,-29.19
10682,-21.38
10694,-13.61
10706,-6.82
10718,-1.72
10730,1.43
10741,2.74
10752,2.48
10764,0.8
10776,-2.3
10788,-6.81
10800,-12.5
10812,-18.76
10824,-24.68
10836,-29.29
10848,-31.84
10860,-32.01
10872,-29.96
10884,-26.27
10896,-21.81
10908,-17.48
10920,-14.05
10931,-11.94
10942,-11.16
10954,-11.25
10966,-11.44
10978,-10.89
10990,-8.97
11002,-5.48
11014,-0.75
11026,4.45
11038,9.17
11050,12.56
11062,14.1
11074,13.61
11086,11.24
11098,7.24
11110,1.91
11121,-4.29
11132,-10.79
11144,-16.78
11156,-21.45
11168,-24.24
11180,-25.11
11192,-24.57
11204,-23.52
11216,-22.92
11228,-23.37
11240,-24.94
11252,-27.14
11264,-29.16
11276,-30.11
11288,-29.37
11300,-26.73
11311,-22.41
11322,-16.97
11334,-11.07
11346,-5.31
11358,-0.15
11370,4.15
11382,7.44
11394,9.59
11406,10.51
11418,10.19
11430,8.72
11442,6.37
11454,3.51
11466,0.56
11478,-2.15
11490,-4.4
11501,-6.14
11512,-7.52
11524,-8.86
11536,-10.55
11548,-12.91
11560,-16.01
11572,-19.53
11584,-22.82
11596,-25.07
11608,-25.64
11620,-24.27
11632,-21.18
11644,-16.94
11656,-12.19
11668,-7.47
11680,-3.1
11691,0.76
11702,4.01
11714,6.46
11726,7.87
11738,8.02
11750,6.86
11762,4.59
11774,1.66
11786,-1.36
11798,-3.93
11810,-5.74
11822,-6.75
11834,-7.24
11846,-7.59
11858,-8.21
11870,-9.34
11881,-11.0
11892,-12.95
11904,-14.72
11916,-15.69
11928,-15.27
11940,-13.04
11952,-9.02
11964,-3.69
11976,2.14
11988,7.5
12000,11.64
12012,14.11
12024,14.82
12036,13.93
12048,11.67
12060,8.27
12071,3.91
12082,-1.19
12094,-6.72
12106,-12.4
12118,-17.96
12130,-23.16
12142,-27.83
12154,-31.77
12166,-34.69
12178,-36.31
12190,-36.32
12202,-34.51
12214,-30.85
12226,-25.44
12238,-18.48
12250,-10.29
12261,-1.24
12272,8.14
12284,17.22
12296,25.37
12308,32.11
12320,37.26
12332,40.96
12344,43.51
12356,45.12
12368,45.68
12380,44.78
12392,41.84
12404,36.49
12416,28.99
12428,20.22
12440,11.44
12451,3.88
12462,-1.83
12474,-5.7
12486,-8.22
12498,-9.96
12510,-11.15
12522,-11.57
12534,-10.7
12546,-8.07
12558,-3.49
12570,2.87
12582,10.64
12594,19.39
12606,28.74
12618,38.2
12630,47.07
12641,54.36
12652,59.0
12664,60.25
12676,58.08
12688,53.24
12700,47.06
12712,40.91
12724,35.69
12736,31.59
12748,28.18
12760,24.88
12772,21.3
12784,17.53
12796,13.92
12808,10.77
12820,8.06
12831,5.45
12842,2.55
12854,-0.7
12866,-3.88
12878,-6.25
12890,-7.15
12902,-6.34
12914,-4.2
12926,-1.49
12938,0.97
12950,2.63
12962,3.33
12974,3.21
12986,2.45
12998,1.14
13010,-0.73
13021,-3.21
13032,-6.22
13044,-9.51
13056,-12.75
13068,-15.64
13080,-18.09
13092,-20.29
13104,-22.59
13116,-25.38
13128,-28.95
13140,-33.21
13152,-37.73
13164,-41.69
13176,-44.17
13188,-44.39
13200,-41.98
13211,-37.11
13222,-30.43
13234,-22.79
13246,-15.03
13258,-7.75
13270,-1.19
13282,4.6
13294,9.73
13306,14.25
13318,18.21
13330,21.61
13342,24.53
13354,27.08
13366,29.47
13378,31.88
13390,34.44
13401,37.2
13412,40.15
13424,43.25
13436,46.42
13448,49.6
13460,52.69
13472,55.66
13484,58.55
13496,61.56
13508,65.03
13520,69.31
13532,74.68
13544,81.06
13556,88.02
13568,94.7
13580,100.09
13591,103.17
13602,103.13
13614,99.56
13626,92.42
13638,82.14
13650,69.53
13662,55.69
13674,41.75
13686,28.72
13698,17.25
13710,7.54
13722,-0.64
13734,-7.82
13746,-14.69
13758,-21.85
13770,-29.57
13781,-37.64
13792,-45.3
13804,-51.54
13816,-55.46
13828,-56.62
13840,-55.31
13852,-52.31
13864,-48.6
13876,-44.87
13888,-41.45
13900,-38.41
13912,-35.78
13924,-33.84
13936,-32.95
13948,-33.42
13960,-35.18
13971,-37.78
13982,-40.61
13994,-43.18
14006,-45.43
14018,-47.57
14030,-49.97
14042,-52.8
14054,-55.96
14066,-59.11
14078,-61.88
14090,-64.03
14102,-65.42
14114,-65.84
14126,-64.89
14138,-62.0
14150,-56.79
14161,-49.28
14172,-40.16
14184,-30.49
14196,-21.36
14208,-13.43
14220,-6.76
14232,-0.97
14244,4.42
14256,9.68
14268,14.81
14280,19.65
14292,24.09
14304,28.16
14316,31.97
14328,35.54
14340,38.72
14351,41.3
14362,43.11
14374,44.21
14386,44.82
14398,45.11
14410,45.01
14422,44.12
14434,41.83
14446,37.75
14458,31.9
14470,24.91
14482,17.78
14494,11.52
14506,6.76
14518,3.51
14530,1.29
14541,-0.62
14552,-2.87
14564,-5.8
14576,-9.46
14588,-13.72
14600,-18.42
14612,-23.46
14624,-28.7
14636,-33.96
14648,-38.95
14660,-43.31
14672,-46.72
14684,-48.96
14696,-50.05
14708,-50.17
14720,-49.66
14731,-48.88
14742,-48.12
14754,-47.47
14766,-46.74
14778,-45.55
14790,-43.4
14802,-39.95
14814,-35.1
14826,-29.04
14838,-22.18
14850,-14.92
14862,-7.58
14874,-0.39
14886,6.45
14898,12.6
14910,17.61
14921,21.06
14932,22.72
14944,22.7
14956,21.39
14968,19.32
14980,16.9
14992,14.39
15004,11.88
15016,9.36
15028,6.83
15040,4.28
15052,1.64
15064,-1.27
15076,-4.65
15088,-8.61
15100,-13.05
15111,-17.5
15122,-21.36
15134,-23.98
15146,-24.96
15158,-24.23
15170,-22.05
15182,-18.82
15194,-15.04
15206,-11.1
15218,-7.35
15230,-4.03
15242,-1.35
15254,0.6
15266,1.81
15278,2.35
15290,2.37
15301,2.07
15312,1.66
15324,1.38
15336,1.48
15348,2.09
15360,3.16
15372,4.44
15384,5.47
15396,5.8
15408,5.14
15420,3.52
15432,1.27
15444,-1.13
15456,-3.08
15468,-4.1
15480,-3.85
15491,-2.27
15502,0.41
15514,3.68
15526,6.85
15538,9.33
15550,10.79
15562,11.26
15574,10.96
15586,10.18
15598,9.05
15610,7.6
15622,5.91
15634,4.28
15646,3.25
15658,3.45
15670,5.25
15681,8.62
15692,13.23
15704,18.61
15716,24.41
15728,30.37
15740,36.34
15752,42.19
15764,47.88
15776,53.65
15788,60.06
15800,67.79
15812,77.22
15824,88.02
15836,99.11
15848,108.94
15860,116.05
15871,119.67
15882,119.73
15894,116.7
15906,111.04
15918,102.95
15930,92.29
15942,78.97
15954,63.31
15966,46.14
15978,28.67
15990,11.97
16002,-3.32
16014,-17.11
16026,-29.57
16038,-40.69
16050,-50.05
16061,-56.93
16072,-60.72
16084,-61.3
16096,-59.17
16108,-55.2
16120,-50.25
16132,-44.8
16144,-38.9
16156,-32.41
16168,-25.28
16180,-17.71
16192,-10.1
16204,-2.93
16216,3.44
16228,8.85
16240,13.18
16251,16.4
16262,18.49
16274,19.38
16286,19.03
16298,17.43
16310,14.66
16322,11.06
16334,7.15
16346,3.57
16358,0.78
16370,-1.08
16382,-2.33
16394,-3.49
16406,-5.06
16418,-7.24
16430,-9.81
16441,-12.32
16452,-14.24
16464,-15.17
16476,-14.9
16488,-13.33
16500,-10.39
16512,-6.08
16524,-0.51
16536,5.99
16548,12.88
16560,19.52
16572,25.37
16584,30.13
16596,33.79
16608,36.57
16620,38.77
16631,40.61
16642,42.23
16654,43.65
16666,44.84
16678,45.76
16690,46.25
16702,46.03
16714,44.59
16726,41.36
16738,35.88
16750,27.99
16762,17.89
16774,6.09
16786,-6.72
16798,-19.85
16810,-32.61
16821,-44.36
16832,-54.6
16844,-63.04
16856,-69.66
16868,-74.68
16880,-78.38
16892,-80.91
16904,-82.21
16916,-82.12
16928,-80.54
16940,-77.66
16952,-73.81
16964,-69.35
16976,-64.39
16988,-58.7
17000,-51.99
17011,-44.06
17022,-35.05
17034,-25.31
17046,-15.29
17058,-5.29
17070,4.5
17082,13.95
17094,22.8
17106,30.7
17118,37.29
17130,42.35
17142,45.89
17154,48.01
17166,48.76
17178,48.01
17190,45.48
17201,40.93
17212,34.4
17224,26.27
17236,17.19
17248,7.8
17260,-1.46
17272,-10.41
17284,-18.98
17296,-27.0
17308,-34.04
17320,-39.52
17332,-42.89
17344,-43.86
17356,-42.43
17368,-38.89
17380,-33.66
17391,-27.27
17402,-20.34
17414,-13.61
17426,-7.78
17438,-3.23
17450,0.23
17462,3.33
17474,7.01
17486,11.87
17498,17.76
17510,23.75
17522,28.43
17534,30.54
17546,29.42
17558,25.16
17570,18.44
17581,10.21
17592,1.34
17604,-7.48
17616,-15.72
17628,-23.06
17640,-29.31
17652,-34.53
17664,-39.02
17676,-43.23
17688,-47.61
17700,-52.41
17712,-57.58
17724,-62.76
17736,-67.32
17748,-70.5
17760,-71.52
17771,-69.77
17782,-65.04
17794,-57.73
17806,-48.89
17818,-40.04
17830,-32.72
17842,-27.99
17854,-26.13
17866,-26.67
17878,-28.72
17890,-31.38
17902,-33.96
17914,-35.99
17926,-37.1
17938,-37.01
17950,-35.62
17961,-33.19
17972,-30.3
17984,-27.67
17996,-25.71
18008,-24.38
18020,-23.18
18032,-21.58
18044,-19.35
18056,-16.66
18068,-13.84
18080,-11.01
18092,-7.83
18104,-3.6
18116,2.24
18128,9.78
18140,18.46
18151,27.29
18162,35.33
18174,41.98
18186,47.04
18198,50.5
18210,52.26
18222,52.07
18234,49.71
18246,45.27
18258,39.24
18270,32.48
18282,25.92
18294,20.28
18306,16.01
18318,13.24
18330,12.03
18341,12.4
18352,14.23
18364,17.08
18376,20.15
18388,22.45
18400,23.24
18412,22.47
18424,20.89
18436,19.76
18448,20.16
18460,22.42
18472,25.91
18484,29.39
18496,31.63
18508,31.92
18520,30.27
18531,27.06
18542,22.72
18554,17.45
18566,11.27
18578,4.33
18590,-2.95
18602,-9.89
18614,-15.67
18626,-19.59
18638,-21.2
18650,-20.34
18662,-17.17
18674,-12.11
18686,-5.89
18698,0.57
18710,6.34
18721,10.81
18732,13.94
18744,16.33
18756,19.03
18768,23.23
18780,29.72
18792,38.61
18804,49.17
18816,60.02
18828,69.5
18840,76.14
18852,79.02
18864,77.96
18876,73.35
18888,65.98
18900,56.69
18911,46.25
18922,35.29
18934,24.3
18946,13.69
18958,3.69
18970,-5.71
18982,-14.77
18994,-23.94
19006,-33.74
19018,-44.51
19030,-56.16
19042,-68.13
19054,-79.45
19066,-89.11
19078,-96.32
19090,-100.82
19101,-102.72
19112,-102.45
19124,-100.48
19136,-97.26
19148,-93.27
19160,-88.97
19172,-84.79
19184,-81.01
19196,-77.68
19208,-74.61
19220,-71.51
19232,-68.14
19244,-64.4
19256,-60.24
19268,-55.56
19280,-50.19
19291,-43.96
19302,-36.9
19314,-29.29
19326,-21.69
19338,-14.71
19350,-8.93
19362,-4.69
19374,-2.02
19386,-0.61
19398,0.13
19410,0.97
19422,2.58
19434,5.34
19446,9.27
19458,14.05
19470,19.2
19481,24.28
19492,28.95
19504,32.94
19516,36.0
19528,37.87
19540,38.36
19552,37.47
19564,35.38
19576,32.38
19588,28.82
19600,24.91
19612,20.82
19624,16.68
19636,12.65
19648,8.95
19660,5.68
19671,2.88
19682,0.44
19694,-1.78
19706,-3.83
19718,-5.54
19730,-6.53
19742,-6.39
19754,-4.78
19766,-1.71
19778,2.45
19790,7.14
19802,11.79
19814,16.02
19826,19.7
19838,22.79
19850,25.18
19861,26.64
19872,26.92
19884,25.98
19896,24.15
19908,22.08
19920,20.39
19932,19.36
19944,18.76
19956,18.0
19968,16.49
19980,13.93
19992,10.47
20004,6.63
20016,3.06
20028,0.34
20040,-1.16
20051,-1.32
20062,-0.29
20074,1.62
20086,4.02
20098,6.47
20110,8.63
20122,10.18
20134,10.79
20146,10.1
20158,7.77
20170,3.71
20182,-1.69
20194,-7.6
20206,-12.95
20218,-16.81
20230,-18.74
20241,-18.85
20252,-17.66
20264,-15.73
20276,-13.5
20288,-11.23
20300,-9.17
20312,-7.64
20324,-6.8
20336,-6.48
20348,-5.9
20360,-3.98
20372,0.1
20384,6.36
20396,13.8
20408,20.85
20420,26.18
20431,29.36
20442,30.97
20454,32.06
20466,33.29
20478,34.39
20490,34.24
20502,31.73
20514,26.47
20526,19.13
20538,10.98
20550,3.07
20562,-4.34
20574,-11.66
20586,-19.39
20598,-27.44
20610,-35.03
20621,-41.1
20632,-44.96
20644,-46.7
20656,-47.05
20668,-46.75
20680,-45.98
20692,-44.21
20704,-40.6
20716,-34.67
20728,-26.75
20740,-17.88
20752,-9.3
20764,-1.91
20776,4.05
20788,8.84
20800,12.91
20811,16.57
20822,19.86
20834,22.61
20846,24.49
20858,25.26
20870,24.79
20882,23.14
20894,20.6
20906,17.61
20918,14.64
20930,12.02
20942,9.67
20954,7.17
20966,3.92
20978,-0.45
20990,-5.77
