seconds,BVP
8,15.75
20,13.81
32,12.41
44,11.62
55,11.46
66,11.8
78,12.45
90,13.13
102,13.61
114,13.77
126,13.56
138,12.96
150,11.94
162,10.43
174,8.4
186,5.89
198,3.05
210,0.1
222,-2.72
234,-5.27
245,-7.5
256,-9.48
268,-11.27
280,-12.95
292,-14.57
304,-16.16
316,-17.72
328,-19.34
340,-21.12
352,-23.06
364,-25.08
376,-26.94
388,-28.23
400,-28.54
412,-27.52
424,-24.92
435,-20.76
446,-15.26
458,-8.85
470,-2.07
482,4.54
494,10.51
506,15.51
518,19.4
530,22.13
542,23.72
554,24.23
566,23.72
578,22.31
590,20.25
602,17.92
614,15.7
625,13.95
636,12.79
648,12.18
660,11.93
672,11.86
684,11.86
696,11.9
708,11.99
720,12.1
732,12.1
744,11.83
756,11.19
768,10.18
780,8.88
792,7.4
804,5.8
815,4.09
826,2.22
838,0.14
850,-2.1
862,-4.41
874,-6.67
886,-8.86
898,-11.02
910,-13.21
922,-15.41
934,-17.51
946,-19.37
958,-20.9
970,-22.19
982,-23.51
994,-25.13
1005,-27.22
1016,-29.65
1028,-32.03
1040,-33.85
1052,-34.63
1064,-33.99
1076,-31.81
1088,-28.03
1100,-22.7
1112,-15.97
1124,-8.2
1136,0.13
1148,8.28
1160,15.52
1172,21.26
1184,25.21
1195,27.38
1206,28.01
1218,27.43
1230,25.95
1242,23.82
1254,21.26
1266,18.5
1278,15.79
1290,13.36
1302,11.36
1314,9.83
1326,8.77
1338,8.14
1350,7.91
1362,8.04
1374,8.4
1385,8.77
1396,8.86
1408,8.39
1420,7.21
1432,5.39
1444,3.18
1456,0.91
1468,-1.18
1480,-2.95
1492,-4.44
1504,-5.82
1516,-7.24
1528,-8.81
1540,-10.55
1552,-12.41
1564,-14.36
1575,-16.39
1586,-18.51
1598,-20.78
1610,-23.18
1622,-25.57
1634,-27.71
1646,-29.33
1658,-30.09
1670,-29.69
1682,-27.88
1694,-24.47
1706,-19.46
1718,-13.03
1730,-5.62
1742,2.13
1754,9.49
1765,15.76
1776,20.5
1788,23.47
1800,24.72
1812,24.49
1824,23.12
1836,20.99
1848,18.43
1860,15.71
1872,13.03
1884,10.6
1896,8.63
1908,7.3
1920,6.74
1932,6.92
1944,7.65
1955,8.63
1966,9.54
1978,10.12
1990,10.27
2002,10.0
2014,9.4
2026,8.55
2038,7.47
2050,6.21
2062,4.75
2074,3.1
2086,1.31
2098,-0.53
2110,-2.32
2122,-3.91
2134,-5.28
2145,-6.5
2156,-7.67
2168,-8.95
2180,-10.36
2192,-11.89
2204,-13.42
2216,-14.86
2228,-16.22
2240,-17.64
2252,-19.33
2264,-21.5
2276,-24.18
2288,-27.18
2300,-30.09
2312,-32.28
2324,-33.15
2335,-32.11
2346,-28.85
2358,-23.41
2370,-16.16
2382,-7.78
2394,0.94
2406,9.13
2418,16.1
2430,21.44
2442,25.05
2454,27.11
2466,27.93
2478,27.79
2490,26.88
2502,25.27
2514,23.02
2525,20.24
2536,17.19
2548,14.2
2560,11.62
2572,9.69
2584,8.45
2596,7.76
2608,7.38
2620,7.07
2632,6.65
2644,6.09
2656,5.38
2668,4.57
2680,3.66
2692,2.6
2704,1.32
2715,-0.22
2726,-2.04
2738,-4.1
2750,-6.32
2762,-8.64
2774,-10.96
2786,-13.22
2798,-15.38
2810,-17.49
2822,-19.65
2834,-21.96
2846,-24.53
2858,-27.31
2870,-30.12
2882,-32.66
2894,-34.53
2905,-35.34
2916,-34.76
2928,-32.52
2940,-28.47
2952,-22.63
2964,-15.29
2976,-6.94
2988,1.71
3000,9.91
3012,17.0
3024,22.55
3036,26.39
3048,28.66
3060,29.6
3072,29.57
3084,28.85
3095,27.69
3106,26.2
3118,24.44
3130,22.45
3142,20.24
3154,17.9
3166,15.61
3178,13.6
3190,12.07
3202,11.17
3214,10.86
3226,10.98
3238,11.31
3250,11.57
3262,11.53
3274,11.04
3285,10.03
3296,8.51
3308,6.57
3320,4.36
3332,2.03
3344,-0.31
3356,-2.65
3368,-5.09
3380,-7.74
3392,-10.62
3404,-13.59
3416,-16.43
3428,-18.94
3440,-21.08
3452,-23.0
3464,-24.99
3475,-27.27
3486,-29.9
3498,-32.69
3510,-35.2
3522,-36.77
3534,-36.72
3546,-34.47
3558,-29.69
3570,-22.51
3582,-13.46
3594,-3.43
3606,6.54
3618,15.52
3630,22.9
3642,28.4
3654,32.02
3665,33.88
3676,34.15
3688,33.02
3700,30.75
3712,27.67
3724,24.18
3736,20.72
3748,17.6
3760,14.99
3772,12.88
3784,11.21
3796,9.92
3808,8.99
3820,8.49
3832,8.42
3844,8.73
3855,9.2
3866,9.52
3878,9.44
3890,8.82
3902,7.69
3914,6.16
3926,4.4
3938,2.44
3950,0.31
3962,-2.01
3974,-4.46
3986,-6.91
3998,-9.22
4010,-11.27
4022,-12.99
4034,-14.41
4045,-15.6
4056,-16.72
4068,-17.98
4080,-19.57
4092,-21.64
4104,-24.21
4116,-27.03
4128,-29.59
4140,-31.22
4152,-31.28
4164,-29.33
4176,-25.26
4188,-19.32
4200,-12.01
4212,-4.02
4224,3.95
4235,11.28
4246,17.5
4258,22.27
4270,25.49
4282,27.22
4294,27.6
4306,26.87
4318,25.22
4330,22.85
4342,20.0
4354,16.96
4366,14.1
4378,11.8
4390,10.31
4402,9.7
4414,9.88
4425,10.56
4436,11.42
4448,12.15
4460,12.48
4472,12.26
4484,11.47
4496,10.12
4508,8.32
4520,6.22
4532,3.94
4544,1.59
4556,-0.79
4568,-3.2
4580,-5.64
4592,-8.06
4604,-10.42
4615,-12.67
4626,-14.71
4638,-16.54
4650,-18.21
4662,-19.78
4674,-21.44
4686,-23.36
4698,-25.56
4710,-27.99
4722,-30.37
4734,-32.25
4746,-33.07
4758,-32.32
4770,-29.54
4782,-24.59
4794,-17.62
4805,-9.14
4816,0.03
4828,8.98
4840,16.94
4852,23.39
4864,28.18
4876,31.43
4888,33.33
4900,34.03
4912,33.6
4924,32.05
4936,29.48
4948,26.15
4960,22.43
4972,18.78
4984,15.53
4995,12.87
5006,10.83
5018,9.41
5030,8.54
5042,8.2
5054,8.28
5066,8.57
5078,8.8
5090,8.68
5102,7.97
5114,6.64
5126,4.82
5138,2.71
5150,0.54
5162,-1.6
5174,-3.75
5185,-6.01
5196,-8.45
5208,-11.08
5220,-13.75
5232,-16.27
5244,-18.45
5256,-20.19
5268,-21.55
5280,-22.78
5292,-24.15
5304,-25.93
5316,-28.24
5328,-30.98
5340,-33.81
5352,-36.22
5364,-37.56
5375,-37.16
5386,-34.48
5398,-29.24
5410,-21.61
5422,-12.15
5434,-1.87
5446,8.14
5458,16.89
5470,23.75
5482,28.53
5494,31.41
5506,32.74
5518,32.9
5530,32.22
5542,30.95
5554,29.31
5565,27.45
5576,25.57
5588,23.75
5600,22.02
5612,20.41
5624,18.9
5636,17.51
5648,16.32
5660,15.41
5672,14.8
5684,14.41
5696,14.02
5708,13.35
5720,12.23
5732,10.63
5744,8.75
5755,6.94
5766,5.52
5778,4.62
5790,4.08
5802,3.58
5814,2.79
5826,1.53
5838,-0.21
5850,-2.29
5862,-4.52
5874,-6.8
5886,-9.07
5898,-11.3
5910,-13.48
5922,-15.54
5934,-17.41
5945,-19.07
5956,-20.53
5968,-21.79
5980,-22.88
5992,-23.81
6004,-24.67
6016,-25.63
6028,-26.89
6040,-28.61
6052,-30.72
6064,-32.94
6076,-34.74
6088,-35.41
6100,-34.32
6112,-31.04
6124,-25.44
6135,-17.86
6146,-8.96
6158,0.36
6170,9.11
6182,16.47
6194,21.92
6206,25.33
6218,26.91
6230,27.06
6242,26.18
6254,24.55
6266,22.38
6278,19.79
6290,17.03
6302,14.45
6314,12.4
6325,11.13
6336,10.64
6348,10.71
6360,10.98
6372,11.17
6384,11.15
6396,11.02
6408,10.95
6420,11.06
6432,11.33
6444,11.59
6456,11.51
6468,10.87
6480,9.55
6492,7.62
6504,5.31
6515,2.94
6526,0.81
6538,-0.96
6550,-2.39
6562,-3.72
6574,-5.2
6586,-7.04
6598,-9.3
6610,-11.85
6622,-14.49
6634,-17.04
6646,-19.39
6658,-21.54
6670,-23.55
6682,-25.48
6694,-27.35
6705,-29.15
6716,-30.86
6728,-32.38
6740,-33.49
6752,-33.8
6764,-32.77
6776,-29.93
6788,-25.04
6800,-18.28
6812,-10.2
6824,-1.62
6836,6.65
6848,13.98
6860,19.99
6872,24.58
6884,27.8
6895,29.75
6906,30.55
6918,30.31
6930,29.14
6942,27.23
6954,24.84
6966,22.31
6978,19.97
6990,18.1
7002,16.8
7014,16.01
7026,15.57
7038,15.3
7050,15.11
7062,15.0
7074,14.95
7085,14.87
7096,14.58
7108,13.94
7120,12.85
7132,11.32
7144,9.47
7156,7.43
7168,5.26
7180,3.0
7192,0.68
7204,-1.69
7216,-4.05
7228,-6.32
7240,-8.45
7252,-10.37
7264,-12.01
7275,-13.35
7286,-14.39
7298,-15.29
7310,-16.26
7322,-17.49
7334,-19.07
7346,-20.93
7358,-22.84
7370,-24.66
7382,-26.33
7394,-27.98
7406,-29.82
7418,-31.97
7430,-34.32
7442,-36.49
7454,-37.82
7465,-37.57
7476,-35.15
7488,-30.27
7500,-23.07
7512,-14.15
7524,-4.44
7536,5.1
7548,13.65
7560,20.76
7572,26.29
7584,30.35
7596,33.05
7608,34.46
7620,34.55
7632,33.33
7644,30.99
7655,27.84
7666,24.35
7678,20.99
7690,18.09
7702,15.88
7714,14.43
7726,13.71
7738,13.61
7750,13.98
7762,14.59
7774,15.21
7786,15.62
7798,15.63
7810,15.16
7822,14.19
7834,12.81
7845,11.18
7856,9.42
7868,7.64
7880,5.89
7892,4.12
7904,2.21
7916,0.07
7928,-2.32
7940,-4.84
7952,-7.36
7964,-9.74
7976,-11.88
7988,-13.73
8000,-15.32
8012,-16.7
8024,-17.87
8035,-18.87
8046,-19.75
8058,-20.63
8070,-21.69
8082,-23.1
8094,-24.98
8106,-27.32
8118,-29.97
8130,-32.61
8142,-34.87
8154,-36.31
8166,-36.53
8178,-35.19
8190,-32.03
8202,-27.0
8214,-20.23
8225,-12.19
8236,-3.53
8248,4.92
8260,12.39
8272,18.39
8284,22.71
8296,25.46
8308,26.83
8320,27.04
8332,26.22
8344,24.49
8356,21.97
8368,18.94
8380,15.77
8392,12.84
8404,10.41
8415,8.63
8426,7.47
8438,6.83
8450,6.64
8462,6.84
8474,7.41
8486,8.26
8498,9.17
8510,9.8
8522,9.82
8534,9.06
8546,7.58
8558,5.66
8570,3.66
8582,1.84
8594,0.32
8605,-1.0
8616,-2.24
8628,-3.49
8640,-4.79
8652,-6.14
8664,-7.56
8676,-9.03
8688,-10.55
8700,-12.13
8712,-13.78
8724,-15.54
8736,-17.52
8748,-19.8
8760,-22.4
8772,-25.18
8784,-27.81
8795,-29.9
8806,-31.01
8818,-30.77
8830,-28.84
8842,-25.04
8854,-19.36
8866,-12.09
8878,-3.82
8890,4.66
8902,12.49
8914,19.01
8926,23.91
8938,27.22
8950,29.16
8962,29.96
8974,29.75
8985,28.53
8996,26.32
9008,23.22
9020,19.56
9032,15.75
9044,12.22
9056,9.33
9068,7.25
9080,6.02
9092,5.55
9104,5.76
9116,6.44
9128,7.41
9140,8.38
9152,9.07
9164,9.23
9175,8.77
9186,7.76
9198,6.38
9210,4.85
9222,3.34
9234,1.94
9246,0.62
9258,-0.7
9270,-2.13
9282,-3.73
9294,-5.54
9306,-7.59
9318,-9.83
9330,-12.22
9342,-14.62
9354,-16.93
9365,-19.11
9376,-21.22
9388,-23.4
9400,-25.77
9412,-28.41
9424,-31.23
9436,-33.95
9448,-36.14
9460,-37.18
9472,-36.52
9484,-33.7
9496,-28.56
9508,-21.32
9520,-12.6
9532,-3.26
9544,5.75
9555,13.63
9566,19.97
9578,24.64
9590,27.85
9602,29.78
9614,30.66
9626,30.58
9638,29.62
9650,27.9
9662,25.59
9674,23.0
9686,20.42
9698,18.1
9710,16.12
9722,14.54
9734,13.32
9745,12.42
9756,11.81
9768,11.39
9780,11.06
9792,10.65
9804,10.0
9816,8.98
9828,7.59
9840,5.93
9852,4.16
9864,2.46
9876,0.87
9888,-0.63
9900,-2.13
9912,-3.7
9924,-5.37
9935,-7.04
9946,-8.67
9958,-10.25
9970,-11.83
9982,-13.51
9994,-15.34
10006,-17.25
10018,-19.03
10030,-20.55
10042,-21.81
10054,-23.03
10066,-24.48
10078,-26.38
10090,-28.66
10102,-30.87
10114,-32.32
10125,-32.2
10136,-29.92
10148,-25.21
10160,-18.22
10172,-9.53
10184,0.01
10196,9.45
10208,17.93
10220,24.81
10232,29.7
10244,32.52
10256,33.35
10268,32.45
10280,30.14
10292,26.84
10304,22.98
10315,19.03
10326,15.35
10338,12.16
10350,9.55
10362,7.53
10374,6.11
10386,5.29
10398,5.07
10410,5.42
10422,6.21
10434,7.24
10446,8.3
10458,9.22
10470,9.85
10482,10.16
10494,10.08
10505,9.6
10516,8.7
10528,7.37
10540,5.66
10552,3.68
10564,1.52
10576,-0.82
10588,-3.32
10600,-6.08
10612,-9.13
10624,-12.42
10636,-15.78
10648,-18.96
10660,-21.7
10672,-23.86
10684,-25.55
10695,-26.95
10706,-28.35
10718,-29.94
10730,-31.7
10742,-33.28
10754,-34.1
10766,-33.42
10778,-30.65
10790,-25.47
10802,-18.09
10814,-9.17
10826,0.35
10838,9.51
10850,17.52
10862,23.96
10874,28.67
10885,31.66
10896,33.02
10908,32.83
10920,31.25
10932,28.53
10944,25.03
10956,21.16
10968,17.33
10980,13.91
10992,11.09
11004,9.02
11016,7.72
11028,7.15
11040,7.26
11052,7.94
11064,8.95
11075,10.03
11086,10.82
11098,10.99
11110,10.36
11122,8.98
11134,7.07
11146,4.93
11158,2.86
11170,1.0
11182,-0.67
11194,-2.26
11206,-3.96
11218,-5.89
11230,-8.15
11242,-10.72
11254,-13.56
11265,-16.58
11276,-19.69
11288,-22.79
11300,-25.82
11312,-28.77
11324,-31.6
11336,-34.24
11348,-36.49
11360,-37.99
11372,-38.32
11384,-37.0
11396,-33.6
11408,-27.97
11420,-20.31
11432,-11.18
11444,-1.45
11455,7.94
11466,16.24
11478,22.96
11490,27.98
11502,31.39
11514,33.36
11526,33.97
11538,33.28
11550,31.33
11562,28.37
11574,24.81
11586,21.25
11598,18.17
11610,15.83
11622,14.19
11634,13.0
11645,11.98
11656,11.02
11668,10.2
11680,9.69
11692,9.64
11704,10.0
11716,10.54
11728,10.91
11740,10.86
11752,10.29
11764,9.25
11776,7.86
11788,6.22
11800,4.34
11812,2.24
11824,-0.08
11835,-2.55
11846,-5.03
11858,-7.4
11870,-9.56
11882,-11.46
11894,-13.1
11906,-14.51
11918,-15.73
11930,-16.86
11942,-18.02
11954,-19.37
11966,-21.01
11978,-23.0
11990,-25.29
12002,-27.7
12014,-30.03
12025,-32.03
12036,-33.4
12048,-33.75
12060,-32.67
12072,-29.81
12084,-24.96
12096,-18.23
12108,-9.97
12120,-0.82
12132,8.41
12144,16.95
12156,24.14
12168,29.52
12180,32.88
12192,34.25
12204,33.83
12215,31.97
12226,29.09
12238,25.61
12250,21.91
12262,18.33
12274,15.12
12286,12.46
12298,10.46
12310,9.22
12322,8.76
12334,9.03
12346,9.91
12358,11.16
12370,12.46
12382,13.47
12394,13.94
12405,13.72
12416,12.83
12428,11.39
12440,9.53
12452,7.36
12464,4.96
12476,2.36
12488,-0.38
12500,-3.16
12512,-5.92
12524,-8.58
12536,-11.14
12548,-13.59
12560,-15.95
12572,-18.19
12584,-20.29
12595,-22.24
12606,-24.04
12618,-25.75
12630,-27.4
12642,-29.01
12654,-30.45
12666,-31.49
12678,-31.74
12690,-30.76
12702,-28.11
12714,-23.51
12726,-17.02
12738,-9.05
12750,-0.41
12762,7.97
12774,15.18
12785,20.63
12796,24.11
12808,25.83
12820,26.21
12832,25.66
12844,24.45
12856,22.7
12868,20.44
12880,17.73
12892,14.79
12904,11.96
12916,9.63
12928,8.09
12940,7.46
12952,7.66
12964,8.48
12975,9.66
12986,10.94
12998,12.1
13010,12.98
13022,13.38
13034,13.13
13046,12.06
13058,10.1
13070,7.33
13082,4.07
13094,0.79
13106,-2.08
13118,-4.25
13130,-5.72
13142,-6.72
13154,-7.63
13165,-8.73
13176,-10.12
13188,-11.69
13200,-13.18
13212,-14.4
13224,-15.32
13236,-16.1
13248,-17.0
13260,-18.29
13272,-20.16
13284,-22.6
13296,-25.53
13308,-28.68
13320,-31.67
13332,-34.09
13344,-35.4
13355,-35.05
13366,-32.58
13378,-27.76
13390,-20.73
13402,-12.14
13414,-2.86
13426,6.1
13438,13.95
13450,20.22
13462,24.75
13474,27.65
13486,29.09
13498,29.27
13510,28.36
13522,26.6
13534,24.23
13545,21.54
13556,18.79
13568,16.19
13580,13.88
13592,11.97
13604,10.55
13616,9.67
13628,9.34
13640,9.5
13652,9.98
13664,10.56
13676,10.99
13688,11.01
13700,10.44
13712,9.19
13724,7.25
13735,4.8
13746,2.07
13758,-0.61
13770,-2.99
13782,-4.99
13794,-6.71
13806,-8.36
13818,-10.17
13830,-12.22
13842,-14.42
13854,-16.57
13866,-18.53
13878,-20.25
13890,-21.87
13902,-23.59
13914,-25.57
13925,-27.82
13936,-30.17
13948,-32.28
13960,-33.67
13972,-33.81
13984,-32.17
13996,-28.39
14008,-22.44
14020,-14.6
14032,-5.62
14044,3.59
14056,12.11
14068,19.22
14080,24.6
14092,28.25
14104,30.36
14115,31.23
14126,31.09
14138,30.1
14150,28.42
14162,26.21
14174,23.72
14186,21.23
14198,18.96
14210,17.03
14222,15.47
14234,14.19
14246,13.13
14258,12.27
14270,11.65
14282,11.3
14294,11.18
14305,11.08
14316,10.76
14328,9.96
14340,8.55
14352,6.55
14364,4.22
14376,1.84
14388,-0.35
14400,-2.21
14412,-3.82
14424,-5.37
14436,-7.07
14448,-9.07
14460,-11.37
14472,-13.83
14484,-16.2
14495,-18.31
14506,-20.07
14518,-21.56
14530,-22.94
14542,-24.37
14554,-25.98
14566,-27.77
14578,-29.6
14590,-31.17
14602,-32.05
14614,-31.68
14626,-29.62
14638,-25.63
14650,-19.78
14662,-12.44
14674,-4.26
14685,4.03
14696,11.69
14708,18.13
14720,22.97
14732,26.04
14744,27.43
14756,27.45
14768,26.47
14780,24.9
14792,22.98
14804,20.81
14816,18.46
14828,15.99
14840,13.61
14852,11.59
14864,10.19
14875,9.56
14886,9.69
14898,10.4
14910,11.44
14922,12.55
14934,13.44
14946,13.87
14958,13.67
14970,12.73
14982,11.08
14994,8.82
15006,6.17
15018,3.36
15030,0.63
15042,-1.82
15054,-3.93
15065,-5.77
15076,-7.5
15088,-9.34
15100,-11.43
15112,-13.75
15124,-16.14
15136,-18.34
15148,-20.17
15160,-21.56
15172,-22.76
15184,-24.07
15196,-25.76
15208,-27.87
15220,-30.1
15232,-31.89
15244,-32.5
15255,-31.31
15266,-27.87
15278,-22.2
15290,-14.73
15302,-6.17
15314,2.6
15326,10.77
15338,17.78
15350,23.27
15362,27.17
15374,29.53
15386,30.45
15398,30.06
15410,28.5
15422,25.97
15434,22.73
15445,19.15
15456,15.6
15468,12.41
15480,9.85
15492,8.06
15504,7.11
15516,6.99
15528,7.6
15540,8.79
15552,10.29
15564,11.75
15576,12.81
15588,13.2
15600,12.83
15612,11.74
15624,10.08
15635,7.99
15646,5.6
15658,2.96
15670,0.15
15682,-2.72
15694,-5.52
15706,-8.14
15718,-10.55
15730,-12.86
15742,-15.16
15754,-17.49
15766,-19.81
15778,-21.97
15790,-23.86
15802,-25.48
15814,-26.98
15825,-28.58
15836,-30.4
15848,-32.31
15860,-33.81
15872,-34.23
15884,-32.86
15896,-29.27
15908,-23.41
15920,-15.71
15932,-6.92
15944,2.08
15956,10.51
15968,17.79
15980,23.61
15992,27.9
16004,30.71
16015,32.1
16026,32.14
16038,30.93
16050,28.66
16062,25.7
16074,22.48
16086,19.46
16098,16.97
16110,15.2
16122,14.12
16134,13.62
16146,13.54
16158,13.73
16170,14.05
16182,14.36
16194,14.55
16205,14.5
16216,14.14
16228,13.42
16240,12.31
16252,10.83
16264,9.0
16276,6.87
16288,4.51
16300,2.04
16312,-0.39
16324,-2.68
16336,-4.82
16348,-6.88
16360,-9.03
16372,-11.38
16384,-13.97
16395,-16.61
16406,-19.02
16418,-20.89
16430,-22.07
16442,-22.66
16454,-22.94
16466,-23.3
16478,-24.07
16490,-25.4
16502,-27.19
16514,-29.19
16526,-30.95
16538,-31.9
16550,-31.49
16562,-29.22
16574,-24.87
16585,-18.61
16596,-11.0
16608,-2.78
16620,5.23
16632,12.32
16644,18.1
16656,22.39
16668,25.29
16680,26.97
16692,27.66
16704,27.54
16716,26.73
16728,25.28
16740,23.24
16752,20.81
16764,18.23
16775,15.84
16786,14.01
16798,12.93
16810,12.65
16822,12.96
16834,13.54
16846,14.03
16858,14.23
16870,14.02
16882,13.45
16894,12.59
16906,11.44
16918,9.95
16930,8.0
16942,5.59
16954,2.84
16965,0.06
16976,-2.45
16988,-4.5
17000,-6.1
17012,-7.55
17024,-9.15
17036,-11.13
17048,-13.44
17060,-15.82
17072,-17.88
17084,-19.36
17096,-20.32
17108,-21.04
17120,-22.03
17132,-23.65
17144,-26.07
17155,-29.05
17166,-32.05
17178,-34.35
17190,-35.28
17202,-34.36
17214,-31.37
17226,-26.41
17238,-19.81
17250,-12.06
17262,-3.77
17274,4.41
17286,11.89
17298,18.1
17310,22.67
17322,25.46
17334,26.57
17345,26.3
17356,25.05
17368,23.15
17380,20.85
17392,18.24
17404,15.44
17416,12.51
17428,9.7
17440,7.24
17452,5.32
17464,4.08
17476,3.47
17488,3.41
17500,3.75
17512,4.36
17524,5.1
17535,5.85
17546,6.38
17558,6.45
17570,5.84
17582,4.41
17594,2.23
17606,-0.48
17618,-3.37
17630,-6.13
17642,-8.53
17654,-10.57
17666,-12.38
17678,-14.18
17690,-16.21
17702,-18.58
17714,-21.27
17725,-24.04
17736,-26.55
17748,-28.28
17760,-28.72
17772,-27.39
17784,-23.95
17796,-18.41
17808,-11.12
17820,-2.79
17832,5.66
17844,13.29
17856,19.4
17868,23.66
17880,26.08
17892,26.97
17904,26.7
17915,25.6
17926,23.91
17938,21.76
17950,19.33
17962,16.85
17974,14.63
17986,12.97
17998,12.05
18010,11.88
18022,12.26
18034,12.93
18046,13.56
18058,13.94
18070,13.92
18082,13.47
18094,12.58
18105,11.33
18116,9.79
18128,8.03
18140,6.14
18152,4.16
18164,2.11
18176,0.03
18188,-2.04
18200,-4.04
18212,-5.9
18224,-7.57
18236,-9.08
18248,-10.49
18260,-11.92
18272,-13.47
18284,-15.13
18295,-16.85
18306,-18.51
18318,-20.04
18330,-21.45
18342,-22.89
18354,-24.51
18366,-26.47
18378,-28.79
18390,-31.3
18402,-33.67
18414,-35.39
18426,-35.85
18438,-34.46
18450,-30.87
18462,-25.05
18474,-17.44
18485,-8.79
18496,-0.0
18508,8.08
18520,14.96
18532,20.42
18544,24.49
18556,27.33
18568,29.03
18580,29.64
18592,29.2
18604,27.85
18616,25.82
18628,23.44
18640,21.01
18652,18.78
18664,16.87
18675,15.31
18686,14.05
18698,13.09
18710,12.45
18722,12.18
18734,12.28
18746,12.65
18758,13.0
18770,13.01
18782,12.35
18794,10.87
18806,8.62
18818,5.87
18830,2.92
18842,0.1
18854,-2.44
18865,-4.69
18876,-6.74
18888,-8.72
18900,-10.68
18912,-12.66
18924,-14.58
18936,-16.4
18948,-18.06
18960,-19.56
18972,-21.07
18984,-22.8
18996,-24.92
19008,-27.45
19020,-30.09
19032,-32.27
19044,-33.3
19055,-32.48
19066,-29.42
19078,-24.17
19090,-17.13
19102,-9.01
19114,-0.61
19126,7.35
19138,14.29
19150,19.83
19162,23.76
19174,25.97
19186,26.51
19198,25.59
19210,23.54
19222,20.83
19234,17.9
19245,15.1
19256,12.63
19268,10.61
19280,9.06
19292,8.02
19304,7.58
19316,7.77
19328,8.47
19340,9.44
19352,10.33
19364,10.82
19376,10.75
19388,10.1
19400,9.01
19412,7.58
19424,5.85
19435,3.81
19446,1.44
19458,-1.21
19470,-3.98
19482,-6.69
19494,-9.17
19506,-11.35
19518,-13.19
19530,-14.79
19542,-16.24
19554,-17.74
19566,-19.47
19578,-21.58
19590,-24.06
19602,-26.68
19614,-29.07
19625,-30.74
19636,-31.21
19648,-30.12
19660,-27.24
19672,-22.49
19684,-16.05
19696,-8.28
19708,0.21
19720,8.66
19732,16.33
19744,22.61
19756,27.2
19768,30.06
19780,31.41
19792,31.54
19804,30.73
19815,29.22
19826,27.13
19838,24.61
19850,21.8
19862,18.93
19874,16.23
19886,13.92
19898,12.14
19910,10.88
19922,10.04
19934,9.44
19946,8.94
19958,8.42
19970,7.82
19982,7.1
19994,6.25
20005,5.25
20016,4.12
20028,2.88
20040,1.56
20052,0.16
20064,-1.37
20076,-3.12
20088,-5.15
20100,-7.49
20112,-10.13
20124,-12.99
20136,-15.89
20148,-18.62
20160,-21.01
20172,-22.97
20184,-24.6
20195,-26.12
20206,-27.8
20218,-29.85
20230,-32.25
20242,-34.65
20254,-36.44
20266,-36.89
20278,-35.36
20290,-31.54
20302,-25.53
20314,-17.73
20326,-8.92
20338,0.09
20350,8.5
20362,15.69
20374,21.27
20385,25.18
20396,27.55
20408,28.63
20420,28.75
20432,28.15
20444,26.98
20456,25.35
20468,23.34
20480,21.12
20492,18.9
20504,16.87
20516,15.16
20528,13.83
20540,12.91
20552,12.38
20564,12.26
20575,12.46
20586,12.89
20598,13.39
20610,13.73
20622,13.7
20634,13.21
20646,12.17
20658,10.64
20670,8.77
20682,6.65
20694,4.45
20706,2.23
20718,-0.03
20730,-2.36
20742,-4.79
20754,-7.36
20765,-9.96
20776,-12.4
20788,-14.49
20800,-16.03
20812,-16.98
20824,-17.51
20836,-17.99
20848,-18.86
20860,-20.49
20872,-23.02
20884,-26.3
20896,-29.93
20908,-33.37
20920,-36.01
20932,-37.25
20944,-36.58
20955,-33.63
20966,-28.26
20978,-20.72
20990,-11.64
