seconds,BVP
5,4.54
17,-3.9
29,-8.46
41,-8.37
53,-4.37
65,1.92
77,8.89
89,15.37
101,20.76
113,24.71
125,26.84
136,26.76
147,24.29
159,19.78
171,14.33
183,9.63
195,7.43
207,8.98
219,14.56
231,23.4
243,34.06
255,45.02
267,55.25
279,64.43
291,72.6
303,79.6
315,84.55
326,85.85
337,81.75
349,71.15
361,54.39
373,33.28
385,10.58
397,-10.86
409,-28.93
421,-42.67
433,-52.04
445,-57.53
457,-59.6
469,-58.46
481,-54.1
493,-46.49
505,-35.88
516,-22.97
527,-8.92
539,4.85
551,16.86
563,25.82
575,30.97
587,32.18
599,30.06
611,25.83
623,21.06
635,17.22
647,15.29
659,15.45
671,17.21
683,19.68
695,22.14
706,24.36
717,26.72
729,29.94
741,34.72
753,41.44
765,50.01
777,59.9
789,70.26
801,80.06
813,88.27
825,94.24
837,97.97
849,100.36
861,103.06
873,107.89
885,116.11
896,127.78
907,141.55
919,155.02
931,165.52
943,170.97
955,170.49
967,164.62
979,155.08
991,144.24
1003,134.37
1015,127.13
1027,123.28
1039,122.76
1051,125.07
1063,129.6
1075,135.73
1086,142.67
1097,149.12
1109,153.26
1121,153.1
1133,147.23
1145,135.51
1157,119.2
1169,100.5
1181,81.58
1193,63.8
1205,47.5
1217,32.39
1229,18.09
1241,4.58
1253,-7.93
1265,-19.33
1276,-29.96
1287,-40.52
1299,-51.7
1311,-63.67
1323,-75.82
1335,-86.93
1347,-95.65
1359,-101.0
1371,-102.64
1383,-100.87
1395,-96.44
1407,-90.24
1419,-83.15
1431,-75.92
1443,-69.15
1455,-63.24
1466,-58.39
1477,-54.54
1489,-51.45
1501,-48.87
1513,-46.84
1525,-46.07
1537,-47.96
1549,-54.3
1561,-66.5
1573,-84.78
1585,-107.86
1597,-133.08
1609,-157.37
1621,-178.09
1633,-193.74
1645,-203.85
1656,-208.61
1667,-208.45
1679,-203.89
1691,-195.64
1703,-184.79
1715,-172.66
1727,-160.36
1739,-148.23
1751,-135.67
1763,-121.5
1775,-104.6
1787,-84.64
1799,-62.32
1811,-39.16
1823,-16.83
1835,3.5
1846,21.45
1857,37.43
1869,52.13
1881,66.07
1893,79.1
1905,90.53
1917,99.41
1929,105.08
1941,107.54
1953,107.44
1965,105.81
1977,103.67
1989,101.89
2001,101.07
2013,101.67
2025,103.94
2036,107.73
2047,112.26
2059,116.02
2071,117.03
2083,113.3
2095,103.5
2107,87.36
2119,65.79
2131,40.76
2143,14.77
2155,-9.6
2167,-30.21
2179,-45.79
2191,-56.11
2203,-62.0
2215,-65.0
2226,-66.94
2237,-69.46
2249,-73.63
2261,-79.62
2273,-86.77
2285,-93.8
2297,-99.3
2309,-102.22
2321,-102.33
2333,-100.3
2345,-97.4
2357,-95.01
2369,-93.98
2381,-94.37
2393,-95.31
2405,-95.45
2416,-93.35
2427,-87.96
2439,-78.83
2451,-66.14
2463,-50.57
2475,-33.12
2487,-14.86
2499,3.1
2511,19.74
2523,34.11
2535,45.48
2547,53.37
2559,57.76
2571,58.98
2583,57.72
2595,54.85
2606,51.12
2617,47.13
2629,43.26
2641,39.62
2653,36.26
2665,33.09
2677,30.02
2689,26.96
2701,23.82
2713,20.52
2725,16.98
2737,13.13
2749,9.0
2761,4.73
2773,0.58
2785,-3.11
2796,-6.08
2807,-8.2
2819,-9.65
2831,-10.77
2843,-12.0
2855,-13.79
2867,-16.32
2879,-19.65
2891,-23.59
2903,-27.88
2915,-32.26
2927,-36.52
2939,-40.54
2951,-44.35
2963,-48.09
2975,-51.94
2986,-56.09
2997,-60.53
3009,-64.98
3021,-68.85
3033,-71.39
3045,-71.88
3057,-69.95
3069,-65.73
3081,-59.79
3093,-53.02
3105,-46.23
3117,-39.99
3129,-34.56
3141,-30.01
3153,-26.37
3165,-23.8
3176,-22.48
3187,-22.55
3199,-23.88
3211,-26.07
3223,-28.61
3235,-31.12
3247,-33.56
3259,-36.25
3271,-39.73
3283,-44.57
3295,-51.1
3307,-59.38
3319,-69.2
3331,-80.06
3343,-91.17
3355,-101.44
3366,-109.44
3377,-113.71
3389,-113.15
3401,-107.42
3413,-97.13
3425,-83.63
3437,-68.54
3449,-53.19
3461,-38.3
3473,-24.21
3485,-11.13
3497,0.45
3509,9.87
3521,16.59
3533,20.56
3545,22.4
3556,23.17
3567,23.83
3579,24.73
3591,25.39
3603,24.81
3615,22.01
3627,16.52
3639,8.82
3651,0.1
3663,-8.13
3675,-14.65
3687,-18.96
3699,-21.38
3711,-22.77
3723,-24.01
3735,-25.45
3746,-26.68
3757,-26.77
3769,-24.82
3781,-20.57
3793,-14.67
3805,-8.39
3817,-3.07
3829,0.6
3841,2.83
3853,4.57
3865,6.98
3877,10.88
3889,16.34
3901,22.79
3913,29.28
3925,35.01
3936,39.59
3947,43.21
3959,46.49
3971,50.17
3983,54.64
3995,59.77
4007,64.79
4019,68.64
4031,70.39
4043,69.59
4055,66.38
4067,61.21
4079,54.58
4091,46.75
4103,37.76
4115,27.68
4126,16.76
4137,5.52
4149,-5.48
4161,-15.88
4173,-25.65
4185,-35.04
4197,-44.43
4209,-54.07
4221,-64.02
4233,-74.16
4245,-84.2
4257,-93.65
4269,-101.79
4281,-107.67
4293,-110.3
4305,-108.97
4316,-103.48
4327,-94.3
4339,-82.39
4351,-68.96
4363,-55.09
4375,-41.56
4387,-28.89
4399,-17.4
4411,-7.37
4423,1.02
4435,7.77
4447,13.07
4459,17.29
4471,20.76
4483,23.69
4495,26.1
4506,27.92
4517,29.18
4529,30.07
4541,30.94
4553,32.05
4565,33.51
4577,35.1
4589,36.49
4601,37.33
4613,37.48
4625,37.05
4637,36.23
4649,35.17
4661,33.87
4673,32.16
4685,29.83
4696,26.79
4707,23.11
4719,19.02
4731,14.8
4743,10.7
4755,6.82
4767,3.13
4779,-0.51
4791,-4.27
4803,-8.35
4815,-12.9
4827,-18.04
4839,-23.74
4851,-29.74
4863,-35.51
4875,-40.21
4886,-42.93
4897,-42.84
4909,-39.45
4921,-32.78
4933,-23.38
4945,-12.14
4957,-0.19
4969,11.41
4981,21.8
4993,30.36
5005,36.76
5017,40.96
5029,43.11
5041,43.44
5053,42.28
5065,40.03
5076,37.14
5087,34.12
5099,31.43
5111,29.41
5123,28.13
5135,27.42
5147,27.01
5159,26.65
5171,26.28
5183,25.96
5195,25.84
5207,25.89
5219,25.96
5231,25.74
5243,24.96
5255,23.45
5266,21.22
5277,18.39
5289,15.11
5301,11.54
5313,7.8
5325,4.02
5337,0.24
5349,-3.56
5361,-7.53
5373,-11.94
5385,-17.09
5397,-23.14
5409,-29.99
5421,-37.19
5433,-43.91
5445,-49.02
5456,-51.41
5467,-50.18
5479,-44.92
5491,-35.87
5503,-23.84
5515,-10.06
5527,4.18
5539,17.72
5551,29.66
5563,39.43
5575,46.73
5587,51.51
5599,53.92
5611,54.24
5623,52.91
5635,50.46
5646,47.49
5657,44.57
5669,42.12
5681,40.34
5693,39.23
5705,38.63
5717,38.31
5729,38.05
5741,37.72
5753,37.24
5765,36.58
5777,35.66
5789,34.42
5801,32.76
5813,30.58
5825,27.82
5836,24.48
5847,20.57
5859,16.15
5871,11.37
5883,6.36
5895,1.31
5907,-3.65
5919,-8.5
5931,-13.3
5943,-18.28
5955,-23.76
5967,-30.07
5979,-37.36
5991,-45.47
6003,-53.75
6015,-61.09
6026,-66.0
6037,-66.98
6049,-63.0
6061,-53.83
6073,-40.22
6085,-23.71
6097,-6.23
6109,10.42
6121,24.98
6133,36.85
6145,45.99
6157,52.65
6169,57.14
6181,59.69
6193,60.43
6205,59.61
6216,57.57
6227,54.83
6239,51.91
6251,49.31
6263,47.32
6275,46.04
6287,45.4
6299,45.24
6311,45.36
6323,45.64
6335,45.92
6347,46.03
6359,45.75
6371,44.83
6383,43.08
6395,40.41
6406,36.87
6417,32.62
6429,27.85
6441,22.73
6453,17.37
6465,11.83
6477,6.21
6489,0.63
6501,-4.74
6513,-9.82
6525,-14.61
6537,-19.36
6549,-24.43
6561,-30.21
6573,-36.97
6585,-44.62
6596,-52.65
6607,-60.1
6619,-65.68
6631,-68.02
6643,-66.04
6655,-59.25
6667,-47.93
6679,-33.07
6691,-16.15
6703,1.22
6715,17.6
6727,32.0
6739,43.84
6751,52.9
6763,59.19
6775,62.87
6786,64.23
6797,63.66
6809,61.7
6821,58.95
6833,56.0
6845,53.27
6857,50.95
6869,49.08
6881,47.61
6893,46.5
6905,45.78
6917,45.5
6929,45.6
6941,45.84
6953,45.76
6965,44.91
6976,42.96
6987,39.91
6999,36.01
7011,31.71
7023,27.4
7035,23.26
7047,19.25
7059,15.15
7071,10.79
7083,6.14
7095,1.36
7107,-3.33
7119,-7.71
7131,-11.73
7143,-15.51
7155,-19.33
7166,-23.49
7177,-28.25
7189,-33.78
7201,-40.11
7213,-47.0
7225,-53.87
7237,-59.73
7249,-63.34
7261,-63.45
7273,-59.25
7285,-50.67
7297,-38.51
7309,-24.12
7321,-9.11
7333,5.14
7345,17.72
7356,28.15
7367,36.32
7379,42.24
7391,46.02
7403,47.8
7415,47.83
7427,46.53
7439,44.45
7451,42.19
7463,40.24
7475,38.89
7487,38.19
7499,37.96
7511,37.94
7523,37.91
7535,37.74
7546,37.4
7557,36.86
7569,36.04
7581,34.72
7593,32.68
7605,29.8
7617,26.17
7629,22.1
7641,17.99
7653,14.15
7665,10.7
7677,7.45
7689,4.09
7701,0.27
7713,-4.18
7725,-9.16
7736,-14.34
7747,-19.3
7759,-23.71
7771,-27.47
7783,-30.75
7795,-33.97
7807,-37.6
7819,-42.02
7831,-47.26
7843,-52.99
7855,-58.38
7867,-62.28
7879,-63.44
7891,-60.86
7903,-54.14
7915,-43.59
7926,-30.26
7937,-15.66
7949,-1.28
7961,11.62
7973,22.3
7985,30.46
7997,36.1
8009,39.34
8021,40.39
8033,39.49
8045,37.04
8057,33.57
8069,29.76
8081,26.28
8093,23.67
8105,22.19
8116,21.87
8127,22.46
8139,23.61
8151,24.95
8163,26.2
8175,27.14
8187,27.61
8199,27.47
8211,26.62
8223,25.0
8235,22.67
8247,19.74
8259,16.36
8271,12.62
8283,8.55
8295,4.16
8306,-0.45
8317,-5.12
8329,-9.64
8341,-13.91
8353,-18.01
8365,-22.14
8377,-26.62
8389,-31.67
8401,-37.35
8413,-43.54
8425,-49.91
8437,-55.92
8449,-60.84
8461,-63.79
8473,-63.85
8485,-60.3
8496,-52.9
8507,-42.04
8519,-28.72
8531,-14.31
8543,-0.24
8555,12.35
8567,22.69
8579,30.47
8591,35.68
8603,38.52
8615,39.36
8627,38.64
8639,36.89
8651,34.62
8663,32.33
8675,30.38
8686,29.02
8697,28.26
8709,28.04
8721,28.17
8733,28.46
8745,28.75
8757,28.93
8769,28.95
8781,28.71
8793,28.09
8805,26.86
8817,24.84
8829,21.91
8841,18.2
8853,13.97
8865,9.6
8876,5.37
8887,1.34
8899,-2.56
8911,-6.53
8923,-10.7
8935,-15.06
8947,-19.48
8959,-23.71
8971,-27.59
8983,-31.03
8995,-34.14
9007,-37.18
9019,-40.57
9031,-44.72
9043,-49.9
9055,-56.0
9066,-62.42
9077,-68.03
9089,-71.5
9101,-71.57
9113,-67.51
9125,-59.35
9137,-47.79
9149,-34.08
9161,-19.61
9173,-5.65
9185,6.82
9197,17.25
9209,25.36
9221,31.18
9233,34.88
9245,36.74
9256,37.08
9267,36.25
9279,34.67
9291,32.73
9303,30.81
9315,29.27
9327,28.36
9339,28.13
9351,28.47
9363,29.16
9375,29.93
9387,30.59
9399,31.06
9411,31.33
9423,31.36
9435,31.03
9446,30.16
9457,28.51
9469,26.0
9481,22.7
9493,18.89
9505,14.98
9517,11.31
9529,8.02
9541,5.01
9553,1.97
9565,-1.43
9577,-5.4
9589,-9.93
9601,-14.79
9613,-19.65
9625,-24.24
9636,-28.39
9647,-32.16
9659,-35.69
9671,-39.24
9683,-43.04
9695,-47.27
9707,-51.96
9719,-56.9
9731,-61.53
9743,-65.02
9755,-66.35
9767,-64.62
9779,-59.34
9791,-50.63
9803,-39.19
9815,-26.21
9826,-12.94
9837,-0.48
9849,10.44
9861,19.48
9873,26.56
9885,31.69
9897,34.99
9909,36.58
9921,36.69
9933,35.7
9945,34.09
9957,32.33
9969,30.81
9981,29.76
9993,29.23
10005,29.13
10016,29.32
10027,29.62
10039,29.9
10051,30.03
10063,29.89
10075,29.42
10087,28.59
10099,27.4
10111,25.88
10123,24.04
10135,21.91
10147,19.48
10159,16.76
10171,13.73
10183,10.46
10195,7.05
10206,3.68
10217,0.49
10229,-2.46
10241,-5.27
10253,-8.11
10265,-11.17
10277,-14.45
10289,-17.84
10301,-21.1
10313,-24.06
10325,-26.7
10337,-29.25
10349,-32.05
10361,-35.44
10373,-39.66
10385,-44.74
10396,-50.49
10407,-56.5
10419,-62.1
10431,-66.4
10443,-68.38
10455,-67.15
10467,-62.24
10479,-53.82
10491,-42.68
10503,-30.08
10515,-17.36
10527,-5.65
10539,4.4
10551,12.52
10563,18.72
10575,23.1
10586,25.76
10597,26.82
10609,26.46
10621,24.98
10633,22.81
10645,20.38
10657,18.07
10669,16.13
10681,14.63
10693,13.49
10705,12.54
10717,11.53
10729,10.25
10741,8.6
10753,6.66
10765,4.68
10776,3.07
10787,2.18
10799,2.17
10811,2.99
10823,4.34
10835,5.9
10847,7.35
10859,8.53
10871,9.29
10883,9.49
10895,9.0
10907,7.83
10919,6.34
10931,5.15
10943,4.95
10955,6.06
10966,8.21
10977,10.45
10989,11.44
11001,9.96
11013,5.34
11025,-2.28
11037,-11.98
11049,-22.34
11061,-31.65
11073,-38.38
11085,-41.34
11097,-39.92
11109,-34.23
11121,-25.05
11133,-13.63
11145,-1.38
11156,10.47
11167,21.07
11179,30.04
11191,37.31
11203,42.99
11215,47.18
11227,49.97
11239,51.46
11251,51.86
11263,51.48
11275,50.7
11287,49.9
11299,49.31
11311,49.02
11323,49.01
11335,49.14
11346,49.28
11357,49.24
11369,48.83
11381,47.77
11393,45.8
11405,42.67
11417,38.24
11429,32.53
11441,25.71
11453,18.08
11465,10.0
11477,1.77
11489,-6.39
11501,-14.4
11513,-22.25
11525,-29.97
11536,-37.57
11547,-44.95
11559,-51.91
11571,-58.21
11583,-63.6
11595,-67.96
11607,-71.3
11619,-73.89
11631,-76.16
11643,-78.58
11655,-81.61
11667,-85.4
11679,-89.68
11691,-93.71
11703,-96.38
11715,-96.47
11726,-93.09
11737,-85.88
11749,-75.23
11761,-62.14
11773,-47.92
11785,-33.84
11797,-20.84
11809,-9.45
11821,0.17
11833,8.06
11845,14.32
11857,19.09
11869,22.56
11881,24.94
11893,26.48
11905,27.42
11916,27.98
11927,28.37
11939,28.78
11951,29.37
11963,30.27
11975,31.47
11987,32.84
11999,34.2
12011,35.32
12023,36.04
12035,36.27
12047,35.99
12059,35.16
12071,33.67
12083,31.45
12095,28.45
12106,24.79
12117,20.73
12129,16.61
12141,12.71
12153,9.11
12165,5.69
12177,2.22
12189,-1.58
12201,-5.78
12213,-10.25
12225,-14.64
12237,-18.61
12249,-21.94
12261,-24.71
12273,-27.25
12285,-30.02
12296,-33.53
12307,-38.12
12319,-43.87
12331,-50.43
12343,-57.05
12355,-62.62
12367,-65.87
12379,-65.74
12391,-61.6
12403,-53.5
12415,-42.2
12427,-28.97
12439,-15.26
12451,-2.38
12463,8.76
12475,17.71
12486,24.48
12497,29.27
12509,32.36
12521,34.02
12533,34.46
12545,33.98
12557,32.96
12569,31.85
12581,31.04
12593,30.71
12605,30.79
12617,31.06
12629,31.3
12641,31.44
12653,31.61
12665,31.99
12676,32.64
12687,33.37
12699,33.75
12711,33.32
12723,31.7
12735,28.83
12747,24.97
12759,20.6
12771,16.26
12783,12.31
12795,8.85
12807,5.7
12819,2.49
12831,-1.11
12843,-5.25
12855,-9.77
12866,-14.33
12877,-18.52
12889,-22.07
12901,-24.97
12913,-27.48
12925,-30.1
12937,-33.35
12949,-37.68
12961,-43.22
12973,-49.67
12985,-56.27
12997,-61.84
13009,-65.04
13021,-64.68
13033,-60.15
13045,-51.59
13056,-39.83
13067,-26.2
13079,-12.1
13091,1.32
13103,13.28
13115,23.35
13127,31.29
13139,37.03
13151,40.52
13163,41.89
13175,41.48
13187,39.8
13199,37.51
13211,35.21
13223,33.36
13235,32.15
13246,31.55
13257,31.4
13269,31.49
13281,31.67
13293,31.8
13305,31.81
13317,31.6
13329,31.0
13341,29.87
13353,28.1
13365,25.69
13377,22.72
13389,19.33
13401,15.7
13413,11.98
13425,8.3
13436,4.71
13447,1.12
13459,-2.64
13471,-6.8
13483,-11.48
13495,-16.59
13507,-21.8
13519,-26.7
13531,-30.98
13543,-34.67
13555,-38.18
13567,-42.17
13579,-47.27
13591,-53.76
13603,-61.36
13615,-69.18
13626,-75.86
13637,-79.87
13649,-79.89
13661,-75.16
13673,-65.78
13685,-52.69
13697,-37.42
13709,-21.66
13721,-6.89
13733,5.96
13745,16.58
13757,25.01
13769,31.43
13781,35.95
13793,38.59
13805,39.43
13816,38.71
13827,36.91
13839,34.62
13851,32.43
13863,30.71
13875,29.57
13887,28.94
13899,28.72
13911,28.81
13923,29.19
13935,29.72
13947,30.17
13959,30.18
13971,29.37
13983,27.46
13995,24.4
14006,20.33
14017,15.53
14029,10.24
14041,4.69
14053,-0.97
14065,-6.64
14077,-12.29
14089,-17.9
14101,-23.53
14113,-29.23
14125,-34.94
14137,-40.35
14149,-44.93
14161,-47.96
14173,-48.8
14185,-47.1
14196,-42.96
14207,-36.89
14219,-29.66
14231,-22.1
14243,-15.01
14255,-9.14
14267,-5.16
14279,-3.51
14291,-4.29
14303,-6.95
14315,-10.29
14327,-12.68
14339,-12.53
14351,-8.84
14363,-1.51
14375,8.66
14386,20.21
14397,31.61
14409,41.67
14421,49.78
14433,55.92
14445,60.38
14457,63.49
14469,65.45
14481,66.27
14493,65.9
14505,64.38
14517,61.89
14529,58.83
14541,55.6
14553,52.52
14565,49.77
14576,47.39
14587,45.4
14599,43.82
14611,42.64
14623,41.79
14635,41.03
14647,40.01
14659,38.4
14671,35.96
14683,32.66
14695,28.65
14707,24.15
14719,19.43
14731,14.71
14743,10.17
14755,5.97
14766,2.19
14777,-1.15
14789,-4.19
14801,-7.16
14813,-10.33
14825,-13.89
14837,-17.89
14849,-22.18
14861,-26.5
14873,-30.59
14885,-34.34
14897,-37.81
14909,-41.23
14921,-44.94
14933,-49.28
14945,-54.51
14956,-60.71
14967,-67.67
14979,-74.75
14991,-80.9
15003,-84.8
15015,-85.16
15027,-81.09
15039,-72.44
15051,-59.87
15063,-44.72
15075,-28.59
15087,-12.98
15099,1.07
15111,12.96
15123,22.54
15135,29.86
15146,35.04
15157,38.15
15169,39.37
15181,38.98
15193,37.44
15205,35.39
15217,33.4
15229,31.9
15241,31.02
15253,30.64
15265,30.57
15277,30.6
15289,30.62
15301,30.56
15313,30.29
15325,29.61
15336,28.29
15347,26.23
15359,23.48
15371,20.32
15383,17.03
15395,13.9
15407,10.98
15419,8.18
15431,5.3
15443,2.15
15455,-1.4
15467,-5.36
15479,-9.65
15491,-14.11
15503,-18.58
15515,-22.97
15526,-27.26
15537,-31.58
15549,-36.16
15561,-41.23
15573,-46.91
15585,-52.98
15597,-58.8
15609,-63.3
15621,-65.22
15633,-63.49
15645,-57.58
15657,-47.77
15669,-35.09
15681,-21.03
15693,-7.11
15705,5.5
15716,16.13
15727,24.53
15739,30.75
15751,34.89
15763,37.11
15775,37.64
15787,36.84
15799,35.19
15811,33.2
15823,31.36
15835,29.95
15847,29.08
15859,28.7
15871,28.65
15883,28.79
15895,29.05
15906,29.4
15917,29.84
15929,30.28
15941,30.45
15953,30.0
15965,28.6
15977,26.09
15989,22.64
16001,18.63
16013,14.51
16025,10.59
16037,6.87
16049,3.09
16061,-1.09
16073,-5.85
16085,-11.13
16096,-16.61
16107,-21.88
16119,-26.63
16131,-30.71
16143,-34.2
16155,-37.35
16167,-40.57
16179,-44.33
16191,-49.07
16203,-54.9
16215,-61.44
16227,-67.64
16239,-72.02
16251,-73.06
16263,-69.75
16275,-61.97
16286,-50.58
16297,-37.08
16309,-23.12
16321,-10.06
16333,1.33
16345,10.8
16357,18.39
16369,24.23
16381,28.42
16393,31.07
16405,32.39
16417,32.69
16429,32.39
16441,31.94
16453,31.62
16465,31.56
16476,31.69
16487,31.89
16499,32.05
16511,32.16
16523,32.3
16535,32.54
16547,32.85
16559,33.06
16571,32.91
16583,32.02
16595,30.13
16607,27.17
16619,23.33
16631,18.98
16643,14.57
16655,10.45
16666,6.74
16677,3.35
16689,0.03
16701,-3.46
16713,-7.24
16725,-11.27
16737,-15.38
16749,-19.35
16761,-23.02
16773,-26.34
16785,-29.38
16797,-32.32
16809,-35.46
16821,-39.17
16833,-43.76
16845,-49.31
16856,-55.54
16867,-61.66
16879,-66.52
16891,-68.9
16903,-67.81
16915,-62.89
16927,-54.45
16939,-43.45
16951,-31.11
16963,-18.61
16975,-6.85
16987,3.61
16999,12.48
17011,19.7
17023,25.26
17035,29.26
17046,31.89
17057,33.44
17069,34.23
17081,34.51
17093,34.47
17105,34.14
17117,33.52
17129,32.65
17141,31.65
17153,30.67
17165,29.83
17177,29.16
17189,28.57
17201,27.86
17213,26.85
17225,25.38
17236,23.36
17247,20.8
17259,17.8
17271,14.51
17283,11.11
17295,7.74
17307,4.48
17319,1.27
17331,-1.96
17343,-5.29
17355,-8.69
17367,-12.06
17379,-15.27
17391,-18.24
17403,-20.97
17415,-23.56
17426,-26.18
17437,-29.01
17449,-32.27
17461,-36.18
17473,-40.83
17485,-46.05
17497,-51.23
17509,-55.38
17521,-57.3
17533,-55.94
17545,-50.85
17557,-42.34
17569,-31.44
17581,-19.6
17593,-8.19
17605,1.8
17616,9.91
17627,16.16
17639,20.77
17651,24.02
17663,26.04
17675,26.89
17687,26.66
17699,25.56
17711,23.99
17723,22.46
17735,21.43
17747,21.2
17759,21.81
17771,23.03
17783,24.48
17795,25.73
17806,26.48
17817,26.52
17829,25.76
17841,24.21
17853,21.93
17865,19.05
17877,15.77
17889,12.28
17901,8.75
17913,5.23
17925,1.7
17937,-1.91
17949,-5.6
17961,-9.34
17973,-13.02
17985,-16.56
17996,-19.94
18007,-23.25
18019,-26.64
18031,-30.32
18043,-34.52
18055,-39.45
18067,-45.06
18079,-50.97
18091,-56.37
18103,-60.13
18115,-61.15
18127,-58.66
18139,-52.58
18151,-43.54
18163,-32.67
18175,-21.27
18186,-10.47
18197,-1.06
18209,6.55
18221,12.16
18233,15.81
18245,17.6
18257,17.8
18269,16.81
18281,15.05
18293,12.93
18305,10.76
18317,8.69
18329,6.82
18341,5.27
18353,4.24
18365,4.01
18376,4.8
18387,6.62
18399,9.07
18411,11.4
18423,12.7
18435,12.26
18447,9.93
18459,6.25
18471,2.39
18483,-0.34
18495,-1.02
18507,0.44
18519,3.27
18531,6.14
18543,7.74
18555,7.47
18566,5.61
18577,3.24
18589,1.83
18601,2.74
18613,6.95
18625,14.88
18637,26.15
18649,39.38
18661,52.0
18673,60.54
18685,61.82
18697,54.48
18709,40.32
18721,24.28
18733,12.8
18745,11.14
18756,21.04
18767,40.1
18779,63.25
18791,85.38
18803,103.76
18815,118.83
18827,133.09
18839,149.15
18851,168.03
18863,188.75
18875,209.13
18887,226.97
18899,240.78
18911,249.66
18923,252.78
18935,249.08
18946,237.67
18957,218.57
18969,193.43
18981,165.52
18993,138.77
19005,116.4
19017,99.72
19029,87.72
19041,77.63
19053,66.15
19065,50.82
19077,30.87
19089,7.31
19101,-17.63
19113,-41.35
19125,-61.66
19136,-77.33
19147,-88.12
19159,-94.66
19171,-98.11
19183,-99.85
19195,-101.09
19207,-102.75
19219,-105.28
19231,-108.72
19243,-112.79
19255,-117.07
19267,-121.3
19279,-125.39
19291,-129.55
19303,-134.12
19315,-139.35
19326,-145.1
19337,-150.69
19349,-154.97
19361,-156.52
19373,-154.22
19385,-147.65
19397,-137.35
19409,-124.63
19421,-111.15
19433,-98.31
19445,-86.81
19457,-76.65
19469,-67.39
19481,-58.65
19493,-50.44
19505,-43.12
19516,-37.12
19527,-32.42
19539,-28.35
19551,-23.69
19563,-17.18
19575,-8.03
19587,3.71
19599,17.14
19611,30.79
19623,43.07
19635,52.62
19647,58.63
19659,60.87
19671,59.71
19683,55.97
19695,50.63
19706,44.6
19717,38.51
19729,32.64
19741,27.0
19753,21.32
19765,15.1
19777,7.6
19789,-1.99
19801,-14.32
19813,-29.45
19825,-46.55
19837,-63.98
19849,-79.76
19861,-92.34
19873,-101.11
19885,-106.53
19896,-109.56
19907,-110.99
19919,-110.9
19931,-108.52
19943,-102.73
19955,-92.66
19967,-78.14
19979,-59.92
19991,-39.52
20003,-18.76
20015,0.67
20027,17.51
20039,31.05
20051,40.96
20063,47.16
20075,49.57
20086,48.29
20097,43.68
20109,36.56
20121,28.36
20133,20.77
20145,15.35
20157,12.96
20169,13.59
20181,16.35
20193,19.9
20205,22.98
20217,24.78
20229,25.02
20241,23.84
20253,21.68
20265,19.04
20276,16.43
20287,14.3
20299,12.93
20311,12.34
20323,12.27
20335,12.22
20347,11.66
20359,10.25
20371,7.94
20383,5.02
20395,2.01
20407,-0.6
20419,-2.37
20431,-3.11
20443,-2.91
20455,-2.08
20466,-1.03
20477,0.02
20489,1.35
20501,3.95
20513,9.26
20525,18.76
20537,33.15
20549,51.86
20561,72.81
20573,92.78
20585,108.29
20597,116.54
20609,116.05
20621,106.95
20633,90.71
20645,69.53
20656,45.8
20667,21.53
20679,-1.83
20691,-23.55
20703,-43.5
20715,-62.16
20727,-80.28
20739,-98.7
20751,-117.9
20763,-137.7
20775,-157.16
20787,-174.71
20799,-188.64
20811,-197.63
20823,-201.21
20835,-199.84
20846,-194.78
20857,-187.65
20869,-180.04
20881,-173.26
20893,-168.19
20905,-165.3
20917,-164.7
20929,-166.15
20941,-169.14
20953,-172.97
20965,-176.89
20977,-180.27
20989,-182.78
