seconds,BVP
1,8.07
12,5.99
24,3.99
36,2.07
48,0.11
60,-2.05
72,-4.52
84,-7.32
96,-10.4
108,-13.69
120,-17.09
132,-20.46
144,-23.55
156,-26.02
168,-27.47
180,-27.55
191,-26.11
202,-23.3
214,-19.49
226,-15.34
238,-11.52
250,-8.59
262,-6.84
274,-6.21
286,-6.3
298,-6.52
310,-6.26
322,-5.12
334,-3.03
346,-0.26
358,2.67
370,5.2
381,6.96
392,7.85
404,8.05
416,7.88
428,7.64
440,7.47
452,7.36
464,7.17
476,6.77
488,6.07
500,5.06
512,3.83
524,2.58
536,1.68
548,1.6
560,2.79
571,5.45
582,9.39
594,13.95
606,18.29
618,21.67
630,23.7
642,24.51
654,24.45
666,23.87
678,22.82
690,21.02
702,18.08
714,13.77
726,8.23
738,1.89
750,-4.65
761,-10.88
772,-16.53
784,-21.47
796,-25.67
808,-29.03
820,-31.36
832,-32.49
844,-32.34
856,-31.07
868,-29.09
880,-26.98
892,-25.34
904,-24.74
916,-25.45
928,-27.43
940,-30.26
951,-33.23
962,-35.57
974,-36.6
986,-35.98
998,-33.7
1010,-30.02
1022,-25.34
1034,-20.12
1046,-14.78
1058,-9.72
1070,-5.29
1082,-1.79
1094,0.63
1106,2.01
1118,2.59
1130,2.72
1141,2.78
1152,2.99
1164,3.46
1176,4.15
1188,5.04
1200,6.11
1212,7.37
1224,8.81
1236,10.34
1248,11.78
1260,12.94
1272,13.62
1284,13.69
1296,13.07
1308,11.71
1320,9.55
1331,6.65
1342,3.16
1354,-0.61
1366,-4.22
1378,-7.23
1390,-9.34
1402,-10.49
1414,-10.82
1426,-10.64
1438,-10.28
1450,-9.98
1462,-9.91
1474,-10.1
1486,-10.5
1498,-10.99
1510,-11.49
1521,-11.89
1532,-12.14
1544,-12.2
1556,-12.06
1568,-11.72
1580,-11.16
1592,-10.42
1604,-9.51
1616,-8.48
1628,-7.35
1640,-6.13
1652,-4.76
1664,-3.13
1676,-1.14
1688,1.23
1700,3.85
1711,6.46
1722,8.74
1734,10.37
1746,11.21
1758,11.31
1770,10.87
1782,10.19
1794,9.5
1806,8.95
1818,8.54
1830,8.24
1842,7.99
1854,7.71
1866,7.29
1878,6.62
1890,5.63
1901,4.35
1912,2.93
1924,1.63
1936,0.72
1948,0.31
1960,0.36
1972,0.63
1984,0.84
1996,0.77
2008,0.36
2020,-0.31
2032,-1.01
2044,-1.53
2056,-1.73
2068,-1.61
2080,-1.26
2091,-0.84
2102,-0.49
2114,-0.31
2126,-0.24
2138,-0.19
2150,0.0
2162,0.47
2174,1.28
2186,2.44
2198,3.87
2210,5.45
2222,6.98
2234,8.27
2246,9.14
2258,9.49
2270,9.34
2281,8.8
2292,8.07
2304,7.27
2316,6.5
2328,5.72
2340,4.9
2352,4.05
2364,3.3
2376,2.93
2388,3.32
2400,4.84
2412,7.66
2424,11.67
2436,16.43
2448,21.26
2460,25.47
2471,28.52
2482,30.2
2494,30.65
2506,30.28
2518,29.59
2530,28.96
2542,28.6
2554,28.4
2566,28.05
2578,27.14
2590,25.31
2602,22.39
2614,18.42
2626,13.59
2638,8.17
2650,2.46
2661,-3.27
2672,-8.61
2684,-13.13
2696,-16.37
2708,-18.07
2720,-18.37
2732,-17.76
2744,-17.02
2756,-16.91
2768,-17.87
2780,-19.92
2792,-22.67
2804,-25.49
2816,-27.78
2828,-29.1
2840,-29.18
2851,-27.99
2862,-25.64
2874,-22.36
2886,-18.57
2898,-14.79
2910,-11.55
2922,-9.26
2934,-8.09
2946,-7.82
2958,-8.01
2970,-8.08
2982,-7.54
2994,-6.14
3006,-3.92
3018,-1.13
3030,1.92
3041,4.88
3052,7.44
3064,9.32
3076,10.33
3088,10.47
3100,10.03
3112,9.63
3124,10.08
3136,12.05
3148,15.77
3160,20.92
3172,26.68
3184,32.06
3196,36.19
3208,38.61
3220,39.28
3231,38.47
3242,36.55
3254,33.83
3266,30.48
3278,26.58
3290,22.15
3302,17.24
3314,11.97
3326,6.55
3338,1.29
3350,-3.49
3362,-7.52
3374,-10.71
3386,-13.11
3398,-14.91
3410,-16.34
3421,-17.59
3432,-18.72
3444,-19.77
3456,-20.75
3468,-21.74
3480,-22.85
3492,-24.16
3504,-25.63
3516,-27.05
3528,-28.06
3540,-28.29
3552,-27.44
3564,-25.5
3576,-22.71
3588,-19.5
3600,-16.33
3611,-13.48
3622,-10.95
3634,-8.51
3646,-5.82
3658,-2.65
3670,1.02
3682,5.04
3694,9.24
3706,13.53
3718,17.98
3730,22.71
3742,27.71
3754,32.68
3766,37.13
3778,40.51
3790,42.51
3801,43.22
3812,43.06
3824,42.56
3836,41.97
3848,41.1
3860,39.43
3872,36.4
3884,31.8
3896,25.93
3908,19.51
3920,13.36
3932,8.03
3944,3.65
3956,0.01
3968,-3.19
3980,-6.12
3991,-8.75
4002,-10.93
4014,-12.61
4026,-13.94
4038,-15.28
4050,-17.06
4062,-19.56
4074,-22.75
4086,-26.27
4098,-29.53
4110,-31.8
4122,-32.52
4134,-31.39
4146,-28.52
4158,-24.35
4170,-19.54
4181,-14.83
4192,-10.84
4204,-7.99
4216,-6.38
4228,-5.9
4240,-6.32
4252,-7.42
4264,-8.98
4276,-10.76
4288,-12.37
4300,-13.21
4312,-12.61
4324,-10.15
4336,-5.87
4348,-0.45
4360,5.0
4371,9.38
4382,11.98
4394,12.72
4406,12.1
4418,10.86
4430,9.62
4442,8.68
4454,7.94
4466,7.06
4478,5.68
4490,3.58
4502,0.79
4514,-2.44
4526,-5.75
4538,-8.81
4550,-11.46
4561,-13.71
4572,-15.69
4584,-17.5
4596,-19.19
4608,-20.71
4620,-22.05
4632,-23.27
4644,-24.48
4656,-25.7
4668,-26.77
4680,-27.28
4692,-26.67
4704,-24.57
4716,-20.92
4728,-16.14
4740,-10.96
4751,-6.19
4762,-2.39
4774,0.24
4786,1.88
4798,2.94
4810,3.81
4822,4.74
4834,5.84
4846,7.08
4858,8.42
4870,9.84
4882,11.37
4894,13.03
4906,14.68
4918,16.09
4930,16.94
4941,16.94
4952,15.98
4964,14.14
4976,11.63
4988,8.66
5000,5.33
5012,1.57
5024,-2.66
5036,-7.29
5048,-12.0
5060,-16.27
5072,-19.56
5084,-21.52
5096,-22.14
5108,-21.73
5120,-20.77
5131,-19.71
5142,-18.88
5154,-18.41
5166,-18.34
5178,-18.63
5190,-19.14
5202,-19.63
5214,-19.78
5226,-19.2
5238,-17.58
5250,-14.76
5262,-10.89
5274,-6.39
5286,-1.8
5298,2.33
5310,5.63
5321,7.94
5332,9.31
5344,9.95
5356,10.16
5368,10.31
5380,10.8
5392,11.98
5404,14.03
5416,16.9
5428,20.25
5440,23.6
5452,26.48
5464,28.59
5476,29.83
5488,30.32
5500,30.16
5511,29.4
5522,28.0
5534,25.87
5546,23.0
5558,19.46
5570,15.43
5582,11.04
5594,6.42
5606,1.71
5618,-2.97
5630,-7.41
5642,-11.38
5654,-14.72
5666,-17.37
5678,-19.37
5690,-20.84
5701,-21.88
5712,-22.58
5724,-23.0
5736,-23.26
5748,-23.55
5760,-24.06
5772,-24.85
5784,-25.72
5796,-26.25
5808,-25.89
5820,-24.21
5832,-21.09
5844,-16.76
5856,-11.74
5868,-6.66
5880,-1.98
5891,2.05
5902,5.39
5914,8.16
5926,10.43
5938,12.29
5950,13.72
5962,14.74
5974,15.38
5986,15.77
5998,16.09
6010,16.52
6022,17.24
6034,18.4
6046,20.05
6058,22.13
6070,24.47
6081,26.75
6092,28.59
6104,29.63
6116,29.64
6128,28.62
6140,26.8
6152,24.54
6164,22.18
6176,19.93
6188,17.75
6200,15.48
6212,12.87
6224,9.76
6236,6.18
6248,2.29
6260,-1.62
6271,-5.29
6282,-8.48
6294,-11.05
6306,-12.93
6318,-14.12
6330,-14.67
6342,-14.64
6354,-14.13
6366,-13.25
6378,-12.17
6390,-11.12
6402,-10.32
6414,-9.93
6426,-9.95
6438,-10.27
6450,-10.67
6461,-10.98
6472,-11.13
6484,-11.16
6496,-11.23
6508,-11.41
6520,-11.64
6532,-11.75
6544,-11.55
6556,-10.95
6568,-10.03
6580,-8.99
6592,-8.04
6604,-7.23
6616,-6.45
6628,-5.45
6640,-4.04
6651,-2.2
6662,-0.11
6674,1.96
6686,3.74
6698,5.12
6710,6.17
6722,7.02
6734,7.82
6746,8.67
6758,9.61
6770,10.67
6782,11.92
6794,13.44
6806,15.22
6818,17.08
6830,18.7
6841,19.7
6852,19.85
6864,19.21
6876,18.1
6888,17.02
6900,16.39
6912,16.35
6924,16.74
6936,17.19
6948,17.32
6960,16.9
6972,15.9
6984,14.41
6996,12.55
7008,10.43
7020,8.16
7031,5.8
7042,3.33
7054,0.67
7066,-2.33
7078,-5.85
7090,-9.96
7102,-14.55
7114,-19.34
7126,-23.93
7138,-27.94
7150,-31.03
7162,-33.0
7174,-33.79
7186,-33.48
7198,-32.32
7210,-30.71
7221,-29.1
7232,-27.82
7244,-27.01
7256,-26.56
7268,-26.27
7280,-25.91
7292,-25.37
7304,-24.63
7316,-23.72
7328,-22.62
7340,-21.24
7352,-19.45
7364,-17.18
7376,-14.47
7388,-11.56
7400,-8.83
7411,-6.74
7422,-5.65
7434,-5.76
7446,-6.92
7458,-8.76
7470,-10.72
7482,-12.16
7494,-12.53
7506,-11.34
7518,-8.29
7530,-3.29
7542,3.39
7554,11.12
7566,19.02
7578,26.19
7590,31.92
7601,35.92
7612,38.31
7624,39.39
7636,39.43
7648,38.61
7660,36.97
7672,34.59
7684,31.64
7696,28.37
7708,24.99
7720,21.64
7732,18.32
7744,14.95
7756,11.51
7768,8.02
7780,4.5
7791,0.95
7802,-2.69
7814,-6.45
7826,-10.26
7838,-13.96
7850,-17.29
7862,-20.04
7874,-22.13
7886,-23.6
7898,-24.59
7910,-25.23
7922,-25.67
7934,-26.0
7946,-26.3
7958,-26.6
7970,-26.86
7981,-26.99
7992,-26.79
8004,-26.11
8016,-24.93
8028,-23.39
8040,-21.81
8052,-20.51
8064,-19.7
8076,-19.36
8088,-19.24
8100,-18.96
8112,-18.16
8124,-16.67
8136,-14.56
8148,-12.09
8160,-9.63
8171,-7.46
8182,-5.75
8194,-4.48
8206,-3.53
8218,-2.8
8230,-2.25
8242,-1.91
8254,-1.85
8266,-2.06
8278,-2.43
8290,-2.76
8302,-2.81
8314,-2.48
8326,-1.76
8338,-0.72
8350,0.54
8361,1.96
8372,3.56
8384,5.37
8396,7.41
8408,9.59
8420,11.77
8432,13.75
8444,15.34
8456,16.37
8468,16.81
8480,16.69
8492,16.18
8504,15.48
8516,14.8
8528,14.27
8540,13.88
8551,13.54
8562,13.09
8574,12.38
8586,11.34
8598,9.93
8610,8.15
8622,6.05
8634,3.74
8646,1.45
8658,-0.54
8670,-1.94
8682,-2.55
8694,-2.32
8706,-1.39
8718,-0.02
8730,1.5
8741,2.93
8752,4.09
8764,4.95
8776,5.53
8788,5.92
8800,6.18
8812,6.37
8824,6.43
8836,6.29
8848,5.9
8860,5.28
8872,4.61
8884,4.12
8896,4.0
8908,4.33
8920,4.98
8931,5.7
8942,6.23
8954,6.43
8966,6.35
8978,6.15
8990,6.03
9002,6.07
9014,6.22
9026,6.35
9038,6.3
9050,5.98
9062,5.42
9074,4.71
9086,3.97
9098,3.27
9110,2.58
9121,1.84
9132,0.96
9144,-0.13
9156,-1.47
9168,-3.03
9180,-4.75
9192,-6.54
9204,-8.24
9216,-9.68
9228,-10.66
9240,-11.02
9252,-10.66
9264,-9.61
9276,-8.0
9288,-6.06
9300,-4.02
9311,-2.03
9322,-0.13
9334,1.78
9346,3.85
9358,6.17
9370,8.78
9382,11.64
9394,14.64
9406,17.76
9418,21.0
9430,24.44
9442,28.13
9454,32.1
9466,36.33
9478,40.81
9490,45.54
9501,50.54
9512,55.81
9524,61.26
9536,66.79
9548,72.26
9560,77.66
9572,83.07
9584,88.68
9596,94.71
9608,101.27
9620,108.33
9632,115.65
9644,122.94
9656,129.89
9668,136.32
9680,142.1
9691,147.18
9702,151.52
9714,155.04
9726,157.71
9738,159.52
9750,160.53
9762,160.8
9774,160.32
9786,159.0
9798,156.66
9810,153.01
9822,147.68
9834,140.23
9846,130.2
9858,117.25
9870,101.27
9881,82.43
9892,61.26
9904,38.43
9916,14.69
9928,-9.16
9940,-32.27
9952,-53.69
9964,-72.42
9976,-87.61
9988,-98.83
10000,-106.21
10012,-110.35
10024,-112.15
10036,-112.54
10048,-112.42
10060,-112.6
10071,-113.8
10082,-116.47
10094,-120.52
10106,-125.17
10118,-129.14
10130,-131.01
10142,-129.87
10154,-125.67
10166,-119.19
10178,-111.65
10190,-104.24
10202,-97.71
10214,-92.3
10226,-87.85
10238,-84.04
10250,-80.49
10261,-76.8
10272,-72.62
10284,-67.68
10296,-61.91
10308,-55.59
10320,-49.23
10332,-43.48
10344,-38.91
10356,-35.84
10368,-34.24
10380,-33.72
10392,-33.62
10404,-33.13
10416,-31.59
10428,-28.73
10440,-24.8
10451,-20.55
10462,-17.0
10474,-15.15
10486,-15.62
10498,-18.58
10510,-23.69
10522,-30.3
10534,-37.57
10546,-44.63
10558,-50.68
10570,-55.2
10582,-58.0
10594,-59.35
10606,-59.86
10618,-60.22
10630,-60.91
10641,-61.83
10652,-62.35
10664,-61.51
10676,-58.48
10688,-53.08
10700,-45.92
10712,-38.18
10724,-31.12
10736,-25.52
10748,-21.46
10760,-18.39
10772,-15.64
10784,-12.84
10796,-10.13
10808,-7.98
10820,-6.8
10831,-6.58
10842,-6.83
10854,-6.8
10866,-5.89
10878,-4.02
10890,-1.54
10902,0.97
10914,3.18
10926,5.23
10938,7.8
10950,11.72
10962,17.61
10974,25.46
10986,34.56
10998,43.74
11010,51.8
11021,57.99
11032,62.15
11044,64.58
11056,65.69
11068,65.75
11080,64.76
11092,62.7
11104,59.79
11116,56.58
11128,53.83
11140,52.18
11152,51.76
11164,52.21
11176,52.78
11188,52.8
11200,51.9
11211,50.14
11222,47.9
11234,45.6
11246,43.61
11258,42.2
11270,41.62
11282,42.03
11294,43.47
11306,45.75
11318,48.49
11330,51.22
11342,53.54
11354,55.27
11366,56.45
11378,57.13
11390,57.2
11401,56.17
11412,53.24
11424,47.5
11436,38.25
11448,25.4
11460,9.7
11472,-7.22
11484,-23.15
11496,-35.99
11508,-44.35
11520,-48.16
11532,-48.73
11544,-48.4
11556,-49.8
11568,-54.93
11580,-64.6
11591,-78.24
11602,-94.24
11614,-110.63
11626,-125.79
11638,-138.81
11650,-149.52
11662,-158.2
11674,-165.26
11686,-171.0
11698,-175.61
11710,-179.21
11722,-181.96
11734,-184.03
11746,-185.46
11758,-186.01
11770,-185.14
11781,-182.12
11792,-176.3
11804,-167.4
11816,-155.67
11828,-142.04
11840,-127.9
11852,-114.69
11864,-103.43
11876,-94.3
11888,-86.54
11900,-78.9
11912,-70.19
11924,-59.85
11936,-48.12
11948,-35.65
11960,-22.98
11971,-10.12
11982,3.44
11994,18.22
12006,34.26
12018,50.83
12030,66.64
12042,80.39
12054,91.33
12066,99.5
12078,105.5
12090,110.15
12102,113.95
12114,117.02
12126,119.11
12138,119.81
12150,118.82
12161,116.07
12172,111.78
12184,106.4
12196,100.55
12208,94.79
12220,89.48
12232,84.58
12244,79.71
12256,74.3
12268,67.8
12280,59.91
12292,50.68
12304,40.39
12316,29.48
12328,18.43
12340,7.68
12351,-2.37
12362,-11.42
12374,-19.33
12386,-26.03
12398,-31.51
12410,-35.73
12422,-38.52
12434,-39.71
12446,-39.2
12458,-37.18
12470,-34.09
12482,-30.53
12494,-27.07
12506,-23.98
12518,-21.24
12530,-18.59
12541,-15.71
12552,-12.43
12564,-8.78
12576,-4.94
12588,-1.1
12600,2.59
12612,6.11
12624,9.5
12636,12.77
12648,15.83
12660,18.46
12672,20.37
12684,21.31
12696,21.17
12708,20.11
12720,18.44
12731,16.55
12742,14.69
12754,12.87
12766,10.89
12778,8.41
12790,5.21
12802,1.24
12814,-3.21
12826,-7.75
12838,-11.97
12850,-15.62
12862,-18.68
12874,-21.22
12886,-23.26
12898,-24.66
12910,-25.09
12921,-24.2
12932,-21.8
12944,-18.0
12956,-13.23
12968,-8.03
12980,-2.98
12992,1.49
13004,5.16
13016,7.96
13028,9.93
13040,11.16
13052,11.77
13064,11.93
13076,11.85
13088,11.76
13100,11.83
13111,12.15
13122,12.67
13134,13.25
13146,13.71
13158,13.95
13170,13.91
13182,13.64
13194,13.22
13206,12.65
13218,11.94
13230,11.0
13242,9.77
13254,8.24
13266,6.45
13278,4.47
13290,2.34
13301,0.08
13312,-2.29
13324,-4.73
13336,-7.17
13348,-9.56
13360,-11.92
13372,-14.33
13384,-16.88
13396,-19.63
13408,-22.49
13420,-25.19
13432,-27.34
13444,-28.51
13456,-28.34
13468,-26.71
13480,-23.77
13491,-19.87
13502,-15.55
13514,-11.35
13526,-7.71
13538,-4.89
13550,-2.91
13562,-1.63
13574,-0.82
13586,-0.29
13598,0.05
13610,0.25
13622,0.31
13634,0.3
13646,0.34
13658,0.54
13670,0.94
13681,1.51
13692,2.2
13704,2.94
13716,3.75
13728,4.64
13740,5.52
13752,6.17
13764,6.31
13776,5.77
13788,4.65
13800,3.38
13812,2.55
13824,2.74
13836,4.23
13848,6.86
13860,10.15
13871,13.37
13882,15.86
13894,17.17
13906,17.23
13918,16.26
13930,14.73
13942,13.14
13954,11.89
13966,11.17
13978,10.91
13990,10.77
14002,10.24
14014,8.76
14026,5.87
14038,1.46
14050,-4.08
14061,-9.85
14072,-14.62
14084,-17.21
14096,-16.95
14108,-13.95
14120,-9.01
14132,-3.3
14144,2.11
14156,6.61
14168,10.07
14180,12.69
14192,14.65
14204,15.99
14216,16.6
14228,16.37
14240,15.4
14251,14.05
14262,12.78
14274,11.99
14286,11.81
14298,12.1
14310,12.5
14322,12.61
14334,12.16
14346,11.06
14358,9.41
14370,7.48
14382,5.62
14394,4.23
14406,3.71
14418,4.48
14430,6.84
14441,10.89
14452,16.43
14464,22.92
14476,29.58
14488,35.62
14500,40.38
14512,43.58
14524,45.25
14536,45.67
14548,45.11
14560,43.77
14572,41.76
14584,39.13
14596,36.03
14608,32.72
14620,29.48
14631,26.56
14642,24.01
14654,21.7
14666,19.4
14678,16.89
14690,14.12
14702,11.13
14714,8.11
14726,5.14
14738,2.24
14750,-0.69
14762,-3.84
14774,-7.33
14786,-11.25
14798,-15.56
14810,-20.12
14821,-24.74
14832,-29.23
14844,-33.49
14856,-37.55
14868,-41.54
14880,-45.57
14892,-49.75
14904,-54.01
14916,-58.18
14928,-61.94
14940,-64.91
14952,-66.64
14964,-66.63
14976,-64.44
14988,-59.78
15000,-52.67
15011,-43.6
15022,-33.56
15034,-23.86
15046,-15.71
15058,-9.87
15070,-6.32
15082,-4.36
15094,-2.97
15106,-1.22
15118,1.32
15130,4.46
15142,7.67
15154,10.47
15166,12.73
15178,14.72
15190,16.97
15201,19.89
15212,23.55
15224,27.71
15236,31.86
15248,35.58
15260,38.57
15272,40.78
15284,42.25
15296,43.02
15308,43.08
15320,42.35
15332,40.91
15344,39.04
15356,37.13
15368,35.57
15380,34.39
15391,33.23
15402,31.42
15414,28.32
15426,23.76
15438,18.17
15450,12.44
15462,7.61
15474,4.43
15486,3.16
15498,3.58
15510,5.19
15522,7.41
15534,9.72
15546,11.69
15558,12.97
15570,13.34
15581,12.7
15592,11.15
15604,8.89
15616,6.18
15628,3.24
15640,0.28
15652,-2.52
15664,-4.96
15676,-6.88
15688,-8.26
15700,-9.26
15712,-10.14
15724,-11.26
15736,-12.83
15748,-14.86
15760,-17.11
15771,-19.15
15782,-20.47
15794,-20.57
15806,-19.05
15818,-15.74
15830,-10.79
15842,-4.66
15854,1.94
15866,8.25
15878,13.7
15890,18.04
15902,21.38
15914,24.0
15926,26.13
15938,27.87
15950,29.16
15961,29.88
15972,30.03
15984,29.71
15996,29.09
16008,28.24
16020,27.1
16032,25.53
16044,23.46
16056,21.08
16068,18.81
16080,17.2
16092,16.73
16104,17.55
16116,19.43
16128,21.86
16140,24.28
16151,26.25
16162,27.63
16174,28.51
16186,29.02
16198,29.23
16210,29.12
16222,28.57
16234,27.52
16246,26.03
16258,24.25
16270,22.39
16282,20.64
16294,19.11
16306,17.8
16318,16.63
16330,15.4
16341,13.94
16352,12.13
16364,9.97
16376,7.66
16388,5.47
16400,3.61
16412,2.03
16424,0.37
16436,-1.96
16448,-5.49
16460,-10.45
16472,-16.6
16484,-23.26
16496,-29.53
16508,-34.54
16520,-37.7
16531,-38.81
16542,-38.02
16554,-35.78
16566,-32.68
16578,-29.32
16590,-26.22
16602,-23.71
16614,-21.93
16626,-20.85
16638,-20.3
16650,-20.11
16662,-20.09
16674,-20.18
16686,-20.32
16698,-20.5
16710,-20.7
16721,-20.77
16732,-20.5
16744,-19.61
16756,-17.87
16768,-15.17
16780,-11.66
16792,-7.67
16804,-3.64
16816,0.02
16828,3.03
16840,5.28
16852,6.82
16864,7.78
16876,8.28
16888,8.5
16900,8.59
16911,8.7
16922,8.92
16934,9.29
16946,9.75
16958,10.18
16970,10.44
16982,10.47
16994,10.24
17006,9.79
17018,9.18
17030,8.44
17042,7.59
17054,6.59
17066,5.44
17078,4.09
17090,2.5
17101,0.61
17112,-1.67
17124,-4.35
17136,-7.39
17148,-10.6
17160,-13.74
17172,-16.6
17184,-19.08
17196,-21.23
17208,-23.15
17220,-24.89
17232,-26.42
17244,-27.53
17256,-28.04
17268,-27.82
17280,-26.89
17291,-25.28
17302,-23.0
17314,-19.99
17326,-16.22
17338,-11.86
17350,-7.34
17362,-3.17
17374,0.29
17386,3.01
17398,5.39
17410,7.93
17422,10.93
17434,14.28
17446,17.54
17458,20.19
17470,21.96
17481,22.91
17492,23.32
17504,23.47
17516,23.45
17528,23.14
17540,22.42
17552,21.3
17564,19.97
17576,18.72
17588,17.78
17600,17.2
17612,16.85
17624,16.52
17636,16.08
17648,15.47
17660,14.76
17671,14.02
17682,13.31
17694,12.6
17706,11.85
17718,11.01
17730,10.07
17742,9.07
17754,8.02
17766,6.96
17778,5.85
17790,4.68
17802,3.46
17814,2.22
17826,1.01
17838,-0.11
17850,-1.11
17861,-2.0
17872,-2.77
17884,-3.42
17896,-3.96
17908,-4.43
17920,-4.91
17932,-5.5
17944,-6.29
17956,-7.35
17968,-8.66
17980,-10.13
17992,-11.57
18004,-12.77
18016,-13.48
18028,-13.52
18040,-12.78
18051,-11.25
18062,-9.05
18074,-6.41
18086,-3.61
18098,-0.97
18110,1.23
18122,2.8
18134,3.7
18146,4.02
18158,3.95
18170,3.72
18182,3.49
18194,3.36
18206,3.36
18218,3.51
18230,3.8
18241,4.24
18252,4.78
18264,5.28
18276,5.58
18288,5.54
18300,5.17
18312,4.62
18324,4.13
18336,3.9
18348,3.97
18360,4.21
18372,4.38
18384,4.29
18396,3.84
18408,3.1
18420,2.22
18431,1.35
18442,0.57
18454,-0.1
18466,-0.69
18478,-1.27
18490,-1.88
18502,-2.55
18514,-3.28
18526,-4.06
18538,-4.82
18550,-5.52
18562,-6.13
18574,-6.68
18586,-7.22
18598,-7.86
18610,-8.7
18621,-9.74
18632,-10.94
18644,-12.08
18656,-12.87
18668,-13.0
18680,-12.21
18692,-10.48
18704,-8.02
18716,-5.21
18728,-2.54
18740,-0.36
18752,1.2
18764,2.26
18776,3.08
18788,3.9
18800,4.81
18811,5.73
18822,6.49
18834,6.96
18846,7.13
18858,7.1
18870,7.0
18882,6.98
18894,7.05
18906,7.2
18918,7.36
18930,7.54
18942,7.77
18954,8.07
18966,8.43
18978,8.76
18990,8.88
19001,8.66
19012,8.01
19024,7.02
19036,5.88
19048,4.84
19060,4.14
19072,3.86
19084,3.92
19096,4.1
19108,4.11
19120,3.74
19132,2.96
19144,1.91
19156,0.83
19168,-0.05
19180,-0.66
19191,-1.06
19202,-1.45
19214,-2.01
19226,-2.87
19238,-4.0
19250,-5.27
19262,-6.47
19274,-7.38
19286,-7.76
19298,-7.47
19310,-6.45
19322,-4.78
19334,-2.66
19346,-0.39
19358,1.76
19370,3.59
19381,5.06
19392,6.18
19404,7.06
19416,7.78
19428,8.38
19440,8.91
19452,9.39
19464,9.86
19476,10.39
19488,11.01
19500,11.75
19512,12.59
19524,13.47
19536,14.35
19548,15.2
19560,15.98
19571,16.65
19582,17.17
19594,17.49
19606,17.57
19618,17.39
19630,16.95
19642,16.31
19654,15.49
19666,14.5
19678,13.33
19690,11.95
19702,10.37
19714,8.63
19726,6.8
19738,4.96
19750,3.2
19761,1.57
19772,0.13
19784,-1.11
19796,-2.18
19808,-3.13
19820,-4.04
19832,-5.02
19844,-6.11
19856,-7.3
19868,-8.46
19880,-9.36
19892,-9.74
19904,-9.39
19916,-8.24
19928,-6.4
19940,-4.16
19951,-1.87
19962,0.12
19974,1.57
19986,2.42
19998,2.74
20010,2.68
20022,2.39
20034,1.96
20046,1.44
20058,0.85
20070,0.24
20082,-0.3
20094,-0.61
20106,-0.61
20118,-0.31
20130,0.09
20141,0.31
20152,0.12
20164,-0.56
20176,-1.57
20188,-2.66
20200,-3.6
20212,-4.27
20224,-4.72
20236,-5.04
20248,-5.33
20260,-5.63
20272,-5.96
20284,-6.37
20296,-6.97
20308,-7.84
20320,-9.0
20331,-10.32
20342,-11.58
20354,-12.59
20366,-13.31
20378,-13.87
20390,-14.5
20402,-15.46
20414,-16.88
20426,-18.69
20438,-20.61
20450,-22.16
20462,-22.77
20474,-21.9
20486,-19.13
20498,-14.4
20510,-8.04
20521,-0.76
20532,6.5
20544,12.82
20556,17.55
20568,20.45
20580,21.76
20592,22.01
20604,21.89
20616,21.97
20628,22.62
20640,23.92
20652,25.72
20664,27.73
20676,29.58
20688,30.93
20700,31.52
20711,31.25
20722,30.2
20734,28.57
20746,26.63
20758,24.65
20770,22.79
20782,21.05
20794,19.32
20806,17.41
20818,15.2
20830,12.68
20842,9.94
20854,7.13
20866,4.37
20878,1.67
20890,-1.12
20901,-4.25
20912,-8.07
20924,-12.83
20936,-18.57
20948,-25.0
20960,-31.45
20972,-36.93
20984,-40.4
20996,-41.09
