seconds,BVP
2,-14.07
13,-15.18
24,-16.37
36,-17.86
48,-19.81
60,-22.18
72,-24.68
84,-26.74
96,-27.64
108,-26.76
120,-23.8
132,-18.92
144,-12.7
156,-5.96
168,0.54
180,6.21
192,10.76
203,14.07
214,16.13
226,16.98
238,16.69
250,15.44
262,13.52
274,11.34
286,9.29
298,7.64
310,6.55
322,6.03
334,5.99
346,6.3
358,6.8
370,7.42
382,8.05
393,8.62
404,9.02
416,9.15
428,8.92
440,8.31
452,7.41
464,6.27
476,4.96
488,3.44
500,1.63
512,-0.52
524,-2.94
536,-5.45
548,-7.84
560,-9.94
572,-11.7
583,-13.21
594,-14.62
606,-16.06
618,-17.64
630,-19.47
642,-21.65
654,-24.18
666,-26.87
678,-29.2
690,-30.45
702,-29.89
714,-27.08
726,-22.06
738,-15.41
750,-8.01
762,-0.8
773,5.52
784,10.56
796,14.28
808,16.77
820,18.17
832,18.62
844,18.23
856,17.17
868,15.69
880,14.08
892,12.64
904,11.61
916,11.08
928,11.04
940,11.34
952,11.83
963,12.34
974,12.73
986,12.92
998,12.82
1010,12.37
1022,11.52
1034,10.27
1046,8.72
1058,7.06
1070,5.48
1082,4.1
1094,2.93
1106,1.8
1118,0.52
1130,-1.07
1142,-2.99
1153,-5.1
1164,-7.19
1176,-9.08
1188,-10.71
1200,-12.15
1212,-13.52
1224,-15.0
1236,-16.73
1248,-18.85
1260,-21.38
1272,-24.23
1284,-27.02
1296,-29.14
1308,-29.84
1320,-28.52
1332,-24.97
1343,-19.48
1354,-12.79
1366,-5.82
1378,0.65
1390,6.16
1402,10.57
1414,13.92
1426,16.28
1438,17.63
1450,17.93
1462,17.24
1474,15.78
1486,13.98
1498,12.29
1510,11.12
1522,10.63
1533,10.79
1544,11.42
1556,12.26
1568,13.11
1580,13.82
1592,14.35
1604,14.64
1616,14.63
1628,14.27
1640,13.56
1652,12.51
1664,11.22
1676,9.77
1688,8.28
1700,6.8
1712,5.36
1723,4.01
1734,2.72
1746,1.37
1758,-0.18
1770,-2.08
1782,-4.36
1794,-6.89
1806,-9.37
1818,-11.47
1830,-12.98
1842,-13.93
1854,-14.56
1866,-15.28
1878,-16.43
1890,-18.24
1902,-20.66
1913,-23.4
1924,-25.92
1936,-27.55
1948,-27.68
1960,-25.83
1972,-21.93
1984,-16.29
1996,-9.65
2008,-2.89
2020,3.17
2032,8.02
2044,11.5
2056,13.72
2068,14.91
2080,15.26
2092,14.87
2103,13.78
2114,12.17
2126,10.32
2138,8.62
2150,7.42
2162,6.93
2174,7.11
2186,7.76
2198,8.62
2210,9.53
2222,10.4
2234,11.25
2246,12.06
2258,12.78
2270,13.24
2282,13.29
2293,12.83
2304,11.82
2316,10.38
2328,8.71
2340,7.03
2352,5.55
2364,4.35
2376,3.35
2388,2.38
2400,1.22
2412,-0.26
2424,-2.08
2436,-4.07
2448,-5.99
2460,-7.63
2472,-8.9
2483,-9.87
2494,-10.71
2506,-11.67
2518,-12.91
2530,-14.55
2542,-16.57
2554,-18.9
2566,-21.26
2578,-23.26
2590,-24.35
2602,-24.0
2614,-21.89
2626,-18.0
2638,-12.73
2650,-6.78
2662,-0.88
2673,4.38
2684,8.7
2696,12.01
2708,14.32
2720,15.65
2732,15.95
2744,15.2
2756,13.56
2768,11.39
2780,9.22
2792,7.57
2804,6.78
2816,6.89
2828,7.72
2840,8.94
2852,10.24
2863,11.44
2874,12.44
2886,13.2
2898,13.67
2910,13.78
2922,13.5
2934,12.82
2946,11.8
2958,10.6
2970,9.35
2982,8.17
2994,7.08
3006,6.03
3018,4.91
3030,3.65
3042,2.21
3053,0.65
3064,-0.93
3076,-2.42
3088,-3.75
3100,-4.95
3112,-6.09
3124,-7.22
3136,-8.42
3148,-9.71
3160,-11.2
3172,-12.99
3184,-15.12
3196,-17.48
3208,-19.72
3220,-21.3
3232,-21.65
3243,-20.4
3254,-17.5
3266,-13.29
3278,-8.32
3290,-3.2
3302,1.57
3314,5.69
3326,8.98
3338,11.31
3350,12.61
3362,12.84
3374,12.07
3386,10.53
3398,8.59
3410,6.66
3422,5.11
3433,4.17
3444,3.87
3456,4.13
3468,4.79
3480,5.71
3492,6.75
3504,7.79
3516,8.62
3528,9.08
3540,9.01
3552,8.38
3564,7.37
3576,6.21
3588,5.15
3600,4.26
3612,3.41
3623,2.35
3634,0.85
3646,-1.09
3658,-3.31
3670,-5.43
3682,-7.2
3694,-8.51
3706,-9.51
3718,-10.53
3730,-11.91
3742,-13.83
3754,-16.31
3766,-19.21
3778,-22.25
3790,-25.04
3802,-27.09
3813,-27.87
3824,-26.95
3836,-24.09
3848,-19.44
3860,-13.5
3872,-7.01
3884,-0.71
3896,4.84
3908,9.28
3920,12.51
3932,14.52
3944,15.39
3956,15.24
3968,14.26
3980,12.72
3992,10.94
4003,9.23
4014,7.81
4026,6.82
4038,6.34
4050,6.37
4062,6.88
4074,7.72
4086,8.69
4098,9.53
4110,9.99
4122,9.94
4134,9.37
4146,8.38
4158,7.15
4170,5.83
4182,4.48
4193,3.08
4204,1.57
4216,-0.12
4228,-2.01
4240,-4.04
4252,-6.15
4264,-8.25
4276,-10.29
4288,-12.24
4300,-14.11
4312,-15.92
4324,-17.76
4336,-19.77
4348,-22.1
4360,-24.82
4372,-27.8
4383,-30.63
4394,-32.67
4406,-33.19
4418,-31.63
4430,-27.82
4442,-22.03
4454,-14.98
4466,-7.54
4478,-0.52
4490,5.47
4502,10.12
4514,13.38
4526,15.34
4538,16.13
4550,15.92
4562,14.87
4573,13.22
4584,11.29
4596,9.47
4608,8.13
4620,7.54
4632,7.74
4644,8.55
4656,9.63
4668,10.65
4680,11.39
4692,11.83
4704,12.06
4716,12.15
4728,12.11
4740,11.77
4752,11.01
4763,9.79
4774,8.23
4786,6.56
4798,5.02
4810,3.65
4822,2.34
4834,0.85
4846,-0.98
4858,-3.16
4870,-5.49
4882,-7.71
4894,-9.64
4906,-11.24
4918,-12.68
4930,-14.2
4942,-16.09
4953,-18.5
4964,-21.45
4976,-24.73
4988,-27.91
5000,-30.33
5012,-31.3
5024,-30.29
5036,-27.07
5048,-21.88
5060,-15.32
5072,-8.15
5084,-1.13
5096,5.18
5108,10.44
5120,14.48
5132,17.21
5143,18.63
5154,18.82
5166,17.99
5178,16.49
5190,14.71
5202,13.07
5214,11.88
5226,11.32
5238,11.33
5250,11.79
5262,12.47
5274,13.14
5286,13.72
5298,14.14
5310,14.46
5322,14.69
5333,14.81
5344,14.68
5356,14.16
5368,13.1
5380,11.5
5392,9.52
5404,7.41
5416,5.47
5428,3.86
5440,2.55
5452,1.33
5464,-0.1
5476,-1.94
5488,-4.18
5500,-6.58
5512,-8.81
5523,-10.56
5534,-11.79
5546,-12.7
5558,-13.68
5570,-15.12
5582,-17.3
5594,-20.21
5606,-23.64
5618,-27.13
5630,-30.08
5642,-31.83
5654,-31.76
5666,-29.51
5678,-25.05
5690,-18.81
5702,-11.54
5713,-4.11
5724,2.72
5736,8.47
5748,12.98
5760,16.27
5772,18.38
5784,19.35
5796,19.28
5808,18.36
5820,16.93
5832,15.44
5844,14.33
5856,13.86
5868,14.07
5880,14.81
5892,15.81
5903,16.82
5914,17.66
5926,18.28
5938,18.68
5950,18.9
5962,18.9
5974,18.63
5986,17.97
5998,16.85
6010,15.32
6022,13.52
6034,11.69
6046,10.02
6058,8.61
6070,7.43
6082,6.3
6093,5.01
6104,3.42
6116,1.45
6128,-0.8
6140,-3.13
6152,-5.28
6164,-7.06
6176,-8.39
6188,-9.37
6200,-10.23
6212,-11.26
6224,-12.66
6236,-14.53
6248,-16.77
6260,-19.13
6272,-21.21
6283,-22.55
6294,-22.68
6306,-21.23
6318,-18.07
6330,-13.36
6342,-7.57
6354,-1.35
6366,4.62
6378,9.84
6390,14.03
6402,17.09
6414,19.01
6426,19.8
6438,19.46
6450,18.1
6462,15.93
6473,13.34
6484,10.81
6496,8.79
6508,7.57
6520,7.19
6532,7.51
6544,8.28
6556,9.24
6568,10.24
6580,11.17
6592,11.98
6604,12.58
6616,12.86
6628,12.67
6640,11.94
6652,10.75
6663,9.28
6674,7.81
6686,6.56
6698,5.54
6710,4.63
6722,3.56
6734,2.16
6746,0.36
6758,-1.68
6770,-3.71
6782,-5.51
6794,-6.93
6806,-8.01
6818,-8.89
6830,-9.75
6842,-10.76
6853,-12.03
6864,-13.59
6876,-15.47
6888,-17.65
6900,-19.98
6912,-22.11
6924,-23.51
6936,-23.61
6948,-21.97
6960,-18.54
6972,-13.7
6984,-8.15
6996,-2.63
7008,2.31
7020,6.45
7032,9.78
7043,12.3
7054,13.92
7066,14.46
7078,13.81
7090,12.11
7102,9.76
7114,7.34
7126,5.39
7138,4.26
7150,4.0
7162,4.49
7174,5.48
7186,6.75
7198,8.1
7210,9.33
7222,10.28
7233,10.78
7244,10.71
7256,10.06
7268,8.95
7280,7.58
7292,6.21
7304,5.02
7316,4.03
7328,3.1
7340,1.98
7352,0.47
7364,-1.49
7376,-3.79
7388,-6.15
7400,-8.31
7412,-10.06
7423,-11.42
7434,-12.55
7446,-13.74
7458,-15.27
7470,-17.37
7482,-20.11
7494,-23.34
7506,-26.68
7518,-29.54
7530,-31.21
7542,-31.09
7554,-28.83
7566,-24.49
7578,-18.54
7590,-11.76
7602,-4.97
7613,1.15
7624,6.22
7636,10.16
7648,13.04
7660,15.0
7672,16.08
7684,16.27
7696,15.61
7708,14.27
7720,12.6
7732,11.04
7744,10.01
7756,9.71
7768,10.1
7780,10.94
7792,11.91
7803,12.78
7814,13.44
7826,13.85
7838,14.02
7850,13.89
7862,13.37
7874,12.43
7886,11.07
7898,9.41
7910,7.56
7922,5.58
7934,3.49
7946,1.26
7958,-1.12
7970,-3.57
7982,-5.97
7993,-8.18
8004,-10.13
8016,-11.79
8028,-13.2
8040,-14.45
8052,-15.67
8064,-17.06
8076,-18.85
8088,-21.22
8100,-24.13
8112,-27.25
8124,-29.93
8136,-31.36
8148,-30.88
8160,-28.15
8172,-23.32
8183,-16.97
8194,-9.92
8206,-3.02
8218,3.09
8230,8.06
8242,11.78
8254,14.33
8266,15.87
8278,16.54
8290,16.5
8302,15.89
8314,14.91
8326,13.78
8338,12.74
8350,11.99
8362,11.63
8373,11.67
8384,12.05
8396,12.68
8408,13.46
8420,14.29
8432,15.01
8444,15.44
8456,15.42
8468,14.84
8480,13.76
8492,12.33
8504,10.76
8516,9.18
8528,7.64
8540,6.04
8552,4.25
8563,2.18
8574,-0.16
8586,-2.6
8598,-4.91
8610,-6.92
8622,-8.55
8634,-9.88
8646,-11.08
8658,-12.36
8670,-13.9
8682,-15.83
8694,-18.21
8706,-20.98
8718,-23.88
8730,-26.44
8742,-28.0
8753,-27.85
8764,-25.54
8776,-21.03
8788,-14.79
8800,-7.65
8812,-0.55
8824,5.78
8836,10.94
8848,14.84
8860,17.54
8872,19.17
8884,19.78
8896,19.43
8908,18.3
8920,16.66
8932,14.91
8943,13.45
8954,12.59
8966,12.39
8978,12.75
8990,13.4
9002,14.08
9014,14.61
9026,14.93
9038,15.06
9050,15.02
9062,14.77
9074,14.24
9086,13.36
9098,12.18
9110,10.79
9122,9.35
9133,8.01
9144,6.83
9156,5.73
9168,4.58
9180,3.22
9192,1.54
9204,-0.47
9216,-2.68
9228,-4.92
9240,-7.01
9252,-8.86
9264,-10.49
9276,-12.03
9288,-13.72
9300,-15.8
9312,-18.4
9323,-21.47
9334,-24.69
9346,-27.47
9358,-29.1
9370,-28.93
9382,-26.58
9394,-22.14
9406,-16.14
9418,-9.41
9430,-2.8
9442,3.09
9454,7.97
9466,11.81
9478,14.64
9490,16.42
9502,17.03
9513,16.42
9524,14.79
9536,12.61
9548,10.5
9560,8.99
9572,8.37
9584,8.57
9596,9.31
9608,10.26
9620,11.19
9632,11.98
9644,12.63
9656,13.09
9668,13.28
9680,13.11
9692,12.51
9703,11.49
9714,10.13
9726,8.54
9738,6.86
9750,5.22
9762,3.7
9774,2.34
9786,1.1
9798,-0.13
9810,-1.46
9822,-2.94
9834,-4.5
9846,-5.97
9858,-7.2
9870,-8.15
9882,-8.95
9893,-9.89
9904,-11.28
9916,-13.28
9928,-15.82
9940,-18.54
9952,-20.86
9964,-22.16
9976,-21.93
9988,-19.91
10000,-16.17
10012,-11.08
10024,-5.22
10036,0.74
10048,6.22
10060,10.75
10072,14.11
10083,16.22
10094,17.1
10106,16.87
10118,15.65
10130,13.68
10142,11.27
10154,8.83
10166,6.8
10178,5.47
10190,4.95
10202,5.11
10214,5.71
10226,6.49
10238,7.29
10250,8.03
10262,8.66
10273,9.04
10284,9.01
10296,8.44
10308,7.32
10320,5.8
10332,4.13
10344,2.54
10356,1.13
10368,-0.19
10380,-1.59
10392,-3.2
10404,-5.04
10416,-6.97
10428,-8.82
10440,-10.46
10452,-11.87
10463,-13.14
10474,-14.44
10486,-15.89
10498,-17.6
10510,-19.57
10522,-21.74
10534,-23.86
10546,-25.52
10558,-26.17
10570,-25.29
10582,-22.58
10594,-18.12
10606,-12.37
10618,-6.03
10630,0.18
10642,5.73
10653,10.33
10664,13.88
10676,16.39
10688,17.78
10700,18.0
10712,17.04
10724,15.11
10736,12.63
10748,10.12
10760,8.1
10772,6.86
10784,6.44
10796,6.61
10808,7.09
10820,7.62
10832,8.05
10843,8.35
10854,8.47
10866,8.39
10878,8.04
10890,7.41
10902,6.53
10914,5.48
10926,4.33
10938,3.05
10950,1.57
10962,-0.22
10974,-2.33
10986,-4.64
10998,-6.9
11010,-8.84
11022,-10.36
11033,-11.5
11044,-12.47
11056,-13.52
11068,-14.82
11080,-16.44
11092,-18.41
11104,-20.72
11116,-23.31
11128,-25.96
11140,-28.19
11152,-29.33
11164,-28.68
11176,-25.82
11188,-20.84
11200,-14.36
11212,-7.31
11223,-0.56
11234,5.24
11246,9.87
11258,13.35
11270,15.76
11282,17.17
11294,17.58
11306,17.02
11318,15.68
11330,13.86
11342,11.97
11354,10.39
11366,9.34
11378,8.89
11390,8.94
11402,9.28
11413,9.73
11424,10.17
11436,10.55
11448,10.87
11460,11.08
11472,11.11
11484,10.83
11496,10.16
11508,9.14
11520,7.9
11532,6.64
11544,5.5
11556,4.47
11568,3.45
11580,2.23
11592,0.63
11603,-1.35
11614,-3.55
11626,-5.7
11638,-7.54
11650,-8.95
11662,-10.0
11674,-10.9
11686,-11.94
11698,-13.4
11710,-15.44
11722,-18.08
11734,-21.12
11746,-24.19
11758,-26.72
11770,-28.02
11782,-27.5
11793,-24.83
11804,-20.15
11816,-14.01
11828,-7.22
11840,-0.61
11852,5.21
11864,9.9
11876,13.41
11888,15.79
11900,17.11
11912,17.43
11924,16.85
11936,15.62
11948,14.07
11960,12.59
11972,11.5
11983,10.95
11994,10.94
12006,11.31
12018,11.89
12030,12.49
12042,12.99
12054,13.31
12066,13.39
12078,13.23
12090,12.8
12102,12.12
12114,11.24
12126,10.19
12138,9.02
12150,7.77
12162,6.53
12173,5.36
12184,4.3
12196,3.29
12208,2.18
12220,0.74
12232,-1.15
12244,-3.51
12256,-6.14
12268,-8.72
12280,-10.93
12292,-12.62
12304,-13.82
12316,-14.75
12328,-15.73
12340,-17.05
12352,-18.89
12363,-21.25
12374,-23.88
12386,-26.3
12398,-27.86
12410,-27.87
12422,-25.89
12434,-21.83
12446,-16.07
12458,-9.32
12470,-2.41
12482,3.93
12494,9.23
12506,13.25
12518,15.96
12530,17.41
12542,17.71
12553,17.05
12564,15.7
12576,14.02
12588,12.43
12600,11.24
12612,10.65
12624,10.65
12636,11.12
12648,11.83
12660,12.59
12672,13.24
12684,13.71
12696,14.03
12708,14.21
12720,14.27
12732,14.17
12743,13.79
12754,13.04
12766,11.86
12778,10.28
12790,8.45
12802,6.61
12814,4.96
12826,3.62
12838,2.56
12850,1.59
12862,0.5
12874,-0.86
12886,-2.47
12898,-4.16
12910,-5.73
12922,-6.98
12933,-7.89
12944,-8.56
12956,-9.21
12968,-10.04
12980,-11.23
12992,-12.9
13004,-15.07
13016,-17.67
13028,-20.45
13040,-22.97
13052,-24.62
13064,-24.79
13076,-23.06
13088,-19.39
13100,-14.18
13112,-8.12
13123,-2.01
13134,3.5
13146,7.98
13158,11.32
13170,13.53
13182,14.66
13194,14.77
13206,13.96
13218,12.45
13230,10.6
13242,8.85
13254,7.6
13266,7.09
13278,7.33
13290,8.15
13302,9.32
13313,10.59
13324,11.8
13336,12.81
13348,13.51
13360,13.83
13372,13.68
13384,13.04
13396,11.97
13408,10.54
13420,8.87
13432,7.09
13444,5.32
13456,3.69
13468,2.3
13480,1.14
13492,0.18
13503,-0.71
13514,-1.66
13526,-2.78
13538,-4.11
13550,-5.57
13562,-7.07
13574,-8.47
13586,-9.7
13598,-10.79
13610,-11.89
13622,-13.18
13634,-14.82
13646,-16.84
13658,-19.05
13670,-21.05
13682,-22.29
13693,-22.25
13704,-20.61
13716,-17.34
13728,-12.75
13740,-7.37
13752,-1.8
13764,3.46
13776,7.97
13788,11.48
13800,13.8
13812,14.83
13824,14.59
13836,13.24
13848,11.09
13860,8.58
13872,6.21
13883,4.39
13894,3.36
13906,3.15
13918,3.62
13930,4.53
13942,5.65
13954,6.77
13966,7.76
13978,8.51
13990,8.95
14002,8.99
14014,8.64
14026,7.93
14038,6.93
14050,5.74
14062,4.39
14073,2.87
14084,1.15
14096,-0.78
14108,-2.85
14120,-4.93
14132,-6.89
14144,-8.67
14156,-10.25
14168,-11.69
14180,-13.04
14192,-14.37
14204,-15.76
14216,-17.31
14228,-19.15
14240,-21.3
14252,-23.61
14263,-25.64
14274,-26.78
14286,-26.43
14298,-24.25
14310,-20.33
14322,-15.15
14334,-9.42
14346,-3.81
14358,1.19
14370,5.37
14382,8.64
14394,10.98
14406,12.32
14418,12.61
14430,11.88
14442,10.35
14453,8.43
14464,6.6
14476,5.29
14488,4.71
14500,4.89
14512,5.64
14524,6.69
14536,7.76
14548,8.66
14560,9.3
14572,9.63
14584,9.69
14596,9.49
14608,9.04
14620,8.37
14632,7.49
14643,6.43
14654,5.19
14666,3.76
14678,2.09
14690,0.16
14702,-1.99
14714,-4.23
14726,-6.43
14738,-8.44
14750,-10.2
14762,-11.74
14774,-13.15
14786,-14.56
14798,-16.07
14810,-17.75
14822,-19.69
14833,-21.94
14844,-24.44
14856,-26.88
14868,-28.7
14880,-29.19
14892,-27.75
14904,-24.14
14916,-18.65
14928,-12.05
14940,-5.33
14952,0.68
14964,5.47
14976,8.95
14988,11.3
15000,12.77
15012,13.52
15023,13.63
15034,13.14
15046,12.19
15058,11.03
15070,9.96
15082,9.27
15094,9.08
15106,9.33
15118,9.87
15130,10.5
15142,11.13
15154,11.69
15166,12.19
15178,12.56
15190,12.68
15202,12.39
15213,11.63
15224,10.49
15236,9.14
15248,7.81
15260,6.58
15272,5.41
15284,4.13
15296,2.6
15308,0.79
15320,-1.22
15332,-3.28
15344,-5.26
15356,-7.06
15368,-8.67
15380,-10.11
15392,-11.45
15403,-12.82
15414,-14.46
15426,-16.57
15438,-19.24
15450,-22.3
15462,-25.22
15474,-27.24
15486,-27.64
15498,-25.92
15510,-22.06
15522,-16.48
15534,-9.93
15546,-3.19
15558,3.05
15570,8.37
15582,12.52
15593,15.42
15604,17.0
15616,17.32
15628,16.53
15640,14.98
15652,13.16
15664,11.57
15676,10.59
15688,10.33
15700,10.7
15712,11.46
15724,12.39
15736,13.33
15748,14.21
15760,15.02
15772,15.74
15783,16.26
15794,16.45
15806,16.16
15818,15.33
15830,13.98
15842,12.28
15854,10.41
15866,8.55
15878,6.84
15890,5.29
15902,3.87
15914,2.48
15926,1.04
15938,-0.48
15950,-2.06
15962,-3.64
15973,-5.12
15984,-6.42
15996,-7.54
16008,-8.56
16020,-9.63
16032,-10.96
16044,-12.72
16056,-14.98
16068,-17.65
16080,-20.39
16092,-22.65
16104,-23.84
16116,-23.36
16128,-20.91
16140,-16.59
16152,-10.89
16163,-4.6
16174,1.48
16186,6.75
16198,10.93
16210,13.98
16222,15.98
16234,16.98
16246,16.98
16258,15.98
16270,14.21
16282,12.06
16294,10.1
16306,8.79
16318,8.38
16330,8.81
16342,9.8
16353,10.99
16364,12.12
16376,13.05
16388,13.77
16400,14.28
16412,14.57
16424,14.56
16436,14.18
16448,13.39
16460,12.21
16472,10.76
16484,9.19
16496,7.67
16508,6.3
16520,5.1
16532,4.0
16543,2.86
16554,1.56
16566,0.03
16578,-1.74
16590,-3.64
16602,-5.55
16614,-7.3
16626,-8.78
16638,-9.92
16650,-10.78
16662,-11.54
16674,-12.42
16686,-13.68
16698,-15.48
16710,-17.77
16722,-20.25
16733,-22.41
16744,-23.61
16756,-23.3
16768,-21.21
16780,-17.41
16792,-12.35
16804,-6.74
16816,-1.29
16828,3.46
16840,7.18
16852,9.79
16864,11.33
16876,11.86
16888,11.47
16900,10.28
16912,8.58
16923,6.78
16934,5.34
16946,4.63
16958,4.75
16970,5.57
16982,6.75
16994,7.96
17006,8.99
17018,9.78
17030,10.43
17042,10.95
17054,11.33
17066,11.46
17078,11.19
17090,10.5
17102,9.45
17113,8.17
17124,6.82
17136,5.52
17148,4.28
17160,3.07
17172,1.84
17184,0.56
17196,-0.76
17208,-2.08
17220,-3.35
17232,-4.56
17244,-5.7
17256,-6.83
17268,-8.02
17280,-9.37
17292,-10.99
17303,-12.93
17314,-15.14
17326,-17.37
17338,-19.24
17350,-20.25
17362,-19.97
17374,-18.14
17386,-14.84
17398,-10.41
17410,-5.41
17422,-0.38
17434,4.2
17446,8.05
17458,11.02
17470,13.02
17482,13.97
17493,13.86
17504,12.76
17516,10.92
17528,8.72
17540,6.67
17552,5.18
17564,4.51
17576,4.68
17588,5.52
17600,6.76
17612,8.12
17624,9.35
17636,10.25
17648,10.67
17660,10.47
17672,9.6
17683,8.16
17694,6.37
17706,4.51
17718,2.81
17730,1.35
17742,0.02
17754,-1.35
17766,-2.94
17778,-4.78
17790,-6.78
17802,-8.75
17814,-10.56
17826,-12.14
17838,-13.54
17850,-14.87
17862,-16.24
17873,-17.7
17884,-19.29
17896,-21.06
17908,-23.03
17920,-25.17
17932,-27.23
17944,-28.73
17956,-29.05
17968,-27.62
17980,-24.18
17992,-18.95
18004,-12.55
18016,-5.83
18028,0.46
18040,5.81
18052,10.0
18063,13.04
18074,14.95
18086,15.74
18098,15.46
18110,14.26
18122,12.45
18134,10.53
18146,8.99
18158,8.18
18170,8.19
18182,8.85
18194,9.82
18206,10.75
18218,11.42
18230,11.73
18242,11.74
18253,11.5
18264,11.07
18276,10.45
18288,9.67
18300,8.78
18312,7.82
18324,6.82
18336,5.72
18348,4.39
18360,2.76
18372,0.82
18384,-1.28
18396,-3.35
18408,-5.18
18420,-6.67
18432,-7.88
18443,-8.99
18454,-10.17
18466,-11.59
18478,-13.32
18490,-15.41
18502,-17.88
18514,-20.72
18526,-23.75
18538,-26.57
18550,-28.55
18562,-29.0
18574,-27.37
18586,-23.52
18598,-17.78
18610,-10.87
18622,-3.65
18633,3.11
18644,8.84
18656,13.28
18668,16.34
18680,18.04
18692,18.49
18704,17.87
18716,16.49
18728,14.7
18740,12.89
18752,11.39
18764,10.42
18776,10.06
18788,10.22
18800,10.73
18812,11.34
18823,11.87
18834,12.24
18846,12.5
18858,12.76
18870,13.07
18882,13.39
18894,13.53
18906,13.21
18918,12.27
18930,10.71
18942,8.77
18954,6.79
18966,5.05
18978,3.63
18990,2.43
19002,1.17
19013,-0.35
19024,-2.18
19036,-4.23
19048,-6.3
19060,-8.23
19072,-9.97
19084,-11.6
19096,-13.27
19108,-15.11
19120,-17.24
19132,-19.63
19144,-22.19
19156,-24.69
19168,-26.73
19180,-27.79
19192,-27.41
19203,-25.25
19214,-21.34
19226,-16.04
19238,-9.95
19250,-3.74
19262,2.02
19274,6.97
19286,10.95
19298,13.89
19310,15.77
19322,16.62
19334,16.48
19346,15.57
19358,14.22
19370,12.86
19382,11.88
19393,11.52
19404,11.79
19416,12.51
19428,13.39
19440,14.13
19452,14.56
19464,14.64
19476,14.44
19488,14.11
19500,13.75
19512,13.39
19524,12.95
19536,12.32
19548,11.36
19560,10.06
19572,8.5
19583,6.89
19594,5.43
19606,4.25
19618,3.34
19630,2.54
19642,1.63
19654,0.4
19666,-1.24
19678,-3.22
19690,-5.34
19702,-7.35
19714,-9.03
19726,-10.3
19738,-11.25
19750,-12.1
19762,-13.14
19773,-14.63
19784,-16.72
19796,-19.35
19808,-22.25
19820,-24.91
19832,-26.69
19844,-26.96
19856,-25.29
19868,-21.6
19880,-16.24
19892,-9.91
19904,-3.43
19916,2.47
19928,7.36
19940,11.1
19952,13.75
19963,15.4
19974,16.09
19986,15.82
19998,14.65
20010,12.84
20022,10.83
20034,9.17
20046,8.3
20058,8.41
20070,9.33
20082,10.64
20094,11.87
20106,12.69
20118,13.04
20130,13.07
20142,13.01
20153,13.02
20164,13.05
20176,12.88
20188,12.29
20200,11.15
20212,9.6
20224,7.94
20236,6.55
20248,5.7
20260,5.43
20272,5.5
20284,5.49
20296,5.04
20308,3.93
20320,2.19
20332,0.04
20343,-2.22
20354,-4.32
20366,-6.16
20378,-7.72
20390,-9.06
20402,-10.26
20414,-11.44
20426,-12.77
20438,-14.44
20450,-16.55
20462,-18.98
20474,-21.32
20486,-22.91
20498,-23.05
20510,-21.29
20522,-17.6
20533,-12.42
20544,-6.47
20556,-0.52
20568,4.85
20580,9.31
20592,12.67
20604,14.86
20616,15.81
20628,15.5
20640,14.09
20652,11.95
20664,9.61
20676,7.62
20688,6.38
20700,6.02
20712,6.42
20723,7.27
20734,8.24
20746,9.08
20758,9.67
20770,10.0
20782,10.11
20794,10.04
20806,9.78
20818,9.29
20830,8.53
20842,7.5
20854,6.28
20866,4.95
20878,3.62
20890,2.3
20902,0.96
20913,-0.53
20924,-2.24
20936,-4.13
20948,-6.09
20960,-7.89
20972,-9.4
20984,-10.58
20996,-11.58
