seconds,BVP
2,-5.63
14,-6.53
26,-7.38
38,-8.1
49,-8.55
60,-8.56
72,-8.04
84,-7.0
96,-5.63
108,-4.17
120,-2.83
132,-1.67
144,-0.63
156,0.37
168,1.32
180,2.09
192,2.52
204,2.52
216,2.16
228,1.62
239,1.11
250,0.8
262,0.73
274,0.9
286,1.27
298,1.79
310,2.37
322,2.9
334,3.31
346,3.55
358,3.68
370,3.82
382,4.06
394,4.37
406,4.63
418,4.64
429,4.3
440,3.6
452,2.69
464,1.79
476,1.07
488,0.6
500,0.32
512,0.13
524,-0.12
536,-0.52
548,-1.12
560,-1.89
572,-2.72
584,-3.51
596,-4.11
608,-4.4
619,-4.29
630,-3.72
642,-2.72
654,-1.39
666,0.11
678,1.58
690,2.79
702,3.63
714,4.05
726,4.12
738,4.01
750,3.86
762,3.78
774,3.81
786,3.88
798,3.94
809,3.93
820,3.82
832,3.62
844,3.33
856,2.97
868,2.57
880,2.19
892,1.9
904,1.76
916,1.77
928,1.85
940,1.88
952,1.74
964,1.39
976,0.84
988,0.2
999,-0.48
1010,-1.14
1022,-1.76
1034,-2.36
1046,-2.98
1058,-3.66
1070,-4.45
1082,-5.36
1094,-6.32
1106,-7.15
1118,-7.66
1130,-7.69
1142,-7.19
1154,-6.27
1166,-5.09
1178,-3.8
1189,-2.48
1200,-1.13
1212,0.22
1224,1.46
1236,2.39
1248,2.83
1260,2.73
1272,2.21
1284,1.52
1296,0.93
1308,0.58
1320,0.45
1332,0.44
1344,0.41
1356,0.28
1368,0.07
1379,-0.17
1390,-0.35
1402,-0.42
1414,-0.36
1426,-0.18
1438,0.03
1450,0.18
1462,0.12
1474,-0.21
1486,-0.85
1498,-1.68
1510,-2.55
1522,-3.29
1534,-3.79
1546,-4.05
1558,-4.14
1569,-4.24
1580,-4.52
1592,-5.09
1604,-5.95
1616,-6.96
1628,-7.85
1640,-8.31
1652,-8.09
1664,-7.15
1676,-5.61
1688,-3.76
1700,-1.93
1712,-0.36
1724,0.88
1736,1.78
1748,2.36
1759,2.61
1770,2.49
1782,1.94
1794,1.05
1806,0.03
1818,-0.83
1830,-1.26
1842,-1.12
1854,-0.49
1866,0.41
1878,1.28
1890,1.92
1902,2.27
1914,2.37
1926,2.35
1938,2.3
1949,2.23
1960,2.06
1972,1.69
1984,1.09
1996,0.29
2008,-0.56
2020,-1.28
2032,-1.76
2044,-1.99
2056,-2.08
2068,-2.2
2080,-2.5
2092,-3.05
2104,-3.81
2116,-4.69
2128,-5.54
2139,-6.2
2150,-6.51
2162,-6.37
2174,-5.71
2186,-4.57
2198,-3.07
2210,-1.43
2222,0.17
2234,1.59
2246,2.76
2258,3.65
2270,4.25
2282,4.52
2294,4.43
2306,4.01
2318,3.35
2329,2.59
2340,1.92
2352,1.46
2364,1.32
2376,1.5
2388,1.91
2400,2.42
2412,2.85
2424,3.06
2436,3.03
2448,2.77
2460,2.4
2472,1.99
2484,1.52
2496,0.93
2508,0.15
2519,-0.82
2530,-1.87
2542,-2.84
2554,-3.62
2566,-4.21
2578,-4.7
2590,-5.2
2602,-5.77
2614,-6.38
2626,-6.94
2638,-7.37
2650,-7.64
2662,-7.74
2674,-7.66
2686,-7.35
2698,-6.74
2709,-5.78
2720,-4.48
2732,-2.92
2744,-1.25
2756,0.36
2768,1.76
2780,2.84
2792,3.51
2804,3.75
2816,3.59
2828,3.15
2840,2.6
2852,2.16
2864,1.94
2876,2.0
2888,2.29
2899,2.67
2910,3.04
2922,3.39
2934,3.75
2946,4.14
2958,4.53
2970,4.83
2982,4.89
2994,4.66
3006,4.13
3018,3.45
3030,2.74
3042,2.11
3054,1.56
3066,1.06
3078,0.56
3089,0.03
3100,-0.5
3112,-1.02
3124,-1.55
3136,-2.12
3148,-2.79
3160,-3.54
3172,-4.3
3184,-4.93
3196,-5.25
3208,-5.17
3220,-4.64
3232,-3.66
3244,-2.35
3256,-0.84
3268,0.7
3279,2.15
3290,3.39
3302,4.35
3314,4.95
3326,5.17
3338,4.99
3350,4.48
3362,3.76
3374,3.03
3386,2.49
3398,2.3
3410,2.5
3422,3.02
3434,3.68
3446,4.27
3458,4.64
3469,4.74
3480,4.63
3492,4.39
3504,4.09
3516,3.74
3528,3.32
3540,2.8
3552,2.21
3564,1.62
3576,1.1
3588,0.67
3600,0.27
3612,-0.17
3624,-0.72
3636,-1.4
3648,-2.13
3659,-2.84
3670,-3.52
3682,-4.21
3694,-4.97
3706,-5.76
3718,-6.4
3730,-6.68
3742,-6.39
3754,-5.5
3766,-4.19
3778,-2.75
3790,-1.44
3802,-0.42
3814,0.37
3826,1.09
3838,1.87
3849,2.78
3860,3.7
3872,4.43
3884,4.76
3896,4.58
3908,3.94
3920,3.08
3932,2.28
3944,1.8
3956,1.76
3968,2.04
3980,2.41
3992,2.67
4004,2.7
4016,2.56
4028,2.36
4039,2.18
4050,1.98
4062,1.6
4074,0.92
4086,-0.09
4098,-1.32
4110,-2.52
4122,-3.48
4134,-4.09
4146,-4.38
4158,-4.49
4170,-4.58
4182,-4.78
4194,-5.16
4206,-5.78
4218,-6.69
4229,-7.83
4240,-9.05
4252,-10.08
4264,-10.58
4276,-10.32
4288,-9.22
4300,-7.45
4312,-5.33
4324,-3.17
4336,-1.22
4348,0.43
4360,1.8
4372,2.91
4384,3.77
4396,4.35
4408,4.59
4419,4.49
4430,4.14
4442,3.65
4454,3.2
4466,2.91
4478,2.87
4490,3.06
4502,3.39
4514,3.73
4526,3.96
4538,4.01
4550,3.92
4562,3.74
4574,3.57
4586,3.43
4598,3.27
4609,3.01
4620,2.59
4632,1.99
4644,1.28
4656,0.51
4668,-0.21
4680,-0.86
4692,-1.44
4704,-2.0
4716,-2.58
4728,-3.23
4740,-3.92
4752,-4.63
4764,-5.32
4776,-5.95
4788,-6.5
4799,-6.9
4810,-7.03
4822,-6.78
4834,-6.01
4846,-4.74
4858,-3.08
4870,-1.29
4882,0.36
4894,1.7
4906,2.68
4918,3.37
4930,3.85
4942,4.17
4954,4.27
4966,4.07
4978,3.58
4989,2.92
5000,2.33
5012,2.06
5024,2.19
5036,2.66
5048,3.24
5060,3.73
5072,4.0
5084,4.05
5096,3.96
5108,3.8
5120,3.59
5132,3.3
5144,2.88
5156,2.31
5168,1.65
5179,0.97
5190,0.33
5202,-0.19
5214,-0.58
5226,-0.85
5238,-1.04
5250,-1.2
5262,-1.43
5274,-1.82
5286,-2.42
5298,-3.26
5310,-4.29
5322,-5.39
5334,-6.39
5346,-7.04
5358,-7.11
5369,-6.44
5380,-5.04
5392,-3.07
5404,-0.83
5416,1.38
5428,3.35
5440,4.93
5452,6.08
5464,6.77
5476,6.99
5488,6.81
5500,6.35
5512,5.79
5524,5.28
5536,4.9
5548,4.63
5559,4.39
5570,4.13
5582,3.89
5594,3.74
5606,3.74
5618,3.88
5630,4.05
5642,4.15
5654,4.11
5666,3.96
5678,3.77
5690,3.57
5702,3.32
5714,2.89
5726,2.21
5738,1.29
5749,0.22
5760,-0.88
5772,-1.88
5784,-2.78
5796,-3.6
5808,-4.39
5820,-5.2
5832,-6.02
5844,-6.79
5856,-7.42
5868,-7.83
5880,-7.95
5892,-7.71
5904,-7.08
5916,-6.06
5928,-4.69
5939,-3.1
5950,-1.43
5962,0.15
5974,1.51
5986,2.55
5998,3.22
6010,3.47
6022,3.32
6034,2.83
6046,2.16
6058,1.49
6070,1.05
6082,0.98
6094,1.28
6106,1.83
6118,2.44
6129,2.93
6140,3.2
6152,3.24
6164,3.13
6176,2.94
6188,2.69
6200,2.4
6212,2.03
6224,1.57
6236,1.0
6248,0.32
6260,-0.46
6272,-1.3
6284,-2.11
6296,-2.85
6308,-3.49
6319,-4.11
6330,-4.77
6342,-5.52
6354,-6.25
6366,-6.76
6378,-6.76
6390,-6.06
6402,-4.63
6414,-2.65
6426,-0.45
6438,1.65
6450,3.38
6462,4.63
6474,5.4
6486,5.75
6498,5.74
6509,5.41
6520,4.86
6532,4.2
6544,3.63
6556,3.32
6568,3.32
6580,3.59
6592,3.96
6604,4.24
6616,4.34
6628,4.25
6640,4.08
6652,3.94
6664,3.85
6676,3.72
6688,3.42
6699,2.81
6710,1.92
6722,0.88
6734,-0.08
6746,-0.82
6758,-1.33
6770,-1.78
6782,-2.41
6794,-3.38
6806,-4.68
6818,-6.12
6830,-7.39
6842,-8.27
6854,-8.64
6866,-8.55
6878,-8.09
6889,-7.37
6900,-6.42
6912,-5.24
6924,-3.85
6936,-2.37
6948,-0.92
6960,0.38
6972,1.47
6984,2.37
6996,3.11
7008,3.72
7020,4.16
7032,4.37
7044,4.31
7056,4.05
7068,3.72
7079,3.45
7090,3.36
7102,3.39
7114,3.45
7126,3.41
7138,3.22
7150,2.95
7162,2.7
7174,2.57
7186,2.58
7198,2.63
7210,2.62
7222,2.41
7234,1.95
7246,1.23
7258,0.3
7269,-0.75
7280,-1.81
7292,-2.77
7304,-3.61
7316,-4.39
7328,-5.23
7340,-6.23
7352,-7.35
7364,-8.36
7376,-8.93
7388,-8.76
7400,-7.76
7412,-6.06
7424,-4.01
7436,-1.96
7448,-0.19
7459,1.22
7470,2.3
7482,3.15
7494,3.8
7506,4.21
7518,4.34
7530,4.13
7542,3.68
7554,3.14
7566,2.71
7578,2.51
7590,2.56
7602,2.76
7614,2.96
7626,3.1
7638,3.15
7649,3.18
7660,3.23
7672,3.28
7684,3.23
7696,2.96
7708,2.43
7720,1.71
7732,0.94
7744,0.32
7756,-0.06
7768,-0.22
7780,-0.34
7792,-0.61
7804,-1.18
7816,-2.06
7828,-3.18
7839,-4.35
7850,-5.41
7862,-6.25
7874,-6.77
7886,-6.91
7898,-6.6
7910,-5.79
7922,-4.52
7934,-2.94
7946,-1.26
7958,0.31
7970,1.64
7982,2.67
7994,3.42
8006,3.88
8018,4.01
8029,3.76
8040,3.19
8052,2.44
8064,1.74
8076,1.32
8088,1.27
8100,1.57
8112,2.04
8124,2.49
8136,2.8
8148,2.97
8160,3.04
8172,3.09
8184,3.16
8196,3.22
8208,3.17
8219,2.96
8230,2.56
8242,2.02
8254,1.43
8266,0.86
8278,0.35
8290,-0.11
8302,-0.56
8314,-1.06
8326,-1.68
8338,-2.44
8350,-3.32
8362,-4.17
8374,-4.81
8386,-4.98
8398,-4.52
8409,-3.39
8420,-1.73
8432,0.17
8444,2.03
8456,3.61
8468,4.8
8480,5.59
8492,6.02
8504,6.12
8516,5.86
8528,5.24
8540,4.34
8552,3.35
8564,2.5
8576,2.01
8588,1.94
8599,2.2
8610,2.63
8622,3.03
8634,3.28
8646,3.38
8658,3.33
8670,3.18
8682,2.88
8694,2.43
8706,1.8
8718,1.08
8730,0.36
8742,-0.3
8754,-0.91
8766,-1.56
8778,-2.34
8789,-3.26
8800,-4.28
8812,-5.3
8824,-6.17
8836,-6.78
8848,-7.05
8860,-6.91
8872,-6.35
8884,-5.35
8896,-3.95
8908,-2.24
8920,-0.41
8932,1.33
8944,2.8
8956,3.9
8968,4.61
8979,4.97
8990,5.02
9002,4.81
9014,4.36
9026,3.76
9038,3.12
9050,2.6
9062,2.35
9074,2.43
9086,2.75
9098,3.19
9110,3.61
9122,3.91
9134,4.07
9146,4.07
9158,3.87
9169,3.42
9180,2.72
9192,1.84
9204,0.93
9216,0.18
9228,-0.29
9240,-0.52
9252,-0.63
9264,-0.85
9276,-1.33
9288,-2.16
9300,-3.31
9312,-4.67
9324,-6.06
9336,-7.28
9348,-8.07
9359,-8.2
9370,-7.48
9382,-5.89
9394,-3.61
9406,-1.02
9418,1.41
9430,3.26
9442,4.31
9454,4.61
9466,4.4
9478,4.0
9490,3.67
9502,3.53
9514,3.57
9526,3.72
9538,3.88
9549,4.01
9560,4.08
9572,4.07
9584,3.98
9596,3.82
9608,3.67
9620,3.58
9632,3.6
9644,3.68
9656,3.73
9668,3.63
9680,3.34
9692,2.88
9704,2.31
9716,1.67
9728,0.99
9739,0.24
9750,-0.56
9762,-1.34
9774,-1.99
9786,-2.43
9798,-2.69
9810,-2.91
9822,-3.27
9834,-3.91
9846,-4.77
9858,-5.6
9870,-6.06
9882,-5.82
9894,-4.77
9906,-3.03
9918,-0.96
9929,1.02
9940,2.54
9952,3.45
9964,3.76
9976,3.66
9988,3.33
10000,2.93
10012,2.51
10024,2.06
10036,1.59
10048,1.14
10060,0.85
10072,0.8
10084,1.04
10096,1.48
10108,1.94
10119,2.25
10130,2.3
10142,2.08
10154,1.69
10166,1.29
10178,0.96
10190,0.73
10202,0.55
10214,0.34
10226,0.02
10238,-0.4
10250,-0.86
10262,-1.34
10274,-1.79
10286,-2.21
10298,-2.62
10309,-3.04
10320,-3.49
10332,-3.95
10344,-4.47
10356,-5.04
10368,-5.66
10380,-6.22
10392,-6.58
10404,-6.56
10416,-6.01
10428,-4.93
10440,-3.4
10452,-1.64
10464,0.14
10476,1.73
10488,3.0
10499,3.86
10510,4.31
10522,4.35
10534,4.07
10546,3.62
10558,3.15
10570,2.76
10582,2.51
10594,2.38
10606,2.33
10618,2.32
10630,2.36
10642,2.4
10654,2.43
10666,2.4
10678,2.31
10689,2.22
10700,2.18
10712,2.22
10724,2.29
10736,2.26
10748,1.98
10760,1.41
10772,0.59
10784,-0.31
10796,-1.13
10808,-1.78
10820,-2.27
10832,-2.73
10844,-3.22
10856,-3.8
10868,-4.42
10879,-4.97
10890,-5.37
10902,-5.54
10914,-5.4
10926,-4.89
10938,-3.95
10950,-2.6
10962,-0.96
10974,0.7
10986,2.13
10998,3.15
11010,3.7
11022,3.9
11034,3.86
11046,3.69
11058,3.42
11069,3.04
11080,2.59
11092,2.17
11104,1.89
11116,1.79
11128,1.82
11140,1.89
11152,1.88
11164,1.75
11176,1.56
11188,1.4
11200,1.35
11212,1.44
11224,1.65
11236,1.85
11248,1.92
11259,1.72
11270,1.19
11282,0.34
11294,-0.69
11306,-1.76
11318,-2.69
11330,-3.37
11342,-3.77
11354,-3.92
11366,-3.93
11378,-3.96
11390,-4.17
11402,-4.69
11414,-5.48
11426,-6.39
11438,-7.12
11449,-7.38
11460,-6.95
11472,-5.81
11484,-4.11
11496,-2.1
11508,-0.07
11520,1.75
11532,3.17
11544,4.1
11556,4.51
11568,4.48
11580,4.14
11592,3.66
11604,3.16
11616,2.72
11628,2.39
11639,2.18
11650,2.1
11662,2.17
11674,2.35
11686,2.58
11698,2.74
11710,2.74
11722,2.55
11734,2.24
11746,1.95
11758,1.8
11770,1.84
11782,1.99
11794,2.07
11806,1.88
11818,1.31
11829,0.42
11840,-0.59
11852,-1.49
11864,-2.12
11876,-2.44
11888,-2.58
11900,-2.71
11912,-2.99
11924,-3.47
11936,-4.16
11948,-4.95
11960,-5.72
11972,-6.29
11984,-6.49
11996,-6.16
12008,-5.29
12019,-3.98
12030,-2.49
12042,-1.05
12054,0.16
12066,1.12
12078,1.9
12090,2.53
12102,3.0
12114,3.23
12126,3.18
12138,2.86
12150,2.39
12162,1.88
12174,1.44
12186,1.12
12198,0.94
12209,0.91
12220,1.03
12232,1.3
12244,1.64
12256,1.96
12268,2.18
12280,2.28
12292,2.31
12304,2.29
12316,2.19
12328,1.88
12340,1.26
12352,0.34
12364,-0.71
12376,-1.6
12388,-2.12
12399,-2.2
12410,-2.0
12422,-1.77
12434,-1.75
12446,-2.01
12458,-2.5
12470,-3.08
12482,-3.63
12494,-4.12
12506,-4.55
12518,-4.91
12530,-5.08
12542,-4.9
12554,-4.22
12566,-3.01
12578,-1.41
12589,0.33
12600,1.91
12612,3.1
12624,3.77
12636,3.92
12648,3.65
12660,3.14
12672,2.59
12684,2.15
12696,1.9
12708,1.82
12720,1.8
12732,1.75
12744,1.66
12756,1.59
12768,1.66
12779,1.92
12790,2.31
12802,2.63
12814,2.66
12826,2.34
12838,1.74
12850,1.13
12862,0.73
12874,0.62
12886,0.67
12898,0.61
12910,0.23
12922,-0.5
12934,-1.4
12946,-2.15
12958,-2.53
12969,-2.51
12980,-2.32
12992,-2.27
13004,-2.62
13016,-3.4
13028,-4.38
13040,-5.19
13052,-5.5
13064,-5.18
13076,-4.31
13088,-3.16
13100,-1.99
13112,-0.99
13124,-0.15
13136,0.63
13148,1.48
13159,2.42
13170,3.35
13182,4.09
13194,4.51
13206,4.56
13218,4.34
13230,4.02
13242,3.76
13254,3.61
13266,3.56
13278,3.56
13290,3.55
13302,3.5
13314,3.4
13326,3.2
13338,2.89
13349,2.44
13360,1.94
13372,1.48
13384,1.18
13396,1.04
13408,0.99
13420,0.87
13432,0.58
13444,0.05
13456,-0.66
13468,-1.44
13480,-2.16
13492,-2.71
13504,-3.04
13516,-3.21
13528,-3.31
13539,-3.48
13550,-3.8
13562,-4.29
13574,-4.88
13586,-5.44
13598,-5.81
13610,-5.88
13622,-5.61
13634,-5.0
13646,-4.14
13658,-3.13
13670,-2.1
13682,-1.2
13694,-0.53
13706,-0.07
13718,0.24
13729,0.53
13740,0.83
13752,1.1
13764,1.23
13776,1.14
13788,0.83
13800,0.43
13812,0.1
13824,-0.04
13836,-0.0
13848,0.09
13860,0.08
13872,-0.12
13884,-0.47
13896,-0.84
13908,-1.07
13919,-1.08
13930,-0.91
13942,-0.66
13954,-0.51
13966,-0.58
13978,-0.95
13990,-1.57
14002,-2.34
14014,-3.09
14026,-3.66
14038,-3.99
14050,-4.07
14062,-4.03
14074,-4.0
14086,-4.12
14098,-4.43
14109,-4.87
14120,-5.32
14132,-5.66
14144,-5.78
14156,-5.65
14168,-5.26
14180,-4.6
14192,-3.69
14204,-2.59
14216,-1.41
14228,-0.31
14240,0.56
14252,1.11
14264,1.35
14276,1.35
14288,1.21
14299,0.98
14310,0.69
14322,0.33
14334,-0.1
14346,-0.57
14358,-1.0
14370,-1.36
14382,-1.58
14394,-1.64
14406,-1.49
14418,-1.14
14430,-0.62
14442,-0.05
14454,0.44
14466,0.73
14478,0.76
14489,0.54
14500,0.16
14512,-0.31
14524,-0.78
14536,-1.22
14548,-1.61
14560,-1.91
14572,-2.09
14584,-2.15
14596,-2.16
14608,-2.2
14620,-2.4
14632,-2.79
14644,-3.33
14656,-3.88
14668,-4.23
14679,-4.22
14690,-3.73
14702,-2.79
14714,-1.49
14726,-0.03
14738,1.41
14750,2.68
14762,3.66
14774,4.3
14786,4.63
14798,4.72
14810,4.65
14822,4.53
14834,4.41
14846,4.31
14858,4.23
14869,4.15
14880,4.09
14892,4.07
14904,4.11
14916,4.21
14928,4.33
14940,4.39
14952,4.36
14964,4.24
14976,4.06
14988,3.87
15000,3.7
15012,3.53
15024,3.26
15036,2.8
15048,2.1
15059,1.21
15070,0.25
15082,-0.63
15094,-1.34
15106,-1.97
15118,-2.67
15130,-3.58
15142,-4.66
15154,-5.7
15166,-6.34
15178,-6.29
15190,-5.49
15202,-4.11
15214,-2.53
15226,-1.1
15238,-0.02
15249,0.66
15260,1.01
15272,1.08
15284,0.88
15296,0.39
15308,-0.33
15320,-1.17
15332,-1.9
15344,-2.37
15356,-2.47
15368,-2.23
15380,-1.77
15392,-1.2
15404,-0.65
15416,-0.16
15428,0.2
15439,0.37
15450,0.31
15462,0.02
15474,-0.4
15486,-0.83
15498,-1.13
15510,-1.27
15522,-1.31
15534,-1.36
15546,-1.54
15558,-1.93
15570,-2.5
15582,-3.23
15594,-4.01
15606,-4.78
15618,-5.43
15629,-5.83
15640,-5.86
15652,-5.42
15664,-4.56
15676,-3.41
15688,-2.21
15700,-1.17
15712,-0.4
15724,0.09
15736,0.41
15748,0.66
15760,0.88
15772,1.04
15784,1.02
15796,0.73
15808,0.16
15819,-0.57
15830,-1.27
15842,-1.75
15854,-1.92
15866,-1.89
15878,-1.8
15890,-1.85
15902,-2.09
15914,-2.43
15926,-2.72
15938,-2.8
15950,-2.68
15962,-2.44
15974,-2.23
15986,-2.18
15998,-2.3
16009,-2.52
16020,-2.75
16032,-2.89
16044,-2.98
16056,-3.08
16068,-3.23
16080,-3.41
16092,-3.46
16104,-3.15
16116,-2.28
16128,-0.81
16140,1.07
16152,3.06
16164,4.8
16176,6.11
16188,6.96
16199,7.49
16210,7.86
16222,8.15
16234,8.33
16246,8.33
16258,8.11
16270,7.69
16282,7.11
16294,6.45
16306,5.77
16318,5.13
16330,4.58
16342,4.22
16354,4.08
16366,4.13
16378,4.22
16389,4.19
16400,3.95
16412,3.53
16424,3.07
16436,2.76
16448,2.68
16460,2.8
16472,2.93
16484,2.86
16496,2.46
16508,1.75
16520,0.87
16532,0.03
16544,-0.61
16556,-0.94
16568,-0.93
16579,-0.58
16590,0.08
16602,1.03
16614,2.17
16626,3.35
16638,4.37
16650,5.06
16662,5.35
16674,5.3
16686,5.05
16698,4.78
16710,4.58
16722,4.48
16734,4.39
16746,4.22
16758,3.92
16769,3.48
16780,2.96
16792,2.44
16804,1.95
16816,1.5
16828,1.04
16840,0.56
16852,0.04
16864,-0.54
16876,-1.17
16888,-1.86
16900,-2.66
16912,-3.53
16924,-4.41
16936,-5.21
16948,-5.85
16959,-6.38
16970,-6.91
16982,-7.57
16994,-8.38
17006,-9.26
17018,-10.01
17030,-10.4
17042,-10.34
17054,-9.83
17066,-8.98
17078,-7.88
17090,-6.64
17102,-5.34
17114,-4.08
17126,-3.01
17138,-2.26
17149,-1.86
17160,-1.75
17172,-1.77
17184,-1.78
17196,-1.7
17208,-1.52
17220,-1.25
17232,-0.9
17244,-0.43
17256,0.18
17268,0.89
17280,1.59
17292,2.16
17304,2.48
17316,2.57
17328,2.46
17339,2.24
17350,1.93
17362,1.48
17374,0.86
17386,0.06
17398,-0.84
17410,-1.72
17422,-2.47
17434,-3.06
17446,-3.56
17458,-4.05
17470,-4.59
17482,-5.14
17494,-5.57
17506,-5.75
17518,-5.57
17529,-5.0
17540,-4.12
17552,-3.05
17564,-1.9
17576,-0.82
17588,0.06
17600,0.65
17612,0.87
17624,0.73
17636,0.34
17648,-0.13
17660,-0.5
17672,-0.63
17684,-0.54
17696,-0.32
17708,-0.08
17719,0.11
17730,0.27
17742,0.48
17754,0.78
17766,1.14
17778,1.43
17790,1.48
17802,1.2
17814,0.62
17826,-0.09
17838,-0.72
17850,-1.15
17862,-1.38
17874,-1.51
17886,-1.68
17898,-1.97
17909,-2.35
17920,-2.75
17932,-3.11
17944,-3.44
17956,-3.8
17968,-4.22
17980,-4.66
17992,-4.94
18004,-4.86
18016,-4.26
18028,-3.14
18040,-1.68
18052,-0.1
18064,1.41
18076,2.77
18088,3.99
18099,5.07
18110,5.99
18122,6.65
18134,6.95
18146,6.9
18158,6.62
18170,6.3
18182,6.13
18194,6.2
18206,6.5
18218,6.93
18230,7.42
18242,7.89
18254,8.27
18266,8.51
18278,8.53
18289,8.28
18300,7.8
18312,7.22
18324,6.68
18336,6.3
18348,6.09
18360,5.95
18372,5.76
18384,5.4
18396,4.84
18408,4.15
18420,3.41
18432,2.74
18444,2.17
18456,1.73
18468,1.4
18479,1.17
18490,0.93
18502,0.57
18514,-0.03
18526,-0.93
18538,-2.08
18550,-3.28
18562,-4.26
18574,-4.77
18586,-4.66
18598,-3.95
18610,-2.78
18622,-1.4
18634,-0.04
18646,1.1
18658,1.91
18669,2.37
18680,2.51
18692,2.44
18704,2.24
18716,1.96
18728,1.64
18740,1.29
18752,0.92
18764,0.59
18776,0.41
18788,0.46
18800,0.78
18812,1.34
18824,2.03
18836,2.73
18848,3.3
18859,3.7
18870,3.9
18882,3.93
18894,3.79
18906,3.49
18918,3.06
18930,2.5
18942,1.87
18954,1.23
18966,0.69
18978,0.29
18990,0.1
19002,0.08
19014,0.18
19026,0.26
19038,0.19
19049,-0.14
19060,-0.79
19072,-1.69
19084,-2.73
19096,-3.76
19108,-4.65
19120,-5.32
19132,-5.76
19144,-5.95
19156,-5.88
19168,-5.49
19180,-4.71
19192,-3.52
19204,-2.01
19216,-0.38
19228,1.12
19239,2.29
19250,3.02
19262,3.39
19274,3.52
19286,3.57
19298,3.61
19310,3.62
19322,3.5
19334,3.22
19346,2.84
19358,2.51
19370,2.39
19382,2.57
19394,3.02
19406,3.57
19418,4.05
19429,4.33
19440,4.37
19452,4.25
19464,4.05
19476,3.83
19488,3.59
19500,3.27
19512,2.87
19524,2.38
19536,1.88
19548,1.41
19560,0.98
19572,0.58
19584,0.17
19596,-0.26
19608,-0.71
19619,-1.14
19630,-1.53
19642,-1.9
19654,-2.3
19666,-2.79
19678,-3.39
19690,-4.06
19702,-4.74
19714,-5.32
19726,-5.7
19738,-5.81
19750,-5.6
19762,-5.06
19774,-4.22
19786,-3.18
19798,-2.04
19809,-0.94
19820,0.0
19832,0.74
19844,1.26
19856,1.62
19868,1.88
19880,2.09
19892,2.27
19904,2.39
19916,2.41
19928,2.33
19940,2.19
19952,2.08
19964,2.11
19976,2.33
19988,2.7
19999,3.12
20010,3.44
20022,3.6
20034,3.63
20046,3.57
20058,3.48
20070,3.39
20082,3.3
20094,3.19
20106,3.08
20118,3.02
20130,3.02
20142,3.05
20154,2.97
20166,2.66
20178,2.02
20189,1.11
20200,0.06
20212,-0.89
20224,-1.59
20236,-1.96
20248,-2.1
20260,-2.17
20272,-2.32
20284,-2.67
20296,-3.21
20308,-3.86
20320,-4.49
20332,-4.96
20344,-5.16
20356,-5.05
20368,-4.61
20379,-3.87
20390,-2.88
20402,-1.71
20414,-0.5
20426,0.59
20438,1.38
20450,1.77
20462,1.72
20474,1.34
20486,0.79
20498,0.27
20510,-0.09
20522,-0.26
20534,-0.26
20546,-0.15
20558,0.01
20569,0.22
20580,0.46
20592,0.7
20604,0.93
20616,1.1
20628,1.19
20640,1.19
20652,1.1
20664,0.91
20676,0.63
20688,0.27
20700,-0.12
20712,-0.5
20724,-0.81
20736,-1.03
20748,-1.17
20759,-1.25
20770,-1.31
20782,-1.42
20794,-1.57
20806,-1.78
20818,-2.0
20830,-2.19
20842,-2.34
20854,-2.46
20866,-2.59
20878,-2.75
20890,-2.93
20902,-3.12
20914,-3.3
20926,-3.47
20938,-3.61
20949,-3.68
20960,-3.6
20972,-3.27
20984,-2.6
20996,-1.61
