seconds,BVP
6,-29.25
18,-24.22
30,-18.46
41,-12.65
52,-7.32
64,-2.86
76,0.57
88,2.97
100,4.47
112,5.23
124,5.44
136,5.23
148,4.7
160,3.96
172,3.09
184,2.19
196,1.36
208,0.64
220,0.03
231,-0.52
242,-1.12
254,-1.87
266,-2.83
278,-4.01
290,-5.4
302,-7.01
314,-8.83
326,-10.86
338,-13.07
350,-15.4
362,-17.78
374,-20.19
386,-22.64
398,-25.19
410,-27.76
421,-30.09
432,-31.68
444,-31.94
456,-30.41
468,-26.89
480,-21.64
492,-15.17
504,-8.17
516,-1.21
528,5.26
540,11.0
552,15.81
564,19.53
576,22.05
588,23.42
600,23.85
611,23.72
622,23.4
634,23.14
646,22.96
658,22.75
670,22.33
682,21.63
694,20.69
706,19.61
718,18.44
730,17.11
742,15.51
754,13.52
766,11.09
778,8.26
790,5.13
801,1.85
812,-1.45
824,-4.66
836,-7.72
848,-10.72
860,-13.86
872,-17.41
884,-21.57
896,-26.29
908,-31.18
920,-35.54
932,-38.57
944,-39.57
956,-38.23
968,-34.64
980,-29.24
991,-22.66
1002,-15.53
1014,-8.4
1026,-1.71
1038,4.25
1050,9.21
1062,13.01
1074,15.59
1086,16.97
1098,17.36
1110,17.02
1122,16.3
1134,15.5
1146,14.84
1158,14.39
1170,14.08
1181,13.69
1192,13.03
1204,11.98
1216,10.6
1228,9.14
1240,7.92
1252,7.13
1264,6.77
1276,6.62
1288,6.36
1300,5.7
1312,4.52
1324,2.81
1336,0.69
1348,-1.76
1360,-4.54
1371,-7.69
1382,-11.28
1394,-15.29
1406,-19.66
1418,-24.24
1430,-28.82
1442,-33.1
1454,-36.64
1466,-38.9
1478,-39.33
1490,-37.54
1502,-33.44
1514,-27.32
1526,-19.8
1538,-11.64
1550,-3.54
1561,3.94
1572,10.4
1584,15.59
1596,19.35
1608,21.61
1620,22.51
1632,22.35
1644,21.6
1656,20.73
1668,20.1
1680,19.82
1692,19.8
1704,19.8
1716,19.62
1728,19.15
1740,18.46
1751,17.65
1762,16.84
1774,16.0
1786,15.01
1798,13.72
1810,12.0
1822,9.84
1834,7.33
1846,4.58
1858,1.66
1870,-1.4
1882,-4.59
1894,-7.86
1906,-11.18
1918,-14.6
1930,-18.24
1941,-22.29
1952,-26.87
1964,-31.85
1976,-36.73
1988,-40.74
2000,-43.09
2012,-43.19
2024,-40.9
2036,-36.5
2048,-30.57
2060,-23.75
2072,-16.55
2084,-9.36
2096,-2.47
2108,3.81
2120,9.19
2131,13.43
2142,16.41
2154,18.25
2166,19.22
2178,19.65
2190,19.84
2202,19.95
2214,20.03
2226,20.09
2238,20.12
2250,20.1
2262,20.02
2274,19.86
2286,19.55
2298,19.06
2310,18.35
2321,17.47
2332,16.47
2344,15.41
2356,14.28
2368,13.0
2380,11.39
2392,9.27
2404,6.55
2416,3.27
2428,-0.37
2440,-4.09
2452,-7.62
2464,-10.85
2476,-13.86
2488,-16.88
2500,-20.18
2511,-23.94
2522,-28.17
2534,-32.59
2546,-36.7
2558,-39.85
2570,-41.42
2582,-40.95
2594,-38.31
2606,-33.67
2618,-27.43
2630,-20.14
2642,-12.35
2654,-4.57
2666,2.68
2678,8.98
2690,13.94
2701,17.44
2712,19.56
2724,20.62
2736,21.05
2748,21.22
2760,21.37
2772,21.6
2784,21.91
2796,22.27
2808,22.67
2820,23.1
2832,23.51
2844,23.86
2856,24.06
2868,24.01
2880,23.68
2891,23.06
2902,22.16
2914,21.05
2926,19.75
2938,18.24
2950,16.47
2962,14.37
2974,11.92
2986,9.18
2998,6.29
3010,3.37
3022,0.51
3034,-2.25
3046,-4.95
3058,-7.65
3070,-10.36
3081,-13.08
3092,-15.86
3104,-18.8
3116,-22.03
3128,-25.61
3140,-29.43
3152,-33.15
3164,-36.23
3176,-38.05
3188,-38.1
3200,-36.13
3212,-32.19
3224,-26.67
3236,-20.13
3248,-13.18
3260,-6.35
3271,-0.0
3282,5.61
3294,10.32
3306,14.03
3318,16.67
3330,18.29
3342,19.04
3354,19.16
3366,18.91
3378,18.54
3390,18.19
3402,17.92
3414,17.79
3426,17.82
3438,18.04
3450,18.41
3461,18.85
3472,19.24
3484,19.41
3496,19.24
3508,18.69
3520,17.74
3532,16.46
3544,14.93
3556,13.24
3568,11.43
3580,9.54
3592,7.52
3604,5.31
3616,2.87
3628,0.19
3640,-2.64
3651,-5.52
3662,-8.37
3674,-11.13
3686,-13.8
3698,-16.47
3710,-19.24
3722,-22.23
3734,-25.51
3746,-29.03
3758,-32.54
3770,-35.58
3782,-37.57
3794,-37.99
3806,-36.52
3818,-33.14
3830,-28.16
3841,-22.08
3852,-15.47
3864,-8.83
3876,-2.55
3888,3.08
3900,7.8
3912,11.41
3924,13.76
3936,14.87
3948,14.91
3960,14.23
3972,13.25
3984,12.41
3996,11.96
4008,12.02
4020,12.49
4031,13.16
4042,13.82
4054,14.31
4066,14.59
4078,14.71
4090,14.7
4102,14.58
4114,14.27
4126,13.65
4138,12.59
4150,11.02
4162,8.97
4174,6.56
4186,3.97
4198,1.4
4210,-1.04
4221,-3.29
4232,-5.4
4244,-7.45
4256,-9.55
4268,-11.79
4280,-14.31
4292,-17.19
4304,-20.42
4316,-23.83
4328,-27.02
4340,-29.46
4352,-30.6
4364,-30.04
4376,-27.69
4388,-23.79
4400,-18.76
4411,-13.14
4422,-7.39
4434,-1.86
4446,3.16
4458,7.48
4470,10.92
4482,13.38
4494,14.82
4506,15.34
4518,15.13
4530,14.43
4542,13.55
4554,12.74
4566,12.16
4578,11.87
4590,11.85
4601,11.96
4612,12.05
4624,11.99
4636,11.71
4648,11.22
4660,10.59
4672,9.92
4684,9.29
4696,8.67
4708,7.99
4720,7.12
4732,5.89
4744,4.24
4756,2.18
4768,-0.18
4780,-2.7
4791,-5.25
4802,-7.78
4814,-10.33
4826,-13.01
4838,-15.96
4850,-19.2
4862,-22.68
4874,-26.14
4886,-29.23
4898,-31.53
4910,-32.62
4922,-32.17
4934,-29.99
4946,-26.08
4958,-20.67
4970,-14.28
4981,-7.57
4992,-1.26
5004,4.07
5016,8.13
5028,10.92
5040,12.67
5052,13.68
5064,14.21
5076,14.39
5088,14.31
5100,14.0
5112,13.52
5124,12.94
5136,12.37
5148,11.93
5160,11.68
5171,11.64
5182,11.74
5194,11.84
5206,11.84
5218,11.65
5230,11.26
5242,10.66
5254,9.81
5266,8.61
5278,6.95
5290,4.8
5302,2.31
5314,-0.26
5326,-2.65
5338,-4.74
5350,-6.68
5361,-8.77
5372,-11.35
5384,-14.59
5396,-18.41
5408,-22.41
5420,-26.06
5432,-28.85
5444,-30.35
5456,-30.35
5468,-28.81
5480,-25.83
5492,-21.64
5504,-16.59
5516,-11.1
5528,-5.66
5540,-0.69
5551,3.51
5562,6.8
5574,9.19
5586,10.81
5598,11.79
5610,12.26
5622,12.29
5634,11.97
5646,11.36
5658,10.54
5670,9.61
5682,8.7
5694,7.94
5706,7.45
5718,7.28
5730,7.42
5741,7.77
5752,8.12
5764,8.23
5776,7.91
5788,7.02
5800,5.56
5812,3.67
5824,1.59
5836,-0.4
5848,-2.14
5860,-3.63
5872,-5.12
5884,-6.97
5896,-9.52
5908,-12.89
5920,-16.93
5931,-21.21
5942,-25.15
5954,-28.15
5966,-29.71
5978,-29.49
5990,-27.41
6002,-23.62
6014,-18.56
6026,-12.82
6038,-7.02
6050,-1.65
6062,3.02
6074,6.94
6086,10.11
6098,12.51
6110,14.01
6121,14.52
6132,14.06
6144,12.86
6156,11.31
6168,9.81
6180,8.7
6192,8.06
6204,7.86
6216,7.98
6228,8.29
6240,8.63
6252,8.84
6264,8.76
6276,8.25
6288,7.25
6300,5.8
6311,4.04
6322,2.11
6334,0.17
6346,-1.73
6358,-3.62
6370,-5.58
6382,-7.69
6394,-10.05
6406,-12.73
6418,-15.76
6430,-19.12
6442,-22.64
6454,-26.0
6466,-28.74
6478,-30.33
6490,-30.35
6501,-28.6
6512,-25.16
6524,-20.38
6536,-14.74
6548,-8.78
6560,-2.92
6572,2.45
6584,7.09
6596,10.79
6608,13.43
6620,14.98
6632,15.55
6644,15.39
6656,14.78
6668,14.01
6680,13.25
6691,12.6
6702,12.1
6714,11.79
6726,11.69
6738,11.8
6750,12.06
6762,12.28
6774,12.27
6786,11.83
6798,10.87
6810,9.45
6822,7.7
6834,5.76
6846,3.71
6858,1.56
6870,-0.75
6881,-3.27
6892,-6.07
6904,-9.11
6916,-12.37
6928,-15.79
6940,-19.26
6952,-22.58
6964,-25.41
6976,-27.32
6988,-27.85
7000,-26.67
7012,-23.74
7024,-19.29
7036,-13.81
7048,-7.86
7060,-1.95
7071,3.52
7082,8.29
7094,12.18
7106,15.08
7118,16.97
7130,17.91
7142,18.06
7154,17.63
7166,16.84
7178,15.86
7190,14.85
7202,13.95
7214,13.3
7226,13.0
7238,13.1
7250,13.49
7261,13.97
7272,14.3
7284,14.23
7296,13.61
7308,12.42
7320,10.73
7332,8.67
7344,6.39
7356,4.03
7368,1.69
7380,-0.6
7392,-2.91
7404,-5.34
7416,-8.06
7428,-11.19
7440,-14.8
7451,-18.75
7462,-22.71
7474,-26.14
7486,-28.37
7498,-28.84
7510,-27.23
7522,-23.6
7534,-18.37
7546,-12.18
7558,-5.73
7570,0.39
7582,5.78
7594,10.19
7606,13.5
7618,15.69
7630,16.81
7641,17.04
7652,16.65
7664,15.95
7676,15.26
7688,14.78
7700,14.64
7712,14.85
7724,15.36
7736,16.08
7748,16.9
7760,17.72
7772,18.4
7784,18.84
7796,18.97
7808,18.74
7820,18.14
7831,17.2
7842,15.94
7854,14.4
7866,12.58
7878,10.55
7890,8.38
7902,6.15
7914,3.91
7926,1.62
7938,-0.81
7950,-3.49
7962,-6.4
7974,-9.32
7986,-11.87
7998,-13.51
8010,-13.79
8021,-12.5
8032,-9.74
8044,-5.88
8056,-1.49
8068,2.89
8080,6.83
8092,10.07
8104,12.49
8116,14.09
8128,14.86
8140,14.84
8152,14.09
8164,12.74
8176,11.03
8188,9.27
8200,7.69
8211,6.42
8222,5.41
8234,4.52
8246,3.64
8258,2.73
8270,1.79
8282,0.88
8294,-0.01
8306,-0.97
8318,-2.11
8330,-3.56
8342,-5.37
8354,-7.58
8366,-10.19
8378,-13.22
8390,-16.62
8401,-20.34
8412,-24.34
8424,-28.6
8436,-33.1
8448,-37.76
8460,-42.33
8472,-46.36
8484,-49.28
8496,-50.6
8508,-50.1
8520,-47.93
8532,-44.52
8544,-40.45
8556,-36.19
8568,-32.04
8580,-28.16
8591,-24.66
8602,-21.73
8614,-19.57
8626,-18.33
8638,-17.98
8650,-18.28
8662,-18.79
8674,-19.1
8686,-18.88
8698,-18.01
8710,-16.58
8722,-14.77
8734,-12.75
8746,-10.6
8758,-8.34
8770,-5.89
8781,-3.24
8792,-0.43
8804,2.43
8816,5.2
8828,7.71
8840,9.88
8852,11.63
8864,12.91
8876,13.65
8888,13.75
8900,13.08
8912,11.6
8924,9.4
8936,6.75
8948,4.07
8960,1.83
8971,0.42
8982,0.06
8994,0.81
9006,2.54
9018,4.97
9030,7.8
9042,10.66
9054,13.15
9066,14.91
9078,15.65
9090,15.19
9102,13.51
9114,10.77
9126,7.24
9138,3.28
9150,-0.83
9161,-4.93
9172,-8.99
9184,-13.09
9196,-17.3
9208,-21.64
9220,-26.02
9232,-30.33
9244,-34.56
9256,-38.92
9268,-43.74
9280,-49.4
9292,-56.15
9304,-63.91
9316,-72.35
9328,-80.95
9340,-89.24
9351,-96.89
9362,-103.83
9374,-110.21
9386,-116.34
9398,-122.67
9410,-129.66
9422,-137.62
9434,-146.43
9446,-155.31
9458,-162.79
9470,-166.91
9482,-165.76
9494,-158.09
9506,-143.72
9518,-123.6
9530,-99.57
9541,-73.71
9552,-47.94
9564,-23.64
9576,-1.69
9588,17.49
9600,33.76
9612,47.22
9624,58.18
9636,67.15
9648,74.83
9660,81.82
9672,88.57
9684,95.18
9696,101.43
9708,106.87
9720,110.97
9731,113.32
9742,113.66
9754,111.98
9766,108.43
9778,103.27
9790,96.8
9802,89.33
9814,81.11
9826,72.38
9838,63.42
9850,54.43
9862,45.58
9874,36.85
9886,28.06
9898,18.84
9910,8.86
9921,-1.92
9932,-13.04
9944,-23.37
9956,-31.32
9968,-35.2
9980,-33.79
9992,-26.77
10004,-14.88
10016,0.31
10028,16.86
10040,33.03
10052,47.64
10064,60.09
10076,70.23
10088,78.04
10100,83.48
10111,86.54
10122,87.34
10134,86.35
10146,84.32
10158,82.15
10170,80.57
10182,79.96
10194,80.25
10206,81.03
10218,81.79
10230,82.11
10242,81.78
10254,80.8
10266,79.22
10278,77.09
10290,74.41
10301,71.12
10312,67.14
10324,62.5
10336,57.34
10348,51.9
10360,46.42
10372,41.05
10384,35.76
10396,30.4
10408,24.71
10420,18.61
10432,12.25
10444,6.18
10456,1.19
10468,-1.88
10480,-2.42
10491,-0.24
10502,4.38
10514,10.76
10526,18.03
10538,25.38
10550,32.15
10562,37.93
10574,42.45
10586,45.59
10598,47.33
10610,47.74
10622,47.0
10634,45.43
10646,43.4
10658,41.24
10670,39.19
10681,37.29
10692,35.46
10704,33.57
10716,31.52
10728,29.27
10740,26.88
10752,24.39
10764,21.83
10776,19.16
10788,16.33
10800,13.27
10812,10.0
10824,6.62
10836,3.2
10848,-0.2
10860,-3.64
10871,-7.28
10882,-11.22
10894,-15.48
10906,-19.81
10918,-23.78
10930,-26.82
10942,-28.41
10954,-28.22
10966,-26.23
10978,-22.75
10990,-18.28
11002,-13.42
11014,-8.68
11026,-4.42
11038,-0.87
11050,1.81
11061,3.51
11072,4.2
11084,3.95
11096,2.99
11108,1.65
11120,0.24
11132,-1.02
11144,-2.09
11156,-3.1
11168,-4.21
11180,-5.52
11192,-7.01
11204,-8.54
11216,-9.95
11228,-11.15
11240,-12.19
11251,-13.26
11262,-14.6
11274,-16.45
11286,-18.92
11298,-21.99
11310,-25.49
11322,-29.21
11334,-32.94
11346,-36.56
11358,-40.09
11370,-43.64
11382,-47.38
11394,-51.47
11406,-55.96
11418,-60.7
11430,-65.25
11441,-68.96
11452,-71.02
11464,-70.62
11476,-67.24
11488,-60.78
11500,-51.62
11512,-40.6
11524,-28.75
11536,-17.07
11548,-6.32
11560,3.04
11572,10.84
11584,17.06
11596,21.75
11608,25.02
11620,27.0
11631,27.95
11642,28.24
11654,28.29
11666,28.41
11678,28.75
11690,29.24
11702,29.62
11714,29.59
11726,28.95
11738,27.6
11750,25.61
11762,23.09
11774,20.15
11786,16.83
11798,13.08
11810,8.8
11821,3.95
11832,-1.44
11844,-7.22
11856,-13.15
11868,-18.99
11880,-24.6
11892,-29.96
11904,-35.24
11916,-40.76
11928,-46.85
11940,-53.75
11952,-61.39
11964,-69.31
11976,-76.58
11988,-81.91
12000,-83.93
12011,-81.56
12022,-74.4
12034,-62.86
12046,-48.1
12058,-31.68
12070,-15.24
12082,-0.03
12094,13.15
12106,24.01
12118,32.57
12130,38.98
12142,43.47
12154,46.3
12166,47.81
12178,48.46
12190,48.79
12201,49.29
12212,50.26
12224,51.72
12236,53.41
12248,54.93
12260,55.94
12272,56.28
12284,56.06
12296,55.47
12308,54.69
12320,53.7
12332,52.24
12344,50.06
12356,46.97
12368,43.11
12380,38.79
12391,34.41
12402,30.17
12414,26.02
12426,21.74
12438,17.13
12450,12.17
12462,7.05
12474,2.09
12486,-2.44
12498,-6.51
12510,-10.27
12522,-14.01
12534,-18.05
12546,-22.59
12558,-27.72
12570,-33.34
12581,-39.18
12592,-44.71
12604,-49.15
12616,-51.54
12628,-50.96
12640,-46.87
12652,-39.31
12664,-29.01
12676,-17.23
12688,-5.39
12700,5.27
12712,13.98
12724,20.47
12736,24.83
12748,27.34
12760,28.29
12771,28.02
12782,26.92
12794,25.51
12806,24.29
12818,23.65
12830,23.7
12842,24.25
12854,24.92
12866,25.38
12878,25.46
12890,25.2
12902,24.75
12914,24.21
12926,23.53
12938,22.51
12950,20.92
12961,18.62
12972,15.65
12984,12.21
12996,8.66
13008,5.3
13020,2.3
13032,-0.38
13044,-2.91
13056,-5.52
13068,-8.36
13080,-11.41
13092,-14.56
13104,-17.63
13116,-20.55
13128,-23.36
13140,-26.25
13151,-29.4
13162,-32.93
13174,-36.87
13186,-41.14
13198,-45.58
13210,-49.89
13222,-53.64
13234,-56.17
13246,-56.72
13258,-54.58
13270,-49.4
13282,-41.41
13294,-31.41
13306,-20.56
13318,-10.06
13330,-0.85
13341,6.55
13352,11.98
13364,15.53
13376,17.38
13388,17.77
13400,17.04
13412,15.65
13424,14.2
13436,13.29
13448,13.41
13460,14.82
13472,17.51
13484,21.26
13496,25.66
13508,30.28
13520,34.66
13531,38.38
13542,41.12
13554,42.7
13566,43.06
13578,42.26
13590,40.46
13602,37.82
13614,34.52
13626,30.68
13638,26.46
13650,22.05
13662,17.66
13674,13.49
13686,9.69
13698,6.23
13710,2.99
13721,-0.23
13732,-3.62
13744,-7.27
13756,-11.18
13768,-15.19
13780,-19.07
13792,-22.49
13804,-25.08
13816,-26.47
13828,-26.37
13840,-24.71
13852,-21.64
13864,-17.55
13876,-12.92
13888,-8.23
13900,-3.86
13911,-0.06
13922,2.99
13934,5.15
13946,6.34
13958,6.56
13970,5.93
13982,4.73
13994,3.3
14006,2.02
14018,1.14
14030,0.78
14042,0.89
14054,1.35
14066,1.98
14078,2.64
14090,3.21
14101,3.63
14112,3.79
14124,3.65
14136,3.13
14148,2.25
14160,1.08
14172,-0.28
14184,-1.7
14196,-3.12
14208,-4.53
14220,-6.0
14232,-7.59
14244,-9.39
14256,-11.38
14268,-13.54
14280,-15.8
14291,-18.14
14302,-20.57
14314,-23.07
14326,-25.57
14338,-27.9
14350,-29.75
14362,-30.75
14374,-30.58
14386,-29.02
14398,-26.04
14410,-21.8
14422,-16.62
14434,-10.95
14446,-5.24
14458,0.06
14470,4.58
14481,8.05
14492,10.33
14504,11.39
14516,11.36
14528,10.52
14540,9.24
14552,7.93
14564,6.9
14576,6.25
14588,5.85
14600,5.45
14612,4.88
14624,4.13
14636,3.39
14648,2.86
14660,2.63
14671,2.53
14682,2.25
14694,1.51
14706,0.19
14718,-1.54
14730,-3.4
14742,-5.16
14754,-6.76
14766,-8.26
14778,-9.83
14790,-11.56
14802,-13.43
14814,-15.41
14826,-17.49
14838,-19.75
14850,-22.34
14861,-25.36
14872,-28.69
14884,-31.99
14896,-34.67
14908,-36.11
14920,-35.84
14932,-33.66
14944,-29.69
14956,-24.33
14968,-18.11
14980,-11.59
14992,-5.29
15004,0.39
15016,5.17
15028,8.88
15040,11.45
15051,12.96
15062,13.56
15074,13.46
15086,12.94
15098,12.27
15110,11.72
15122,11.46
15134,11.53
15146,11.88
15158,12.37
15170,12.9
15182,13.37
15194,13.73
15206,13.92
15218,13.82
15230,13.27
15241,12.14
15252,10.45
15264,8.35
15276,6.1
15288,3.99
15300,2.15
15312,0.58
15324,-0.93
15336,-2.66
15348,-4.88
15360,-7.7
15372,-11.06
15384,-14.65
15396,-17.98
15408,-20.49
15420,-21.67
15431,-21.23
15442,-19.13
15454,-15.66
15466,-11.31
15478,-6.7
15490,-2.38
15502,1.21
15514,3.89
15526,5.62
15538,6.48
15550,6.59
15562,6.06
15574,5.01
15586,3.54
15598,1.8
15610,-0.07
15621,-1.97
15632,-3.83
15644,-5.62
15656,-7.29
15668,-8.76
15680,-9.94
15692,-10.78
15704,-11.37
15716,-11.89
15728,-12.56
15740,-13.57
15752,-15.0
15764,-16.79
15776,-18.82
15788,-21.0
15800,-23.31
15811,-25.79
15822,-28.55
15834,-31.69
15846,-35.27
15858,-39.21
15870,-43.31
15882,-47.23
15894,-50.56
15906,-52.86
15918,-53.71
15930,-52.75
15942,-49.78
15954,-44.77
15966,-37.95
15978,-29.83
15990,-21.12
16001,-12.6
16012,-4.98
16024,1.33
16036,6.16
16048,9.62
16060,11.91
16072,13.28
16084,13.92
16096,14.03
16108,13.8
16120,13.4
16132,12.98
16144,12.64
16156,12.44
16168,12.36
16180,12.32
16191,12.26
16202,12.03
16214,11.52
16226,10.64
16238,9.35
16250,7.67
16262,5.63
16274,3.25
16286,0.52
16298,-2.54
16310,-5.95
16322,-9.66
16334,-13.67
16346,-17.97
16358,-22.54
16370,-27.19
16381,-31.53
16392,-34.84
16404,-36.25
16416,-34.97
16428,-30.58
16440,-23.24
16452,-13.7
16464,-3.1
16476,7.41
16488,16.9
16500,24.81
16512,30.94
16524,35.3
16536,38.0
16548,39.21
16560,39.12
16571,38.08
16582,36.51
16594,34.86
16606,33.54
16618,32.78
16630,32.62
16642,32.93
16654,33.49
16666,34.05
16678,34.41
16690,34.42
16702,33.97
16714,33.02
16726,31.55
16738,29.6
16750,27.24
16761,24.58
16772,21.72
16784,18.75
16796,15.71
16808,12.56
16820,9.21
16832,5.6
16844,1.77
16856,-2.04
16868,-5.44
16880,-7.92
16892,-9.01
16904,-8.42
16916,-6.13
16928,-2.4
16940,2.28
16951,7.32
16962,12.14
16974,16.28
16986,19.41
16998,21.38
17010,22.2
17022,22.02
17034,21.08
17046,19.59
17058,17.77
17070,15.79
17082,13.81
17094,11.99
17106,10.43
17118,9.21
17130,8.3
17141,7.62
17152,7.06
17164,6.49
17176,5.81
17188,4.94
17200,3.83
17212,2.41
17224,0.68
17236,-1.33
17248,-3.54
17260,-5.86
17272,-8.19
17284,-10.54
17296,-12.96
17308,-15.55
17320,-18.4
17331,-21.5
17342,-24.66
17354,-27.49
17366,-29.47
17378,-30.08
17390,-28.97
17402,-26.09
17414,-21.74
17426,-16.45
17438,-10.91
17450,-5.67
17462,-1.16
17474,2.43
17486,5.04
17498,6.7
17510,7.48
17521,7.51
17532,6.97
17544,6.12
17556,5.19
17568,4.38
17580,3.77
17592,3.3
17604,2.9
17616,2.48
17628,1.99
17640,1.43
17652,0.8
17664,0.13
17676,-0.59
17688,-1.38
17700,-2.26
17711,-3.29
17722,-4.57
17734,-6.15
17746,-8.07
17758,-10.25
17770,-12.6
17782,-14.98
17794,-17.36
17806,-19.79
17818,-22.41
17830,-25.4
17842,-28.89
17854,-32.81
17866,-36.85
17878,-40.47
17890,-42.99
17901,-43.78
17912,-42.47
17924,-39.07
17936,-33.95
17948,-27.74
17960,-21.06
17972,-14.41
17984,-8.14
17996,-2.43
18008,2.54
18020,6.6
18032,9.61
18044,11.55
18056,12.55
18068,12.89
18080,12.91
18091,12.94
18102,13.2
18114,13.82
18126,14.84
18138,16.17
18150,17.67
18162,19.17
18174,20.47
18186,21.47
18198,22.14
18210,22.5
18222,22.59
18234,22.4
18246,21.84
18258,20.78
18270,19.17
18281,17.01
18292,14.48
18304,11.79
18316,9.15
18328,6.7
18340,4.39
18352,2.07
18364,-0.51
18376,-3.54
18388,-7.12
18400,-11.17
18412,-15.4
18424,-19.34
18436,-22.45
18448,-24.22
18460,-24.28
18471,-22.48
18482,-18.95
18494,-14.03
18506,-8.22
18518,-2.03
18530,4.05
18542,9.61
18554,14.32
18566,17.97
18578,20.46
18590,21.84
18602,22.32
18614,22.21
18626,21.82
18638,21.43
18650,21.15
18661,21.01
18672,20.96
18684,20.98
18696,21.08
18708,21.32
18720,21.69
18732,22.12
18744,22.43
18756,22.37
18768,21.74
18780,20.51
18792,18.76
18804,16.74
18816,14.66
18828,12.66
18840,10.7
18851,8.66
18862,6.38
18874,3.82
18886,1.11
18898,-1.58
18910,-4.06
18922,-6.33
18934,-8.52
18946,-10.86
18958,-13.54
18970,-16.59
18982,-19.92
18994,-23.34
19006,-26.68
19018,-29.69
19030,-32.13
19041,-33.58
19052,-33.61
19064,-31.88
19076,-28.35
19088,-23.34
19100,-17.5
19112,-11.57
19124,-6.18
19136,-1.65
19148,1.9
19160,4.48
19172,6.11
19184,6.79
19196,6.55
19208,5.53
19220,3.98
19231,2.19
19242,0.39
19254,-1.32
19266,-2.93
19278,-4.48
19290,-6.0
19302,-7.5
19314,-8.99
19326,-10.47
19338,-11.99
19350,-13.57
19362,-15.27
19374,-17.13
19386,-19.22
19398,-21.62
19410,-24.4
19421,-27.6
19432,-31.27
19444,-35.38
19456,-39.86
19468,-44.64
19480,-49.57
19492,-54.45
19504,-59.13
19516,-63.48
19528,-67.56
19540,-71.55
19552,-75.78
19564,-80.6
19576,-86.18
19588,-92.42
19600,-98.8
19611,-104.41
19622,-108.01
19634,-108.26
19646,-104.04
19658,-94.77
19670,-80.66
19682,-62.74
19694,-42.63
19706,-22.16
19718,-2.92
19730,13.95
19742,27.86
19754,38.56
19766,46.01
19778,50.32
19790,51.83
19801,51.22
19812,49.57
19824,48.15
19836,48.09
19848,49.95
19860,53.52
19872,57.91
19884,61.88
19896,64.33
19908,64.69
19920,63.16
19932,60.6
19944,58.33
19956,57.78
19968,60.09
19980,65.81
19991,74.65
20002,85.52
20014,96.73
20026,106.36
20038,112.74
20050,114.78
20062,112.07
20074,104.79
20086,93.48
20098,78.86
20110,61.75
20122,43.21
20134,24.58
20146,7.53
20158,-6.27
20170,-15.5
20181,-19.58
20192,-18.9
20204,-14.71
20216,-8.71
20228,-2.66
20240,2.07
20252,4.65
20264,4.82
20276,2.75
20288,-1.09
20300,-6.0
20312,-11.22
20324,-15.98
20336,-19.68
20348,-21.98
20360,-22.82
20371,-22.41
20382,-21.13
20394,-19.45
20406,-17.84
20418,-16.62
20430,-15.92
20442,-15.62
20454,-15.38
20466,-14.75
20478,-13.37
20490,-11.11
20502,-8.14
20514,-4.82
20526,-1.62
20538,1.08
20550,3.1
20561,4.43
20572,5.19
20584,5.51
20596,5.55
20608,5.38
20620,5.01
20632,4.4
20644,3.39
20656,1.8
20668,-0.49
20680,-3.46
20692,-6.82
20704,-10.06
20716,-12.53
20728,-13.72
20740,-13.37
20751,-11.58
20762,-8.77
20774,-5.42
20786,-1.96
20798,1.36
20810,4.41
20822,7.03
20834,9.0
20846,10.01
20858,9.82
20870,8.39
20882,5.99
20894,3.15
20906,0.47
20918,-1.56
20930,-2.77
20941,-3.36
20952,-3.8
20964,-4.61
20976,-6.2
20988,-8.65
