seconds,BVP
10,178.49
22,161.86
34,142.33
46,121.3
58,99.97
70,79.21
82,59.67
93,41.95
104,26.61
116,14.11
128,4.62
140,-1.98
152,-6.04
164,-7.94
176,-7.96
188,-6.25
200,-3.0
212,1.49
224,6.66
236,11.92
248,16.76
260,20.9
272,24.25
283,26.8
294,28.44
306,28.9
318,27.86
330,25.12
342,20.74
354,15.21
366,9.26
378,3.77
390,-0.51
402,-3.04
414,-3.56
426,-2.03
438,1.38
450,6.33
462,12.19
473,17.88
484,21.91
496,22.61
508,18.71
520,9.94
532,-2.62
544,-16.68
556,-29.49
568,-38.79
580,-43.62
592,-44.45
604,-42.75
616,-40.14
628,-37.66
640,-35.5
652,-33.31
663,-30.76
674,-27.98
686,-25.62
698,-24.51
710,-25.16
722,-27.45
734,-30.69
746,-33.98
758,-36.66
770,-38.48
782,-39.53
794,-39.99
806,-39.88
818,-38.98
830,-37.08
842,-34.17
853,-30.61
864,-27.03
876,-24.12
888,-22.3
900,-21.64
912,-21.87
924,-22.54
936,-23.3
948,-24.0
960,-24.75
972,-25.8
984,-27.33
996,-29.28
1008,-31.24
1020,-32.57
1032,-32.62
1043,-31.01
1054,-27.77
1066,-23.3
1078,-18.18
1090,-12.93
1102,-7.86
1114,-3.05
1126,1.5
1138,5.74
1150,9.46
1162,12.35
1174,14.21
1186,14.98
1198,14.88
1210,14.21
1222,13.28
1233,12.16
1244,10.58
1256,8.06
1268,3.94
1280,-2.34
1292,-11.14
1304,-22.48
1316,-36.01
1328,-50.93
1340,-66.07
1352,-79.96
1364,-91.11
1376,-98.33
1388,-101.11
1400,-99.76
1412,-95.3
1423,-89.09
1434,-82.41
1446,-76.02
1458,-70.1
1470,-64.35
1482,-58.33
1494,-51.72
1506,-44.49
1518,-36.86
1530,-29.22
1542,-21.87
1554,-14.97
1566,-8.37
1578,-1.7
1590,5.61
1602,14.21
1613,24.56
1624,36.85
1636,50.86
1648,66.01
1660,81.44
1672,96.2
1684,109.34
1696,119.99
1708,127.49
1720,131.43
1732,131.67
1744,128.39
1756,122.07
1768,113.35
1780,102.92
1792,91.34
1803,79.03
1814,66.19
1826,52.93
1838,39.3
1850,25.35
1862,11.13
1874,-3.29
1886,-17.85
1898,-32.46
1910,-47.1
1922,-61.79
1934,-76.56
1946,-91.29
1958,-105.55
1970,-118.4
1982,-128.49
1993,-134.37
2004,-134.97
2016,-130.13
2028,-120.79
2040,-108.83
2052,-96.48
2064,-85.72
2076,-77.77
2088,-72.98
2100,-71.05
2112,-71.33
2124,-73.08
2136,-75.62
2148,-78.32
2160,-80.58
2172,-81.91
2183,-82.15
2194,-81.5
2206,-80.57
2218,-80.14
2230,-80.88
2242,-83.11
2254,-86.68
2266,-91.12
2278,-95.88
2290,-100.71
2302,-105.94
2314,-112.46
2326,-121.5
2338,-133.97
2350,-149.77
2362,-167.33
2373,-183.76
2384,-195.53
2396,-199.62
2408,-194.41
2420,-180.22
2432,-158.94
2444,-133.31
2456,-106.15
2468,-79.83
2480,-56.12
2492,-36.36
2504,-21.42
2516,-11.69
2528,-6.85
2540,-5.65
2552,-6.05
2563,-5.73
2574,-2.6
2586,4.47
2598,15.42
2610,29.06
2622,43.59
2634,57.2
2646,68.67
2658,77.5
2670,83.84
2682,88.04
2694,90.26
2706,90.39
2718,88.14
2730,83.41
2742,76.57
2753,68.51
2764,60.5
2776,53.82
2788,49.47
2800,47.95
2812,49.16
2824,52.54
2836,57.2
2848,62.15
2860,66.46
2872,69.5
2884,70.98
2896,70.94
2908,69.69
2920,67.66
2932,65.31
2943,63.07
2954,61.33
2966,60.41
2978,60.43
2990,61.28
3002,62.55
3014,63.57
3026,63.61
3038,62.13
3050,58.94
3062,54.27
3074,48.66
3086,42.69
3098,36.73
3110,30.74
3122,24.34
3133,17.02
3144,8.43
3156,-1.35
3168,-11.68
3180,-21.4
3192,-29.11
3204,-33.57
3216,-34.04
3228,-30.51
3240,-23.72
3252,-14.96
3264,-5.68
3276,2.91
3288,10.15
3300,15.87
3312,20.24
3323,23.39
3334,25.28
3346,25.74
3358,24.71
3370,22.49
3382,19.76
3394,17.43
3406,16.2
3418,16.34
3430,17.58
3442,19.36
3454,21.13
3466,22.64
3478,23.96
3490,25.31
3502,26.74
3513,28.04
3524,28.78
3536,28.54
3548,27.19
3560,24.96
3572,22.36
3584,19.88
3596,17.79
3608,16.03
3620,14.31
3632,12.3
3644,9.86
3656,7.08
3668,4.26
3680,1.72
3692,-0.37
3703,-2.03
3714,-3.44
3726,-4.82
3738,-6.33
3750,-8.05
3762,-10.02
3774,-12.27
3786,-14.75
3798,-17.23
3810,-19.22
3822,-19.95
3834,-18.65
3846,-14.82
3858,-8.48
3870,-0.23
3882,8.98
3893,18.16
3904,26.54
3916,33.66
3928,39.3
3940,43.31
3952,45.59
3964,46.14
3976,45.16
3988,43.15
4000,40.77
4012,38.69
4024,37.41
4036,37.13
4048,37.74
4060,38.93
4072,40.32
4083,41.6
4094,42.58
4106,43.15
4118,43.26
4130,42.79
4142,41.54
4154,39.31
4166,36.01
4178,31.8
4190,27.0
4202,22.04
4214,17.23
4226,12.71
4238,8.45
4250,4.35
4262,0.38
4273,-3.35
4284,-6.68
4296,-9.51
4308,-11.84
4320,-13.86
4332,-15.82
4344,-18.03
4356,-20.75
4368,-24.14
4380,-28.17
4392,-32.54
4404,-36.58
4416,-39.41
4428,-40.1
4440,-38.01
4452,-33.04
4463,-25.72
4474,-17.02
4486,-8.06
4498,0.27
4510,7.44
4522,13.28
4534,17.82
4546,21.09
4558,23.13
4570,23.95
4582,23.64
4594,22.46
4606,20.82
4618,19.18
4630,17.91
4642,17.22
4653,17.16
4664,17.58
4676,18.3
4688,19.15
4700,20.01
4712,20.79
4724,21.43
4736,21.85
4748,21.89
4760,21.39
4772,20.23
4784,18.46
4796,16.22
4808,13.77
4820,11.38
4832,9.21
4843,7.25
4854,5.36
4866,3.3
4878,0.8
4890,-2.27
4902,-5.92
4914,-9.97
4926,-14.11
4938,-18.02
4950,-21.47
4962,-24.48
4974,-27.28
4986,-30.38
4998,-34.33
5010,-39.61
5022,-46.32
5033,-54.0
5044,-61.63
5056,-67.81
5068,-71.13
5080,-70.66
5092,-66.26
5104,-58.58
5116,-48.89
5128,-38.62
5140,-29.05
5152,-20.99
5164,-14.81
5176,-10.48
5188,-7.72
5200,-6.09
5212,-4.96
5223,-3.7
5234,-1.68
5246,1.49
5258,5.87
5270,11.17
5282,16.88
5294,22.44
5306,27.49
5318,31.9
5330,35.77
5342,39.27
5354,42.48
5366,45.33
5378,47.66
5390,49.3
5402,50.17
5413,50.3
5424,49.79
5436,48.73
5448,47.15
5460,45.07
5472,42.56
5484,39.73
5496,36.76
5508,33.79
5520,30.86
5532,27.91
5544,24.81
5556,21.43
5568,17.72
5580,13.79
5592,9.86
5603,6.19
5614,2.97
5626,0.24
5638,-2.05
5650,-4.07
5662,-6.0
5674,-8.08
5686,-10.52
5698,-13.48
5710,-16.94
5722,-20.63
5734,-23.89
5746,-25.87
5758,-25.7
5770,-22.9
5782,-17.55
5793,-10.36
5804,-2.44
5816,5.11
5828,11.49
5840,16.37
5852,19.87
5864,22.28
5876,23.87
5888,24.79
5900,25.08
5912,24.76
5924,23.93
5936,22.84
5948,21.74
5960,20.88
5972,20.37
5983,20.25
5994,20.47
6006,20.97
6018,21.69
6030,22.56
6042,23.5
6054,24.34
6066,24.91
6078,25.06
6090,24.7
6102,23.87
6114,22.69
6126,21.33
6138,19.95
6150,18.61
6162,17.29
6173,15.91
6184,14.41
6196,12.73
6208,10.86
6220,8.74
6232,6.31
6244,3.54
6256,0.45
6268,-2.81
6280,-6.01
6292,-8.92
6304,-11.42
6316,-13.53
6328,-15.41
6340,-17.23
6352,-19.14
6363,-21.24
6374,-23.6
6386,-26.33
6398,-29.48
6410,-32.88
6422,-36.07
6434,-38.26
6446,-38.61
6458,-36.52
6470,-31.9
6482,-25.28
6494,-17.59
6506,-9.83
6518,-2.74
6530,3.33
6542,8.32
6553,12.31
6564,15.3
6576,17.21
6588,17.97
6600,17.68
6612,16.67
6624,15.45
6636,14.51
6648,14.17
6660,14.46
6672,15.22
6684,16.15
6696,17.04
6708,17.76
6720,18.33
6732,18.8
6743,19.23
6754,19.63
6766,19.97
6778,20.18
6790,20.21
6802,20.03
6814,19.66
6826,19.14
6838,18.55
6850,17.93
6862,17.31
6874,16.66
6886,16.01
6898,15.37
6910,14.71
6922,14.02
6933,13.2
6944,12.18
6956,10.93
6968,9.52
6980,8.14
6992,6.94
7004,5.98
7016,5.2
7028,4.39
7040,3.33
7052,1.81
7064,-0.29
7076,-2.99
7088,-6.15
7100,-9.49
7112,-12.46
7123,-14.41
7134,-14.69
7146,-12.93
7158,-9.21
7170,-4.12
7182,1.46
7194,6.6
7206,10.59
7218,13.07
7230,14.0
7242,13.51
7254,11.78
7266,9.02
7278,5.47
7290,1.49
7302,-2.49
7313,-6.02
7324,-8.73
7336,-10.43
7348,-11.14
7360,-11.04
7372,-10.36
7384,-9.33
7396,-8.13
7408,-6.87
7420,-5.59
7432,-4.38
7444,-3.32
7456,-2.63
7468,-2.55
7480,-3.36
7492,-5.19
7503,-8.0
7514,-11.58
7526,-15.61
7538,-19.77
7550,-23.85
7562,-27.7
7574,-31.18
7586,-34.12
7598,-36.32
7610,-37.63
7622,-38.02
7634,-37.61
7646,-36.65
7658,-35.45
7670,-34.32
7682,-33.45
7693,-33.02
7704,-33.11
7716,-33.72
7728,-34.71
7740,-35.72
7752,-36.19
7764,-35.5
7776,-33.13
7788,-28.94
7800,-23.21
7812,-16.6
7824,-9.95
7836,-3.94
7848,1.07
7860,5.11
7872,8.38
7883,11.07
7894,13.18
7906,14.63
7918,15.34
7930,15.45
7942,15.35
7954,15.56
7966,16.58
7978,18.65
7990,21.78
8002,25.75
8014,30.29
8026,35.07
8038,39.8
8050,44.16
8062,47.81
8073,50.49
8084,52.04
8096,52.5
8108,52.03
8120,50.85
8132,49.12
8144,46.9
8156,44.17
8168,40.88
8180,37.08
8192,32.85
8204,28.36
8216,23.75
8228,19.2
8240,14.83
8252,10.8
8263,7.2
8274,4.05
8286,1.27
8298,-1.23
8310,-3.4
8322,-4.88
8334,-4.95
8346,-2.73
8358,2.5
8370,10.98
8382,22.28
8394,35.41
8406,49.09
8418,62.08
8430,73.52
8442,82.99
8453,90.46
8464,96.16
8476,100.36
8488,103.31
8500,105.18
8512,106.07
8524,106.11
8536,105.51
8548,104.56
8560,103.69
8572,103.38
8584,104.07
8596,106.13
8608,109.67
8620,114.38
8632,119.43
8643,123.37
8654,124.31
8666,120.3
8678,109.82
8690,92.27
8702,68.04
8714,38.49
8726,5.53
8738,-28.66
8750,-62.02
8762,-92.7
8774,-119.14
8786,-140.23
8798,-155.42
8810,-164.87
8822,-169.46
8833,-170.61
8844,-169.91
8856,-168.72
8868,-167.95
8880,-167.92
8892,-168.49
8904,-169.3
8916,-169.89
8928,-169.93
8940,-169.31
8952,-168.13
8964,-166.71
8976,-165.5
8988,-164.95
9000,-165.3
9012,-166.37
9023,-167.45
9034,-167.4
9046,-164.99
9058,-159.31
9070,-150.08
9082,-137.74
9094,-123.26
9106,-107.75
9118,-92.08
9130,-76.66
9142,-61.44
9154,-46.12
9166,-30.33
9178,-13.82
9190,3.37
9202,20.91
9213,38.08
9224,53.89
9236,67.23
9248,77.25
9260,83.71
9272,87.26
9284,89.28
9296,91.42
9308,94.89
9320,99.91
9332,105.6
9344,110.5
9356,113.29
9368,113.45
9380,111.48
9392,108.46
9403,105.48
9414,103.01
9426,100.8
9438,97.97
9450,93.39
9462,85.91
9474,74.67
9486,59.27
9498,40.07
9510,18.41
9522,-3.55
9534,-23.35
9546,-39.01
9558,-49.74
9570,-56.05
9582,-59.4
9593,-61.41
9604,-63.28
9616,-65.48
9628,-67.83
9640,-69.82
9652,-70.81
9664,-70.05
9676,-66.67
9688,-59.72
9700,-48.42
9712,-32.49
9724,-12.39
9736,10.62
9748,34.75
9760,58.02
9772,78.66
9783,95.49
9794,108.01
9806,116.45
9818,121.48
9830,123.83
9842,123.88
9854,121.39
9866,115.53
9878,105.22
9890,89.78
9902,69.47
9914,45.76
9926,21.06
9938,-1.98
9950,-21.21
9962,-35.66
9973,-45.58
9984,-52.11
9996,-56.71
10008,-60.66
10020,-64.79
10032,-69.54
10044,-75.09
10056,-81.46
10068,-88.42
10080,-95.35
10092,-101.25
10104,-104.84
10116,-105.09
10128,-101.68
10140,-95.24
10152,-87.19
10163,-79.23
10174,-72.56
10186,-67.35
10198,-62.71
10210,-57.21
10222,-49.67
10234,-39.88
10246,-28.81
10258,-18.16
10270,-9.58
10282,-3.97
10294,-1.13
10306,-0.03
10318,0.68
10330,2.03
10342,4.46
10353,7.84
10364,11.8
10376,15.96
10388,20.1
10400,24.11
10412,27.8
10424,30.9
10436,33.1
10448,34.16
10460,34.06
10472,32.98
10484,31.22
10496,29.01
10508,26.42
10520,23.29
10532,19.34
10543,14.29
10554,8.1
10566,1.05
10578,-6.37
10590,-13.69
10602,-20.71
10614,-27.63
10626,-34.94
10638,-43.04
10650,-51.85
10662,-60.63
10674,-68.12
10686,-73.04
10698,-74.49
10710,-72.25
10722,-66.66
10733,-58.43
10744,-48.3
10756,-36.94
10768,-25.01
10780,-13.25
10792,-2.47
10804,6.51
10816,13.04
10828,16.84
10840,18.0
10852,17.03
10864,14.84
10876,12.52
10888,11.13
10900,11.4
10912,13.52
10923,17.18
10934,21.8
10946,26.79
10958,31.79
10970,36.74
10982,41.72
10994,46.81
11006,51.98
11018,57.12
11030,62.09
11042,66.74
11054,70.95
11066,74.54
11078,77.31
11090,78.99
11102,79.35
11113,78.21
11124,75.49
11136,71.3
11148,65.92
11160,59.77
11172,53.36
11184,47.1
11196,41.18
11208,35.47
11220,29.54
11232,22.79
11244,14.74
11256,5.3
11268,-4.98
11280,-15.0
11292,-23.32
11303,-28.64
11314,-30.22
11326,-28.13
11338,-23.21
11350,-16.74
11362,-10.05
11374,-4.22
11386,0.09
11398,2.55
11410,3.14
11422,1.93
11434,-0.85
11446,-4.89
11458,-9.77
11470,-15.06
11482,-20.38
11493,-25.5
11504,-30.31
11516,-34.86
11528,-39.31
11540,-43.91
11552,-48.88
11564,-54.25
11576,-59.78
11588,-64.87
11600,-68.68
11612,-70.36
11624,-69.34
11636,-65.57
11648,-59.59
11660,-52.35
11672,-44.89
11683,-38.0
11694,-32.15
11706,-27.4
11718,-23.69
11730,-20.9
11742,-18.99
11754,-17.97
11766,-17.82
11778,-18.41
11790,-19.49
11802,-20.75
11814,-21.89
11826,-22.69
11838,-22.98
11850,-22.73
11862,-21.95
11873,-20.76
11884,-19.28
11896,-17.64
11908,-15.99
11920,-14.52
11932,-13.53
11944,-13.33
11956,-14.16
11968,-15.94
11980,-18.22
11992,-20.15
12004,-20.75
12016,-19.25
12028,-15.43
12040,-9.67
12052,-2.86
12063,3.99
12074,10.08
12086,15.08
12098,19.01
12110,22.13
12122,24.6
12134,26.38
12146,27.33
12158,27.38
12170,26.67
12182,25.62
12194,24.79
12206,24.59
12218,25.21
12230,26.53
12242,28.22
12253,29.91
12264,31.37
12276,32.51
12288,33.34
12300,33.94
12312,34.36
12324,34.62
12336,34.76
12348,34.9
12360,35.24
12372,36.01
12384,37.21
12396,38.42
12408,38.74
12420,36.97
12432,32.1
12443,23.81
12454,12.77
12466,0.47
12478,-11.28
12490,-20.96
12502,-27.76
12514,-31.64
12526,-33.07
12538,-32.66
12550,-30.93
12562,-28.28
12574,-25.07
12586,-21.69
12598,-18.49
12610,-15.71
12622,-13.3
12633,-11.09
12644,-8.86
12656,-6.56
12668,-4.37
12680,-2.54
12692,-1.09
12704,0.39
12716,2.74
12728,6.96
12740,13.75
12752,23.24
12764,34.84
12776,47.53
12788,60.22
12800,72.09
12812,82.6
12823,91.3
12834,97.58
12846,100.59
12858,99.51
12870,93.96
12882,84.36
12894,71.94
12906,58.4
12918,45.33
12930,33.72
12942,23.74
12954,14.96
12966,6.74
12978,-1.34
12990,-9.28
13002,-16.67
13013,-22.96
13024,-27.71
13036,-30.76
13048,-32.21
13060,-32.26
13072,-31.08
13084,-28.76
13096,-25.37
13108,-21.01
13120,-15.97
13132,-10.68
13144,-5.62
13156,-1.23
13168,2.24
13180,4.77
13192,6.52
13203,7.77
13214,8.84
13226,9.93
13238,11.14
13250,12.42
13262,13.64
13274,14.63
13286,15.24
13298,15.41
13310,15.09
13322,14.26
13334,12.86
13346,10.84
13358,8.18
13370,4.95
13382,1.25
13393,-2.76
13404,-6.84
13416,-10.72
13428,-13.92
13440,-15.87
13452,-15.94
13464,-13.74
13476,-9.26
13488,-2.96
13500,4.29
13512,11.56
13524,18.08
13536,23.42
13548,27.43
13560,30.1
13572,31.38
13583,31.14
13594,29.29
13606,25.96
13618,21.62
13630,17.0
13642,12.86
13654,9.71
13666,7.77
13678,6.82
13690,6.51
13702,6.47
13714,6.45
13726,6.37
13738,6.15
13750,5.74
13762,4.99
13773,3.83
13784,2.31
13796,0.59
13808,-1.0
13820,-2.17
13832,-2.71
13844,-2.59
13856,-1.95
13868,-1.01
13880,-0.05
13892,0.64
13904,0.88
13916,0.56
13928,-0.27
13940,-1.46
13952,-2.74
13963,-3.85
13974,-4.61
13986,-4.99
13998,-5.11
14010,-5.22
14022,-5.62
14034,-6.52
14046,-7.95
14058,-9.73
14070,-11.36
14082,-12.19
14094,-11.59
14106,-9.15
14118,-4.86
14130,0.84
14142,7.25
14153,13.58
14164,19.19
14176,23.69
14188,26.89
14200,28.64
14212,28.74
14224,26.96
14236,23.11
14248,17.34
14260,10.17
14272,2.5
14284,-4.69
14296,-10.6
14308,-14.87
14320,-17.59
14332,-19.18
14343,-20.08
14354,-20.67
14366,-21.06
14378,-21.3
14390,-21.43
14402,-21.59
14414,-21.98
14426,-22.75
14438,-23.92
14450,-25.36
14462,-26.89
14474,-28.32
14486,-29.57
14498,-30.66
14510,-31.72
14522,-32.9
14533,-34.25
14544,-35.71
14556,-37.18
14568,-38.55
14580,-39.89
14592,-41.41
14604,-43.46
14616,-46.39
14628,-50.36
14640,-55.29
14652,-60.74
14664,-65.95
14676,-69.98
14688,-71.8
14700,-70.5
14712,-65.57
14723,-57.04
14734,-45.68
14746,-32.81
14758,-20.1
14770,-9.07
14782,-0.75
14794,4.51
14806,7.03
14818,7.51
14830,6.77
14842,5.46
14854,3.92
14866,2.21
14878,0.25
14890,-1.99
14902,-4.38
14913,-6.55
14924,-8.08
14936,-8.61
14948,-8.01
14960,-6.47
14972,-4.35
14984,-2.13
14996,-0.2
15008,1.2
15020,1.94
15032,1.93
15044,1.11
15056,-0.53
15068,-2.89
15080,-5.65
15092,-8.32
15103,-10.36
15114,-11.39
15126,-11.4
15138,-10.89
15150,-10.73
15162,-11.84
15174,-14.91
15186,-20.11
15198,-27.09
15210,-35.16
15222,-43.53
15234,-51.44
15246,-58.25
15258,-63.24
15270,-65.62
15282,-64.62
15293,-59.66
15304,-50.76
15316,-38.64
15328,-24.71
15340,-10.74
15352,1.68
15364,11.51
15376,18.44
15388,22.79
15400,25.21
15412,26.23
15424,26.09
15436,24.67
15448,21.76
15460,17.33
15472,11.76
15483,5.8
15494,0.39
15506,-3.64
15518,-5.84
15530,-6.18
15542,-5.04
15554,-2.96
15566,-0.52
15578,1.83
15590,3.79
15602,5.27
15614,6.23
15626,6.71
15638,6.66
15650,5.97
15662,4.52
15673,2.23
15684,-0.87
15696,-4.65
15708,-8.84
15720,-13.19
15732,-17.46
15744,-21.48
15756,-25.1
15768,-28.25
15780,-30.97
15792,-33.48
15804,-36.22
15816,-39.77
15828,-44.57
15840,-50.66
15852,-57.41
15863,-63.59
15874,-67.61
15886,-68.06
15898,-64.2
15910,-56.21
15922,-45.1
15934,-32.32
15946,-19.31
15958,-7.17
15970,3.47
15982,12.24
15994,18.9
16006,23.24
16018,25.14
16030,24.7
16042,22.39
16053,19.0
16064,15.48
16076,12.66
16088,11.1
16100,10.97
16112,12.12
16124,14.14
16136,16.56
16148,18.96
16160,21.04
16172,22.69
16184,23.92
16196,24.73
16208,25.08
16220,24.8
16232,23.7
16243,21.63
16254,18.66
16266,15.07
16278,11.34
16290,7.92
16302,5.09
16314,2.85
16326,0.99
16338,-0.81
16350,-2.87
16362,-5.43
16374,-8.67
16386,-12.73
16398,-17.64
16410,-23.26
16422,-29.11
16433,-34.31
16444,-37.77
16456,-38.46
16468,-35.73
16480,-29.66
16492,-21.0
16504,-10.98
16516,-0.94
16528,8.06
16540,15.44
16552,21.03
16564,24.93
16576,27.27
16588,28.13
16600,27.54
16612,25.66
16623,22.88
16634,19.83
16646,17.22
16658,15.62
16670,15.35
16682,16.42
16694,18.51
16706,21.22
16718,24.15
16730,26.96
16742,29.38
16754,31.14
16766,31.95
16778,31.51
16790,29.57
16802,26.0
16813,20.84
16824,14.38
16836,7.09
16848,-0.42
16860,-7.54
16872,-13.78
16884,-18.86
16896,-22.7
16908,-25.27
16920,-26.53
16932,-26.4
16944,-24.83
16956,-21.95
16968,-18.2
16980,-14.09
16992,-9.88
17003,-5.28
17014,0.65
17026,9.24
17038,21.62
17050,38.16
17062,58.16
17074,80.05
17086,101.83
17098,121.67
17110,138.19
17122,150.57
17134,158.34
17146,161.32
17158,159.55
17170,153.41
17182,143.72
17193,131.63
17204,118.46
17216,105.4
17228,93.35
17240,82.86
17252,74.17
17264,67.32
17276,62.14
17288,58.31
17300,55.34
17312,52.65
17324,49.71
17336,46.17
17348,41.9
17360,37.07
17372,31.99
17383,27.02
17394,22.49
17406,18.57
17418,15.25
17430,12.3
17442,9.3
17454,5.81
17466,1.6
17478,-3.25
17490,-8.27
17502,-12.83
17514,-16.39
17526,-18.74
17538,-20.05
17550,-20.83
17562,-21.68
17573,-23.13
17584,-25.49
17596,-28.84
17608,-32.87
17620,-36.96
17632,-40.17
17644,-41.46
17656,-39.97
17668,-35.31
17680,-27.76
17692,-18.21
17704,-7.93
17716,1.85
17728,10.17
17740,16.53
17752,20.73
17763,22.8
17774,22.77
17786,20.67
17798,16.66
17810,11.1
17822,4.62
17834,-1.96
17846,-7.77
17858,-12.17
17870,-14.88
17882,-15.99
17894,-15.86
17906,-14.94
17918,-13.57
17930,-12.01
17942,-10.4
17953,-8.92
17964,-7.78
17976,-7.25
17988,-7.56
18000,-8.85
18012,-11.11
18024,-14.13
18036,-17.6
18048,-21.2
18060,-24.71
18072,-28.08
18084,-31.37
18096,-34.6
18108,-37.64
18120,-40.21
18132,-41.96
18143,-42.65
18154,-42.34
18166,-41.36
18178,-40.2
18190,-39.34
18202,-39.06
18214,-39.44
18226,-40.49
18238,-42.13
18250,-44.19
18262,-46.26
18274,-47.59
18286,-47.19
18298,-44.12
18310,-37.86
18322,-28.55
18333,-17.06
18344,-4.72
18356,7.03
18368,17.0
18380,24.45
18392,29.13
18404,31.14
18416,30.84
18428,28.77
18440,25.51
18452,21.83
18464,18.46
18476,16.03
18488,14.93
18500,15.18
18512,16.51
18523,18.5
18534,20.76
18546,23.01
18558,25.12
18570,27.04
18582,28.65
18594,29.81
18606,30.37
18618,30.27
18630,29.56
18642,28.42
18654,27.02
18666,25.49
18678,23.87
18690,22.18
18702,20.39
18713,18.48
18724,16.33
18736,13.79
18748,10.69
18760,6.93
18772,2.6
18784,-2.0
18796,-6.44
18808,-10.32
18820,-13.41
18832,-15.69
18844,-17.32
18856,-18.47
18868,-19.28
18880,-19.77
18892,-19.95
18903,-19.93
18914,-19.98
18926,-20.54
18938,-22.02
18950,-24.58
18962,-27.9
18974,-31.12
18986,-32.99
18998,-32.16
19010,-27.72
19022,-19.56
19034,-8.53
19046,3.7
19058,15.17
19070,24.24
19082,30.09
19093,32.79
19104,33.07
19116,31.83
19128,29.78
19140,27.2
19152,24.13
19164,20.6
19176,16.9
19188,13.48
19200,10.84
19212,9.33
19224,8.91
19236,9.32
19248,10.13
19260,11.0
19272,11.64
19283,11.88
19294,11.55
19306,10.54
19318,8.9
19330,6.85
19342,4.82
19354,3.23
19366,2.32
19378,2.03
19390,2.0
19402,1.71
19414,0.69
19426,-1.37
19438,-4.66
19450,-9.25
19462,-15.2
19473,-22.52
19484,-31.12
19496,-40.63
19508,-50.47
19520,-59.8
19532,-67.82
19544,-73.86
19556,-77.61
19568,-79.18
19580,-79.07
19592,-78.02
19604,-76.81
19616,-76.02
19628,-75.83
19640,-75.88
19652,-75.31
19663,-72.9
19674,-67.42
19686,-58.13
19698,-45.07
19710,-29.23
19722,-12.29
19734,3.77
19746,17.24
19758,26.94
19770,32.42
19782,33.76
19794,31.49
19806,26.38
19818,19.52
19830,12.22
19842,5.9
19853,1.88
19864,0.95
19876,3.11
19888,7.58
19900,12.9
19912,17.33
19924,19.3
19936,17.84
19948,12.77
19960,4.83
19972,-4.69
19984,-14.29
19996,-22.85
20008,-29.91
20020,-35.65
20032,-40.53
20043,-44.96
20054,-48.9
20066,-51.89
20078,-53.37
20090,-53.01
20102,-50.91
20114,-47.68
20126,-44.11
20138,-40.94
20150,-38.55
20162,-36.95
20174,-35.9
20186,-34.95
20198,-33.68
20210,-31.76
20222,-29.2
20233,-26.37
20244,-24.1
20256,-23.47
20268,-25.5
20280,-30.64
20292,-38.47
20304,-47.61
20316,-56.08
20328,-61.93
20340,-63.81
20352,-61.33
20364,-54.96
20376,-45.72
20388,-34.71
20400,-22.9
20412,-11.0
20423,0.32
20434,10.47
20446,18.91
20458,25.25
20470,29.39
20482,31.52
20494,32.08
20506,31.7
20518,31.09
20530,30.99
20542,31.97
20554,34.28
20566,37.64
20578,41.25
20590,44.07
20602,45.23
20613,44.46
20624,42.24
20636,39.55
20648,37.32
20660,35.99
20672,35.23
20684,34.14
20696,31.76
20708,27.56
20720,21.73
20732,14.97
20744,8.26
20756,2.38
20768,-2.29
20780,-5.69
20792,-7.94
20803,-9.15
20814,-9.38
20826,-8.71
20838,-7.29
20850,-5.32
20862,-2.96
20874,-0.26
20886,2.82
20898,6.18
20910,9.33
20922,11.27
20934,10.76
20946,6.83
20958,-0.58
20970,-10.21
20982,-19.72
20993,-26.33
