seconds,BVP
4,9.09
15,9.42
26,9.72
38,9.93
50,9.98
62,9.84
74,9.47
86,8.83
98,7.89
110,6.71
122,5.39
134,4.02
146,2.65
158,1.24
170,-0.32
182,-2.1
194,-4.12
205,-6.29
216,-8.46
228,-10.5
240,-12.31
252,-13.9
264,-15.36
276,-16.85
288,-18.51
300,-20.45
312,-22.69
324,-25.09
336,-27.36
348,-29.11
360,-29.79
372,-28.97
384,-26.34
395,-21.84
406,-15.83
418,-8.86
430,-1.71
442,4.88
454,10.31
466,14.3
478,16.82
490,18.07
502,18.38
514,18.07
526,17.45
538,16.73
550,15.99
562,15.23
574,14.37
585,13.3
596,11.99
608,10.51
620,9.01
632,7.73
644,6.85
656,6.49
668,6.62
680,7.13
692,7.85
704,8.55
716,9.02
728,9.06
740,8.62
752,7.7
764,6.4
775,4.82
786,3.07
798,1.16
810,-0.86
822,-2.93
834,-4.96
846,-6.88
858,-8.7
870,-10.5
882,-12.38
894,-14.35
906,-16.34
918,-18.24
930,-19.96
942,-21.44
954,-22.65
965,-23.48
976,-23.69
988,-22.9
1000,-20.74
1012,-17.04
1024,-11.93
1036,-5.81
1048,0.68
1060,6.9
1072,12.32
1084,16.58
1096,19.52
1108,21.13
1120,21.56
1132,21.04
1144,19.9
1155,18.42
1166,16.86
1178,15.39
1190,14.08
1202,12.9
1214,11.83
1226,10.81
1238,9.85
1250,9.03
1262,8.4
1274,8.05
1286,8.01
1298,8.21
1310,8.45
1322,8.44
1334,7.92
1345,6.74
1356,4.96
1368,2.74
1380,0.33
1392,-2.09
1404,-4.41
1416,-6.63
1428,-8.73
1440,-10.7
1452,-12.53
1464,-14.22
1476,-15.92
1488,-17.78
1500,-19.95
1512,-22.4
1524,-24.88
1535,-27.03
1546,-28.45
1558,-28.86
1570,-28.09
1582,-26.05
1594,-22.74
1606,-18.19
1618,-12.53
1630,-6.11
1642,0.55
1654,6.8
1666,12.06
1678,15.97
1690,18.48
1702,19.77
1714,20.13
1725,19.81
1736,18.98
1748,17.79
1760,16.43
1772,15.1
1784,14.02
1796,13.27
1808,12.81
1820,12.5
1832,12.12
1844,11.52
1856,10.68
1868,9.7
1880,8.76
1892,8.03
1904,7.55
1915,7.22
1926,6.85
1938,6.21
1950,5.18
1962,3.74
1974,1.98
1986,-0.0
1998,-2.17
2010,-4.55
2022,-7.15
2034,-9.87
2046,-12.51
2058,-14.78
2070,-16.53
2082,-17.79
2094,-18.83
2105,-20.01
2116,-21.57
2128,-23.52
2140,-25.61
2152,-27.42
2164,-28.48
2176,-28.39
2188,-26.9
2200,-23.88
2212,-19.33
2224,-13.45
2236,-6.63
2248,0.56
2260,7.4
2272,13.27
2284,17.7
2295,20.57
2306,22.02
2318,22.39
2330,22.01
2342,21.12
2354,19.9
2366,18.41
2378,16.73
2390,15.0
2402,13.39
2414,12.02
2426,10.96
2438,10.17
2450,9.58
2462,9.13
2474,8.79
2485,8.54
2496,8.35
2508,8.14
2520,7.78
2532,7.19
2544,6.32
2556,5.23
2568,4.01
2580,2.71
2592,1.31
2604,-0.26
2616,-2.07
2628,-4.11
2640,-6.28
2652,-8.4
2664,-10.3
2675,-11.91
2686,-13.28
2698,-14.57
2710,-15.97
2722,-17.63
2734,-19.55
2746,-21.61
2758,-23.55
2770,-25.09
2782,-25.9
2794,-25.64
2806,-24.04
2818,-20.94
2830,-16.35
2842,-10.48
2854,-3.8
2865,3.08
2876,9.54
2888,15.02
2900,19.15
2912,21.84
2924,23.15
2936,23.3
2948,22.58
2960,21.25
2972,19.59
2984,17.77
2996,15.94
3008,14.18
3020,12.6
3032,11.33
3044,10.53
3055,10.31
3066,10.68
3078,11.51
3090,12.53
3102,13.42
3114,13.83
3126,13.58
3138,12.59
3150,10.92
3162,8.71
3174,6.07
3186,3.13
3198,0.01
3210,-3.14
3222,-6.16
3234,-8.85
3245,-11.09
3256,-12.83
3268,-14.15
3280,-15.24
3292,-16.35
3304,-17.76
3316,-19.61
3328,-21.84
3340,-24.23
3352,-26.42
3364,-27.94
3376,-28.4
3388,-27.5
3400,-25.1
3412,-21.27
3424,-16.2
3435,-10.23
3446,-3.8
3458,2.56
3470,8.36
3482,13.22
3494,16.89
3506,19.31
3518,20.57
3530,20.84
3542,20.35
3554,19.3
3566,17.89
3578,16.27
3590,14.61
3602,13.01
3614,11.62
3625,10.52
3636,9.75
3648,9.36
3660,9.37
3672,9.75
3684,10.44
3696,11.24
3708,11.87
3720,12.06
3732,11.57
3744,10.33
3756,8.45
3768,6.19
3780,3.86
3792,1.7
3804,-0.19
3815,-1.85
3826,-3.41
3838,-4.99
3850,-6.69
3862,-8.47
3874,-10.25
3886,-11.95
3898,-13.53
3910,-15.03
3922,-16.56
3934,-18.27
3946,-20.31
3958,-22.7
3970,-25.33
3982,-27.91
3994,-30.03
4005,-31.21
4016,-31.07
4028,-29.29
4040,-25.79
4052,-20.65
4064,-14.15
4076,-6.78
4088,0.84
4100,8.03
4112,14.13
4124,18.7
4136,21.55
4148,22.75
4160,22.61
4172,21.56
4184,20.02
4195,18.31
4206,16.68
4218,15.24
4230,14.03
4242,13.01
4254,12.15
4266,11.43
4278,10.82
4290,10.35
4302,10.07
4314,9.99
4326,10.14
4338,10.47
4350,10.87
4362,11.15
4374,11.1
4385,10.52
4396,9.32
4408,7.58
4420,5.52
4432,3.41
4444,1.45
4456,-0.36
4468,-2.14
4480,-4.08
4492,-6.33
4504,-8.87
4516,-11.55
4528,-14.16
4540,-16.46
4552,-18.26
4564,-19.49
4575,-20.23
4586,-20.7
4598,-21.21
4610,-22.0
4622,-23.2
4634,-24.72
4646,-26.24
4658,-27.35
4670,-27.66
4682,-26.83
4694,-24.69
4706,-21.16
4718,-16.31
4730,-10.43
4742,-3.95
4754,2.57
4765,8.55
4776,13.51
4788,17.2
4800,19.58
4812,20.76
4824,20.86
4836,20.09
4848,18.66
4860,16.82
4872,14.83
4884,12.93
4896,11.31
4908,10.06
4920,9.18
4932,8.64
4944,8.41
4955,8.47
4966,8.78
4978,9.28
4990,9.83
5002,10.29
5014,10.45
5026,10.21
5038,9.56
5050,8.63
5062,7.62
5074,6.64
5086,5.66
5098,4.53
5110,3.06
5122,1.12
5134,-1.21
5145,-3.69
5156,-5.99
5168,-7.87
5180,-9.24
5192,-10.25
5204,-11.14
5216,-12.21
5228,-13.65
5240,-15.48
5252,-17.59
5264,-19.75
5276,-21.71
5288,-23.23
5300,-24.06
5312,-23.97
5324,-22.72
5335,-20.1
5346,-16.04
5358,-10.69
5370,-4.44
5382,2.09
5394,8.27
5406,13.57
5418,17.66
5430,20.4
5442,21.88
5454,22.26
5466,21.79
5478,20.72
5490,19.3
5502,17.74
5514,16.18
5525,14.66
5536,13.21
5548,11.87
5560,10.72
5572,9.84
5584,9.25
5596,8.94
5608,8.76
5620,8.62
5632,8.47
5644,8.34
5656,8.29
5668,8.3
5680,8.2
5692,7.76
5704,6.8
5715,5.26
5726,3.25
5738,1.05
5750,-1.11
5762,-3.1
5774,-4.9
5786,-6.59
5798,-8.22
5810,-9.79
5822,-11.28
5834,-12.66
5846,-13.94
5858,-15.16
5870,-16.42
5882,-17.81
5894,-19.36
5905,-21.13
5916,-23.06
5928,-25.07
5940,-26.99
5952,-28.53
5964,-29.37
5976,-29.16
5988,-27.6
6000,-24.56
6012,-20.09
6024,-14.43
6036,-8.02
6048,-1.36
6060,5.09
6072,10.87
6084,15.69
6095,19.41
6106,21.95
6118,23.35
6130,23.7
6142,23.15
6154,21.91
6166,20.21
6178,18.3
6190,16.42
6202,14.71
6214,13.25
6226,12.08
6238,11.2
6250,10.68
6262,10.6
6274,11.03
6285,11.9
6296,13.04
6308,14.12
6320,14.79
6332,14.83
6344,14.16
6356,12.84
6368,11.07
6380,8.96
6392,6.6
6404,4.06
6416,1.44
6428,-1.1
6440,-3.33
6452,-5.09
6464,-6.37
6475,-7.34
6486,-8.29
6498,-9.53
6510,-11.19
6522,-13.17
6534,-15.23
6546,-17.11
6558,-18.69
6570,-20.1
6582,-21.57
6594,-23.3
6606,-25.28
6618,-27.27
6630,-28.89
6642,-29.82
6654,-29.79
6665,-28.66
6676,-26.33
6688,-22.64
6700,-17.56
6712,-11.26
6724,-4.23
6736,2.74
6748,8.84
6760,13.47
6772,16.44
6784,17.88
6796,18.19
6808,17.74
6820,16.81
6832,15.53
6844,13.98
6855,12.3
6866,10.7
6878,9.37
6890,8.47
6902,8.06
6914,8.06
6926,8.31
6938,8.65
6950,9.0
6962,9.35
6974,9.75
6986,10.19
6998,10.62
7010,10.88
7022,10.79
7034,10.23
7045,9.14
7056,7.6
7068,5.77
7080,3.82
7092,1.87
7104,0.02
7116,-1.76
7128,-3.51
7140,-5.28
7152,-7.13
7164,-9.06
7176,-11.0
7188,-12.86
7200,-14.61
7212,-16.27
7224,-17.96
7235,-19.77
7246,-21.69
7258,-23.45
7270,-24.62
7282,-24.73
7294,-23.41
7306,-20.61
7318,-16.52
7330,-11.51
7342,-5.99
7354,-0.26
7366,5.4
7378,10.69
7390,15.28
7402,18.81
7414,21.02
7425,21.88
7436,21.55
7448,20.41
7460,18.88
7472,17.31
7484,15.9
7496,14.7
7508,13.65
7520,12.68
7532,11.74
7544,10.9
7556,10.26
7568,9.97
7580,10.03
7592,10.32
7604,10.59
7615,10.55
7626,10.02
7638,8.98
7650,7.57
7662,5.95
7674,4.21
7686,2.31
7698,0.18
7710,-2.25
7722,-4.92
7734,-7.63
7746,-10.17
7758,-12.36
7770,-14.16
7782,-15.64
7794,-16.96
7805,-18.24
7816,-19.62
7828,-21.14
7840,-22.79
7852,-24.48
7864,-25.98
7876,-27.01
7888,-27.25
7900,-26.39
7912,-24.18
7924,-20.51
7936,-15.44
7948,-9.27
7960,-2.51
7972,4.19
7984,10.18
7995,14.96
8006,18.29
8018,20.26
8030,21.17
8042,21.3
8054,20.86
8066,19.86
8078,18.24
8090,16.02
8102,13.37
8114,10.58
8126,8.02
8138,5.88
8150,4.19
8162,2.78
8174,1.36
8185,-0.32
8196,-2.41
8208,-4.87
8220,-7.5
8232,-9.95
8244,-11.83
8256,-12.78
8268,-12.61
8280,-11.4
8292,-9.54
8304,-7.61
8316,-6.19
8328,-5.7
8340,-6.18
8352,-7.33
8364,-8.64
8375,-9.54
8386,-9.65
8398,-8.87
8410,-7.33
8422,-5.34
8434,-3.24
8446,-1.42
8458,-0.21
8470,0.1
8482,-0.58
8494,-2.08
8506,-3.82
8518,-4.97
8530,-4.73
8542,-2.73
8554,0.74
8565,4.79
8576,8.39
8588,10.93
8600,12.39
8612,13.26
8624,13.92
8636,14.25
8648,13.5
8660,10.7
8672,5.42
8684,-1.76
8696,-9.23
8708,-15.05
8720,-17.81
8732,-17.24
8744,-14.27
8755,-10.45
8766,-7.14
8778,-4.82
8790,-3.16
8802,-1.45
8814,0.66
8826,2.79
8838,3.92
8850,3.03
8862,-0.22
8874,-5.14
8886,-10.31
8898,-14.29
8910,-16.36
8922,-16.82
8934,-16.6
8945,-16.53
8956,-16.69
8968,-16.35
8980,-14.48
8992,-10.5
9004,-4.83
9016,1.25
9028,6.24
9040,9.17
9052,10.08
9064,9.79
9076,9.51
9088,10.29
9100,12.72
9112,16.93
9124,22.71
9135,29.53
9146,36.52
9158,42.46
9170,45.93
9182,45.7
9194,41.25
9206,33.08
9218,22.64
9230,11.92
9242,2.71
9254,-3.93
9266,-7.83
9278,-9.52
9290,-9.79
9302,-9.25
9314,-8.12
9325,-6.33
9336,-3.67
9348,-0.07
9360,4.36
9372,9.41
9384,14.9
9396,20.69
9408,26.68
9420,32.63
9432,38.15
9444,42.9
9456,46.77
9468,50.14
9480,53.69
9492,58.11
9504,63.57
9515,69.5
9526,74.57
9538,77.19
9550,76.08
9562,70.77
9574,61.72
9586,50.08
9598,37.19
9610,24.24
9622,12.07
9634,1.22
9646,-7.94
9658,-15.14
9670,-20.22
9682,-23.28
9694,-24.66
9705,-24.85
9716,-24.39
9728,-23.7
9740,-23.04
9752,-22.48
9764,-22.03
9776,-21.61
9788,-21.12
9800,-20.44
9812,-19.49
9824,-18.38
9836,-17.37
9848,-16.85
9860,-17.09
9872,-18.02
9884,-19.25
9895,-20.14
9906,-20.24
9918,-19.5
9930,-18.45
9942,-17.9
9954,-18.56
9966,-20.69
9978,-23.93
9990,-27.54
10002,-30.71
10014,-32.9
10026,-33.99
10038,-34.24
10050,-34.07
10062,-33.86
10074,-33.84
10085,-34.09
10096,-34.6
10108,-35.34
10120,-36.22
10132,-37.15
10144,-38.03
10156,-38.74
10168,-39.2
10180,-39.38
10192,-39.24
10204,-38.73
10216,-37.83
10228,-36.47
10240,-34.61
10252,-32.2
10264,-29.19
10275,-25.59
10286,-21.42
10298,-16.77
10310,-11.85
10322,-6.94
10334,-2.33
10346,1.75
10358,5.18
10370,7.94
10382,10.04
10394,11.52
10406,12.41
10418,12.81
10430,12.84
10442,12.68
10454,12.44
10465,12.25
10476,12.14
10488,12.13
10500,12.24
10512,12.51
10524,12.91
10536,13.38
10548,13.79
10560,13.99
10572,13.86
10584,13.33
10596,12.46
10608,11.32
10620,9.97
10632,8.45
10644,6.76
10655,4.94
10666,3.1
10678,1.35
10690,-0.25
10702,-1.65
10714,-2.85
10726,-3.93
10738,-4.96
10750,-6.04
10762,-7.24
10774,-8.63
10786,-10.23
10798,-12.04
10810,-14.0
10822,-16.03
10834,-17.98
10845,-19.67
10856,-20.87
10868,-21.28
10880,-20.56
10892,-18.43
10904,-14.83
10916,-9.99
10928,-4.43
10940,1.2
10952,6.34
10964,10.64
10976,13.98
10988,16.39
11000,17.96
11012,18.69
11024,18.59
11035,17.7
11046,16.21
11058,14.43
11070,12.72
11082,11.35
11094,10.46
11106,10.05
11118,10.04
11130,10.31
11142,10.71
11154,11.14
11166,11.49
11178,11.68
11190,11.67
11202,11.44
11214,11.07
11225,10.6
11236,10.11
11248,9.63
11260,9.16
11272,8.59
11284,7.76
11296,6.5
11308,4.71
11320,2.46
11332,0.02
11344,-2.32
11356,-4.32
11368,-5.98
11380,-7.5
11392,-9.22
11404,-11.38
11415,-13.97
11426,-16.75
11438,-19.27
11450,-21.07
11462,-21.81
11474,-21.29
11486,-19.41
11498,-16.17
11510,-11.61
11522,-5.98
11534,0.3
11546,6.69
11558,12.67
11570,17.79
11582,21.8
11594,24.62
11605,26.25
11616,26.78
11628,26.4
11640,25.42
11652,24.18
11664,22.99
11676,22.01
11688,21.28
11700,20.7
11712,20.15
11724,19.57
11736,18.96
11748,18.32
11760,17.64
11772,16.86
11784,15.89
11795,14.68
11806,13.16
11818,11.28
11830,9.05
11842,6.5
11854,3.74
11866,0.93
11878,-1.78
11890,-4.32
11902,-6.71
11914,-9.04
11926,-11.4
11938,-13.81
11950,-16.28
11962,-18.72
11974,-21.03
11985,-23.12
11996,-24.91
12008,-26.35
12020,-27.49
12032,-28.48
12044,-29.51
12056,-30.77
12068,-32.32
12080,-33.93
12092,-35.15
12104,-35.37
12116,-33.96
12128,-30.56
12140,-25.12
12152,-17.98
12164,-9.83
12175,-1.52
12186,6.13
12198,12.5
12210,17.25
12222,20.32
12234,21.85
12246,22.15
12258,21.6
12270,20.54
12282,19.25
12294,17.91
12306,16.64
12318,15.51
12330,14.61
12342,14.01
12354,13.8
12365,13.99
12376,14.5
12388,15.2
12400,15.92
12412,16.56
12424,17.05
12436,17.35
12448,17.43
12460,17.19
12472,16.53
12484,15.38
12496,13.78
12508,11.85
12520,9.78
12532,7.76
12544,5.89
12555,4.21
12566,2.67
12578,1.17
12590,-0.41
12602,-2.22
12614,-4.35
12626,-6.91
12638,-9.87
12650,-13.09
12662,-16.34
12674,-19.38
12686,-22.03
12698,-24.27
12710,-26.18
12722,-27.88
12734,-29.41
12745,-30.62
12756,-31.22
12768,-30.85
12780,-29.21
12792,-26.11
12804,-21.54
12816,-15.72
12828,-9.0
12840,-1.89
12852,5.05
12864,11.3
12876,16.42
12888,20.19
12900,22.54
12912,23.59
12924,23.51
12935,22.52
12946,20.86
12958,18.81
12970,16.63
12982,14.58
12994,12.86
13006,11.59
13018,10.81
13030,10.47
13042,10.51
13054,10.8
13066,11.29
13078,11.85
13090,12.44
13102,13.01
13114,13.45
13125,13.66
13136,13.57
13148,13.1
13160,12.26
13172,11.09
13184,9.68
13196,8.08
13208,6.37
13220,4.56
13232,2.7
13244,0.84
13256,-1.0
13268,-2.84
13280,-4.7
13292,-6.63
13304,-8.61
13315,-10.56
13326,-12.37
13338,-14.0
13350,-15.51
13362,-17.09
13374,-18.93
13386,-21.06
13398,-23.32
13410,-25.29
13422,-26.48
13434,-26.42
13446,-24.82
13458,-21.63
13470,-17.02
13482,-11.26
13494,-4.74
13505,2.09
13516,8.71
13528,14.56
13540,19.16
13552,22.17
13564,23.48
13576,23.24
13588,21.83
13600,19.77
13612,17.55
13624,15.58
13636,14.09
13648,13.07
13660,12.43
13672,12.03
13684,11.75
13695,11.56
13706,11.38
13718,11.16
13730,10.83
13742,10.35
13754,9.73
13766,9.06
13778,8.37
13790,7.65
13802,6.77
13814,5.62
13826,4.15
13838,2.48
13850,0.83
13862,-0.64
13874,-1.87
13885,-3.0
13896,-4.24
13908,-5.76
13920,-7.56
13932,-9.49
13944,-11.33
13956,-12.92
13968,-14.28
13980,-15.5
13992,-16.71
14004,-18.01
14016,-19.39
14028,-20.82
14040,-22.25
14052,-23.74
14064,-25.4
14075,-27.29
14086,-29.26
14098,-30.91
14110,-31.69
14122,-30.98
14134,-28.38
14146,-23.82
14158,-17.68
14170,-10.61
14182,-3.43
14194,3.16
14206,8.69
14218,12.97
14230,16.01
14242,17.95
14254,18.93
14265,19.06
14276,18.52
14288,17.55
14300,16.46
14312,15.54
14324,15.0
14336,14.86
14348,14.97
14360,15.12
14372,15.11
14384,14.89
14396,14.54
14408,14.19
14420,13.9
14432,13.6
14444,13.19
14455,12.56
14466,11.71
14478,10.68
14490,9.57
14502,8.42
14514,7.16
14526,5.67
14538,3.9
14550,1.88
14562,-0.31
14574,-2.53
14586,-4.76
14598,-7.03
14610,-9.45
14622,-12.03
14634,-14.67
14645,-17.18
14656,-19.4
14668,-21.27
14680,-22.9
14692,-24.5
14704,-26.25
14716,-28.23
14728,-30.4
14740,-32.54
14752,-34.37
14764,-35.57
14776,-35.91
14788,-35.26
14800,-33.54
14812,-30.76
14824,-26.93
14835,-22.14
14846,-16.56
14858,-10.5
14870,-4.44
14882,1.1
14894,5.75
14906,9.33
14918,11.88
14930,13.6
14942,14.65
14954,15.15
14966,15.16
14978,14.73
14990,14.06
15002,13.4
15014,12.98
15025,12.9
15036,13.09
15048,13.38
15060,13.6
15072,13.69
15084,13.68
15096,13.62
15108,13.48
15120,13.17
15132,12.53
15144,11.53
15156,10.24
15168,8.82
15180,7.38
15192,5.91
15204,4.36
15215,2.64
15226,0.77
15238,-1.16
15250,-3.01
15262,-4.76
15274,-6.48
15286,-8.34
15298,-10.42
15310,-12.62
15322,-14.76
15334,-16.68
15346,-18.33
15358,-19.8
15370,-21.22
15382,-22.56
15394,-23.51
15405,-23.61
15416,-22.39
15428,-19.6
15440,-15.35
15452,-10.0
15464,-4.06
15476,1.98
15488,7.76
15500,12.97
15512,17.33
15524,20.61
15536,22.67
15548,23.52
15560,23.34
15572,22.4
15584,20.98
15595,19.29
15606,17.4
15618,15.29
15630,13.01
15642,10.67
15654,8.44
15666,6.55
15678,5.17
15690,4.35
15702,4.09
15714,4.28
15726,4.75
15738,5.29
15750,5.7
15762,5.77
15774,5.36
15785,4.37
15796,2.76
15808,0.64
15820,-1.83
15832,-4.42
15844,-6.88
15856,-9.1
15868,-11.07
15880,-12.87
15892,-14.71
15904,-16.73
15916,-18.97
15928,-21.35
15940,-23.58
15952,-25.35
15964,-26.36
15975,-26.39
15986,-25.26
15998,-22.86
16010,-19.08
16022,-13.91
16034,-7.54
16046,-0.4
16058,6.87
16070,13.51
16082,18.86
16094,22.59
16106,24.67
16118,25.37
16130,25.1
16142,24.24
16154,23.06
16165,21.7
16176,20.25
16188,18.8
16200,17.43
16212,16.23
16224,15.25
16236,14.48
16248,13.82
16260,13.14
16272,12.38
16284,11.55
16296,10.79
16308,10.24
16320,9.95
16332,9.82
16344,9.63
16355,9.05
16366,7.86
16378,5.97
16390,3.49
16402,0.63
16414,-2.36
16426,-5.29
16438,-8.0
16450,-10.4
16462,-12.44
16474,-14.08
16486,-15.41
16498,-16.6
16510,-17.92
16522,-19.65
16534,-21.91
16545,-24.6
16556,-27.3
16568,-29.43
16580,-30.32
16592,-29.46
16604,-26.6
16616,-21.83
16628,-15.55
16640,-8.36
16652,-0.96
16664,6.0
16676,12.01
16688,16.81
16700,20.36
16712,22.76
16724,24.22
16735,24.89
16746,24.85
16758,24.15
16770,22.86
16782,21.11
16794,19.15
16806,17.26
16818,15.67
16830,14.5
16842,13.7
16854,13.09
16866,12.48
16878,11.69
16890,10.72
16902,9.63
16914,8.56
16925,7.62
16936,6.77
16948,5.88
16960,4.8
16972,3.42
16984,1.76
16996,-0.05
17008,-1.89
17020,-3.63
17032,-5.29
17044,-6.92
17056,-8.63
17068,-10.48
17080,-12.5
17092,-14.62
17104,-16.76
17115,-18.86
17126,-20.87
17138,-22.82
17150,-24.75
17162,-26.64
17174,-28.4
17186,-29.82
17198,-30.55
17210,-30.27
17222,-28.71
17234,-25.71
17246,-21.36
17258,-15.87
17270,-9.61
17282,-3.08
17294,3.16
17305,8.62
17316,12.88
17328,15.73
17340,17.22
17352,17.56
17364,17.08
17376,16.13
17388,14.93
17400,13.63
17412,12.33
17424,11.1
17436,10.05
17448,9.31
17460,8.9
17472,8.74
17484,8.66
17495,8.42
17506,7.95
17518,7.28
17530,6.59
17542,6.09
17554,5.89
17566,5.92
17578,5.94
17590,5.69
17602,4.97
17614,3.72
17626,2.04
17638,0.06
17650,-2.07
17662,-4.23
17674,-6.31
17685,-8.27
17696,-10.09
17708,-11.81
17720,-13.57
17732,-15.48
17744,-17.53
17756,-19.57
17768,-21.24
17780,-22.11
17792,-21.74
17804,-19.79
17816,-16.19
17828,-11.09
17840,-4.92
17852,1.73
17864,8.21
17875,13.94
17886,18.51
17898,21.73
17910,23.58
17922,24.16
17934,23.61
17946,22.17
17958,20.12
17970,17.86
17982,15.73
17994,13.99
18006,12.69
18018,11.71
18030,10.92
18042,10.2
18054,9.58
18065,9.12
18076,8.87
18088,8.76
18100,8.66
18112,8.39
18124,7.81
18136,6.9
18148,5.72
18160,4.34
18172,2.82
18184,1.19
18196,-0.58
18208,-2.52
18220,-4.61
18232,-6.83
18244,-9.06
18255,-11.21
18266,-13.19
18278,-14.99
18290,-16.63
18302,-18.25
18314,-19.92
18326,-21.73
18338,-23.6
18350,-25.34
18362,-26.58
18374,-26.86
18386,-25.69
18398,-22.77
18410,-18.08
18422,-11.91
18434,-4.83
18445,2.45
18456,9.25
18468,14.99
18480,19.33
18492,22.17
18504,23.62
18516,23.96
18528,23.56
18540,22.78
18552,21.9
18564,21.03
18576,20.15
18588,19.18
18600,18.09
18612,16.9
18624,15.77
18635,14.86
18646,14.31
18658,14.14
18670,14.28
18682,14.57
18694,14.83
18706,14.92
18718,14.74
18730,14.26
18742,13.46
18754,12.33
18766,10.85
18778,9.05
18790,7.03
18802,4.9
18814,2.8
18825,0.8
18836,-1.11
18848,-2.97
18860,-4.86
18872,-6.83
18884,-8.83
18896,-10.76
18908,-12.54
18920,-14.11
18932,-15.5
18944,-16.73
18956,-17.9
18968,-19.09
18980,-20.39
18992,-21.79
19004,-23.22
19015,-24.5
19026,-25.29
19038,-25.2
19050,-23.81
19062,-20.83
19074,-16.24
19086,-10.34
19098,-3.73
19110,2.79
19122,8.48
19134,12.82
19146,15.67
19158,17.17
19170,17.7
19182,17.65
19194,17.32
19205,16.87
19216,16.34
19228,15.7
19240,14.89
19252,13.91
19264,12.77
19276,11.57
19288,10.47
19300,9.62
19312,9.15
19324,9.1
19336,9.42
19348,9.96
19360,10.54
19372,10.98
19384,11.14
19395,10.9
19406,10.17
19418,8.87
19430,7.01
19442,4.7
19454,2.16
19466,-0.37
19478,-2.67
19490,-4.64
19502,-6.32
19514,-7.79
19526,-9.12
19538,-10.31
19550,-11.3
19562,-12.17
19574,-13.12
19585,-14.44
19596,-16.33
19608,-18.72
19620,-21.2
19632,-23.17
19644,-24.14
19656,-23.93
19668,-22.73
19680,-20.93
19692,-18.79
19704,-16.24
19716,-13.0
19728,-8.83
19740,-3.84
19752,1.47
19764,6.43
19775,10.5
19786,13.47
19798,15.48
19810,16.82
19822,17.62
19834,17.85
19846,17.37
19858,16.19
19870,14.57
19882,12.96
19894,11.76
19906,11.16
19918,11.07
19930,11.23
19942,11.35
19954,11.26
19965,10.89
19976,10.12
19988,8.84
20000,6.9
20012,4.34
20024,1.36
20036,-1.69
20048,-4.51
20060,-6.95
20072,-8.99
20084,-10.64
20096,-11.74
20108,-12.01
20120,-11.3
20132,-9.8
20144,-8.15
20155,-7.26
20166,-7.81
20178,-9.89
20190,-12.89
20202,-15.77
20214,-17.61
20226,-18.03
20238,-17.34
20250,-16.24
20262,-15.5
20274,-15.56
20286,-16.4
20298,-17.67
20310,-18.89
20322,-19.65
20334,-19.7
20345,-18.87
20356,-16.99
20368,-13.95
20380,-9.72
20392,-4.45
20404,1.47
20416,7.53
20428,13.16
20440,17.93
20452,21.54
20464,23.79
20476,24.5
20488,23.54
20500,20.93
20512,16.87
20524,11.87
20535,6.54
20546,1.49
20558,-2.81
20570,-6.07
20582,-8.26
20594,-9.48
20606,-9.94
20618,-9.96
20630,-9.82
20642,-9.66
20654,-9.48
20666,-9.15
20678,-8.52
20690,-7.6
20702,-6.55
20714,-5.65
20725,-5.11
20736,-4.99
20748,-5.21
20760,-5.51
20772,-5.5
20784,-4.72
20796,-2.72
20808,0.79
20820,5.68
20832,11.36
20844,16.79
20856,20.84
20868,22.68
20880,22.05
20892,19.31
20904,15.27
20915,10.96
20926,7.47
20938,5.9
20950,7.15
20962,11.71
20974,19.3
20986,28.68
20998,37.81
