seconds,BVP
10,0.42
22,-0.21
34,-0.74
46,-1.1
58,-1.34
69,-1.66
80,-2.21
92,-3.03
104,-3.98
116,-4.88
128,-5.53
140,-5.88
152,-6.04
164,-6.17
176,-6.42
188,-6.86
200,-7.47
212,-8.17
224,-8.89
236,-9.61
248,-10.25
259,-10.7
270,-10.75
282,-10.17
294,-8.9
306,-7.02
318,-4.84
330,-2.71
342,-0.9
354,0.5
366,1.56
378,2.42
390,3.15
402,3.71
414,4.02
426,4.01
438,3.74
449,3.35
460,3.05
472,2.93
484,2.98
496,3.07
508,3.05
520,2.86
532,2.58
544,2.35
556,2.32
568,2.52
580,2.81
592,2.97
604,2.78
616,2.19
628,1.31
639,0.4
650,-0.34
662,-0.79
674,-1.04
686,-1.26
698,-1.66
710,-2.38
722,-3.43
734,-4.71
746,-6.01
758,-7.13
770,-7.83
782,-7.98
794,-7.53
806,-6.5
818,-5.01
829,-3.22
840,-1.29
852,0.58
864,2.22
876,3.48
888,4.3
900,4.67
912,4.68
924,4.43
936,4.03
948,3.57
960,3.1
972,2.68
984,2.42
996,2.39
1008,2.61
1019,3.02
1030,3.49
1042,3.88
1054,4.12
1066,4.2
1078,4.18
1090,4.05
1102,3.8
1114,3.35
1126,2.63
1138,1.68
1150,0.6
1162,-0.39
1174,-1.14
1186,-1.55
1198,-1.67
1209,-1.65
1220,-1.72
1232,-2.07
1244,-2.83
1256,-3.97
1268,-5.31
1280,-6.56
1292,-7.4
1304,-7.56
1316,-6.91
1328,-5.51
1340,-3.57
1352,-1.39
1364,0.71
1376,2.5
1388,3.87
1399,4.8
1410,5.32
1422,5.48
1434,5.33
1446,4.92
1458,4.33
1470,3.65
1482,2.99
1494,2.45
1506,2.06
1518,1.83
1530,1.74
1542,1.76
1554,1.85
1566,1.99
1578,2.13
1589,2.23
1600,2.26
1612,2.19
1624,2.0
1636,1.66
1648,1.14
1660,0.47
1672,-0.3
1684,-1.07
1696,-1.74
1708,-2.25
1720,-2.62
1732,-2.94
1744,-3.33
1756,-3.89
1768,-4.66
1779,-5.58
1790,-6.56
1802,-7.45
1814,-8.03
1826,-8.09
1838,-7.46
1850,-6.09
1862,-4.13
1874,-1.85
1886,0.36
1898,2.2
1910,3.48
1922,4.19
1934,4.44
1946,4.4
1958,4.23
1969,4.07
1980,3.98
1992,3.98
2004,4.0
2016,3.98
2028,3.89
2040,3.73
2052,3.6
2064,3.56
2076,3.66
2088,3.84
2100,3.99
2112,4.02
2124,3.89
2136,3.66
2148,3.4
2159,3.16
2170,2.89
2182,2.51
2194,1.96
2206,1.26
2218,0.48
2230,-0.25
2242,-0.85
2254,-1.28
2266,-1.59
2278,-1.85
2290,-2.18
2302,-2.68
2314,-3.37
2326,-4.2
2338,-4.97
2349,-5.41
2360,-5.23
2372,-4.28
2384,-2.61
2396,-0.48
2408,1.75
2420,3.74
2432,5.26
2444,6.27
2456,6.79
2468,6.94
2480,6.81
2492,6.51
2504,6.14
2516,5.75
2528,5.38
2539,5.0
2550,4.57
2562,4.05
2574,3.46
2586,2.84
2598,2.25
2610,1.76
2622,1.38
2634,1.11
2646,0.91
2658,0.74
2670,0.56
2682,0.3
2694,-0.13
2706,-0.76
2718,-1.59
2729,-2.56
2740,-3.54
2752,-4.44
2764,-5.21
2776,-5.88
2788,-6.53
2800,-7.25
2812,-8.04
2824,-8.81
2836,-9.32
2848,-9.32
2860,-8.66
2872,-7.32
2884,-5.48
2896,-3.44
2908,-1.48
2919,0.2
2930,1.54
2942,2.56
2954,3.29
2966,3.7
2978,3.71
2990,3.32
3002,2.65
3014,1.93
3026,1.46
3038,1.37
3050,1.64
3062,2.05
3074,2.38
3086,2.46
3098,2.34
3109,2.19
3120,2.19
3132,2.4
3144,2.71
3156,2.87
3168,2.67
3180,2.03
3192,1.08
3204,0.06
3216,-0.78
3228,-1.32
3240,-1.59
3252,-1.73
3264,-1.93
3276,-2.32
3288,-2.92
3299,-3.73
3310,-4.7
3322,-5.76
3334,-6.8
3346,-7.61
3358,-7.91
3370,-7.46
3382,-6.16
3394,-4.18
3406,-1.89
3418,0.28
3430,2.01
3442,3.19
3454,3.88
3466,4.22
3478,4.33
3489,4.19
3500,3.8
3512,3.23
3524,2.64
3536,2.22
3548,2.13
3560,2.34
3572,2.69
3584,3.02
3596,3.17
3608,3.17
3620,3.08
3632,2.99
3644,2.95
3656,2.9
3668,2.77
3679,2.49
3690,2.02
3702,1.38
3714,0.61
3726,-0.18
3738,-0.94
3750,-1.63
3762,-2.27
3774,-2.92
3786,-3.63
3798,-4.41
3810,-5.2
3822,-5.92
3834,-6.57
3846,-7.14
3858,-7.6
3869,-7.89
3880,-7.87
3892,-7.37
3904,-6.36
3916,-4.93
3928,-3.31
3940,-1.73
3952,-0.29
3964,1.07
3976,2.42
3988,3.81
4000,5.1
4012,6.09
4024,6.6
4036,6.62
4048,6.33
4059,5.96
4070,5.75
4082,5.75
4094,5.9
4106,6.04
4118,6.1
4130,6.06
4142,6.03
4154,6.1
4166,6.26
4178,6.41
4190,6.33
4202,5.87
4214,4.97
4226,3.71
4238,2.31
4249,1.0
4260,-0.06
4272,-0.78
4284,-1.19
4296,-1.36
4308,-1.41
4320,-1.45
4332,-1.62
4344,-1.99
4356,-2.56
4368,-3.19
4380,-3.62
4392,-3.56
4404,-2.78
4416,-1.24
4428,0.9
4439,3.37
4450,5.83
4462,8.02
4474,9.78
4486,11.03
4498,11.77
4510,11.98
4522,11.7
4534,11.01
4546,10.08
4558,9.09
4570,8.19
4582,7.48
4594,6.95
4606,6.53
4618,6.18
4629,5.86
4640,5.56
4652,5.26
4664,4.93
4676,4.51
4688,3.95
4700,3.27
4712,2.49
4724,1.68
4736,0.87
4748,0.05
4760,-0.78
4772,-1.64
4784,-2.51
4796,-3.39
4808,-4.3
4819,-5.28
4830,-6.35
4842,-7.46
4854,-8.51
4866,-9.31
4878,-9.68
4890,-9.48
4902,-8.66
4914,-7.29
4926,-5.55
4938,-3.63
4950,-1.72
4962,0.03
4974,1.53
4986,2.7
4998,3.47
5009,3.77
5020,3.56
5032,2.92
5044,2.04
5056,1.19
5068,0.62
5080,0.47
5092,0.67
5104,1.07
5116,1.44
5128,1.62
5140,1.54
5152,1.2
5164,0.65
5176,-0.04
5188,-0.77
5199,-1.45
5210,-2.02
5222,-2.48
5234,-2.91
5246,-3.44
5258,-4.14
5270,-4.98
5282,-5.82
5294,-6.45
5306,-6.78
5318,-6.87
5330,-6.92
5342,-7.16
5354,-7.71
5366,-8.53
5378,-9.4
5389,-10.12
5400,-10.54
5412,-10.63
5424,-10.41
5436,-9.9
5448,-9.08
5460,-7.93
5472,-6.44
5484,-4.7
5496,-2.86
5508,-1.12
5520,0.39
5532,1.6
5544,2.51
5556,3.17
5568,3.63
5579,3.93
5590,4.11
5602,4.19
5614,4.22
5626,4.18
5638,4.11
5650,4.0
5662,3.89
5674,3.82
5686,3.83
5698,3.95
5710,4.14
5722,4.3
5734,4.31
5746,4.04
5758,3.46
5769,2.61
5780,1.64
5792,0.68
5804,-0.12
5816,-0.73
5828,-1.15
5840,-1.42
5852,-1.59
5864,-1.72
5876,-1.9
5888,-2.22
5900,-2.81
5912,-3.72
5924,-4.92
5936,-6.28
5948,-7.53
5959,-8.43
5970,-8.79
5982,-8.54
5994,-7.75
6006,-6.51
6018,-4.96
6030,-3.19
6042,-1.31
6054,0.6
6066,2.34
6078,3.7
6090,4.48
6102,4.65
6114,4.36
6126,3.84
6138,3.36
6149,3.05
6160,2.92
6172,2.89
6184,2.9
6196,2.98
6208,3.19
6220,3.59
6232,4.17
6244,4.81
6256,5.36
6268,5.7
6280,5.76
6292,5.59
6304,5.28
6316,4.93
6328,4.59
6339,4.24
6350,3.84
6362,3.35
6374,2.75
6386,2.11
6398,1.51
6410,1.02
6422,0.6
6434,0.19
6446,-0.33
6458,-1.01
6470,-1.8
6482,-2.63
6494,-3.33
6506,-3.85
6518,-4.13
6529,-4.13
6540,-3.8
6552,-3.06
6564,-1.87
6576,-0.32
6588,1.43
6600,3.13
6612,4.52
6624,5.43
6636,5.82
6648,5.74
6660,5.32
6672,4.73
6684,4.1
6696,3.52
6708,3.04
6719,2.69
6730,2.48
6742,2.39
6754,2.41
6766,2.5
6778,2.62
6790,2.71
6802,2.74
6814,2.66
6826,2.5
6838,2.29
6850,2.06
6862,1.83
6874,1.55
6886,1.15
6898,0.58
6909,-0.15
6920,-0.96
6932,-1.75
6944,-2.41
6956,-2.92
6968,-3.34
6980,-3.82
6992,-4.51
7004,-5.45
7016,-6.54
7028,-7.55
7040,-8.19
7052,-8.2
7064,-7.48
7076,-6.1
7088,-4.29
7099,-2.32
7110,-0.43
7122,1.22
7134,2.57
7146,3.62
7158,4.36
7170,4.77
7182,4.86
7194,4.63
7206,4.2
7218,3.71
7230,3.31
7242,3.11
7254,3.15
7266,3.4
7278,3.73
7289,4.02
7300,4.12
7312,3.96
7324,3.56
7336,3.03
7348,2.51
7360,2.12
7372,1.91
7384,1.84
7396,1.79
7408,1.66
7420,1.38
7432,0.95
7444,0.39
7456,-0.28
7468,-1.03
7479,-1.87
7490,-2.77
7502,-3.65
7514,-4.42
7526,-5.0
7538,-5.37
7550,-5.63
7562,-5.9
7574,-6.25
7586,-6.6
7598,-6.77
7610,-6.53
7622,-5.73
7634,-4.38
7646,-2.66
7658,-0.9
7669,0.63
7680,1.73
7692,2.39
7704,2.7
7716,2.83
7728,2.91
7740,3.0
7752,3.07
7764,3.09
7776,3.01
7788,2.87
7800,2.71
7812,2.6
7824,2.57
7836,2.6
7848,2.62
7859,2.56
7870,2.41
7882,2.2
7894,1.96
7906,1.7
7918,1.4
7930,1.02
7942,0.58
7954,0.11
7966,-0.32
7978,-0.68
7990,-0.98
8002,-1.28
8014,-1.6
8026,-1.99
8038,-2.43
8049,-2.93
8060,-3.5
8072,-4.17
8084,-4.94
8096,-5.74
8108,-6.46
8120,-6.99
8132,-7.22
8144,-7.11
8156,-6.65
8168,-5.88
8180,-4.85
8192,-3.59
8204,-2.21
8216,-0.8
8228,0.51
8239,1.59
8250,2.39
8262,2.88
8274,3.07
8286,2.98
8298,2.62
8310,2.05
8322,1.39
8334,0.79
8346,0.4
8358,0.32
8370,0.54
8382,0.99
8394,1.55
8406,2.08
8418,2.52
8429,2.8
8440,2.89
8452,2.74
8464,2.32
8476,1.68
8488,0.89
8500,0.1
8512,-0.58
8524,-1.07
8536,-1.35
8548,-1.47
8560,-1.49
8572,-1.5
8584,-1.61
8596,-1.95
8608,-2.59
8619,-3.49
8630,-4.5
8642,-5.44
8654,-6.11
8666,-6.41
8678,-6.32
8690,-5.86
8702,-5.05
8714,-3.88
8726,-2.37
8738,-0.64
8750,1.1
8762,2.59
8774,3.63
8786,4.15
8798,4.24
8809,4.05
8820,3.72
8832,3.35
8844,2.96
8856,2.59
8868,2.3
8880,2.16
8892,2.15
8904,2.22
8916,2.29
8928,2.27
8940,2.2
8952,2.16
8964,2.22
8976,2.37
8988,2.48
8999,2.41
9010,2.11
9022,1.62
9034,1.1
9046,0.7
9058,0.44
9070,0.23
9082,-0.08
9094,-0.56
9106,-1.22
9118,-1.97
9130,-2.72
9142,-3.44
9154,-4.14
9166,-4.82
9178,-5.4
9189,-5.74
9200,-5.65
9212,-5.02
9224,-3.87
9236,-2.34
9248,-0.64
9260,0.99
9272,2.39
9284,3.43
9296,4.07
9308,4.31
9320,4.17
9332,3.71
9344,3.01
9356,2.18
9368,1.34
9379,0.61
9390,0.11
9402,-0.09
9414,0.06
9426,0.49
9438,1.09
9450,1.66
9462,2.03
9474,2.13
9486,1.96
9498,1.62
9510,1.17
9522,0.67
9534,0.09
9546,-0.6
9558,-1.35
9569,-2.1
9580,-2.76
9592,-3.33
9604,-3.91
9616,-4.69
9628,-5.79
9640,-7.15
9652,-8.56
9664,-9.67
9676,-10.18
9688,-9.92
9700,-8.95
9712,-7.45
9724,-5.69
9736,-3.88
9748,-2.21
9759,-0.74
9770,0.5
9782,1.51
9794,2.28
9806,2.8
9818,3.05
9830,3.06
9842,2.91
9854,2.68
9866,2.48
9878,2.39
9890,2.4
9902,2.47
9914,2.49
9926,2.37
9938,2.11
9949,1.75
9960,1.41
9972,1.24
9984,1.28
9996,1.49
10008,1.71
10020,1.74
10032,1.41
10044,0.7
10056,-0.28
10068,-1.32
10080,-2.21
10092,-2.89
10104,-3.4
10116,-3.88
10128,-4.46
10139,-5.19
10150,-6.01
10162,-6.8
10174,-7.41
10186,-7.7
10198,-7.59
10210,-7.05
10222,-6.07
10234,-4.68
10246,-2.99
10258,-1.13
10270,0.71
10282,2.33
10294,3.54
10306,4.23
10318,4.4
10329,4.14
10340,3.63
10352,3.07
10364,2.62
10376,2.35
10388,2.26
10400,2.29
10412,2.4
10424,2.55
10436,2.74
10448,2.93
10460,3.07
10472,3.11
10484,3.0
10496,2.76
10508,2.42
10519,2.02
10530,1.56
10542,1.01
10554,0.35
10566,-0.39
10578,-1.15
10590,-1.83
10602,-2.39
10614,-2.87
10626,-3.37
10638,-4.04
10650,-4.95
10662,-6.03
10674,-7.07
10686,-7.74
10698,-7.77
10709,-7.03
10720,-5.61
10732,-3.76
10744,-1.83
10756,-0.1
10768,1.29
10780,2.31
10792,3.02
10804,3.48
10816,3.72
10828,3.73
10840,3.51
10852,3.14
10864,2.73
10876,2.41
10888,2.24
10899,2.21
10910,2.2
10922,2.14
10934,1.96
10946,1.71
10958,1.5
10970,1.44
10982,1.56
10994,1.79
11006,1.96
11018,1.94
11030,1.67
11042,1.22
11054,0.73
11066,0.33
11078,0.1
11089,-0.01
11100,-0.12
11112,-0.38
11124,-0.89
11136,-1.67
11148,-2.7
11160,-3.91
11172,-5.18
11184,-6.34
11196,-7.2
11208,-7.5
11220,-7.06
11232,-5.83
11244,-3.91
11256,-1.54
11268,0.91
11279,3.1
11290,4.78
11302,5.88
11314,6.46
11326,6.68
11338,6.73
11350,6.75
11362,6.82
11374,6.94
11386,7.1
11398,7.3
11410,7.55
11422,7.9
11434,8.4
11446,9.01
11458,9.68
11469,10.28
11480,10.73
11492,10.99
11504,11.05
11516,10.93
11528,10.58
11540,9.97
11552,9.01
11564,7.68
11576,6.03
11588,4.18
11600,2.34
11612,0.7
11624,-0.61
11636,-1.61
11648,-2.38
11659,-3.06
11670,-3.75
11682,-4.47
11694,-5.12
11706,-5.56
11718,-5.71
11730,-5.55
11742,-5.15
11754,-4.6
11766,-3.93
11778,-3.11
11790,-2.08
11802,-0.78
11814,0.7
11826,2.17
11838,3.33
11849,3.92
11860,3.79
11872,3.01
11884,1.82
11896,0.53
11908,-0.55
11920,-1.29
11932,-1.69
11944,-1.88
11956,-2.02
11968,-2.25
11980,-2.63
11992,-3.14
12004,-3.72
12016,-4.32
12028,-4.89
12039,-5.42
12050,-5.95
12062,-6.58
12074,-7.37
12086,-8.33
12098,-9.45
12110,-10.64
12122,-11.89
12134,-13.22
12146,-14.7
12158,-16.34
12170,-18.04
12182,-19.56
12194,-20.63
12206,-21.04
12218,-20.75
12229,-19.84
12240,-18.49
12252,-16.84
12264,-14.89
12276,-12.57
12288,-9.81
12300,-6.64
12312,-3.24
12324,0.09
12336,3.04
12348,5.38
12360,7.07
12372,8.23
12384,9.06
12396,9.79
12408,10.54
12419,11.32
12430,12.08
12442,12.79
12454,13.55
12466,14.48
12478,15.71
12490,17.24
12502,18.87
12514,20.33
12526,21.38
12538,21.96
12550,22.2
12562,22.35
12574,22.65
12586,23.22
12598,24.09
12609,25.29
12620,26.91
12632,29.05
12644,31.72
12656,34.7
12668,37.51
12680,39.53
12692,40.2
12704,39.18
12716,36.4
12728,31.95
12740,26.06
12752,19.02
12764,11.15
12776,2.9
12788,-5.24
12799,-12.82
12810,-19.48
12822,-25.07
12834,-29.54
12846,-32.85
12858,-34.99
12870,-35.91
12882,-35.64
12894,-34.36
12906,-32.35
12918,-29.98
12930,-27.52
12942,-25.11
12954,-22.8
12966,-20.62
12978,-18.67
12989,-17.18
13000,-16.42
13012,-16.49
13024,-17.29
13036,-18.41
13048,-19.29
13060,-19.42
13072,-18.55
13084,-16.79
13096,-14.51
13108,-12.25
13120,-10.42
13132,-9.19
13144,-8.41
13156,-7.71
13168,-6.64
13179,-4.87
13190,-2.31
13202,0.86
13214,4.25
13226,7.46
13238,10.23
13250,12.5
13262,14.39
13274,16.03
13286,17.5
13298,18.73
13310,19.63
13322,20.16
13334,20.42
13346,20.63
13358,20.98
13369,21.54
13380,22.18
13392,22.7
13404,22.96
13416,22.96
13428,22.88
13440,22.95
13452,23.29
13464,23.87
13476,24.47
13488,24.85
13500,24.83
13512,24.39
13524,23.67
13536,22.94
13548,22.5
13559,22.55
13570,23.16
13582,24.16
13594,25.27
13606,26.08
13618,26.19
13630,25.28
13642,23.26
13654,20.22
13666,16.43
13678,12.3
13690,8.22
13702,4.54
13714,1.49
13726,-0.8
13738,-2.37
13749,-3.35
13760,-3.99
13772,-4.64
13784,-5.72
13796,-7.56
13808,-10.36
13820,-14.06
13832,-18.38
13844,-22.87
13856,-27.07
13868,-30.61
13880,-33.26
13892,-34.94
13904,-35.64
13916,-35.48
13928,-34.6
13939,-33.21
13950,-31.53
13962,-29.78
13974,-28.11
13986,-26.58
13998,-25.23
14010,-24.06
14022,-23.14
14034,-22.55
14046,-22.41
14058,-22.71
14070,-23.32
14082,-23.93
14094,-24.18
14106,-23.75
14118,-22.46
14129,-20.39
14140,-17.8
14152,-15.03
14164,-12.33
14176,-9.77
14188,-7.24
14200,-4.46
14212,-1.18
14224,2.72
14236,7.14
14248,11.79
14260,16.24
14272,20.07
14284,22.98
14296,24.84
14308,25.66
14319,25.56
14330,24.68
14342,23.2
14354,21.33
14366,19.35
14378,17.54
14390,16.07
14402,14.93
14414,13.95
14426,12.85
14438,11.44
14450,9.7
14462,7.76
14474,5.85
14486,4.13
14498,2.62
14509,1.19
14520,-0.34
14532,-2.1
14544,-4.09
14556,-6.13
14568,-8.02
14580,-9.52
14592,-10.54
14604,-11.11
14616,-11.4
14628,-11.62
14640,-12.0
14652,-12.61
14664,-13.35
14676,-14.05
14688,-14.48
14699,-14.46
14710,-13.95
14722,-13.01
14734,-11.73
14746,-10.26
14758,-8.71
14770,-7.23
14782,-5.94
14794,-4.91
14806,-4.21
14818,-3.8
14830,-3.6
14842,-3.52
14854,-3.5
14866,-3.52
14878,-3.62
14889,-3.86
14900,-4.3
14912,-4.99
14924,-5.93
14936,-7.02
14948,-8.11
14960,-9.02
14972,-9.59
14984,-9.79
14996,-9.69
15008,-9.42
15020,-9.14
15032,-8.92
15044,-8.76
15056,-8.62
15068,-8.5
15079,-8.44
15090,-8.53
15102,-8.84
15114,-9.36
15126,-10.0
15138,-10.54
15150,-10.75
15162,-10.41
15174,-9.41
15186,-7.76
15198,-5.55
15210,-2.94
15222,-0.06
15234,2.9
15246,5.76
15258,8.28
15269,10.25
15280,11.52
15292,12.07
15304,12.01
15316,11.54
15328,10.83
15340,10.04
15352,9.27
15364,8.59
15376,8.06
15388,7.78
15400,7.75
15412,7.96
15424,8.29
15436,8.62
15448,8.81
15459,8.79
15470,8.53
15482,7.99
15494,7.19
15506,6.12
15518,4.83
15530,3.4
15542,1.96
15554,0.64
15566,-0.48
15578,-1.4
15590,-2.2
15602,-2.98
15614,-3.84
15626,-4.78
15638,-5.75
15649,-6.65
15660,-7.37
15672,-7.84
15684,-8.0
15696,-7.76
15708,-7.03
15720,-5.74
15732,-3.91
15744,-1.69
15756,0.63
15768,2.8
15780,4.65
15792,6.13
15804,7.33
15816,8.31
15828,9.05
15839,9.51
15850,9.65
15862,9.53
15874,9.35
15886,9.29
15898,9.44
15910,9.75
15922,10.06
15934,10.23
15946,10.22
15958,10.15
15970,10.15
15982,10.33
15994,10.71
16006,11.21
16018,11.72
16029,12.16
16040,12.48
16052,12.69
16064,12.75
16076,12.64
16088,12.33
16100,11.81
16112,11.11
16124,10.21
16136,9.08
16148,7.64
16160,5.84
16172,3.69
16184,1.31
16196,-1.03
16208,-3.05
16219,-4.48
16230,-5.26
16242,-5.48
16254,-5.37
16266,-5.21
16278,-5.23
16290,-5.5
16302,-5.97
16314,-6.52
16326,-7.05
16338,-7.53
16350,-7.99
16362,-8.49
16374,-9.07
16386,-9.7
16398,-10.28
16409,-10.71
16420,-10.91
16432,-10.82
16444,-10.46
16456,-9.85
16468,-9.04
16480,-8.08
16492,-7.05
16504,-6.06
16516,-5.24
16528,-4.69
16540,-4.49
16552,-4.63
16564,-5.0
16576,-5.46
16588,-5.84
16599,-6.01
16610,-5.96
16622,-5.81
16634,-5.72
16646,-5.85
16658,-6.28
16670,-7.0
16682,-7.88
16694,-8.77
16706,-9.48
16718,-9.83
16730,-9.67
16742,-8.9
16754,-7.48
16766,-5.53
16778,-3.3
16789,-1.13
16800,0.63
16812,1.77
16824,2.28
16836,2.3
16848,2.07
16860,1.75
16872,1.39
16884,0.97
16896,0.5
16908,0.07
16920,-0.18
16932,-0.12
16944,0.23
16956,0.72
16968,1.14
16979,1.31
16990,1.2
17002,0.92
17014,0.67
17026,0.61
17038,0.73
17050,0.92
17062,0.99
17074,0.78
17086,0.27
17098,-0.44
17110,-1.16
17122,-1.73
17134,-2.04
17146,-2.15
17158,-2.24
17169,-2.49
17180,-3.02
17192,-3.81
17204,-4.72
17216,-5.53
17228,-6.02
17240,-6.05
17252,-5.6
17264,-4.7
17276,-3.45
17288,-1.97
17300,-0.43
17312,1.05
17324,2.34
17336,3.37
17348,4.12
17359,4.61
17370,4.9
17382,4.98
17394,4.84
17406,4.5
17418,4.05
17430,3.67
17442,3.58
17454,3.92
17466,4.67
17478,5.65
17490,6.57
17502,7.22
17514,7.51
17526,7.56
17538,7.6
17549,7.84
17560,8.44
17572,9.39
17584,10.57
17596,11.79
17608,12.85
17620,13.6
17632,13.99
17644,14.14
17656,14.26
17668,14.65
17680,15.6
17692,17.29
17704,19.75
17716,22.95
17728,26.8
17739,31.28
17750,36.38
17762,42.12
17774,48.51
17786,55.52
17798,62.99
17810,70.53
17822,77.39
17834,82.45
17846,84.4
17858,82.14
17870,75.26
17882,64.32
17894,50.77
17906,36.54
17918,23.46
17929,12.74
17940,4.87
17952,-0.28
17964,-3.09
17976,-4.0
17988,-3.31
18000,-1.3
18012,1.73
18024,5.44
18036,9.42
18048,13.21
18060,16.22
18072,17.77
18084,17.11
18096,13.52
18108,6.55
18119,-3.87
18130,-17.35
18142,-33.1
18154,-49.99
18166,-66.74
18178,-81.98
18190,-94.53
18202,-103.49
18214,-108.44
18226,-109.53
18238,-107.41
18250,-103.02
18262,-97.3
18274,-90.99
18286,-84.52
18298,-77.99
18309,-71.39
18320,-64.7
18332,-58.01
18344,-51.49
18356,-45.36
18368,-39.77
18380,-34.78
18392,-30.38
18404,-26.5
18416,-23.06
18428,-19.95
18440,-17.08
18452,-14.33
18464,-11.62
18476,-8.88
18488,-6.15
18499,-3.52
18510,-1.14
18522,0.83
18534,2.3
18546,3.24
18558,3.7
18570,3.71
18582,3.3
18594,2.5
18606,1.41
18618,0.2
18630,-0.96
18642,-1.9
18654,-2.59
18666,-3.15
18678,-3.74
18689,-4.47
18700,-5.29
18712,-6.07
18724,-6.69
18736,-7.14
18748,-7.56
18760,-8.17
18772,-9.08
18784,-10.15
18796,-11.07
18808,-11.41
18820,-10.89
18832,-9.49
18844,-7.49
18856,-5.33
18868,-3.43
18879,-1.98
18890,-0.94
18902,-0.15
18914,0.61
18926,1.38
18938,2.08
18950,2.57
18962,2.81
18974,2.87
18986,2.96
18998,3.26
19010,3.78
19022,4.42
19034,4.97
19046,5.34
19058,5.56
19069,5.81
19080,6.23
19092,6.81
19104,7.35
19116,7.53
19128,7.16
19140,6.23
19152,4.97
19164,3.7
19176,2.73
19188,2.17
19200,1.94
19212,1.81
19224,1.52
19236,0.91
19248,-0.09
19259,-1.37
19270,-2.74
19282,-3.94
19294,-4.73
19306,-4.91
19318,-4.42
19330,-3.38
19342,-2.0
19354,-0.54
19366,0.77
19378,1.84
19390,2.67
19402,3.33
19414,3.83
19426,4.14
19438,4.17
19449,3.89
19460,3.31
19472,2.58
19484,1.9
19496,1.42
19508,1.2
19520,1.19
19532,1.3
19544,1.46
19556,1.68
19568,1.96
19580,2.33
19592,2.72
19604,3.01
19616,3.08
19628,2.88
19639,2.44
19650,1.92
19662,1.47
19674,1.17
19686,1.02
19698,0.92
19710,0.73
19722,0.31
19734,-0.39
19746,-1.36
19758,-2.49
19770,-3.57
19782,-4.33
19794,-4.55
19806,-4.03
19818,-2.81
19829,-1.05
19840,0.99
19852,3.0
19864,4.8
19876,6.3
19888,7.48
19900,8.36
19912,8.97
19924,9.28
19936,9.31
19948,9.1
19960,8.7
19972,8.19
19984,7.65
19996,7.11
20008,6.61
20019,6.19
20030,5.88
20042,5.73
20054,5.76
20066,5.92
20078,6.12
20090,6.2
20102,6.08
20114,5.68
20126,5.06
20138,4.28
20150,3.42
20162,2.58
20174,1.8
20186,1.16
20198,0.66
20209,0.29
20220,-0.09
20232,-0.64
20244,-1.49
20256,-2.65
20268,-3.95
20280,-5.1
20292,-5.77
20304,-5.76
20316,-5.04
20328,-3.71
20340,-1.98
20352,-0.07
20364,1.85
20376,3.63
20388,5.17
20399,6.4
20410,7.28
20422,7.8
20434,7.97
20446,7.82
20458,7.38
20470,6.7
20482,5.85
20494,4.92
20506,4.06
20518,3.41
20530,3.07
20542,3.14
20554,3.58
20566,4.28
20578,5.01
20589,5.51
20600,5.57
20612,5.07
20624,4.09
20636,2.82
20648,1.56
20660,0.55
20672,-0.07
20684,-0.37
20696,-0.54
20708,-0.84
20720,-1.44
20732,-2.36
20744,-3.49
20756,-4.63
20768,-5.61
20779,-6.33
20790,-6.72
20802,-6.76
20814,-6.38
20826,-5.49
20838,-4.08
20850,-2.23
20862,-0.2
20874,1.72
20886,3.24
20898,4.25
20910,4.79
20922,5.02
20934,5.08
20946,5.04
20958,4.89
20969,4.58
20980,4.09
20992,3.52
