seconds,BVP
5,-40.3
17,-44.92
29,-49.99
41,-54.57
53,-57.47
65,-57.61
77,-54.35
89,-47.72
101,-38.32
113,-27.13
125,-15.21
137,-3.43
148,7.59
159,17.45
171,25.86
183,32.58
195,37.49
207,40.6
219,42.08
231,42.28
243,41.57
255,40.32
267,38.81
279,37.25
291,35.79
303,34.56
315,33.7
327,33.26
338,33.22
349,33.46
361,33.77
373,33.97
385,33.84
397,33.23
409,32.05
421,30.29
433,28.09
445,25.67
457,23.32
469,21.22
481,19.39
493,17.69
505,15.83
517,13.55
528,10.73
539,7.42
551,3.85
563,0.26
575,-3.12
587,-6.19
599,-8.93
611,-11.44
623,-13.83
635,-16.28
647,-19.0
659,-22.17
671,-25.84
683,-29.92
695,-34.14
707,-38.14
718,-41.64
729,-44.54
741,-47.0
753,-49.4
765,-52.18
777,-55.71
789,-60.05
801,-64.93
813,-69.68
825,-73.32
837,-74.8
849,-73.17
861,-67.94
873,-59.21
885,-47.7
897,-34.62
908,-21.31
919,-8.89
931,1.97
943,11.08
955,18.65
967,24.97
979,30.28
991,34.63
1003,37.94
1015,40.13
1027,41.24
1039,41.48
1051,41.15
1063,40.59
1075,40.02
1087,39.54
1098,39.13
1109,38.74
1121,38.37
1133,38.05
1145,37.81
1157,37.6
1169,37.32
1181,36.73
1193,35.64
1205,33.85
1217,31.35
1229,28.28
1241,25.0
1253,21.89
1265,19.25
1277,17.21
1288,15.63
1299,14.15
1311,12.42
1323,10.14
1335,7.34
1347,4.24
1359,1.2
1371,-1.46
1383,-3.64
1395,-5.41
1407,-7.05
1419,-8.84
1431,-10.99
1443,-13.58
1455,-16.48
1467,-19.46
1478,-22.28
1489,-24.85
1501,-27.18
1513,-29.52
1525,-32.15
1537,-35.4
1549,-39.49
1561,-44.48
1573,-50.15
1585,-55.95
1597,-61.03
1609,-64.35
1621,-64.9
1633,-62.05
1645,-55.74
1657,-46.6
1668,-35.71
1679,-24.28
1691,-13.26
1703,-3.23
1715,5.65
1727,13.4
1739,20.06
1751,25.59
1763,29.86
1775,32.83
1787,34.6
1799,35.41
1811,35.57
1823,35.35
1835,34.92
1847,34.3
1858,33.55
1869,32.67
1881,31.79
1893,31.01
1905,30.41
1917,30.06
1929,29.9
1941,29.8
1953,29.63
1965,29.25
1977,28.53
1989,27.44
2001,25.97
2013,24.13
2025,22.01
2037,19.65
2048,17.11
2059,14.47
2071,11.81
2083,9.15
2095,6.48
2107,3.73
2119,0.86
2131,-2.11
2143,-5.0
2155,-7.57
2167,-9.65
2179,-11.23
2191,-12.57
2203,-14.06
2215,-16.02
2227,-18.63
2238,-21.71
2249,-24.95
2261,-27.98
2273,-30.61
2285,-32.9
2297,-35.16
2309,-37.82
2321,-41.31
2333,-45.87
2345,-51.34
2357,-57.16
2369,-62.39
2381,-65.87
2393,-66.55
2405,-63.77
2417,-57.48
2428,-48.21
2439,-36.97
2451,-24.91
2463,-13.08
2475,-2.28
2487,7.08
2499,14.88
2511,21.21
2523,26.18
2535,29.93
2547,32.53
2559,34.11
2571,34.83
2583,34.92
2595,34.61
2607,34.06
2618,33.37
2629,32.58
2641,31.8
2653,31.18
2665,30.94
2677,31.2
2689,31.88
2701,32.7
2713,33.28
2725,33.3
2737,32.65
2749,31.44
2761,29.88
2773,28.16
2785,26.35
2797,24.43
2808,22.32
2819,19.94
2831,17.19
2843,14.07
2855,10.61
2867,6.94
2879,3.24
2891,-0.26
2903,-3.41
2915,-6.19
2927,-8.7
2939,-11.09
2951,-13.56
2963,-16.21
2975,-19.07
2987,-22.13
2998,-25.32
3009,-28.62
3021,-32.05
3033,-35.63
3045,-39.43
3057,-43.55
3069,-48.02
3081,-52.78
3093,-57.49
3105,-61.42
3117,-63.69
3129,-63.32
3141,-59.68
3153,-52.71
3165,-42.95
3177,-31.4
3188,-19.24
3199,-7.46
3211,3.25
3223,12.5
3235,20.2
3247,26.35
3259,31.05
3271,34.39
3283,36.53
3295,37.64
3307,37.91
3319,37.61
3331,36.97
3343,36.26
3355,35.67
3367,35.29
3378,35.08
3389,34.92
3401,34.71
3413,34.43
3425,34.14
3437,33.84
3449,33.44
3461,32.68
3473,31.3
3485,29.16
3497,26.4
3509,23.4
3521,20.65
3533,18.51
3545,17.01
3557,15.89
3568,14.67
3579,12.98
3591,10.74
3603,8.14
3615,5.54
3627,3.2
3639,1.2
3651,-0.66
3663,-2.68
3675,-5.14
3687,-8.16
3699,-11.66
3711,-15.46
3723,-19.29
3735,-22.95
3747,-26.23
3758,-29.06
3769,-31.5
3781,-33.81
3793,-36.47
3805,-39.92
3817,-44.41
3829,-49.62
3841,-54.68
3853,-58.29
3865,-59.12
3877,-56.27
3889,-49.64
3901,-39.94
3913,-28.37
3925,-16.28
3937,-4.66
3948,5.88
3959,15.19
3971,23.31
3983,30.29
3995,36.09
4007,40.56
4019,43.55
4031,44.92
4043,44.7
4055,43.05
4067,40.32
4079,37.0
4091,33.54
4103,30.37
4115,27.72
4127,25.69
4138,24.22
4149,23.15
4161,22.24
4173,21.26
4185,19.97
4197,18.2
4209,15.93
4221,13.3
4233,10.56
4245,7.98
4257,5.76
4269,3.99
4281,2.58
4293,1.29
4305,-0.19
4317,-2.24
4328,-5.12
4339,-8.94
4351,-13.55
4363,-18.59
4375,-23.61
4387,-28.26
4399,-32.29
4411,-35.62
4423,-38.21
4435,-39.98
4447,-40.83
4459,-40.61
4471,-39.23
4483,-36.73
4495,-33.16
4507,-28.55
4518,-22.82
4529,-15.87
4541,-7.78
4553,1.11
4565,10.11
4577,18.48
4589,25.82
4601,32.52
4613,39.83
4625,49.65
4637,63.7
4649,82.82
4661,106.37
4673,132.36
4685,158.17
4697,181.36
4708,200.29
4719,214.18
4731,222.82
4743,226.28
4755,225.26
4767,221.69
4779,219.02
4791,221.45
4803,232.16
4815,251.11
4827,273.99
4839,293.24
4851,300.78
4863,291.48
4875,265.24
4887,226.83
4898,183.6
4909,142.37
4921,106.91
4933,77.5
4945,51.84
4957,27.02
4969,0.95
4981,-27.17
4993,-57.41
5005,-89.85
5017,-124.87
5029,-162.51
5041,-201.2
5053,-237.16
5065,-265.13
5077,-280.78
5088,-283.31
5099,-276.56
5111,-267.39
5123,-262.06
5135,-262.78
5147,-266.37
5159,-266.56
5171,-257.96
5183,-239.28
5195,-213.66
5207,-186.17
5219,-160.68
5231,-138.39
5243,-119.06
5255,-103.31
5267,-93.85
5278,-94.36
5289,-107.4
5301,-132.69
5313,-167.61
5325,-208.85
5337,-253.5
5349,-298.51
5361,-339.51
5373,-370.65
5385,-386.43
5397,-384.5
5409,-367.43
5421,-341.5
5433,-312.93
5445,-284.13
5457,-252.51
5468,-212.94
5479,-162.0
5491,-101.19
5503,-36.87
5515,22.76
5527,71.6
5539,108.04
5551,134.55
5563,155.53
5575,174.67
5587,193.58
5599,211.69
5611,227.36
5623,239.07
5635,246.13
5647,248.82
5658,247.96
5669,243.98
5681,236.84
5693,226.35
5705,212.9
5717,197.98
5729,184.0
5741,173.51
5753,168.0
5765,167.06
5777,168.17
5789,167.52
5801,161.37
5813,147.49
5825,126.19
5837,100.39
5848,74.56
5859,52.99
5871,38.03
5883,29.11
5895,23.32
5907,17.07
5919,7.89
5931,-4.46
5943,-18.42
5955,-31.91
5967,-43.4
5979,-51.95
5991,-56.56
6003,-55.27
6015,-45.34
6027,-24.29
6038,8.44
6049,50.58
6061,97.39
6073,143.18
6085,183.4
6097,215.96
6109,241.51
6121,262.56
6133,281.98
6145,301.84
6157,322.53
6169,342.81
6181,360.59
6193,374.05
6205,382.73
6217,387.69
6228,390.74
6239,392.9
6251,393.22
6263,388.63
6275,375.3
6287,350.66
6299,314.9
6311,271.24
6323,224.59
6335,179.51
6347,138.66
6359,102.6
6371,70.63
6383,42.13
6395,17.32
6407,-3.1
6418,-18.78
6429,-30.62
6441,-40.81
6453,-52.15
6465,-66.9
6477,-85.88
6489,-108.19
6501,-131.85
6513,-154.88
6525,-176.3
6537,-196.58
6549,-217.33
6561,-240.33
6573,-266.55
6585,-295.54
6597,-325.68
6608,-354.87
6619,-381.59
6631,-405.7
6643,-428.47
6655,-452.26
6667,-480.02
6679,-514.82
6691,-559.06
6703,-613.37
6715,-675.33
6727,-738.87
6739,-794.99
6751,-834.21
6763,-849.75
6775,-839.98
6787,-808.98
6798,-764.5
6809,-714.81
6821,-665.75
6833,-619.68
6845,-576.29
6857,-534.47
6869,-493.93
6881,-455.35
6893,-419.68
6905,-387.08
6917,-356.46
6929,-326.06
6941,-294.39
6953,-261.08
6965,-226.97
6977,-193.84
6988,-163.42
6999,-136.71
7011,-113.57
7023,-92.88
7035,-73.03
7047,-52.67
7059,-31.15
7071,-8.74
7083,13.55
7095,34.52
7107,53.25
7119,69.48
7131,83.74
7143,97.12
7155,110.9
7167,126.12
7178,143.21
7189,161.93
7201,181.55
7213,201.24
7225,220.42
7237,239.03
7249,257.52
7261,276.69
7273,297.34
7285,320.16
7297,345.71
7309,374.37
7321,405.96
7333,439.16
7345,471.16
7357,497.77
7368,514.56
7379,518.27
7391,508.18
7403,486.41
7415,457.08
7427,424.74
7439,392.85
7451,363.01
7463,335.28
7475,309.09
7487,284.07
7499,260.34
7511,238.28
7523,218.07
7535,199.4
7547,181.6
7558,164.02
7569,146.43
7581,129.12
7593,112.9
7605,98.63
7617,86.86
7629,77.56
7641,70.07
7653,63.46
7665,56.96
7677,50.32
7689,43.87
7701,38.31
7713,34.14
7725,31.36
7737,29.39
7748,27.27
7759,24.17
7771,19.78
7783,14.35
7795,8.59
7807,3.24
7819,-1.19
7831,-4.68
7843,-7.5
7855,-10.12
7867,-12.93
7879,-16.1
7891,-19.56
7903,-22.95
7915,-25.77
7927,-27.56
7938,-28.0
7949,-27.06
7961,-24.98
7973,-22.15
7985,-18.9
7997,-15.51
8009,-12.07
8021,-8.63
8033,-5.31
8045,-2.25
8057,0.43
8069,2.73
8081,4.91
8093,7.33
8105,10.21
8117,13.61
8128,17.24
8139,20.75
8151,23.86
8163,26.54
8175,28.96
8187,31.33
8199,33.7
8211,35.9
8223,37.62
8235,38.57
8247,38.62
8259,37.92
8271,36.77
8283,35.48
8295,34.31
8307,33.37
8318,32.64
8329,32.0
8341,31.28
8353,30.26
8365,28.74
8377,26.55
8389,23.6
8401,19.87
8413,15.42
8425,10.37
8437,4.9
8449,-0.74
8461,-6.27
8473,-11.43
8485,-16.02
8497,-19.94
8508,-23.23
8519,-26.01
8531,-28.51
8543,-30.91
8555,-33.43
8567,-36.21
8579,-39.31
8591,-42.67
8603,-46.07
8615,-49.07
8627,-51.1
8639,-51.55
8651,-49.95
8663,-46.13
8675,-40.26
8687,-32.86
8698,-24.71
8709,-16.55
8721,-9.04
8733,-2.58
8745,2.69
8757,6.85
8769,10.02
8781,12.33
8793,13.91
8805,14.82
8817,15.16
8829,15.07
8841,14.79
8853,14.49
8865,14.32
8877,14.26
8888,14.24
8899,14.13
8911,13.86
8923,13.46
8935,13.03
8947,12.71
8959,12.53
8971,12.45
8983,12.28
8995,11.74
9007,10.49
9019,8.25
9031,4.84
9043,0.28
9055,-5.14
9067,-10.95
9078,-16.62
9089,-21.69
9101,-26.01
9113,-29.63
9125,-32.79
9137,-35.69
9149,-38.39
9161,-40.77
9173,-42.63
9185,-43.81
9197,-44.26
9209,-44.1
9221,-43.53
9233,-42.73
9245,-41.83
9257,-40.86
9268,-39.8
9279,-38.54
9291,-36.9
9303,-34.56
9315,-31.19
9327,-26.47
9339,-20.3
9351,-12.8
9363,-4.43
9375,4.21
9387,12.48
9399,19.85
9411,26.02
9423,30.87
9435,34.42
9447,36.74
9458,37.95
9469,38.18
9481,37.53
9493,36.16
9505,34.3
9517,32.2
9529,30.15
9541,28.39
9553,27.04
9565,26.08
9577,25.36
9589,24.68
9601,23.91
9613,23.0
9625,22.01
9637,20.99
9648,19.93
9659,18.77
9671,17.45
9683,15.98
9695,14.43
9707,12.91
9719,11.5
9731,10.16
9743,8.79
9755,7.27
9767,5.49
9779,3.46
9791,1.2
9803,-1.2
9815,-3.71
9827,-6.27
9838,-8.84
9849,-11.36
9861,-13.83
9873,-16.25
9885,-18.72
9897,-21.37
9909,-24.3
9921,-27.54
9933,-31.0
9945,-34.41
9957,-37.37
9969,-39.42
9981,-40.11
9993,-39.15
10005,-36.47
10017,-32.24
10028,-26.79
10039,-20.56
10051,-13.95
10063,-7.29
10075,-0.84
10087,5.21
10099,10.65
10111,15.34
10123,19.17
10135,22.12
10147,24.23
10159,25.59
10171,26.31
10183,26.46
10195,26.11
10207,25.34
10218,24.26
10229,23.03
10241,21.83
10253,20.78
10265,19.95
10277,19.33
10289,18.93
10301,18.75
10313,18.83
10325,19.18
10337,19.84
10349,20.67
10361,21.49
10373,22.05
10385,22.13
10397,21.63
10408,20.57
10419,19.06
10431,17.22
10443,15.18
10455,13.02
10467,10.76
10479,8.42
10491,5.97
10503,3.4
10515,0.7
10527,-2.13
10539,-5.05
10551,-7.97
10563,-10.75
10575,-13.24
10587,-15.36
10598,-17.11
10609,-18.59
10621,-19.98
10633,-21.47
10645,-23.19
10657,-25.23
10669,-27.55
10681,-30.0
10693,-32.26
10705,-33.92
10717,-34.43
10729,-33.37
10741,-30.48
10753,-25.84
10765,-19.84
10777,-13.11
10788,-6.32
10799,-0.04
10811,5.33
10823,9.63
10835,12.87
10847,15.18
10859,16.74
10871,17.69
10883,18.15
10895,18.19
10907,17.88
10919,17.31
10931,16.59
10943,15.83
10955,15.14
10967,14.55
10978,14.03
10989,13.57
11001,13.17
11013,12.91
11025,12.84
11037,12.94
11049,13.04
11061,12.94
11073,12.43
11085,11.47
11097,10.22
11109,8.95
11121,7.92
11133,7.25
11145,6.86
11157,6.54
11168,6.02
11179,5.15
11191,3.91
11203,2.45
11215,0.95
11227,-0.41
11239,-1.56
11251,-2.55
11263,-3.54
11275,-4.66
11287,-5.97
11299,-7.44
11311,-8.93
11323,-10.34
11335,-11.63
11347,-12.91
11358,-14.34
11369,-16.1
11381,-18.29
11393,-20.87
11405,-23.68
11417,-26.4
11429,-28.68
11441,-30.14
11453,-30.39
11465,-29.23
11477,-26.57
11489,-22.58
11501,-17.62
11513,-12.2
11525,-6.83
11537,-1.9
11548,2.3
11559,5.69
11571,8.29
11583,10.2
11595,11.58
11607,12.54
11619,13.2
11631,13.58
11643,13.68
11655,13.44
11667,12.85
11679,11.96
11691,10.93
11703,10.0
11715,9.35
11727,9.06
11738,9.08
11749,9.23
11761,9.35
11773,9.37
11785,9.36
11797,9.44
11809,9.69
11821,10.04
11833,10.3
11845,10.22
11857,9.63
11869,8.5
11881,6.98
11893,5.32
11905,3.76
11917,2.44
11928,1.37
11939,0.5
11951,-0.29
11963,-1.11
11975,-2.05
11987,-3.2
11999,-4.62
12011,-6.31
12023,-8.15
12035,-9.89
12047,-11.23
12059,-11.89
12071,-11.82
12083,-11.22
12095,-10.48
12107,-10.01
12118,-10.01
12129,-10.38
12141,-10.73
12153,-10.47
12165,-9.17
12177,-6.63
12189,-3.04
12201,1.15
12213,5.43
12225,9.32
12237,12.48
12249,14.68
12261,15.78
12273,15.71
12285,14.5
12297,12.32
12308,9.54
12319,6.59
12331,3.85
12343,1.6
12355,-0.1
12367,-1.38
12379,-2.4
12391,-3.32
12403,-4.16
12415,-4.84
12427,-5.24
12439,-5.23
12451,-4.77
12463,-3.95
12475,-2.94
12487,-1.94
12498,-1.13
12509,-0.63
12521,-0.45
12533,-0.53
12545,-0.76
12557,-1.0
12569,-1.14
12581,-1.19
12593,-1.25
12605,-1.51
12617,-2.18
12629,-3.37
12641,-5.04
12653,-7.06
12665,-9.23
12677,-11.42
12688,-13.59
12699,-15.74
12711,-17.79
12723,-19.64
12735,-21.15
12747,-22.26
12759,-23.09
12771,-23.91
12783,-25.0
12795,-26.52
12807,-28.43
12819,-30.44
12831,-32.18
12843,-33.26
12855,-33.36
12867,-32.3
12878,-30.02
12889,-26.55
12901,-22.05
12913,-16.78
12925,-11.07
12937,-5.29
12949,0.19
12961,5.07
12973,9.17
12985,12.41
12997,14.82
13009,16.51
13021,17.6
13033,18.28
13045,18.67
13057,18.86
13068,18.86
13079,18.63
13091,18.11
13103,17.3
13115,16.32
13127,15.37
13139,14.65
13151,14.33
13163,14.41
13175,14.76
13187,15.19
13199,15.54
13211,15.77
13223,15.88
13235,15.86
13247,15.65
13258,15.06
13269,13.93
13281,12.18
13293,9.9
13305,7.32
13317,4.76
13329,2.45
13341,0.47
13353,-1.26
13365,-2.87
13377,-4.49
13389,-6.17
13401,-7.88
13413,-9.58
13425,-11.22
13437,-12.81
13448,-14.37
13459,-15.97
13471,-17.64
13483,-19.42
13495,-21.34
13507,-23.41
13519,-25.66
13531,-28.03
13543,-30.38
13555,-32.38
13567,-33.62
13579,-33.66
13591,-32.2
13603,-29.18
13615,-24.84
13627,-19.65
13638,-14.17
13649,-8.84
13661,-3.96
13673,0.4
13685,4.25
13697,7.57
13709,10.34
13721,12.56
13733,14.28
13745,15.69
13757,17.03
13769,18.47
13781,20.03
13793,21.53
13805,22.75
13817,23.49
13828,23.73
13839,23.6
13851,23.3
13863,22.98
13875,22.64
13887,22.21
13899,21.58
13911,20.7
13923,19.64
13935,18.49
13947,17.32
13959,16.14
13971,14.9
13983,13.53
13995,12.03
14007,10.43
14018,8.8
14029,7.18
14041,5.57
14053,3.96
14065,2.34
14077,0.69
14089,-0.98
14101,-2.68
14113,-4.47
14125,-6.4
14137,-8.47
14149,-10.59
14161,-12.65
14173,-14.53
14185,-16.22
14197,-17.83
14208,-19.54
14219,-21.51
14231,-23.85
14243,-26.53
14255,-29.36
14267,-32.0
14279,-34.0
14291,-34.86
14303,-34.15
14315,-31.62
14327,-27.34
14339,-21.72
14351,-15.38
14363,-8.99
14375,-3.09
14387,2.0
14398,6.21
14409,9.56
14421,12.16
14433,14.07
14445,15.36
14457,16.09
14469,16.36
14481,16.31
14493,16.1
14505,15.86
14517,15.66
14529,15.53
14541,15.46
14553,15.42
14565,15.41
14577,15.52
14588,15.81
14599,16.38
14611,17.22
14623,18.25
14635,19.26
14647,20.07
14659,20.51
14671,20.5
14683,20.02
14695,19.12
14707,17.9
14719,16.52
14731,15.21
14743,14.14
14755,13.42
14767,12.99
14778,12.65
14789,12.19
14801,11.44
14813,10.44
14825,9.38
14837,8.57
14849,8.26
14861,8.64
14873,9.72
14885,11.33
14897,13.23
14909,15.16
14921,16.93
14933,18.53
14945,20.23
14957,22.32
14968,25.5
14979,30.21
14991,36.62
15003,44.59
15015,53.79
15027,63.83
15039,74.57
15051,86.08
15063,98.49
15075,112.15
15087,126.92
15099,142.2
15111,157.04
15123,170.65
15135,182.7
15147,193.59
15158,204.47
15169,216.53
15181,231.43
15193,249.6
15205,270.25
15217,291.48
15229,310.95
15241,326.26
15253,335.57
15265,337.74
15277,331.14
15289,316.4
15301,293.06
15313,260.7
15325,219.1
15337,169.3
15348,113.48
15359,55.24
15371,-1.01
15383,-53.32
15395,-97.19
15407,-132.68
15419,-162.01
15431,-189.03
15443,-216.3
15455,-245.7
15467,-277.7
15479,-311.53
15491,-348.31
15503,-380.88
15515,-403.57
15527,-410.07
15538,-397.09
15549,-364.17
15561,-318.17
15573,-270.61
15585,-233.4
15597,-218.57
15609,-223.25
15621,-243.33
15633,-272.67
15645,-308.45
15657,-348.07
15669,-393.27
15681,-445.01
15693,-474.17
15705,-504.76
15717,-522.31
15728,-518.26
15739,-488.77
15751,-437.99
15763,-370.48
15775,-294.88
15787,-217.91
15799,-141.73
15811,-68.42
15823,10.08
15835,95.35
15847,195.99
15859,284.88
15871,352.7
15883,389.37
15895,391.18
15907,362.39
15918,310.14
15929,249.62
15941,189.69
15953,133.53
15965,77.15
15977,18.53
15989,-46.2
16001,-118.08
16013,-194.93
16025,-274.05
16037,-347.3
16049,-408.3
16061,-451.53
16073,-474.96
16085,-476.11
16097,-457.66
16108,-424.54
16119,-382.4
16131,-337.13
16143,-291.15
16155,-246.78
16167,-205.87
16179,-171.13
16191,-142.51
16203,-119.73
16215,-100.66
16227,-81.85
16239,-60.27
16251,-33.79
16263,-2.96
16275,29.86
16287,61.1
16298,89.09
16309,113.36
16321,135.23
16333,157.13
16345,181.6
16357,210.45
16369,244.2
16381,281.89
16393,320.84
16405,357.58
16417,387.91
16429,408.13
16441,416.22
16453,412.46
16465,399.29
16477,380.29
16488,358.88
16499,337.18
16511,315.83
16523,294.55
16535,273.0
16547,251.44
16559,230.73
16571,211.74
16583,194.78
16595,179.35
16607,164.47
16619,149.28
16631,133.56
16643,117.81
16655,103.04
16667,90.17
16678,79.55
16689,70.9
16701,63.42
16713,56.32
16725,49.15
16737,41.95
16749,35.13
16761,29.1
16773,23.97
16785,19.45
16797,15.02
16809,10.16
16821,4.63
16833,-1.39
16845,-7.43
16857,-12.92
16868,-17.48
16879,-21.07
16891,-23.91
16903,-26.39
16915,-28.82
16927,-31.3
16939,-33.7
16951,-35.74
16963,-37.18
16975,-37.94
16987,-38.05
16999,-37.68
17011,-36.95
17023,-35.89
17035,-34.49
17047,-32.77
17058,-30.84
17069,-28.89
17081,-27.07
17093,-25.26
17105,-23.11
17117,-19.96
17129,-15.11
17141,-8.04
17153,1.36
17165,12.72
17177,25.29
17189,38.11
17201,50.25
17213,60.86
17225,69.32
17237,75.18
17248,78.4
17259,79.42
17271,79.12
17283,78.72
17295,79.28
17307,81.4
17319,84.88
17331,88.96
17343,92.78
17355,95.94
17367,98.87
17379,102.68
17391,108.66
17403,117.54
17415,129.13
17427,142.35
17438,155.67
17449,167.74
17461,177.81
17473,185.87
17485,192.51
17497,198.52
17509,204.59
17521,211.1
17533,218.12
17545,225.48
17557,232.87
17569,239.84
17581,245.93
17593,250.76
17605,254.14
17617,256.08
17628,256.74
17639,256.01
17651,253.35
17663,247.77
17675,238.16
17687,223.74
17699,204.39
17711,180.59
17723,153.12
17735,122.61
17747,89.42
17759,53.85
17771,16.58
17783,-21.08
17795,-57.49
17807,-91.3
17818,-122.2
17829,-151.26
17841,-180.53
17853,-212.09
17865,-247.02
17877,-284.85
17889,-323.88
17901,-361.92
17913,-397.33
17925,-429.73
17937,-459.99
17949,-489.93
17961,-521.84
17973,-558.09
17985,-600.53
17997,-649.46
18008,-702.51
18019,-754.01
18031,-795.75
18043,-819.15
18055,-818.29
18067,-792.25
18079,-745.44
18091,-685.7
18103,-621.25
18115,-557.93
18127,-498.29
18139,-442.4
18151,-389.61
18163,-339.84
18175,-293.64
18187,-251.4
18198,-212.42
18209,-174.86
18221,-136.56
18233,-96.27
18245,-54.26
18257,-12.13
18269,27.89
18281,64.19
18293,96.54
18305,126.1
18317,155.02
18329,185.54
18341,219.28
18353,256.55
18365,296.0
18377,334.72
18388,368.86
18399,394.53
18411,409.06
18423,411.75
18435,403.96
18447,388.55
18459,368.55
18471,346.13
18483,322.2
18495,296.71
18507,269.67
18519,241.76
18531,214.49
18543,189.6
18555,168.17
18567,150.08
18578,134.15
18589,118.89
18601,103.41
18613,88.07
18625,74.35
18637,64.28
18649,59.54
18661,60.74
18673,67.19
18685,77.12
18697,88.32
18709,98.72
18721,107.09
18733,113.03
18745,116.86
18757,119.14
18768,120.2
18779,119.9
18791,117.74
18803,113.24
18815,106.38
18827,97.89
18839,89.05
18851,81.28
18863,75.52
18875,71.82
18887,69.36
18899,66.84
18911,63.1
18923,57.61
18935,50.73
18947,43.49
18958,37.2
18969,33.05
18981,31.67
18993,32.95
19005,35.88
19017,38.52
19029,38.19
19041,32.09
19053,18.32
19065,-3.02
19077,-29.27
19089,-55.67
19101,-76.69
19113,-87.86
19125,-87.12
19137,-75.34
19148,-55.61
19159,-32.04
19171,-8.53
19183,12.09
19195,28.21
19207,39.39
19219,46.08
19231,49.37
19243,50.71
19255,51.61
19267,53.29
19279,56.36
19291,60.86
19303,66.21
19315,71.59
19327,76.21
19338,79.7
19349,82.34
19361,85.08
19373,89.28
19385,96.19
19397,106.4
19409,119.32
19421,133.03
19433,144.67
19445,151.34
19457,151.32
19469,144.98
19481,134.81
19493,124.37
19505,116.59
19517,112.05
19528,108.6
19539,102.19
19551,88.84
19563,66.58
19575,36.35
19587,1.48
19599,-33.84
19611,-66.05
19623,-93.01
19635,-113.81
19647,-128.24
19659,-136.35
19671,-138.58
19683,-136.23
19695,-131.56
19707,-127.54
19718,-126.99
19729,-131.68
19741,-141.79
19753,-155.89
19765,-171.76
19777,-187.52
19789,-202.73
19801,-218.74
19813,-238.24
19825,-263.86
19837,-296.44
19849,-333.63
19861,-369.77
19873,-396.96
19885,-407.42
19897,-396.02
19908,-361.9
19919,-308.74
19931,-243.36
19943,-173.67
19955,-106.96
19967,-49.17
19979,-4.82
19991,22.92
20003,32.7
20015,26.09
20027,8.33
20039,-11.99
20051,-25.23
20063,-23.9
20075,-5.44
20087,26.94
20098,65.92
20109,103.38
20121,133.69
20133,155.34
20145,170.38
20157,182.24
20169,193.42
20181,204.37
20193,213.9
20205,220.63
20217,224.28
20229,226.29
20241,228.89
20253,233.81
20265,241.09
20277,248.92
20288,254.66
20299,256.34
20311,254.01
20323,249.95
20335,247.68
20347,250.24
20359,258.72
20371,271.57
20383,284.98
20395,294.31
20407,295.62
20419,286.84
20431,268.11
20443,241.17
20455,208.07
20467,170.01
20478,127.02
20489,78.56
20501,24.89
20513,-31.84
20525,-87.66
20537,-138.16
20549,-180.37
20561,-214.38
20573,-243.36
20585,-272.2
20597,-305.54
20609,-346.41
20621,-395.91
20633,-453.48
20645,-516.89
20657,-581.95
20668,-642.16
20679,-689.36
20691,-715.7
20703,-716.31
20715,-691.42
20727,-646.45
20739,-589.92
20751,-530.23
20763,-472.97
20775,-420.02
20787,-370.44
20799,-322.48
20811,-275.11
20823,-228.4
20835,-183.0
20847,-139.29
20858,-96.92
20869,-55.06
20881,-12.98
20893,29.51
20905,72.02
20917,113.92
20929,154.93
20941,195.33
20953,235.55
20965,275.44
20977,313.47
20989,346.65
