seconds,BVP
8,-81.27
20,-83.43
32,-80.73
44,-72.59
56,-59.47
68,-42.75
80,-24.44
92,-6.68
104,8.79
116,20.92
127,29.43
138,34.7
150,37.44
162,38.43
174,38.34
186,37.64
198,36.64
210,35.5
222,34.26
234,32.87
246,31.22
258,29.25
270,26.98
282,24.6
294,22.37
306,20.52
317,19.0
328,17.48
340,15.32
352,11.81
364,6.43
376,-0.92
388,-9.88
400,-19.75
412,-29.82
424,-39.63
436,-49.14
448,-58.74
460,-68.99
472,-80.37
484,-92.92
496,-106.23
507,-119.48
518,-131.76
530,-142.35
542,-150.99
554,-157.89
566,-163.66
578,-168.98
590,-174.39
602,-179.85
614,-184.52
626,-186.68
638,-183.97
650,-174.03
662,-155.35
674,-128.05
686,-94.06
697,-56.71
708,-19.64
720,14.3
732,43.83
744,69.17
756,91.39
768,111.51
780,129.83
792,145.92
804,158.86
816,167.87
828,172.59
840,173.1
852,169.8
864,163.17
876,153.71
887,142.08
898,129.32
910,116.85
922,106.24
934,98.76
946,94.79
958,93.63
970,93.74
982,93.32
994,91.13
1006,86.91
1018,81.48
1030,76.22
1042,72.46
1054,70.85
1066,71.13
1077,72.2
1088,72.47
1100,70.3
1112,64.43
1124,54.26
1136,40.15
1148,23.44
1160,6.21
1172,-9.18
1184,-20.71
1196,-27.32
1208,-29.14
1220,-27.27
1232,-23.2
1244,-18.12
1256,-12.45
1267,-5.93
1278,1.98
1290,11.39
1302,21.54
1314,30.6
1326,35.92
1338,34.7
1350,24.78
1362,5.55
1374,-21.59
1386,-53.31
1398,-85.12
1410,-112.71
1422,-133.2
1434,-145.87
1446,-151.9
1457,-153.3
1468,-151.6
1480,-147.11
1492,-138.98
1504,-126.04
1516,-107.78
1528,-84.67
1540,-57.97
1552,-28.89
1564,2.01
1576,34.87
1588,70.07
1600,107.6
1612,146.72
1624,186.23
1636,225.03
1647,262.68
1658,299.41
1670,335.56
1682,370.74
1694,403.18
1706,429.74
1718,446.69
1730,450.82
1742,440.57
1754,416.5
1766,381.08
1778,337.9
1790,290.61
1802,242.07
1814,193.89
1826,146.53
1837,99.99
1848,54.55
1860,11.23
1872,-28.17
1884,-61.72
1896,-88.16
1908,-107.34
1920,-120.25
1932,-128.45
1944,-133.3
1956,-135.53
1968,-135.36
1980,-132.97
1992,-129.03
2004,-124.82
2016,-121.89
2027,-121.44
2038,-123.78
2050,-128.35
2062,-134.01
2074,-139.67
2086,-144.62
2098,-148.67
2110,-152.03
2122,-155.0
2134,-157.86
2146,-160.75
2158,-163.79
2170,-167.14
2182,-171.1
2194,-176.04
2206,-182.28
2217,-189.94
2228,-198.68
2240,-207.73
2252,-215.96
2264,-222.25
2276,-225.86
2288,-226.61
2300,-224.91
2312,-221.38
2324,-216.52
2336,-210.37
2348,-202.52
2360,-192.19
2372,-178.53
2384,-160.85
2396,-138.87
2407,-112.89
2418,-83.86
2430,-53.42
2442,-23.46
2454,4.25
2466,28.54
2478,49.06
2490,66.04
2502,80.05
2514,91.51
2526,100.52
2538,107.03
2550,111.11
2562,113.14
2574,113.83
2586,113.95
2597,113.96
2608,113.88
2620,113.33
2632,111.8
2644,108.86
2656,104.33
2668,98.22
2680,90.58
2692,81.46
2704,70.87
2716,58.99
2728,46.21
2740,33.2
2752,20.69
2764,9.32
2776,-0.67
2787,-9.45
2798,-17.63
2810,-26.09
2822,-35.72
2834,-47.04
2846,-59.92
2858,-73.42
2870,-85.77
2882,-94.79
2894,-98.53
2906,-95.96
2918,-87.28
2930,-73.92
2942,-58.05
2954,-41.94
2966,-27.4
2977,-15.56
2988,-6.95
3000,-1.65
3012,0.45
3024,-0.24
3036,-3.21
3048,-7.72
3060,-13.02
3072,-18.53
3084,-23.95
3096,-29.3
3108,-34.7
3120,-40.3
3132,-46.05
3144,-51.78
3156,-57.28
3167,-62.51
3178,-67.64
3190,-73.04
3202,-79.14
3214,-86.28
3226,-94.76
3238,-104.79
3250,-116.64
3262,-130.42
3274,-145.84
3286,-162.05
3298,-177.68
3310,-191.29
3322,-201.96
3334,-209.48
3346,-214.16
3357,-216.11
3368,-214.62
3380,-208.07
3392,-194.51
3404,-172.51
3416,-141.92
3428,-103.93
3440,-60.77
3452,-15.29
3464,29.31
3476,69.61
3488,102.21
3500,124.3
3512,134.44
3524,133.08
3536,122.57
3547,106.4
3558,88.02
3570,69.98
3582,53.65
3594,39.48
3606,27.56
3618,18.05
3630,11.17
3642,7.19
3654,6.26
3666,8.58
3678,14.52
3690,24.7
3702,39.75
3714,59.87
3726,84.4
3737,111.53
3748,138.5
3760,162.2
3772,179.85
3784,189.58
3796,190.75
3808,183.8
3820,170.05
3832,151.4
3844,130.07
3856,108.44
3868,88.67
3880,72.46
3892,60.63
3904,53.0
3916,48.6
3927,46.03
3938,44.03
3950,41.89
3962,39.57
3974,37.55
3986,36.43
3998,36.54
4010,37.74
4022,39.41
4034,40.71
4046,40.87
4058,39.48
4070,36.64
4082,32.85
4094,28.98
4106,25.92
4117,24.41
4128,24.85
4140,27.18
4152,30.89
4164,35.17
4176,39.26
4188,42.66
4200,45.25
4212,47.17
4224,48.6
4236,49.49
4248,49.43
4260,47.77
4272,43.87
4284,37.22
4296,27.62
4307,15.26
4318,0.78
4330,-14.64
4342,-29.16
4354,-40.56
4366,-46.78
4378,-46.47
4390,-39.66
4402,-27.68
4414,-12.84
4426,2.32
4438,15.8
4450,26.45
4462,34.01
4474,38.74
4486,41.1
4497,41.46
4508,40.15
4520,37.48
4532,33.88
4544,29.89
4556,26.08
4568,22.86
4580,20.37
4592,18.48
4604,16.91
4616,15.38
4628,13.74
4640,11.98
4652,10.23
4664,8.56
4676,6.89
4687,5.06
4698,2.87
4710,0.27
4722,-2.52
4734,-5.07
4746,-6.91
4758,-7.8
4770,-7.85
4782,-7.65
4794,-8.1
4806,-10.1
4818,-14.2
4830,-20.25
4842,-27.28
4854,-33.66
4866,-37.49
4877,-37.17
4888,-31.91
4900,-21.99
4912,-8.64
4924,6.28
4936,20.86
4948,33.55
4960,43.49
4972,50.47
4984,54.82
4996,57.1
5008,57.92
5020,57.73
5032,56.79
5044,55.22
5056,53.07
5067,50.37
5078,47.24
5090,43.81
5102,40.24
5114,36.6
5126,32.96
5138,29.35
5150,25.84
5162,22.58
5174,19.71
5186,17.32
5198,15.32
5210,13.44
5222,11.29
5234,8.51
5246,4.94
5257,0.71
5268,-3.75
5280,-7.88
5292,-11.26
5304,-13.8
5316,-15.87
5328,-18.14
5340,-21.41
5352,-26.23
5364,-32.8
5376,-40.85
5388,-49.57
5400,-57.77
5412,-64.0
5424,-66.81
5436,-65.13
5447,-58.68
5458,-48.07
5470,-34.75
5482,-20.59
5494,-7.38
5506,3.67
5518,12.08
5530,18.05
5542,22.11
5554,24.82
5566,26.57
5578,27.54
5590,27.83
5602,27.57
5614,26.92
5626,26.09
5637,25.29
5648,24.58
5660,23.96
5672,23.32
5684,22.58
5696,21.74
5708,20.92
5720,20.28
5732,19.92
5744,19.85
5756,19.88
5768,19.68
5780,18.88
5792,17.16
5804,14.38
5816,10.67
5827,6.36
5838,1.89
5850,-2.32
5862,-6.01
5874,-9.11
5886,-11.79
5898,-14.33
5910,-17.09
5922,-20.43
5934,-24.61
5946,-29.64
5958,-35.13
5970,-40.27
5982,-43.81
5994,-44.44
6006,-41.19
6017,-33.79
6028,-22.87
6040,-9.83
6052,3.61
6064,15.94
6076,26.23
6088,34.23
6100,40.14
6112,44.37
6124,47.15
6136,48.53
6148,48.44
6160,46.97
6172,44.42
6184,41.27
6196,38.08
6207,35.19
6218,32.6
6230,30.07
6242,27.3
6254,24.17
6266,20.81
6278,17.58
6290,14.81
6302,12.67
6314,11.01
6326,9.44
6338,7.46
6350,4.66
6362,0.89
6374,-3.7
6386,-8.68
6397,-13.52
6408,-17.83
6420,-21.45
6432,-24.62
6444,-27.79
6456,-31.48
6468,-36.12
6480,-41.8
6492,-48.22
6504,-54.56
6516,-59.67
6528,-62.25
6540,-61.2
6552,-56.01
6564,-46.98
6576,-35.22
6587,-22.39
6598,-10.15
6610,0.26
6622,8.28
6634,14.02
6646,17.98
6658,20.66
6670,22.44
6682,23.51
6694,24.03
6706,24.27
6718,24.57
6730,25.27
6742,26.45
6754,27.9
6766,29.13
6777,29.6
6788,29.0
6800,27.43
6812,25.38
6824,23.49
6836,22.21
6848,21.64
6860,21.48
6872,21.19
6884,20.3
6896,18.59
6908,16.15
6920,13.34
6932,10.54
6944,8.06
6956,5.98
6967,4.25
6978,2.65
6990,0.91
7002,-1.27
7014,-4.17
7026,-7.86
7038,-12.14
7050,-16.37
7062,-19.46
7074,-20.12
7086,-17.15
7098,-9.86
7110,1.64
7122,16.42
7134,32.91
7146,49.31
7157,64.06
7168,76.13
7180,85.17
7192,91.3
7204,94.85
7216,96.14
7228,95.24
7240,92.12
7252,86.8
7264,79.52
7276,70.81
7288,61.31
7300,51.53
7312,41.66
7324,31.6
7336,21.22
7347,10.66
7358,0.51
7370,-8.39
7382,-15.19
7394,-19.64
7406,-22.13
7418,-23.64
7430,-25.34
7442,-28.14
7454,-32.39
7466,-37.94
7478,-44.21
7490,-50.53
7502,-56.37
7514,-61.36
7526,-65.42
7537,-68.6
7548,-71.09
7560,-73.22
7572,-75.38
7584,-78.0
7596,-81.31
7608,-85.18
7620,-88.97
7632,-91.58
7644,-91.81
7656,-88.82
7668,-82.52
7680,-73.61
7692,-63.36
7704,-53.07
7716,-43.67
7727,-35.6
7738,-28.97
7750,-24.01
7762,-21.26
7774,-21.46
7786,-25.23
7798,-32.66
7810,-43.11
7822,-55.42
7834,-68.31
7846,-80.85
7858,-92.55
7870,-103.34
7882,-113.32
7894,-122.48
7906,-130.64
7917,-137.4
7928,-142.27
7940,-144.75
7952,-144.48
7964,-141.45
7976,-136.02
7988,-129.01
8000,-121.42
8012,-113.93
8024,-106.55
8036,-98.33
8048,-87.75
8060,-73.36
8072,-54.72
8084,-32.95
8096,-10.84
8107,7.59
8118,18.14
8130,17.58
8142,4.76
8154,-18.74
8166,-48.66
8178,-78.98
8190,-103.43
8202,-117.2
8214,-118.26
8226,-107.75
8238,-89.23
8250,-67.29
8262,-46.05
8274,-28.17
8286,-14.78
8297,-5.87
8308,-0.97
8320,0.52
8332,-0.72
8344,-3.86
8356,-7.84
8368,-11.74
8380,-15.05
8392,-17.99
8404,-21.29
8416,-25.7
8428,-31.41
8440,-37.54
8452,-42.31
8464,-43.46
8476,-39.04
8487,-27.92
8498,-10.15
8510,13.27
8522,40.69
8534,70.16
8546,99.7
8558,127.38
8570,151.46
8582,170.52
8594,183.74
8606,191.04
8618,193.05
8630,190.93
8642,186.15
8654,180.27
8666,174.88
8677,171.61
8688,172.15
8700,177.92
8712,189.7
8724,207.15
8736,228.54
8748,250.84
8760,270.29
8772,283.31
8784,287.43
8796,281.99
8808,268.16
8820,248.57
8832,226.38
8844,204.39
8856,184.39
8867,166.9
8878,151.51
8890,137.25
8902,123.08
8914,108.19
8926,92.03
8938,74.29
8950,54.91
8962,34.02
8974,12.13
8986,-9.97
8998,-31.18
9010,-50.36
9022,-66.58
9034,-79.31
9046,-88.6
9057,-94.91
9068,-98.95
9080,-101.5
9092,-103.17
9104,-104.53
9116,-106.11
9128,-108.39
9140,-111.76
9152,-116.18
9164,-121.02
9176,-124.98
9188,-126.4
9200,-123.76
9212,-116.31
9224,-104.41
9236,-89.43
9247,-73.33
9258,-58.02
9270,-44.87
9282,-34.54
9294,-27.08
9306,-22.2
9318,-19.5
9330,-18.52
9342,-18.76
9354,-19.64
9366,-20.56
9378,-21.06
9390,-20.86
9402,-19.96
9414,-18.6
9426,-17.17
9437,-16.03
9448,-15.36
9460,-15.13
9472,-15.12
9484,-15.05
9496,-14.74
9508,-14.26
9520,-13.88
9532,-13.93
9544,-14.65
9556,-16.11
9568,-18.19
9580,-20.75
9592,-23.78
9604,-27.47
9616,-32.1
9627,-37.74
9638,-43.91
9650,-49.45
9662,-52.71
9674,-52.02
9686,-46.25
9698,-35.38
9710,-20.5
9722,-3.57
9734,13.21
9746,28.02
9758,39.87
9770,48.64
9782,54.86
9794,59.39
9806,62.98
9817,66.11
9828,68.99
9840,71.6
9852,73.95
9864,76.2
9876,78.71
9888,81.98
9900,86.42
9912,92.25
9924,99.36
9936,107.43
9948,115.85
9960,123.71
9972,129.7
9984,132.14
9996,129.19
10007,119.39
10018,102.12
10030,78.05
10042,48.98
10054,17.42
10066,-14.09
10078,-43.52
10090,-69.49
10102,-91.07
10114,-107.49
10126,-118.06
10138,-122.28
10150,-120.22
10162,-112.85
10174,-102.0
10186,-90.01
10197,-79.14
10208,-71.04
10220,-66.42
10232,-65.08
10244,-66.23
10256,-68.83
10268,-72.06
10280,-75.39
10292,-78.68
10304,-81.98
10316,-85.41
10328,-88.96
10340,-92.47
10352,-95.68
10364,-98.36
10376,-100.38
10387,-101.83
10398,-102.93
10410,-103.94
10422,-105.02
10434,-106.1
10446,-106.88
10458,-106.91
10470,-105.71
10482,-102.93
10494,-98.35
10506,-91.91
10518,-83.66
10530,-73.82
10542,-62.89
10554,-51.66
10566,-41.1
10577,-32.06
10588,-24.8
10600,-18.78
10612,-12.74
10624,-5.15
10636,5.12
10648,18.3
10660,33.57
10672,49.32
10684,63.75
10696,75.43
10708,83.6
10720,88.2
10732,89.59
10744,88.42
10756,85.35
10767,81.05
10778,76.05
10790,70.84
10802,65.74
10814,61.05
10826,57.0
10838,53.71
10850,51.27
10862,49.58
10874,48.46
10886,47.61
10898,46.73
10910,45.59
10922,44.13
10934,42.49
10946,40.95
10957,39.82
10968,39.42
10980,39.94
10992,41.41
11004,43.64
11016,46.2
11028,48.4
11040,49.49
11052,48.82
11064,46.21
11076,42.02
11088,37.11
11100,32.53
11112,29.05
11124,26.89
11136,25.62
11147,24.38
11158,22.37
11170,19.13
11182,14.67
11194,9.37
11206,3.68
11218,-2.19
11230,-8.3
11242,-15.01
11254,-22.74
11266,-31.77
11278,-42.05
11290,-53.14
11302,-64.34
11314,-74.73
11326,-83.57
11337,-90.47
11348,-95.54
11360,-99.33
11372,-102.62
11384,-106.0
11396,-109.73
11408,-113.66
11420,-117.39
11432,-120.63
11444,-123.4
11456,-126.11
11468,-129.43
11480,-133.98
11492,-139.99
11504,-147.12
11516,-154.47
11527,-160.69
11538,-164.35
11550,-164.17
11562,-159.36
11574,-149.85
11586,-136.31
11598,-120.06
11610,-102.74
11622,-85.97
11634,-70.8
11646,-57.47
11658,-45.33
11670,-33.09
11682,-19.41
11694,-3.5
11706,14.46
11717,33.27
11728,51.11
11740,66.08
11752,76.82
11764,82.8
11776,84.38
11788,82.45
11800,78.2
11812,72.67
11824,66.67
11836,60.66
11848,54.79
11860,48.99
11872,43.04
11884,36.74
11896,29.98
11907,22.86
11918,15.57
11930,8.33
11942,1.2
11954,-5.95
11966,-13.46
11978,-21.65
11990,-30.59
12002,-39.93
12014,-48.76
12026,-55.74
12038,-59.42
12050,-58.65
12062,-52.93
12074,-42.65
12086,-29.01
12097,-13.74
12108,1.38
12120,14.92
12132,26.1
12144,34.79
12156,41.29
12168,46.07
12180,49.54
12192,51.95
12204,53.47
12216,54.32
12228,54.81
12240,55.32
12252,56.08
12264,57.05
12276,57.87
12287,58.06
12298,57.23
12310,55.32
12322,52.63
12334,49.67
12346,46.91
12358,44.56
12370,42.57
12382,40.74
12394,38.76
12406,36.46
12418,33.69
12430,30.41
12442,26.6
12454,22.36
12466,17.84
12477,13.24
12488,8.68
12500,4.04
12512,-1.04
12524,-7.14
12536,-14.74
12548,-24.05
12560,-34.71
12572,-45.66
12584,-55.2
12596,-61.39
12608,-62.52
12620,-57.67
12632,-47.12
12644,-32.34
12656,-15.52
12667,1.05
12678,15.69
12690,27.62
12702,36.92
12714,44.13
12726,49.78
12738,54.18
12750,57.37
12762,59.4
12774,60.47
12786,61.0
12798,61.51
12810,62.39
12822,63.74
12834,65.37
12846,66.9
12857,67.95
12868,68.34
12880,68.08
12892,67.42
12904,66.61
12916,65.84
12928,65.1
12940,64.23
12952,62.94
12964,60.98
12976,58.24
12988,54.82
13000,50.98
13012,46.99
13024,43.04
13036,39.08
13047,34.83
13058,29.94
13070,24.07
13082,17.0
13094,8.77
13106,-0.38
13118,-10.01
13130,-19.64
13142,-28.75
13154,-36.97
13166,-44.1
13178,-50.2
13190,-55.6
13202,-60.86
13214,-66.63
13226,-73.38
13237,-81.08
13248,-88.97
13260,-95.59
13272,-99.2
13284,-98.37
13296,-92.62
13308,-82.66
13320,-70.17
13332,-57.18
13344,-45.24
13356,-34.96
13368,-26.08
13380,-17.83
13392,-9.59
13404,-1.23
13416,6.9
13427,14.21
13438,20.35
13450,25.37
13462,29.72
13474,33.94
13486,38.33
13498,42.77
13510,46.72
13522,49.55
13534,50.84
13546,50.59
13558,49.26
13570,47.55
13582,46.05
13594,45.02
13606,44.26
13617,43.24
13628,41.34
13640,38.12
13652,33.58
13664,28.04
13676,22.11
13688,16.34
13700,11.08
13712,6.32
13724,1.8
13736,-2.91
13748,-8.29
13760,-14.7
13772,-22.32
13784,-31.01
13796,-40.15
13807,-48.67
13818,-55.12
13830,-58.0
13842,-56.25
13854,-49.64
13866,-38.94
13878,-25.73
13890,-11.9
13902,0.93
13914,11.77
13926,20.33
13938,26.82
13950,31.67
13962,35.26
13974,37.87
13986,39.61
13997,40.61
14008,40.94
14020,40.63
14032,39.76
14044,38.38
14056,36.72
14068,35.13
14080,34.1
14092,34.04
14104,35.12
14116,37.13
14128,39.5
14140,41.53
14152,42.57
14164,42.22
14176,40.42
14187,37.32
14198,33.21
14210,28.34
14222,22.91
14234,17.04
14246,10.87
14258,4.54
14270,-1.72
14282,-7.66
14294,-12.99
14306,-17.53
14318,-21.22
14330,-24.32
14342,-27.31
14354,-30.91
14366,-35.86
14377,-42.67
14388,-51.35
14400,-61.24
14412,-70.85
14424,-78.16
14436,-81.1
14448,-78.17
14460,-69.06
14472,-54.78
14484,-37.42
14496,-19.41
14508,-2.86
14520,11.04
14532,22.01
14544,30.47
14556,37.05
14567,42.28
14578,46.43
14590,49.69
14602,52.14
14614,53.91
14626,55.08
14638,55.66
14650,55.59
14662,54.79
14674,53.24
14686,51.09
14698,48.62
14710,46.22
14722,44.23
14734,42.83
14746,41.96
14757,41.29
14768,40.36
14780,38.74
14792,36.16
14804,32.66
14816,28.5
14828,24.1
14840,19.86
14852,15.99
14864,12.45
14876,8.95
14888,5.05
14900,0.43
14912,-5.04
14924,-11.15
14936,-17.39
14947,-23.19
14958,-28.16
14970,-32.19
14982,-35.58
14994,-38.92
15006,-42.83
15018,-47.83
15030,-54.16
15042,-61.67
15054,-69.78
15066,-77.48
15078,-83.41
15090,-86.15
15102,-84.56
15114,-78.15
15126,-67.41
15137,-53.62
15148,-38.63
15160,-24.23
15172,-11.67
15184,-1.43
15196,6.7
15208,13.28
15220,18.84
15232,23.71
15244,27.93
15256,31.43
15268,34.14
15280,36.08
15292,37.36
15304,38.1
15316,38.41
15327,38.37
15338,38.06
15350,37.62
15362,37.19
15374,36.93
15386,36.93
15398,37.27
15410,37.87
15422,38.51
15434,38.81
15446,38.3
15458,36.59
15470,33.54
15482,29.35
15494,24.52
15506,19.68
15517,15.35
15528,11.69
15540,8.51
15552,5.36
15564,1.78
15576,-2.47
15588,-7.31
15600,-12.39
15612,-17.21
15624,-21.41
15636,-24.87
15648,-27.77
15660,-30.56
15672,-33.77
15684,-37.88
15696,-43.23
15707,-49.81
15718,-57.28
15730,-64.79
15742,-71.14
15754,-74.86
15766,-74.63
15778,-69.73
15790,-60.28
15802,-47.34
15814,-32.54
15826,-17.71
15838,-4.28
15850,6.9
15862,15.68
15874,22.32
15886,27.3
15897,31.03
15908,33.8
15920,35.74
15932,36.93
15944,37.44
15956,37.41
15968,37.07
15980,36.61
15992,36.22
16004,35.98
16016,35.89
16028,35.89
16040,35.86
16052,35.71
16064,35.34
16076,34.66
16087,33.54
16098,31.86
16110,29.52
16122,26.46
16134,22.64
16146,18.15
16158,13.08
16170,7.59
16182,1.9
16194,-3.76
16206,-9.16
16218,-14.15
16230,-18.69
16242,-22.89
16254,-27.02
16266,-31.45
16277,-36.59
16288,-42.69
16300,-49.69
16312,-56.98
16324,-63.48
16336,-67.78
16348,-68.5
16360,-64.83
16372,-56.88
16384,-45.63
16396,-32.74
16408,-19.92
16420,-8.44
16432,1.07
16444,8.63
16456,14.61
16467,19.35
16478,23.08
16490,25.86
16502,27.72
16514,28.74
16526,29.07
16538,28.85
16550,28.16
16562,27.01
16574,25.41
16586,23.49
16598,21.52
16610,19.86
16622,18.83
16634,18.54
16646,18.84
16657,19.35
16668,19.59
16680,19.14
16692,17.75
16704,15.47
16716,12.45
16728,8.92
16740,5.02
16752,0.74
16764,-4.02
16776,-9.33
16788,-15.14
16800,-21.25
16812,-27.35
16824,-33.15
16836,-38.52
16847,-43.55
16858,-48.51
16870,-53.85
16882,-59.98
16894,-67.19
16906,-75.37
16918,-83.95
16930,-91.82
16942,-97.56
16954,-99.82
16966,-97.76
16978,-91.45
16990,-81.87
17002,-70.68
17014,-59.63
17026,-50.11
17037,-42.85
17048,-37.9
17060,-34.91
17072,-33.46
17084,-33.19
17096,-33.86
17108,-35.28
17120,-37.21
17132,-39.41
17144,-41.7
17156,-44.16
17168,-47.09
17180,-50.91
17192,-55.92
17204,-62.03
17216,-68.73
17227,-75.32
17238,-81.19
17250,-86.2
17262,-90.58
17274,-94.73
17286,-98.68
17298,-101.95
17310,-103.49
17322,-102.03
17334,-96.3
17346,-85.04
17358,-67.07
17370,-41.49
17382,-8.23
17394,31.29
17406,73.72
17417,114.35
17428,148.27
17440,171.97
17452,184.33
17464,186.65
17476,181.68
17488,172.17
17500,159.81
17512,145.04
17524,127.61
17536,107.37
17548,84.9
17560,61.57
17572,39.25
17584,19.8
17596,4.67
17607,-5.39
17618,-10.42
17630,-11.17
17642,-8.79
17654,-4.71
17666,-0.28
17678,3.37
17690,5.45
17702,5.6
17714,3.81
17726,0.41
17738,-4.17
17750,-9.51
17762,-15.28
17774,-21.23
17786,-27.07
17797,-32.27
17808,-35.89
17820,-36.81
17832,-33.97
17844,-26.8
17856,-15.54
17868,-1.17
17880,14.78
17892,30.75
17904,45.4
17916,57.81
17928,67.33
17940,73.55
17952,76.08
17964,74.79
17976,69.85
17987,61.9
17998,51.93
18010,41.01
18022,29.89
18034,18.72
18046,7.13
18058,-5.54
18070,-19.84
18082,-35.95
18094,-53.53
18106,-71.81
18118,-89.8
18130,-106.35
18142,-120.24
18154,-130.22
18166,-135.06
18177,-133.77
18188,-125.8
18200,-111.29
18212,-91.11
18224,-66.75
18236,-39.99
18248,-12.67
18260,13.53
18272,37.18
18284,57.13
18296,72.54
18308,83.01
18320,88.72
18332,90.42
18344,89.29
18356,86.66
18367,83.62
18378,80.81
18390,78.4
18402,76.2
18414,73.98
18426,71.56
18438,68.96
18450,66.28
18462,63.57
18474,60.84
18486,57.99
18498,54.96
18510,51.75
18522,48.5
18534,45.38
18546,42.6
18557,40.25
18568,38.2
18580,36.15
18592,33.58
18604,29.99
18616,25.11
18628,19.05
18640,12.33
18652,5.7
18664,-0.17
18676,-4.95
18688,-8.83
18700,-12.45
18712,-16.7
18724,-22.32
18736,-29.73
18747,-38.79
18758,-48.75
18770,-58.38
18782,-66.0
18794,-69.87
18806,-68.63
18818,-61.72
18830,-49.61
18842,-33.86
18854,-16.63
18866,-0.07
18878,14.24
18890,25.65
18902,34.29
18914,40.77
18926,45.66
18937,49.29
18948,51.68
18960,52.83
18972,52.91
18984,52.33
18996,51.63
19008,51.21
19020,51.18
19032,51.34
19044,51.36
19056,50.93
19068,49.93
19080,48.46
19092,46.67
19104,44.74
19116,42.71
19127,40.54
19138,38.1
19150,35.21
19162,31.69
19174,27.41
19186,22.33
19198,16.56
19210,10.33
19222,3.91
19234,-2.51
19246,-8.81
19258,-14.95
19270,-20.98
19282,-27.02
19294,-33.37
19306,-40.49
19317,-48.84
19328,-58.54
19340,-69.02
19352,-78.81
19364,-85.79
19376,-87.89
19388,-83.8
19400,-73.6
19412,-58.77
19424,-41.65
19436,-24.66
19448,-9.58
19460,2.78
19472,12.42
19484,19.79
19496,25.45
19507,29.86
19518,33.39
19530,36.33
19542,38.92
19554,41.29
19566,43.38
19578,44.97
19590,45.87
19602,45.98
19614,45.41
19626,44.47
19638,43.51
19650,42.78
19662,42.3
19674,41.92
19686,41.3
19697,40.05
19708,37.88
19720,34.64
19732,30.39
19744,25.38
19756,19.91
19768,14.25
19780,8.57
19792,2.91
19804,-2.79
19816,-8.55
19828,-14.41
19840,-20.3
19852,-26.17
19864,-31.96
19876,-37.76
19887,-43.77
19898,-50.36
19910,-57.91
19922,-66.57
19934,-75.98
19946,-85.11
19958,-92.34
19970,-95.82
19982,-94.1
19994,-86.62
20006,-74.02
20018,-57.93
20030,-40.41
20042,-23.43
20054,-8.27
20066,4.5
20077,14.92
20088,23.38
20100,30.26
20112,35.92
20124,40.58
20136,44.44
20148,47.6
20160,50.16
20172,52.09
20184,53.34
20196,53.79
20208,53.4
20220,52.24
20232,50.59
20244,48.85
20256,47.47
20267,46.75
20278,46.7
20290,47.02
20302,47.15
20314,46.49
20326,44.59
20338,41.36
20350,37.03
20362,32.03
20374,26.88
20386,21.92
20398,17.23
20410,12.64
20422,7.79
20434,2.4
20446,-3.66
20457,-10.18
20468,-16.71
20480,-22.72
20492,-27.84
20504,-32.03
20516,-35.58
20528,-39.09
20540,-43.24
20552,-48.63
20564,-55.55
20576,-63.73
20588,-72.22
20600,-79.45
20612,-83.52
20624,-82.74
20636,-76.28
20647,-64.41
20658,-48.6
20670,-30.98
20682,-13.78
20694,1.33
20706,13.49
20718,22.63
20730,29.28
20742,34.13
20754,37.91
20766,41.02
20778,43.68
20790,45.81
20802,47.26
20814,47.87
20826,47.57
20837,46.48
20848,44.8
20860,42.79
20872,40.67
20884,38.59
20896,36.64
20908,34.9
20920,33.42
20932,32.2
20944,31.13
20956,30.01
20968,28.59
20980,26.62
20992,23.96
