seconds,BVP
7,35.37
19,39.52
31,41.55
43,41.63
55,40.38
67,38.5
79,36.45
91,34.37
103,32.22
115,29.89
127,27.51
139,25.26
151,23.41
163,22.09
175,21.19
186,20.5
197,19.7
209,18.55
221,16.97
233,14.99
245,12.7
257,10.16
269,7.44
281,4.59
293,1.68
305,-1.16
317,-3.79
329,-6.07
341,-7.88
353,-9.2
365,-10.07
376,-10.66
387,-11.23
399,-12.03
411,-13.17
423,-14.57
435,-15.86
447,-16.61
459,-16.5
471,-15.52
483,-13.99
495,-12.47
507,-11.33
519,-10.68
531,-10.2
543,-9.44
555,-8.03
566,-5.87
577,-3.11
589,0.08
601,3.66
613,7.65
625,12.0
637,16.43
649,20.43
661,23.55
673,25.68
685,27.14
697,28.52
709,30.26
721,32.36
733,34.34
745,35.52
756,35.54
767,34.47
779,32.87
791,31.29
803,29.93
815,28.53
827,26.52
839,23.33
851,18.75
863,13.04
875,6.83
887,0.93
899,-3.99
911,-7.56
923,-9.85
935,-11.26
946,-12.46
957,-14.09
969,-16.57
981,-19.99
993,-24.09
1005,-28.35
1017,-32.23
1029,-35.23
1041,-37.04
1053,-37.56
1065,-36.82
1077,-34.99
1089,-32.31
1101,-29.03
1113,-25.37
1125,-21.5
1136,-17.5
1147,-13.51
1159,-9.73
1171,-6.38
1183,-3.65
1195,-1.62
1207,-0.19
1219,0.82
1231,1.59
1243,2.22
1255,2.75
1267,3.19
1279,3.63
1291,4.26
1303,5.31
1315,6.89
1326,8.9
1337,10.99
1349,12.72
1361,13.81
1373,14.21
1385,14.11
1397,13.78
1409,13.36
1421,12.8
1433,11.82
1445,10.17
1457,7.7
1469,4.52
1481,0.91
1493,-2.78
1505,-6.27
1516,-9.38
1527,-12.01
1539,-14.06
1551,-15.41
1563,-15.95
1575,-15.63
1587,-14.49
1599,-12.71
1611,-10.64
1623,-8.71
1635,-7.29
1647,-6.61
1659,-6.6
1671,-6.86
1683,-6.83
1695,-6.07
1706,-4.54
1717,-2.7
1729,-1.31
1741,-1.06
1753,-2.19
1765,-4.38
1777,-6.9
1789,-9.05
1801,-10.44
1813,-11.16
1825,-11.55
1837,-11.94
1849,-12.42
1861,-12.94
1873,-13.36
1885,-13.69
1896,-14.06
1907,-14.6
1919,-15.26
1931,-15.73
1943,-15.69
1955,-14.9
1967,-13.44
1979,-11.59
1991,-9.75
2003,-8.18
2015,-6.91
2027,-5.83
2039,-4.77
2051,-3.64
2063,-2.44
2075,-1.2
2086,0.08
2097,1.41
2109,2.8
2121,4.22
2133,5.57
2145,6.69
2157,7.4
2169,7.57
2181,7.13
2193,6.18
2205,4.81
2217,3.17
2229,1.27
2241,-0.93
2253,-3.53
2265,-6.5
2276,-9.59
2287,-12.34
2299,-14.31
2311,-15.26
2323,-15.25
2335,-14.64
2347,-13.82
2359,-13.05
2371,-12.43
2383,-11.91
2395,-11.49
2407,-11.23
2419,-11.21
2431,-11.34
2443,-11.35
2455,-10.83
2466,-9.44
2477,-7.14
2489,-4.21
2501,-1.14
2513,1.61
2525,3.84
2537,5.62
2549,7.25
2561,9.01
2573,11.07
2585,13.33
2597,15.48
2609,17.14
2621,17.97
2633,17.8
2645,16.72
2656,14.98
2667,12.95
2679,11.03
2691,9.44
2703,8.26
2715,7.43
2727,6.81
2739,6.28
2751,5.81
2763,5.39
2775,5.0
2787,4.57
2799,3.98
2811,3.26
2823,2.55
2835,2.09
2846,2.0
2857,2.16
2869,2.16
2881,1.42
2893,-0.41
2905,-3.22
2917,-6.45
2929,-9.2
2941,-10.76
2953,-10.87
2965,-9.8
2977,-8.16
2989,-6.53
3001,-5.17
3013,-4.01
3025,-2.87
3036,-1.68
3047,-0.62
3059,0.02
3071,0.01
3083,-0.61
3095,-1.56
3107,-2.47
3119,-3.12
3131,-3.5
3143,-3.78
3155,-4.17
3167,-4.78
3179,-5.63
3191,-6.65
3203,-7.76
3215,-8.81
3226,-9.56
3237,-9.75
3249,-9.24
3261,-8.07
3273,-6.6
3285,-5.33
3297,-4.71
3309,-4.92
3321,-5.8
3333,-6.96
3345,-8.03
3357,-8.79
3369,-9.23
3381,-9.43
3393,-9.5
3405,-9.42
3416,-9.1
3427,-8.44
3439,-7.42
3451,-6.05
3463,-4.39
3475,-2.48
3487,-0.42
3499,1.65
3511,3.49
3523,4.76
3535,5.22
3547,4.86
3559,4.02
3571,3.29
3583,3.33
3595,4.52
3606,6.77
3617,9.54
3629,12.18
3641,14.22
3653,15.69
3665,16.99
3677,18.64
3689,20.79
3701,23.08
3713,24.76
3725,25.11
3737,23.86
3749,21.31
3761,18.23
3773,15.44
3785,13.47
3796,12.37
3807,11.79
3819,11.31
3831,10.65
3843,9.78
3855,8.84
3867,7.97
3879,7.19
3891,6.44
3903,5.68
3915,4.95
3927,4.46
3939,4.4
3951,4.83
3963,5.58
3975,6.26
3986,6.44
3997,5.95
4009,4.9
4021,3.62
4033,2.45
4045,1.52
4057,0.7
4069,-0.29
4081,-1.71
4093,-3.7
4105,-6.19
4117,-9.01
4129,-11.96
4141,-14.9
4153,-17.68
4165,-20.13
4176,-22.01
4187,-23.07
4199,-23.14
4211,-22.19
4223,-20.39
4235,-18.08
4247,-15.65
4259,-13.46
4271,-11.68
4283,-10.28
4295,-9.06
4307,-7.77
4319,-6.29
4331,-4.68
4343,-3.21
4355,-2.2
4366,-1.92
4377,-2.35
4389,-3.2
4401,-4.02
4413,-4.38
4425,-4.07
4437,-3.16
4449,-1.94
4461,-0.68
4473,0.53
4485,1.84
4497,3.56
4509,5.92
4521,8.91
4533,12.22
4545,15.32
4556,17.65
4567,18.81
4579,18.61
4591,17.16
4603,14.8
4615,12.04
4627,9.42
4639,7.46
4651,6.36
4663,5.96
4675,5.65
4687,4.46
4699,1.4
4711,-4.21
4723,-12.37
4735,-22.28
4746,-32.54
4757,-41.68
4769,-48.61
4781,-52.97
4793,-55.08
4805,-55.56
4817,-54.88
4829,-53.07
4841,-49.78
4853,-44.71
4865,-37.89
4877,-29.9
4889,-21.59
4901,-13.78
4913,-6.96
4925,-1.2
4936,3.67
4947,7.8
4959,11.17
4971,13.69
4983,15.21
4995,15.74
5007,15.42
5019,14.51
5031,13.26
5043,11.89
5055,10.59
5067,9.44
5079,8.48
5091,7.7
5103,7.03
5115,6.39
5126,5.75
5137,5.11
5149,4.46
5161,3.75
5173,2.85
5185,1.64
5197,0.06
5209,-1.72
5221,-3.35
5233,-4.4
5245,-4.63
5257,-4.24
5269,-3.87
5281,-4.48
5293,-6.86
5305,-11.17
5316,-16.76
5327,-22.21
5339,-25.95
5351,-26.9
5363,-24.9
5375,-20.78
5387,-15.83
5399,-11.21
5411,-7.46
5423,-4.42
5435,-1.55
5447,1.6
5459,5.04
5471,8.35
5483,10.94
5495,12.37
5506,12.59
5517,11.94
5529,10.96
5541,10.2
5553,10.03
5565,10.56
5577,11.61
5589,12.84
5601,13.83
5613,14.28
5625,14.09
5637,13.33
5649,12.09
5661,10.47
5673,8.56
5685,6.64
5696,5.19
5707,4.88
5719,6.3
5731,9.52
5743,13.85
5755,17.97
5767,20.45
5779,20.44
5791,18.15
5803,14.78
5815,11.98
5827,10.94
5839,11.85
5851,13.8
5863,15.34
5875,15.31
5886,13.53
5897,10.85
5909,8.79
5921,8.77
5933,11.55
5945,16.91
5957,23.95
5969,31.43
5981,38.22
5993,43.5
6005,46.71
6017,47.53
6029,45.89
6041,42.06
6053,36.82
6065,31.39
6076,27.16
6087,25.12
6099,25.58
6111,27.84
6123,30.61
6135,32.46
6147,32.39
6159,30.16
6171,26.15
6183,21.06
6195,15.52
6207,10.02
6219,4.9
6231,0.58
6243,-2.49
6255,-3.94
6266,-3.73
6277,-2.25
6289,-0.24
6301,1.53
6313,2.64
6325,3.06
6337,3.16
6349,3.35
6361,3.92
6373,4.93
6385,6.22
6397,7.59
6409,8.89
6421,10.03
6433,10.94
6445,11.44
6456,11.24
6467,9.97
6479,7.26
6491,2.96
6503,-2.71
6515,-9.17
6527,-15.56
6539,-21.04
6551,-25.07
6563,-27.49
6575,-28.63
6587,-28.97
6599,-28.97
6611,-28.84
6623,-28.54
6635,-27.95
6646,-27.01
6657,-25.81
6669,-24.46
6681,-23.13
6693,-21.85
6705,-20.56
6717,-19.16
6729,-17.6
6741,-15.9
6753,-14.19
6765,-12.55
6777,-11.07
6789,-9.79
6801,-8.7
6813,-7.72
6825,-6.73
6836,-5.6
6847,-4.3
6859,-2.94
6871,-1.76
6883,-0.99
6895,-0.7
6907,-0.69
6919,-0.65
6931,-0.33
6943,0.32
6955,0.99
6967,1.27
6979,0.88
6991,-0.2
7003,-1.64
7015,-2.94
7026,-3.73
7037,-3.93
7049,-3.71
7061,-3.36
7073,-3.11
7085,-3.04
7097,-3.14
7109,-3.43
7121,-4.01
7133,-4.99
7145,-6.43
7157,-8.21
7169,-10.08
7181,-11.73
7193,-12.94
7205,-13.69
7216,-14.07
7227,-14.2
7239,-14.12
7251,-13.75
7263,-13.0
7275,-11.81
7287,-10.2
7299,-8.3
7311,-6.25
7323,-4.13
7335,-1.95
7347,0.25
7359,2.4
7371,4.32
7383,5.8
7395,6.68
7406,6.96
7417,6.8
7429,6.45
7441,6.09
7453,5.8
7465,5.52
7477,5.15
7489,4.67
7501,4.11
7513,3.64
7525,3.33
7537,3.22
7549,3.21
7561,3.22
7573,3.25
7585,3.35
7596,3.62
7607,4.1
7619,4.67
7631,5.12
7643,5.28
7655,5.1
7667,4.69
7679,4.29
7691,4.11
7703,4.25
7715,4.63
7727,5.02
7739,5.18
7751,4.96
7763,4.42
7775,3.78
7786,3.33
7797,3.24
7809,3.46
7821,3.78
7833,3.91
7845,3.7
7857,3.2
7869,2.67
7881,2.4
7893,2.58
7905,3.17
7917,4.0
7929,4.83
7941,5.51
7953,6.02
7965,6.43
7976,6.78
7987,7.04
7999,7.11
8011,6.87
8023,6.31
8035,5.51
8047,4.67
8059,3.99
8071,3.54
8083,3.27
8095,3.07
8107,2.82
8119,2.55
8131,2.38
8143,2.44
8155,2.81
8166,3.41
8177,4.07
8189,4.63
8201,5.02
8213,5.28
8225,5.54
8237,5.87
8249,6.28
8261,6.68
8273,6.95
8285,7.03
8297,6.92
8309,6.69
8321,6.35
8333,5.86
8345,5.08
8356,3.89
8367,2.24
8379,0.29
8391,-1.73
8403,-3.58
8415,-5.14
8427,-6.51
8439,-7.85
8451,-9.29
8463,-10.77
8475,-12.06
8487,-12.86
8499,-13.0
8511,-12.49
8523,-11.49
8535,-10.26
8546,-8.94
8557,-7.59
8569,-6.25
8581,-4.97
8593,-3.94
8605,-3.43
8617,-3.66
8629,-4.64
8641,-6.11
8653,-7.55
8665,-8.49
8677,-8.67
8689,-8.13
8701,-7.2
8713,-6.25
8725,-5.56
8736,-5.13
8747,-4.74
8759,-4.14
8771,-3.22
8783,-2.07
8795,-0.85
8807,0.33
8819,1.35
8831,2.12
8843,2.56
8855,2.71
8867,2.73
8879,2.88
8891,3.53
8903,4.97
8915,7.32
8926,10.12
8937,12.64
8949,14.1
8961,14.36
8973,13.97
8985,13.89
8997,14.97
9009,17.54
9021,21.16
9033,24.37
9045,25.59
9057,23.67
9069,18.7
9081,11.99
9093,5.25
9105,-0.02
9116,-2.93
9127,-3.17
9139,-1.51
9151,0.87
9163,2.38
9175,1.76
9187,-1.86
9199,-9.27
9211,-21.15
9223,-37.78
9235,-54.34
9247,-65.03
9259,-65.1
9271,-54.7
9283,-37.72
9295,-18.74
9306,-0.92
9317,14.44
9329,27.61
9341,39.7
9353,49.65
9365,58.03
9377,64.14
9389,67.21
9401,66.95
9413,63.56
9425,57.57
9437,49.51
9449,39.5
9461,26.39
9473,10.79
9485,-7.43
9496,-27.48
9507,-47.54
9519,-65.33
9531,-79.01
9543,-87.68
9555,-91.61
9567,-92.24
9579,-91.09
9591,-89.68
9603,-88.43
9615,-86.66
9627,-83.35
9639,-77.76
9651,-69.76
9663,-59.86
9675,-49.01
9686,-38.02
9697,-27.77
9709,-18.68
9721,-10.79
9733,-3.98
9745,1.95
9757,7.33
9769,12.56
9781,17.89
9793,23.28
9805,27.91
9817,30.69
9829,30.69
9841,27.68
9853,22.31
9865,15.94
9876,10.02
9887,5.63
9899,3.12
9911,2.2
9923,2.4
9935,3.55
9947,5.87
9959,9.76
9971,15.49
9983,22.84
9995,31.15
10007,39.36
10019,46.33
10031,51.01
10043,52.7
10055,51.02
10066,46.07
10077,38.4
10089,28.94
10101,18.89
10113,9.51
10125,1.93
10137,-3.05
10149,-5.06
10161,-4.2
10173,-1.02
10185,3.55
10197,8.4
10209,12.44
10221,14.83
10233,15.22
10245,13.92
10256,11.83
10267,10.22
10279,10.27
10291,12.61
10303,17.06
10315,22.62
10327,27.96
10339,31.98
10351,34.31
10363,35.37
10375,36.09
10387,37.36
10399,39.68
10411,42.93
10423,46.34
10435,48.48
10446,47.4
10457,40.94
10469,27.48
10481,6.76
10493,-19.55
10505,-48.18
10517,-75.39
10529,-98.41
10541,-116.47
10553,-130.71
10565,-143.13
10577,-155.21
10589,-167.23
10601,-178.53
10613,-188.21
10625,-195.82
10636,-201.42
10647,-205.05
10659,-206.35
10671,-204.71
10683,-199.85
10695,-192.3
10707,-183.29
10719,-173.98
10731,-164.67
10743,-154.65
10755,-142.84
10767,-128.84
10779,-113.58
10791,-98.94
10803,-86.6
10815,-76.86
10826,-68.27
10837,-58.31
10849,-44.85
10861,-27.28
10873,-6.83
10885,14.15
10897,33.29
10909,49.09
10921,61.22
10933,70.07
10945,76.19
10957,79.92
10969,81.46
10981,81.12
10993,79.54
11005,77.65
11016,76.27
11027,75.7
11039,75.61
11051,75.2
11063,73.83
11075,71.37
11087,68.42
11099,65.98
11111,65.1
11123,66.35
11135,69.77
11147,74.99
11159,81.57
11171,89.21
11183,97.71
11195,106.86
11206,116.24
11217,125.22
11229,133.13
11241,139.42
11253,143.8
11265,146.22
11277,146.74
11289,145.39
11301,142.13
11313,136.86
11325,129.52
11337,120.27
11349,109.49
11361,97.87
11373,86.26
11385,75.5
11396,66.17
11407,58.47
11419,52.08
11431,46.37
11443,40.66
11455,34.52
11467,27.91
11479,21.16
11491,14.71
11503,8.87
11515,3.7
11527,-0.99
11539,-5.47
11551,-9.83
11563,-13.92
11575,-17.38
11586,-19.76
11597,-20.82
11609,-20.58
11621,-19.4
11633,-17.81
11645,-16.28
11657,-15.11
11669,-14.32
11681,-13.71
11693,-12.99
11705,-12.01
11717,-10.77
11729,-9.46
11741,-8.36
11753,-7.65
11765,-7.34
11776,-7.24
11787,-7.03
11799,-6.43
11811,-5.39
11823,-4.02
11835,-2.63
11847,-1.48
11859,-0.71
11871,-0.31
11883,-0.09
11895,0.13
11907,0.44
11919,0.79
11931,1.09
11943,1.25
11955,1.27
11966,1.21
11977,1.14
11989,1.04
12001,0.83
12013,0.41
12025,-0.31
12037,-1.28
12049,-2.35
12061,-3.35
12073,-4.11
12085,-4.62
12097,-4.88
12109,-5.0
12121,-5.07
12133,-5.21
12145,-5.5
12156,-6.03
12167,-6.84
12179,-7.81
12191,-8.78
12203,-9.51
12215,-9.81
12227,-9.59
12239,-8.86
12251,-7.67
12263,-6.04
12275,-4.01
12287,-1.63
12299,0.95
12311,3.51
12323,5.81
12335,7.68
12346,9.1
12357,10.1
12369,10.75
12381,11.06
12393,11.04
12405,10.71
12417,10.17
12429,9.57
12441,9.03
12453,8.61
12465,8.29
12477,8.04
12489,7.85
12501,7.76
12513,7.82
12525,8.03
12536,8.33
12547,8.57
12559,8.59
12571,8.23
12583,7.43
12595,6.2
12607,4.7
12619,3.17
12631,1.86
12643,0.95
12655,0.47
12667,0.27
12679,0.11
12691,-0.24
12703,-0.94
12715,-1.96
12726,-3.15
12737,-4.31
12749,-5.28
12761,-5.99
12773,-6.49
12785,-6.89
12797,-7.29
12809,-7.8
12821,-8.44
12833,-9.21
12845,-10.1
12857,-11.05
12869,-11.93
12881,-12.52
12893,-12.51
12905,-11.63
12916,-9.75
12927,-6.98
12939,-3.64
12951,-0.21
12963,2.89
12975,5.42
12987,7.34
12999,8.74
13011,9.76
13023,10.48
13035,10.95
13047,11.16
13059,11.13
13071,10.91
13083,10.53
13095,10.02
13106,9.41
13117,8.7
13129,7.93
13141,7.14
13153,6.38
13165,5.67
13177,5.01
13189,4.36
13201,3.68
13213,2.96
13225,2.22
13237,1.52
13249,0.94
13261,0.47
13273,0.05
13285,-0.42
13296,-1.02
13307,-1.8
13319,-2.71
13331,-3.66
13343,-4.57
13355,-5.43
13367,-6.25
13379,-7.03
13391,-7.74
13403,-8.27
13415,-8.57
13427,-8.69
13439,-8.84
13451,-9.24
13463,-10.02
13475,-11.15
13486,-12.39
13497,-13.35
13509,-13.67
13521,-13.1
13533,-11.59
13545,-9.23
13557,-6.25
13569,-2.99
13581,0.22
13593,3.05
13605,5.25
13617,6.74
13629,7.56
13641,7.93
13653,8.04
13665,8.05
13676,7.98
13687,7.78
13699,7.39
13711,6.85
13723,6.28
13735,5.8
13747,5.52
13759,5.45
13771,5.46
13783,5.41
13795,5.16
13807,4.71
13819,4.09
13831,3.41
13843,2.76
13855,2.15
13866,1.53
13877,0.82
13889,-0.06
13901,-1.12
13913,-2.3
13925,-3.49
13937,-4.58
13949,-5.51
13961,-6.31
13973,-7.1
13985,-7.98
13997,-9.02
14009,-10.18
14021,-11.33
14033,-12.38
14045,-13.24
14056,-13.9
14067,-14.33
14079,-14.46
14091,-14.19
14103,-13.41
14115,-12.07
14127,-10.23
14139,-7.97
14151,-5.43
14163,-2.72
14175,0.04
14187,2.64
14199,4.84
14211,6.35
14223,7.03
14235,6.93
14246,6.35
14257,5.74
14269,5.45
14281,5.6
14293,6.06
14305,6.49
14317,6.6
14329,6.25
14341,5.57
14353,4.86
14365,4.43
14377,4.41
14389,4.71
14401,5.05
14413,5.08
14425,4.63
14436,3.71
14447,2.52
14459,1.32
14471,0.25
14483,-0.73
14495,-1.79
14507,-3.09
14519,-4.68
14531,-6.44
14543,-8.25
14555,-10.08
14567,-12.12
14579,-14.63
14591,-17.73
14603,-21.23
14615,-24.55
14626,-27.02
14637,-28.1
14649,-27.68
14661,-26.03
14673,-23.62
14685,-20.73
14697,-17.35
14709,-13.16
14721,-7.87
14733,-1.48
14745,5.54
14757,12.4
14769,18.28
14781,22.6
14793,25.2
14805,26.24
14816,26.14
14827,25.29
14839,24.0
14851,22.47
14863,20.79
14875,19.02
14887,17.2
14899,15.42
14911,13.74
14923,12.25
14935,10.96
14947,9.86
14959,8.88
14971,7.98
14983,7.18
14995,6.57
15006,6.29
15017,6.37
15029,6.73
15041,7.11
15053,7.18
15065,6.67
15077,5.47
15089,3.69
15101,1.55
15113,-0.7
15125,-2.89
15137,-4.93
15149,-6.81
15161,-8.56
15173,-10.17
15185,-11.65
15196,-13.03
15207,-14.41
15219,-15.9
15231,-17.63
15243,-19.62
15255,-21.84
15267,-24.14
15279,-26.34
15291,-28.22
15303,-29.57
15315,-30.13
15327,-29.66
15339,-28.06
15351,-25.35
15363,-21.82
15375,-17.92
15386,-14.17
15397,-10.93
15409,-8.3
15421,-6.06
15433,-3.85
15445,-1.36
15457,1.54
15469,4.67
15481,7.69
15493,10.22
15505,12.02
15517,13.05
15529,13.41
15541,13.28
15553,12.81
15565,12.14
15576,11.39
15587,10.69
15599,10.21
15611,10.09
15623,10.39
15635,11.0
15647,11.7
15659,12.26
15671,12.53
15683,12.51
15695,12.34
15707,12.17
15719,12.06
15731,11.91
15743,11.55
15755,10.85
15766,9.8
15777,8.64
15789,7.75
15801,7.44
15813,7.93
15825,9.18
15837,11.03
15849,13.24
15861,15.6
15873,17.91
15885,19.98
15897,21.54
15909,22.29
15921,22.01
15933,20.65
15945,18.43
15956,15.86
15967,13.53
15979,11.91
15991,11.23
16003,11.4
16015,12.11
16027,12.98
16039,13.59
16051,13.58
16063,12.63
16075,10.55
16087,7.3
16099,3.05
16111,-1.76
16123,-6.64
16135,-11.08
16146,-14.8
16157,-17.75
16169,-20.06
16181,-21.83
16193,-23.13
16205,-23.94
16217,-24.24
16229,-24.08
16241,-23.57
16253,-22.95
16265,-22.45
16277,-22.2
16289,-22.19
16301,-22.22
16313,-22.07
16325,-21.59
16336,-20.8
16347,-19.88
16359,-19.08
16371,-18.6
16383,-18.51
16395,-18.72
16407,-19.09
16419,-19.47
16431,-19.83
16443,-20.17
16455,-20.53
16467,-20.91
16479,-21.24
16491,-21.46
16503,-21.58
16515,-21.63
16526,-21.69
16537,-21.77
16549,-21.79
16561,-21.59
16573,-21.02
16585,-19.98
16597,-18.48
16609,-16.6
16621,-14.39
16633,-11.8
16645,-8.66
16657,-4.83
16669,-0.32
16681,4.55
16693,9.31
16705,13.43
16716,16.56
16727,18.66
16739,19.92
16751,20.63
16763,21.01
16775,21.1
16787,20.89
16799,20.34
16811,19.54
16823,18.66
16835,17.85
16847,17.2
16859,16.67
16871,16.12
16883,15.42
16895,14.45
16906,13.23
16917,11.82
16929,10.32
16941,8.85
16953,7.47
16965,6.18
16977,4.94
16989,3.69
17001,2.43
17013,1.22
17025,0.18
17037,-0.64
17049,-1.24
17061,-1.71
17073,-2.22
17085,-2.87
17096,-3.69
17107,-4.6
17119,-5.48
17131,-6.24
17143,-6.88
17155,-7.44
17167,-7.95
17179,-8.45
17191,-8.99
17203,-9.6
17215,-10.31
17227,-11.06
17239,-11.68
17251,-11.88
17263,-11.32
17275,-9.82
17286,-7.44
17297,-4.48
17309,-1.4
17321,1.31
17333,3.34
17345,4.63
17357,5.27
17369,5.45
17381,5.34
17393,5.1
17405,4.8
17417,4.52
17429,4.32
17441,4.29
17453,4.49
17465,4.97
17476,5.68
17487,6.55
17499,7.49
17511,8.39
17523,9.22
17535,10.0
17547,10.83
17559,11.84
17571,13.11
17583,14.62
17595,16.21
17607,17.7
17619,18.93
17631,19.91
17643,20.85
17655,22.06
17666,23.89
17677,26.55
17689,29.99
17701,33.91
17713,37.82
17725,41.3
17737,44.19
17749,46.79
17761,49.77
17773,53.88
17785,59.62
17797,66.84
17809,74.72
17821,82.03
17833,87.65
17845,91.02
17856,92.29
17867,92.02
17879,90.71
17891,88.43
17903,84.78
17915,79.16
17927,71.08
17939,60.12
17951,45.63
17963,26.32
17975,0.45
17987,-33.22
17999,-74.31
18011,-120.17
18023,-166.51
18035,-209.06
18046,-245.3
18057,-275.12
18069,-299.9
18081,-320.55
18093,-335.82
18105,-342.26
18117,-335.88
18129,-314.76
18141,-280.67
18153,-238.89
18165,-196.13
18177,-157.87
18189,-126.69
18201,-102.38
18213,-83.36
18225,-68.47
18236,-57.69
18247,-51.67
18259,-50.67
18271,-53.51
18283,-57.56
18295,-59.74
18307,-57.78
18319,-51.15
18331,-41.07
18343,-29.61
18355,-18.68
18367,-9.23
18379,-1.06
18391,6.88
18403,15.9
18415,26.97
18426,40.25
18437,54.94
18449,69.42
18461,81.68
18473,90.05
18485,93.89
18497,93.9
18509,91.98
18521,90.53
18533,91.42
18545,95.24
18557,101.14
18569,107.23
18581,111.51
18593,112.76
18605,111.0
18616,107.33
18627,103.38
18639,100.5
18651,99.28
18663,99.4
18675,99.9
18687,99.85
18699,98.75
18711,96.7
18723,94.16
18735,91.49
18747,88.57
18759,84.87
18771,79.69
18783,72.71
18795,64.37
18806,55.76
18817,48.23
18829,42.71
18841,39.34
18853,37.41
18865,35.74
18877,33.13
18889,28.71
18901,22.0
18913,12.8
18925,1.19
18937,-12.28
18949,-26.37
18961,-39.13
18973,-48.42
18985,-52.73
18996,-51.94
19007,-47.48
19019,-41.83
19031,-37.51
19043,-36.15
19055,-38.13
19067,-42.76
19079,-48.8
19091,-54.98
19103,-60.27
19115,-63.8
19127,-64.83
19139,-62.92
19151,-58.14
19163,-51.29
19175,-43.84
19186,-37.54
19197,-33.77
19209,-33.15
19221,-35.3
19233,-39.06
19245,-42.94
19257,-45.64
19269,-46.48
19281,-45.45
19293,-42.95
19305,-39.27
19317,-34.25
19329,-27.14
19341,-16.98
19353,-3.17
19365,14.04
19376,33.52
19387,53.66
19399,72.91
19411,90.24
19423,105.14
19435,117.26
19447,126.05
19459,130.64
19471,130.15
19483,124.27
19495,113.74
19507,100.34
19519,86.51
19531,74.58
19543,66.16
19555,61.79
19566,61.07
19577,63.02
19589,66.6
19601,71.04
19613,75.91
19625,81.05
19637,86.21
19649,91.06
19661,95.3
19673,98.97
19685,102.59
19697,106.96
19709,112.65
19721,119.46
19733,126.28
19745,131.35
19756,132.96
19767,130.18
19779,123.13
19791,112.71
19803,100.06
19815,86.05
19827,71.08
19839,55.44
19851,39.67
19863,24.87
19875,12.66
19887,4.77
19899,2.45
19911,6.1
19923,15.08
19935,27.82
19946,42.12
19957,55.54
19969,65.75
19981,70.83
19993,69.46
20005,61.07
20017,45.86
20029,24.68
20041,-1.08
20053,-29.67
20065,-59.24
20077,-88.01
20089,-114.54
20101,-137.85
20113,-157.56
20125,-173.66
20136,-186.38
20147,-195.82
20159,-201.89
20171,-204.44
20183,-203.56
20195,-199.74
20207,-193.88
20219,-186.97
20231,-179.7
20243,-172.28
20255,-164.57
20267,-156.28
20279,-147.3
20291,-137.75
20303,-127.82
20315,-117.54
20326,-106.65
20337,-94.84
20349,-81.97
20361,-68.35
20373,-54.76
20385,-42.27
20397,-31.8
20409,-23.85
20421,-18.32
20433,-14.57
20445,-11.76
20457,-9.1
20469,-6.17
20481,-2.89
20493,0.54
20505,3.92
20516,7.16
20527,10.34
20539,13.59
20551,16.93
20563,20.28
20575,23.38
20587,25.99
20599,27.99
20611,29.34
20623,30.11
20635,30.36
20647,30.08
20659,29.25
20671,27.94
20683,26.27
20695,24.45
20706,22.71
20717,21.25
20729,20.17
20741,19.51
20753,19.26
20765,19.38
20777,19.77
20789,20.29
20801,20.68
20813,20.68
20825,20.09
20837,18.9
20849,17.3
20861,15.62
20873,14.16
20885,13.08
20896,12.31
20907,11.63
20919,10.91
20931,10.17
20943,9.56
20955,9.26
20967,9.3
20979,9.44
20991,9.31
