seconds,BVP
10,-10.44
22,-5.49
34,-1.44
46,1.6
58,3.69
70,5.06
81,6.0
92,6.81
104,7.76
116,8.94
128,10.3
140,11.69
152,12.88
164,13.75
176,14.33
188,14.77
200,15.25
212,15.91
224,16.75
236,17.68
248,18.58
260,19.33
271,19.87
282,20.13
294,20.06
306,19.65
318,18.91
330,17.93
342,16.85
354,15.83
366,14.93
378,14.15
390,13.36
402,12.48
414,11.47
426,10.37
438,9.32
450,8.39
461,7.64
472,7.0
484,6.38
496,5.69
508,4.9
520,3.99
532,3.03
544,2.06
556,1.13
568,0.32
580,-0.32
592,-0.75
604,-1.03
616,-1.28
628,-1.7
640,-2.45
651,-3.6
662,-5.01
674,-6.46
686,-7.71
698,-8.61
710,-9.22
722,-9.75
734,-10.39
746,-11.24
758,-12.21
770,-13.11
782,-13.76
794,-14.13
806,-14.39
818,-14.78
830,-15.53
841,-16.71
852,-18.24
864,-19.92
876,-21.55
888,-22.94
900,-23.86
912,-24.06
924,-23.26
936,-21.25
948,-18.01
960,-13.77
972,-9.0
984,-4.25
996,-0.02
1008,3.38
1020,5.79
1031,7.26
1042,7.93
1054,8.08
1066,7.99
1078,7.91
1090,7.99
1102,8.21
1114,8.5
1126,8.74
1138,8.91
1150,9.09
1162,9.35
1174,9.79
1186,10.37
1198,11.04
1210,11.72
1221,12.35
1232,12.92
1244,13.43
1256,13.85
1268,14.08
1280,14.07
1292,13.79
1304,13.29
1316,12.68
1328,12.08
1340,11.52
1352,10.97
1364,10.32
1376,9.46
1388,8.4
1400,7.24
1411,6.16
1422,5.29
1434,4.65
1446,4.12
1458,3.55
1470,2.82
1482,1.94
1494,1.03
1506,0.2
1518,-0.5
1530,-1.16
1542,-1.96
1554,-3.05
1566,-4.51
1578,-6.26
1590,-8.11
1601,-9.84
1612,-11.28
1624,-12.4
1636,-13.28
1648,-14.1
1660,-15.09
1672,-16.39
1684,-18.06
1696,-20.0
1708,-21.98
1720,-23.66
1732,-24.63
1744,-24.52
1756,-23.07
1768,-20.27
1780,-16.39
1791,-11.87
1802,-7.25
1814,-2.97
1826,0.7
1838,3.65
1850,5.93
1862,7.62
1874,8.81
1886,9.63
1898,10.18
1910,10.59
1922,10.92
1934,11.2
1946,11.41
1958,11.56
1970,11.67
1981,11.8
1992,12.01
2004,12.28
2016,12.6
2028,12.91
2040,13.19
2052,13.46
2064,13.7
2076,13.87
2088,13.84
2100,13.53
2112,12.93
2124,12.14
2136,11.34
2148,10.68
2160,10.17
2171,9.72
2182,9.12
2194,8.23
2206,7.04
2218,5.66
2230,4.27
2242,3.09
2254,2.19
2266,1.61
2278,1.3
2290,1.18
2302,1.09
2314,0.91
2326,0.48
2338,-0.29
2350,-1.37
2361,-2.63
2372,-3.9
2384,-5.08
2396,-6.14
2408,-7.2
2420,-8.35
2432,-9.63
2444,-10.95
2456,-12.16
2468,-13.17
2480,-14.03
2492,-14.94
2504,-16.14
2516,-17.8
2528,-19.93
2540,-22.38
2551,-24.83
2562,-26.91
2574,-28.22
2586,-28.42
2598,-27.28
2610,-24.76
2622,-21.04
2634,-16.53
2646,-11.76
2658,-7.25
2670,-3.37
2682,-0.24
2694,2.18
2706,4.06
2718,5.52
2730,6.64
2741,7.45
2752,7.99
2764,8.32
2776,8.55
2788,8.82
2800,9.23
2812,9.84
2824,10.61
2836,11.49
2848,12.37
2860,13.17
2872,13.83
2884,14.33
2896,14.68
2908,14.84
2920,14.79
2931,14.51
2942,14.0
2954,13.36
2966,12.71
2978,12.17
2990,11.8
3002,11.54
3014,11.28
3026,10.92
3038,10.44
3050,9.87
3062,9.28
3074,8.66
3086,7.91
3098,6.96
3110,5.82
3121,4.61
3132,3.54
3144,2.78
3156,2.4
3168,2.29
3180,2.29
3192,2.21
3204,1.89
3216,1.29
3228,0.44
3240,-0.56
3252,-1.61
3264,-2.58
3276,-3.4
3288,-4.04
3300,-4.58
3311,-5.12
3322,-5.79
3334,-6.65
3346,-7.75
3358,-9.05
3370,-10.47
3382,-11.94
3394,-13.33
3406,-14.53
3418,-15.5
3430,-16.28
3442,-17.1
3454,-18.21
3466,-19.79
3478,-21.81
3490,-23.93
3501,-25.55
3512,-26.05
3524,-24.97
3536,-22.22
3548,-18.12
3560,-13.26
3572,-8.35
3584,-3.95
3596,-0.39
3608,2.28
3620,4.18
3632,5.53
3644,6.53
3656,7.33
3668,7.98
3680,8.52
3691,9.01
3702,9.51
3714,10.09
3726,10.76
3738,11.46
3750,12.11
3762,12.66
3774,13.14
3786,13.66
3798,14.28
3810,15.03
3822,15.78
3834,16.36
3846,16.61
3858,16.48
3870,16.04
3881,15.37
3892,14.6
3904,13.78
3916,12.93
3928,12.1
3940,11.34
3952,10.69
3964,10.18
3976,9.76
3988,9.36
4000,8.9
4012,8.37
4024,7.77
4036,7.16
4048,6.6
4060,6.09
4071,5.63
4082,5.17
4094,4.67
4106,4.11
4118,3.53
4130,2.95
4142,2.41
4154,1.88
4166,1.29
4178,0.56
4190,-0.33
4202,-1.32
4214,-2.24
4226,-2.96
4238,-3.45
4250,-3.85
4261,-4.4
4272,-5.34
4284,-6.71
4296,-8.41
4308,-10.17
4320,-11.73
4332,-12.96
4344,-13.88
4356,-14.6
4368,-15.3
4380,-16.09
4392,-17.08
4404,-18.29
4416,-19.68
4428,-21.11
4440,-22.27
4451,-22.77
4462,-22.22
4474,-20.38
4486,-17.3
4498,-13.34
4510,-9.05
4522,-5.02
4534,-1.68
4546,0.79
4558,2.42
4570,3.41
4582,3.97
4594,4.29
4606,4.52
4618,4.74
4630,5.05
4641,5.5
4652,6.08
4664,6.72
4676,7.32
4688,7.78
4700,8.07
4712,8.25
4724,8.45
4736,8.8
4748,9.38
4760,10.16
4772,11.03
4784,11.86
4796,12.48
4808,12.76
4820,12.61
4831,11.99
4842,10.91
4854,9.48
4866,7.91
4878,6.44
4890,5.29
4902,4.56
4914,4.2
4926,4.0
4938,3.72
4950,3.14
4962,2.21
4974,1.03
4986,-0.18
4998,-1.23
5010,-2.05
5021,-2.67
5032,-3.28
5044,-4.06
5056,-5.09
5068,-6.38
5080,-7.78
5092,-9.12
5104,-10.3
5116,-11.25
5128,-12.06
5140,-12.84
5152,-13.71
5164,-14.8
5176,-16.17
5188,-17.81
5200,-19.61
5211,-21.33
5222,-22.59
5234,-22.95
5246,-22.06
5258,-19.77
5270,-16.26
5282,-12.0
5294,-7.53
5306,-3.38
5318,0.15
5330,2.95
5342,5.04
5354,6.49
5366,7.37
5378,7.74
5390,7.76
5401,7.65
5412,7.65
5424,7.92
5436,8.5
5448,9.25
5460,10.01
5472,10.64
5484,11.14
5496,11.58
5508,12.07
5520,12.66
5532,13.35
5544,14.0
5556,14.45
5568,14.6
5580,14.41
5591,13.98
5602,13.44
5614,12.89
5626,12.36
5638,11.78
5650,11.05
5662,10.11
5674,9.02
5686,7.93
5698,6.97
5710,6.23
5722,5.67
5734,5.2
5746,4.77
5758,4.37
5770,4.07
5781,3.9
5792,3.78
5804,3.55
5816,3.05
5828,2.2
5840,1.07
5852,-0.19
5864,-1.39
5876,-2.41
5888,-3.25
5900,-3.99
5912,-4.75
5924,-5.61
5936,-6.57
5948,-7.61
5960,-8.67
5971,-9.7
5982,-10.69
5994,-11.66
6006,-12.64
6018,-13.66
6030,-14.75
6042,-15.91
6054,-17.17
6066,-18.57
6078,-20.13
6090,-21.76
6102,-23.22
6114,-24.14
6126,-24.11
6138,-22.81
6150,-20.21
6161,-16.54
6172,-12.29
6184,-8.02
6196,-4.2
6208,-1.12
6220,1.15
6232,2.72
6244,3.75
6256,4.45
6268,5.0
6280,5.57
6292,6.27
6304,7.17
6316,8.23
6328,9.31
6340,10.27
6351,10.96
6362,11.36
6374,11.58
6386,11.78
6398,12.09
6410,12.53
6422,12.98
6434,13.27
6446,13.28
6458,12.98
6470,12.51
6482,12.02
6494,11.65
6506,11.41
6518,11.21
6530,10.93
6541,10.47
6552,9.84
6564,9.1
6576,8.37
6588,7.71
6600,7.13
6612,6.62
6624,6.16
6636,5.73
6648,5.38
6660,5.14
6672,5.0
6684,4.9
6696,4.69
6708,4.26
6720,3.56
6731,2.66
6742,1.73
6754,0.93
6766,0.31
6778,-0.18
6790,-0.7
6802,-1.38
6814,-2.25
6826,-3.24
6838,-4.23
6850,-5.17
6862,-6.09
6874,-7.1
6886,-8.29
6898,-9.64
6910,-11.04
6921,-12.3
6932,-13.32
6944,-14.13
6956,-14.85
6968,-15.69
6980,-16.84
6992,-18.35
7004,-20.16
7016,-22.04
7028,-23.66
7040,-24.64
7052,-24.62
7064,-23.37
7076,-20.86
7088,-17.29
7100,-13.07
7111,-8.7
7122,-4.62
7134,-1.17
7146,1.53
7158,3.52
7170,4.93
7182,5.9
7194,6.57
7206,7.02
7218,7.34
7230,7.62
7242,7.95
7254,8.38
7266,8.93
7278,9.52
7290,10.07
7301,10.52
7312,10.87
7324,11.21
7336,11.6
7348,12.07
7360,12.54
7372,12.92
7384,13.08
7396,13.01
7408,12.74
7420,12.36
7432,11.93
7444,11.45
7456,10.88
7468,10.15
7480,9.25
7491,8.27
7502,7.34
7514,6.57
7526,6.04
7538,5.7
7550,5.43
7562,5.1
7574,4.63
7586,4.07
7598,3.55
7610,3.22
7622,3.14
7634,3.23
7646,3.3
7658,3.14
7670,2.61
7681,1.71
7692,0.58
7704,-0.61
7716,-1.68
7728,-2.58
7740,-3.34
7752,-4.03
7764,-4.71
7776,-5.38
7788,-6.01
7800,-6.55
7812,-7.07
7824,-7.67
7836,-8.49
7848,-9.63
7860,-11.02
7871,-12.48
7882,-13.76
7894,-14.69
7906,-15.23
7918,-15.52
7930,-15.81
7942,-16.4
7954,-17.45
7966,-18.93
7978,-20.52
7990,-21.76
8002,-22.11
8014,-21.18
8026,-18.84
8038,-15.3
8050,-11.07
8061,-6.74
8072,-2.85
8084,0.3
8096,2.65
8108,4.3
8120,5.4
8132,6.1
8144,6.48
8156,6.59
8168,6.51
8180,6.35
8192,6.24
8204,6.28
8216,6.52
8228,6.94
8240,7.48
8251,8.06
8262,8.65
8274,9.22
8286,9.78
8298,10.33
8310,10.88
8322,11.42
8334,11.95
8346,12.42
8358,12.76
8370,12.85
8382,12.58
8394,11.91
8406,10.89
8418,9.65
8430,8.36
8441,7.14
8452,6.08
8464,5.17
8476,4.36
8488,3.6
8500,2.88
8512,2.22
8524,1.7
8536,1.33
8548,1.08
8560,0.83
8572,0.41
8584,-0.33
8596,-1.45
8608,-2.87
8620,-4.39
8631,-5.82
8642,-7.0
8654,-7.98
8666,-8.9
8678,-9.92
8690,-11.15
8702,-12.48
8714,-13.74
8726,-14.75
8738,-15.45
8750,-16.03
8762,-16.79
8774,-17.99
8786,-19.62
8798,-21.34
8810,-22.57
8821,-22.69
8832,-21.34
8844,-18.55
8856,-14.74
8868,-10.5
8880,-6.39
8892,-2.75
8904,0.26
8916,2.65
8928,4.4
8940,5.55
8952,6.14
8964,6.34
8976,6.4
8988,6.6
9000,7.11
9011,7.9
9022,8.81
9034,9.62
9046,10.22
9058,10.62
9070,10.94
9082,11.29
9094,11.74
9106,12.26
9118,12.77
9130,13.25
9142,13.67
9154,14.03
9166,14.27
9178,14.28
9190,13.96
9201,13.28
9212,12.33
9224,11.26
9236,10.23
9248,9.37
9260,8.68
9272,8.13
9284,7.66
9296,7.24
9308,6.85
9320,6.47
9332,6.05
9344,5.52
9356,4.81
9368,3.91
9380,2.88
9391,1.82
9402,0.83
9414,-0.03
9426,-0.76
9438,-1.42
9450,-2.13
9462,-2.97
9474,-3.98
9486,-5.12
9498,-6.32
9510,-7.5
9522,-8.63
9534,-9.71
9546,-10.78
9558,-11.86
9570,-12.94
9581,-13.97
9592,-14.94
9604,-15.91
9616,-17.04
9628,-18.47
9640,-20.26
9652,-22.23
9664,-23.98
9676,-24.98
9688,-24.78
9700,-23.18
9712,-20.3
9724,-16.54
9736,-12.43
9748,-8.43
9760,-4.88
9771,-1.95
9782,0.33
9794,2.0
9806,3.17
9818,3.98
9830,4.62
9842,5.28
9854,6.07
9866,7.05
9878,8.16
9890,9.28
9902,10.29
9914,11.09
9926,11.63
9938,11.93
9950,12.04
9961,12.06
9972,12.11
9984,12.23
9996,12.44
10008,12.68
10020,12.89
10032,13.01
10044,13.04
10056,12.96
10068,12.76
10080,12.42
10092,11.88
10104,11.18
10116,10.34
10128,9.47
10140,8.69
10151,8.08
10162,7.65
10174,7.35
10186,7.05
10198,6.64
10210,6.05
10222,5.33
10234,4.57
10246,3.89
10258,3.35
10270,2.93
10282,2.52
10294,2.02
10306,1.37
10318,0.6
10330,-0.27
10341,-1.19
10352,-2.17
10364,-3.26
10376,-4.46
10388,-5.74
10400,-7.02
10412,-8.19
10424,-9.16
10436,-9.93
10448,-10.55
10460,-11.11
10472,-11.74
10484,-12.52
10496,-13.5
10508,-14.65
10520,-15.95
10531,-17.41
10542,-19.02
10554,-20.77
10566,-22.49
10578,-23.85
10590,-24.38
10602,-23.64
10614,-21.4
10626,-17.78
10638,-13.25
10650,-8.47
10662,-4.12
10674,-0.64
10686,1.79
10698,3.32
10710,4.25
10721,4.93
10732,5.64
10744,6.5
10756,7.48
10768,8.51
10780,9.49
10792,10.41
10804,11.26
10816,12.0
10828,12.56
10840,12.81
10852,12.72
10864,12.39
10876,12.04
10888,11.95
10900,12.26
10911,12.91
10922,13.64
10934,14.15
10946,14.23
10958,13.85
10970,13.13
10982,12.25
10994,11.32
11006,10.41
11018,9.53
11030,8.76
11042,8.21
11054,7.94
11066,7.96
11078,8.09
11090,8.12
11101,7.83
11112,7.18
11124,6.28
11136,5.34
11148,4.55
11160,3.99
11172,3.61
11184,3.28
11196,2.87
11208,2.3
11220,1.58
11232,0.79
11244,0.01
11256,-0.71
11268,-1.35
11280,-1.97
11291,-2.65
11302,-3.5
11314,-4.58
11326,-5.92
11338,-7.42
11350,-8.94
11362,-10.32
11374,-11.43
11386,-12.27
11398,-12.97
11410,-13.71
11422,-14.69
11434,-16.06
11446,-17.83
11458,-19.88
11470,-21.95
11481,-23.67
11492,-24.61
11504,-24.44
11516,-22.98
11528,-20.32
11540,-16.81
11552,-12.96
11564,-9.29
11576,-6.18
11588,-3.75
11600,-1.93
11612,-0.52
11624,0.72
11636,1.96
11648,3.3
11660,4.79
11671,6.38
11682,7.98
11694,9.43
11706,10.56
11718,11.25
11730,11.5
11742,11.42
11754,11.24
11766,11.2
11778,11.45
11790,12.0
11802,12.7
11814,13.35
11826,13.77
11838,13.91
11850,13.8
11861,13.5
11872,13.08
11884,12.54
11896,11.86
11908,11.02
11920,10.11
11932,9.26
11944,8.57
11956,8.07
11968,7.68
11980,7.25
11992,6.62
12004,5.75
12016,4.69
12028,3.52
12040,2.28
12051,1.0
12062,-0.37
12074,-1.81
12086,-3.23
12098,-4.55
12110,-5.72
12122,-6.73
12134,-7.72
12146,-8.77
12158,-9.94
12170,-11.19
12182,-12.4
12194,-13.48
12206,-14.44
12218,-15.37
12230,-16.38
12241,-17.57
12252,-18.94
12264,-20.38
12276,-21.73
12288,-22.77
12300,-23.27
12312,-22.98
12324,-21.71
12336,-19.38
12348,-16.1
12360,-12.16
12372,-8.0
12384,-4.07
12396,-0.72
12408,1.87
12420,3.7
12431,4.9
12442,5.71
12454,6.37
12466,7.06
12478,7.87
12490,8.74
12502,9.59
12514,10.3
12526,10.81
12538,11.14
12550,11.35
12562,11.49
12574,11.62
12586,11.76
12598,11.94
12610,12.19
12621,12.55
12632,12.99
12644,13.4
12656,13.6
12668,13.45
12680,12.88
12692,12.0
12704,10.98
12716,10.03
12728,9.27
12740,8.72
12752,8.31
12764,7.93
12776,7.49
12788,6.95
12800,6.31
12811,5.59
12822,4.84
12834,4.15
12846,3.56
12858,3.09
12870,2.68
12882,2.21
12894,1.59
12906,0.77
12918,-0.17
12930,-1.11
12942,-1.91
12954,-2.54
12966,-3.06
12978,-3.63
12990,-4.38
13001,-5.39
13012,-6.61
13024,-7.9
13036,-9.16
13048,-10.29
13060,-11.31
13072,-12.24
13084,-13.18
13096,-14.19
13108,-15.35
13120,-16.74
13132,-18.39
13144,-20.3
13156,-22.3
13168,-24.09
13180,-25.3
13191,-25.54
13202,-24.55
13214,-22.3
13226,-18.97
13238,-14.9
13250,-10.51
13262,-6.24
13274,-2.39
13286,0.8
13298,3.27
13310,5.04
13322,6.25
13334,7.09
13346,7.74
13358,8.31
13370,8.9
13381,9.51
13392,10.14
13404,10.78
13416,11.37
13428,11.9
13440,12.35
13452,12.76
13464,13.17
13476,13.6
13488,14.08
13500,14.54
13512,14.92
13524,15.12
13536,15.11
13548,14.86
13560,14.44
13571,13.89
13582,13.27
13594,12.62
13606,11.94
13618,11.24
13630,10.49
13642,9.69
13654,8.84
13666,7.98
13678,7.14
13690,6.36
13702,5.64
13714,4.99
13726,4.42
13738,3.95
13750,3.56
13761,3.23
13772,2.89
13784,2.47
13796,1.93
13808,1.29
13820,0.58
13832,-0.16
13844,-0.9
13856,-1.68
13868,-2.56
13880,-3.62
13892,-4.9
13904,-6.41
13916,-8.09
13928,-9.86
13940,-11.55
13951,-13.03
13962,-14.18
13974,-15.01
13986,-15.63
13998,-16.24
14010,-17.08
14022,-18.32
14034,-19.94
14046,-21.73
14058,-23.3
14070,-24.17
14082,-23.94
14094,-22.4
14106,-19.64
14118,-15.98
14130,-11.9
14141,-7.86
14152,-4.24
14164,-1.26
14176,1.0
14188,2.56
14200,3.52
14212,4.05
14224,4.34
14236,4.64
14248,5.13
14260,5.87
14272,6.78
14284,7.67
14296,8.32
14308,8.59
14320,8.5
14331,8.23
14342,8.04
14354,8.14
14366,8.63
14378,9.45
14390,10.41
14402,11.28
14414,11.89
14426,12.21
14438,12.27
14450,12.14
14462,11.9
14474,11.58
14486,11.17
14498,10.66
14510,10.05
14521,9.36
14532,8.61
14544,7.82
14556,7.01
14568,6.17
14580,5.27
14592,4.3
14604,3.26
14616,2.17
14628,1.09
14640,0.08
14652,-0.88
14664,-1.87
14676,-3.02
14688,-4.41
14700,-6.0
14711,-7.67
14722,-9.21
14734,-10.46
14746,-11.36
14758,-12.03
14770,-12.64
14782,-13.43
14794,-14.57
14806,-16.1
14818,-17.94
14830,-19.83
14842,-21.44
14854,-22.35
14866,-22.21
14878,-20.83
14890,-18.25
14901,-14.78
14912,-10.88
14924,-7.05
14936,-3.69
14948,-0.97
14960,1.1
14972,2.67
14984,3.93
14996,5.02
15008,5.98
15020,6.81
15032,7.48
15044,7.98
15056,8.32
15068,8.55
15080,8.72
15091,8.86
15102,9.03
15114,9.28
15126,9.7
15138,10.34
15150,11.19
15162,12.17
15174,13.11
15186,13.85
15198,14.22
15210,14.17
15222,13.73
15234,13.04
15246,12.27
15258,11.55
15270,10.93
15281,10.37
15292,9.78
15304,9.05
15316,8.13
15328,7.02
15340,5.83
15352,4.7
15364,3.75
15376,3.08
15388,2.65
15400,2.41
15412,2.21
15424,1.92
15436,1.42
15448,0.66
15460,-0.34
15471,-1.51
15482,-2.74
15494,-3.95
15506,-5.11
15518,-6.27
15530,-7.48
15542,-8.76
15554,-10.08
15566,-11.32
15578,-12.42
15590,-13.36
15602,-14.25
15614,-15.25
15626,-16.49
15638,-18.0
15650,-19.68
15661,-21.33
15672,-22.74
15684,-23.72
15696,-24.07
15708,-23.58
15720,-22.06
15732,-19.43
15744,-15.77
15756,-11.43
15768,-6.92
15780,-2.77
15792,0.61
15804,3.06
15816,4.66
15828,5.6
15840,6.17
15851,6.58
15862,7.01
15874,7.56
15886,8.29
15898,9.16
15910,10.05
15922,10.82
15934,11.31
15946,11.45
15958,11.34
15970,11.14
15982,11.05
15994,11.18
16006,11.54
16018,12.03
16030,12.51
16041,12.87
16052,13.02
16064,12.92
16076,12.56
16088,11.97
16100,11.23
16112,10.48
16124,9.88
16136,9.5
16148,9.32
16160,9.13
16172,8.73
16184,7.97
16196,6.87
16208,5.6
16220,4.44
16231,3.58
16242,3.05
16254,2.71
16266,2.33
16278,1.71
16290,0.79
16302,-0.35
16314,-1.57
16326,-2.76
16338,-3.94
16350,-5.18
16362,-6.52
16374,-7.97
16386,-9.42
16398,-10.76
16410,-11.89
16421,-12.81
16432,-13.59
16444,-14.27
16456,-14.86
16468,-15.36
16480,-15.76
16492,-16.13
16504,-16.63
16516,-17.4
16528,-18.48
16540,-19.72
16552,-20.75
16564,-21.11
16576,-20.42
16588,-18.49
16600,-15.41
16611,-11.5
16622,-7.15
16634,-2.78
16646,1.32
16658,4.89
16670,7.76
16682,9.87
16694,11.2
16706,11.91
16718,12.21
16730,12.36
16742,12.54
16754,12.83
16766,13.2
16778,13.5
16790,13.61
16801,13.44
16812,13.02
16824,12.45
16836,11.9
16848,11.55
16860,11.48
16872,11.69
16884,12.04
16896,12.35
16908,12.45
16920,12.21
16932,11.63
16944,10.8
16956,9.85
16968,8.94
16980,8.2
16991,7.68
17002,7.37
17014,7.19
17026,7.01
17038,6.74
17050,6.35
17062,5.88
17074,5.43
17086,5.04
17098,4.67
17110,4.24
17122,3.65
17134,2.88
17146,1.99
17158,1.08
17170,0.22
17181,-0.6
17192,-1.46
17204,-2.43
17216,-3.57
17228,-4.84
17240,-6.19
17252,-7.56
17264,-8.92
17276,-10.21
17288,-11.38
17300,-12.39
17312,-13.2
17324,-13.88
17336,-14.59
17348,-15.52
17360,-16.85
17371,-18.62
17382,-20.7
17394,-22.8
17406,-24.49
17418,-25.36
17430,-25.11
17442,-23.65
17454,-21.07
17466,-17.7
17478,-13.94
17490,-10.22
17502,-6.88
17514,-4.08
17526,-1.83
17538,-0.02
17550,1.51
17561,2.91
17572,4.22
17584,5.47
17596,6.63
17608,7.67
17620,8.53
17632,9.19
17644,9.57
17656,9.66
17668,9.51
17680,9.26
17692,9.1
17704,9.18
17716,9.53
17728,10.06
17740,10.55
17751,10.85
17762,10.87
17774,10.65
17786,10.3
17798,9.89
17810,9.45
17822,8.93
17834,8.27
17846,7.43
17858,6.42
17870,5.3
17882,4.12
17894,2.92
17906,1.75
17918,0.65
17930,-0.36
17941,-1.27
17952,-2.09
17964,-2.85
17976,-3.54
17988,-4.16
18000,-4.67
18012,-5.1
18024,-5.54
18036,-6.15
18048,-7.1
18060,-8.5
18072,-10.37
18084,-12.6
18096,-15.0
18108,-17.3
18120,-19.2
18131,-20.34
18142,-20.42
18154,-19.24
18166,-16.83
18178,-13.45
18190,-9.57
18202,-5.66
18214,-2.1
18226,0.92
18238,3.36
18250,5.26
18262,6.65
18274,7.56
18286,8.06
18298,8.29
18310,8.46
18321,8.77
18332,9.31
18344,9.98
18356,10.59
18368,10.93
18380,10.92
18392,10.66
18404,10.39
18416,10.37
18428,10.74
18440,11.45
18452,12.28
18464,12.94
18476,13.2
18488,12.98
18500,12.33
18511,11.41
18522,10.4
18534,9.44
18546,8.55
18558,7.68
18570,6.74
18582,5.64
18594,4.41
18606,3.13
18618,1.96
18630,1.0
18642,0.31
18654,-0.19
18666,-0.62
18678,-1.14
18690,-1.87
18701,-2.87
18712,-4.14
18724,-5.64
18736,-7.28
18748,-8.94
18760,-10.46
18772,-11.73
18784,-12.7
18796,-13.51
18808,-14.39
18820,-15.61
18832,-17.36
18844,-19.58
18856,-21.95
18868,-23.98
18880,-25.1
18891,-24.9
18902,-23.23
18914,-20.24
18926,-16.3
18938,-11.95
18950,-7.68
18962,-3.89
18974,-0.81
18986,1.51
18998,3.19
19010,4.43
19022,5.45
19034,6.45
19046,7.55
19058,8.8
19070,10.16
19081,11.49
19092,12.63
19104,13.39
19116,13.67
19128,13.53
19140,13.15
19152,12.83
19164,12.8
19176,13.18
19188,13.86
19200,14.62
19212,15.2
19224,15.45
19236,15.36
19248,15.01
19260,14.53
19271,13.97
19282,13.32
19294,12.57
19306,11.71
19318,10.78
19330,9.91
19342,9.17
19354,8.66
19366,8.37
19378,8.25
19390,8.17
19402,8.02
19414,7.69
19426,7.15
19438,6.37
19450,5.44
19461,4.44
19472,3.45
19484,2.54
19496,1.72
19508,1.0
19520,0.36
19532,-0.25
19544,-0.92
19556,-1.71
19568,-2.69
19580,-3.86
19592,-5.19
19604,-6.57
19616,-7.88
19628,-9.05
19640,-10.07
19651,-11.0
19662,-11.96
19674,-13.09
19686,-14.45
19698,-16.07
19710,-17.86
19722,-19.73
19734,-21.61
19746,-23.46
19758,-25.24
19770,-26.84
19782,-28.01
19794,-28.41
19806,-27.68
19818,-25.62
19830,-22.33
19841,-18.18
19852,-13.74
19864,-9.52
19876,-5.88
19888,-2.94
19900,-0.58
19912,1.35
19924,3.05
19936,4.58
19948,6.0
19960,7.3
19972,8.47
19984,9.52
19996,10.46
20008,11.29
20020,11.97
20031,12.5
20042,12.84
20054,13.01
20066,13.09
20078,13.16
20090,13.33
20102,13.63
20114,14.06
20126,14.51
20138,14.83
20150,14.93
20162,14.77
20174,14.43
20186,13.99
20198,13.54
20210,13.11
20221,12.64
20232,12.07
20244,11.35
20256,10.5
20268,9.62
20280,8.78
20292,8.04
20304,7.44
20316,6.92
20328,6.46
20340,6.0
20352,5.52
20364,4.98
20376,4.35
20388,3.62
20400,2.78
20411,1.9
20422,1.01
20434,0.21
20446,-0.52
20458,-1.19
20470,-1.85
20482,-2.53
20494,-3.21
20506,-3.89
20518,-4.61
20530,-5.48
20542,-6.64
20554,-8.15
20566,-9.93
20578,-11.75
20590,-13.33
20601,-14.47
20612,-15.18
20624,-15.69
20636,-16.31
20648,-17.33
20660,-18.86
20672,-20.81
20684,-22.93
20696,-24.82
20708,-26.05
20720,-26.22
20732,-25.04
20744,-22.43
20756,-18.62
20768,-14.05
20780,-9.31
20791,-4.95
20802,-1.32
20814,1.39
20826,3.26
20838,4.46
20850,5.17
20862,5.63
20874,6.01
20886,6.45
20898,7.01
20910,7.67
20922,8.36
20934,9.0
20946,9.57
20958,10.06
20970,10.51
20981,10.93
20992,11.32
