seconds,BVP
10,36.52
22,41.64
34,46.73
46,51.93
58,57.15
70,62.1
82,66.41
94,69.82
106,72.29
118,74.01
130,75.27
142,76.27
154,77.0
166,77.26
177,76.72
188,75.14
200,72.5
212,69.01
224,65.08
236,61.14
248,57.45
260,54.0
272,50.55
284,46.74
296,42.23
308,36.87
320,30.7
332,23.93
344,16.82
356,9.58
367,2.34
378,-4.86
390,-12.09
402,-19.49
414,-27.29
426,-35.72
438,-44.93
450,-54.81
462,-64.85
474,-74.18
486,-81.69
498,-86.39
510,-87.8
522,-86.16
534,-82.36
546,-77.67
557,-73.22
568,-69.62
580,-66.73
592,-63.83
604,-59.95
616,-54.29
628,-46.55
640,-36.98
652,-26.21
664,-15.0
676,-4.03
688,6.17
700,15.2
712,22.74
724,28.56
736,32.55
747,34.85
758,35.83
770,36.0
782,35.87
794,35.8
806,35.86
818,35.85
830,35.41
842,34.21
854,32.17
866,29.59
878,27.09
890,25.4
902,24.97
914,25.74
926,27.06
937,28.0
948,27.76
960,25.99
972,22.92
984,19.14
996,15.2
1008,11.34
1020,7.47
1032,3.23
1044,-1.65
1056,-7.3
1068,-13.64
1080,-20.48
1092,-27.58
1104,-34.63
1116,-41.22
1127,-46.72
1138,-50.43
1150,-51.64
1162,-49.96
1174,-45.47
1186,-38.75
1198,-30.78
1210,-22.59
1222,-15.08
1234,-8.74
1246,-3.71
1258,0.19
1270,3.21
1282,5.56
1294,7.38
1306,8.7
1317,9.54
1328,9.86
1340,9.71
1352,9.2
1364,8.59
1376,8.24
1388,8.55
1400,9.85
1412,12.2
1424,15.34
1436,18.75
1448,21.8
1460,23.99
1472,25.11
1484,25.29
1496,24.83
1507,24.02
1518,23.0
1530,21.65
1542,19.74
1554,17.02
1566,13.37
1578,8.82
1590,3.54
1602,-2.28
1614,-8.45
1626,-14.84
1638,-21.27
1650,-27.48
1662,-33.21
1674,-38.26
1686,-42.57
1697,-46.34
1708,-49.82
1720,-53.2
1732,-56.34
1744,-58.76
1756,-59.69
1768,-58.44
1780,-54.64
1792,-48.47
1804,-40.58
1816,-31.93
1828,-23.33
1840,-15.3
1852,-7.91
1864,-0.99
1876,5.68
1887,12.14
1898,18.2
1910,23.52
1922,27.75
1934,30.74
1946,32.61
1958,33.68
1970,34.39
1982,35.08
1994,35.86
2006,36.65
2018,37.24
2030,37.45
2042,37.31
2054,37.0
2066,36.74
2077,36.66
2088,36.65
2100,36.43
2112,35.73
2124,34.42
2136,32.62
2148,30.55
2160,28.45
2172,26.38
2184,24.3
2196,22.14
2208,19.89
2220,17.63
2232,15.46
2244,13.41
2256,11.37
2267,9.25
2278,6.97
2290,4.54
2302,2.07
2314,-0.32
2326,-2.43
2338,-3.94
2350,-4.41
2362,-3.24
2374,0.1
2386,5.84
2398,13.81
2410,23.32
2422,33.43
2434,43.16
2446,51.74
2457,58.76
2468,64.14
2480,68.02
2492,70.56
2504,71.93
2516,72.26
2528,71.71
2540,70.59
2552,69.34
2564,68.5
2576,68.56
2588,69.73
2600,71.81
2612,74.16
2624,75.82
2636,75.79
2647,73.26
2658,67.82
2670,59.49
2682,48.64
2694,35.85
2706,21.81
2718,7.22
2730,-7.25
2742,-20.95
2754,-33.41
2766,-44.32
2778,-53.72
2790,-61.86
2802,-69.1
2814,-75.71
2826,-81.72
2837,-87.01
2848,-91.42
2860,-94.97
2872,-97.91
2884,-100.67
2896,-103.7
2908,-107.23
2920,-111.28
2932,-115.51
2944,-119.38
2956,-122.22
2968,-123.4
2980,-122.49
2992,-119.46
3004,-114.74
3016,-108.93
3027,-102.55
3038,-95.61
3050,-87.48
3062,-77.17
3074,-63.82
3086,-47.29
3098,-28.4
3110,-8.77
3122,9.77
3134,25.8
3146,38.6
3158,48.15
3170,54.68
3182,58.35
3194,59.02
3206,56.38
3217,50.33
3228,41.37
3240,30.77
3252,20.46
3264,12.62
3276,9.09
3288,10.84
3300,17.72
3312,28.45
3324,41.11
3336,53.68
3348,64.49
3360,72.58
3372,77.66
3384,79.96
3396,79.91
3407,77.9
3418,74.11
3430,68.55
3442,61.1
3454,51.68
3466,40.46
3478,28.1
3490,15.71
3502,4.76
3514,-3.31
3526,-7.59
3538,-7.98
3550,-5.35
3562,-1.21
3574,2.76
3586,5.28
3597,5.87
3608,4.98
3620,3.69
3632,3.29
3644,4.8
3656,8.61
3668,14.38
3680,21.21
3692,28.0
3704,33.82
3716,38.11
3728,40.78
3740,42.02
3752,42.15
3764,41.47
3776,40.14
3787,38.29
3798,36.09
3810,33.75
3822,31.54
3834,29.7
3846,28.34
3858,27.44
3870,26.85
3882,26.43
3894,26.07
3906,25.79
3918,25.61
3930,25.52
3942,25.34
3954,24.84
3966,23.71
3977,21.76
3988,19.02
4000,15.73
4012,12.23
4024,8.84
4036,5.71
4048,2.81
4060,-0.02
4072,-2.95
4084,-6.09
4096,-9.39
4108,-12.73
4120,-15.98
4132,-19.05
4144,-22.01
4156,-25.0
4167,-28.24
4178,-31.88
4190,-35.92
4202,-40.13
4214,-44.0
4226,-46.84
4238,-47.92
4250,-46.64
4262,-42.82
4274,-36.74
4286,-29.14
4298,-20.96
4310,-13.1
4322,-6.22
4334,-0.61
4346,3.68
4357,6.81
4368,8.96
4380,10.37
4392,11.25
4404,11.78
4416,12.12
4428,12.34
4440,12.5
4452,12.64
4464,12.84
4476,13.21
4488,13.81
4500,14.63
4512,15.54
4524,16.31
4536,16.75
4547,16.73
4558,16.22
4570,15.27
4582,13.94
4594,12.33
4606,10.51
4618,8.58
4630,6.61
4642,4.63
4654,2.63
4666,0.52
4678,-1.8
4690,-4.37
4702,-7.17
4714,-10.21
4726,-13.52
4737,-17.17
4748,-21.29
4760,-25.92
4772,-30.99
4784,-36.19
4796,-41.04
4808,-44.94
4820,-47.24
4832,-47.43
4844,-45.2
4856,-40.62
4868,-34.07
4880,-26.2
4892,-17.76
4904,-9.49
4916,-1.9
4927,4.69
4938,10.17
4950,14.6
4962,18.03
4974,20.56
4986,22.28
4998,23.32
5010,23.86
5022,24.09
5034,24.12
5046,24.03
5058,23.78
5070,23.28
5082,22.47
5094,21.4
5106,20.16
5117,18.92
5128,17.8
5140,16.8
5152,15.85
5164,14.78
5176,13.48
5188,11.9
5200,10.07
5212,8.08
5224,6.02
5236,3.95
5248,1.86
5260,-0.38
5272,-2.85
5284,-5.65
5296,-8.72
5307,-11.9
5318,-14.95
5330,-17.69
5342,-20.07
5354,-22.25
5366,-24.54
5378,-27.33
5390,-30.87
5402,-35.17
5414,-39.89
5426,-44.35
5438,-47.68
5450,-49.03
5462,-47.87
5474,-44.05
5486,-37.93
5497,-30.18
5508,-21.62
5520,-13.05
5532,-5.13
5544,1.68
5556,7.13
5568,11.17
5580,13.95
5592,15.75
5604,16.97
5616,17.97
5628,18.98
5640,20.07
5652,21.22
5664,22.32
5676,23.27
5687,23.97
5698,24.37
5710,24.46
5722,24.27
5734,23.9
5746,23.41
5758,22.82
5770,22.05
5782,20.96
5794,19.41
5806,17.35
5818,14.87
5830,12.19
5842,9.55
5854,7.17
5866,5.12
5877,3.34
5888,1.67
5900,-0.12
5912,-2.25
5924,-4.85
5936,-7.96
5948,-11.46
5960,-15.09
5972,-18.56
5984,-21.64
5996,-24.23
6008,-26.37
6020,-28.24
6032,-30.15
6044,-32.39
6056,-35.23
6067,-38.72
6078,-42.59
6090,-46.18
6102,-48.54
6114,-48.64
6126,-45.75
6138,-39.83
6150,-31.44
6162,-21.73
6174,-11.93
6186,-2.98
6198,4.62
6210,10.84
6222,15.81
6234,19.7
6246,22.51
6257,24.26
6268,25.02
6280,25.05
6292,24.75
6304,24.49
6316,24.47
6328,24.69
6340,25.0
6352,25.25
6364,25.4
6376,25.53
6388,25.82
6400,26.37
6412,27.13
6424,27.84
6436,28.15
6447,27.78
6458,26.59
6470,24.69
6482,22.32
6494,19.72
6506,17.15
6518,14.69
6530,12.33
6542,10.02
6554,7.69
6566,5.26
6578,2.69
6590,-0.0
6602,-2.78
6614,-5.58
6626,-8.39
6637,-11.2
6648,-14.03
6660,-16.9
6672,-19.8
6684,-22.7
6696,-25.61
6708,-28.58
6720,-31.66
6732,-34.82
6744,-37.81
6756,-40.09
6768,-40.88
6780,-39.44
6792,-35.33
6804,-28.63
6816,-19.98
6827,-10.39
6838,-0.97
6850,7.41
6862,14.27
6874,19.53
6886,23.42
6898,26.23
6910,28.2
6922,29.49
6934,30.21
6946,30.47
6958,30.43
6970,30.29
6982,30.18
6994,30.14
7006,30.09
7017,29.87
7028,29.35
7040,28.48
7052,27.32
7064,25.94
7076,24.37
7088,22.52
7100,20.29
7112,17.62
7124,14.59
7136,11.41
7148,8.39
7160,5.71
7172,3.44
7184,1.45
7196,-0.49
7207,-2.6
7218,-4.94
7230,-7.49
7242,-10.13
7254,-12.7
7266,-15.06
7278,-17.2
7290,-19.21
7302,-21.24
7314,-23.53
7326,-26.23
7338,-29.47
7350,-33.14
7362,-36.9
7374,-40.12
7386,-42.02
7397,-41.86
7408,-39.16
7420,-33.98
7432,-26.78
7444,-18.34
7456,-9.54
7468,-1.14
7480,6.32
7492,12.53
7504,17.35
7516,20.79
7528,22.96
7540,24.08
7552,24.42
7564,24.21
7576,23.61
7587,22.73
7598,21.71
7610,20.7
7622,19.87
7634,19.33
7646,19.08
7658,18.99
7670,18.86
7682,18.56
7694,18.02
7706,17.21
7718,16.19
7730,15.03
7742,13.79
7754,12.54
7766,11.29
7777,10.01
7788,8.58
7800,6.77
7812,4.36
7824,1.23
7836,-2.56
7848,-6.8
7860,-11.17
7872,-15.41
7884,-19.4
7896,-23.24
7908,-27.15
7920,-31.4
7932,-36.2
7944,-41.51
7956,-47.09
7967,-52.41
7978,-56.79
7990,-59.53
8002,-59.98
8014,-57.73
8026,-52.73
8038,-45.33
8050,-36.23
8062,-26.34
8074,-16.58
8086,-7.66
8098,-0.02
8110,6.24
8122,11.19
8134,15.02
8146,17.92
8157,20.02
8168,21.39
8180,22.05
8192,22.04
8204,21.4
8216,20.3
8228,18.97
8240,17.73
8252,16.84
8264,16.52
8276,16.79
8288,17.5
8300,18.44
8312,19.29
8324,19.83
8336,19.9
8347,19.41
8358,18.4
8370,16.93
8382,15.19
8394,13.32
8406,11.45
8418,9.62
8430,7.79
8442,5.89
8454,3.81
8466,1.55
8478,-0.86
8490,-3.24
8502,-5.46
8514,-7.46
8526,-9.33
8537,-11.3
8548,-13.64
8560,-16.57
8572,-20.08
8584,-23.89
8596,-27.36
8608,-29.68
8620,-29.99
8632,-27.71
8644,-22.71
8656,-15.41
8668,-6.73
8680,2.25
8692,10.45
8704,17.2
8716,22.23
8727,25.61
8738,27.63
8750,28.56
8762,28.61
8774,27.95
8786,26.72
8798,25.09
8810,23.21
8822,21.2
8834,19.1
8846,16.88
8858,14.46
8870,11.85
8882,9.07
8894,6.24
8906,3.46
8917,0.83
8928,-1.65
8940,-4.08
8952,-6.66
8964,-9.64
8976,-13.19
8988,-17.36
9000,-22.02
9012,-26.88
9024,-31.62
9036,-36.03
9048,-40.06
9060,-43.82
9072,-47.51
9084,-51.28
9096,-55.22
9107,-59.26
9118,-63.17
9130,-66.75
9142,-69.75
9154,-72.04
9166,-73.5
9178,-74.1
9190,-73.74
9202,-72.31
9214,-69.67
9226,-65.68
9238,-60.37
9250,-53.93
9262,-46.65
9274,-38.85
9286,-30.83
9297,-22.79
9308,-14.87
9320,-7.31
9332,-0.32
9344,5.82
9356,10.96
9368,15.09
9380,18.45
9392,21.34
9404,24.11
9416,26.91
9428,29.67
9440,32.08
9452,33.81
9464,34.62
9476,34.48
9487,33.65
9498,32.52
9510,31.51
9522,30.88
9534,30.72
9546,30.94
9558,31.33
9570,31.69
9582,31.78
9594,31.46
9606,30.62
9618,29.22
9630,27.34
9642,25.07
9654,22.59
9666,20.07
9677,17.6
9688,15.23
9700,12.87
9712,10.4
9724,7.73
9736,4.84
9748,1.84
9760,-1.1
9772,-3.77
9784,-6.1
9796,-8.18
9808,-10.26
9820,-12.65
9832,-15.54
9844,-18.8
9856,-21.9
9867,-23.98
9878,-24.07
9890,-21.41
9902,-15.77
9914,-7.56
9926,2.24
9938,12.35
9950,21.57
9962,29.07
9974,34.46
9986,37.85
9998,39.64
10010,40.42
10022,40.8
10034,41.38
10046,42.51
10057,44.13
10068,45.73
10080,46.46
10092,45.45
10104,42.19
10116,36.79
10128,29.95
10140,22.66
10152,15.8
10164,9.87
10176,4.89
10188,0.58
10200,-3.39
10212,-7.24
10224,-11.07
10236,-15.0
10247,-19.22
10258,-23.95
10270,-29.34
10282,-35.29
10294,-41.52
10306,-47.63
10318,-53.36
10330,-58.67
10342,-63.7
10354,-68.68
10366,-73.77
10378,-78.98
10390,-84.22
10402,-89.4
10414,-94.42
10426,-99.05
10437,-102.81
10448,-104.9
10460,-104.26
10472,-99.9
10484,-91.27
10496,-78.52
10508,-62.58
10520,-44.9
10532,-27.18
10544,-11.08
10556,2.09
10568,11.68
10580,17.67
10592,20.68
10604,21.63
10616,21.52
10627,21.27
10638,21.41
10650,22.09
10662,23.12
10674,24.22
10686,25.2
10698,25.98
10710,26.6
10722,27.19
10734,28.11
10746,29.66
10758,32.01
10770,35.1
10782,38.69
10794,42.45
10806,46.03
10817,49.17
10828,51.77
10840,54.45
10852,57.8
10864,61.97
10876,66.52
10888,70.82
10900,74.38
10912,77.04
10924,78.89
10936,80.09
10948,81.87
10960,85.05
10972,89.54
10984,94.22
10996,97.7
11007,98.94
11018,97.37
11030,92.9
11042,85.85
11054,78.75
11066,73.99
11078,72.67
11090,74.23
11102,77.34
11114,80.84
11126,84.12
11138,86.91
11150,89.12
11162,93.11
11174,100.7
11186,112.13
11197,125.94
11208,140.35
11220,154.38
11232,167.91
11244,181.05
11256,179.36
11268,154.35
11280,107.8
11292,51.56
11304,-1.42
11316,-44.01
11328,-74.89
11340,-95.58
11352,-108.43
11364,-115.63
11376,-116.62
11387,-111.18
11398,-100.51
11410,-87.46
11422,-74.99
11434,-65.24
11446,-58.98
11458,-56.08
11470,-55.91
11482,-55.81
11494,-53.89
11506,-49.7
11518,-44.48
11530,-39.99
11542,-37.53
11554,-37.6
11566,-40.34
11577,-45.93
11588,-51.89
11600,-56.64
11612,-59.53
11624,-60.98
11636,-61.8
11648,-62.58
11660,-63.59
11672,-64.93
11684,-66.65
11696,-68.2
11708,-69.34
11720,-70.03
11732,-70.44
11744,-70.61
11756,-70.2
11767,-68.59
11778,-65.23
11790,-59.89
11802,-52.64
11814,-44.13
11826,-35.2
11838,-26.66
11850,-19.0
11862,-12.29
11874,-6.38
11886,-1.07
11898,3.72
11910,7.95
11922,11.51
11934,14.38
11946,16.7
11957,18.62
11968,20.29
11980,21.75
11992,22.95
12004,23.88
12016,24.59
12028,25.2
12040,25.87
12052,26.72
12064,27.75
12076,28.79
12088,29.6
12100,29.92
12112,29.61
12124,28.65
12136,27.05
12147,24.88
12158,22.22
12170,19.17
12182,15.86
12194,12.46
12206,9.04
12218,5.64
12230,2.24
12242,-1.17
12254,-4.49
12266,-7.52
12278,-10.18
12290,-12.55
12302,-14.9
12314,-17.69
12326,-21.15
12337,-25.19
12348,-29.15
12360,-32.06
12372,-32.88
12384,-30.95
12396,-26.17
12408,-19.12
12420,-10.85
12432,-2.51
12444,4.99
12456,11.13
12468,15.84
12480,19.32
12492,21.82
12504,23.54
12516,24.59
12527,25.0
12538,24.88
12550,24.41
12562,23.72
12574,22.88
12586,21.85
12598,20.58
12610,19.1
12622,17.58
12634,16.29
12646,15.48
12658,15.24
12670,15.36
12682,15.53
12694,15.33
12706,14.5
12717,13.01
12728,11.0
12740,8.76
12752,6.54
12764,4.48
12776,2.59
12788,0.72
12800,-1.27
12812,-3.57
12824,-6.27
12836,-9.36
12848,-12.71
12860,-16.11
12872,-19.34
12884,-22.33
12896,-25.17
12907,-28.12
12918,-31.48
12930,-35.42
12942,-39.79
12954,-44.04
12966,-47.33
12978,-48.76
12990,-47.63
13002,-43.69
13014,-37.22
13026,-28.97
13038,-19.98
13050,-11.21
13062,-3.43
13074,2.99
13086,8.07
13097,12.02
13108,15.09
13120,17.47
13132,19.21
13144,20.33
13156,20.89
13168,20.97
13180,20.76
13192,20.42
13204,20.06
13216,19.74
13228,19.46
13240,19.2
13252,18.94
13264,18.71
13276,18.49
13287,18.24
13298,17.86
13310,17.21
13322,16.18
13334,14.78
13346,13.09
13358,11.29
13370,9.52
13382,7.86
13394,6.28
13406,4.67
13418,2.89
13430,0.84
13442,-1.52
13454,-4.17
13466,-7.03
13477,-9.94
13488,-12.69
13500,-15.05
13512,-16.84
13524,-18.08
13536,-18.96
13548,-19.87
13560,-21.22
13572,-23.32
13584,-26.23
13596,-29.57
13608,-32.57
13620,-34.26
13632,-33.79
13644,-30.71
13656,-25.23
13667,-18.12
13678,-10.49
13690,-3.4
13702,2.46
13714,6.83
13726,9.83
13738,11.74
13750,12.76
13762,13.04
13774,12.63
13786,11.59
13798,10.05
13810,8.2
13822,6.21
13834,4.18
13846,2.16
13857,0.18
13868,-1.71
13880,-3.42
13892,-4.81
13904,-5.77
13916,-6.24
13928,-6.3
13940,-6.12
13952,-5.88
13964,-5.76
13976,-5.95
13988,-6.67
14000,-8.11
14012,-10.42
14024,-13.56
14036,-17.26
14047,-21.09
14058,-24.62
14070,-27.63
14082,-30.23
14094,-32.82
14106,-35.9
14118,-39.84
14130,-44.7
14142,-50.25
14154,-56.07
14166,-61.76
14178,-67.1
14190,-72.12
14202,-77.06
14214,-82.22
14226,-87.84
14237,-94.0
14248,-100.6
14260,-107.34
14272,-113.76
14284,-119.27
14296,-123.1
14308,-124.34
14320,-122.05
14332,-115.56
14344,-104.69
14356,-90.0
14368,-72.69
14380,-54.3
14392,-36.25
14404,-19.53
14416,-4.64
14427,8.17
14438,18.69
14450,26.53
14462,31.36
14474,33.12
14486,32.21
14498,29.55
14510,26.17
14522,22.93
14534,20.35
14546,18.64
14558,17.85
14570,18.1
14582,19.56
14594,22.25
14606,25.88
14617,29.8
14628,33.07
14640,34.85
14652,34.62
14664,32.47
14676,28.99
14688,25.05
14700,21.48
14712,18.74
14724,16.9
14736,15.71
14748,14.79
14760,13.84
14772,12.71
14784,11.31
14796,9.55
14807,7.29
14818,4.45
14830,1.18
14842,-2.22
14854,-5.28
14866,-7.68
14878,-9.34
14890,-10.5
14902,-11.69
14914,-13.49
14926,-16.38
14938,-20.47
14950,-25.42
14962,-30.42
14974,-34.41
14986,-36.28
14997,-35.22
15008,-30.97
15020,-23.87
15032,-14.81
15044,-4.92
15056,4.67
15068,13.18
15080,20.28
15092,25.99
15104,30.62
15116,34.44
15128,37.66
15140,40.3
15152,42.29
15164,43.56
15176,44.13
15187,44.1
15198,43.63
15210,42.88
15222,41.94
15234,40.95
15246,40.05
15258,39.38
15270,39.01
15282,38.86
15294,38.68
15306,38.15
15318,37.05
15330,35.35
15342,33.28
15354,31.22
15366,29.51
15377,28.27
15388,27.36
15400,26.38
15412,24.91
15424,22.77
15436,20.12
15448,17.47
15460,15.38
15472,14.25
15484,14.09
15496,14.52
15508,14.95
15520,14.75
15532,13.45
15544,10.81
15556,6.86
15567,1.92
15578,-3.36
15590,-8.02
15602,-11.03
15614,-11.56
15626,-9.26
15638,-4.52
15650,1.7
15662,8.2
15674,13.96
15686,18.46
15698,21.76
15710,24.34
15722,26.76
15734,29.47
15746,32.66
15757,36.24
15768,40.01
15780,43.73
15792,47.19
15804,50.25
15816,52.78
15828,54.71
15840,56.0
15852,56.64
15864,56.74
15876,56.49
15888,56.05
15900,55.43
15912,54.5
15924,52.98
15936,50.58
15947,47.12
15958,42.65
15970,37.38
15982,31.59
15994,25.61
16006,19.71
16018,14.12
16030,8.93
16042,4.17
16054,-0.23
16066,-4.39
16078,-8.52
16090,-12.83
16102,-17.54
16114,-22.91
16126,-29.09
16137,-36.09
16148,-43.69
16160,-51.35
16172,-58.31
16184,-63.67
16196,-66.69
16208,-66.93
16220,-64.39
16232,-59.52
16244,-53.08
16256,-45.9
16268,-38.7
16280,-32.04
16292,-26.25
16304,-21.47
16316,-17.66
16327,-14.69
16338,-12.29
16350,-10.11
16362,-7.86
16374,-5.35
16386,-2.64
16398,0.07
16410,2.49
16422,4.43
16434,5.81
16446,6.76
16458,7.45
16470,8.01
16482,8.45
16494,8.66
16506,8.48
16517,7.8
16528,6.64
16540,5.1
16552,3.34
16564,1.42
16576,-0.75
16588,-3.37
16600,-6.67
16612,-10.68
16624,-15.18
16636,-19.69
16648,-23.71
16660,-26.92
16672,-29.38
16684,-31.52
16696,-33.91
16707,-37.01
16718,-41.0
16730,-45.69
16742,-50.56
16754,-54.85
16766,-57.71
16778,-58.33
16790,-56.12
16802,-50.85
16814,-42.8
16826,-32.77
16838,-21.8
16850,-10.99
16862,-1.17
16874,7.23
16886,14.1
16897,19.61
16908,23.91
16920,27.14
16932,29.41
16944,30.87
16956,31.72
16968,32.2
16980,32.54
16992,32.82
17004,33.05
17016,33.17
17028,33.12
17040,32.95
17052,32.72
17064,32.5
17076,32.3
17087,32.06
17098,31.67
17110,31.04
17122,30.1
17134,28.79
17146,27.08
17158,24.89
17170,22.17
17182,18.9
17194,15.14
17206,11.09
17218,6.97
17230,3.01
17242,-0.68
17254,-4.13
17266,-7.47
17277,-10.87
17288,-14.5
17300,-18.45
17312,-22.84
17324,-27.78
17336,-33.24
17348,-38.93
17360,-44.19
17372,-47.99
17384,-49.24
17396,-47.13
17408,-41.49
17420,-32.91
17432,-22.5
17444,-11.61
17456,-1.34
17467,7.61
17478,15.03
17490,21.01
17502,25.73
17514,29.39
17526,32.15
17538,34.13
17550,35.48
17562,36.33
17574,36.82
17586,37.05
17598,37.16
17610,37.25
17622,37.44
17634,37.83
17646,38.49
17657,39.41
17668,40.55
17680,41.78
17692,42.89
17704,43.6
17716,43.6
17728,42.66
17740,40.68
17752,37.84
17764,34.43
17776,30.82
17788,27.25
17800,23.77
17812,20.29
17824,16.72
17836,13.04
17847,9.34
17858,5.78
17870,2.38
17882,-0.95
17894,-4.51
17906,-8.59
17918,-13.4
17930,-18.98
17942,-25.13
17954,-31.45
17966,-37.33
17978,-42.04
17990,-44.8
18002,-45.0
18014,-42.31
18026,-36.9
18037,-29.41
18048,-20.8
18060,-12.14
18072,-4.28
18084,2.28
18096,7.4
18108,11.25
18120,14.03
18132,15.96
18144,17.19
18156,17.84
18168,18.07
18180,18.02
18192,17.84
18204,17.67
18216,17.53
18227,17.39
18238,17.26
18250,17.14
18262,17.04
18274,16.95
18286,16.76
18298,16.37
18310,15.62
18322,14.46
18334,12.89
18346,11.04
18358,9.05
18370,7.07
18382,5.17
18394,3.3
18406,1.3
18417,-1.04
18428,-3.84
18440,-7.14
18452,-10.74
18464,-14.33
18476,-17.58
18488,-20.3
18500,-22.55
18512,-24.59
18524,-26.82
18536,-29.59
18548,-33.1
18560,-37.28
18572,-41.77
18584,-45.95
18596,-48.98
18607,-50.02
18618,-48.39
18630,-43.86
18642,-36.77
18654,-27.99
18666,-18.64
18678,-9.72
18690,-1.87
18702,4.75
18714,10.27
18726,14.92
18738,18.86
18750,22.1
18762,24.61
18774,26.44
18786,27.73
18797,28.63
18808,29.2
18820,29.39
18832,29.08
18844,28.18
18856,26.83
18868,25.37
18880,24.2
18892,23.65
18904,23.8
18916,24.43
18928,25.11
18940,25.38
18952,24.98
18964,23.87
18976,22.24
18987,20.36
18998,18.41
19010,16.45
19022,14.43
19034,12.28
19046,10.01
19058,7.67
19070,5.32
19082,2.96
19094,0.49
19106,-2.2
19118,-5.19
19130,-8.43
19142,-11.79
19154,-15.04
19166,-17.98
19177,-20.52
19188,-22.67
19200,-24.54
19212,-26.38
19224,-28.5
19236,-31.18
19248,-34.64
19260,-38.84
19272,-43.44
19284,-47.74
19296,-50.79
19308,-51.64
19320,-49.66
19332,-44.71
19344,-37.26
19356,-28.22
19367,-18.69
19378,-9.63
19390,-1.68
19402,4.88
19414,10.05
19426,14.01
19438,16.98
19450,19.21
19462,20.93
19474,22.33
19486,23.5
19498,24.42
19510,25.06
19522,25.35
19534,25.32
19546,25.08
19557,24.76
19568,24.48
19580,24.36
19592,24.47
19604,24.85
19616,25.53
19628,26.43
19640,27.28
19652,27.76
19664,27.51
19676,26.33
19688,24.29
19700,21.69
19712,18.89
19724,16.16
19736,13.55
19747,10.98
19758,8.26
19770,5.31
19782,2.19
19794,-0.88
19806,-3.68
19818,-6.14
19830,-8.32
19842,-10.42
19854,-12.6
19866,-14.93
19878,-17.37
19890,-19.82
19902,-22.17
19914,-24.45
19926,-26.77
19937,-29.35
19948,-32.32
19960,-35.69
19972,-39.41
19984,-43.47
19996,-47.9
20008,-52.6
20020,-57.39
20032,-61.94
20044,-65.73
20056,-68.03
20068,-68.09
20080,-65.6
20092,-60.76
20104,-54.46
20116,-47.5
20127,-40.65
20138,-34.54
20150,-29.53
20162,-25.42
20174,-21.78
20186,-18.38
20198,-15.33
20210,-13.18
20222,-11.75
20234,-10.58
20246,-9.28
20258,-7.6
20270,-5.14
20282,-1.73
20294,2.11
20306,5.32
20317,6.22
20328,4.52
20340,0.76
20352,-4.06
20364,-8.4
20376,-9.72
20388,-5.29
20400,6.5
20412,25.44
20424,48.97
20436,74.78
20448,100.61
20460,124.44
20472,139.85
20484,141.2
20496,127.53
20507,103.39
20518,79.62
20530,57.76
20542,37.94
20554,20.58
20566,5.35
20578,-7.13
20590,-16.25
20602,-22.29
20614,-26.82
20626,-32.17
20638,-40.48
20650,-50.63
20662,-59.3
20674,-63.37
20686,-61.76
20697,-55.19
20708,-45.2
20720,-34.26
20732,-22.42
20744,-10.31
20756,1.95
20768,13.78
20780,24.04
20792,31.58
20804,35.28
20816,35.26
20828,32.89
20840,30.04
20852,27.82
20864,27.26
20876,28.55
20887,31.05
20898,33.38
20910,34.27
20922,32.04
20934,26.55
20946,19.66
20958,13.77
20970,10.5
20982,9.44
20994,8.69
