seconds,BVP
11,5.95
23,6.22
35,6.15
47,5.81
59,5.24
71,4.53
83,3.77
95,3.06
107,2.48
119,2.16
130,2.11
141,2.23
153,2.37
165,2.34
177,2.07
189,1.62
201,1.13
213,0.75
225,0.55
237,0.48
249,0.39
261,0.12
273,-0.42
285,-1.22
297,-2.17
309,-3.14
320,-3.99
331,-4.64
343,-5.08
355,-5.35
367,-5.58
379,-5.92
391,-6.52
403,-7.42
415,-8.6
427,-9.9
439,-11.09
451,-11.94
463,-12.21
475,-11.8
487,-10.71
499,-9.07
510,-7.07
521,-5.0
533,-3.11
545,-1.57
557,-0.46
569,0.26
581,0.74
593,1.13
605,1.6
617,2.24
629,3.03
641,3.82
653,4.45
665,4.78
677,4.81
689,4.67
700,4.54
711,4.62
723,4.96
735,5.48
747,6.06
759,6.56
771,6.93
783,7.15
795,7.21
807,7.07
819,6.64
831,5.88
843,4.82
855,3.63
867,2.55
879,1.75
890,1.31
901,1.16
913,1.13
925,1.02
937,0.74
949,0.28
961,-0.23
973,-0.66
985,-0.94
997,-1.04
1009,-1.09
1021,-1.19
1033,-1.42
1045,-1.76
1057,-2.18
1069,-2.63
1080,-3.1
1091,-3.66
1103,-4.34
1115,-5.21
1127,-6.24
1139,-7.4
1151,-8.57
1163,-9.66
1175,-10.5
1187,-10.96
1199,-10.89
1211,-10.22
1223,-8.95
1235,-7.21
1247,-5.21
1259,-3.21
1270,-1.44
1281,-0.05
1293,0.91
1305,1.47
1317,1.76
1329,1.9
1341,1.99
1353,2.06
1365,2.07
1377,1.96
1389,1.71
1401,1.39
1413,1.13
1425,1.08
1437,1.33
1449,1.86
1460,2.59
1471,3.44
1483,4.31
1495,5.13
1507,5.83
1519,6.28
1531,6.43
1543,6.25
1555,5.84
1567,5.33
1579,4.91
1591,4.63
1603,4.49
1615,4.38
1627,4.18
1639,3.82
1650,3.3
1661,2.64
1673,1.84
1685,0.96
1697,0.05
1709,-0.76
1721,-1.38
1733,-1.76
1745,-1.98
1757,-2.2
1769,-2.59
1781,-3.25
1793,-4.15
1805,-5.14
1817,-6.05
1829,-6.76
1840,-7.24
1851,-7.59
1863,-7.93
1875,-8.41
1887,-9.05
1899,-9.81
1911,-10.51
1923,-10.9
1935,-10.75
1947,-9.91
1959,-8.41
1971,-6.44
1983,-4.33
1995,-2.38
2007,-0.79
2019,0.39
2030,1.21
2041,1.75
2053,2.08
2065,2.23
2077,2.2
2089,2.05
2101,1.87
2113,1.74
2125,1.73
2137,1.86
2149,2.11
2161,2.47
2173,2.95
2185,3.55
2197,4.29
2209,5.09
2220,5.83
2231,6.32
2243,6.4
2255,6.04
2267,5.29
2279,4.35
2291,3.47
2303,2.84
2315,2.52
2327,2.42
2339,2.35
2351,2.14
2363,1.73
2375,1.22
2387,0.76
2399,0.51
2410,0.49
2421,0.62
2433,0.72
2445,0.65
2457,0.37
2469,-0.07
2481,-0.6
2493,-1.18
2505,-1.83
2517,-2.62
2529,-3.56
2541,-4.61
2553,-5.63
2565,-6.5
2577,-7.16
2589,-7.68
2600,-8.18
2611,-8.8
2623,-9.56
2635,-10.35
2647,-10.93
2659,-11.05
2671,-10.48
2683,-9.23
2695,-7.46
2707,-5.52
2719,-3.75
2731,-2.4
2743,-1.52
2755,-0.97
2767,-0.52
2779,0.01
2790,0.68
2801,1.48
2813,2.32
2825,3.11
2837,3.83
2849,4.44
2861,4.93
2873,5.26
2885,5.4
2897,5.36
2909,5.19
2921,4.99
2933,4.84
2945,4.77
2957,4.78
2969,4.84
2980,4.94
2991,5.04
3003,5.16
3015,5.28
3027,5.38
3039,5.4
3051,5.31
3063,5.04
3075,4.58
3087,3.92
3099,3.1
3111,2.18
3123,1.22
3135,0.31
3147,-0.52
3159,-1.23
3170,-1.83
3181,-2.35
3193,-2.85
3205,-3.39
3217,-3.97
3229,-4.61
3241,-5.22
3253,-5.76
3265,-6.17
3277,-6.45
3289,-6.66
3301,-6.95
3313,-7.41
3325,-8.1
3337,-8.93
3349,-9.67
3360,-10.04
3371,-9.8
3383,-8.84
3395,-7.26
3407,-5.33
3419,-3.39
3431,-1.75
3443,-0.59
3455,0.1
3467,0.49
3479,0.8
3491,1.21
3503,1.8
3515,2.54
3527,3.33
3539,4.0
3550,4.49
3561,4.79
3573,4.96
3585,5.09
3597,5.28
3609,5.52
3621,5.85
3633,6.25
3645,6.71
3657,7.2
3669,7.64
3681,7.92
3693,7.96
3705,7.69
3717,7.09
3729,6.25
3740,5.31
3751,4.43
3763,3.74
3775,3.33
3787,3.17
3799,3.16
3811,3.15
3823,3.03
3835,2.72
3847,2.21
3859,1.58
3871,0.99
3883,0.53
3895,0.27
3907,0.17
3919,0.15
3930,0.1
3941,-0.06
3953,-0.34
3965,-0.68
3977,-1.06
3989,-1.43
4001,-1.85
4013,-2.36
4025,-3.04
4037,-3.94
4049,-5.05
4061,-6.26
4073,-7.46
4085,-8.47
4097,-9.08
4109,-9.11
4120,-8.43
4131,-7.09
4143,-5.22
4155,-3.09
4167,-0.97
4179,0.87
4191,2.31
4203,3.31
4215,3.97
4227,4.41
4239,4.7
4251,4.87
4263,4.9
4275,4.8
4287,4.6
4299,4.37
4310,4.18
4321,4.06
4333,4.04
4345,4.11
4357,4.31
4369,4.68
4381,5.21
4393,5.86
4405,6.55
4417,7.15
4429,7.53
4441,7.62
4453,7.39
4465,6.88
4477,6.17
4489,5.38
4500,4.66
4511,4.14
4523,3.9
4535,3.9
4547,4.01
4559,4.03
4571,3.84
4583,3.44
4595,2.93
4607,2.46
4619,2.1
4631,1.82
4643,1.49
4655,0.99
4667,0.32
4679,-0.44
4690,-1.14
4701,-1.68
4713,-2.05
4725,-2.38
4737,-2.84
4749,-3.53
4761,-4.43
4773,-5.42
4785,-6.35
4797,-7.07
4809,-7.57
4821,-7.9
4833,-8.1
4845,-8.2
4857,-8.08
4869,-7.61
4880,-6.69
4891,-5.35
4903,-3.75
4915,-2.15
4927,-0.75
4939,0.29
4951,0.99
4963,1.43
4975,1.71
4987,1.97
4999,2.28
5011,2.68
5023,3.21
5035,3.82
5047,4.47
5059,5.08
5070,5.55
5081,5.8
5093,5.87
5105,5.79
5117,5.65
5129,5.51
5141,5.37
5153,5.2
5165,4.94
5177,4.6
5189,4.17
5201,3.69
5213,3.16
5225,2.58
5237,1.91
5249,1.14
5260,0.34
5271,-0.38
5283,-0.84
5295,-0.99
5307,-0.84
5319,-0.48
5331,-0.09
5343,0.25
5355,0.47
5367,0.55
5379,0.53
5391,0.35
5403,-0.03
5415,-0.61
5427,-1.33
5439,-2.09
5450,-2.79
5461,-3.37
5473,-3.88
5485,-4.41
5497,-5.03
5509,-5.76
5521,-6.52
5533,-7.21
5545,-7.75
5557,-8.02
5569,-7.95
5581,-7.47
5593,-6.59
5605,-5.38
5617,-3.98
5629,-2.57
5640,-1.38
5651,-0.49
5663,0.09
5675,0.43
5687,0.63
5699,0.75
5711,0.82
5723,0.85
5735,0.85
5747,0.8
5759,0.76
5771,0.77
5783,0.88
5795,1.13
5807,1.51
5819,1.97
5830,2.41
5841,2.75
5853,2.98
5865,3.14
5877,3.32
5889,3.56
5901,3.84
5913,4.08
5925,4.21
5937,4.17
5949,3.98
5961,3.71
5973,3.43
5985,3.19
5997,3.02
6009,2.98
6020,3.02
6031,3.1
6043,3.13
6055,2.99
6067,2.63
6079,2.05
6091,1.34
6103,0.59
6115,-0.13
6127,-0.82
6139,-1.54
6151,-2.31
6163,-3.11
6175,-3.91
6187,-4.64
6199,-5.25
6210,-5.75
6221,-6.17
6233,-6.51
6245,-6.76
6257,-6.94
6269,-7.03
6281,-7.09
6293,-7.17
6305,-7.32
6317,-7.49
6329,-7.63
6341,-7.61
6353,-7.27
6365,-6.51
6377,-5.31
6389,-3.73
6400,-1.95
6411,-0.18
6423,1.37
6435,2.55
6447,3.3
6459,3.6
6471,3.5
6483,3.14
6495,2.63
6507,2.12
6519,1.73
6531,1.52
6543,1.49
6555,1.57
6567,1.73
6579,1.93
6590,2.18
6601,2.47
6613,2.79
6625,3.11
6637,3.38
6649,3.58
6661,3.73
6673,3.84
6685,3.84
6697,3.67
6709,3.23
6721,2.52
6733,1.65
6745,0.78
6757,0.11
6769,-0.28
6780,-0.46
6791,-0.59
6803,-0.82
6815,-1.17
6827,-1.5
6839,-1.63
6851,-1.39
6863,-0.8
6875,-0.08
6887,0.47
6899,0.64
6911,0.36
6923,-0.23
6935,-0.88
6947,-1.41
6959,-1.73
6970,-1.91
6981,-2.06
6993,-2.26
7005,-2.52
7017,-2.78
7029,-3.03
7041,-3.31
7053,-3.71
7065,-4.34
7077,-5.22
7089,-6.2
7101,-7.03
7113,-7.4
7125,-7.09
7137,-6.08
7149,-4.55
7160,-2.82
7171,-1.24
7183,-0.07
7195,0.63
7207,0.96
7219,1.11
7231,1.3
7243,1.64
7255,2.12
7267,2.65
7279,3.05
7291,3.23
7303,3.17
7315,2.95
7327,2.72
7339,2.63
7350,2.73
7361,3.0
7373,3.34
7385,3.67
7397,3.93
7409,4.12
7421,4.22
7433,4.22
7445,4.11
7457,3.85
7469,3.49
7481,3.07
7493,2.68
7505,2.37
7517,2.17
7529,2.04
7540,1.92
7551,1.75
7563,1.51
7575,1.15
7587,0.69
7599,0.13
7611,-0.46
7623,-1.04
7635,-1.5
7647,-1.85
7659,-2.09
7671,-2.31
7683,-2.57
7695,-2.9
7707,-3.28
7719,-3.65
7730,-4.01
7741,-4.35
7753,-4.66
7765,-4.94
7777,-5.09
7789,-5.07
7801,-4.91
7813,-4.7
7825,-4.55
7837,-4.53
7849,-4.55
7861,-4.41
7873,-3.94
7885,-3.08
7897,-2.0
7909,-0.93
7920,-0.11
7931,0.33
7943,0.48
7955,0.48
7967,0.48
7979,0.54
7991,0.7
8003,0.93
8015,1.25
8027,1.66
8039,2.12
8051,2.57
8063,2.93
8075,3.2
8087,3.42
8099,3.66
8110,3.95
8121,4.23
8133,4.4
8145,4.36
8157,4.07
8169,3.62
8181,3.16
8193,2.85
8205,2.75
8217,2.85
8229,3.02
8241,3.11
8253,2.99
8265,2.63
8277,2.09
8289,1.49
8300,0.94
8311,0.51
8323,0.16
8335,-0.21
8347,-0.66
8359,-1.19
8371,-1.71
8383,-2.1
8395,-2.26
8407,-2.2
8419,-2.03
8431,-1.91
8443,-1.99
8455,-2.29
8467,-2.77
8479,-3.31
8490,-3.82
8501,-4.22
8513,-4.5
8525,-4.7
8537,-4.86
8549,-5.06
8561,-5.3
8573,-5.53
8585,-5.67
8597,-5.57
8609,-5.13
8621,-4.33
8633,-3.23
8645,-1.99
8657,-0.79
8669,0.25
8680,1.08
8691,1.71
8703,2.22
8715,2.63
8727,2.93
8739,3.06
8751,2.97
8763,2.67
8775,2.22
8787,1.72
8799,1.29
8811,0.99
8823,0.77
8835,0.59
8847,0.38
8859,0.18
8870,0.07
8881,0.18
8893,0.59
8905,1.35
8917,2.38
8929,3.48
8941,4.45
8953,5.12
8965,5.37
8977,5.21
8989,4.76
9001,4.16
9013,3.55
9025,2.99
9037,2.48
9049,1.96
9060,1.37
9071,0.71
9083,0.04
9095,-0.55
9107,-0.97
9119,-1.19
9131,-1.26
9143,-1.23
9155,-1.18
9167,-1.17
9179,-1.21
9191,-1.3
9203,-1.43
9215,-1.62
9227,-1.92
9239,-2.37
9250,-3.05
9261,-3.92
9273,-4.93
9285,-6.01
9297,-7.03
9309,-7.91
9321,-8.52
9333,-8.71
9345,-8.33
9357,-7.29
9369,-5.68
9381,-3.68
9393,-1.63
9405,0.21
9417,1.68
9429,2.78
9440,3.64
9451,4.34
9463,4.9
9475,5.21
9487,5.15
9499,4.66
9511,3.87
9523,2.94
9535,2.12
9547,1.56
9559,1.35
9571,1.46
9583,1.86
9595,2.46
9607,3.16
9619,3.89
9630,4.53
9641,5.04
9653,5.39
9665,5.53
9677,5.43
9689,5.06
9701,4.44
9713,3.64
9725,2.84
9737,2.25
9749,2.01
9761,2.14
9773,2.49
9785,2.86
9797,3.11
9809,3.19
9820,3.16
9831,3.11
9843,3.07
9855,3.01
9867,2.85
9879,2.54
9891,2.12
9903,1.63
9915,1.08
9927,0.48
9939,-0.2
9951,-0.98
9963,-1.82
9975,-2.65
9987,-3.48
9999,-4.31
10010,-5.22
10021,-6.25
10033,-7.34
10045,-8.35
10057,-9.04
10069,-9.21
10081,-8.74
10093,-7.69
10105,-6.22
10117,-4.59
10129,-3.04
10141,-1.73
10153,-0.75
10165,-0.1
10177,0.32
10189,0.56
10200,0.68
10211,0.68
10223,0.56
10235,0.32
10247,-0.01
10259,-0.37
10271,-0.7
10283,-0.93
10295,-1.02
10307,-0.94
10319,-0.72
10331,-0.36
10343,0.08
10355,0.59
10367,1.13
10379,1.66
10390,2.15
10401,2.52
10413,2.73
10425,2.72
10437,2.53
10449,2.23
10461,1.93
10473,1.71
10485,1.56
10497,1.45
10509,1.29
10521,1.01
10533,0.67
10545,0.32
10557,0.0
10569,-0.3
10580,-0.68
10591,-1.24
10603,-1.97
10615,-2.79
10627,-3.55
10639,-4.12
10651,-4.51
10663,-4.75
10675,-4.94
10687,-5.06
10699,-5.03
10711,-4.81
10723,-4.45
10735,-4.11
10747,-3.99
10759,-4.19
10770,-4.61
10781,-4.97
10793,-4.96
10805,-4.41
10817,-3.33
10829,-1.95
10841,-0.57
10853,0.61
10865,1.49
10877,2.14
10889,2.68
10901,3.2
10913,3.67
10925,4.07
10937,4.33
10949,4.45
10960,4.49
10971,4.52
10983,4.57
10995,4.62
11007,4.6
11019,4.46
11031,4.23
11043,3.98
11055,3.81
11067,3.78
11079,3.9
11091,4.08
11103,4.23
11115,4.27
11127,4.19
11139,3.99
11150,3.69
11161,3.3
11173,2.84
11185,2.35
11197,1.87
11209,1.43
11221,1.04
11233,0.69
11245,0.35
11257,-0.0
11269,-0.4
11281,-0.87
11293,-1.42
11305,-2.04
11317,-2.71
11329,-3.32
11340,-3.77
11351,-3.98
11363,-3.91
11375,-3.62
11387,-3.22
11399,-2.9
11411,-2.78
11423,-2.93
11435,-3.37
11447,-4.05
11459,-4.89
11471,-5.75
11483,-6.49
11495,-6.95
11507,-6.98
11519,-6.48
11530,-5.42
11541,-3.87
11553,-2.01
11565,-0.12
11577,1.58
11589,2.9
11601,3.79
11613,4.34
11625,4.72
11637,5.11
11649,5.65
11661,6.33
11673,7.07
11685,7.72
11697,8.16
11709,8.36
11720,8.44
11731,8.51
11743,8.7
11755,8.98
11767,9.21
11779,9.16
11791,8.68
11803,7.79
11815,6.61
11827,5.39
11839,4.27
11851,3.3
11863,2.37
11875,1.33
11887,0.12
11899,-1.19
11910,-2.45
11921,-3.53
11933,-4.38
11945,-5.08
11957,-5.75
11969,-6.47
11981,-7.24
11993,-7.99
12005,-8.61
12017,-9.08
12029,-9.44
12041,-9.75
12053,-10.04
12065,-10.27
12077,-10.3
12089,-10.07
12100,-9.61
12111,-9.14
12123,-8.91
12135,-9.15
12147,-9.96
12159,-11.15
12171,-12.41
12183,-13.29
12195,-13.47
12207,-12.81
12219,-11.42
12231,-9.58
12243,-7.65
12255,-5.92
12267,-4.56
12279,-3.58
12290,-2.87
12301,-2.3
12313,-1.78
12325,-1.29
12337,-0.87
12349,-0.55
12361,-0.39
12373,-0.38
12385,-0.53
12397,-0.82
12409,-1.19
12421,-1.59
12433,-1.9
12445,-2.02
12457,-1.8
12469,-1.22
12480,-0.36
12491,0.6
12503,1.45
12515,2.06
12527,2.39
12539,2.55
12551,2.67
12563,2.83
12575,3.0
12587,3.09
12599,3.01
12611,2.74
12623,2.39
12635,2.06
12647,1.84
12659,1.72
12670,1.62
12681,1.41
12693,1.04
12705,0.53
12717,-0.02
12729,-0.5
12741,-0.84
12753,-1.05
12765,-1.23
12777,-1.49
12789,-1.96
12801,-2.68
12813,-3.57
12825,-4.47
12837,-5.13
12849,-5.3
12860,-4.83
12871,-3.73
12883,-2.15
12895,-0.34
12907,1.45
12919,3.01
12931,4.22
12943,5.11
12955,5.76
12967,6.3
12979,6.8
12991,7.31
13003,7.81
13015,8.27
13027,8.69
13039,9.07
13050,9.46
13061,9.89
13073,10.36
13085,10.84
13097,11.3
13109,11.72
13121,12.1
13133,12.5
13145,12.94
13157,13.45
13169,13.97
13181,14.42
13193,14.69
13205,14.68
13217,14.37
13229,13.77
13240,13.0
13251,12.18
13263,11.42
13275,10.79
13287,10.33
13299,10.03
13311,9.88
13323,9.87
13335,9.98
13347,10.11
13359,10.14
13371,9.9
13383,9.33
13395,8.48
13407,7.52
13419,6.67
13430,6.09
13441,5.8
13453,5.64
13465,5.44
13477,4.99
13489,4.24
13501,3.23
13513,2.18
13525,1.33
13537,0.95
13549,1.17
13561,1.96
13573,3.12
13585,4.37
13597,5.4
13609,6.05
13620,6.36
13631,6.49
13643,6.67
13655,7.02
13667,7.47
13679,7.85
13691,7.93
13703,7.52
13715,6.57
13727,5.1
13739,3.2
13751,0.98
13763,-1.44
13775,-3.96
13787,-6.41
13799,-8.65
13810,-10.53
13821,-11.95
13833,-12.86
13845,-13.29
13857,-13.25
13869,-12.82
13881,-12.11
13893,-11.26
13905,-10.41
13917,-9.7
13929,-9.18
13941,-8.9
13953,-8.88
13965,-9.14
13977,-9.7
13989,-10.53
14000,-11.52
14011,-12.52
14023,-13.39
14035,-13.99
14047,-14.31
14059,-14.43
14071,-14.44
14083,-14.42
14095,-14.45
14107,-14.61
14119,-14.94
14131,-15.48
14143,-16.19
14155,-16.96
14167,-17.71
14179,-18.27
14190,-18.57
14201,-18.54
14213,-18.14
14225,-17.34
14237,-16.18
14249,-14.7
14261,-13.02
14273,-11.32
14285,-9.76
14297,-8.46
14309,-7.39
14321,-6.45
14333,-5.44
14345,-4.23
14357,-2.78
14369,-1.17
14380,0.43
14391,1.9
14403,3.19
14415,4.37
14427,5.5
14439,6.67
14451,7.89
14463,9.14
14475,10.39
14487,11.61
14499,12.83
14511,14.03
14523,15.27
14535,16.58
14547,17.97
14559,19.41
14570,20.79
14581,21.94
14593,22.73
14605,23.08
14617,23.05
14629,22.81
14641,22.52
14653,22.25
14665,21.89
14677,21.22
14689,20.04
14701,18.32
14713,16.24
14725,14.08
14737,12.13
14749,10.52
14760,9.19
14771,7.95
14783,6.63
14795,5.16
14807,3.6
14819,2.08
14831,0.78
14843,-0.19
14855,-0.81
14867,-1.11
14879,-1.21
14891,-1.28
14903,-1.54
14915,-2.22
14927,-3.42
14939,-5.13
14950,-7.16
14961,-9.25
14973,-11.11
14985,-12.57
14997,-13.55
15009,-14.1
15021,-14.3
15033,-14.25
15045,-14.02
15057,-13.64
15069,-13.14
15081,-12.48
15093,-11.63
15105,-10.62
15117,-9.5
15129,-8.44
15140,-7.64
15151,-7.26
15163,-7.42
15175,-8.14
15187,-9.32
15199,-10.77
15211,-12.32
15223,-13.75
15235,-14.9
15247,-15.66
15259,-16.02
15271,-16.03
15283,-15.78
15295,-15.35
15307,-14.77
15319,-13.99
15330,-12.96
15341,-11.65
15353,-10.13
15365,-8.53
15377,-7.0
15389,-5.59
15401,-4.22
15413,-2.65
15425,-0.62
15437,2.0
15449,5.1
15461,8.37
15473,11.41
15485,13.89
15497,15.68
15509,16.9
15520,17.87
15531,18.92
15543,20.24
15555,21.86
15567,23.6
15579,25.23
15591,26.61
15603,27.75
15615,28.79
15627,29.97
15639,31.5
15651,33.49
15663,35.97
15675,38.89
15687,42.11
15699,45.36
15710,48.13
15721,49.74
15733,49.51
15745,47.1
15757,42.73
15769,37.33
15781,32.09
15793,27.99
15805,25.32
15817,23.64
15829,22.0
15841,19.55
15853,15.98
15865,11.57
15877,7.02
15889,2.95
15900,-0.36
15911,-3.03
15923,-5.32
15935,-7.44
15947,-9.37
15959,-10.99
15971,-12.24
15983,-13.2
15995,-14.14
16007,-15.3
16019,-16.78
16031,-18.42
16043,-19.85
16055,-20.6
16067,-20.35
16079,-18.97
16090,-16.6
16101,-13.57
16113,-10.31
16125,-7.24
16137,-4.73
16149,-3.08
16161,-2.43
16173,-2.81
16185,-4.18
16197,-6.44
16209,-9.45
16221,-13.09
16233,-17.17
16245,-21.45
16257,-25.59
16269,-29.2
16280,-31.95
16291,-33.68
16303,-34.44
16315,-34.44
16327,-33.94
16339,-33.13
16351,-32.09
16363,-30.77
16375,-29.11
16387,-27.08
16399,-24.72
16411,-22.14
16423,-19.5
16435,-16.94
16447,-14.61
16459,-12.58
16470,-10.85
16481,-9.36
16493,-7.97
16505,-6.56
16517,-5.04
16529,-3.45
16541,-1.87
16553,-0.43
16565,0.86
16577,2.19
16589,3.81
16601,5.94
16613,8.55
16625,11.37
16637,13.99
16649,16.1
16660,17.65
16671,18.87
16683,20.12
16695,21.65
16707,23.37
16719,24.99
16731,26.1
16743,26.41
16755,25.79
16767,24.11
16779,21.12
16791,16.49
16803,10.12
16815,2.42
16827,-5.59
16839,-12.62
16850,-17.71
16861,-20.75
16873,-22.49
16885,-24.09
16897,-26.3
16909,-29.01
16921,-31.2
16933,-31.6
16945,-29.4
16957,-24.82
16969,-18.92
16981,-13.11
16993,-8.51
17005,-5.5
17017,-3.84
17029,-3.04
17040,-2.86
17051,-3.42
17063,-5.11
17075,-8.16
17087,-12.26
17099,-16.56
17111,-19.9
17123,-21.29
17135,-20.24
17147,-16.9
17159,-11.77
17171,-5.45
17183,1.63
17195,9.13
17207,16.63
17219,23.39
17230,28.49
17241,31.14
17253,31.06
17265,28.61
17277,24.63
17289,20.02
17301,15.42
17313,11.0
17325,6.57
17337,1.91
17349,-3.0
17361,-7.91
17373,-12.4
17385,-16.13
17397,-18.95
17409,-20.97
17420,-22.43
17431,-23.55
17443,-24.39
17455,-24.84
17467,-24.7
17479,-23.81
17491,-22.16
17503,-19.97
17515,-17.61
17527,-15.48
17539,-13.87
17551,-12.84
17563,-12.23
17575,-11.69
17587,-10.87
17599,-9.52
17610,-7.67
17621,-5.55
17633,-3.53
17645,-1.96
17657,-1.09
17669,-1.03
17681,-1.82
17693,-3.42
17705,-5.65
17717,-8.13
17729,-10.33
17741,-11.66
17753,-11.78
17765,-10.74
17777,-9.03
17789,-7.33
17800,-6.12
17811,-5.47
17823,-5.08
17835,-4.56
17847,-3.75
17859,-2.8
17871,-2.04
17883,-1.58
17895,-1.12
17907,-0.01
17919,2.31
17931,5.94
17943,10.34
17955,14.62
17967,18.0
17979,20.19
17990,21.43
18001,22.18
18013,22.77
18025,23.15
18037,23.06
18049,22.35
18061,21.18
18073,19.94
18085,18.89
18097,17.92
18109,16.38
18121,13.44
18133,8.59
18145,2.01
18157,-5.41
18169,-12.4
18180,-17.87
18191,-21.29
18203,-22.82
18215,-23.09
18227,-22.82
18239,-22.5
18251,-22.25
18263,-21.92
18275,-21.3
18287,-20.29
18299,-18.95
18311,-17.45
18323,-15.98
18335,-14.66
18347,-13.53
18359,-12.56
18370,-11.73
18381,-10.98
18393,-10.23
18405,-9.38
18417,-8.35
18429,-7.1
18441,-5.68
18453,-4.18
18465,-2.66
18477,-1.09
18489,0.62
18501,2.54
18513,4.62
18525,6.65
18537,8.31
18549,9.34
18560,9.61
18571,9.28
18583,8.67
18595,8.14
18607,7.93
18619,7.98
18631,8.03
18643,7.77
18655,7.07
18667,6.1
18679,5.22
18691,4.78
18703,4.82
18715,5.04
18727,5.0
18739,4.44
18750,3.51
18761,2.68
18773,2.44
18785,2.82
18797,3.26
18809,2.95
18821,1.3
18833,-1.54
18845,-4.57
18857,-6.5
18869,-6.45
18881,-4.49
18893,-1.64
18905,0.78
18917,1.84
18929,1.64
18940,1.12
18951,1.55
18963,3.74
18975,7.59
18987,12.16
18999,16.18
19011,18.7
19023,19.45
19035,18.8
19047,17.38
19059,15.67
19071,13.76
19083,11.42
19095,8.41
19107,4.72
19119,0.75
19130,-2.85
19141,-5.51
19153,-6.96
19165,-7.37
19177,-7.22
19189,-6.93
19201,-6.63
19213,-6.07
19225,-4.79
19237,-2.46
19249,0.84
19261,4.58
19273,8.01
19285,10.35
19297,11.22
19309,10.61
19320,8.81
19331,6.23
19343,3.29
19355,0.34
19367,-2.35
19379,-4.52
19391,-6.06
19403,-7.02
19415,-7.63
19427,-8.2
19439,-8.98
19451,-9.98
19463,-11.02
19475,-11.85
19487,-12.27
19499,-12.28
19510,-12.0
19521,-11.66
19533,-11.42
19545,-11.32
19557,-11.29
19569,-11.23
19581,-11.07
19593,-10.75
19605,-10.32
19617,-9.85
19629,-9.46
19641,-9.24
19653,-9.3
19665,-9.61
19677,-10.09
19689,-10.56
19700,-10.81
19711,-10.7
19723,-10.24
19735,-9.5
19747,-8.63
19759,-7.69
19771,-6.62
19783,-5.29
19795,-3.51
19807,-1.14
19819,1.84
19831,5.38
19843,9.3
19855,13.33
19867,17.16
19879,20.46
19890,22.87
19901,24.15
19913,24.18
19925,23.02
19937,20.9
19949,18.23
19961,15.47
19973,13.06
19985,11.27
19997,10.15
20009,9.51
20021,9.02
20033,8.42
20045,7.57
20057,6.51
20069,5.34
20080,4.11
20091,2.75
20103,1.14
20115,-0.79
20127,-2.99
20139,-5.25
20151,-7.31
20163,-9.0
20175,-10.24
20187,-11.05
20199,-11.46
20211,-11.36
20223,-10.7
20235,-9.44
20247,-7.76
20259,-5.97
20270,-4.41
20281,-3.3
20293,-2.63
20305,-2.18
20317,-1.61
20329,-0.69
20341,0.64
20353,2.19
20365,3.62
20377,4.63
20389,5.07
20401,4.98
20413,4.59
20425,4.16
20437,3.91
20449,3.94
20460,4.19
20471,4.52
20483,4.8
20495,4.94
20507,4.98
20519,4.99
20531,5.11
20543,5.47
20555,6.26
20567,7.67
20579,9.83
20591,12.83
20603,16.62
20615,20.97
20627,25.46
20639,29.57
20650,32.72
20661,34.44
20673,34.46
20685,32.72
20697,29.35
20709,24.62
20721,18.88
20733,12.48
20745,5.8
20757,-0.7
20769,-6.56
20781,-11.31
20793,-14.64
20805,-16.53
20817,-17.21
20829,-17.12
20840,-16.69
20851,-16.2
20863,-15.74
20875,-15.26
20887,-14.7
20899,-14.08
20911,-13.55
20923,-13.26
20935,-13.31
20947,-13.68
20959,-14.22
20971,-14.76
20983,-15.18
20995,-15.38
