seconds,BVP
0,2.49
12,7.66
24,11.52
36,14.07
48,15.61
60,16.42
72,16.56
83,15.88
94,14.24
106,11.76
118,8.97
130,6.6
142,5.28
154,5.26
166,6.27
178,7.75
190,9.13
202,10.08
214,10.58
226,10.82
238,10.95
250,10.98
262,10.72
273,9.93
284,8.44
296,6.28
308,3.66
320,0.92
332,-1.65
344,-3.89
356,-5.82
368,-7.59
380,-9.38
392,-11.3
404,-13.35
416,-15.52
428,-17.79
440,-20.11
452,-22.3
463,-24.02
474,-24.68
486,-23.62
498,-20.39
510,-14.97
522,-7.95
534,-0.34
546,6.74
558,12.42
570,16.34
582,18.51
594,19.2
606,18.63
618,16.92
630,14.21
642,10.75
653,7.11
664,3.96
676,1.96
688,1.38
700,2.08
712,3.57
724,5.23
736,6.66
748,7.71
760,8.47
772,9.01
784,9.35
796,9.32
808,8.73
820,7.42
832,5.46
843,3.13
854,0.75
866,-1.43
878,-3.33
890,-5.04
902,-6.71
914,-8.39
926,-10.12
938,-11.92
950,-13.78
962,-15.82
974,-18.04
986,-20.29
998,-22.15
1010,-23.02
1022,-22.39
1033,-19.92
1044,-15.8
1056,-10.47
1068,-4.65
1080,0.99
1092,5.99
1104,10.13
1116,13.31
1128,15.52
1140,16.66
1152,16.62
1164,15.39
1176,13.2
1188,10.53
1200,8.05
1212,6.37
1223,5.82
1234,6.36
1246,7.71
1258,9.38
1270,10.97
1282,12.24
1294,13.1
1306,13.57
1318,13.66
1330,13.31
1342,12.36
1354,10.71
1366,8.31
1378,5.3
1390,1.91
1402,-1.49
1413,-4.53
1424,-6.95
1436,-8.62
1448,-9.6
1460,-10.08
1472,-10.38
1484,-10.78
1496,-11.49
1508,-12.63
1520,-14.17
1532,-15.94
1544,-17.65
1556,-18.9
1568,-19.28
1580,-18.42
1592,-16.15
1603,-12.51
1614,-7.87
1626,-2.79
1638,2.1
1650,6.33
1662,9.65
1674,12.02
1686,13.48
1698,14.05
1710,13.72
1722,12.49
1734,10.52
1746,8.23
1758,6.19
1770,4.99
1782,4.96
1793,6.06
1804,7.91
1816,9.93
1828,11.58
1840,12.54
1852,12.84
1864,12.65
1876,12.18
1888,11.56
1900,10.68
1912,9.4
1924,7.52
1936,5.09
1948,2.27
1960,-0.57
1972,-3.13
1983,-5.19
1994,-6.72
2006,-7.88
2018,-8.85
2030,-9.83
2042,-10.95
2054,-12.25
2066,-13.72
2078,-15.37
2090,-17.18
2102,-19.02
2114,-20.63
2126,-21.52
2138,-21.11
2150,-18.97
2162,-14.98
2173,-9.5
2184,-3.3
2196,2.72
2208,7.82
2220,11.62
2232,14.12
2244,15.43
2256,15.67
2268,14.85
2280,12.92
2292,10.13
2304,6.98
2316,4.27
2328,2.7
2340,2.67
2352,4.06
2363,6.34
2374,8.75
2386,10.64
2398,11.63
2410,11.71
2422,11.06
2434,9.97
2446,8.8
2458,7.66
2470,6.61
2482,5.54
2494,4.31
2506,2.82
2518,1.08
2530,-0.84
2542,-2.84
2553,-4.81
2564,-6.73
2576,-8.58
2588,-10.42
2600,-12.25
2612,-14.01
2624,-15.64
2636,-17.14
2648,-18.55
2660,-19.95
2672,-21.28
2684,-22.21
2696,-22.21
2708,-20.71
2720,-17.35
2732,-12.3
2743,-6.23
2754,-0.15
2766,5.07
2778,8.97
2790,11.61
2802,13.29
2814,14.27
2826,14.52
2838,13.77
2850,11.85
2862,8.97
2874,5.78
2886,3.12
2898,1.67
2910,1.58
2922,2.56
2933,3.99
2944,5.32
2956,6.3
2968,6.89
2980,7.16
2992,7.08
3004,6.54
3016,5.47
3028,3.93
3040,2.13
3052,0.4
3064,-1.02
3076,-2.06
3088,-2.9
3100,-3.8
3112,-4.94
3123,-6.38
3134,-8.0
3146,-9.66
3158,-11.16
3170,-12.35
3182,-13.21
3194,-13.84
3206,-14.46
3218,-15.35
3230,-16.73
3242,-18.54
3254,-20.4
3266,-21.65
3278,-21.56
3290,-19.69
3302,-16.01
3313,-11.05
3324,-5.61
3336,-0.49
3348,3.73
3360,6.92
3372,9.16
3384,10.66
3396,11.46
3408,11.56
3420,10.89
3432,9.54
3444,7.88
3456,6.39
3468,5.55
3480,5.59
3492,6.44
3503,7.72
3514,9.03
3526,9.98
3538,10.45
3550,10.49
3562,10.22
3574,9.81
3586,9.28
3598,8.6
3610,7.66
3622,6.39
3634,4.76
3646,2.85
3658,0.74
3670,-1.43
3682,-3.46
3693,-5.23
3704,-6.73
3716,-8.03
3728,-9.29
3740,-10.7
3752,-12.4
3764,-14.45
3776,-16.79
3788,-19.29
3800,-21.81
3812,-24.04
3824,-25.58
3836,-25.92
3848,-24.62
3860,-21.47
3872,-16.67
3883,-10.79
3894,-4.64
3906,1.03
3918,5.75
3930,9.39
3942,12.0
3954,13.7
3966,14.49
3978,14.32
3990,13.18
4002,11.22
4014,8.89
4026,6.76
4038,5.45
4050,5.3
4062,6.29
4073,8.03
4084,9.87
4096,11.15
4108,11.46
4120,10.74
4132,9.29
4144,7.52
4156,5.8
4168,4.22
4180,2.66
4192,0.88
4204,-1.27
4216,-3.64
4228,-5.92
4240,-7.76
4252,-9.03
4263,-9.79
4274,-10.35
4286,-11.01
4298,-11.98
4310,-13.33
4322,-14.99
4334,-16.92
4346,-19.11
4358,-21.56
4370,-24.16
4382,-26.6
4394,-28.19
4406,-28.22
4418,-26.11
4430,-21.68
4442,-15.39
4453,-8.22
4464,-1.29
4476,4.47
4488,8.63
4500,11.27
4512,12.77
4524,13.46
4536,13.48
4548,12.69
4560,11.04
4572,8.67
4584,6.03
4596,3.77
4608,2.43
4620,2.26
4632,3.17
4643,4.85
4654,6.86
4666,8.81
4678,10.42
4690,11.49
4702,11.96
4714,11.93
4726,11.52
4738,10.81
4750,9.81
4762,8.34
4774,6.26
4786,3.58
4798,0.56
4810,-2.38
4822,-4.82
4833,-6.61
4844,-7.88
4856,-9.02
4868,-10.44
4880,-12.3
4892,-14.54
4904,-16.98
4916,-19.49
4928,-22.11
4940,-24.71
4952,-26.91
4964,-27.98
4976,-27.11
4988,-23.73
5000,-17.93
5012,-10.54
5023,-2.84
5034,3.97
5046,9.25
5058,12.95
5070,15.5
5082,17.24
5094,18.27
5106,18.33
5118,17.17
5130,14.89
5142,12.01
5154,9.37
5166,7.74
5178,7.5
5190,8.5
5202,10.16
5213,11.79
5224,12.87
5236,13.29
5248,13.21
5260,12.91
5272,12.58
5284,12.25
5296,11.79
5308,10.96
5320,9.62
5332,7.78
5344,5.65
5356,3.51
5368,1.6
5380,0.02
5392,-1.28
5403,-2.49
5414,-3.84
5426,-5.48
5438,-7.43
5450,-9.66
5462,-12.13
5474,-14.81
5486,-17.62
5498,-20.35
5510,-22.57
5522,-23.63
5534,-22.94
5546,-20.12
5558,-15.3
5570,-9.08
5582,-2.37
5593,3.96
5604,9.26
5616,13.22
5628,15.86
5640,17.25
5652,17.48
5664,16.55
5676,14.58
5688,11.92
5700,9.08
5712,6.71
5724,5.31
5736,5.11
5748,5.89
5760,7.17
5772,8.34
5783,8.93
5794,8.8
5806,8.11
5818,7.21
5830,6.43
5842,5.93
5854,5.51
5866,4.91
5878,3.74
5890,1.86
5902,-0.66
5914,-3.55
5926,-6.39
5938,-8.96
5950,-11.19
5962,-13.26
5973,-15.4
5984,-17.72
5996,-20.25
6008,-22.8
6020,-25.1
6032,-26.84
6044,-27.75
6056,-27.58
6068,-26.12
6080,-23.23
6092,-18.91
6104,-13.36
6116,-7.06
6128,-0.61
6140,5.43
6152,10.55
6163,14.47
6174,17.0
6186,18.11
6198,17.73
6210,15.94
6222,13.07
6234,9.62
6246,6.32
6258,3.82
6270,2.56
6282,2.51
6294,3.3
6306,4.4
6318,5.37
6330,5.97
6342,6.19
6353,6.12
6364,5.81
6376,5.21
6388,4.18
6400,2.59
6412,0.46
6424,-2.09
6436,-4.81
6448,-7.41
6460,-9.66
6472,-11.45
6484,-12.79
6496,-13.85
6508,-14.91
6520,-16.25
6532,-18.11
6543,-20.46
6554,-22.91
6566,-24.75
6578,-25.13
6590,-23.37
6602,-19.26
6614,-13.19
6626,-6.03
6638,1.24
6650,7.8
6662,13.21
6674,17.31
6686,20.02
6698,21.25
6710,20.87
6722,18.87
6733,15.58
6744,11.64
6756,7.88
6768,5.05
6780,3.54
6792,3.34
6804,4.14
6816,5.47
6828,6.94
6840,8.24
6852,9.21
6864,9.77
6876,9.91
6888,9.59
6900,8.78
6912,7.45
6923,5.66
6934,3.49
6946,1.03
6958,-1.67
6970,-4.53
6982,-7.47
6994,-10.43
7006,-13.35
7018,-16.23
7030,-19.11
7042,-22.03
7054,-24.81
7066,-27.06
7078,-28.16
7090,-27.42
7102,-24.39
7113,-19.11
7124,-12.08
7136,-4.2
7148,3.65
7160,10.87
7172,17.1
7184,22.26
7196,26.25
7208,28.87
7220,29.93
7232,29.41
7244,27.62
7256,25.2
7268,22.88
7280,21.27
7292,20.55
7303,20.55
7314,20.89
7326,21.19
7338,21.29
7350,21.26
7362,21.23
7374,21.26
7386,21.24
7398,20.95
7410,20.13
7422,18.71
7434,16.77
7446,14.55
7458,12.29
7470,10.13
7482,8.11
7493,6.14
7504,4.08
7516,1.85
7528,-0.64
7540,-3.5
7552,-6.77
7564,-10.33
7576,-13.8
7588,-16.5
7600,-17.65
7612,-16.64
7624,-13.29
7636,-8.01
7648,-1.69
7660,4.51
7672,9.64
7683,13.14
7694,14.96
7706,15.38
7718,14.7
7730,13.13
7742,10.71
7754,7.48
7766,3.6
7778,-0.44
7790,-4.07
7802,-6.76
7814,-8.26
7826,-8.76
7838,-8.72
7850,-8.7
7862,-9.11
7873,-10.07
7884,-11.48
7896,-13.06
7908,-14.61
7920,-16.06
7932,-17.42
7944,-18.73
7956,-19.96
7968,-20.97
7980,-21.56
7992,-21.57
8004,-20.97
8016,-19.92
8028,-18.68
8040,-17.62
8052,-16.97
8063,-16.87
8074,-17.28
8086,-18.0
8098,-18.72
8110,-19.05
8122,-18.5
8134,-16.58
8146,-12.95
8158,-7.52
8170,-0.57
8182,7.28
8194,15.29
8206,22.66
8218,28.82
8230,33.46
8242,36.47
8253,37.87
8264,37.7
8276,36.11
8288,33.43
8300,30.2
8312,27.19
8324,25.18
8336,24.7
8348,25.81
8360,28.16
8372,30.97
8384,33.51
8396,35.21
8408,35.91
8420,35.65
8432,34.76
8443,33.46
8454,31.85
8466,30.04
8478,28.04
8490,25.95
8502,23.86
8514,21.91
8526,20.06
8538,18.24
8550,16.35
8562,14.26
8574,12.05
8586,9.72
8598,7.33
8610,4.79
8622,1.98
8633,-1.33
8644,-5.18
8656,-9.34
8668,-13.26
8680,-16.16
8692,-17.38
8704,-16.58
8716,-13.9
8728,-9.91
8740,-5.44
8752,-1.25
8764,2.13
8776,4.43
8788,5.57
8800,5.49
8812,4.2
8823,1.71
8834,-1.8
8846,-5.93
8858,-10.18
8870,-13.92
8882,-16.71
8894,-18.21
8906,-18.48
8918,-17.79
8930,-16.6
8942,-15.38
8954,-14.47
8966,-13.97
8978,-13.74
8990,-13.56
9002,-13.26
9013,-12.83
9024,-12.49
9036,-12.51
9048,-13.09
9060,-14.19
9072,-15.58
9084,-16.88
9096,-17.87
9108,-18.47
9120,-18.84
9132,-19.3
9144,-20.05
9156,-21.17
9168,-22.48
9180,-23.75
9192,-24.72
9203,-25.28
9214,-25.27
9226,-24.5
9238,-22.72
9250,-19.57
9262,-14.98
9274,-9.17
9286,-2.63
9298,3.89
9310,9.68
9322,14.27
9334,17.47
9346,19.24
9358,19.72
9370,19.12
9382,17.65
9393,15.75
9404,13.79
9416,12.18
9428,11.24
9440,11.1
9452,11.62
9464,12.59
9476,13.67
9488,14.55
9500,15.08
9512,15.19
9524,14.95
9536,14.52
9548,14.03
9560,13.46
9572,12.79
9583,11.93
9594,10.84
9606,9.62
9618,8.33
9630,7.02
9642,5.65
9654,4.09
9666,2.17
9678,-0.11
9690,-2.66
9702,-5.31
9714,-7.78
9726,-9.78
9738,-10.98
9750,-10.96
9762,-9.5
9773,-6.57
9784,-2.42
9796,2.34
9808,7.0
9820,11.05
9832,14.17
9844,16.38
9856,17.81
9868,18.46
9880,18.18
9892,16.82
9904,14.35
9916,11.1
9928,7.71
9940,4.83
9952,2.97
9963,2.24
9974,2.33
9986,2.82
9998,3.35
10010,3.72
10022,3.92
10034,4.04
10046,4.03
10058,3.79
10070,3.18
10082,2.07
10094,0.52
10106,-1.29
10118,-3.17
10130,-4.97
10142,-6.56
10153,-7.97
10164,-9.22
10176,-10.34
10188,-11.42
10200,-12.54
10212,-13.75
10224,-15.13
10236,-16.68
10248,-18.24
10260,-19.54
10272,-20.05
10284,-19.2
10296,-16.58
10308,-12.1
10320,-6.19
10332,0.31
10343,6.43
10354,11.38
10366,14.81
10378,16.84
10390,17.84
10402,18.1
10414,17.78
10426,16.85
10438,15.35
10450,13.48
10462,11.6
10474,10.09
10486,9.24
10498,9.03
10510,9.21
10522,9.46
10533,9.45
10544,9.07
10556,8.35
10568,7.43
10580,6.49
10592,5.71
10604,5.1
10616,4.52
10628,3.75
10640,2.53
10652,0.68
10664,-1.74
10676,-4.44
10688,-7.04
10700,-9.12
10712,-10.45
10723,-11.09
10734,-11.28
10746,-11.42
10758,-11.84
10770,-12.72
10782,-14.1
10794,-15.84
10806,-17.66
10818,-19.17
10830,-19.86
10842,-19.25
10854,-17.07
10866,-13.4
10878,-8.68
10890,-3.66
10902,0.91
10913,4.44
10924,6.66
10936,7.7
10948,7.82
10960,7.3
10972,6.3
10984,4.94
10996,3.27
11008,1.53
11020,0.03
11032,-0.86
11044,-0.88
11056,-0.1
11068,1.16
11080,2.32
11092,2.95
11103,2.75
11114,1.88
11126,0.74
11138,-0.25
11150,-0.78
11162,-0.89
11174,-0.87
11186,-1.07
11198,-1.75
11210,-3.02
11222,-4.75
11234,-6.7
11246,-8.61
11258,-10.3
11270,-11.7
11282,-12.82
11293,-13.72
11304,-14.53
11316,-15.38
11328,-16.4
11340,-17.72
11352,-19.38
11364,-21.18
11376,-22.77
11388,-23.52
11400,-22.83
11412,-20.32
11424,-16.02
11436,-10.48
11448,-4.53
11460,0.89
11472,5.15
11483,7.92
11494,9.27
11506,9.48
11518,8.89
11530,7.76
11542,6.29
11554,4.61
11566,2.88
11578,1.39
11590,0.4
11602,0.13
11614,0.68
11626,1.9
11638,3.43
11650,4.84
11662,5.8
11673,6.21
11684,6.2
11696,6.07
11708,5.99
11720,5.92
11732,5.59
11744,4.69
11756,3.08
11768,0.9
11780,-1.45
11792,-3.42
11804,-4.66
11816,-5.07
11828,-4.91
11840,-4.68
11852,-4.83
11863,-5.63
11874,-7.09
11886,-9.0
11898,-11.01
11910,-12.86
11922,-14.38
11934,-15.4
11946,-15.7
11958,-15.03
11970,-13.14
11982,-10.06
11994,-6.09
12006,-1.8
12018,2.14
12030,5.3
12042,7.51
12053,8.92
12064,9.73
12076,10.02
12088,9.73
12100,8.68
12112,6.85
12124,4.42
12136,1.87
12148,-0.2
12160,-1.35
12172,-1.45
12184,-0.63
12196,0.73
12208,2.23
12220,3.57
12232,4.63
12243,5.47
12254,6.2
12266,6.87
12278,7.31
12290,7.25
12302,6.41
12314,4.67
12326,2.21
12338,-0.59
12350,-3.31
12362,-5.62
12374,-7.44
12386,-8.9
12398,-10.22
12410,-11.55
12422,-12.95
12433,-14.33
12444,-15.61
12456,-16.76
12468,-17.73
12480,-18.42
12492,-18.56
12504,-17.77
12516,-15.89
12528,-12.89
12540,-9.09
12552,-5.05
12564,-1.3
12576,1.83
12588,4.26
12600,6.11
12612,7.49
12623,8.27
12634,8.29
12646,7.36
12658,5.51
12670,3.1
12682,0.7
12694,-1.19
12706,-2.29
12718,-2.63
12730,-2.5
12742,-2.17
12754,-1.84
12766,-1.46
12778,-0.83
12790,0.12
12802,1.37
12813,2.67
12824,3.68
12836,4.13
12848,3.91
12860,3.05
12872,1.78
12884,0.35
12896,-1.17
12908,-2.83
12920,-4.8
12932,-7.21
12944,-10.01
12956,-12.94
12968,-15.67
12980,-17.96
12992,-19.69
13003,-20.89
13014,-21.51
13026,-21.31
13038,-19.96
13050,-17.18
13062,-12.94
13074,-7.57
13086,-1.79
13098,3.7
13110,8.28
13122,11.72
13134,13.96
13146,15.04
13158,15.01
13170,13.84
13182,11.64
13193,8.62
13204,5.23
13216,1.94
13228,-0.7
13240,-2.4
13252,-3.06
13264,-2.79
13276,-1.85
13288,-0.52
13300,0.9
13312,2.21
13324,3.22
13336,3.83
13348,4.02
13360,3.77
13372,3.15
13383,2.19
13394,0.93
13406,-0.68
13418,-2.59
13430,-4.78
13442,-7.16
13454,-9.61
13466,-12.15
13478,-14.84
13490,-17.74
13502,-20.7
13514,-23.25
13526,-24.62
13538,-24.12
13550,-21.38
13562,-16.68
13573,-10.81
13584,-4.8
13596,0.5
13608,4.67
13620,7.73
13632,9.96
13644,11.5
13656,12.39
13668,12.5
13680,11.79
13692,10.4
13704,8.64
13716,6.91
13728,5.52
13740,4.67
13752,4.44
13763,4.82
13774,5.71
13786,6.95
13798,8.28
13810,9.42
13822,10.15
13834,10.32
13846,9.88
13858,8.85
13870,7.3
13882,5.32
13894,3.07
13906,0.79
13918,-1.33
13930,-3.1
13942,-4.52
13953,-5.77
13964,-7.17
13976,-9.04
13988,-11.55
14000,-14.56
14012,-17.55
14024,-19.75
14036,-20.34
14048,-18.75
14060,-14.96
14072,-9.48
14084,-3.21
14096,2.83
14108,7.91
14120,11.73
14132,14.33
14143,15.93
14154,16.73
14166,16.68
14178,15.73
14190,13.84
14202,11.2
14214,8.2
14226,5.33
14238,2.92
14250,1.16
14262,0.04
14274,-0.47
14286,-0.4
14298,0.27
14310,1.41
14322,2.81
14333,4.13
14344,5.03
14356,5.31
14368,4.97
14380,4.17
14392,3.16
14404,2.13
14416,1.13
14428,0.08
14440,-1.22
14452,-2.98
14464,-5.33
14476,-8.27
14488,-11.58
14500,-14.87
14512,-17.58
14523,-19.14
14534,-19.03
14546,-16.98
14558,-13.04
14570,-7.53
14582,-1.13
14594,5.38
14606,11.19
14618,15.72
14630,18.64
14642,20.0
14654,20.05
14666,19.08
14678,17.46
14690,15.44
14702,13.29
14713,11.22
14724,9.44
14736,8.0
14748,6.91
14760,6.03
14772,5.25
14784,4.52
14796,3.89
14808,3.53
14820,3.5
14832,3.8
14844,4.25
14856,4.55
14868,4.45
14880,3.77
14892,2.59
14903,1.09
14914,-0.47
14926,-1.97
14938,-3.39
14950,-4.88
14962,-6.64
14974,-8.84
14986,-11.6
14998,-14.81
15010,-18.19
15022,-21.23
15034,-23.29
15046,-23.75
15058,-22.2
15070,-18.66
15082,-13.49
15093,-7.43
15104,-1.27
15116,4.4
15128,9.25
15140,13.22
15152,16.34
15164,18.5
15176,19.5
15188,19.2
15200,17.61
15212,15.08
15224,12.22
15236,9.69
15248,8.01
15260,7.42
15272,7.83
15283,8.93
15294,10.31
15306,11.54
15318,12.31
15330,12.4
15342,11.73
15354,10.35
15366,8.46
15378,6.33
15390,4.22
15402,2.32
15414,0.72
15426,-0.58
15438,-1.64
15450,-2.65
15462,-3.81
15473,-5.32
15484,-7.41
15496,-10.13
15508,-13.29
15520,-16.36
15532,-18.58
15544,-19.12
15556,-17.54
15568,-13.82
15580,-8.54
15592,-2.59
15604,3.21
15616,8.22
15628,12.19
15640,15.12
15652,17.05
15663,17.91
15674,17.65
15686,16.29
15698,14.03
15710,11.33
15722,8.72
15734,6.58
15746,5.11
15758,4.27
15770,3.92
15782,3.91
15794,4.18
15806,4.64
15818,5.25
15830,5.88
15842,6.32
15853,6.3
15864,5.61
15876,4.14
15888,1.93
15900,-0.78
15912,-3.64
15924,-6.24
15936,-8.33
15948,-9.83
15960,-10.97
15972,-12.07
15984,-13.44
15996,-15.18
16008,-17.09
16020,-18.67
16032,-19.33
16043,-18.54
16054,-16.06
16066,-12.0
16078,-6.8
16090,-1.12
16102,4.37
16114,9.16
16126,12.89
16138,15.38
16150,16.56
16162,16.38
16174,14.92
16186,12.38
16198,9.11
16210,5.63
16222,2.52
16233,0.28
16244,-0.85
16256,-0.92
16268,-0.2
16280,0.92
16292,2.1
16304,3.09
16316,3.76
16328,4.07
16340,4.03
16352,3.65
16364,2.98
16376,2.11
16388,1.08
16400,-0.02
16412,-1.17
16423,-2.49
16434,-4.09
16446,-6.07
16458,-8.43
16470,-11.06
16482,-13.74
16494,-16.25
16506,-18.19
16518,-19.1
16530,-18.49
16542,-16.08
16554,-11.89
16566,-6.43
16578,-0.46
16590,5.18
16602,9.82
16613,13.15
16624,15.13
16636,15.89
16648,15.52
16660,14.08
16672,11.7
16684,8.7
16696,5.56
16708,2.78
16720,0.79
16732,-0.26
16744,-0.43
16756,0.1
16768,1.06
16780,2.26
16792,3.43
16803,4.3
16814,4.6
16826,4.22
16838,3.22
16850,1.83
16862,0.37
16874,-0.99
16886,-2.2
16898,-3.36
16910,-4.65
16922,-6.13
16934,-7.76
16946,-9.55
16958,-11.46
16970,-13.48
16982,-15.38
16993,-16.65
17004,-16.62
17016,-14.69
17028,-10.65
17040,-4.94
17052,1.53
17064,7.66
17076,12.61
17088,16.04
17100,18.13
17112,19.22
17124,19.55
17136,19.08
17148,17.56
17160,14.87
17172,11.24
17183,7.29
17194,3.84
17206,1.55
17218,0.67
17230,1.02
17242,2.04
17254,3.15
17266,3.91
17278,4.18
17290,3.97
17302,3.37
17314,2.46
17326,1.24
17338,-0.33
17350,-2.21
17362,-4.35
17373,-6.64
17384,-8.97
17396,-11.3
17408,-13.69
17420,-16.21
17432,-18.93
17444,-21.75
17456,-24.28
17468,-25.95
17480,-26.08
17492,-24.17
17504,-20.13
17516,-14.34
17528,-7.57
17540,-0.75
17552,5.31
17563,10.1
17574,13.43
17586,15.32
17598,15.82
17610,15.05
17622,13.15
17634,10.44
17646,7.43
17658,4.8
17670,3.13
17682,2.71
17694,3.45
17706,4.99
17718,6.83
17730,8.44
17742,9.52
17753,9.77
17764,9.05
17776,7.32
17788,4.76
17800,1.73
17812,-1.2
17824,-3.57
17836,-5.13
17848,-5.92
17860,-6.33
17872,-6.79
17884,-7.64
17896,-9.08
17908,-11.17
17920,-13.86
17932,-17.0
17943,-20.21
17954,-22.87
17966,-24.19
17978,-23.47
17990,-20.35
18002,-15.04
18014,-8.3
18026,-1.16
18038,5.36
18050,10.63
18062,14.45
18074,16.88
18086,18.1
18098,18.21
18110,17.25
18122,15.31
18133,12.73
18144,9.96
18156,7.58
18168,6.08
18180,5.59
18192,6.0
18204,6.9
18216,7.85
18228,8.5
18240,8.81
18252,8.81
18264,8.72
18276,8.68
18288,8.71
18300,8.69
18312,8.43
18323,7.77
18334,6.61
18346,5.03
18358,3.06
18370,0.87
18382,-1.45
18394,-3.89
18406,-6.46
18418,-9.18
18430,-12.03
18442,-14.91
18454,-17.68
18466,-20.22
18478,-22.32
18490,-23.73
18502,-24.12
18513,-23.14
18524,-20.47
18536,-16.08
18548,-10.25
18560,-3.63
18572,2.93
18584,8.69
18596,13.18
18608,16.23
18620,17.93
18632,18.51
18644,18.16
18656,17.09
18668,15.49
18680,13.64
18692,11.86
18703,10.48
18714,9.69
18726,9.54
18738,9.95
18750,10.68
18762,11.58
18774,12.44
18786,13.06
18798,13.33
18810,13.08
18822,12.19
18834,10.69
18846,8.66
18858,6.35
18870,4.01
18882,1.9
18893,0.05
18904,-1.52
18916,-2.97
18928,-4.39
18940,-5.73
18952,-6.94
18964,-7.93
18976,-8.73
18988,-9.48
19000,-10.41
19012,-11.62
19024,-13.11
19036,-14.77
19048,-16.52
19060,-18.36
19072,-20.37
19083,-22.46
19094,-24.27
19106,-25.13
19118,-24.18
19130,-20.93
19142,-15.4
19154,-8.33
19166,-0.9
19178,5.72
19190,10.82
19202,14.26
19214,16.34
19226,17.44
19238,17.72
19250,17.16
19262,15.68
19273,13.41
19284,10.78
19296,8.46
19308,7.05
19320,6.84
19332,7.73
19344,9.31
19356,11.11
19368,12.75
19380,13.97
19392,14.68
19404,14.85
19416,14.46
19428,13.48
19440,11.95
19452,9.93
19463,7.63
19474,5.23
19486,3.01
19498,1.16
19510,-0.16
19522,-0.94
19534,-1.32
19546,-1.55
19558,-1.93
19570,-2.68
19582,-3.89
19594,-5.43
19606,-7.01
19618,-8.4
19630,-9.44
19642,-10.22
19653,-10.97
19664,-12.0
19676,-13.55
19688,-15.73
19700,-18.44
19712,-21.36
19724,-24.0
19736,-25.75
19748,-26.0
19760,-24.3
19772,-20.53
19784,-15.01
19796,-8.44
19808,-1.69
19820,4.41
19832,9.29
19843,12.72
19854,14.79
19866,15.74
19878,15.83
19890,15.26
19902,14.13
19914,12.54
19926,10.67
19938,8.84
19950,7.41
19962,6.73
19974,6.97
19986,8.05
19998,9.58
20010,11.09
20022,12.2
20033,12.73
20044,12.68
20056,12.1
20068,11.0
20080,9.33
20092,7.14
20104,4.58
20116,1.96
20128,-0.26
20140,-1.73
20152,-2.29
20164,-2.09
20176,-1.5
20188,-0.86
20200,-0.5
20212,-0.63
20223,-1.4
20234,-2.79
20246,-4.72
20258,-6.94
20270,-9.18
20282,-11.15
20294,-12.75
20306,-14.08
20318,-15.29
20330,-16.68
20342,-18.41
20354,-20.59
20366,-23.17
20378,-25.92
20390,-28.33
20402,-29.75
20413,-29.47
20424,-26.94
20436,-22.06
20448,-15.31
20460,-7.61
20472,0.01
20484,6.7
20496,12.04
20508,16.0
20520,18.66
20532,20.18
20544,20.58
20556,19.89
20568,18.29
20580,16.21
20592,14.2
20603,12.7
20614,11.99
20626,11.96
20638,12.43
20650,13.05
20662,13.55
20674,13.82
20686,13.8
20698,13.57
20710,13.18
20722,12.67
20734,11.97
20746,11.0
20758,9.61
20770,7.79
20782,5.66
20793,3.52
20804,1.68
20816,0.37
20828,-0.47
20840,-1.17
20852,-2.16
20864,-3.74
20876,-5.93
20888,-8.43
20900,-10.89
20912,-13.02
20924,-14.69
20936,-15.99
20948,-17.02
20960,-17.86
20972,-18.51
20983,-19.1
20994,-19.82
