seconds,BVP
3,9.12
15,9.84
27,10.74
39,11.59
50,12.11
61,12.08
73,11.44
85,10.3
97,8.92
109,7.56
121,6.36
133,5.31
145,4.24
157,2.96
169,1.34
181,-0.61
193,-2.77
205,-4.93
217,-6.94
229,-8.7
240,-10.21
251,-11.54
263,-12.81
275,-14.18
287,-15.77
299,-17.61
311,-19.63
323,-21.62
335,-23.29
347,-24.27
359,-24.16
371,-22.65
383,-19.63
395,-15.19
407,-9.67
419,-3.56
430,2.54
441,8.12
453,12.76
465,16.21
477,18.42
489,19.46
501,19.52
513,18.78
525,17.48
537,15.83
549,14.04
561,12.32
573,10.89
585,9.91
597,9.5
609,9.68
620,10.34
631,11.32
643,12.36
655,13.23
667,13.71
679,13.65
691,12.97
703,11.67
715,9.9
727,7.83
739,5.73
751,3.81
763,2.21
775,0.91
787,-0.25
799,-1.49
810,-3.04
821,-5.0
833,-7.3
845,-9.77
857,-12.17
869,-14.34
881,-16.23
893,-17.94
905,-19.62
917,-21.42
929,-23.43
941,-25.58
953,-27.63
965,-29.15
977,-29.58
989,-28.41
1000,-25.32
1011,-20.37
1023,-14.02
1035,-7.04
1047,-0.28
1059,5.61
1071,10.3
1083,13.79
1095,16.24
1107,17.84
1119,18.66
1131,18.68
1143,17.91
1155,16.55
1167,14.92
1179,13.48
1190,12.55
1201,12.28
1213,12.57
1225,13.16
1237,13.75
1249,14.21
1261,14.5
1273,14.67
1285,14.77
1297,14.75
1309,14.47
1321,13.79
1333,12.59
1345,10.91
1357,8.91
1369,6.8
1380,4.8
1391,3.05
1403,1.55
1415,0.19
1427,-1.18
1439,-2.72
1451,-4.5
1463,-6.48
1475,-8.52
1487,-10.45
1499,-12.17
1511,-13.64
1523,-14.93
1535,-16.13
1547,-17.34
1559,-18.61
1570,-20.0
1581,-21.58
1593,-23.42
1605,-25.58
1617,-27.93
1629,-30.1
1641,-31.44
1653,-31.25
1665,-28.96
1677,-24.41
1689,-17.97
1701,-10.41
1713,-2.7
1725,4.33
1737,10.15
1749,14.6
1760,17.74
1771,19.75
1783,20.77
1795,20.87
1807,20.13
1819,18.74
1831,17.0
1843,15.26
1855,13.9
1867,13.15
1879,13.08
1891,13.58
1903,14.43
1915,15.36
1927,16.17
1939,16.74
1950,17.01
1961,17.0
1973,16.74
1985,16.23
1997,15.49
2009,14.5
2021,13.25
2033,11.77
2045,10.1
2057,8.35
2069,6.64
2081,5.04
2093,3.56
2105,2.17
2117,0.78
2129,-0.67
2140,-2.18
2151,-3.69
2163,-5.14
2175,-6.53
2187,-7.92
2199,-9.39
2211,-10.98
2223,-12.64
2235,-14.23
2247,-15.66
2259,-16.9
2271,-18.09
2283,-19.46
2295,-21.21
2307,-23.42
2319,-25.87
2330,-28.14
2341,-29.62
2353,-29.74
2365,-28.13
2377,-24.75
2389,-19.84
2401,-13.85
2413,-7.33
2425,-0.78
2437,5.33
2449,10.64
2461,14.84
2473,17.71
2485,19.19
2497,19.42
2509,18.7
2520,17.45
2531,16.04
2543,14.74
2555,13.65
2567,12.76
2579,12.06
2591,11.55
2603,11.29
2615,11.32
2627,11.64
2639,12.19
2651,12.83
2663,13.39
2675,13.73
2687,13.74
2699,13.37
2710,12.68
2721,11.74
2733,10.65
2745,9.5
2757,8.28
2769,6.98
2781,5.61
2793,4.22
2805,2.88
2817,1.59
2829,0.28
2841,-1.18
2853,-2.86
2865,-4.7
2877,-6.51
2889,-8.0
2900,-9.01
2911,-9.56
2923,-9.92
2935,-10.44
2947,-11.39
2959,-12.88
2971,-14.85
2983,-17.11
2995,-19.42
3007,-21.54
3019,-23.09
3031,-23.66
3043,-22.82
3055,-20.29
3067,-16.07
3079,-10.48
3090,-4.12
3101,2.3
3113,8.16
3125,13.0
3137,16.58
3149,18.84
3161,19.85
3173,19.78
3185,18.88
3197,17.44
3209,15.75
3221,14.11
3233,12.76
3245,11.84
3257,11.37
3269,11.31
3280,11.51
3291,11.87
3303,12.3
3315,12.77
3327,13.23
3339,13.57
3351,13.58
3363,13.09
3375,11.96
3387,10.26
3399,8.2
3411,6.13
3423,4.32
3435,2.91
3447,1.88
3459,0.99
3470,0.01
3481,-1.24
3493,-2.81
3505,-4.63
3517,-6.52
3529,-8.31
3541,-9.86
3553,-11.12
3565,-12.11
3577,-12.95
3589,-13.81
3601,-14.85
3613,-16.21
3625,-17.92
3637,-19.85
3649,-21.68
3660,-22.9
3671,-23.02
3683,-21.63
3695,-18.61
3707,-14.16
3719,-8.72
3731,-2.89
3743,2.76
3755,7.8
3767,11.97
3779,15.15
3791,17.29
3803,18.39
3815,18.51
3827,17.77
3839,16.4
3850,14.64
3861,12.79
3873,11.11
3885,9.77
3897,8.89
3909,8.5
3921,8.54
3933,8.91
3945,9.48
3957,10.1
3969,10.63
3981,10.93
3993,10.91
4005,10.5
4017,9.72
4029,8.59
4040,7.2
4051,5.69
4063,4.16
4075,2.69
4087,1.33
4099,0.06
4111,-1.14
4123,-2.31
4135,-3.51
4147,-4.81
4159,-6.28
4171,-7.95
4183,-9.75
4195,-11.51
4207,-13.01
4219,-14.1
4230,-14.73
4241,-15.04
4253,-15.32
4265,-15.9
4277,-17.06
4289,-18.9
4301,-21.26
4313,-23.73
4325,-25.74
4337,-26.67
4349,-26.06
4361,-23.72
4373,-19.76
4385,-14.59
4397,-8.77
4409,-2.89
4420,2.53
4431,7.13
4443,10.71
4455,13.16
4467,14.52
4479,14.88
4491,14.39
4503,13.27
4515,11.75
4527,10.11
4539,8.64
4551,7.58
4563,7.1
4575,7.2
4587,7.71
4599,8.43
4610,9.1
4621,9.59
4633,9.84
4645,9.85
4657,9.62
4669,9.13
4681,8.37
4693,7.38
4705,6.26
4717,5.09
4729,3.94
4741,2.77
4753,1.56
4765,0.28
4777,-1.02
4789,-2.21
4800,-3.19
4811,-3.96
4823,-4.65
4835,-5.45
4847,-6.49
4859,-7.8
4871,-9.25
4883,-10.7
4895,-12.02
4907,-13.18
4919,-14.2
4931,-15.12
4943,-15.98
4955,-16.82
4967,-17.75
4979,-18.93
4990,-20.48
5001,-22.36
5013,-24.29
5025,-25.77
5037,-26.23
5049,-25.19
5061,-22.47
5073,-18.21
5085,-12.82
5097,-6.91
5109,-1.09
5121,4.11
5133,8.36
5145,11.51
5157,13.56
5169,14.7
5180,15.09
5191,14.93
5203,14.33
5215,13.41
5227,12.29
5239,11.19
5251,10.35
5263,9.98
5275,10.13
5287,10.71
5299,11.51
5311,12.33
5323,13.02
5335,13.55
5347,13.94
5359,14.22
5370,14.34
5381,14.21
5393,13.71
5405,12.79
5417,11.47
5429,9.82
5441,7.99
5453,6.11
5465,4.3
5477,2.63
5489,1.14
5501,-0.24
5513,-1.59
5525,-3.0
5537,-4.5
5549,-6.03
5560,-7.46
5571,-8.66
5583,-9.55
5595,-10.18
5607,-10.67
5619,-11.16
5631,-11.79
5643,-12.64
5655,-13.75
5667,-15.16
5679,-16.83
5691,-18.68
5703,-20.46
5715,-21.77
5727,-22.15
5739,-21.16
5750,-18.62
5761,-14.59
5773,-9.46
5785,-3.79
5797,1.88
5809,7.07
5821,11.47
5833,14.93
5845,17.36
5857,18.74
5869,19.08
5881,18.48
5893,17.15
5905,15.35
5917,13.35
5929,11.39
5940,9.67
5951,8.32
5963,7.39
5975,6.84
5987,6.59
5999,6.55
6011,6.62
6023,6.64
6035,6.5
6047,6.1
6059,5.35
6071,4.17
6083,2.52
6095,0.49
6107,-1.71
6119,-3.79
6130,-5.61
6141,-7.07
6153,-8.22
6165,-9.2
6177,-10.23
6189,-11.43
6201,-12.77
6213,-13.95
6225,-14.59
6237,-14.47
6249,-13.49
6261,-11.73
6273,-9.43
6285,-6.97
6297,-4.64
6309,-2.63
6320,-0.93
6331,1.43
6343,4.76
6355,8.83
6367,13.17
6379,17.46
6391,21.3
6403,24.0
6415,24.61
6427,22.24
6439,16.38
6451,7.17
6463,-4.36
6475,-16.52
6487,-27.39
6499,-35.61
6510,-40.79
6521,-43.59
6533,-45.15
6545,-46.22
6557,-46.65
6569,-45.1
6581,-39.8
6593,-29.5
6605,-14.57
6617,3.08
6629,20.56
6641,35.34
6653,46.11
6665,52.84
6677,56.74
6689,58.42
6700,58.17
6711,55.81
6723,51.33
6735,45.1
6747,38.18
6759,31.97
6771,27.42
6783,24.61
6795,22.75
6807,20.85
6819,18.02
6831,14.38
6843,10.53
6855,7.54
6867,6.22
6879,6.46
6890,7.12
6901,6.53
6913,3.46
6925,-2.67
6937,-11.18
6949,-21.09
6961,-31.02
6973,-39.73
6985,-46.58
6997,-51.74
7009,-56.26
7021,-59.22
7033,-61.39
7045,-60.88
7057,-58.08
7069,-54.59
7080,-51.87
7091,-50.11
7103,-48.25
7115,-45.0
7127,-39.56
7139,-32.31
7151,-23.95
7163,-15.66
7175,-8.03
7187,-1.19
7199,4.9
7211,10.27
7223,15.02
7235,19.62
7247,24.56
7259,30.38
7270,36.64
7281,42.24
7293,45.54
7305,45.06
7317,40.14
7329,31.41
7341,20.62
7353,9.79
7365,0.66
7377,-6.44
7389,-11.62
7401,-15.22
7413,-17.47
7425,-18.47
7437,-18.25
7449,-17.0
7460,-15.21
7471,-13.51
7483,-12.46
7495,-12.21
7507,-12.59
7519,-13.21
7531,-13.74
7543,-14.13
7555,-14.57
7567,-15.43
7579,-16.99
7591,-19.19
7603,-21.55
7615,-23.42
7627,-24.08
7639,-23.07
7650,-20.27
7661,-15.82
7673,-9.96
7685,-3.74
7697,2.15
7709,7.26
7721,11.42
7733,14.6
7745,16.82
7757,18.08
7769,18.3
7781,17.42
7793,15.42
7805,12.55
7817,9.16
7829,5.68
7840,2.55
7851,0.16
7863,-1.28
7875,-1.72
7887,-1.33
7899,-0.46
7911,0.57
7923,1.49
7935,2.13
7947,2.45
7959,2.51
7971,2.37
7983,2.06
7995,1.54
8007,0.77
8019,-0.23
8030,-1.33
8041,-2.4
8053,-3.29
8065,-3.95
8077,-4.44
8089,-4.95
8101,-5.7
8113,-6.91
8125,-8.69
8137,-11.06
8149,-13.87
8161,-16.82
8173,-19.5
8185,-21.35
8197,-21.87
8209,-20.65
8220,-17.58
8231,-12.82
8243,-6.79
8255,-0.13
8267,6.53
8279,12.67
8291,17.94
8303,22.12
8315,25.12
8327,26.91
8339,27.49
8351,26.9
8363,25.27
8375,22.8
8387,19.84
8399,16.77
8410,14.01
8421,11.86
8433,10.41
8445,9.62
8457,9.28
8469,9.12
8481,8.94
8493,8.67
8505,8.32
8517,7.95
8529,7.57
8541,7.1
8553,6.4
8565,5.33
8577,3.9
8589,2.23
8600,0.56
8611,-0.91
8623,-2.13
8635,-3.25
8647,-4.53
8659,-6.23
8671,-8.49
8683,-11.21
8695,-14.21
8707,-17.24
8719,-20.08
8731,-22.5
8743,-24.19
8755,-24.74
8767,-23.69
8779,-20.74
8790,-15.94
8801,-9.74
8813,-2.84
8825,4.02
8837,10.28
8849,15.66
8861,20.08
8873,23.51
8885,25.88
8897,27.09
8909,27.1
8921,26.05
8933,24.26
8945,22.13
8957,20.07
8969,18.39
8980,17.23
8991,16.59
9003,16.35
9015,16.32
9027,16.31
9039,16.18
9051,15.91
9063,15.52
9075,15.06
9087,14.52
9099,13.81
9111,12.84
9123,11.55
9135,9.98
9147,8.21
9159,6.34
9170,4.48
9181,2.66
9193,0.89
9205,-0.78
9217,-2.32
9229,-3.71
9241,-5.01
9253,-6.37
9265,-8.01
9277,-10.11
9289,-12.71
9301,-15.59
9313,-18.29
9325,-20.17
9337,-20.63
9349,-19.27
9360,-16.02
9371,-11.25
9383,-5.56
9395,0.37
9407,5.96
9419,10.8
9431,14.68
9443,17.48
9455,19.15
9467,19.69
9479,19.17
9491,17.78
9503,15.81
9515,13.63
9527,11.58
9539,9.91
9550,8.7
9561,7.93
9573,7.51
9585,7.34
9597,7.34
9609,7.48
9621,7.73
9633,8.03
9645,8.26
9657,8.3
9669,8.01
9681,7.33
9693,6.28
9705,5.01
9717,3.66
9729,2.39
9740,1.26
9751,0.26
9763,-0.7
9775,-1.73
9787,-2.85
9799,-4.05
9811,-5.21
9823,-6.27
9835,-7.15
9847,-7.91
9859,-8.68
9871,-9.63
9883,-10.93
9895,-12.64
9907,-14.66
9919,-16.71
9930,-18.32
9941,-19.0
9953,-18.3
9965,-16.02
9977,-12.29
9989,-7.52
10001,-2.32
10013,2.69
10025,7.08
10037,10.57
10049,13.15
10061,14.89
10073,15.93
10085,16.41
10097,16.42
10109,16.04
10120,15.34
10131,14.42
10143,13.44
10155,12.54
10167,11.8
10179,11.22
10191,10.74
10203,10.27
10215,9.73
10227,9.16
10239,8.62
10251,8.15
10263,7.71
10275,7.14
10287,6.33
10299,5.19
10310,3.84
10321,2.49
10333,1.3
10345,0.34
10357,-0.51
10369,-1.46
10381,-2.63
10393,-4.02
10405,-5.48
10417,-6.82
10429,-7.91
10441,-8.75
10453,-9.43
10465,-10.12
10477,-10.98
10489,-12.14
10500,-13.65
10511,-15.44
10523,-17.28
10535,-18.82
10547,-19.62
10559,-19.32
10571,-17.76
10583,-15.05
10595,-11.48
10607,-7.47
10619,-3.38
10631,0.51
10643,3.99
10655,6.93
10667,9.21
10679,10.76
10690,11.61
10701,11.85
10713,11.64
10725,11.18
10737,10.63
10749,10.13
10761,9.79
10773,9.68
10785,9.77
10797,9.96
10809,10.13
10821,10.16
10833,10.01
10845,9.72
10857,9.42
10869,9.14
10880,8.87
10891,8.5
10903,7.91
10915,7.06
10927,5.98
10939,4.77
10951,3.55
10963,2.39
10975,1.31
10987,0.26
10999,-0.82
11011,-1.97
11023,-3.21
11035,-4.51
11047,-5.86
11059,-7.25
11070,-8.71
11081,-10.28
11093,-11.89
11105,-13.34
11117,-14.33
11129,-14.5
11141,-13.62
11153,-11.67
11165,-8.86
11177,-5.57
11189,-2.21
11201,0.93
11213,3.67
11225,5.92
11237,7.64
11249,8.75
11260,9.22
11271,9.05
11283,8.35
11295,7.31
11307,6.13
11319,4.99
11331,3.99
11343,3.18
11355,2.56
11367,2.14
11379,1.91
11391,1.82
11403,1.82
11415,1.83
11427,1.76
11439,1.6
11450,1.37
11461,1.12
11473,0.89
11485,0.64
11497,0.32
11509,-0.19
11521,-0.93
11533,-1.87
11545,-2.91
11557,-3.89
11569,-4.72
11581,-5.4
11593,-6.03
11605,-6.73
11617,-7.6
11629,-8.62
11640,-9.76
11651,-10.98
11663,-12.32
11675,-13.82
11687,-15.4
11699,-16.81
11711,-17.58
11723,-17.23
11735,-15.5
11747,-12.47
11759,-8.58
11771,-4.43
11783,-0.57
11795,2.7
11807,5.34
11819,7.42
11830,9.02
11841,10.13
11853,10.69
11865,10.69
11877,10.29
11889,9.7
11901,9.2
11913,8.92
11925,8.85
11937,8.82
11949,8.67
11961,8.31
11973,7.79
11985,7.24
11997,6.81
12009,6.53
12020,6.34
12031,6.13
12043,5.8
12055,5.33
12067,4.75
12079,4.12
12091,3.47
12103,2.78
12115,2.0
12127,1.1
12139,0.1
12151,-1.0
12163,-2.16
12175,-3.39
12187,-4.68
12199,-6.02
12210,-7.3
12221,-8.49
12233,-9.57
12245,-10.58
12257,-11.66
12269,-12.9
12281,-14.31
12293,-15.72
12305,-16.89
12317,-17.52
12329,-17.36
12341,-16.24
12353,-14.13
12365,-11.1
12377,-7.36
12389,-3.22
12400,0.95
12411,4.77
12423,7.96
12435,10.35
12447,11.92
12459,12.74
12471,12.9
12483,12.55
12495,11.82
12507,10.92
12519,10.02
12531,9.28
12543,8.76
12555,8.42
12567,8.21
12579,8.07
12590,8.03
12601,8.12
12613,8.39
12625,8.78
12637,9.16
12649,9.35
12661,9.17
12673,8.55
12685,7.51
12697,6.18
12709,4.77
12721,3.47
12733,2.44
12745,1.74
12757,1.29
12769,0.95
12780,0.52
12791,-0.16
12803,-1.14
12815,-2.35
12827,-3.63
12839,-4.8
12851,-5.73
12863,-6.37
12875,-6.79
12887,-7.13
12899,-7.54
12911,-8.16
12923,-9.11
12935,-10.38
12947,-11.88
12959,-13.38
12970,-14.55
12981,-15.05
12993,-14.57
13005,-12.99
13017,-10.42
13029,-7.13
13041,-3.53
13053,0.01
13065,3.25
13077,6.08
13089,8.45
13101,10.37
13113,11.76
13125,12.55
13137,12.69
13149,12.2
13160,11.25
13171,10.06
13183,8.89
13195,7.95
13207,7.35
13219,7.12
13231,7.19
13243,7.44
13255,7.74
13267,7.95
13279,7.96
13291,7.73
13303,7.26
13315,6.61
13327,5.85
13339,5.08
13350,4.35
13361,3.72
13373,3.18
13385,2.73
13397,2.29
13409,1.75
13421,1.06
13433,0.13
13445,-1.0
13457,-2.24
13469,-3.45
13481,-4.51
13493,-5.36
13505,-6.03
13517,-6.64
13529,-7.33
13540,-8.22
13551,-9.38
13563,-10.75
13575,-12.2
13587,-13.48
13599,-14.27
13611,-14.17
13623,-12.92
13635,-10.39
13647,-6.76
13659,-2.46
13671,1.97
13683,6.01
13695,9.36
13707,11.92
13719,13.75
13730,14.93
13741,15.47
13753,15.3
13765,14.36
13777,12.7
13789,10.56
13801,8.33
13813,6.41
13825,5.09
13837,4.44
13849,4.32
13861,4.49
13873,4.74
13885,4.95
13897,5.11
13909,5.22
13920,5.24
13931,5.03
13943,4.46
13955,3.5
13967,2.25
13979,0.96
13991,-0.14
14003,-0.95
14015,-1.52
14027,-2.02
14039,-2.64
14051,-3.47
14063,-4.48
14075,-5.57
14087,-6.65
14099,-7.66
14110,-8.61
14121,-9.51
14133,-10.4
14145,-11.29
14157,-12.21
14169,-13.18
14181,-14.23
14193,-15.31
14205,-16.31
14217,-17.02
14229,-17.12
14241,-16.35
14253,-14.49
14265,-11.55
14277,-7.75
14289,-3.46
14300,0.88
14311,4.9
14323,8.35
14335,11.08
14347,13.01
14359,14.08
14371,14.27
14383,13.62
14395,12.29
14407,10.57
14419,8.8
14431,7.29
14443,6.23
14455,5.64
14467,5.43
14479,5.43
14490,5.48
14501,5.49
14513,5.45
14525,5.45
14537,5.54
14549,5.74
14561,5.93
14573,5.92
14585,5.53
14597,4.68
14609,3.42
14621,1.93
14633,0.43
14645,-0.89
14657,-1.92
14669,-2.67
14680,-3.21
14691,-3.67
14703,-4.16
14715,-4.77
14727,-5.54
14739,-6.43
14751,-7.35
14763,-8.19
14775,-8.89
14787,-9.47
14799,-10.01
14811,-10.62
14823,-11.42
14835,-12.46
14847,-13.7
14859,-15.01
14870,-16.18
14881,-16.91
14893,-16.91
14905,-15.94
14917,-13.91
14929,-10.91
14941,-7.16
14953,-3.0
14965,1.21
14977,5.16
14989,8.61
15001,11.38
15013,13.33
15025,14.39
15037,14.54
15049,13.87
15060,12.56
15071,10.86
15083,9.03
15095,7.34
15107,5.96
15119,4.99
15131,4.44
15143,4.21
15155,4.2
15167,4.25
15179,4.22
15191,3.99
15203,3.53
15215,2.88
15227,2.18
15239,1.55
15250,1.06
15261,0.72
15273,0.4
15285,-0.01
15297,-0.63
15309,-1.45
15321,-2.41
15333,-3.37
15345,-4.23
15357,-4.98
15369,-5.64
15381,-6.3
15393,-6.99
15405,-7.68
15417,-8.3
15429,-8.75
15440,-9.02
15451,-9.17
15463,-9.36
15475,-9.79
15487,-10.61
15499,-11.88
15511,-13.51
15523,-15.25
15535,-16.73
15547,-17.55
15559,-17.36
15571,-15.97
15583,-13.45
15595,-10.06
15607,-6.2
15619,-2.28
15630,1.38
15641,4.61
15653,7.32
15665,9.45
15677,10.91
15689,11.6
15701,11.49
15713,10.7
15725,9.5
15737,8.17
15749,6.98
15761,6.05
15773,5.38
15785,4.89
15797,4.57
15809,4.42
15820,4.49
15831,4.76
15843,5.18
15855,5.59
15867,5.83
15879,5.82
15891,5.56
15903,5.12
15915,4.61
15927,4.07
15939,3.48
15951,2.76
15963,1.87
15975,0.81
15987,-0.36
15999,-1.56
16010,-2.76
16021,-3.98
16033,-5.24
16045,-6.5
16057,-7.73
16069,-8.82
16081,-9.71
16093,-10.44
16105,-11.11
16117,-11.86
16129,-12.73
16141,-13.64
16153,-14.32
16165,-14.45
16177,-13.72
16189,-11.94
16200,-9.13
16211,-5.44
16223,-1.19
16235,3.27
16247,7.59
16259,11.42
16271,14.46
16283,16.49
16295,17.39
16307,17.18
16319,16.03
16331,14.22
16343,12.06
16355,9.86
16367,7.89
16379,6.29
16390,5.16
16401,4.48
16413,4.15
16425,4.06
16437,4.08
16449,4.12
16461,4.13
16473,4.11
16485,4.03
16497,3.81
16509,3.36
16521,2.62
16533,1.61
16545,0.46
16557,-0.68
16569,-1.68
16580,-2.55
16591,-3.35
16603,-4.2
16615,-5.15
16627,-6.21
16639,-7.32
16651,-8.41
16663,-9.43
16675,-10.35
16687,-11.18
16699,-11.98
16711,-12.84
16723,-13.84
16735,-15.03
16747,-16.31
16759,-17.42
16770,-17.98
16781,-17.6
16793,-16.05
16805,-13.34
16817,-9.72
16829,-5.59
16841,-1.31
16853,2.81
16865,6.56
16877,9.76
16889,12.24
16901,13.87
16913,14.57
16925,14.38
16937,13.41
16949,11.89
16960,10.07
16971,8.21
16983,6.55
16995,5.29
17007,4.5
17019,4.18
17031,4.22
17043,4.43
17055,4.68
17067,4.87
17079,4.98
17091,4.99
17103,4.91
17115,4.68
17127,4.23
17139,3.52
17150,2.57
17161,1.46
17173,0.33
17185,-0.72
17197,-1.63
17209,-2.49
17221,-3.41
17233,-4.48
17245,-5.74
17257,-7.07
17269,-8.29
17281,-9.24
17293,-9.84
17305,-10.14
17317,-10.28
17329,-10.47
17340,-10.91
17351,-11.72
17363,-12.9
17375,-14.25
17387,-15.39
17399,-15.84
17411,-15.17
17423,-13.15
17435,-9.83
17447,-5.59
17459,-0.97
17471,3.49
17483,7.42
17495,10.66
17507,13.19
17519,15.01
17530,16.07
17541,16.27
17553,15.58
17565,14.11
17577,12.18
17589,10.21
17601,8.59
17613,7.57
17625,7.18
17637,7.28
17649,7.63
17661,7.97
17673,8.16
17685,8.14
17697,7.94
17709,7.62
17720,7.26
17731,6.86
17743,6.4
17755,5.76
17767,4.85
17779,3.62
17791,2.14
17803,0.53
17815,-1.03
17827,-2.43
17839,-3.62
17851,-4.68
17863,-5.68
17875,-6.72
17887,-7.82
17899,-8.96
17910,-10.05
17921,-11.0
17933,-11.77
17945,-12.4
17957,-12.95
17969,-13.54
17981,-14.24
17993,-15.09
18005,-16.06
18017,-17.07
18029,-17.94
18041,-18.46
18053,-18.35
18065,-17.39
18077,-15.48
18089,-12.69
18100,-9.29
18111,-5.64
18123,-2.14
18135,0.91
18147,3.29
18159,4.93
18171,5.81
18183,6.0
18195,5.61
18207,4.79
18219,3.72
18231,2.58
18243,1.55
18255,0.78
18267,0.35
18279,0.32
18290,0.67
18301,1.32
18313,2.16
18325,3.03
18337,3.82
18349,4.41
18361,4.76
18373,4.89
18385,4.86
18397,4.76
18409,4.64
18421,4.53
18433,4.38
18445,4.14
18457,3.79
18469,3.33
18480,2.86
18491,2.46
18503,2.2
18515,2.04
18527,1.88
18539,1.63
18551,1.2
18563,0.61
18575,-0.07
18587,-0.73
18599,-1.26
18611,-1.54
18623,-1.47
18635,-0.89
18647,0.32
18659,2.23
18670,4.78
18681,7.76
18693,10.89
18705,13.85
18717,16.4
18729,18.38
18741,19.7
18753,20.31
18765,20.12
18777,19.11
18789,17.3
18801,14.81
18813,11.91
18825,8.91
18837,6.17
18849,3.93
18860,2.34
18871,1.34
18883,0.77
18895,0.34
18907,-0.17
18919,-0.93
18931,-1.99
18943,-3.3
18955,-4.77
18967,-6.31
18979,-7.87
18991,-9.42
19003,-10.94
19015,-12.43
19027,-13.9
19039,-15.31
19050,-16.65
19061,-17.88
19073,-18.91
19085,-19.72
19097,-20.3
19109,-20.7
19121,-21.0
19133,-21.3
19145,-21.7
19157,-22.26
19169,-22.98
19181,-23.77
19193,-24.43
19205,-24.64
19217,-24.09
19229,-22.51
19240,-19.86
19251,-16.24
19263,-11.96
19275,-7.41
19287,-2.92
19299,1.19
19311,4.73
19323,7.51
19335,9.44
19347,10.44
19359,10.56
19371,9.93
19383,8.82
19395,7.55
19407,6.47
19419,5.88
19430,5.96
19441,6.75
19453,8.19
19465,10.06
19477,12.11
19489,14.07
19501,15.69
19513,16.82
19525,17.41
19537,17.52
19549,17.24
19561,16.71
19573,16.03
19585,15.23
19597,14.31
19609,13.26
19620,12.05
19631,10.75
19643,9.4
19655,8.01
19667,6.55
19679,4.94
19691,3.11
19703,1.02
19715,-1.27
19727,-3.59
19739,-5.71
19751,-7.37
19763,-8.33
19775,-8.43
19787,-7.63
19799,-5.98
19810,-3.63
19821,-0.81
19833,2.21
19845,5.11
19857,7.62
19869,9.5
19881,10.65
19893,11.02
19905,10.69
19917,9.78
19929,8.48
19941,6.97
19953,5.45
19965,4.07
19977,2.92
19989,1.96
20000,1.11
20011,0.29
20023,-0.5
20035,-1.09
20047,-1.23
20059,-0.72
20071,0.49
20083,2.23
20095,4.12
20107,5.7
20119,6.62
20131,6.73
20143,6.11
20155,5.04
20167,3.84
20179,2.75
20190,1.78
20201,0.75
20213,-0.6
20225,-2.48
20237,-4.97
20249,-7.89
20261,-10.94
20273,-13.73
20285,-15.87
20297,-17.03
20309,-17.0
20321,-15.67
20333,-13.11
20345,-9.55
20357,-5.37
20369,-1.0
20380,3.11
20391,6.56
20403,9.08
20415,10.56
20427,11.07
20439,10.8
20451,10.01
20463,8.92
20475,7.63
20487,6.14
20499,4.39
20511,2.32
20523,0.03
20535,-2.31
20547,-4.47
20559,-6.25
20570,-7.52
20581,-8.26
20593,-8.52
20605,-8.4
20617,-8.05
20629,-7.63
20641,-7.3
20653,-7.15
20665,-7.22
20677,-7.46
20689,-7.77
20701,-8.05
20713,-8.27
20725,-8.46
20737,-8.73
20749,-9.26
20760,-10.16
20771,-11.44
20783,-12.91
20795,-14.16
20807,-14.67
20819,-14.01
20831,-12.0
20843,-8.82
20855,-4.93
20867,-0.88
20879,2.93
20891,6.36
20903,9.43
20915,12.17
20927,14.49
20939,16.16
20950,16.91
20961,16.62
20973,15.44
20985,13.71
20997,11.82
