seconds,BVP
11,34.76
23,36.38
35,36.31
47,35.01
59,32.92
71,30.28
83,27.25
95,23.99
107,20.74
119,17.79
131,15.28
143,13.22
155,11.45
166,9.79
177,8.19
189,6.74
201,5.61
213,4.97
225,4.9
237,5.37
249,6.29
261,7.54
273,9.01
285,10.58
297,12.15
309,13.63
321,14.99
333,16.3
345,17.68
356,19.25
367,21.05
379,23.0
391,24.92
403,26.7
415,28.38
427,30.18
439,32.38
451,35.2
463,38.58
475,42.22
487,45.7
499,48.68
511,51.15
523,53.35
535,55.68
546,58.38
557,61.41
569,64.46
581,67.12
593,69.24
605,71.02
617,72.99
629,75.74
641,79.51
653,83.94
665,88.01
677,90.25
689,89.13
701,83.59
713,73.3
725,58.77
736,41.22
747,22.05
759,2.48
771,-16.66
783,-35.07
795,-52.64
807,-69.27
819,-84.81
831,-99.1
843,-112.01
855,-123.06
867,-131.16
879,-134.66
891,-132.04
903,-122.91
915,-108.79
926,-92.87
937,-78.79
949,-69.03
961,-63.92
973,-61.73
985,-59.96
997,-56.84
1009,-52.08
1021,-46.69
1033,-41.88
1045,-38.15
1057,-35.1
1069,-31.91
1081,-28.11
1093,-23.97
1105,-20.29
1116,-17.84
1127,-17.02
1139,-17.72
1151,-19.31
1163,-21.11
1175,-22.58
1187,-23.47
1199,-23.96
1211,-24.45
1223,-25.46
1235,-27.34
1247,-30.14
1259,-33.54
1271,-37.06
1283,-40.28
1295,-43.07
1306,-45.58
1317,-48.1
1329,-50.75
1341,-53.36
1353,-55.52
1365,-56.77
1377,-56.89
1389,-55.97
1401,-54.32
1413,-52.24
1425,-49.86
1437,-47.12
1449,-43.84
1461,-39.87
1473,-35.19
1485,-29.93
1496,-24.28
1507,-18.46
1519,-12.71
1531,-7.22
1543,-2.14
1555,2.54
1567,7.04
1579,11.84
1591,17.6
1603,24.94
1615,34.25
1627,45.52
1639,58.24
1651,71.42
1663,83.85
1675,94.33
1686,102.07
1697,106.85
1709,109.13
1721,109.8
1733,109.9
1745,110.21
1757,111.05
1769,112.25
1781,113.27
1793,113.5
1805,112.5
1817,110.13
1829,106.52
1841,101.89
1853,96.44
1865,90.22
1876,83.19
1887,75.33
1899,66.65
1911,57.27
1923,47.21
1935,36.39
1947,24.67
1959,11.99
1971,-1.42
1983,-14.9
1995,-27.62
2007,-38.83
2019,-48.2
2031,-55.85
2043,-61.95
2055,-66.44
2066,-68.76
2077,-68.18
2089,-64.21
2101,-57.17
2113,-48.17
2125,-38.75
2137,-30.29
2149,-23.51
2161,-18.45
2173,-14.86
2185,-12.58
2197,-11.78
2209,-12.8
2221,-15.73
2233,-20.15
2245,-25.07
2256,-29.31
2267,-31.96
2279,-32.65
2291,-31.6
2303,-29.44
2315,-26.9
2327,-24.44
2339,-22.24
2351,-20.22
2363,-18.22
2375,-16.17
2387,-14.15
2399,-12.35
2411,-10.93
2423,-9.96
2435,-9.29
2446,-8.72
2457,-8.04
2469,-7.12
2481,-5.99
2493,-4.79
2505,-3.75
2517,-3.04
2529,-2.77
2541,-2.91
2553,-3.27
2565,-3.58
2577,-3.56
2589,-3.05
2601,-2.08
2613,-0.86
2625,0.33
2636,1.24
2647,1.85
2659,2.27
2671,2.7
2683,3.26
2695,3.89
2707,4.45
2719,4.76
2731,4.8
2743,4.68
2755,4.57
2767,4.55
2779,4.57
2791,4.49
2803,4.17
2815,3.61
2826,2.95
2837,2.39
2849,2.11
2861,2.14
2873,2.36
2885,2.53
2897,2.43
2909,1.87
2921,0.86
2933,-0.47
2945,-1.81
2957,-2.83
2969,-3.33
2981,-3.31
2993,-2.95
3005,-2.55
3016,-2.33
3027,-2.31
3039,-2.34
3051,-2.23
3063,-1.84
3075,-1.19
3087,-0.43
3099,0.33
3111,1.01
3123,1.68
3135,2.44
3147,3.38
3159,4.51
3171,5.75
3183,6.95
3195,7.96
3206,8.66
3217,9.01
3229,9.02
3241,8.76
3253,8.3
3265,7.67
3277,6.89
3289,6.03
3301,5.25
3313,4.82
3325,5.02
3337,5.92
3349,7.27
3361,8.49
3373,8.91
3385,8.04
3396,5.8
3407,2.57
3419,-0.97
3431,-4.18
3443,-6.61
3455,-8.07
3467,-8.62
3479,-8.38
3491,-7.58
3503,-6.45
3515,-5.31
3527,-4.46
3539,-4.09
3551,-4.21
3563,-4.64
3575,-5.08
3586,-5.25
3597,-5.0
3609,-4.3
3621,-3.27
3633,-2.06
3645,-0.82
3657,0.35
3669,1.42
3681,2.47
3693,3.59
3705,4.81
3717,6.09
3729,7.26
3741,8.15
3753,8.6
3765,8.66
3776,8.49
3787,8.33
3799,8.35
3811,8.59
3823,8.94
3835,9.22
3847,9.26
3859,8.94
3871,8.27
3883,7.2
3895,5.73
3907,3.78
3919,1.31
3931,-1.64
3943,-4.91
3955,-8.19
3966,-11.12
3977,-13.39
3989,-14.81
4001,-15.39
4013,-15.27
4025,-14.63
4037,-13.61
4049,-12.27
4061,-10.6
4073,-8.61
4085,-6.38
4097,-4.02
4109,-1.73
4121,0.3
4133,1.94
4145,3.11
4156,3.79
4167,4.04
4179,4.01
4191,3.89
4203,3.89
4215,4.15
4227,4.63
4239,5.15
4251,5.44
4263,5.29
4275,4.65
4287,3.7
4299,2.71
4311,1.91
4323,1.41
4335,1.14
4346,0.98
4357,0.84
4369,0.73
4381,0.78
4393,1.09
4405,1.75
4417,2.7
4429,3.8
4441,4.87
4453,5.78
4465,6.48
4477,7.01
4489,7.48
4501,7.95
4513,8.44
4525,8.86
4536,9.1
4547,9.05
4559,8.72
4571,8.28
4583,7.99
4595,8.08
4607,8.63
4619,9.53
4631,10.57
4643,11.51
4655,12.2
4667,12.63
4679,12.92
4691,13.26
4703,13.82
4715,14.74
4726,16.15
4737,18.1
4749,20.62
4761,23.59
4773,26.78
4785,29.9
4797,32.65
4809,34.88
4821,36.61
4833,37.99
4845,39.26
4857,40.58
4869,42.0
4881,43.43
4893,44.61
4905,45.23
4916,44.93
4927,43.51
4939,40.96
4951,37.53
4963,33.7
4975,30.0
4987,26.77
4999,23.9
5011,20.75
5023,16.31
5035,9.54
5047,-0.15
5059,-12.51
5071,-26.35
5083,-39.79
5095,-50.87
5106,-58.14
5117,-61.04
5129,-60.0
5141,-56.2
5153,-51.09
5165,-45.95
5177,-41.67
5189,-38.61
5201,-36.79
5213,-35.98
5225,-35.89
5237,-36.27
5249,-36.87
5261,-37.46
5273,-37.7
5285,-37.23
5296,-35.66
5307,-32.7
5319,-28.39
5331,-23.14
5343,-17.77
5355,-13.33
5367,-10.79
5379,-10.7
5391,-12.95
5403,-16.73
5415,-20.74
5427,-23.59
5439,-24.28
5451,-22.44
5463,-18.42
5475,-13.01
5486,-7.11
5497,-1.44
5509,3.54
5521,7.61
5533,10.61
5545,12.33
5557,12.6
5569,11.39
5581,8.96
5593,5.9
5605,2.92
5617,0.64
5629,-0.59
5641,-0.85
5653,-0.48
5665,0.07
5676,0.48
5687,0.66
5699,0.7
5711,0.8
5723,1.09
5735,1.63
5747,2.46
5759,3.69
5771,5.51
5783,8.18
5795,11.89
5807,16.64
5819,22.15
5831,27.89
5843,33.23
5855,37.63
5866,40.89
5877,43.19
5889,45.02
5901,46.94
5913,49.31
5925,52.17
5937,55.16
5949,57.76
5961,59.52
5973,60.19
5985,59.79
5997,58.53
6009,56.66
6021,54.45
6033,52.2
6045,50.32
6056,49.17
6067,48.82
6079,48.76
6091,47.88
6103,44.79
6115,38.36
6127,28.33
6139,15.46
6151,1.29
6163,-12.45
6175,-24.52
6187,-34.45
6199,-42.44
6211,-49.0
6223,-54.59
6235,-59.52
6246,-64.07
6257,-68.65
6269,-73.85
6281,-80.25
6293,-88.05
6305,-96.84
6317,-105.6
6329,-112.91
6341,-117.45
6353,-118.41
6365,-115.83
6377,-110.45
6389,-103.35
6401,-95.39
6413,-86.92
6425,-77.79
6436,-67.62
6447,-56.3
6459,-44.11
6471,-31.72
6483,-19.8
6495,-8.8
6507,1.19
6519,10.18
6531,18.11
6543,24.68
6555,29.53
6567,32.4
6579,33.4
6591,32.92
6603,31.5
6615,29.56
6626,27.29
6637,24.69
6649,21.65
6661,18.13
6673,14.2
6685,9.95
6697,5.52
6709,1.02
6721,-3.46
6733,-7.84
6745,-11.98
6757,-15.77
6769,-19.03
6781,-21.63
6793,-23.51
6805,-24.62
6816,-25.04
6827,-24.85
6839,-24.19
6851,-23.18
6863,-21.91
6875,-20.46
6887,-18.91
6899,-17.33
6911,-15.77
6923,-14.24
6935,-12.68
6947,-10.98
6959,-9.0
6971,-6.58
6983,-3.55
6995,0.29
7006,5.15
7017,11.21
7029,18.44
7041,26.61
7053,35.2
7065,43.52
7077,50.91
7089,56.88
7101,61.31
7113,64.33
7125,66.27
7137,67.38
7149,67.82
7161,67.58
7173,66.59
7185,64.72
7196,61.76
7207,57.42
7219,51.34
7231,43.24
7243,33.09
7255,21.26
7267,8.52
7279,-4.15
7291,-15.85
7303,-26.03
7315,-34.49
7327,-41.28
7339,-46.46
7351,-50.01
7363,-51.85
7375,-51.95
7386,-50.48
7397,-47.77
7409,-44.24
7421,-40.15
7433,-35.65
7445,-30.72
7457,-25.36
7469,-19.67
7481,-13.95
7493,-8.64
7505,-4.19
7517,-0.97
7529,0.89
7541,1.47
7553,1.0
7565,-0.2
7576,-1.82
7587,-3.63
7599,-5.47
7611,-7.21
7623,-8.74
7635,-9.92
7647,-10.64
7659,-10.84
7671,-10.54
7683,-9.75
7695,-8.48
7707,-6.71
7719,-4.39
7731,-1.53
7743,1.74
7755,5.22
7766,8.58
7777,11.56
7789,13.97
7801,15.76
7813,17.07
7825,18.13
7837,19.17
7849,20.35
7861,21.73
7873,23.23
7885,24.76
7897,26.26
7909,27.74
7921,29.31
7933,31.07
7945,33.12
7956,35.45
7967,37.94
7979,40.47
7991,42.87
8003,45.04
8015,47.01
8027,48.87
8039,50.79
8051,52.93
8063,55.33
8075,57.86
8087,60.19
8099,61.88
8111,62.56
8123,62.02
8135,60.29
8146,57.57
8157,54.13
8169,50.22
8181,45.98
8193,41.5
8205,36.87
8217,32.26
8229,27.88
8241,23.97
8253,20.65
8265,17.92
8277,15.62
8289,13.48
8301,11.06
8313,7.84
8325,3.14
8336,-3.7
8347,-13.06
8359,-24.77
8371,-37.95
8383,-51.26
8395,-63.31
8407,-73.15
8419,-80.49
8431,-85.57
8443,-88.8
8455,-90.41
8467,-90.34
8479,-88.49
8491,-85.01
8503,-80.48
8515,-75.73
8526,-71.59
8537,-68.49
8549,-66.35
8561,-64.71
8573,-63.0
8585,-60.77
8597,-57.81
8609,-54.16
8621,-50.12
8633,-46.14
8645,-42.76
8657,-40.41
8669,-39.28
8681,-39.23
8693,-39.81
8705,-40.49
8716,-40.79
8727,-40.46
8739,-39.54
8751,-38.14
8763,-36.4
8775,-34.41
8787,-32.17
8799,-29.71
8811,-27.1
8823,-24.44
8835,-21.8
8847,-19.18
8859,-16.46
8871,-13.61
8883,-10.68
8895,-7.86
8906,-5.27
8917,-2.92
8929,-0.56
8941,2.17
8953,5.47
8965,9.21
8977,12.87
8989,15.75
9001,17.32
9013,17.41
9025,16.29
9037,14.43
9049,12.21
9061,9.75
9073,6.97
9085,3.76
9096,0.18
9107,-3.49
9119,-6.84
9131,-9.54
9143,-11.37
9155,-12.25
9167,-12.13
9179,-11.01
9191,-8.98
9203,-6.32
9215,-3.44
9227,-0.78
9239,1.47
9251,3.44
9263,5.64
9275,8.68
9286,13.01
9297,18.7
9309,25.41
9321,32.48
9333,39.17
9345,44.86
9357,49.14
9369,51.87
9381,53.13
9393,53.14
9405,52.2
9417,50.64
9429,48.77
9441,46.84
9453,45.1
9465,43.77
9476,42.93
9487,42.58
9499,42.56
9511,42.64
9523,42.64
9535,42.45
9547,42.13
9559,41.83
9571,41.67
9583,41.72
9595,41.93
9607,42.21
9619,42.47
9631,42.71
9643,43.04
9655,43.65
9666,44.73
9677,46.38
9689,48.57
9701,51.17
9713,53.98
9725,56.81
9737,59.52
9749,62.11
9761,64.65
9773,67.35
9785,70.41
9797,74.0
9809,78.16
9821,82.66
9833,87.05
9845,90.68
9856,92.85
9867,93.0
9879,90.82
9891,86.32
9903,79.82
9915,71.82
9927,62.83
9939,53.27
9951,43.28
9963,32.67
9975,21.02
9987,7.84
9999,-7.18
10011,-23.89
10023,-41.66
10035,-59.46
10046,-76.16
10057,-90.84
10069,-102.99
10081,-112.46
10093,-119.43
10105,-124.12
10117,-126.72
10129,-127.32
10141,-126.07
10153,-123.24
10165,-119.29
10177,-114.77
10189,-110.18
10201,-105.77
10213,-101.57
10225,-97.48
10236,-93.44
10247,-89.54
10259,-85.86
10271,-82.32
10283,-78.5
10295,-73.79
10307,-67.62
10319,-59.82
10331,-50.7
10343,-40.87
10355,-30.87
10367,-20.87
10379,-10.67
10391,-0.04
10403,10.93
10415,21.67
10426,31.19
10437,38.56
10449,43.18
10461,44.98
10473,44.21
10485,41.25
10497,36.43
10509,30.02
10521,22.34
10533,13.71
10545,4.47
10557,-5.09
10569,-14.73
10581,-24.09
10593,-32.49
10605,-38.9
10616,-42.15
10627,-41.34
10639,-36.28
10651,-27.75
10663,-17.17
10675,-6.21
10687,3.8
10699,12.13
10711,18.53
10723,22.99
10735,25.46
10747,25.81
10759,24.13
10771,20.83
10783,16.73
10795,12.76
10806,9.61
10817,7.5
10829,6.18
10841,5.2
10853,4.2
10865,3.06
10877,1.83
10889,0.66
10901,-0.33
10913,-1.08
10925,-1.57
10937,-1.83
10949,-1.92
10961,-1.95
10973,-2.09
10985,-2.44
10996,-2.96
11007,-3.45
11019,-3.61
11031,-3.16
11043,-1.99
11055,-0.18
11067,2.02
11079,4.28
11091,6.35
11103,8.09
11115,9.53
11127,10.78
11139,11.99
11151,13.3
11163,14.73
11175,16.25
11186,17.75
11197,19.18
11209,20.52
11221,21.78
11233,22.96
11245,24.08
11257,25.18
11269,26.29
11281,27.47
11293,28.7
11305,29.86
11317,30.75
11329,31.14
11341,31.02
11353,30.59
11365,30.27
11376,30.5
11387,31.61
11399,33.62
11411,36.24
11423,39.02
11435,41.47
11447,43.13
11459,43.64
11471,42.77
11483,40.48
11495,36.96
11507,32.56
11519,27.65
11531,22.44
11543,16.76
11555,10.18
11566,2.23
11577,-7.24
11589,-17.91
11601,-29.01
11613,-39.59
11625,-48.82
11637,-56.19
11649,-61.64
11661,-65.43
11673,-68.01
11685,-69.8
11697,-70.97
11709,-71.31
11721,-70.26
11733,-67.13
11745,-61.47
11756,-53.35
11767,-43.45
11779,-32.82
11791,-22.57
11803,-13.57
11815,-6.39
11827,-1.42
11839,1.07
11851,0.99
11863,-1.43
11875,-5.44
11887,-9.94
11899,-13.76
11911,-16.04
11923,-16.49
11935,-15.38
11946,-13.27
11957,-10.69
11969,-7.99
11981,-5.3
11993,-2.68
12005,-0.2
12017,2.03
12029,3.94
12041,5.66
12053,7.54
12065,10.07
12077,13.65
12089,18.37
12101,23.93
12113,29.67
12125,34.85
12136,38.81
12147,41.15
12159,41.65
12171,40.21
12183,36.8
12195,31.52
12207,24.75
12219,17.15
12231,9.69
12243,3.31
12255,-1.24
12267,-3.63
12279,-3.93
12291,-2.47
12303,0.29
12315,3.81
12326,7.51
12337,10.81
12349,13.18
12361,14.27
12373,14.05
12385,12.8
12397,11.0
12409,9.19
12421,7.73
12433,6.83
12445,6.49
12457,6.66
12469,7.3
12481,8.28
12493,9.41
12505,10.33
12516,10.59
12527,9.74
12539,7.47
12551,3.66
12563,-1.62
12575,-8.13
12587,-15.54
12599,-23.42
12611,-31.29
12623,-38.63
12635,-44.99
12647,-50.02
12659,-53.48
12671,-55.26
12683,-55.3
12695,-53.7
12706,-50.75
12717,-47.02
12729,-43.31
12741,-40.42
12753,-38.78
12765,-38.14
12777,-37.56
12789,-35.73
12801,-31.51
12813,-24.48
12825,-15.13
12837,-4.79
12849,4.93
12861,12.57
12873,17.22
12885,18.58
12896,16.86
12907,12.61
12919,6.57
12931,-0.37
12943,-7.24
12955,-13.08
12967,-17.12
12979,-18.87
12991,-18.2
13003,-15.28
13015,-10.55
13027,-4.7
13039,1.31
13051,6.41
13063,9.57
13075,10.17
13086,8.16
13097,4.18
13109,-0.7
13121,-5.21
13133,-8.34
13145,-9.48
13157,-8.54
13169,-5.78
13181,-1.67
13193,3.26
13205,8.48
13217,13.51
13229,17.82
13241,20.99
13253,22.73
13265,23.03
13276,22.16
13287,20.65
13299,19.07
13311,17.81
13323,17.01
13335,16.52
13347,16.05
13359,15.38
13371,14.38
13383,13.11
13395,11.7
13407,10.29
13419,9.01
13431,7.98
13443,7.28
13455,6.97
13466,7.03
13477,7.39
13489,7.9
13501,8.45
13513,8.97
13525,9.47
13537,9.98
13549,10.54
13561,11.11
13573,11.62
13585,12.0
13597,12.2
13609,12.21
13621,12.04
13633,11.73
13645,11.38
13656,11.05
13667,10.85
13679,10.84
13691,11.03
13703,11.39
13715,11.87
13727,12.41
13739,13.02
13751,13.71
13763,14.54
13775,15.59
13787,16.91
13799,18.55
13811,20.54
13823,22.8
13835,25.22
13846,27.7
13857,30.18
13869,32.75
13881,35.57
13893,38.71
13905,41.99
13917,44.89
13929,46.61
13941,46.31
13953,43.4
13965,37.67
13977,29.34
13989,18.92
14001,7.03
14013,-5.66
14025,-18.51
14036,-30.93
14047,-42.51
14059,-53.17
14071,-63.03
14083,-72.25
14095,-80.61
14107,-87.26
14119,-90.95
14131,-90.53
14143,-85.58
14155,-76.81
14167,-65.87
14179,-54.72
14191,-44.91
14203,-37.1
14215,-31.06
14226,-26.02
14237,-21.19
14249,-16.0
14261,-10.2
14273,-3.84
14285,2.83
14297,9.41
14309,15.41
14321,20.34
14333,23.89
14345,25.94
14357,26.57
14369,25.93
14381,24.11
14393,21.14
14405,17.13
14416,12.38
14427,7.39
14439,2.8
14451,-0.86
14463,-3.29
14475,-4.53
14487,-4.79
14499,-4.35
14511,-3.38
14523,-1.94
14535,-0.05
14547,2.29
14559,4.92
14571,7.61
14583,10.06
14595,12.01
14606,13.33
14617,14.1
14629,14.55
14641,14.98
14653,15.66
14665,16.68
14677,17.97
14689,19.39
14701,20.76
14713,21.99
14725,23.02
14737,23.78
14749,24.14
14761,23.91
14773,23.01
14785,21.44
14796,19.38
14807,17.06
14819,14.63
14831,12.16
14843,9.68
14855,7.31
14867,5.3
14879,4.03
14891,3.75
14903,4.5
14915,5.97
14927,7.61
14939,8.91
14951,9.49
14963,9.34
14975,8.63
14986,7.61
14997,6.38
15009,4.84
15021,2.73
15033,-0.22
15045,-4.12
15057,-8.86
15069,-14.08
15081,-19.21
15093,-23.54
15105,-26.31
15117,-26.9
15129,-24.92
15141,-20.49
15153,-14.26
15165,-7.35
15176,-1.11
15187,3.32
15199,5.31
15211,5.0
15223,3.3
15235,1.6
15247,1.36
15259,3.58
15271,8.49
15283,15.43
15295,23.13
15307,30.24
15319,35.77
15331,39.39
15343,41.39
15355,42.33
15366,42.67
15377,42.42
15389,41.19
15401,38.38
15413,33.44
15425,26.17
15437,16.74
15449,5.75
15461,-5.89
15473,-17.03
15485,-26.46
15497,-33.12
15509,-36.3
15521,-35.85
15533,-32.21
15545,-26.26
15556,-19.11
15567,-11.85
15579,-5.35
15591,-0.19
15603,3.4
15615,5.49
15627,6.47
15639,6.92
15651,7.5
15663,8.76
15675,10.88
15687,13.63
15699,16.45
15711,18.54
15723,19.2
15735,18.06
15746,15.24
15757,11.47
15769,7.81
15781,5.31
15793,4.53
15805,5.14
15817,5.98
15829,5.43
15841,2.04
15853,-4.8
15865,-14.6
15877,-25.91
15889,-36.87
15901,-45.87
15913,-51.96
15925,-54.98
15936,-55.35
15947,-53.75
15959,-50.79
15971,-47.0
15983,-42.73
15995,-38.32
16007,-34.09
16019,-30.43
16031,-27.66
16043,-25.93
16055,-25.18
16067,-25.13
16079,-25.37
16091,-25.53
16103,-25.4
16115,-25.05
16126,-24.76
16137,-24.81
16149,-25.36
16161,-26.27
16173,-27.15
16185,-27.54
16197,-27.09
16209,-25.73
16221,-23.62
16233,-21.06
16245,-18.29
16257,-15.43
16269,-12.51
16281,-9.56
16293,-6.71
16305,-4.18
16316,-2.23
16327,-1.03
16339,-0.53
16351,-0.56
16363,-0.77
16375,-0.86
16387,-0.59
16399,0.12
16411,1.21
16423,2.52
16435,3.82
16447,4.9
16459,5.6
16471,5.81
16483,5.56
16495,4.94
16506,4.11
16517,3.19
16529,2.25
16541,1.25
16553,0.01
16565,-1.64
16577,-3.85
16589,-6.63
16601,-9.85
16613,-13.25
16625,-16.59
16637,-19.67
16649,-22.37
16661,-24.65
16673,-26.51
16685,-28.04
16696,-29.35
16707,-30.54
16719,-31.62
16731,-32.28
16743,-31.92
16755,-29.78
16767,-25.26
16779,-18.25
16791,-9.3
16803,0.61
16815,10.42
16827,19.4
16839,27.33
16851,34.32
16863,40.54
16875,45.96
16886,50.35
16897,53.46
16909,55.23
16921,55.93
16933,55.93
16945,55.58
16957,54.95
16969,53.81
16981,51.8
16993,48.68
17005,44.48
17017,39.55
17029,34.53
17041,30.16
17053,27.1
17065,25.78
17076,26.22
17087,28.11
17099,30.82
17111,33.62
17123,35.89
17135,37.32
17147,37.96
17159,38.1
17171,37.98
17183,37.55
17195,36.4
17207,33.85
17219,29.24
17231,22.19
17243,12.68
17255,1.06
17266,-12.01
17277,-25.62
17289,-38.67
17301,-49.97
17313,-58.49
17325,-63.6
17337,-65.35
17349,-64.41
17361,-61.8
17373,-58.56
17385,-55.36
17397,-52.5
17409,-50.04
17421,-48.01
17433,-46.47
17445,-45.48
17456,-44.97
17467,-44.68
17479,-44.22
17491,-43.23
17503,-41.49
17515,-38.93
17527,-35.57
17539,-31.37
17551,-26.26
17563,-20.08
17575,-12.74
17587,-4.3
17599,4.89
17611,14.21
17623,22.78
17635,29.58
17646,33.7
17657,34.61
17669,32.43
17681,28.03
17693,22.88
17705,18.67
17717,16.82
17729,18.04
17741,22.11
17753,28.03
17765,34.36
17777,39.81
17789,43.62
17801,45.65
17813,46.31
17825,46.16
17836,45.61
17847,44.75
17859,43.48
17871,41.67
17883,39.46
17895,37.2
17907,35.35
17919,34.25
17931,33.92
17943,34.07
17955,34.22
17967,33.88
17979,32.68
17991,30.44
18003,27.16
18015,23.07
18026,18.65
18037,14.54
18049,11.47
18061,10.03
18073,10.46
18085,12.54
18097,15.65
18109,18.91
18121,21.44
18133,22.56
18145,21.94
18157,19.61
18169,15.88
18181,11.19
18193,6.03
18205,0.75
18216,-4.41
18227,-9.32
18239,-13.84
18251,-17.72
18263,-20.65
18275,-22.37
18287,-22.74
18299,-21.92
18311,-20.26
18323,-18.25
18335,-16.34
18347,-14.86
18359,-13.95
18371,-13.66
18383,-13.89
18395,-14.42
18406,-14.93
18417,-15.05
18429,-14.48
18441,-13.07
18453,-10.84
18465,-8.0
18477,-4.81
18489,-1.52
18501,1.65
18513,4.55
18525,7.01
18537,8.94
18549,10.37
18561,11.46
18573,12.38
18585,13.22
18596,13.89
18607,14.04
18619,13.26
18631,11.19
18643,7.61
18655,2.6
18667,-3.54
18679,-10.26
18691,-16.78
18703,-22.31
18715,-26.13
18727,-27.88
18739,-27.69
18751,-26.15
18763,-24.13
18775,-22.46
18786,-21.65
18797,-21.83
18809,-22.82
18821,-24.4
18833,-26.47
18845,-29.05
18857,-32.18
18869,-35.68
18881,-39.07
18893,-41.62
18905,-42.61
18917,-41.66
18929,-38.91
18941,-35.04
18953,-30.96
18965,-27.41
18976,-24.64
18987,-22.4
18999,-20.15
19011,-17.47
19023,-14.36
19035,-11.2
19047,-8.59
19059,-6.93
19071,-6.23
19083,-6.16
19095,-6.17
19107,-5.84
19119,-4.94
19131,-3.52
19143,-1.68
19155,0.49
19166,2.97
19177,5.69
19189,8.46
19201,10.95
19213,12.82
19225,13.88
19237,14.23
19249,14.2
19261,14.21
19273,14.57
19285,15.36
19297,16.44
19309,17.63
19321,18.79
19333,19.95
19345,21.22
19356,22.64
19367,24.15
19379,25.6
19391,26.8
19403,27.65
19415,28.16
19427,28.4
19439,28.5
19451,28.57
19463,28.76
19475,29.22
19487,30.08
19499,31.32
19511,32.69
19523,33.72
19535,33.86
19546,32.71
19557,30.23
19569,26.74
19581,22.76
19593,18.71
19605,14.72
19617,10.62
19629,6.09
19641,0.93
19653,-4.85
19665,-11.03
19677,-17.51
19689,-24.27
19701,-31.3
19713,-38.18
19725,-43.94
19736,-47.34
19747,-47.48
19759,-44.4
19771,-39.26
19783,-33.78
19795,-29.46
19807,-26.82
19819,-25.4
19831,-24.21
19843,-22.51
19855,-20.28
19867,-18.06
19879,-16.49
19891,-15.77
19903,-15.53
19915,-15.21
19926,-14.41
19937,-13.27
19949,-12.27
19961,-11.99
19973,-12.67
19985,-14.19
19997,-16.03
20009,-17.56
20021,-18.33
20033,-18.19
20045,-17.31
20057,-16.14
20069,-15.13
20081,-14.65
20093,-14.84
20105,-15.55
20116,-16.45
20127,-17.1
20139,-17.06
20151,-16.01
20163,-13.76
20175,-10.37
20187,-6.03
20199,-1.1
20211,4.0
20223,8.91
20235,13.31
20247,17.04
20259,20.04
20271,22.4
20283,24.26
20295,25.78
20306,27.11
20317,28.35
20329,29.51
20341,30.51
20353,31.14
20365,31.11
20377,30.14
20389,27.99
20401,24.61
20413,20.11
20425,14.81
20437,9.14
20449,3.57
20461,-1.49
20473,-5.75
20485,-9.07
20496,-11.5
20507,-13.2
20519,-14.42
20531,-15.41
20543,-16.34
20555,-17.32
20567,-18.37
20579,-19.48
20591,-20.59
20603,-21.55
20615,-22.11
20627,-21.94
20639,-20.81
20651,-18.64
20663,-15.66
20675,-12.24
20686,-8.83
20697,-5.86
20709,-3.63
20721,-2.41
20733,-2.35
20745,-3.39
20757,-5.07
20769,-6.48
20781,-6.32
20793,-3.4
20805,2.84
20817,11.91
20829,22.16
20841,31.36
20853,37.37
20865,38.98
20876,36.24
20887,30.32
20899,22.96
20911,15.8
20923,9.9
20935,5.68
20947,3.14
20959,2.08
20971,2.33
20983,3.74
20995,5.96
