seconds,BVP
1,11.32
13,11.41
25,11.67
37,12.15
49,12.83
61,13.56
73,14.12
85,14.33
97,14.12
109,13.55
121,12.79
132,12.01
143,11.27
155,10.52
167,9.65
179,8.57
191,7.28
203,5.93
215,4.68
227,3.62
239,2.75
251,1.98
263,1.14
275,0.1
287,-1.24
299,-2.95
311,-5.1
322,-7.67
333,-10.57
345,-13.47
357,-15.92
369,-17.35
381,-17.35
393,-15.81
405,-12.94
417,-9.27
429,-5.41
441,-1.87
453,1.03
465,3.2
477,4.67
489,5.53
501,5.81
512,5.56
523,4.88
535,3.94
547,3.0
559,2.29
571,1.98
583,2.08
595,2.46
607,2.89
619,3.15
631,3.11
643,2.82
655,2.4
667,2.04
679,1.85
691,1.8
702,1.68
713,1.26
725,0.4
737,-0.87
749,-2.33
761,-3.67
773,-4.72
785,-5.48
797,-6.13
809,-6.96
821,-8.17
833,-9.82
845,-11.81
857,-13.99
869,-16.16
881,-18.1
892,-19.56
903,-20.16
915,-19.6
927,-17.64
939,-14.37
951,-10.2
963,-5.77
975,-1.7
987,1.55
999,3.9
1011,5.49
1023,6.62
1035,7.5
1047,8.18
1059,8.65
1071,8.91
1082,9.08
1093,9.36
1105,9.95
1117,10.88
1129,11.97
1141,12.89
1153,13.35
1165,13.22
1177,12.65
1189,11.92
1201,11.35
1213,11.04
1225,10.89
1237,10.62
1249,9.97
1261,8.83
1272,7.27
1283,5.53
1295,3.87
1307,2.46
1319,1.31
1331,0.29
1343,-0.81
1355,-2.18
1367,-3.96
1379,-6.2
1391,-8.79
1403,-11.43
1415,-13.68
1427,-15.08
1439,-15.22
1451,-13.98
1462,-11.54
1473,-8.34
1485,-4.91
1497,-1.68
1509,1.06
1521,3.24
1533,4.86
1545,5.95
1557,6.52
1569,6.56
1581,6.17
1593,5.53
1605,4.9
1617,4.52
1629,4.49
1641,4.78
1652,5.22
1663,5.61
1675,5.8
1687,5.75
1699,5.53
1711,5.26
1723,5.05
1735,4.91
1747,4.75
1759,4.4
1771,3.71
1783,2.61
1795,1.19
1807,-0.36
1819,-1.82
1831,-2.98
1842,-3.81
1853,-4.42
1865,-5.03
1877,-5.87
1889,-7.12
1901,-8.85
1913,-10.97
1925,-13.24
1937,-15.27
1949,-16.61
1961,-16.83
1973,-15.67
1985,-13.11
1997,-9.45
2009,-5.19
2021,-0.91
2032,2.89
2043,5.94
2055,8.2
2067,9.74
2079,10.69
2091,11.15
2103,11.21
2115,11.0
2127,10.68
2139,10.42
2151,10.33
2163,10.45
2175,10.73
2187,11.04
2199,11.28
2211,11.35
2222,11.24
2233,10.93
2245,10.44
2257,9.79
2269,8.99
2281,8.06
2293,7.03
2305,5.9
2317,4.69
2329,3.44
2341,2.2
2353,1.03
2365,0.01
2377,-0.91
2389,-1.8
2401,-2.84
2412,-4.23
2423,-6.08
2435,-8.32
2447,-10.63
2459,-12.52
2471,-13.47
2483,-13.08
2495,-11.27
2507,-8.32
2519,-4.73
2531,-1.08
2543,2.16
2555,4.74
2567,6.58
2579,7.71
2591,8.19
2602,8.13
2613,7.7
2625,7.14
2637,6.73
2649,6.7
2661,7.09
2673,7.75
2685,8.43
2697,8.84
2709,8.84
2721,8.46
2733,7.85
2745,7.19
2757,6.55
2769,5.94
2781,5.24
2792,4.36
2803,3.24
2815,1.94
2827,0.54
2839,-0.81
2851,-2.04
2863,-3.1
2875,-4.03
2887,-4.93
2899,-5.92
2911,-7.08
2923,-8.48
2935,-10.09
2947,-11.85
2959,-13.57
2971,-14.98
2982,-15.71
2993,-15.43
3005,-13.9
3017,-11.16
3029,-7.54
3041,-3.54
3053,0.27
3065,3.48
3077,5.91
3089,7.58
3101,8.63
3113,9.17
3125,9.3
3137,9.09
3149,8.65
3161,8.14
3172,7.78
3183,7.71
3195,7.98
3207,8.5
3219,9.1
3231,9.57
3243,9.8
3255,9.79
3267,9.62
3279,9.42
3291,9.21
3303,8.91
3315,8.36
3327,7.42
3339,6.07
3351,4.43
3362,2.76
3373,1.27
3385,0.08
3397,-0.87
3409,-1.78
3421,-2.85
3433,-4.24
3445,-6.0
3457,-8.07
3469,-10.33
3481,-12.58
3493,-14.53
3505,-15.81
3517,-16.02
3529,-14.9
3541,-12.44
3552,-8.92
3563,-4.91
3575,-1.06
3587,2.09
3599,4.25
3611,5.45
3623,5.91
3635,5.93
3647,5.7
3659,5.3
3671,4.75
3683,4.1
3695,3.49
3707,3.1
3719,3.08
3731,3.43
3742,4.0
3753,4.54
3765,4.84
3777,4.83
3789,4.57
3801,4.22
3813,3.94
3825,3.77
3837,3.64
3849,3.43
3861,2.99
3873,2.2
3885,1.08
3897,-0.28
3909,-1.71
3921,-3.01
3932,-4.07
3943,-4.88
3955,-5.58
3967,-6.37
3979,-7.47
3991,-8.97
4003,-10.87
4015,-13.01
4027,-15.17
4039,-17.01
4051,-18.17
4063,-18.31
4075,-17.19
4087,-14.77
4099,-11.28
4111,-7.22
4122,-3.13
4133,0.48
4145,3.38
4157,5.53
4169,7.1
4181,8.24
4193,9.06
4205,9.57
4217,9.76
4229,9.71
4241,9.58
4253,9.55
4265,9.73
4277,10.14
4289,10.64
4301,11.01
4312,11.1
4323,10.82
4335,10.21
4347,9.38
4359,8.45
4371,7.51
4383,6.63
4395,5.79
4407,4.95
4419,4.06
4431,3.03
4443,1.84
4455,0.55
4467,-0.73
4479,-1.87
4491,-2.78
4502,-3.51
4513,-4.18
4525,-5.0
4537,-6.11
4549,-7.61
4561,-9.46
4573,-11.56
4585,-13.74
4597,-15.82
4609,-17.52
4621,-18.53
4633,-18.51
4645,-17.23
4657,-14.67
4669,-11.09
4681,-6.98
4692,-2.9
4703,0.67
4715,3.47
4727,5.48
4739,6.85
4751,7.75
4763,8.33
4775,8.69
4787,8.88
4799,9.0
4811,9.18
4823,9.52
4835,10.08
4847,10.8
4859,11.59
4871,12.32
4882,12.89
4893,13.25
4905,13.36
4917,13.22
4929,12.83
4941,12.2
4953,11.37
4965,10.38
4977,9.28
4989,8.07
5001,6.68
5013,5.09
5025,3.34
5037,1.57
5049,-0.02
5061,-1.26
5072,-2.09
5083,-2.63
5095,-3.15
5107,-3.91
5119,-5.09
5131,-6.71
5143,-8.67
5155,-10.77
5167,-12.78
5179,-14.43
5191,-15.4
5203,-15.39
5215,-14.16
5227,-11.67
5239,-8.2
5251,-4.25
5262,-0.42
5273,2.77
5285,5.1
5297,6.62
5309,7.57
5321,8.2
5333,8.67
5345,8.97
5357,9.05
5369,8.91
5381,8.64
5393,8.46
5405,8.52
5417,8.9
5429,9.48
5441,10.07
5452,10.45
5463,10.5
5475,10.19
5487,9.61
5499,8.84
5511,7.96
5523,6.98
5535,5.96
5547,4.92
5559,3.91
5571,2.95
5583,1.99
5595,0.96
5607,-0.2
5619,-1.47
5631,-2.75
5642,-3.95
5653,-5.01
5665,-5.98
5677,-6.97
5689,-8.1
5701,-9.45
5713,-11.01
5725,-12.75
5737,-14.59
5749,-16.39
5761,-17.94
5773,-18.93
5785,-18.94
5797,-17.68
5809,-15.05
5821,-11.29
5832,-6.95
5843,-2.71
5855,0.86
5867,3.49
5879,5.24
5891,6.39
5903,7.25
5915,7.99
5927,8.58
5939,8.92
5951,8.9
5963,8.58
5975,8.17
5987,7.9
5999,7.92
6011,8.22
6022,8.66
6033,9.0
6045,9.11
6057,8.92
6069,8.48
6081,7.87
6093,7.16
6105,6.38
6117,5.55
6129,4.73
6141,3.95
6153,3.24
6165,2.58
6177,1.92
6189,1.21
6201,0.41
6212,-0.46
6223,-1.38
6235,-2.31
6247,-3.23
6259,-4.17
6271,-5.2
6283,-6.42
6295,-7.91
6307,-9.76
6319,-11.94
6331,-14.26
6343,-16.37
6355,-17.73
6367,-17.86
6379,-16.46
6391,-13.59
6402,-9.7
6413,-5.43
6425,-1.39
6437,2.0
6449,4.61
6461,6.55
6473,7.97
6485,8.99
6497,9.65
6509,9.97
6521,10.0
6533,9.83
6545,9.6
6557,9.44
6569,9.44
6581,9.64
6592,9.99
6603,10.41
6615,10.8
6627,11.04
6639,11.08
6651,10.93
6663,10.6
6675,10.17
6687,9.63
6699,8.96
6711,8.11
6723,7.08
6735,5.87
6747,4.52
6759,3.08
6771,1.61
6782,0.15
6793,-1.24
6805,-2.49
6817,-3.61
6829,-4.66
6841,-5.76
6853,-7.09
6865,-8.76
6877,-10.84
6889,-13.28
6901,-15.86
6913,-18.27
6925,-20.11
6937,-20.97
6949,-20.56
6961,-18.84
6972,-16.05
6983,-12.66
6995,-9.17
7007,-6.01
7019,-3.38
7031,-1.34
7043,0.22
7055,1.38
7067,2.24
7079,2.83
7091,3.25
7103,3.58
7115,3.94
7127,4.41
7139,5.0
7151,5.68
7162,6.34
7173,6.92
7185,7.37
7197,7.68
7209,7.84
7221,7.85
7233,7.67
7245,7.29
7257,6.73
7269,6.09
7281,5.46
7293,4.89
7305,4.35
7317,3.73
7329,2.9
7341,1.76
7352,0.32
7363,-1.27
7375,-2.8
7387,-4.09
7399,-5.08
7411,-5.82
7423,-6.47
7435,-7.21
7447,-8.19
7459,-9.46
7471,-10.93
7483,-12.39
7495,-13.52
7507,-13.96
7519,-13.41
7531,-11.75
7542,-9.05
7553,-5.61
7565,-1.84
7577,1.78
7589,4.9
7601,7.28
7613,8.86
7625,9.67
7637,9.83
7649,9.52
7661,8.94
7673,8.33
7685,7.89
7697,7.74
7709,7.88
7721,8.19
7732,8.51
7743,8.67
7755,8.57
7767,8.2
7779,7.62
7791,6.96
7803,6.35
7815,5.87
7827,5.51
7839,5.18
7851,4.68
7863,3.85
7875,2.64
7887,1.15
7899,-0.41
7911,-1.82
7922,-2.92
7933,-3.75
7945,-4.46
7957,-5.26
7969,-6.31
7981,-7.64
7993,-9.24
8005,-10.99
8017,-12.69
8029,-14.06
8041,-14.74
8053,-14.37
8065,-12.77
8077,-9.96
8089,-6.28
8101,-2.25
8112,1.59
8123,4.84
8135,7.32
8147,9.03
8159,10.11
8171,10.67
8183,10.8
8195,10.55
8207,10.0
8219,9.32
8231,8.68
8243,8.29
8255,8.25
8267,8.53
8279,8.99
8291,9.4
8302,9.54
8313,9.28
8325,8.64
8337,7.75
8349,6.78
8361,5.88
8373,5.1
8385,4.38
8397,3.61
8409,2.72
8421,1.68
8433,0.57
8445,-0.5
8457,-1.45
8469,-2.21
8481,-2.86
8492,-3.53
8503,-4.4
8515,-5.6
8527,-7.19
8539,-9.11
8551,-11.19
8563,-13.12
8575,-14.52
8587,-15.01
8599,-14.34
8611,-12.47
8623,-9.6
8635,-6.16
8647,-2.66
8659,0.44
8671,2.85
8682,4.53
8693,5.56
8705,6.12
8717,6.36
8729,6.39
8741,6.29
8753,6.14
8765,6.07
8777,6.19
8789,6.55
8801,7.12
8813,7.78
8825,8.36
8837,8.72
8849,8.83
8861,8.71
8872,8.46
8883,8.12
8895,7.75
8907,7.32
8919,6.81
8931,6.21
8943,5.54
8955,4.82
8967,4.1
8979,3.4
8991,2.75
9003,2.15
9015,1.52
9027,0.73
9039,-0.43
9051,-2.16
9062,-4.59
9073,-7.69
9085,-11.22
9097,-14.79
9109,-17.94
9121,-20.24
9133,-21.37
9145,-21.23
9157,-19.93
9169,-17.76
9181,-15.13
9193,-12.46
9205,-10.09
9217,-8.21
9229,-6.82
9241,-5.8
9252,-5.01
9263,-4.28
9275,-3.54
9287,-2.78
9299,-2.0
9311,-1.18
9323,-0.31
9335,0.65
9347,1.68
9359,2.76
9371,3.75
9383,4.56
9395,5.05
9407,5.23
9419,5.12
9431,4.84
9442,4.49
9453,4.11
9465,3.67
9477,3.05
9489,2.17
9501,1.01
9513,-0.31
9525,-1.67
9537,-2.92
9549,-4.01
9561,-4.97
9573,-5.93
9585,-7.0
9597,-8.29
9609,-9.86
9621,-11.65
9632,-13.56
9643,-15.3
9655,-16.54
9667,-16.93
9679,-16.26
9691,-14.51
9703,-11.88
9715,-8.7
9727,-5.34
9739,-2.12
9751,0.71
9763,3.02
9775,4.74
9787,5.88
9799,6.53
9811,6.82
9822,6.88
9833,6.84
9845,6.77
9857,6.77
9869,6.9
9881,7.24
9893,7.82
9905,8.58
9917,9.35
9929,9.93
9941,10.2
9953,10.13
9965,9.83
9977,9.49
9989,9.22
10001,9.0
10012,8.67
10023,8.07
10035,7.1
10047,5.84
10059,4.53
10071,3.45
10083,2.78
10095,2.5
10107,2.38
10119,2.07
10131,1.25
10143,-0.25
10155,-2.39
10167,-4.89
10179,-7.3
10191,-9.15
10202,-10.0
10213,-9.63
10225,-8.03
10237,-5.4
10249,-2.14
10261,1.3
10273,4.52
10285,7.2
10297,9.21
10309,10.5
10321,11.14
10333,11.29
10345,11.12
10357,10.82
10369,10.54
10381,10.42
10392,10.52
10403,10.86
10415,11.4
10427,12.04
10439,12.62
10451,13.03
10463,13.17
10475,13.07
10487,12.83
10499,12.57
10511,12.33
10523,12.03
10535,11.55
10547,10.76
10559,9.62
10571,8.23
10582,6.76
10593,5.42
10605,4.3
10617,3.43
10629,2.71
10641,1.98
10653,1.05
10665,-0.25
10677,-2.05
10689,-4.33
10701,-6.86
10713,-9.2
10725,-10.79
10737,-11.11
10749,-9.88
10761,-7.23
10772,-3.63
10783,0.21
10795,3.68
10807,6.41
10819,8.32
10831,9.62
10843,10.53
10855,11.19
10867,11.58
10879,11.6
10891,11.19
10903,10.44
10915,9.57
10927,8.85
10939,8.43
10951,8.26
10962,8.1
10973,7.63
10985,6.63
10997,5.04
11009,3.07
11021,1.0
11033,-0.92
11045,-2.61
11057,-4.16
11069,-5.76
11081,-7.56
11093,-9.58
11105,-11.73
11117,-13.82
11129,-15.67
11141,-17.16
11152,-18.24
11163,-18.96
11175,-19.48
11187,-20.02
11199,-20.83
11211,-22.13
11223,-23.9
11235,-25.89
11247,-27.56
11259,-28.33
11271,-27.76
11283,-25.76
11295,-22.58
11307,-18.72
11319,-14.74
11331,-11.07
11342,-7.97
11353,-5.51
11365,-3.68
11377,-2.43
11389,-1.67
11401,-1.32
11413,-1.27
11425,-1.35
11437,-1.43
11449,-1.4
11461,-1.19
11473,-0.82
11485,-0.38
11497,0.04
11509,0.37
11521,0.56
11532,0.63
11543,0.56
11555,0.37
11567,0.03
11579,-0.49
11591,-1.19
11603,-2.06
11615,-3.04
11627,-4.03
11639,-4.94
11651,-5.68
11663,-6.23
11675,-6.59
11687,-6.88
11699,-7.26
11711,-7.89
11722,-8.92
11733,-10.38
11745,-12.2
11757,-14.22
11769,-16.16
11781,-17.68
11793,-18.41
11805,-18.05
11817,-16.47
11829,-13.82
11841,-10.47
11853,-6.92
11865,-3.63
11877,-0.84
11889,1.36
11901,3.04
11912,4.32
11923,5.26
11935,5.87
11947,6.18
11959,6.26
11971,6.3
11983,6.49
11995,6.98
12007,7.81
12019,8.88
12031,9.95
12043,10.74
12055,11.03
12067,10.77
12079,10.05
12091,9.15
12102,8.34
12113,7.81
12125,7.55
12137,7.41
12149,7.15
12161,6.63
12173,5.86
12185,4.97
12197,4.12
12209,3.41
12221,2.81
12233,2.12
12245,1.17
12257,-0.17
12269,-1.91
12281,-3.96
12292,-6.2
12303,-8.45
12315,-10.54
12327,-12.23
12339,-13.21
12351,-13.18
12363,-12.01
12375,-9.75
12387,-6.78
12399,-3.56
12411,-0.6
12423,1.79
12435,3.51
12447,4.66
12459,5.39
12471,5.83
12482,6.01
12493,5.88
12505,5.42
12517,4.64
12529,3.68
12541,2.71
12553,1.94
12565,1.47
12577,1.32
12589,1.36
12601,1.43
12613,1.4
12625,1.24
12637,1.04
12649,0.95
12661,1.05
12672,1.28
12683,1.49
12695,1.48
12707,1.14
12719,0.47
12731,-0.41
12743,-1.32
12755,-2.14
12767,-2.83
12779,-3.43
12791,-4.07
12803,-4.86
12815,-5.91
12827,-7.25
12839,-8.9
12851,-10.78
12862,-12.72
12873,-14.42
12885,-15.53
12897,-15.7
12909,-14.7
12921,-12.54
12933,-9.44
12945,-5.83
12957,-2.17
12969,1.08
12981,3.64
12993,5.39
13005,6.38
13017,6.79
13029,6.85
13041,6.77
13052,6.69
13063,6.65
13075,6.66
13087,6.7
13099,6.79
13111,7.02
13123,7.46
13135,8.07
13147,8.71
13159,9.13
13171,9.13
13183,8.64
13195,7.79
13207,6.85
13219,6.06
13231,5.53
13242,5.17
13253,4.73
13265,3.97
13277,2.75
13289,1.17
13301,-0.52
13313,-2.04
13325,-3.21
13337,-4.03
13349,-4.65
13361,-5.28
13373,-6.11
13385,-7.27
13397,-8.78
13409,-10.63
13421,-12.75
13432,-14.94
13443,-16.88
13455,-18.15
13467,-18.35
13479,-17.27
13491,-15.02
13503,-11.96
13515,-8.64
13527,-5.54
13539,-2.96
13551,-0.91
13563,0.71
13575,2.06
13587,3.22
13599,4.16
13611,4.85
13622,5.29
13633,5.55
13645,5.75
13657,6.03
13669,6.44
13681,6.95
13693,7.49
13705,7.93
13717,8.2
13729,8.25
13741,8.1
13753,7.81
13765,7.46
13777,7.14
13789,6.84
13801,6.51
13812,6.03
13823,5.28
13835,4.24
13847,3.04
13859,1.84
13871,0.82
13883,0.07
13895,-0.5
13907,-1.04
13919,-1.8
13931,-2.94
13943,-4.56
13955,-6.56
13967,-8.72
13979,-10.71
13991,-12.14
14002,-12.71
14013,-12.26
14025,-10.84
14037,-8.64
14049,-5.96
14061,-3.06
14073,-0.15
14085,2.62
14097,5.14
14109,7.27
14121,8.92
14133,9.99
14145,10.45
14157,10.37
14169,9.89
14181,9.2
14192,8.52
14203,8.07
14215,7.97
14227,8.22
14239,8.74
14251,9.33
14263,9.81
14275,10.02
14287,9.89
14299,9.45
14311,8.74
14323,7.85
14335,6.82
14347,5.71
14359,4.59
14371,3.51
14382,2.53
14393,1.69
14405,0.97
14417,0.32
14429,-0.37
14441,-1.18
14453,-2.18
14465,-3.36
14477,-4.74
14489,-6.31
14501,-8.05
14513,-9.96
14525,-11.92
14537,-13.72
14549,-14.98
14561,-15.31
14572,-14.42
14583,-12.25
14595,-9.09
14607,-5.47
14619,-2.02
14631,0.78
14643,2.75
14655,4.01
14667,4.84
14679,5.51
14691,6.07
14703,6.44
14715,6.44
14727,6.04
14739,5.36
14751,4.7
14762,4.37
14773,4.52
14785,5.03
14797,5.62
14809,5.95
14821,5.79
14833,5.14
14845,4.19
14857,3.2
14869,2.37
14881,1.78
14893,1.34
14905,0.89
14917,0.31
14929,-0.45
14941,-1.33
14952,-2.23
14963,-3.03
14975,-3.67
14987,-4.18
14999,-4.6
15011,-5.05
15023,-5.61
15035,-6.4
15047,-7.54
15059,-9.08
15071,-11.02
15083,-13.2
15095,-15.33
15107,-16.99
15119,-17.81
15131,-17.5
15142,-15.98
15153,-13.42
15165,-10.19
15177,-6.73
15189,-3.47
15201,-0.71
15213,1.39
15225,2.82
15237,3.65
15249,4.01
15261,4.01
15273,3.78
15285,3.48
15297,3.26
15309,3.26
15321,3.54
15332,4.08
15343,4.74
15355,5.36
15367,5.73
15379,5.83
15391,5.68
15403,5.41
15415,5.15
15427,4.93
15439,4.7
15451,4.37
15463,3.84
15475,3.1
15487,2.21
15499,1.32
15511,0.55
15522,-0.04
15533,-0.48
15545,-0.86
15557,-1.3
15569,-1.96
15581,-2.94
15593,-4.36
15605,-6.22
15617,-8.39
15629,-10.56
15641,-12.22
15653,-12.86
15665,-12.14
15677,-10.01
15689,-6.8
15701,-3.07
15712,0.54
15723,3.56
15735,5.74
15747,7.06
15759,7.67
15771,7.76
15783,7.5
15795,7.04
15807,6.56
15819,6.2
15831,6.06
15843,6.15
15855,6.4
15867,6.64
15879,6.76
15891,6.7
15902,6.48
15913,6.2
15925,5.95
15937,5.79
15949,5.7
15961,5.64
15973,5.52
15985,5.3
15997,4.92
16009,4.41
16021,3.8
16033,3.15
16045,2.49
16057,1.81
16069,1.07
16081,0.19
16092,-0.89
16103,-2.29
16115,-4.06
16127,-6.16
16139,-8.47
16151,-10.67
16163,-12.34
16175,-13.06
16187,-12.52
16199,-10.73
16211,-8.0
16223,-4.85
16235,-1.81
16247,0.73
16259,2.64
16271,3.96
16282,4.81
16293,5.27
16305,5.38
16317,5.14
16329,4.64
16341,4.08
16353,3.64
16365,3.5
16377,3.69
16389,4.12
16401,4.6
16413,4.99
16425,5.19
16437,5.2
16449,5.07
16461,4.87
16472,4.64
16483,4.39
16495,4.07
16507,3.67
16519,3.14
16531,2.5
16543,1.77
16555,1.0
16567,0.26
16579,-0.44
16591,-1.12
16603,-1.87
16615,-2.8
16627,-4.0
16639,-5.52
16651,-7.31
16662,-9.22
16673,-11.03
16685,-12.41
16697,-13.07
16709,-12.75
16721,-11.39
16733,-9.1
16745,-6.18
16757,-3.04
16769,-0.07
16781,2.43
16793,4.3
16805,5.53
16817,6.19
16829,6.43
16841,6.4
16852,6.23
16863,6.03
16875,5.84
16887,5.67
16899,5.52
16911,5.39
16923,5.34
16935,5.41
16947,5.61
16959,5.9
16971,6.18
16983,6.34
16995,6.28
17007,5.95
17019,5.31
17031,4.36
17042,3.17
17053,1.84
17065,0.56
17077,-0.52
17089,-1.3
17101,-1.82
17113,-2.28
17125,-2.9
17137,-3.89
17149,-5.35
17161,-7.23
17173,-9.34
17185,-11.4
17197,-13.09
17209,-14.07
17221,-14.03
17232,-12.84
17243,-10.53
17255,-7.36
17267,-3.79
17279,-0.32
17291,2.61
17303,4.74
17315,6.05
17327,6.64
17339,6.72
17351,6.51
17363,6.14
17375,5.71
17387,5.29
17399,4.95
17411,4.76
17422,4.79
17433,5.03
17445,5.41
17457,5.75
17469,5.9
17481,5.78
17493,5.41
17505,4.91
17517,4.38
17529,3.84
17541,3.21
17553,2.37
17565,1.28
17577,0.01
17589,-1.29
17601,-2.4
17612,-3.2
17623,-3.67
17635,-3.95
17647,-4.21
17659,-4.66
17671,-5.49
17683,-6.78
17695,-8.58
17707,-10.78
17719,-13.1
17731,-15.11
17743,-16.33
17755,-16.33
17767,-14.96
17779,-12.38
17791,-9.02
17802,-5.5
17813,-2.35
17825,0.12
17837,1.8
17849,2.82
17861,3.37
17873,3.62
17885,3.64
17897,3.49
17909,3.23
17921,2.95
17933,2.76
17945,2.74
17957,2.88
17969,3.11
17981,3.3
17992,3.37
18003,3.3
18015,3.15
18027,3.0
18039,2.9
18051,2.82
18063,2.64
18075,2.25
18087,1.53
18099,0.47
18111,-0.82
18123,-2.18
18135,-3.44
18147,-4.46
18159,-5.21
18171,-5.75
18182,-6.25
18193,-6.9
18205,-7.88
18217,-9.32
18229,-11.19
18241,-13.33
18253,-15.42
18265,-17.06
18277,-17.89
18289,-17.67
18301,-16.37
18313,-14.16
18325,-11.32
18337,-8.21
18349,-5.09
18361,-2.18
18372,0.38
18383,2.48
18395,4.05
18407,5.05
18419,5.55
18431,5.69
18443,5.66
18455,5.68
18467,5.89
18479,6.35
18491,7.0
18503,7.71
18515,8.32
18527,8.67
18539,8.71
18551,8.47
18562,8.06
18573,7.58
18585,7.11
18597,6.66
18609,6.18
18621,5.62
18633,4.93
18645,4.16
18657,3.35
18669,2.52
18681,1.67
18693,0.76
18705,-0.25
18717,-1.37
18729,-2.63
18741,-4.0
18752,-5.53
18763,-7.21
18775,-8.98
18787,-10.66
18799,-11.91
18811,-12.33
18823,-11.58
18835,-9.55
18847,-6.41
18859,-2.62
18871,1.22
18883,4.59
18895,7.15
18907,8.85
18919,9.8
18931,10.19
18942,10.13
18953,9.64
18965,8.72
18977,7.45
18989,5.99
19001,4.63
19013,3.6
19025,2.98
19037,2.63
19049,2.26
19061,1.56
19073,0.37
19085,-1.25
19097,-3.04
19109,-4.72
19121,-6.13
19132,-7.32
19143,-8.49
19155,-9.88
19167,-11.67
19179,-13.83
19191,-16.19
19203,-18.46
19215,-20.37
19227,-21.8
19239,-22.79
19251,-23.61
19263,-24.61
19275,-26.14
19287,-28.33
19299,-31.02
19311,-33.75
19322,-35.9
19333,-36.88
19345,-36.33
19357,-34.21
19369,-30.82
19381,-26.62
19393,-22.08
19405,-17.61
19417,-13.51
19429,-9.92
19441,-6.9
19453,-4.46
19465,-2.52
19477,-0.98
19489,0.26
19501,1.35
19512,2.39
19523,3.42
19535,4.48
19547,5.53
19559,6.54
19571,7.42
19583,8.1
19595,8.53
19607,8.71
19619,8.72
19631,8.66
19643,8.57
19655,8.43
19667,8.09
19679,7.43
19691,6.39
19702,5.06
19713,3.64
19725,2.36
19737,1.39
19749,0.77
19761,0.39
19773,0.07
19785,-0.4
19797,-1.23
19809,-2.54
19821,-4.35
19833,-6.5
19845,-8.67
19857,-10.37
19869,-11.09
19881,-10.49
19892,-8.49
19903,-5.39
19915,-1.72
19927,1.9
19939,4.99
19951,7.34
19963,8.97
19975,10.09
19987,10.93
19999,11.6
20011,12.14
20023,12.48
20035,12.61
20047,12.62
20059,12.65
20071,12.85
20082,13.27
20093,13.82
20105,14.31
20117,14.59
20129,14.59
20141,14.37
20153,14.03
20165,13.59
20177,13.01
20189,12.18
20201,11.04
20213,9.64
20225,8.14
20237,6.73
20249,5.51
20261,4.47
20272,3.51
20283,2.54
20295,1.48
20307,0.3
20319,-1.1
20331,-2.84
20343,-4.95
20355,-7.27
20367,-9.38
20379,-10.68
20391,-10.61
20403,-8.89
20415,-5.72
20427,-1.63
20439,2.63
20451,6.45
20462,9.48
20473,11.63
20485,13.03
20497,13.84
20509,14.19
20521,14.18
20533,13.92
20545,13.6
20557,13.42
20569,13.5
20581,13.8
20593,14.13
20605,14.21
20617,13.88
20629,13.09
20641,12.05
20652,10.99
20663,10.14
20675,9.56
20687,9.1
20699,8.57
20711,7.78
20723,6.67
20735,5.33
20747,3.89
20759,2.51
20771,1.27
20783,0.17
20795,-0.85
20807,-1.89
20819,-3.1
20831,-4.6
20842,-6.43
20853,-8.52
20865,-10.6
20877,-12.29
20889,-13.12
20901,-12.79
20913,-11.18
20925,-8.47
20937,-5.05
20949,-1.4
20961,2.02
20973,4.92
20985,7.2
20997,8.88
