seconds,BVP
8,9.71
20,7.01
31,4.04
42,0.63
54,-3.21
66,-7.29
78,-11.39
90,-15.3
102,-18.9
114,-22.22
126,-25.4
138,-28.64
150,-32.18
162,-36.25
174,-40.96
186,-46.26
198,-51.78
210,-56.86
221,-60.63
232,-62.15
244,-60.71
256,-55.98
268,-48.16
280,-37.93
292,-26.29
304,-14.36
316,-3.17
328,6.52
340,14.23
352,19.82
364,23.41
376,25.26
388,25.76
400,25.27
411,24.17
422,22.8
434,21.45
446,20.45
458,19.96
470,20.05
482,20.57
494,21.29
506,21.93
518,22.3
530,22.31
542,21.94
554,21.18
566,20.01
578,18.37
590,16.26
601,13.75
612,11.01
624,8.19
636,5.43
648,2.75
660,0.07
672,-2.7
684,-5.67
696,-8.82
708,-12.07
720,-15.32
732,-18.45
744,-21.46
756,-24.41
768,-27.44
780,-30.75
791,-34.5
802,-38.67
814,-42.97
826,-46.78
838,-49.25
850,-49.54
862,-47.06
874,-41.69
886,-33.88
898,-24.51
910,-14.63
922,-5.17
934,3.22
946,10.24
958,15.8
970,19.89
981,22.5
992,23.66
1004,23.5
1016,22.32
1028,20.6
1040,18.87
1052,17.55
1064,16.84
1076,16.66
1088,16.79
1100,16.95
1112,16.95
1124,16.76
1136,16.38
1148,15.86
1160,15.13
1171,14.08
1182,12.58
1194,10.59
1206,8.17
1218,5.47
1230,2.67
1242,-0.14
1254,-2.95
1266,-5.79
1278,-8.71
1290,-11.66
1302,-14.57
1314,-17.32
1326,-19.86
1338,-22.27
1350,-24.75
1361,-27.56
1372,-30.96
1384,-35.03
1396,-39.6
1408,-44.19
1420,-48.02
1432,-50.14
1444,-49.73
1456,-46.32
1468,-39.99
1480,-31.41
1492,-21.61
1504,-11.72
1516,-2.64
1528,5.07
1540,11.24
1551,15.92
1562,19.26
1574,21.4
1586,22.45
1598,22.56
1610,21.95
1622,20.88
1634,19.64
1646,18.52
1658,17.7
1670,17.28
1682,17.21
1694,17.33
1706,17.43
1718,17.31
1730,16.89
1741,16.17
1752,15.25
1764,14.2
1776,13.0
1788,11.58
1800,9.83
1812,7.71
1824,5.26
1836,2.61
1848,-0.14
1860,-2.95
1872,-5.84
1884,-8.85
1896,-11.98
1908,-15.2
1920,-18.45
1931,-21.78
1942,-25.27
1954,-29.05
1966,-33.17
1978,-37.42
1990,-41.31
2002,-44.1
2014,-45.0
2026,-43.39
2038,-39.07
2050,-32.31
2062,-23.76
2074,-14.31
2086,-4.83
2098,3.92
2110,11.36
2121,17.11
2132,20.95
2144,22.86
2156,23.05
2168,21.93
2180,20.05
2192,17.97
2204,16.17
2216,14.86
2228,14.05
2240,13.56
2252,13.18
2264,12.74
2276,12.23
2288,11.69
2300,11.25
2311,10.92
2322,10.62
2334,10.17
2346,9.34
2358,7.97
2370,6.02
2382,3.6
2394,0.87
2406,-1.96
2418,-4.76
2430,-7.46
2442,-10.04
2454,-12.59
2466,-15.22
2478,-18.13
2490,-21.52
2501,-25.54
2512,-30.16
2524,-35.06
2536,-39.56
2548,-42.77
2560,-43.8
2572,-42.02
2584,-37.31
2596,-30.13
2608,-21.38
2620,-12.13
2632,-3.36
2644,4.26
2656,10.43
2668,15.1
2680,18.34
2691,20.21
2702,20.79
2714,20.21
2726,18.72
2738,16.74
2750,14.73
2762,13.08
2774,11.99
2786,11.42
2798,11.18
2810,11.05
2822,10.85
2834,10.51
2846,10.07
2858,9.59
2870,9.1
2881,8.55
2892,7.79
2904,6.66
2916,5.05
2928,2.95
2940,0.51
2952,-2.06
2964,-4.56
2976,-6.94
2988,-9.3
3000,-11.86
3012,-14.8
3024,-18.22
3036,-22.07
3048,-26.12
3060,-30.06
3071,-33.41
3082,-35.59
3094,-35.98
3106,-34.05
3118,-29.56
3130,-22.72
3142,-14.15
3154,-4.77
3166,4.48
3178,12.81
3190,19.73
3202,25.01
3214,28.61
3226,30.57
3238,31.06
3250,30.28
3261,28.54
3272,26.19
3284,23.62
3296,21.12
3308,18.97
3320,17.29
3332,16.13
3344,15.38
3356,14.84
3368,14.21
3380,13.2
3392,11.55
3404,9.16
3416,6.1
3428,2.57
3440,-1.2
3451,-4.96
3462,-8.54
3474,-11.82
3486,-14.79
3498,-17.56
3510,-20.39
3522,-23.7
3534,-27.88
3546,-33.2
3558,-39.56
3570,-46.52
3582,-53.32
3594,-59.12
3606,-63.19
3618,-65.08
3630,-64.56
3641,-61.65
3652,-56.55
3664,-49.63
3676,-41.49
3688,-32.92
3700,-24.84
3712,-18.11
3724,-13.44
3736,-11.17
3748,-11.28
3760,-13.38
3772,-16.8
3784,-20.74
3796,-24.53
3808,-27.78
3820,-30.52
3831,-33.1
3842,-35.97
3854,-39.45
3866,-43.54
3878,-47.93
3890,-52.01
3902,-55.0
3914,-55.97
3926,-53.92
3938,-47.99
3950,-37.75
3962,-23.44
3974,-6.19
3986,12.26
3998,29.92
4010,45.16
4021,57.0
4032,65.22
4044,70.06
4056,71.94
4068,71.22
4080,68.19
4092,63.32
4104,57.3
4116,51.04
4128,45.51
4140,41.37
4152,38.88
4164,37.84
4176,37.8
4188,38.27
4200,38.95
4211,39.7
4222,40.5
4234,41.26
4246,41.8
4258,41.85
4270,41.22
4282,39.84
4294,37.89
4306,35.65
4318,33.43
4330,31.46
4342,29.8
4354,28.44
4366,27.31
4378,26.36
4390,25.58
4401,24.93
4412,24.35
4424,23.79
4436,23.28
4448,22.93
4460,22.89
4472,23.25
4484,23.92
4496,24.6
4508,24.89
4520,24.44
4532,23.13
4544,21.02
4556,18.32
4568,15.16
4580,11.6
4591,7.67
4602,3.57
4614,-0.22
4626,-3.09
4638,-4.44
4650,-4.03
4662,-2.09
4674,0.79
4686,3.83
4698,6.39
4710,8.14
4722,8.98
4734,9.01
4746,8.33
4758,7.04
4770,5.21
4781,2.95
4792,0.43
4804,-2.12
4816,-4.44
4828,-6.31
4840,-7.6
4852,-8.29
4864,-8.46
4876,-8.22
4888,-7.72
4900,-7.06
4912,-6.38
4924,-5.85
4936,-5.69
4948,-6.16
4960,-7.42
4971,-9.5
4982,-12.27
4994,-15.45
5006,-18.76
5018,-21.99
5030,-25.1
5042,-28.2
5054,-31.44
5066,-34.96
5078,-38.77
5090,-42.63
5102,-46.12
5114,-48.68
5126,-49.75
5138,-48.98
5150,-46.33
5161,-42.1
5172,-36.81
5184,-31.07
5196,-25.47
5208,-20.45
5220,-16.3
5232,-13.19
5244,-11.17
5256,-10.16
5268,-9.98
5280,-10.33
5292,-10.84
5304,-11.17
5316,-11.05
5328,-10.39
5340,-9.27
5351,-7.89
5362,-6.53
5374,-5.39
5386,-4.6
5398,-4.13
5410,-3.93
5422,-3.93
5434,-4.09
5446,-4.42
5458,-4.91
5470,-5.53
5482,-6.21
5494,-6.94
5506,-7.82
5518,-9.02
5530,-10.73
5541,-13.07
5552,-16.01
5564,-19.38
5576,-22.88
5588,-26.16
5600,-28.8
5612,-30.36
5624,-30.46
5636,-28.87
5648,-25.64
5660,-21.11
5672,-15.82
5684,-10.45
5696,-5.53
5708,-1.49
5720,1.44
5731,3.19
5742,3.81
5754,3.51
5766,2.61
5778,1.49
5790,0.44
5802,-0.43
5814,-1.2
5826,-2.03
5838,-3.07
5850,-4.31
5862,-5.6
5874,-6.77
5886,-7.73
5898,-8.54
5910,-9.37
5921,-10.41
5932,-11.85
5944,-13.82
5956,-16.36
5968,-19.46
5980,-23.0
5992,-26.82
6004,-30.73
6016,-34.59
6028,-38.37
6040,-42.2
6052,-46.26
6064,-50.75
6076,-55.67
6088,-60.81
6100,-65.68
6111,-69.54
6122,-71.55
6134,-70.92
6146,-67.12
6158,-60.03
6170,-50.02
6182,-37.92
6194,-24.81
6206,-11.78
6218,0.28
6230,10.81
6242,19.56
6254,26.53
6266,31.86
6278,35.73
6290,38.38
6301,40.05
6312,41.06
6324,41.71
6336,42.24
6348,42.8
6360,43.37
6372,43.82
6384,43.95
6396,43.59
6408,42.63
6420,41.02
6432,38.81
6444,36.09
6456,33.0
6468,29.71
6480,26.35
6491,23.0
6502,19.67
6514,16.3
6526,12.77
6538,8.98
6550,4.82
6562,0.24
6574,-4.78
6586,-10.12
6598,-15.48
6610,-20.32
6622,-23.95
6634,-25.65
6646,-24.97
6658,-21.84
6670,-16.63
6681,-10.0
6692,-2.7
6704,4.68
6716,11.7
6728,18.1
6740,23.7
6752,28.29
6764,31.73
6776,33.96
6788,35.05
6800,35.29
6812,35.03
6824,34.63
6836,34.3
6848,34.13
6860,34.05
6871,33.95
6882,33.73
6894,33.34
6906,32.79
6918,32.11
6930,31.29
6942,30.3
6954,29.06
6966,27.47
6978,25.43
6990,22.89
7002,19.82
7014,16.26
7026,12.34
7038,8.25
7050,4.21
7061,0.41
7072,-3.02
7084,-6.09
7096,-8.95
7108,-11.88
7120,-15.17
7132,-19.07
7144,-23.6
7156,-28.47
7168,-33.11
7180,-36.73
7192,-38.54
7204,-38.0
7216,-34.95
7228,-29.65
7240,-22.66
7251,-14.7
7262,-6.44
7274,1.55
7286,8.88
7298,15.31
7310,20.73
7322,25.08
7334,28.37
7346,30.64
7358,31.96
7370,32.46
7382,32.27
7394,31.63
7406,30.8
7418,30.05
7430,29.56
7441,29.39
7452,29.43
7464,29.5
7476,29.42
7488,29.05
7500,28.41
7512,27.54
7524,26.48
7536,25.18
7548,23.56
7560,21.52
7572,19.1
7584,16.45
7596,13.8
7608,11.34
7620,9.08
7631,6.87
7642,4.47
7654,1.64
7666,-1.7
7678,-5.47
7690,-9.46
7702,-13.41
7714,-17.1
7726,-20.46
7738,-23.51
7750,-26.34
7762,-29.1
7774,-31.93
7786,-35.0
7798,-38.43
7810,-42.36
7821,-46.76
7832,-51.43
7844,-55.81
7856,-59.12
7868,-60.55
7880,-59.46
7892,-55.67
7904,-49.46
7916,-41.49
7928,-32.56
7940,-23.36
7952,-14.45
7964,-6.2
7976,1.13
7988,7.3
8000,12.18
8011,15.7
8022,17.97
8034,19.25
8046,19.87
8058,20.21
8070,20.54
8082,21.05
8094,21.77
8106,22.62
8118,23.46
8130,24.15
8142,24.64
8154,24.96
8166,25.15
8178,25.23
8190,25.13
8201,24.69
8212,23.78
8224,22.34
8236,20.49
8248,18.44
8260,16.42
8272,14.54
8284,12.77
8296,10.91
8308,8.74
8320,6.12
8332,3.08
8344,-0.21
8356,-3.52
8368,-6.64
8380,-9.49
8391,-12.11
8402,-14.62
8414,-17.22
8426,-20.12
8438,-23.51
8450,-27.49
8462,-31.96
8474,-36.56
8486,-40.66
8498,-43.45
8510,-44.19
8522,-42.42
8534,-38.14
8546,-31.83
8558,-24.27
8570,-16.28
8581,-8.52
8592,-1.38
8604,4.97
8616,10.47
8628,15.08
8640,18.72
8652,21.36
8664,23.03
8676,23.91
8688,24.27
8700,24.41
8712,24.63
8724,25.1
8736,25.85
8748,26.81
8760,27.85
8771,28.79
8782,29.52
8794,30.02
8806,30.34
8818,30.55
8830,30.68
8842,30.64
8854,30.24
8866,29.27
8878,27.62
8890,25.34
8902,22.64
8914,19.84
8926,17.22
8938,14.91
8950,12.9
8961,11.03
8972,9.13
8984,7.08
8996,4.83
9008,2.43
9020,-0.09
9032,-2.7
9044,-5.39
9056,-8.16
9068,-10.98
9080,-13.87
9092,-16.91
9104,-20.24
9116,-24.01
9128,-28.34
9140,-33.07
9151,-37.75
9162,-41.69
9174,-44.05
9186,-44.15
9198,-41.61
9210,-36.52
9222,-29.35
9234,-20.87
9246,-11.93
9258,-3.32
9270,4.35
9282,10.7
9294,15.58
9306,19.02
9318,21.24
9330,22.51
9341,23.17
9352,23.51
9364,23.78
9376,24.12
9388,24.58
9400,25.14
9412,25.73
9424,26.29
9436,26.76
9448,27.07
9460,27.2
9472,27.09
9484,26.76
9496,26.27
9508,25.71
9520,25.16
9531,24.6
9542,23.96
9554,23.07
9566,21.82
9578,20.16
9590,18.14
9602,15.88
9614,13.53
9626,11.16
9638,8.85
9650,6.57
9662,4.32
9674,2.03
9686,-0.36
9698,-2.89
9710,-5.56
9721,-8.34
9732,-11.14
9744,-13.9
9756,-16.57
9768,-19.2
9780,-21.87
9792,-24.67
9804,-27.73
9816,-31.2
9828,-35.16
9840,-39.51
9852,-43.89
9864,-47.61
9876,-49.82
9888,-49.69
9900,-46.82
9911,-41.37
9922,-34.04
9934,-25.84
9946,-17.71
9958,-10.3
9970,-3.91
9982,1.42
9994,5.71
10006,8.92
10018,11.0
10030,11.93
10042,11.85
10054,11.08
10066,10.03
10078,9.11
10090,8.59
10101,8.58
10112,9.06
10124,9.89
10136,10.94
10148,12.04
10160,13.05
10172,13.87
10184,14.4
10196,14.59
10208,14.4
10220,13.85
10232,13.01
10244,11.98
10256,10.85
10268,9.64
10280,8.29
10291,6.71
10302,4.79
10314,2.47
10326,-0.15
10338,-2.9
10350,-5.55
10362,-7.95
10374,-10.06
10386,-11.99
10398,-13.94
10410,-16.13
10422,-18.77
10434,-21.96
10446,-25.71
10458,-29.84
10470,-33.95
10481,-37.39
10492,-39.45
10504,-39.49
10516,-37.17
10528,-32.59
10540,-26.22
10552,-18.82
10564,-11.18
10576,-3.94
10588,2.45
10600,7.72
10612,11.78
10624,14.61
10636,16.3
10648,17.01
10660,17.0
10671,16.5
10682,15.74
10694,14.87
10706,14.02
10718,13.29
10730,12.8
10742,12.64
10754,12.86
10766,13.4
10778,14.11
10790,14.8
10802,15.26
10814,15.34
10826,14.98
10838,14.17
10850,12.98
10861,11.48
10872,9.74
10884,7.8
10896,5.65
10908,3.28
10920,0.67
10932,-2.14
10944,-5.1
10956,-8.11
10968,-11.1
10980,-14.04
10992,-16.96
11004,-19.91
11016,-23.01
11028,-26.39
11040,-30.13
11051,-34.23
11062,-38.43
11074,-42.23
11086,-44.88
11098,-45.6
11110,-43.87
11122,-39.62
11134,-33.32
11146,-25.79
11158,-17.97
11170,-10.66
11182,-4.32
11194,0.88
11206,4.97
11218,8.04
11230,10.14
11241,11.34
11252,11.74
11264,11.51
11276,10.88
11288,10.09
11300,9.36
11312,8.82
11324,8.53
11336,8.51
11348,8.74
11360,9.21
11372,9.88
11384,10.69
11396,11.52
11408,12.18
11420,12.48
11431,12.22
11442,11.34
11454,9.83
11466,7.86
11478,5.57
11490,3.15
11502,0.67
11514,-1.88
11526,-4.48
11538,-7.16
11550,-9.91
11562,-12.75
11574,-15.78
11586,-19.2
11598,-23.12
11610,-27.5
11621,-32.03
11632,-36.14
11644,-39.13
11656,-40.39
11668,-39.59
11680,-36.68
11692,-31.96
11704,-25.83
11716,-18.78
11728,-11.26
11740,-3.73
11752,3.36
11764,9.54
11776,14.43
11788,17.76
11800,19.52
11811,19.94
11822,19.44
11834,18.51
11846,17.61
11858,17.05
11870,16.93
11882,17.22
11894,17.7
11906,18.23
11918,18.67
11930,18.98
11942,19.16
11954,19.19
11966,19.01
11978,18.5
11990,17.55
12001,16.15
12012,14.39
12024,12.44
12036,10.47
12048,8.54
12060,6.59
12072,4.43
12084,1.91
12096,-1.04
12108,-4.37
12120,-7.96
12132,-11.67
12144,-15.34
12156,-18.73
12168,-21.52
12180,-23.23
12191,-23.41
12202,-21.75
12214,-18.2
12226,-13.07
12238,-6.86
12250,-0.16
12262,6.48
12274,12.68
12286,18.08
12298,22.37
12310,25.23
12322,26.5
12334,26.19
12346,24.65
12358,22.4
12370,20.04
12381,18.0
12392,16.48
12404,15.42
12416,14.61
12428,13.84
12440,13.04
12452,12.28
12464,11.7
12476,11.35
12488,11.13
12500,10.8
12512,10.09
12524,8.83
12536,7.01
12548,4.82
12560,2.49
12571,0.16
12582,-2.17
12594,-4.65
12606,-7.49
12618,-10.87
12630,-14.86
12642,-19.36
12654,-24.1
12666,-28.59
12678,-32.21
12690,-34.29
12702,-34.31
12714,-32.04
12726,-27.64
12738,-21.66
12750,-14.82
12761,-7.88
12772,-1.47
12784,3.98
12796,8.24
12808,11.24
12820,13.02
12832,13.72
12844,13.48
12856,12.52
12868,11.05
12880,9.28
12892,7.47
12904,5.87
12916,4.67
12928,3.97
12940,3.73
12951,3.81
12962,4.09
12974,4.42
12986,4.76
12998,5.07
13010,5.24
13022,5.08
13034,4.38
13046,2.98
13058,0.88
13070,-1.76
13082,-4.68
13094,-7.64
13106,-10.51
13118,-13.36
13130,-16.45
13141,-20.03
13152,-24.26
13164,-28.98
13176,-33.71
13188,-37.66
13200,-40.0
13212,-40.04
13224,-37.52
13236,-32.6
13248,-25.82
13260,-17.92
13272,-9.62
13284,-1.54
13296,5.86
13308,12.24
13320,17.33
13331,20.99
13342,23.25
13354,24.33
13366,24.58
13378,24.37
13390,24.04
13402,23.75
13414,23.58
13426,23.51
13438,23.55
13450,23.71
13462,23.98
13474,24.25
13486,24.37
13498,24.13
13510,23.36
13521,21.99
13532,20.08
13544,17.73
13556,15.11
13568,12.33
13580,9.48
13592,6.63
13604,3.78
13616,0.87
13628,-2.22
13640,-5.62
13652,-9.46
13664,-13.74
13676,-18.31
13688,-22.83
13700,-26.82
13711,-29.73
13722,-31.06
13734,-30.45
13746,-27.78
13758,-23.21
13770,-17.15
13782,-10.2
13794,-2.99
13806,3.9
13818,10.0
13830,14.96
13842,18.59
13854,20.81
13866,21.71
13878,21.47
13890,20.42
13901,18.94
13912,17.38
13924,16.02
13936,15.02
13948,14.39
13960,14.02
13972,13.8
13984,13.61
13996,13.41
14008,13.2
14020,12.96
14032,12.68
14044,12.24
14056,11.46
14068,10.16
14080,8.26
14091,5.82
14102,3.08
14114,0.31
14126,-2.3
14138,-4.69
14150,-6.97
14162,-9.37
14174,-12.08
14186,-15.21
14198,-18.73
14210,-22.42
14222,-25.89
14234,-28.62
14246,-30.04
14258,-29.69
14270,-27.38
14281,-23.24
14292,-17.67
14304,-11.28
14316,-4.66
14328,1.67
14340,7.33
14352,12.07
14364,15.71
14376,18.19
14388,19.54
14400,19.89
14412,19.45
14424,18.46
14436,17.17
14448,15.83
14460,14.63
14471,13.73
14482,13.21
14494,13.05
14506,13.17
14518,13.42
14530,13.65
14542,13.71
14554,13.47
14566,12.76
14578,11.44
14590,9.41
14602,6.77
14614,3.78
14626,0.78
14638,-1.91
14650,-4.16
14661,-6.1
14672,-8.07
14684,-10.45
14696,-13.49
14708,-17.19
14720,-21.32
14732,-25.45
14744,-29.12
14756,-31.89
14768,-33.4
14780,-33.34
14792,-31.55
14804,-28.03
14816,-23.01
14828,-16.99
14840,-10.59
14851,-4.42
14862,1.03
14874,5.48
14886,8.82
14898,11.1
14910,12.4
14922,12.84
14934,12.6
14946,11.88
14958,10.93
14970,10.0
14982,9.28
14994,8.87
15006,8.78
15018,8.96
15030,9.26
15041,9.54
15052,9.67
15064,9.56
15076,9.2
15088,8.61
15100,7.8
15112,6.75
15124,5.39
15136,3.65
15148,1.53
15160,-0.88
15172,-3.43
15184,-5.97
15196,-8.4
15208,-10.76
15220,-13.24
15231,-16.08
15242,-19.48
15254,-23.47
15266,-27.86
15278,-32.19
15290,-35.81
15302,-38.07
15314,-38.4
15326,-36.52
15338,-32.41
15350,-26.41
15362,-19.02
15374,-10.9
15386,-2.68
15398,5.11
15410,12.02
15421,17.77
15432,22.17
15444,25.16
15456,26.81
15468,27.32
15480,27.02
15492,26.29
15504,25.51
15516,24.93
15528,24.66
15540,24.66
15552,24.82
15564,25.0
15576,25.08
15588,25.02
15600,24.76
15611,24.27
15622,23.49
15634,22.4
15646,20.95
15658,19.12
15670,16.89
15682,14.29
15694,11.42
15706,8.41
15718,5.42
15730,2.55
15742,-0.22
15754,-3.0
15766,-6.0
15778,-9.38
15790,-13.17
15801,-17.25
15812,-21.38
15824,-25.21
15836,-28.34
15848,-30.37
15860,-30.96
15872,-29.83
15884,-26.88
15896,-22.25
15908,-16.34
15920,-9.7
15932,-2.97
15944,3.29
15956,8.71
15968,13.13
15980,16.52
15991,18.98
16002,20.56
16014,21.31
16026,21.34
16038,20.81
16050,19.97
16062,19.16
16074,18.68
16086,18.65
16098,19.03
16110,19.59
16122,20.09
16134,20.35
16146,20.31
16158,20.01
16170,19.47
16181,18.66
16192,17.48
16204,15.79
16216,13.54
16228,10.82
16240,7.81
16252,4.75
16264,1.84
16276,-0.84
16288,-3.34
16300,-5.76
16312,-8.22
16324,-10.8
16336,-13.58
16348,-16.58
16360,-19.86
16371,-23.39
16382,-27.07
16394,-30.55
16406,-33.34
16418,-34.83
16430,-34.58
16442,-32.45
16454,-28.67
16466,-23.78
16478,-18.43
16490,-13.13
16502,-8.16
16514,-3.62
16526,0.48
16538,4.04
16550,6.82
16561,8.6
16572,9.25
16584,8.94
16596,8.08
16608,7.26
16620,6.95
16632,7.38
16644,8.45
16656,9.83
16668,11.17
16680,12.21
16692,12.88
16704,13.23
16716,13.35
16728,13.27
16740,12.97
16751,12.4
16762,11.51
16774,10.31
16786,8.85
16798,7.2
16810,5.46
16822,3.69
16834,1.99
16846,0.35
16858,-1.29
16870,-3.07
16882,-5.18
16894,-7.76
16906,-10.84
16918,-14.36
16930,-18.09
16941,-21.67
16952,-24.64
16964,-26.53
16976,-26.89
16988,-25.44
17000,-22.15
17012,-17.28
17024,-11.33
17036,-4.83
17048,1.72
17060,7.97
17072,13.71
17084,18.76
17096,22.93
17108,26.01
17120,27.89
17131,28.65
17142,28.56
17154,28.08
17166,27.7
17178,27.74
17190,28.26
17202,29.04
17214,29.72
17226,29.97
17238,29.56
17250,28.36
17262,26.33
17274,23.4
17286,19.45
17298,14.4
17310,8.27
17321,1.25
17332,-6.3
17344,-13.94
17356,-21.29
17368,-28.04
17380,-34.06
17392,-39.32
17404,-43.84
17416,-47.77
17428,-51.27
17440,-54.58
17452,-57.92
17464,-61.38
17476,-64.9
17488,-68.22
17500,-70.97
17511,-72.68
17522,-72.92
17534,-71.32
17546,-67.65
17558,-61.88
17570,-54.28
17582,-45.42
17594,-36.04
17606,-26.97
17618,-18.89
17630,-12.26
17642,-7.3
17654,-4.07
17666,-2.49
17678,-2.42
17690,-3.59
17701,-5.57
17712,-7.94
17724,-10.29
17736,-12.47
17748,-14.51
17760,-16.58
17772,-18.78
17784,-21.06
17796,-23.18
17808,-24.85
17820,-25.84
17832,-26.11
17844,-25.76
17856,-25.02
17868,-24.19
17880,-23.55
17891,-23.29
17902,-23.52
17914,-24.27
17926,-25.46
17938,-27.04
17950,-29.03
17962,-31.5
17974,-34.58
17986,-38.39
17998,-42.91
18010,-47.82
18022,-52.41
18034,-55.59
18046,-56.02
18058,-52.47
18070,-44.2
18081,-31.27
18092,-14.68
18104,3.89
18116,22.55
18128,39.65
18140,54.15
18152,65.59
18164,73.95
18176,79.4
18188,82.19
18200,82.68
18212,81.45
18224,79.3
18236,77.09
18248,75.46
18260,74.62
18271,74.37
18282,74.2
18294,73.66
18306,72.56
18318,71.02
18330,69.32
18342,67.66
18354,66.04
18366,64.23
18378,61.96
18390,59.08
18402,55.64
18414,51.85
18426,47.96
18438,44.13
18450,40.39
18461,36.61
18472,32.6
18484,28.18
18496,23.23
18508,17.79
18520,12.09
18532,6.57
18544,1.81
18556,-1.6
18568,-3.21
18580,-2.79
18592,-0.42
18604,3.57
18616,8.66
18628,14.24
18640,19.71
18651,24.54
18662,28.31
18674,30.8
18686,32.01
18698,32.16
18710,31.56
18722,30.6
18734,29.54
18746,28.56
18758,27.7
18770,26.94
18782,26.26
18794,25.68
18806,25.25
18818,24.99
18830,24.91
18841,24.9
18852,24.82
18864,24.49
18876,23.79
18888,22.66
18900,21.16
18912,19.36
18924,17.36
18936,15.22
18948,12.92
18960,10.38
18972,7.51
18984,4.21
18996,0.42
19008,-3.89
19020,-8.63
19031,-13.59
19042,-18.39
19054,-22.52
19066,-25.41
19078,-26.63
19090,-26.03
19102,-23.83
19114,-20.55
19126,-16.81
19138,-13.17
19150,-9.99
19162,-7.43
19174,-5.49
19186,-4.14
19198,-3.38
19210,-3.22
19221,-3.66
19232,-4.62
19244,-5.91
19256,-7.34
19268,-8.69
19280,-9.81
19292,-10.62
19304,-11.14
19316,-11.48
19328,-11.79
19340,-12.23
19352,-12.89
19364,-13.78
19376,-14.84
19388,-15.93
19400,-16.92
19411,-17.72
19422,-18.29
19434,-18.67
19446,-18.91
19458,-19.06
19470,-19.22
19482,-19.46
19494,-19.83
19506,-20.33
19518,-20.88
19530,-21.27
19542,-21.22
19554,-20.37
19566,-18.41
19578,-15.22
19590,-10.89
19601,-5.77
19612,-0.36
19624,4.82
19636,9.4
19648,13.23
19660,16.35
19672,18.89
19684,20.95
19696,22.49
19708,23.37
19720,23.45
19732,22.67
19744,21.17
19756,19.15
19768,16.88
19780,14.5
19791,12.1
19802,9.68
19814,7.29
19826,5.03
19838,3.04
19850,1.39
19862,0.02
19874,-1.29
19886,-2.73
19898,-4.49
19910,-6.56
19922,-8.78
19934,-10.92
19946,-12.78
19958,-14.31
19970,-15.65
19981,-17.03
19992,-18.67
20004,-20.64
20016,-22.8
20028,-24.76
20040,-26.03
20052,-26.09
20064,-24.61
20076,-21.44
20088,-16.74
20100,-10.86
20112,-4.3
20124,2.41
20136,8.81
20148,14.53
20160,19.34
20171,23.1
20182,25.75
20194,27.24
20206,27.57
20218,26.83
20230,25.25
20242,23.19
20254,21.06
20266,19.19
20278,17.76
20290,16.74
20302,15.98
20314,15.31
20326,14.65
20338,14.03
20350,13.52
20361,13.18
20372,12.96
20384,12.69
20396,12.17
20408,11.26
20420,9.93
20432,8.3
20444,6.55
20456,4.8
20468,3.12
20480,1.41
20492,-0.44
20504,-2.52
20516,-4.81
20528,-7.11
20540,-9.1
20551,-10.38
20562,-10.59
20574,-9.49
20586,-7.08
20598,-3.56
20610,0.67
20622,5.12
20634,9.29
20646,12.74
20658,15.19
20670,16.52
20682,16.72
20694,15.95
20706,14.4
20718,12.3
20730,9.88
20741,7.34
20752,4.8
20764,2.41
20776,0.28
20788,-1.49
20800,-2.82
20812,-3.68
20824,-4.07
20836,-4.06
20848,-3.76
20860,-3.38
20872,-3.15
20884,-3.32
20896,-4.06
20908,-5.36
20920,-7.06
20931,-8.89
20942,-10.6
20954,-12.06
20966,-13.34
20978,-14.55
20990,-15.77
