seconds,BVP
2,18.54
14,16.85
26,16.03
38,15.87
50,15.87
62,15.75
74,15.58
86,15.59
98,15.83
110,16.04
122,15.74
134,14.57
146,12.46
158,9.67
170,6.59
181,3.69
192,1.35
204,-0.05
216,-0.24
228,0.89
240,3.09
252,5.87
264,8.6
276,10.7
288,11.81
300,11.67
312,10.04
324,6.7
336,1.67
348,-4.57
360,-11.0
371,-16.35
382,-19.63
394,-20.64
406,-20.02
418,-18.9
430,-18.24
442,-18.36
454,-18.94
466,-19.39
478,-19.4
490,-19.12
502,-19.0
514,-19.41
526,-20.33
538,-21.36
550,-22.01
561,-21.94
572,-21.09
584,-19.61
596,-17.68
608,-15.45
620,-13.08
632,-10.81
644,-8.9
656,-7.5
668,-6.6
680,-6.03
692,-5.58
704,-5.2
716,-4.87
728,-4.41
740,-3.35
751,-1.0
762,3.22
774,9.34
786,16.67
798,24.08
810,30.46
822,35.14
834,38.01
846,39.32
858,39.32
870,38.1
882,35.79
894,32.72
906,29.48
918,26.79
930,25.0
941,23.97
952,23.04
964,21.45
976,18.78
988,15.1
1000,10.85
1012,6.45
1024,2.07
1036,-2.39
1048,-6.99
1060,-11.53
1072,-15.46
1084,-18.13
1096,-19.1
1108,-18.36
1120,-16.32
1131,-13.61
1142,-10.77
1154,-8.19
1166,-6.13
1178,-4.81
1190,-4.42
1202,-5.05
1214,-6.59
1226,-8.69
1238,-10.95
1250,-13.0
1262,-14.61
1274,-15.61
1286,-15.85
1298,-15.19
1310,-13.61
1321,-11.36
1332,-8.93
1344,-6.84
1356,-5.31
1368,-4.12
1380,-2.72
1392,-0.55
1404,2.6
1416,6.46
1428,10.56
1440,14.55
1452,18.48
1464,22.68
1476,27.45
1488,32.67
1500,37.76
1511,41.88
1522,44.25
1534,44.54
1546,42.84
1558,39.59
1570,35.35
1582,30.73
1594,26.24
1606,22.32
1618,19.23
1630,17.0
1642,15.35
1654,13.83
1666,12.07
1678,9.93
1690,7.55
1701,5.2
1712,3.01
1724,0.89
1736,-1.4
1748,-3.93
1760,-6.52
1772,-8.74
1784,-10.1
1796,-10.47
1808,-10.11
1820,-9.59
1832,-9.53
1844,-10.4
1856,-12.47
1868,-15.89
1880,-20.7
1891,-26.69
1902,-33.21
1914,-39.21
1926,-43.54
1938,-45.34
1950,-44.54
1962,-41.8
1974,-38.11
1986,-34.3
1998,-30.71
2010,-27.24
2022,-23.79
2034,-20.48
2046,-17.64
2058,-15.45
2070,-13.68
2081,-11.63
2092,-8.51
2104,-3.93
2116,1.75
2128,7.73
2140,13.14
2152,17.5
2164,20.8
2176,23.28
2188,25.09
2200,26.07
2212,26.0
2224,24.82
2236,22.88
2248,20.77
2260,19.01
2271,17.75
2282,16.81
2294,15.94
2306,15.01
2318,14.13
2330,13.5
2342,13.04
2354,12.4
2366,11.13
2378,9.0
2390,6.23
2402,3.37
2414,0.95
2426,-0.77
2438,-1.88
2450,-2.6
2461,-2.98
2472,-2.83
2484,-1.97
2496,-0.56
2508,0.76
2520,1.11
2532,-0.19
2544,-3.23
2556,-7.47
2568,-11.99
2580,-15.98
2592,-18.98
2604,-20.92
2616,-21.92
2628,-22.12
2640,-21.64
2651,-20.76
2662,-19.91
2674,-19.61
2686,-20.17
2698,-21.57
2710,-23.36
2722,-24.9
2734,-25.61
2746,-25.06
2758,-22.88
2770,-18.82
2782,-12.78
2794,-5.03
2806,3.56
2818,11.61
2830,17.73
2841,21.03
2852,21.48
2864,19.9
2876,17.49
2888,15.24
2900,13.62
2912,12.67
2924,12.28
2936,12.4
2948,13.12
2960,14.42
2972,15.97
2984,17.21
2996,17.63
3008,17.02
3020,15.69
3031,14.19
3042,13.01
3054,12.3
3066,11.96
3078,11.74
3090,11.52
3102,11.29
3114,11.05
3126,10.71
3138,10.05
3150,9.0
3162,7.69
3174,6.51
3186,5.86
3198,5.88
3210,6.33
3221,6.8
3232,7.02
3244,7.02
3256,7.1
3268,7.53
3280,8.27
3292,9.0
3304,9.35
3316,9.23
3328,8.87
3340,8.69
3352,8.88
3364,9.26
3376,9.33
3388,8.63
3400,7.07
3411,4.92
3422,2.66
3434,0.57
3446,-1.38
3458,-3.38
3470,-5.44
3482,-7.24
3494,-8.29
3506,-8.31
3518,-7.54
3530,-6.65
3542,-6.38
3554,-7.02
3566,-8.26
3578,-9.35
3590,-9.67
3601,-9.06
3612,-7.91
3624,-6.82
3636,-6.24
3648,-6.3
3660,-6.82
3672,-7.58
3684,-8.41
3696,-9.15
3708,-9.56
3720,-9.35
3732,-8.37
3744,-6.84
3756,-5.37
3768,-4.65
3780,-5.02
3791,-6.26
3802,-7.63
3814,-8.32
3826,-7.85
3838,-6.24
3850,-3.85
3862,-1.07
3874,1.8
3886,4.52
3898,6.67
3910,7.62
3922,6.75
3934,3.89
3946,-0.4
3958,-4.96
3970,-8.44
3981,-9.96
3992,-9.48
4004,-7.6
4016,-5.16
4028,-2.82
4040,-0.86
4052,0.58
4064,1.3
4076,0.91
4088,-0.87
4100,-3.94
4112,-7.61
4124,-10.79
4136,-12.51
4148,-12.32
4160,-10.48
4171,-7.65
4182,-4.59
4194,-1.82
4206,0.4
4218,1.87
4230,2.37
4242,1.8
4254,0.29
4266,-1.68
4278,-3.5
4290,-4.68
4302,-5.21
4314,-5.43
4326,-5.73
4338,-6.27
4350,-6.86
4361,-7.18
4372,-7.11
4384,-6.99
4396,-7.37
4408,-8.68
4420,-10.86
4432,-13.29
4444,-15.14
4456,-15.77
4468,-14.98
4480,-13.04
4492,-10.38
4504,-7.43
4516,-4.47
4528,-1.73
4540,0.51
4551,2.04
4562,2.86
4574,3.19
4586,3.46
4598,4.05
4610,5.02
4622,6.17
4634,7.15
4646,7.74
4658,7.99
4670,8.21
4682,8.66
4694,9.41
4706,10.32
4718,11.24
4730,12.1
4741,12.99
4752,13.94
4764,14.81
4776,15.21
4788,14.75
4800,13.33
4812,11.22
4824,9.02
4836,7.22
4848,5.99
4860,5.14
4872,4.39
4884,3.59
4896,2.93
4908,2.69
4920,2.97
4931,3.51
4942,3.76
4954,3.25
4966,1.81
4978,-0.27
4990,-2.49
5002,-4.43
5014,-5.91
5026,-6.96
5038,-7.7
5050,-8.12
5062,-8.19
5074,-8.01
5086,-7.89
5098,-8.33
5110,-9.67
5121,-11.94
5132,-14.75
5144,-17.46
5156,-19.55
5168,-20.71
5180,-20.94
5192,-20.34
5204,-19.07
5216,-17.37
5228,-15.59
5240,-14.2
5252,-13.6
5264,-13.86
5276,-14.55
5288,-14.92
5300,-14.15
5311,-11.85
5322,-8.12
5334,-3.42
5346,1.71
5358,6.91
5370,11.98
5382,16.71
5394,20.75
5406,23.78
5418,25.74
5430,26.98
5442,28.15
5454,29.85
5466,32.18
5478,34.6
5490,36.31
5501,36.68
5512,35.58
5524,33.43
5536,30.78
5548,27.93
5560,24.81
5572,21.18
5584,16.97
5596,12.54
5608,8.54
5620,5.57
5632,3.88
5644,3.32
5656,3.43
5668,3.77
5680,4.07
5691,4.22
5702,4.22
5714,4.1
5726,3.94
5738,3.9
5750,4.16
5762,4.85
5774,5.87
5786,6.95
5798,7.77
5810,8.18
5822,8.28
5834,8.41
5846,8.95
5858,10.2
5870,12.15
5881,14.48
5892,16.48
5904,17.15
5916,15.47
5928,10.81
5940,3.28
5952,-6.07
5964,-15.5
5976,-23.25
5988,-28.13
6000,-30.0
6012,-29.68
6024,-28.41
6036,-27.28
6048,-26.76
6060,-26.83
6071,-27.24
6082,-27.83
6094,-28.64
6106,-29.64
6118,-30.54
6130,-30.79
6142,-29.85
6154,-27.55
6166,-24.41
6178,-21.53
6190,-20.07
6202,-20.61
6214,-22.85
6226,-25.66
6238,-27.6
6250,-27.55
6261,-25.17
6272,-20.88
6284,-15.62
6296,-10.45
6308,-6.3
6320,-3.82
6332,-3.32
6344,-4.66
6356,-7.15
6368,-9.65
6380,-10.88
6392,-9.83
6404,-6.24
6416,-0.65
6428,5.84
6440,12.06
6451,17.15
6462,20.7
6474,22.59
6486,22.86
6498,21.62
6510,19.26
6522,16.51
6534,14.35
6546,13.68
6558,14.85
6570,17.52
6582,20.85
6594,23.95
6606,26.21
6618,27.45
6630,27.69
6641,26.99
6652,25.37
6664,23.05
6676,20.57
6688,18.8
6700,18.52
6712,20.07
6724,23.03
6736,26.45
6748,29.26
6760,30.67
6772,30.37
6784,28.37
6796,24.75
6808,19.61
6820,13.2
6831,6.13
6842,-0.68
6854,-6.2
6866,-9.81
6878,-11.58
6890,-12.15
6902,-12.33
6914,-12.63
6926,-13.09
6938,-13.35
6950,-13.11
6962,-12.42
6974,-11.69
6986,-11.41
6998,-11.95
7010,-13.3
7021,-15.28
7032,-17.74
7044,-20.62
7056,-23.87
7068,-27.3
7080,-30.45
7092,-32.72
7104,-33.68
7116,-33.22
7128,-31.64
7140,-29.39
7152,-26.88
7164,-24.33
7176,-21.83
7188,-19.42
7200,-17.11
7211,-14.81
7222,-12.33
7234,-9.37
7246,-5.75
7258,-1.55
7270,2.85
7282,7.07
7294,10.99
7306,14.82
7318,18.98
7330,23.76
7342,28.96
7354,33.92
7366,37.75
7378,39.75
7390,39.62
7401,37.47
7412,33.67
7424,28.65
7436,22.94
7448,17.19
7460,12.29
7472,9.13
7484,8.27
7496,9.57
7508,12.12
7520,14.54
7532,15.57
7544,14.54
7556,11.64
7568,7.63
7580,3.46
7591,-0.12
7602,-2.65
7614,-3.97
7626,-4.02
7638,-2.8
7650,-0.53
7662,2.37
7674,5.32
7686,7.77
7698,9.4
7710,10.23
7722,10.52
7734,10.67
7746,10.98
7758,11.55
7770,12.21
7781,12.58
7792,12.13
7804,10.33
7816,6.89
7828,1.97
7840,-3.77
7852,-9.37
7864,-14.0
7876,-17.27
7888,-19.42
7900,-21.04
7912,-22.67
7924,-24.47
7936,-26.17
7948,-27.23
7960,-27.31
7971,-26.44
7982,-25.02
7994,-23.54
8006,-22.32
8018,-21.35
8030,-20.41
8042,-19.42
8054,-18.53
8066,-18.02
8078,-17.96
8090,-17.85
8102,-16.66
8114,-13.3
8126,-7.22
8138,1.19
8150,10.69
8161,19.74
8172,27.11
8184,32.22
8196,35.02
8208,35.59
8220,33.87
8232,29.62
8244,22.62
8256,13.04
8268,1.51
8280,-10.77
8292,-22.29
8304,-31.24
8316,-35.87
8328,-34.89
8340,-27.89
8351,-15.78
8362,-0.67
8374,14.73
8386,27.89
8398,37.11
8410,41.8
8422,42.26
8434,39.3
8446,33.96
8458,27.41
8470,20.96
8482,15.83
8494,12.78
8506,11.69
8518,11.56
8530,10.89
8541,8.48
8552,4.0
8564,-1.81
8576,-7.53
8588,-11.81
8600,-14.01
8612,-14.33
8624,-13.66
8636,-12.99
8648,-13.08
8660,-14.24
8672,-16.49
8684,-19.66
8696,-23.45
8708,-27.43
8720,-31.06
8731,-33.78
8742,-35.23
8754,-35.46
8766,-34.84
8778,-33.86
8790,-32.86
8802,-31.81
8814,-30.37
8826,-28.08
8838,-24.55
8850,-19.56
8862,-13.2
8874,-5.85
8886,1.7
8898,8.28
8910,12.59
8921,13.63
8932,11.28
8944,6.48
8956,0.95
8968,-3.52
8980,-5.94
8992,-6.51
9004,-6.36
9016,-6.86
9028,-8.81
9040,-12.1
9052,-15.97
9064,-19.57
9076,-22.44
9088,-24.6
9100,-26.26
9111,-27.43
9122,-27.76
9134,-26.73
9146,-23.96
9158,-19.45
9170,-13.56
9182,-6.79
9194,0.39
9206,7.62
9218,14.6
9230,21.11
9242,27.02
9254,32.34
9266,37.33
9278,42.22
9290,47.11
9301,51.76
9312,55.79
9324,58.91
9336,61.11
9348,62.67
9360,63.87
9372,64.66
9384,64.61
9396,63.09
9408,59.61
9420,54.14
9432,47.08
9444,39.04
9456,30.65
9468,22.45
9480,14.94
9491,8.57
9502,3.68
9514,0.26
9526,-2.12
9538,-4.19
9550,-6.59
9562,-9.59
9574,-13.02
9586,-16.51
9598,-19.88
9610,-23.2
9622,-26.64
9634,-30.13
9646,-33.18
9658,-35.05
9670,-35.14
9681,-33.4
9692,-30.38
9704,-26.86
9716,-23.47
9728,-20.44
9740,-17.71
9752,-15.26
9764,-13.31
9776,-12.25
9788,-12.26
9800,-13.08
9812,-13.96
9824,-14.04
9836,-12.9
9848,-10.7
9860,-8.1
9871,-5.79
9882,-4.1
9894,-2.95
9906,-2.01
9918,-1.11
9930,-0.35
9942,0.08
9954,0.15
9966,0.18
9978,0.73
9990,2.2
10002,4.51
10014,7.13
10026,9.32
10038,10.48
10050,10.4
10061,9.19
10072,7.09
10084,4.32
10096,1.21
10108,-1.8
10120,-4.08
10132,-5.02
10144,-4.34
10156,-2.3
10168,0.38
10180,2.89
10192,4.61
10204,5.26
10216,4.87
10228,3.52
10240,1.28
10251,-1.63
10262,-4.73
10274,-7.27
10286,-8.42
10298,-7.72
10310,-5.4
10322,-2.23
10334,0.79
10346,2.89
10358,3.76
10370,3.54
10382,2.53
10394,1.0
10406,-0.81
10418,-2.55
10430,-3.72
10441,-3.79
10452,-2.54
10464,-0.3
10476,2.1
10488,3.71
10500,3.81
10512,2.29
10524,-0.45
10536,-3.75
10548,-7.01
10560,-9.77
10572,-11.63
10584,-12.22
10596,-11.25
10608,-8.74
10620,-5.15
10631,-1.31
10642,1.9
10654,3.92
10666,4.75
10678,4.83
10690,4.79
10702,5.03
10714,5.73
10726,6.83
10738,8.18
10750,9.58
10762,10.68
10774,10.95
10786,9.77
10798,6.76
10810,2.06
10821,-3.56
10832,-8.96
10844,-13.12
10856,-15.5
10868,-16.15
10880,-15.45
10892,-13.81
10904,-11.55
10916,-8.85
10928,-6.07
10940,-3.77
10952,-2.59
10964,-2.89
10976,-4.51
10988,-6.77
11000,-8.77
11011,-9.76
11022,-9.44
11034,-7.95
11046,-5.64
11058,-2.9
11070,-0.07
11082,2.45
11094,4.18
11106,4.68
11118,3.76
11130,1.61
11142,-1.19
11154,-3.97
11166,-6.23
11178,-7.76
11190,-8.55
11201,-8.6
11212,-7.85
11224,-6.3
11236,-4.26
11248,-2.45
11260,-1.75
11272,-2.87
11284,-5.9
11296,-10.31
11308,-15.1
11320,-19.28
11332,-22.09
11344,-23.11
11356,-22.12
11368,-19.13
11380,-14.45
11391,-8.79
11402,-3.24
11414,1.1
11426,3.49
11438,3.83
11450,2.63
11462,0.62
11474,-1.58
11486,-3.64
11498,-5.39
11510,-6.58
11522,-6.82
11534,-5.81
11546,-3.57
11558,-0.75
11570,1.61
11581,2.52
11592,1.51
11604,-1.11
11616,-4.5
11628,-7.68
11640,-9.99
11652,-11.18
11664,-11.29
11676,-10.43
11688,-8.67
11700,-6.11
11712,-3.14
11724,-0.38
11736,1.48
11748,2.07
11760,1.53
11771,0.44
11782,-0.54
11794,-0.98
11806,-0.76
11818,0.07
11830,1.59
11842,4.07
11854,7.8
11866,12.77
11878,18.4
11890,23.8
11902,28.07
11914,30.71
11926,31.75
11938,31.53
11950,30.45
11961,28.8
11972,26.85
11984,24.9
11996,23.39
12008,22.7
12020,22.9
12032,23.63
12044,24.18
12056,23.89
12068,22.37
12080,19.69
12092,16.21
12104,12.33
12116,8.32
12128,4.4
12140,0.81
12151,-2.08
12162,-3.94
12174,-4.67
12186,-4.49
12198,-3.89
12210,-3.29
12222,-2.84
12234,-2.36
12246,-1.57
12258,-0.39
12270,0.92
12282,1.94
12294,2.41
12306,2.46
12318,2.54
12330,3.14
12341,4.36
12352,5.84
12364,6.96
12376,7.13
12388,6.1
12400,3.94
12412,0.93
12424,-2.6
12436,-6.3
12448,-9.64
12460,-11.97
12472,-12.77
12484,-11.9
12496,-9.81
12508,-7.38
12520,-5.4
12531,-4.24
12542,-3.74
12554,-3.51
12566,-3.39
12578,-3.7
12590,-4.96
12602,-7.44
12614,-10.81
12626,-14.13
12638,-16.33
12650,-16.87
12662,-15.95
12674,-14.38
12686,-13.04
12698,-12.49
12710,-12.75
12721,-13.65
12732,-15.06
12744,-17.05
12756,-19.67
12768,-22.73
12780,-25.72
12792,-27.94
12804,-28.91
12816,-28.68
12828,-27.75
12840,-26.74
12852,-26.09
12864,-25.72
12876,-25.18
12888,-23.89
12900,-21.41
12911,-17.67
12922,-12.91
12934,-7.53
12946,-1.91
12958,3.74
12970,9.34
12982,15.02
12994,20.92
13006,27.12
13018,33.47
13030,39.49
13042,44.44
13054,47.47
13066,47.97
13078,45.71
13090,40.98
13101,34.53
13112,27.37
13124,20.5
13136,14.82
13148,10.95
13160,9.13
13172,9.13
13184,10.31
13196,11.65
13208,12.12
13220,11.02
13232,8.23
13244,4.23
13256,-0.12
13268,-3.94
13280,-6.64
13291,-8.0
13302,-8.05
13314,-7.01
13326,-5.13
13338,-2.76
13350,-0.43
13362,1.28
13374,1.89
13386,1.24
13398,-0.38
13410,-2.41
13422,-4.24
13434,-5.46
13446,-5.91
13458,-5.51
13470,-4.12
13481,-1.55
13492,2.36
13504,7.36
13516,12.77
13528,17.7
13540,21.38
13552,23.49
13564,24.26
13576,24.21
13588,23.85
13600,23.42
13612,23.03
13624,22.77
13636,22.79
13648,23.15
13660,23.56
13671,23.35
13682,21.76
13694,18.41
13706,13.53
13718,7.96
13730,2.72
13742,-1.51
13754,-4.6
13766,-6.74
13778,-8.16
13790,-8.89
13802,-8.9
13814,-8.42
13826,-8.16
13838,-8.91
13850,-11.11
13861,-14.42
13872,-17.77
13884,-19.89
13896,-19.91
13908,-17.99
13920,-15.17
13932,-12.85
13944,-11.97
13956,-12.59
13968,-14.04
13980,-15.39
13992,-15.89
14004,-15.13
14016,-13.21
14028,-10.86
14040,-9.09
14051,-8.71
14062,-9.97
14074,-12.43
14086,-15.1
14098,-16.72
14110,-15.98
14122,-12.31
14134,-6.4
14146,0.03
14158,5.25
14170,8.24
14182,8.98
14194,8.29
14206,7.6
14218,8.77
14230,13.41
14241,22.13
14252,34.19
14264,47.73
14276,59.83
14288,66.89
14300,65.31
14312,51.77
14324,26.74
14336,-3.84
14348,-31.16
14360,-49.12
14372,-56.87
14384,-57.41
14396,-54.74
14408,-51.83
14420,-49.3
14431,-45.91
14442,-40.36
14454,-32.73
14466,-24.68
14478,-18.48
14490,-15.82
14502,-17.01
14514,-21.18
14526,-26.11
14538,-29.17
14550,-28.89
14562,-25.45
14574,-20.66
14586,-16.86
14598,-15.83
14610,-18.44
14621,-25.04
14632,-35.77
14644,-49.27
14656,-63.78
14668,-76.51
14680,-83.69
14692,-81.33
14704,-67.08
14716,-40.65
14728,-8.36
14740,22.05
14752,44.33
14764,55.82
14776,58.0
14788,54.77
14800,50.21
14811,46.51
14822,43.61
14834,40.15
14846,35.56
14858,30.58
14870,26.7
14882,25.22
14894,26.33
14906,29.17
14918,32.25
14930,34.06
14942,33.81
14954,32.08
14966,30.12
14978,29.3
14990,30.88
15001,34.67
15012,40.0
15024,46.06
15036,52.21
15048,58.15
15060,63.74
15072,68.29
15084,70.32
15096,68.07
15108,60.41
15120,47.59
15132,31.41
15144,14.43
15156,-0.87
15168,-12.81
15180,-20.63
15191,-24.37
15202,-24.55
15214,-22.03
15226,-18.05
15238,-14.14
15250,-11.58
15262,-10.86
15274,-11.48
15286,-12.34
15298,-12.59
15310,-12.11
15322,-11.43
15334,-10.83
15346,-10.12
15358,-8.58
15370,-5.73
15381,-2.08
15392,0.93
15404,1.84
15416,0.28
15428,-2.67
15440,-5.04
15452,-5.27
15464,-3.17
15476,-0.02
15488,2.46
15500,3.74
15512,3.99
15524,4.12
15536,4.87
15548,6.09
15560,6.94
15571,6.63
15582,5.22
15594,3.75
15606,3.55
15618,5.17
15630,8.04
15642,10.91
15654,12.76
15666,13.45
15678,13.82
15690,15.01
15702,17.58
15714,21.25
15726,25.14
15738,28.48
15750,31.05
15761,33.08
15772,34.72
15784,35.68
15796,35.4
15808,33.55
15820,30.33
15832,26.46
15844,22.82
15856,19.73
15868,16.88
15880,13.82
15892,10.46
15904,7.32
15916,5.23
15928,4.51
15940,4.53
15951,4.15
15962,2.56
15974,-0.05
15986,-2.42
15998,-3.04
16010,-1.33
16022,1.97
16034,5.27
16046,7.18
16058,7.3
16070,6.21
16082,4.73
16094,3.11
16106,0.87
16118,-2.57
16130,-7.18
16141,-12.0
16152,-15.59
16164,-16.97
16176,-16.25
16188,-14.36
16200,-12.35
16212,-10.74
16224,-9.31
16236,-7.58
16248,-5.56
16260,-3.86
16272,-3.23
16284,-3.99
16296,-5.73
16308,-7.55
16320,-8.81
16331,-9.59
16342,-10.41
16354,-11.54
16366,-12.5
16378,-12.13
16390,-9.38
16402,-4.32
16414,1.68
16426,6.7
16438,9.46
16450,10.02
16462,9.66
16474,9.73
16486,10.62
16498,11.56
16510,11.48
16521,9.95
16532,7.79
16544,6.48
16556,7.03
16568,9.12
16580,11.34
16592,12.22
16604,11.08
16616,8.32
16628,4.84
16640,1.11
16652,-3.12
16664,-8.12
16676,-13.64
16688,-18.61
16700,-21.73
16711,-22.51
16722,-21.84
16734,-21.34
16746,-22.21
16758,-24.48
16770,-26.98
16782,-28.27
16794,-27.88
16806,-26.59
16818,-25.66
16830,-25.8
16842,-26.62
16854,-26.92
16866,-25.86
16878,-23.77
16890,-21.91
16901,-21.48
16912,-22.66
16924,-24.3
16936,-24.72
16948,-23.03
16960,-19.76
16972,-16.47
16984,-14.54
16996,-14.38
17008,-15.27
17020,-16.13
17032,-16.6
17044,-17.17
17056,-18.48
17068,-20.52
17080,-22.24
17091,-22.21
17102,-19.87
17114,-16.21
17126,-13.13
17138,-12.14
17150,-13.39
17162,-15.5
17174,-16.73
17186,-16.28
17198,-14.72
17210,-13.17
17222,-12.16
17234,-11.0
17246,-8.39
17258,-3.83
17270,1.56
17281,5.56
17292,6.34
17304,3.82
17316,-0.06
17328,-2.59
17340,-2.11
17352,0.96
17364,4.78
17376,7.45
17388,8.2
17400,7.69
17412,7.05
17424,6.7
17436,6.15
17448,4.6
17460,1.87
17471,-1.03
17482,-2.57
17494,-1.92
17506,0.23
17518,2.12
17530,2.07
17542,-0.36
17554,-4.12
17566,-7.51
17578,-9.48
17590,-10.34
17602,-11.1
17614,-12.48
17626,-14.23
17638,-15.22
17650,-14.65
17661,-12.98
17672,-11.7
17684,-12.27
17696,-14.91
17708,-18.23
17720,-20.1
17732,-19.3
17744,-16.3
17756,-12.84
17768,-10.64
17780,-10.27
17792,-11.02
17804,-11.89
17816,-12.6
17828,-13.84
17840,-16.44
17851,-20.43
17862,-24.59
17874,-27.09
17886,-26.86
17898,-24.28
17910,-20.8
17922,-17.86
17934,-16.0
17946,-14.73
17958,-13.2
17970,-11.19
17982,-9.21
17994,-7.64
18006,-6.19
18018,-3.66
18030,1.25
18041,8.6
18052,16.83
18064,23.62
18076,27.33
18088,28.08
18100,27.58
18112,27.83
18124,29.55
18136,31.69
18148,32.53
18160,31.21
18172,28.46
18184,26.21
18196,25.92
18208,27.19
18220,28.06
18231,26.49
18242,21.92
18254,15.89
18266,10.98
18278,8.7
18290,8.44
18302,8.11
18314,5.82
18326,1.18
18338,-4.35
18350,-8.96
18362,-11.99
18374,-14.24
18386,-17.04
18398,-20.81
18410,-24.31
18421,-25.5
18432,-23.16
18444,-18.04
18456,-12.38
18468,-8.37
18480,-6.86
18492,-7.04
18504,-7.33
18516,-6.9
18528,-6.2
18540,-6.14
18552,-7.08
18564,-8.28
18576,-8.35
18588,-6.67
18600,-4.12
18611,-2.58
18622,-3.55
18634,-7.03
18646,-11.27
18658,-13.99
18670,-13.97
18682,-11.79
18694,-9.16
18706,-7.56
18718,-7.25
18730,-7.27
18742,-6.61
18754,-5.29
18766,-4.42
18778,-5.18
18790,-7.69
18801,-10.6
18812,-11.78
18824,-9.98
18836,-5.77
18848,-0.94
18860,2.68
18872,4.33
18884,4.65
18896,4.68
18908,4.7
18920,4.03
18932,1.97
18944,-1.33
18956,-4.41
18968,-5.5
18980,-3.96
18991,-1.07
19002,0.76
19014,-0.36
19026,-4.56
19038,-10.09
19050,-14.64
19062,-16.97
19074,-17.48
19086,-17.31
19098,-17.09
19110,-16.25
19122,-13.53
19134,-8.47
19146,-2.3
19158,2.59
19170,4.26
19181,2.51
19192,-0.66
19204,-2.4
19216,-0.99
19228,3.17
19240,8.1
19252,11.74
19264,13.28
19276,13.5
19288,13.69
19300,14.4
19312,14.99
19324,14.4
19336,12.22
19348,9.43
19360,7.87
19371,8.86
19382,12.13
19394,16.08
19406,18.86
19418,19.51
19430,18.48
19442,16.94
19454,15.6
19466,14.2
19478,12.14
19490,9.22
19502,6.28
19514,4.66
19526,4.98
19538,6.38
19550,7.09
19561,5.64
19572,1.98
19584,-2.35
19596,-5.4
19608,-6.22
19620,-5.52
19632,-4.84
19644,-5.23
19656,-6.49
19668,-7.43
19680,-7.12
19692,-5.93
19704,-5.34
19716,-6.74
19728,-10.34
19740,-14.72
19751,-17.78
19762,-18.28
19774,-16.62
19786,-14.4
19798,-13.21
19810,-13.7
19822,-15.32
19834,-17.21
19846,-19.12
19858,-21.49
19870,-24.82
19882,-28.88
19894,-32.41
19906,-33.88
19918,-32.71
19930,-29.92
19941,-27.6
19952,-27.56
19964,-30.23
19976,-34.44
19988,-38.2
20000,-40.09
20012,-39.84
20024,-37.8
20036,-34.24
20048,-28.85
20060,-21.09
20072,-11.31
20084,-1.25
20096,6.67
20108,10.73
20120,11.07
20131,9.8
20142,9.64
20154,12.07
20166,16.49
20178,20.91
20190,23.56
20202,24.04
20214,23.49
20226,23.42
20238,24.37
20250,25.61
20262,26.0
20274,25.03
20286,23.37
20298,22.42
20310,23.0
20321,24.63
20332,25.89
20344,25.47
20356,23.03
20368,19.43
20380,15.92
20392,13.14
20404,10.84
20416,8.55
20428,6.31
20440,4.95
20452,5.54
20464,8.28
20476,12.0
20488,14.8
20500,15.34
20511,13.71
20522,11.35
20534,9.98
20546,10.24
20558,11.27
20570,11.66
20582,10.64
20594,8.81
20606,7.67
20618,8.24
20630,9.95
20642,11.04
20654,9.83
20666,6.05
20678,1.31
20690,-2.0
20701,-2.44
20712,-0.39
20724,2.46
20736,4.47
20748,5.11
20760,5.06
20772,5.16
20784,5.31
20796,4.37
20808,1.21
20820,-4.16
20832,-10.06
20844,-13.9
20856,-13.74
20868,-9.42
20880,-2.29
20891,5.8
20902,13.5
20914,20.37
20926,26.38
20938,31.03
20950,33.26
20962,32.27
20974,28.26
20986,22.74
20998,17.8
