seconds,BVP
4,-131.81
16,-123.84
28,-108.07
40,-85.3
52,-57.99
64,-29.58
76,-3.4
88,18.27
100,34.62
112,46.14
123,53.93
134,58.99
146,61.89
158,62.81
170,61.88
182,59.48
194,56.3
206,53.15
218,50.68
230,49.25
242,48.87
254,49.42
266,50.75
278,52.7
290,55.03
302,57.36
313,59.05
324,59.44
336,57.98
348,54.49
360,49.28
372,43.09
384,36.82
396,31.27
408,26.89
420,23.7
432,21.39
444,19.52
456,17.69
468,15.64
480,13.17
492,10.09
503,6.14
514,1.07
526,-5.37
538,-13.23
550,-22.29
562,-32.01
574,-41.44
586,-49.3
598,-54.09
610,-54.44
622,-49.46
634,-39.11
646,-24.32
658,-6.85
670,11.13
682,27.59
693,41.1
704,50.99
716,57.22
728,60.13
740,60.2
752,57.95
764,53.99
776,49.12
788,44.35
800,40.7
812,38.94
824,39.36
836,41.61
848,44.95
860,48.49
872,51.5
883,53.63
894,54.76
906,54.91
918,53.97
930,51.68
942,47.76
954,42.17
966,35.34
978,28.13
990,21.6
1002,16.61
1014,13.45
1026,11.72
1038,10.54
1050,9.0
1062,6.45
1073,2.81
1084,-1.54
1096,-6.07
1108,-10.34
1120,-14.22
1132,-17.88
1144,-21.61
1156,-25.69
1168,-30.31
1180,-35.52
1192,-41.22
1204,-47.16
1216,-52.89
1228,-57.73
1240,-60.96
1252,-61.96
1263,-60.45
1274,-56.67
1286,-51.37
1298,-45.59
1310,-40.42
1322,-36.69
1334,-34.82
1346,-34.82
1358,-36.49
1370,-39.48
1382,-43.45
1394,-48.01
1406,-52.69
1418,-56.94
1430,-60.13
1442,-61.73
1453,-61.46
1464,-59.36
1476,-55.73
1488,-51.06
1500,-45.81
1512,-40.31
1524,-34.75
1536,-29.28
1548,-24.03
1560,-19.24
1572,-15.19
1584,-12.05
1596,-9.84
1608,-8.35
1620,-7.18
1632,-5.98
1643,-4.62
1654,-3.22
1666,-2.22
1678,-2.05
1690,-3.0
1702,-5.0
1714,-7.66
1726,-10.36
1738,-12.47
1750,-13.55
1762,-13.45
1774,-12.41
1786,-10.97
1798,-9.84
1810,-9.62
1822,-10.57
1833,-12.39
1844,-14.19
1856,-14.71
1868,-12.69
1880,-7.37
1892,1.26
1904,12.42
1916,24.82
1928,37.13
1940,48.31
1952,57.78
1964,65.38
1976,71.09
1988,74.88
2000,76.69
2012,76.58
2023,74.84
2034,72.07
2046,69.04
2058,66.46
2070,64.71
2082,63.76
2094,63.25
2106,62.74
2118,62.0
2130,61.0
2142,59.96
2154,59.11
2166,58.51
2178,58.02
2190,57.3
2202,55.93
2213,53.57
2224,49.97
2236,45.07
2248,38.9
2260,31.53
2272,23.06
2284,13.61
2296,3.43
2308,-7.04
2320,-17.17
2332,-26.25
2344,-33.67
2356,-39.17
2368,-42.95
2380,-45.62
2392,-47.98
2403,-50.67
2414,-53.95
2426,-57.51
2438,-60.61
2450,-62.3
2462,-61.67
2474,-58.15
2486,-51.63
2498,-42.53
2510,-31.75
2522,-20.5
2534,-10.01
2546,-1.32
2558,5.06
2570,9.12
2582,11.25
2593,12.07
2604,12.09
2616,11.64
2628,10.87
2640,9.88
2652,8.85
2664,8.09
2676,7.92
2688,8.54
2700,9.9
2712,11.77
2724,13.81
2736,15.73
2748,17.4
2760,18.7
2772,19.53
2783,19.65
2794,18.79
2806,16.75
2818,13.54
2830,9.44
2842,4.87
2854,0.24
2866,-4.21
2878,-8.46
2890,-12.67
2902,-17.0
2914,-21.55
2926,-26.34
2938,-31.35
2950,-36.61
2962,-42.16
2973,-48.09
2984,-54.42
2996,-61.05
3008,-67.82
3020,-74.41
3032,-80.42
3044,-85.3
3056,-88.49
3068,-89.45
3080,-87.89
3092,-83.85
3104,-77.79
3116,-70.54
3128,-63.12
3140,-56.46
3152,-51.24
3163,-47.9
3174,-46.64
3186,-47.59
3198,-50.79
3210,-56.03
3222,-62.74
3234,-69.79
3246,-75.57
3258,-78.33
3270,-76.58
3282,-69.48
3294,-57.1
3306,-40.43
3318,-21.12
3330,-1.09
3342,17.85
3353,34.3
3364,47.41
3376,56.91
3388,63.0
3400,66.2
3412,67.15
3424,66.45
3436,64.59
3448,61.89
3460,58.52
3472,54.52
3484,49.93
3496,44.78
3508,39.19
3520,33.31
3532,27.34
3543,21.46
3554,15.86
3566,10.6
3578,5.62
3590,0.65
3602,-4.7
3614,-10.78
3626,-17.6
3638,-24.63
3650,-30.73
3662,-34.41
3674,-34.41
3686,-30.07
3698,-21.71
3710,-10.54
3722,1.84
3733,13.84
3744,24.35
3756,32.77
3768,38.98
3780,43.07
3792,45.19
3804,45.52
3816,44.32
3828,41.98
3840,39.08
3852,36.17
3864,33.71
3876,31.94
3888,30.89
3900,30.51
3912,30.75
3923,31.64
3934,33.18
3946,35.23
3958,37.49
3970,39.5
3982,40.85
3994,41.33
4006,40.99
4018,40.0
4030,38.55
4042,36.62
4054,33.99
4066,30.31
4078,25.38
4090,19.22
4102,12.21
4113,4.91
4124,-2.04
4136,-8.21
4148,-13.4
4160,-17.69
4172,-21.36
4184,-24.74
4196,-28.23
4208,-32.24
4220,-37.13
4232,-43.05
4244,-49.77
4256,-56.45
4268,-61.8
4280,-64.37
4292,-63.05
4303,-57.54
4314,-48.47
4326,-37.2
4338,-25.36
4350,-14.37
4362,-5.15
4374,1.92
4386,6.81
4398,9.66
4410,10.68
4422,10.15
4434,8.48
4446,6.21
4458,4.03
4470,2.52
4482,2.11
4493,2.94
4504,4.92
4516,7.75
4528,11.09
4540,14.63
4552,18.1
4564,21.27
4576,24.0
4588,26.17
4600,27.76
4612,28.82
4624,29.44
4636,29.68
4648,29.53
4660,28.98
4672,27.97
4683,26.56
4694,24.87
4706,23.06
4718,21.28
4730,19.6
4742,18.03
4754,16.55
4766,15.15
4778,13.83
4790,12.56
4802,11.27
4814,9.77
4826,7.94
4838,5.87
4850,3.97
4862,3.03
4873,3.92
4884,7.3
4896,13.28
4908,21.29
4920,30.21
4932,38.73
4944,45.66
4956,50.18
4968,51.91
4980,50.67
4992,46.4
5004,39.0
5016,28.49
5028,15.18
5040,-0.16
5052,-16.35
5063,-32.01
5074,-45.87
5086,-57.15
5098,-65.58
5110,-71.35
5122,-74.82
5134,-76.29
5146,-75.98
5158,-74.04
5170,-70.75
5182,-66.5
5194,-61.78
5206,-56.97
5218,-52.25
5230,-47.56
5242,-42.73
5253,-37.6
5264,-32.08
5276,-26.24
5288,-20.24
5300,-14.32
5312,-8.79
5324,-3.94
5336,-0.01
5348,2.88
5360,4.73
5372,5.62
5384,5.54
5396,4.42
5408,2.11
5420,-1.28
5432,-5.3
5443,-9.0
5454,-11.18
5466,-10.81
5478,-7.34
5490,-0.99
5502,7.36
5514,16.54
5526,25.43
5538,33.26
5550,39.64
5562,44.38
5574,47.39
5586,48.56
5598,47.92
5610,45.78
5622,42.8
5633,39.95
5644,38.29
5656,38.56
5668,41.04
5680,45.42
5692,50.99
5704,56.89
5716,62.39
5728,67.05
5740,70.73
5752,73.42
5764,75.14
5776,75.79
5788,75.14
5800,72.96
5812,69.04
5823,63.32
5834,55.91
5846,47.09
5858,37.34
5870,27.25
5882,17.47
5894,8.55
5906,0.81
5918,-5.68
5930,-11.09
5942,-15.77
5954,-20.14
5966,-24.67
5978,-29.78
5990,-35.67
6002,-42.21
6013,-48.74
6024,-54.13
6036,-57.09
6048,-56.6
6060,-52.29
6072,-44.64
6084,-34.84
6096,-24.37
6108,-14.6
6120,-6.42
6132,-0.21
6144,4.0
6156,6.39
6168,7.14
6180,6.41
6192,4.47
6203,1.72
6214,-1.27
6226,-3.91
6238,-5.72
6250,-6.49
6262,-6.28
6274,-5.38
6286,-4.11
6298,-2.77
6310,-1.5
6322,-0.36
6334,0.6
6346,1.34
6358,1.78
6370,1.81
6382,1.36
6393,0.35
6404,-1.25
6416,-3.49
6428,-6.32
6440,-9.64
6452,-13.23
6464,-16.83
6476,-20.16
6488,-23.08
6500,-25.51
6512,-27.44
6524,-28.89
6536,-29.96
6548,-30.78
6560,-31.59
6572,-32.64
6583,-34.01
6594,-35.45
6606,-36.23
6618,-35.39
6630,-32.03
6642,-25.66
6654,-16.49
6666,-5.37
6678,6.54
6690,18.07
6702,28.38
6714,37.01
6726,43.77
6738,48.6
6750,51.47
6762,52.45
6773,51.71
6784,49.64
6796,46.72
6808,43.51
6820,40.45
6832,37.88
6844,35.93
6856,34.63
6868,33.91
6880,33.61
6892,33.52
6904,33.41
6916,33.06
6928,32.23
6940,30.77
6952,28.61
6963,25.81
6974,22.58
6986,19.17
6998,15.81
7010,12.66
7022,9.73
7034,6.91
7046,4.07
7058,1.05
7070,-2.16
7082,-5.52
7094,-8.9
7106,-12.17
7118,-15.25
7130,-18.15
7142,-20.98
7153,-23.97
7164,-27.39
7176,-31.45
7188,-36.13
7200,-41.05
7212,-45.45
7224,-48.32
7236,-48.72
7248,-46.06
7260,-40.35
7272,-32.23
7284,-22.72
7296,-12.96
7308,-3.88
7320,3.96
7332,10.33
7343,15.23
7354,18.68
7366,20.71
7378,21.39
7390,20.92
7402,19.71
7414,18.36
7426,17.44
7438,17.38
7450,18.27
7462,19.89
7474,21.75
7486,23.37
7498,24.47
7510,25.08
7522,25.4
7533,25.72
7544,26.16
7556,26.6
7568,26.75
7580,26.31
7592,25.12
7604,23.27
7616,21.01
7628,18.66
7640,16.46
7652,14.44
7664,12.48
7676,10.4
7688,8.07
7700,5.49
7712,2.76
7723,0.08
7734,-2.41
7746,-4.59
7758,-6.49
7770,-8.16
7782,-9.78
7794,-11.52
7806,-13.65
7818,-16.44
7830,-20.04
7842,-24.28
7854,-28.58
7866,-32.01
7878,-33.49
7890,-32.18
7902,-27.81
7913,-20.82
7924,-12.2
7936,-3.12
7948,5.35
7960,12.54
7972,18.17
7984,22.2
7996,24.7
8008,25.72
8020,25.38
8032,23.93
8044,21.81
8056,19.63
8068,17.93
8080,17.09
8092,17.16
8103,17.86
8114,18.79
8126,19.56
8138,19.97
8150,20.07
8162,20.01
8174,19.97
8186,19.94
8198,19.78
8210,19.24
8222,18.15
8234,16.53
8246,14.53
8258,12.41
8270,10.33
8282,8.33
8293,6.29
8304,4.04
8316,1.51
8328,-1.29
8340,-4.16
8352,-6.91
8364,-9.34
8376,-11.41
8388,-13.14
8400,-14.66
8412,-16.14
8424,-17.79
8436,-19.79
8448,-22.3
8460,-25.39
8472,-28.86
8483,-32.18
8494,-34.58
8506,-35.18
8518,-33.29
8530,-28.7
8542,-21.79
8554,-13.43
8566,-4.73
8578,3.34
8590,10.13
8602,15.36
8614,18.99
8626,21.06
8638,21.59
8650,20.63
8662,18.38
8673,15.26
8684,11.89
8696,8.94
8708,6.87
8720,5.89
8732,5.84
8744,6.42
8756,7.3
8768,8.28
8780,9.26
8792,10.16
8804,10.85
8816,11.15
8828,10.88
8840,9.96
8852,8.45
8863,6.52
8874,4.39
8886,2.22
8898,0.08
8910,-2.06
8922,-4.28
8934,-6.68
8946,-9.3
8958,-12.07
8970,-14.85
8982,-17.42
8994,-19.61
9006,-21.38
9018,-22.9
9030,-24.49
9042,-26.55
9053,-29.34
9064,-32.89
9076,-36.84
9088,-40.5
9100,-42.96
9112,-43.33
9124,-41.03
9136,-35.92
9148,-28.41
9160,-19.34
9172,-9.72
9184,-0.52
9196,7.53
9208,13.97
9220,18.62
9232,21.44
9243,22.5
9254,21.97
9266,20.15
9278,17.43
9290,14.34
9302,11.4
9314,9.09
9326,7.71
9338,7.31
9350,7.74
9362,8.67
9374,9.78
9386,10.82
9398,11.69
9410,12.36
9422,12.84
9433,13.04
9444,12.81
9456,12.05
9468,10.69
9480,8.89
9492,6.86
9504,4.87
9516,3.07
9528,1.43
9540,-0.23
9552,-2.14
9564,-4.44
9576,-7.1
9588,-9.92
9600,-12.63
9612,-14.98
9623,-16.91
9634,-18.49
9646,-19.99
9658,-21.71
9670,-23.95
9682,-26.9
9694,-30.58
9706,-34.7
9718,-38.68
9730,-41.62
9742,-42.53
9754,-40.59
9766,-35.52
9778,-27.74
9790,-18.22
9802,-8.27
9813,0.95
9824,8.7
9836,14.71
9848,19.1
9860,22.09
9872,23.8
9884,24.28
9896,23.57
9908,21.84
9920,19.53
9932,17.2
9944,15.45
9956,14.63
9968,14.81
9980,15.75
9992,17.08
10003,18.47
10014,19.75
10026,20.87
10038,21.9
10050,22.81
10062,23.48
10074,23.64
10086,23.05
10098,21.55
10110,19.22
10122,16.32
10134,13.22
10146,10.26
10158,7.63
10170,5.34
10182,3.21
10193,1.0
10204,-1.46
10216,-4.25
10228,-7.29
10240,-10.38
10252,-13.33
10264,-15.95
10276,-18.16
10288,-20.0
10300,-21.63
10312,-23.28
10324,-25.23
10336,-27.67
10348,-30.7
10360,-34.14
10372,-37.51
10383,-40.05
10394,-40.85
10406,-39.17
10418,-34.65
10430,-27.54
10442,-18.61
10454,-8.95
10466,0.37
10478,8.57
10490,15.24
10502,20.29
10514,23.74
10526,25.61
10538,25.88
10550,24.67
10562,22.31
10573,19.35
10584,16.5
10596,14.34
10608,13.16
10620,12.94
10632,13.38
10644,14.19
10656,15.16
10668,16.22
10680,17.37
10692,18.61
10704,19.8
10716,20.76
10728,21.29
10740,21.26
10752,20.58
10763,19.29
10774,17.46
10786,15.24
10798,12.87
10810,10.58
10822,8.51
10834,6.66
10846,4.87
10858,2.9
10870,0.59
10882,-2.05
10894,-4.85
10906,-7.51
10918,-9.8
10930,-11.63
10942,-13.07
10953,-14.33
10964,-15.65
10976,-17.28
10988,-19.44
11000,-22.27
11012,-25.82
11024,-29.83
11036,-33.75
11048,-36.72
11060,-37.8
11072,-36.27
11084,-31.92
11096,-25.13
11108,-16.76
11120,-7.9
11132,0.53
11143,7.86
11154,13.75
11166,18.07
11178,20.77
11190,21.85
11202,21.43
11214,19.78
11226,17.4
11238,14.88
11250,12.77
11262,11.43
11274,10.9
11286,11.02
11298,11.44
11310,11.87
11322,12.16
11333,12.35
11344,12.6
11356,13.01
11368,13.54
11380,13.97
11392,13.99
11404,13.37
11416,12.1
11428,10.38
11440,8.53
11452,6.81
11464,5.31
11476,3.93
11488,2.44
11500,0.62
11512,-1.59
11523,-4.11
11534,-6.78
11546,-9.38
11558,-11.75
11570,-13.79
11582,-15.43
11594,-16.73
11606,-17.82
11618,-18.95
11630,-20.48
11642,-22.71
11654,-25.74
11666,-29.28
11678,-32.67
11690,-34.97
11702,-35.29
11713,-33.08
11724,-28.36
11736,-21.72
11748,-14.1
11760,-6.52
11772,0.27
11784,5.84
11796,10.07
11808,12.99
11820,14.64
11832,15.04
11844,14.18
11856,12.22
11868,9.51
11880,6.6
11892,4.07
11903,2.36
11914,1.68
11926,1.9
11938,2.72
11950,3.78
11962,4.81
11974,5.63
11986,6.21
11998,6.51
12010,6.48
12022,6.06
12034,5.23
12046,4.06
12058,2.72
12070,1.36
12082,0.03
12093,-1.31
12104,-2.81
12116,-4.63
12128,-6.82
12140,-9.29
12152,-11.81
12164,-14.12
12176,-16.03
12188,-17.56
12200,-18.93
12212,-20.49
12224,-22.57
12236,-25.28
12248,-28.35
12260,-31.14
12272,-32.71
12283,-32.2
12294,-29.08
12306,-23.41
12318,-15.85
12330,-7.44
12342,0.74
12354,7.86
12366,13.47
12378,17.46
12390,19.92
12402,20.97
12414,20.73
12426,19.35
12438,17.06
12450,14.33
12462,11.69
12473,9.68
12484,8.67
12496,8.75
12508,9.78
12520,11.45
12532,13.4
12544,15.32
12556,16.96
12568,18.2
12580,19.01
12592,19.42
12604,19.55
12616,19.51
12628,19.34
12640,19.02
12652,18.45
12663,17.49
12674,16.03
12686,14.05
12698,11.64
12710,8.91
12722,5.99
12734,2.97
12746,-0.17
12758,-3.49
12770,-7.16
12782,-11.39
12794,-16.39
12806,-22.28
12818,-28.97
12830,-36.06
12842,-42.75
12853,-48.01
12864,-50.79
12876,-50.35
12888,-46.55
12900,-39.88
12912,-31.31
12924,-22.0
12936,-13.01
12948,-5.01
12960,1.64
12972,6.84
12984,10.63
12996,13.13
13008,14.52
13020,15.02
13032,14.89
13043,14.37
13054,13.65
13066,12.86
13078,12.13
13090,11.55
13102,11.19
13114,11.02
13126,10.96
13138,10.85
13150,10.57
13162,10.12
13174,9.55
13186,8.97
13198,8.42
13210,7.88
13222,7.22
13233,6.36
13244,5.23
13256,3.81
13268,2.14
13280,0.21
13292,-1.96
13304,-4.33
13316,-6.77
13328,-9.1
13340,-11.15
13352,-12.87
13364,-14.38
13376,-15.94
13388,-17.89
13400,-20.54
13412,-24.04
13423,-28.21
13434,-32.52
13446,-36.1
13458,-37.96
13470,-37.26
13482,-33.63
13494,-27.29
13506,-19.03
13518,-9.88
13530,-0.89
13542,7.17
13554,13.88
13566,19.07
13578,22.69
13590,24.73
13602,25.24
13613,24.43
13624,22.67
13636,20.48
13648,18.39
13660,16.81
13672,15.95
13684,15.78
13696,16.13
13708,16.77
13720,17.53
13732,18.29
13744,19.04
13756,19.73
13768,20.29
13780,20.5
13792,20.14
13803,19.04
13814,17.19
13826,14.81
13838,12.23
13850,9.78
13862,7.62
13874,5.72
13886,3.88
13898,1.91
13910,-0.29
13922,-2.65
13934,-5.03
13946,-7.26
13958,-9.25
13970,-11.04
13982,-12.78
13993,-14.64
14004,-16.8
14016,-19.41
14028,-22.6
14040,-26.38
14052,-30.52
14064,-34.46
14076,-37.34
14088,-38.22
14100,-36.38
14112,-31.64
14124,-24.48
14136,-15.86
14148,-6.91
14160,1.39
14172,8.43
14183,13.92
14194,17.81
14206,20.1
14218,20.82
14230,20.07
14242,18.11
14254,15.42
14266,12.56
14278,10.07
14290,8.31
14302,7.44
14314,7.4
14326,8.0
14338,9.04
14350,10.27
14362,11.46
14373,12.39
14384,12.85
14396,12.71
14408,11.94
14420,10.6
14432,8.87
14444,6.96
14456,5.03
14468,3.21
14480,1.54
14492,0.01
14504,-1.4
14516,-2.73
14528,-4.03
14540,-5.35
14552,-6.7
14563,-8.06
14574,-9.37
14586,-10.6
14598,-11.78
14610,-13.13
14622,-14.99
14634,-17.7
14646,-21.32
14658,-25.49
14670,-29.35
14682,-31.74
14694,-31.52
14706,-27.99
14718,-21.11
14730,-11.53
14742,-0.47
14753,10.64
14764,20.49
14776,28.06
14788,32.78
14800,34.47
14812,33.34
14824,29.88
14836,24.8
14848,18.88
14860,12.93
14872,7.57
14884,3.23
14896,0.12
14908,-1.8
14920,-2.65
14932,-2.65
14943,-2.02
14954,-1.04
14966,0.07
14978,1.1
14990,1.91
15002,2.43
15014,2.63
15026,2.46
15038,1.88
15050,0.82
15062,-0.73
15074,-2.7
15086,-4.96
15098,-7.32
15110,-9.59
15122,-11.66
15133,-13.53
15144,-15.24
15156,-16.86
15168,-18.55
15180,-20.45
15192,-22.76
15204,-25.64
15216,-29.1
15228,-32.89
15240,-36.41
15252,-38.82
15264,-39.21
15276,-36.92
15288,-31.74
15300,-24.09
15312,-14.85
15323,-5.16
15334,3.91
15346,11.63
15358,17.63
15370,21.86
15382,24.43
15394,25.51
15406,25.27
15418,23.91
15430,21.69
15442,19.03
15454,16.39
15466,14.21
15478,12.83
15490,12.32
15502,12.62
15513,13.48
15524,14.66
15536,15.93
15548,17.13
15560,18.08
15572,18.66
15584,18.73
15596,18.23
15608,17.2
15620,15.78
15632,14.08
15644,12.19
15656,10.11
15668,7.79
15680,5.22
15692,2.47
15703,-0.31
15714,-2.98
15726,-5.5
15738,-7.92
15750,-10.38
15762,-13.0
15774,-15.85
15786,-18.98
15798,-22.4
15810,-26.01
15822,-29.5
15834,-32.33
15846,-33.72
15858,-32.94
15870,-29.55
15882,-23.64
15893,-15.82
15904,-7.06
15916,1.69
15928,9.64
15940,16.32
15952,21.5
15964,25.08
15976,27.06
15988,27.49
16000,26.59
16012,24.71
16024,22.35
16036,19.99
16048,18.03
16060,16.66
16072,15.93
16083,15.74
16094,15.93
16106,16.36
16118,16.94
16130,17.62
16142,18.35
16154,19.08
16166,19.72
16178,20.11
16190,20.12
16202,19.66
16214,18.77
16226,17.62
16238,16.47
16250,15.54
16262,14.92
16273,14.52
16284,14.1
16296,13.37
16308,12.11
16320,10.25
16332,7.91
16344,5.34
16356,2.8
16368,0.45
16380,-1.66
16392,-3.63
16404,-5.61
16416,-7.66
16428,-9.64
16440,-11.19
16452,-11.75
16463,-10.81
16474,-8.04
16486,-3.51
16498,2.34
16510,8.85
16522,15.29
16534,21.15
16546,26.16
16558,30.26
16570,33.51
16582,35.96
16594,37.57
16606,38.33
16618,38.33
16630,37.83
16642,37.24
16653,37.05
16664,37.68
16676,39.37
16688,42.2
16700,46.09
16712,50.84
16724,56.22
16736,61.93
16748,67.57
16760,72.77
16772,77.2
16784,80.78
16796,83.73
16808,86.52
16820,89.68
16832,93.49
16843,97.71
16854,101.49
16866,103.52
16878,102.46
16890,97.32
16902,87.78
16914,74.29
16926,57.86
16938,39.8
16950,21.33
16962,3.47
16974,-13.15
16986,-28.23
16998,-41.7
17010,-53.65
17022,-64.12
17033,-72.96
17044,-79.87
17056,-84.34
17068,-85.93
17080,-84.39
17092,-79.79
17104,-72.54
17116,-63.27
17128,-52.71
17140,-41.57
17152,-30.54
17164,-20.32
17176,-11.64
17188,-5.31
17200,-2.02
17212,-2.07
17223,-5.25
17234,-10.69
17246,-17.04
17258,-22.78
17270,-26.6
17282,-27.69
17294,-25.93
17306,-21.8
17318,-16.18
17330,-10.1
17342,-4.43
17354,0.25
17366,3.76
17378,6.24
17390,8.02
17402,9.43
17413,10.71
17424,11.97
17436,13.34
17448,14.96
17460,16.99
17472,19.45
17484,22.1
17496,24.45
17508,25.93
17520,26.16
17532,25.17
17544,23.41
17556,21.49
17568,19.92
17580,18.86
17592,18.17
17603,17.52
17614,16.63
17626,15.42
17638,13.92
17650,12.19
17662,10.26
17674,8.06
17686,5.6
17698,2.97
17710,0.47
17722,-1.59
17734,-2.96
17746,-3.66
17758,-3.99
17770,-4.53
17782,-5.87
17793,-8.49
17804,-12.58
17816,-18.05
17828,-24.48
17840,-31.29
17852,-37.76
17864,-43.08
17876,-46.56
17888,-47.75
17900,-46.63
17912,-43.67
17924,-39.66
17936,-35.47
17948,-31.78
17960,-28.96
17972,-27.06
17983,-26.07
17994,-26.02
18006,-27.06
18018,-29.33
18030,-32.74
18042,-36.86
18054,-41.01
18066,-44.49
18078,-46.84
18090,-48.06
18102,-48.63
18114,-49.34
18126,-51.0
18138,-54.2
18150,-59.2
18162,-65.91
18173,-74.03
18184,-83.09
18196,-92.5
18208,-101.38
18220,-108.61
18232,-113.01
18244,-113.55
18256,-109.73
18268,-101.69
18280,-90.02
18292,-75.6
18304,-59.23
18316,-41.75
18328,-24.18
18340,-8.04
18352,4.75
18363,12.32
18374,13.56
18386,8.78
18398,-0.17
18410,-10.46
18422,-19.22
18434,-24.52
18446,-25.84
18458,-23.92
18470,-20.15
18482,-15.77
18494,-11.48
18506,-7.44
18518,-3.58
18530,-0.02
18542,2.82
18553,4.38
18564,4.33
18576,2.76
18588,0.24
18600,-2.44
18612,-4.6
18624,-6.0
18636,-6.84
18648,-7.59
18660,-8.7
18672,-10.4
18684,-12.58
18696,-14.86
18708,-16.81
18720,-18.15
18732,-18.87
18743,-19.19
18754,-19.51
18766,-20.22
18778,-21.52
18790,-23.3
18802,-25.08
18814,-26.2
18826,-25.93
18838,-23.82
18850,-19.85
18862,-14.46
18874,-8.6
18886,-3.47
18898,-0.31
18910,-0.04
18922,-3.03
18933,-8.99
18944,-16.97
18956,-25.7
18968,-33.81
18980,-40.32
18992,-44.71
19004,-47.0
19016,-47.62
19028,-47.21
19040,-46.37
19052,-45.53
19064,-44.88
19076,-44.37
19088,-43.8
19100,-43.07
19112,-42.22
19123,-41.51
19134,-41.28
19146,-41.79
19158,-42.84
19170,-43.79
19182,-43.57
19194,-41.0
19206,-35.17
19218,-25.81
19230,-13.47
19242,0.61
19254,14.8
19266,27.57
19278,37.91
19290,45.5
19302,50.76
19313,54.48
19324,57.51
19336,60.34
19348,63.0
19360,65.01
19372,65.6
19384,64.08
19396,60.13
19408,54.1
19420,46.96
19432,40.08
19444,34.82
19456,32.32
19468,33.21
19480,37.68
19492,45.47
19503,55.93
19514,68.0
19526,80.22
19538,90.89
19550,98.45
19562,101.94
19574,101.35
19586,97.68
19598,92.64
19610,88.12
19622,85.73
19634,86.43
19646,90.53
19658,97.81
19670,107.61
19682,118.91
19693,130.22
19704,139.6
19716,144.83
19728,143.81
19740,135.13
19752,118.54
19764,95.16
19776,67.37
19788,38.25
19800,10.85
19812,-12.53
19824,-30.75
19836,-43.85
19848,-52.73
19860,-58.67
19872,-62.96
19883,-66.57
19894,-70.21
19906,-74.23
19918,-78.62
19930,-82.97
19942,-86.47
19954,-88.25
19966,-87.81
19978,-85.34
19990,-81.69
20002,-77.93
20014,-74.61
20026,-71.36
20038,-66.91
20050,-59.87
20062,-49.46
20073,-36.17
20084,-21.66
20096,-8.1
20108,2.7
20120,9.96
20132,13.96
20144,15.69
20156,16.16
20168,15.91
20180,14.98
20192,13.1
20204,10.18
20216,6.47
20228,2.54
20240,-1.08
20252,-4.27
20263,-7.47
20274,-11.54
20286,-17.4
20298,-25.57
20310,-35.96
20322,-47.91
20334,-60.4
20346,-72.42
20358,-83.13
20370,-91.93
20382,-98.3
20394,-101.63
20406,-101.21
20418,-96.46
20430,-87.33
20442,-74.6
20453,-59.99
20464,-45.75
20476,-34.09
20488,-26.5
20500,-23.46
20512,-24.52
20524,-28.76
20536,-35.29
20548,-43.5
20560,-53.04
20572,-63.55
20584,-74.36
20596,-84.38
20608,-92.19
20620,-96.4
20632,-96.01
20643,-90.77
20654,-81.3
20666,-68.86
20678,-55.08
20690,-41.35
20702,-28.58
20714,-17.08
20726,-6.82
20738,2.28
20750,10.1
20762,16.38
20774,20.91
20786,23.8
20798,25.58
20810,27.04
20822,28.95
20833,31.79
20844,35.6
20856,40.02
20868,44.55
20880,48.71
20892,52.13
20904,54.65
20916,56.17
20928,56.63
20940,56.0
20952,54.32
20964,51.74
20976,48.48
20988,44.82
