seconds,BVP
10,15.73
22,12.91
34,10.44
46,8.53
58,7.25
70,6.56
82,6.25
94,6.01
106,5.51
118,4.51
130,2.9
142,0.68
154,-2.07
166,-5.2
178,-8.55
189,-11.93
200,-15.16
212,-18.15
224,-20.84
236,-23.26
248,-25.38
260,-27.16
272,-28.49
284,-29.29
296,-29.53
308,-29.3
320,-28.78
332,-28.15
344,-27.54
356,-27.04
368,-26.67
379,-26.45
390,-26.36
402,-26.31
414,-26.23
426,-26.02
438,-25.68
450,-25.31
462,-25.09
474,-25.14
486,-25.4
498,-25.48
510,-24.73
522,-22.51
534,-18.35
546,-12.27
558,-4.74
569,3.43
580,11.35
592,18.31
604,23.81
616,27.65
628,29.83
640,30.48
652,29.82
664,28.17
676,25.91
688,23.43
700,20.98
712,18.68
724,16.46
736,14.12
748,11.45
759,8.38
770,4.96
782,1.37
794,-2.14
806,-5.46
818,-8.63
830,-11.9
842,-15.59
854,-19.93
866,-24.9
878,-30.15
890,-35.15
902,-39.41
914,-42.63
926,-44.81
938,-46.16
949,-46.95
960,-47.32
972,-47.33
984,-46.93
996,-46.17
1008,-45.22
1020,-44.35
1032,-43.8
1044,-43.65
1056,-43.75
1068,-43.82
1080,-43.57
1092,-42.89
1104,-41.83
1116,-40.63
1128,-39.53
1139,-38.73
1150,-38.31
1162,-38.3
1174,-38.63
1186,-39.13
1198,-39.54
1210,-39.43
1222,-38.26
1234,-35.5
1246,-30.84
1258,-24.27
1270,-16.2
1282,-7.33
1294,1.51
1306,9.58
1318,16.37
1329,21.7
1340,25.64
1352,28.41
1364,30.25
1376,31.33
1388,31.76
1400,31.67
1412,31.22
1424,30.64
1436,30.15
1448,29.88
1460,29.82
1472,29.86
1484,29.9
1496,29.92
1508,30.02
1519,30.37
1530,31.04
1542,31.92
1554,32.76
1566,33.24
1578,33.12
1590,32.3
1602,30.82
1614,28.83
1626,26.48
1638,23.86
1650,20.99
1662,17.81
1674,14.26
1686,10.29
1698,5.97
1709,1.43
1720,-3.08
1732,-7.33
1744,-11.15
1756,-14.51
1768,-17.54
1780,-20.38
1792,-23.15
1804,-25.83
1816,-28.3
1828,-30.42
1840,-32.18
1852,-33.78
1864,-35.58
1876,-37.94
1888,-41.08
1899,-44.83
1910,-48.59
1922,-51.48
1934,-52.56
1946,-51.14
1958,-47.07
1970,-40.77
1982,-33.12
1994,-25.13
2006,-17.69
2018,-11.35
2030,-6.3
2042,-2.51
2054,0.07
2066,1.47
2078,1.69
2089,0.86
2100,-0.78
2112,-2.81
2124,-4.77
2136,-6.33
2148,-7.37
2160,-7.97
2172,-8.35
2184,-8.75
2196,-9.31
2208,-10.06
2220,-10.94
2232,-11.86
2244,-12.79
2256,-13.67
2268,-14.48
2279,-15.13
2290,-15.51
2302,-15.48
2314,-14.97
2326,-14.0
2338,-12.74
2350,-11.42
2362,-10.26
2374,-9.36
2386,-8.69
2398,-8.15
2410,-7.61
2422,-7.1
2434,-6.72
2446,-6.65
2458,-7.02
2469,-7.82
2480,-8.78
2492,-9.52
2504,-9.59
2516,-8.72
2528,-6.92
2540,-4.53
2552,-2.17
2564,-0.52
2576,-0.15
2588,-1.35
2600,-4.1
2612,-8.13
2624,-12.94
2636,-17.88
2648,-22.16
2659,-24.91
2670,-25.38
2682,-23.18
2694,-18.43
2706,-11.79
2718,-4.33
2730,2.83
2742,8.81
2754,13.12
2766,15.69
2778,16.71
2790,16.5
2802,15.39
2814,13.77
2826,11.98
2838,10.45
2849,9.54
2860,9.5
2872,10.4
2884,12.15
2896,14.53
2908,17.37
2920,20.53
2932,23.99
2944,27.8
2956,31.95
2968,36.37
2980,40.85
2992,45.12
3004,48.96
3016,52.24
3028,55.0
3039,57.35
3050,59.36
3062,60.92
3074,61.88
3086,62.01
3098,61.17
3110,59.38
3122,56.78
3134,53.6
3146,50.03
3158,46.21
3170,42.15
3182,37.85
3194,33.3
3206,28.58
3218,23.82
3229,19.23
3240,15.05
3252,11.54
3264,8.85
3276,6.95
3288,5.58
3300,4.25
3312,2.39
3324,-0.44
3336,-4.38
3348,-9.14
3360,-14.02
3372,-18.09
3384,-20.4
3396,-20.34
3408,-17.78
3419,-13.12
3430,-7.07
3442,-0.51
3454,5.83
3466,11.38
3478,15.79
3490,18.83
3502,20.34
3514,20.24
3526,18.6
3538,15.7
3550,12.04
3562,8.17
3574,4.6
3586,1.6
3598,-0.79
3609,-2.73
3620,-4.43
3632,-6.08
3644,-7.79
3656,-9.52
3668,-11.14
3680,-12.53
3692,-13.66
3704,-14.62
3716,-15.69
3728,-17.21
3740,-19.5
3752,-22.71
3764,-26.83
3776,-31.62
3788,-36.75
3799,-41.93
3810,-46.88
3822,-51.44
3834,-55.46
3846,-58.73
3858,-61.01
3870,-62.07
3882,-61.73
3894,-59.96
3906,-56.87
3918,-52.65
3930,-47.51
3942,-41.62
3954,-35.14
3966,-28.21
3978,-21.01
3989,-13.76
4000,-6.75
4012,-0.14
4024,6.04
4036,12.02
4048,18.26
4060,25.25
4072,33.28
4084,42.29
4096,51.79
4108,60.92
4120,68.78
4132,74.61
4144,77.99
4156,78.89
4168,77.53
4179,74.2
4190,69.22
4202,62.94
4214,55.84
4226,48.48
4238,41.49
4250,35.34
4262,30.26
4274,26.25
4286,23.16
4298,20.93
4310,19.56
4322,19.11
4334,19.5
4346,20.46
4358,21.54
4369,22.26
4380,22.38
4392,21.89
4404,20.94
4416,19.73
4428,18.32
4440,16.66
4452,14.66
4464,12.35
4476,9.85
4488,7.37
4500,5.1
4512,3.11
4524,1.39
4536,-0.13
4548,-1.55
4559,-2.95
4570,-4.46
4582,-6.2
4594,-8.3
4606,-10.88
4618,-14.04
4630,-17.79
4642,-22.04
4654,-26.59
4666,-31.11
4678,-35.34
4690,-39.11
4702,-42.54
4714,-45.96
4726,-49.83
4738,-54.42
4749,-59.62
4760,-64.74
4772,-68.64
4784,-70.06
4796,-68.04
4808,-62.26
4820,-53.18
4832,-41.91
4844,-29.84
4856,-18.25
4868,-8.01
4880,0.49
4892,7.24
4904,12.45
4916,16.41
4928,19.34
4939,21.48
4950,23.06
4962,24.33
4974,25.52
4986,26.77
4998,28.16
5010,29.64
5022,31.17
5034,32.71
5046,34.32
5058,36.08
5070,38.06
5082,40.18
5094,42.21
5106,43.72
5118,44.26
5129,43.47
5140,41.22
5152,37.66
5164,33.19
5176,28.29
5188,23.46
5200,19.11
5212,15.52
5224,12.83
5236,11.06
5248,10.06
5260,9.53
5272,9.09
5284,8.41
5296,7.36
5308,6.0
5319,4.58
5330,3.32
5342,2.32
5354,1.48
5366,0.61
5378,-0.43
5390,-1.63
5402,-2.84
5414,-3.88
5426,-4.69
5438,-5.42
5450,-6.32
5462,-7.69
5474,-9.69
5486,-12.3
5498,-15.36
5509,-18.63
5520,-21.81
5532,-24.57
5544,-26.43
5556,-26.85
5568,-25.27
5580,-21.36
5592,-15.18
5604,-7.3
5616,1.3
5628,9.56
5640,16.61
5652,22.04
5664,25.92
5676,28.61
5688,30.49
5699,31.85
5710,32.81
5722,33.45
5734,33.87
5746,34.31
5758,34.98
5770,36.07
5782,37.61
5794,39.5
5806,41.59
5818,43.73
5830,45.76
5842,47.57
5854,48.98
5866,49.79
5878,49.83
5889,48.95
5900,47.13
5912,44.44
5924,41.06
5936,37.27
5948,33.41
5960,29.83
5972,26.8
5984,24.42
5996,22.59
6008,21.12
6020,19.81
6032,18.55
6044,17.3
6056,16.03
6068,14.64
6079,12.93
6090,10.67
6102,7.67
6114,3.82
6126,-0.92
6138,-6.53
6150,-12.97
6162,-20.15
6174,-27.9
6186,-35.9
6198,-43.79
6210,-51.25
6222,-58.11
6234,-64.46
6246,-70.5
6258,-76.47
6269,-82.54
6280,-88.63
6292,-94.42
6304,-99.39
6316,-102.91
6328,-104.34
6340,-103.25
6352,-99.56
6364,-93.54
6376,-85.82
6388,-77.2
6400,-68.49
6412,-60.38
6424,-53.35
6436,-47.62
6448,-43.3
6459,-40.32
6470,-38.55
6482,-37.8
6494,-37.77
6506,-38.16
6518,-38.64
6530,-39.01
6542,-39.11
6554,-38.94
6566,-38.56
6578,-38.05
6590,-37.51
6602,-37.0
6614,-36.6
6626,-36.37
6638,-36.44
6649,-36.97
6660,-38.21
6672,-40.52
6684,-44.27
6696,-49.77
6708,-57.1
6720,-66.01
6732,-75.9
6744,-85.95
6756,-95.27
6768,-103.09
6780,-108.89
6792,-112.37
6804,-113.48
6816,-112.3
6828,-109.09
6839,-104.26
6850,-98.41
6862,-92.17
6874,-86.1
6886,-80.53
6898,-75.5
6910,-70.78
6922,-65.98
6934,-60.76
6946,-54.9
6958,-48.38
6970,-41.39
6982,-34.26
6994,-27.38
7006,-21.04
7018,-15.34
7029,-10.11
7040,-4.86
7052,1.09
7064,8.44
7076,17.71
7088,29.01
7100,41.97
7112,55.9
7124,69.9
7136,83.24
7148,95.46
7160,106.46
7172,116.39
7184,125.41
7196,133.6
7208,140.88
7219,147.13
7230,152.35
7242,156.75
7254,160.68
7266,164.47
7278,168.18
7290,171.5
7302,173.79
7314,174.33
7326,172.59
7338,168.45
7350,162.28
7362,154.76
7374,146.56
7386,138.11
7398,129.45
7409,120.39
7420,110.73
7432,100.52
7444,90.09
7456,79.91
7468,70.29
7480,61.22
7492,52.45
7504,43.67
7516,34.82
7528,26.15
7540,18.06
7552,10.88
7564,4.62
7576,-0.98
7588,-6.22
7599,-11.24
7610,-15.94
7622,-20.09
7634,-23.54
7646,-26.4
7658,-29.07
7670,-32.08
7682,-35.92
7694,-40.89
7706,-47.09
7718,-54.43
7730,-62.61
7742,-71.07
7754,-79.03
7766,-85.47
7778,-89.35
7789,-89.79
7800,-86.35
7812,-79.26
7824,-69.34
7836,-57.83
7848,-46.04
7860,-35.04
7872,-25.36
7884,-17.0
7896,-9.67
7908,-3.08
7920,2.77
7932,7.55
7944,10.77
7956,12.04
7968,11.33
7979,8.96
7990,5.59
8002,2.0
8014,-1.12
8026,-3.25
8038,-4.26
8050,-4.42
8062,-4.45
8074,-5.44
8086,-8.65
8098,-15.2
8110,-25.59
8122,-39.36
8134,-54.97
8146,-70.16
8158,-82.49
8169,-90.09
8180,-92.09
8192,-88.74
8204,-81.16
8216,-70.83
8228,-59.13
8240,-47.08
8252,-35.32
8264,-24.18
8276,-13.85
8288,-4.4
8300,4.16
8312,11.85
8324,18.65
8336,24.59
8348,29.81
8359,34.64
8370,39.58
8382,44.98
8394,50.7
8406,55.89
8418,59.23
8430,59.39
8442,55.7
8454,48.53
8466,39.18
8478,29.31
8490,20.35
8502,13.06
8514,7.6
8526,3.9
8538,1.98
8549,2.01
8560,3.97
8572,7.22
8584,10.42
8596,11.75
8608,9.66
8620,3.46
8632,-6.29
8644,-18.07
8656,-30.0
8668,-40.51
8680,-48.72
8692,-54.45
8704,-57.95
8716,-59.51
8728,-59.36
8739,-57.59
8750,-54.3
8762,-49.63
8774,-43.71
8786,-36.59
8798,-28.24
8810,-18.66
8822,-8.02
8834,3.21
8846,14.33
8858,24.61
8870,33.47
8882,40.57
8894,45.82
8906,49.11
8918,50.24
8929,48.85
8940,44.6
8952,37.3
8964,27.11
8976,14.5
8988,0.24
9000,-14.77
9012,-29.5
9024,-42.88
9036,-53.94
9048,-61.87
9060,-66.15
9072,-66.68
9084,-63.71
9096,-57.84
9108,-49.86
9119,-40.61
9130,-30.83
9142,-21.0
9154,-11.29
9166,-1.66
9178,7.97
9190,17.43
9202,26.2
9214,33.52
9226,38.75
9238,41.73
9250,42.97
9262,43.45
9274,44.17
9286,45.69
9298,47.89
9309,50.13
9320,51.75
9332,52.41
9344,52.36
9356,52.11
9368,52.14
9380,52.46
9392,52.56
9404,51.68
9416,49.22
9428,45.06
9440,39.63
9452,33.66
9464,27.78
9476,22.32
9488,17.22
9499,12.23
9510,7.17
9522,2.04
9534,-3.0
9546,-7.75
9558,-12.14
9570,-16.25
9582,-20.23
9594,-24.14
9606,-27.93
9618,-31.46
9630,-34.59
9642,-37.36
9654,-39.92
9666,-42.34
9678,-44.46
9689,-45.82
9700,-45.77
9712,-43.78
9724,-39.69
9736,-33.87
9748,-27.01
9760,-19.9
9772,-13.02
9784,-6.51
9796,-0.16
9808,6.32
9820,13.09
9832,20.02
9844,26.77
9856,32.88
9868,37.92
9879,41.63
9890,43.94
9902,44.98
9914,45.02
9926,44.48
9938,43.78
9950,43.19
9962,42.73
9974,42.09
9986,40.69
9998,37.95
10010,33.6
10022,27.92
10034,21.77
10046,16.37
10058,12.91
10069,12.08
10080,13.87
10092,17.58
10104,22.15
10116,26.47
10128,29.74
10140,31.55
10152,31.9
10164,31.07
10176,29.47
10188,27.51
10200,25.48
10212,23.52
10224,21.62
10236,19.67
10248,17.6
10259,15.35
10270,12.92
10282,10.27
10294,7.27
10306,3.69
10318,-0.78
10330,-6.4
10342,-13.27
10354,-21.23
10366,-29.79
10378,-38.2
10390,-45.49
10402,-50.68
10414,-53.06
10426,-52.33
10438,-48.73
10449,-42.96
10460,-35.97
10472,-28.68
10484,-21.79
10496,-15.65
10508,-10.35
10520,-5.76
10532,-1.58
10544,2.56
10556,6.96
10568,11.76
10580,16.84
10592,21.77
10604,26.02
10616,29.05
10628,30.58
10639,30.67
10650,29.61
10662,27.83
10674,25.72
10686,23.55
10698,21.45
10710,19.53
10722,17.88
10734,16.62
10746,15.87
10758,15.63
10770,15.78
10782,16.12
10794,16.37
10806,16.38
10818,16.13
10829,15.79
10840,15.57
10852,15.66
10864,16.09
10876,16.8
10888,17.65
10900,18.51
10912,19.33
10924,20.1
10936,20.74
10948,21.1
10960,20.88
10972,19.64
10984,16.98
10996,12.56
11008,6.32
11019,-1.44
11030,-10.1
11042,-18.78
11054,-26.65
11066,-33.11
11078,-38.05
11090,-41.75
11102,-44.81
11114,-47.85
11126,-51.25
11138,-55.07
11150,-58.98
11162,-62.38
11174,-64.49
11186,-64.58
11198,-62.09
11209,-56.74
11220,-48.66
11232,-38.37
11244,-26.66
11256,-14.41
11268,-2.51
11280,8.29
11292,17.4
11304,24.34
11316,28.77
11328,30.48
11340,29.52
11352,26.23
11364,21.27
11376,15.51
11388,9.87
11399,5.11
11410,1.71
11422,-0.2
11434,-0.77
11446,-0.35
11458,0.6
11470,1.72
11482,2.77
11494,3.71
11506,4.57
11518,5.43
11530,6.24
11542,6.9
11554,7.31
11566,7.5
11578,7.64
11589,8.05
11600,9.01
11612,10.56
11624,12.54
11636,14.56
11648,16.18
11660,17.03
11672,16.92
11684,15.79
11696,13.72
11708,10.85
11720,7.44
11732,3.83
11744,0.37
11756,-2.67
11768,-5.18
11779,-7.29
11790,-9.22
11802,-11.27
11814,-13.58
11826,-16.14
11838,-18.81
11850,-21.35
11862,-23.56
11874,-25.38
11886,-26.86
11898,-28.12
11910,-29.36
11922,-30.75
11934,-32.45
11946,-34.43
11958,-36.47
11969,-38.1
11980,-38.65
11992,-37.52
12004,-34.37
12016,-29.32
12028,-22.92
12040,-15.96
12052,-9.18
12064,-3.07
12076,2.15
12088,6.51
12100,10.05
12112,12.76
12124,14.55
12136,15.33
12148,15.08
12159,13.91
12170,12.03
12182,9.77
12194,7.49
12206,5.63
12218,4.54
12230,4.48
12242,5.54
12254,7.63
12266,10.58
12278,14.13
12290,17.97
12302,21.69
12314,24.77
12326,26.69
12338,27.04
12349,25.68
12360,22.8
12372,18.89
12384,14.57
12396,10.38
12408,6.66
12420,3.48
12432,0.73
12444,-1.77
12456,-4.18
12468,-6.56
12480,-8.84
12492,-10.91
12504,-12.65
12516,-14.0
12528,-15.03
12539,-15.86
12550,-16.63
12562,-17.41
12574,-18.16
12586,-18.7
12598,-18.84
12610,-18.43
12622,-17.52
12634,-16.35
12646,-15.32
12658,-14.87
12670,-15.34
12682,-16.76
12694,-18.83
12706,-20.88
12718,-22.12
12729,-21.83
12740,-19.59
12752,-15.43
12764,-9.82
12776,-3.5
12788,2.73
12800,8.19
12812,12.36
12824,14.93
12836,15.69
12848,14.61
12860,11.82
12872,7.76
12884,3.14
12896,-1.14
12908,-4.3
12919,-5.85
12930,-5.84
12942,-4.75
12954,-3.32
12966,-2.22
12978,-1.81
12990,-2.12
13002,-2.87
13014,-3.74
13026,-4.53
13038,-5.17
13050,-5.73
13062,-6.28
13074,-6.88
13086,-7.55
13098,-8.33
13109,-9.19
13120,-10.03
13132,-10.59
13144,-10.5
13156,-9.4
13168,-7.16
13180,-3.93
13192,-0.12
13204,3.79
13216,7.44
13228,10.67
13240,13.52
13252,16.06
13264,18.27
13276,20.03
13288,21.24
13299,21.9
13310,22.13
13322,22.06
13334,21.69
13346,20.81
13358,19.07
13370,16.12
13382,11.8
13394,6.19
13406,-0.42
13418,-7.67
13430,-15.23
13442,-22.79
13454,-29.96
13466,-36.18
13478,-40.76
13489,-43.05
13500,-42.69
13512,-39.74
13524,-34.72
13536,-28.37
13548,-21.47
13560,-14.61
13572,-8.14
13584,-2.25
13596,2.96
13608,7.4
13620,11.01
13632,13.72
13644,15.51
13656,16.33
13668,16.15
13679,14.99
13690,13.0
13702,10.53
13714,8.09
13726,6.12
13738,4.9
13750,4.4
13762,4.38
13774,4.47
13786,4.31
13798,3.7
13810,2.57
13822,0.91
13834,-1.18
13846,-3.57
13858,-6.11
13869,-8.58
13880,-10.77
13892,-12.51
13904,-13.71
13916,-14.39
13928,-14.74
13940,-15.04
13952,-15.55
13964,-16.47
13976,-17.76
13988,-19.14
14000,-20.21
14012,-20.59
14024,-20.1
14036,-18.89
14048,-17.33
14059,-15.82
14070,-14.55
14082,-13.42
14094,-12.12
14106,-10.4
14118,-8.3
14130,-6.24
14142,-4.92
14154,-5.04
14166,-7.01
14178,-10.84
14190,-16.19
14202,-22.54
14214,-29.41
14226,-36.41
14238,-43.2
14249,-49.41
14260,-54.6
14272,-58.24
14284,-59.84
14296,-59.03
14308,-55.61
14320,-49.63
14332,-41.45
14344,-31.71
14356,-21.32
14368,-11.23
14380,-2.31
14392,4.89
14404,10.22
14416,13.88
14428,16.3
14439,17.99
14450,19.44
14462,21.07
14474,23.16
14486,25.74
14498,28.61
14510,31.31
14522,33.42
14534,34.74
14546,35.55
14558,36.45
14570,38.01
14582,40.35
14594,42.86
14606,44.43
14618,43.88
14629,40.47
14640,34.2
14652,25.65
14664,15.64
14676,4.84
14688,-6.24
14700,-17.24
14712,-27.78
14724,-37.53
14736,-46.29
14748,-54.14
14760,-61.2
14772,-67.44
14784,-72.41
14796,-75.26
14808,-75.15
14819,-71.63
14830,-64.93
14842,-55.82
14854,-45.27
14866,-34.03
14878,-22.53
14890,-11.03
14902,0.19
14914,10.62
14926,19.73
14938,27.13
14950,32.77
14962,36.91
14974,39.89
14986,41.88
14998,42.79
15009,42.37
15020,40.4
15032,36.96
15044,32.5
15056,27.76
15068,23.6
15080,20.74
15092,19.54
15104,19.89
15116,21.23
15128,22.76
15140,23.67
15152,23.44
15164,21.9
15176,19.22
15188,15.66
15199,11.39
15210,6.5
15222,1.15
15234,-4.22
15246,-8.77
15258,-11.43
15270,-11.3
15282,-8.01
15294,-1.97
15306,5.76
15318,13.82
15330,20.89
15342,26.01
15354,28.64
15366,28.68
15378,26.43
15389,22.53
15400,17.86
15412,13.36
15424,9.79
15436,7.59
15448,6.76
15460,7.03
15472,8.02
15484,9.34
15496,10.69
15508,11.8
15520,12.39
15532,12.29
15544,11.48
15556,10.25
15568,9.01
15579,8.13
15590,7.74
15602,7.57
15614,7.12
15626,5.91
15638,3.78
15650,0.9
15662,-2.29
15674,-5.37
15686,-8.15
15698,-10.62
15710,-12.93
15722,-15.15
15734,-17.26
15746,-19.21
15758,-21.08
15769,-23.02
15780,-25.1
15792,-27.1
15804,-28.39
15816,-28.25
15828,-26.18
15840,-22.29
15852,-17.31
15864,-12.26
15876,-8.0
15888,-4.87
15900,-2.76
15912,-1.31
15924,-0.38
15936,-0.04
15948,-0.51
15959,-1.83
15970,-3.65
15982,-5.38
15994,-6.39
16006,-6.33
16018,-5.2
16030,-3.23
16042,-0.69
16054,2.27
16066,5.63
16078,9.4
16090,13.54
16102,17.88
16114,22.09
16126,25.8
16138,28.65
16149,30.38
16160,30.94
16172,30.46
16184,29.22
16196,27.54
16208,25.67
16220,23.67
16232,21.48
16244,18.99
16256,16.18
16268,13.15
16280,10.08
16292,7.15
16304,4.42
16316,1.82
16328,-0.78
16339,-3.47
16350,-6.3
16362,-9.21
16374,-12.2
16386,-15.3
16398,-18.65
16410,-22.34
16422,-26.26
16434,-30.07
16446,-33.18
16458,-34.95
16470,-34.89
16482,-32.82
16494,-28.91
16506,-23.65
16518,-17.64
16529,-11.49
16540,-5.69
16552,-0.5
16564,3.93
16576,7.61
16588,10.54
16600,12.73
16612,14.14
16624,14.71
16636,14.44
16648,13.48
16660,12.13
16672,10.79
16684,9.87
16696,9.61
16708,10.06
16719,11.08
16730,12.42
16742,13.81
16754,15.12
16766,16.23
16778,17.14
16790,17.78
16802,18.05
16814,17.84
16826,17.11
16838,15.92
16850,14.41
16862,12.74
16874,11.01
16886,9.26
16898,7.42
16909,5.39
16920,3.13
16932,0.62
16944,-2.06
16956,-4.77
16968,-7.36
16980,-9.69
16992,-11.67
17004,-13.28
17016,-14.61
17028,-15.85
17040,-17.24
17052,-18.97
17064,-21.1
17076,-23.56
17088,-26.22
17099,-28.98
17110,-31.87
17122,-34.97
17134,-38.27
17146,-41.49
17158,-44.03
17170,-45.15
17182,-44.19
17194,-40.92
17206,-35.55
17218,-28.67
17230,-21.02
17242,-13.2
17254,-5.64
17266,1.4
17278,7.66
17289,12.9
17300,16.87
17312,19.45
17324,20.75
17336,21.07
17348,20.82
17360,20.47
17372,20.37
17384,20.71
17396,21.5
17408,22.61
17420,23.89
17432,25.2
17444,26.52
17456,27.95
17468,29.61
17479,31.56
17490,33.69
17502,35.73
17514,37.36
17526,38.29
17538,38.44
17550,37.95
17562,37.11
17574,36.27
17586,35.68
17598,35.44
17610,35.45
17622,35.5
17634,35.4
17646,35.02
17658,34.41
17669,33.76
17680,33.28
17692,33.08
17704,33.14
17716,33.29
17728,33.27
17740,32.92
17752,32.2
17764,31.2
17776,30.13
17788,29.15
17800,28.36
17812,27.78
17824,27.32
17836,26.8
17848,25.96
17859,24.46
17870,22.02
17882,18.51
17894,14.14
17906,9.44
17918,5.14
17930,1.99
17942,0.43
17954,0.41
17966,1.48
17978,2.91
17990,4.04
18002,4.51
18014,4.3
18026,3.65
18038,2.84
18049,2.05
18060,1.28
18072,0.41
18084,-0.69
18096,-2.05
18108,-3.59
18120,-5.13
18132,-6.49
18144,-7.49
18156,-8.05
18168,-8.18
18180,-8.0
18192,-7.67
18204,-7.38
18216,-7.27
18228,-7.38
18239,-7.71
18250,-8.16
18262,-8.67
18274,-9.18
18286,-9.72
18298,-10.34
18310,-11.1
18322,-12.05
18334,-13.17
18346,-14.43
18358,-15.77
18370,-17.18
18382,-18.7
18394,-20.48
18406,-22.62
18418,-25.17
18429,-27.96
18440,-30.73
18452,-33.18
18464,-35.12
18476,-36.57
18488,-37.64
18500,-38.43
18512,-38.93
18524,-39.01
18536,-38.53
18548,-37.42
18560,-35.75
18572,-33.68
18584,-31.37
18596,-28.92
18608,-26.3
18619,-23.45
18630,-20.26
18642,-16.6
18654,-12.31
18666,-7.18
18678,-1.13
18690,5.7
18702,12.85
18714,19.7
18726,25.62
18738,30.19
18750,33.26
18762,34.86
18774,35.07
18786,33.93
18798,31.46
18809,27.81
18820,23.32
18832,18.49
18844,13.8
18856,9.63
18868,6.05
18880,2.94
18892,0.06
18904,-2.82
18916,-5.86
18928,-9.1
18940,-12.49
18952,-15.88
18964,-19.09
18976,-21.93
18988,-24.31
18999,-26.21
19010,-27.74
19022,-28.98
19034,-29.92
19046,-30.49
19058,-30.59
19070,-30.24
19082,-29.63
19094,-28.98
19106,-28.47
19118,-28.08
19130,-27.62
19142,-26.82
19154,-25.51
19166,-23.73
19178,-21.68
19189,-19.61
19200,-17.68
19212,-15.93
19224,-14.25
19236,-12.58
19248,-10.93
19260,-9.42
19272,-8.31
19284,-7.8
19296,-7.96
19308,-8.61
19320,-9.28
19332,-9.35
19344,-8.21
19356,-5.47
19368,-1.12
19379,4.52
19390,10.88
19402,17.34
19414,23.35
19426,28.51
19438,32.57
19450,35.38
19462,36.89
19474,37.19
19486,36.51
19498,35.18
19510,33.57
19522,31.98
19534,30.62
19546,29.6
19558,28.95
19569,28.69
19580,28.83
19592,29.37
19604,30.26
19616,31.34
19628,32.41
19640,33.23
19652,33.64
19664,33.6
19676,33.2
19688,32.55
19700,31.71
19712,30.68
19724,29.43
19736,28.0
19748,26.52
19759,25.14
19770,23.94
19782,22.84
19794,21.63
19806,20.1
19818,18.21
19830,16.06
19842,13.9
19854,11.9
19866,10.13
19878,8.53
19890,6.99
19902,5.46
19914,3.91
19926,2.34
19938,0.64
19949,-1.31
19960,-3.64
19972,-6.31
19984,-9.18
19996,-11.96
20008,-14.44
20020,-16.54
20032,-18.34
20044,-20.04
20056,-21.82
20068,-23.86
20080,-26.25
20092,-28.99
20104,-31.94
20116,-34.74
20128,-36.85
20139,-37.61
20150,-36.52
20162,-33.4
20174,-28.44
20186,-22.19
20198,-15.31
20210,-8.41
20222,-1.92
20234,3.92
20246,8.98
20258,13.16
20270,16.4
20282,18.67
20294,20.05
20306,20.7
20318,20.84
20329,20.69
20340,20.42
20352,20.19
20364,20.09
20376,20.17
20388,20.48
20400,21.0
20412,21.68
20424,22.41
20436,23.06
20448,23.51
20460,23.65
20472,23.44
20484,22.8
20496,21.71
20508,20.15
20519,18.14
20530,15.81
20542,13.33
20554,10.89
20566,8.61
20578,6.43
20590,4.23
20602,1.81
20614,-0.89
20626,-3.76
20638,-6.55
20650,-9.02
20662,-11.0
20674,-12.53
20686,-13.75
20698,-14.81
20709,-15.78
20720,-16.66
20732,-17.35
20744,-17.78
20756,-17.92
20768,-17.81
20780,-17.51
20792,-17.11
20804,-16.68
20816,-16.28
20828,-15.94
20840,-15.61
20852,-15.25
20864,-14.79
20876,-14.18
20888,-13.5
20899,-12.91
20910,-12.65
20922,-12.97
20934,-13.96
20946,-15.48
20958,-17.09
20970,-18.14
20982,-17.92
20994,-15.92
