seconds,BVP
2,-34.18
14,-28.05
26,-22.86
38,-18.62
50,-15.15
62,-11.95
74,-8.29
86,-3.35
98,3.33
110,11.61
122,20.68
133,29.29
144,36.2
156,40.67
168,42.67
180,42.78
192,41.88
204,40.62
216,39.26
228,37.63
240,35.34
252,32.13
264,28.03
276,23.34
288,18.52
300,13.91
312,9.61
323,5.47
334,1.17
346,-3.65
358,-9.25
370,-15.75
382,-23.13
394,-31.28
406,-40.02
418,-49.1
430,-58.14
442,-66.62
454,-73.95
466,-79.61
478,-83.19
490,-84.43
502,-83.19
513,-79.34
524,-72.8
536,-63.58
548,-51.97
560,-38.64
572,-24.68
584,-11.51
596,-0.54
608,7.13
620,10.97
632,11.18
644,8.45
656,3.72
668,-2.14
680,-8.5
692,-14.86
703,-20.75
714,-25.62
726,-28.86
738,-29.98
750,-28.87
762,-25.84
774,-21.59
786,-16.95
798,-12.71
810,-9.52
822,-7.84
834,-8.0
846,-10.17
858,-14.32
870,-20.09
882,-26.88
893,-33.93
904,-40.66
916,-46.85
928,-52.75
940,-58.98
952,-66.13
964,-74.49
976,-83.76
988,-93.05
1000,-101.15
1012,-106.85
1024,-109.39
1036,-108.71
1048,-105.6
1060,-101.6
1072,-98.58
1083,-98.25
1094,-101.35
1106,-107.08
1118,-112.91
1130,-115.08
1142,-109.82
1154,-94.69
1166,-69.64
1178,-37.12
1190,-1.24
1202,33.65
1214,64.26
1226,88.94
1238,107.48
1250,120.37
1262,128.05
1273,130.76
1284,128.75
1296,122.77
1308,114.32
1320,105.34
1332,97.72
1344,92.72
1356,90.71
1368,91.26
1380,93.5
1392,96.43
1404,99.13
1416,100.72
1428,100.32
1440,97.11
1452,90.6
1463,80.99
1474,69.39
1486,57.72
1498,48.19
1510,42.65
1522,42.01
1534,45.96
1546,53.3
1558,62.31
1570,71.26
1582,78.64
1594,83.23
1606,84.1
1618,80.62
1630,72.67
1642,60.73
1653,45.85
1664,29.41
1676,12.7
1688,-3.41
1700,-18.59
1712,-32.82
1724,-46.08
1736,-58.04
1748,-67.98
1760,-75.0
1772,-78.3
1784,-77.52
1796,-72.92
1808,-65.15
1820,-55.1
1832,-43.55
1843,-31.06
1854,-17.97
1866,-4.57
1878,8.62
1890,20.75
1902,30.75
1914,37.57
1926,40.58
1938,39.88
1950,36.3
1962,31.21
1974,26.09
1986,22.17
1998,20.16
2010,20.29
2022,22.52
2033,26.66
2044,32.4
2056,39.1
2068,45.54
2080,50.01
2092,50.58
2104,45.83
2116,35.37
2128,20.12
2140,2.04
2152,-16.47
2164,-33.34
2176,-47.34
2188,-58.23
2200,-66.43
2212,-72.69
2223,-77.63
2234,-81.62
2246,-84.7
2258,-86.81
2270,-87.85
2282,-87.87
2294,-87.11
2306,-85.92
2318,-84.64
2330,-83.36
2342,-81.71
2354,-78.86
2366,-73.67
2378,-65.11
2390,-52.62
2402,-36.32
2413,-17.02
2424,4.11
2436,25.86
2448,47.29
2460,67.88
2472,87.5
2484,106.4
2496,125.05
2508,144.04
2520,163.92
2532,184.9
2544,206.54
2556,227.53
2568,245.73
2580,258.53
2592,263.65
2603,259.96
2614,248.03
2626,230.09
2638,209.35
2650,188.95
2662,170.95
2674,155.87
2686,142.94
2698,130.89
2710,118.73
2722,106.25
2734,93.97
2746,82.6
2758,72.54
2770,63.61
2782,55.17
2793,46.59
2804,37.54
2816,28.15
2828,18.82
2840,9.82
2852,1.07
2864,-7.87
2876,-17.48
2888,-27.97
2900,-38.96
2912,-49.61
2924,-58.88
2936,-66.02
2948,-70.8
2960,-73.64
2972,-75.45
2983,-77.22
2994,-79.74
3006,-83.38
3018,-88.11
3030,-93.62
3042,-99.57
3054,-105.79
3066,-112.37
3078,-119.57
3090,-127.67
3102,-136.83
3114,-146.86
3126,-157.17
3138,-166.66
3150,-173.76
3162,-176.59
3173,-173.29
3184,-162.65
3196,-144.54
3208,-120.21
3220,-92.16
3232,-63.43
3244,-36.87
3256,-14.39
3268,3.24
3280,16.24
3292,25.35
3304,31.44
3316,35.3
3328,37.65
3340,39.21
3352,40.65
3363,42.46
3374,44.68
3386,46.88
3398,48.24
3410,47.98
3422,45.65
3434,41.39
3446,35.94
3458,30.31
3470,25.39
3482,21.51
3494,18.34
3506,14.99
3518,10.52
3530,4.41
3542,-3.05
3553,-10.81
3564,-17.4
3576,-21.51
3588,-22.45
3600,-20.31
3612,-15.72
3624,-9.59
3636,-2.75
3648,4.17
3660,10.69
3672,16.36
3684,20.77
3696,23.57
3708,24.64
3720,24.13
3732,22.48
3743,20.28
3754,18.18
3766,16.66
3778,16.02
3790,16.33
3802,17.47
3814,19.19
3826,21.23
3838,23.43
3850,25.7
3862,28.03
3874,30.34
3886,32.42
3898,33.93
3910,34.44
3922,33.66
3933,31.56
3944,28.46
3956,24.95
3968,21.66
3980,18.97
3992,16.91
4004,15.15
4016,13.19
4028,10.62
4040,7.27
4052,3.25
4064,-1.12
4076,-5.46
4088,-9.45
4100,-12.87
4112,-15.67
4123,-17.97
4134,-20.08
4146,-22.46
4158,-25.53
4170,-29.43
4182,-33.82
4194,-37.8
4206,-40.11
4218,-39.52
4230,-35.26
4242,-27.3
4254,-16.34
4266,-3.67
4278,9.3
4290,21.34
4302,31.63
4313,39.78
4324,45.67
4336,49.35
4348,50.87
4360,50.34
4372,48.05
4384,44.58
4396,40.7
4408,37.34
4420,35.29
4432,35.02
4444,36.58
4456,39.52
4468,43.13
4480,46.63
4492,49.44
4503,51.29
4514,52.33
4526,52.92
4538,53.46
4550,54.18
4562,55.03
4574,55.71
4586,55.82
4598,55.06
4610,53.3
4622,50.59
4634,47.06
4646,42.84
4658,37.98
4670,32.46
4682,26.24
4693,19.4
4704,12.12
4716,4.73
4728,-2.42
4740,-9.07
4752,-15.17
4764,-20.92
4776,-26.7
4788,-32.89
4800,-39.75
4812,-47.33
4824,-55.38
4836,-63.38
4848,-70.5
4860,-75.69
4872,-77.83
4883,-76.06
4894,-70.08
4906,-60.32
4918,-47.92
4930,-34.38
4942,-21.21
4954,-9.54
4966,-0.1
4978,6.78
4990,11.0
5002,12.57
5014,11.64
5026,8.62
5038,4.12
5050,-1.08
5062,-6.15
5073,-10.49
5084,-13.71
5096,-15.7
5108,-16.59
5120,-16.61
5132,-15.99
5144,-14.91
5156,-13.43
5168,-11.57
5180,-9.32
5192,-6.76
5204,-4.12
5216,-1.74
5228,0.03
5240,0.99
5252,1.14
5263,0.7
5274,0.02
5286,-0.66
5298,-1.31
5310,-2.18
5322,-3.64
5334,-6.11
5346,-9.76
5358,-14.48
5370,-19.86
5382,-25.37
5394,-30.48
5406,-34.81
5418,-38.22
5430,-40.77
5442,-42.7
5453,-44.39
5464,-46.18
5476,-48.28
5488,-50.53
5500,-52.37
5512,-52.92
5524,-51.21
5536,-46.64
5548,-39.17
5560,-29.42
5572,-18.41
5584,-7.25
5596,3.17
5608,12.29
5620,19.81
5632,25.56
5643,29.4
5654,31.27
5666,31.24
5678,29.61
5690,26.94
5702,23.92
5714,21.22
5726,19.41
5738,18.78
5750,19.36
5762,20.91
5774,23.02
5786,25.28
5798,27.37
5810,29.2
5822,30.78
5833,32.2
5844,33.44
5856,34.41
5868,34.92
5880,34.83
5892,34.14
5904,32.95
5916,31.43
5928,29.69
5940,27.7
5952,25.3
5964,22.33
5976,18.75
5988,14.71
6000,10.55
6012,6.66
6023,3.31
6034,0.6
6046,-1.66
6058,-3.81
6070,-6.28
6082,-9.49
6094,-13.74
6106,-19.19
6118,-25.66
6130,-32.61
6142,-39.02
6154,-43.63
6166,-45.28
6178,-43.27
6190,-37.69
6202,-29.41
6213,-19.78
6224,-10.16
6236,-1.59
6248,5.45
6260,10.85
6272,14.69
6284,17.07
6296,17.99
6308,17.52
6320,15.92
6332,13.64
6344,11.29
6356,9.43
6368,8.4
6380,8.26
6392,8.92
6403,10.22
6414,12.1
6426,14.59
6438,17.71
6450,21.37
6462,25.22
6474,28.75
6486,31.45
6498,32.99
6510,33.36
6522,32.87
6534,32.05
6546,31.37
6558,31.13
6570,31.29
6582,31.54
6593,31.42
6604,30.5
6616,28.56
6628,25.68
6640,22.2
6652,18.69
6664,15.76
6676,13.91
6688,13.43
6700,14.27
6712,15.96
6724,17.78
6736,18.84
6748,18.51
6760,16.74
6772,14.29
6783,12.55
6794,12.98
6806,16.46
6818,22.72
6830,30.44
6842,37.79
6854,43.2
6866,45.96
6878,46.22
6890,44.59
6902,41.59
6914,37.36
6926,31.89
6938,25.43
6950,18.74
6962,13.03
6973,9.52
6984,8.84
6996,10.82
7008,14.59
7020,18.96
7032,22.87
7044,25.63
7056,26.94
7068,26.8
7080,25.41
7092,23.18
7104,20.6
7116,18.12
7128,15.93
7140,13.77
7152,10.91
7163,6.36
7174,-0.67
7186,-10.27
7198,-21.71
7210,-33.46
7222,-43.79
7234,-51.37
7246,-55.81
7258,-57.77
7270,-58.6
7282,-59.75
7294,-62.13
7306,-65.8
7318,-70.19
7330,-74.5
7342,-78.24
7353,-81.55
7364,-85.13
7376,-89.82
7388,-96.06
7400,-103.5
7412,-110.99
7424,-116.97
7436,-120.04
7448,-119.42
7460,-115.12
7472,-107.69
7484,-97.84
7496,-86.21
7508,-73.17
7520,-59.11
7532,-44.58
7543,-30.4
7554,-17.54
7566,-6.88
7578,1.13
7590,6.53
7602,9.84
7614,11.87
7626,13.55
7638,15.65
7650,18.7
7662,22.89
7674,28.07
7686,33.87
7698,39.91
7710,45.86
7722,51.48
7733,56.48
7744,60.37
7756,62.47
7768,62.14
7780,59.21
7792,54.23
7804,48.51
7816,43.71
7828,41.23
7840,41.53
7852,44.0
7864,47.21
7876,49.56
7888,50.02
7900,48.39
7912,45.1
7923,40.7
7934,35.36
7946,28.63
7958,19.69
7970,7.8
7982,-7.34
7994,-25.54
8006,-46.37
8018,-69.34
8030,-93.77
8042,-118.36
8054,-140.8
8066,-157.98
8078,-166.8
8090,-165.38
8102,-154.13
8113,-135.72
8124,-114.22
8136,-93.66
8148,-76.81
8160,-64.83
8172,-57.7
8184,-54.99
8196,-56.35
8208,-61.31
8220,-68.81
8232,-76.82
8244,-82.67
8256,-83.83
8268,-79.01
8280,-68.76
8292,-55.32
8303,-41.7
8314,-30.5
8326,-22.88
8338,-18.26
8350,-14.82
8362,-10.41
8374,-3.64
8386,5.62
8398,16.25
8410,26.58
8422,35.18
8434,41.38
8446,45.31
8458,47.52
8470,48.55
8482,48.6
8493,47.65
8504,45.72
8516,43.07
8528,40.2
8540,37.66
8552,35.78
8564,34.56
8576,33.64
8588,32.51
8600,30.66
8612,27.72
8624,23.59
8636,18.56
8648,13.3
8660,8.82
8672,6.23
8683,6.43
8694,9.77
8706,15.84
8718,23.65
8730,31.92
8742,39.52
8754,45.79
8766,50.6
8778,54.14
8790,56.51
8802,57.49
8814,56.51
8826,52.92
8838,46.42
8850,37.44
8862,27.13
8873,17.07
8884,8.69
8896,2.81
8908,-0.64
8920,-2.37
8932,-3.38
8944,-4.47
8956,-6.0
8968,-7.88
8980,-9.84
8992,-11.67
9004,-13.29
9016,-14.79
9028,-16.23
9040,-17.55
9052,-18.47
9063,-18.67
9074,-17.9
9086,-16.13
9098,-13.58
9110,-10.61
9122,-7.5
9134,-4.38
9146,-1.21
9158,2.05
9170,5.24
9182,7.93
9194,9.5
9206,9.36
9218,7.23
9230,3.26
9242,-1.94
9253,-7.41
9264,-12.06
9276,-14.85
9288,-14.9
9300,-11.63
9312,-4.82
9324,5.28
9336,18.03
9348,32.53
9360,47.82
9372,63.07
9384,77.7
9396,91.36
9408,103.87
9420,115.17
9432,125.21
9443,133.91
9454,141.08
9466,146.42
9478,149.5
9490,149.83
9502,146.94
9514,140.48
9526,130.34
9538,116.75
9550,100.3
9562,81.9
9574,62.59
9586,43.37
9598,24.87
9610,7.34
9622,-9.43
9633,-25.81
9644,-42.1
9656,-58.23
9668,-73.79
9680,-88.06
9692,-100.24
9704,-109.74
9716,-116.27
9728,-119.95
9740,-121.29
9752,-121.08
9764,-120.29
9776,-119.93
9788,-120.92
9800,-123.91
9812,-129.15
9823,-136.27
9834,-144.09
9846,-150.77
9858,-154.12
9870,-152.26
9882,-144.32
9894,-130.84
9906,-113.6
9918,-95.03
9930,-77.26
9942,-61.57
9954,-48.13
9966,-36.41
9978,-25.81
9990,-16.17
10002,-7.83
10013,-1.45
10024,2.53
10036,4.21
10048,4.33
10060,3.98
10072,4.23
10084,5.71
10096,8.57
10108,12.53
10120,17.17
10132,22.14
10144,27.19
10156,32.13
10168,36.69
10180,40.45
10192,42.97
10203,43.94
10214,43.32
10226,41.4
10238,38.67
10250,35.72
10262,32.99
10274,30.78
10286,29.18
10298,28.13
10310,27.48
10322,27.04
10334,26.67
10346,26.27
10358,25.79
10370,25.14
10382,24.15
10393,22.52
10404,19.93
10416,16.24
10428,11.69
10440,7.1
10452,3.69
10464,2.84
10476,5.56
10488,12.1
10500,21.86
10512,33.56
10524,45.71
10536,57.04
10548,66.84
10560,74.94
10572,81.58
10583,87.08
10594,91.69
10606,95.46
10618,98.34
10630,100.16
10642,100.77
10654,100.01
10666,97.7
10678,93.61
10690,87.53
10702,79.37
10714,69.4
10726,58.43
10738,47.79
10750,38.95
10762,33.06
10773,30.35
10784,30.05
10796,30.6
10808,30.42
10820,28.53
10832,24.95
10844,20.54
10856,16.39
10868,13.29
10880,11.35
10892,10.11
10904,8.93
10916,7.37
10928,5.41
10940,3.32
10952,1.42
10963,-0.11
10974,-1.42
10986,-2.84
10998,-4.78
11010,-7.56
11022,-11.34
11034,-16.1
11046,-21.56
11058,-27.11
11070,-31.77
11082,-34.34
11094,-33.68
11106,-29.18
11118,-21.11
11130,-10.76
11142,-0.16
11153,8.49
11164,13.48
11176,14.1
11188,10.78
11200,4.86
11212,-1.95
11224,-8.09
11236,-12.64
11248,-15.44
11260,-16.96
11272,-17.89
11284,-18.79
11296,-19.83
11308,-20.83
11320,-21.47
11332,-21.59
11343,-21.31
11354,-20.93
11366,-20.78
11378,-20.93
11390,-21.25
11402,-21.48
11414,-21.56
11426,-21.67
11438,-22.29
11450,-23.89
11462,-26.77
11474,-30.81
11486,-35.52
11498,-40.21
11510,-44.23
11522,-47.18
11533,-48.97
11544,-49.81
11556,-49.96
11568,-49.53
11580,-48.42
11592,-46.29
11604,-42.7
11616,-37.4
11628,-30.48
11640,-22.44
11652,-14.2
11664,-6.85
11676,-1.45
11688,1.24
11700,0.91
11712,-2.13
11723,-7.01
11734,-12.56
11746,-17.62
11758,-21.4
11770,-23.74
11782,-25.09
11794,-26.27
11806,-28.22
11818,-31.66
11830,-36.97
11842,-44.09
11854,-52.45
11866,-61.02
11878,-68.47
11890,-73.5
11902,-75.21
11913,-73.35
11924,-68.41
11936,-61.36
11948,-53.27
11960,-44.96
11972,-36.88
11984,-29.14
11996,-21.76
12008,-14.7
12020,-8.01
12032,-1.7
12044,4.29
12056,10.07
12068,15.75
12080,21.29
12092,26.45
12103,30.83
12114,33.94
12126,35.45
12138,35.33
12150,33.89
12162,31.81
12174,29.84
12186,28.66
12198,28.7
12210,30.06
12222,32.54
12234,35.68
12246,38.87
12258,41.41
12270,42.73
12282,42.54
12293,40.87
12304,38.13
12316,34.87
12328,31.53
12340,28.28
12352,24.89
12364,20.89
12376,15.77
12388,9.35
12400,1.96
12412,-5.59
12424,-12.15
12436,-16.6
12448,-18.24
12460,-16.92
12472,-13.14
12483,-7.83
12494,-2.23
12506,2.32
12518,4.61
12530,3.7
12542,-0.75
12554,-8.36
12566,-17.96
12578,-27.87
12590,-36.33
12602,-41.93
12614,-43.89
12626,-42.05
12638,-36.75
12650,-28.67
12662,-18.76
12673,-8.14
12684,2.05
12696,10.87
12708,17.85
12720,22.98
12732,26.6
12744,29.01
12756,30.33
12768,30.4
12780,29.03
12792,26.26
12804,22.38
12816,17.83
12828,12.82
12840,7.16
12852,0.37
12863,-8.0
12874,-17.96
12886,-28.86
12898,-39.46
12910,-48.38
12922,-54.56
12934,-57.72
12946,-58.48
12958,-58.17
12970,-58.44
12982,-60.69
12994,-65.64
13006,-73.12
13018,-82.08
13030,-90.87
13042,-97.59
13053,-100.47
13064,-98.15
13076,-89.95
13088,-75.9
13100,-56.71
13112,-33.68
13124,-8.27
13136,18.14
13148,44.53
13160,70.32
13172,95.18
13184,118.8
13196,140.7
13208,160.15
13220,176.39
13232,188.73
13243,196.77
13254,200.39
13266,199.81
13278,195.52
13290,188.24
13302,178.88
13314,168.34
13326,157.37
13338,146.38
13350,135.49
13362,124.61
13374,113.65
13386,102.56
13398,91.37
13410,80.05
13422,68.53
13433,56.8
13444,45.03
13456,33.55
13468,22.77
13480,12.87
13492,3.63
13504,-5.54
13516,-15.33
13528,-26.1
13540,-37.72
13552,-49.57
13564,-60.87
13576,-71.11
13588,-80.22
13600,-88.62
13612,-96.94
13623,-105.79
13634,-115.55
13646,-126.27
13658,-137.72
13670,-149.38
13682,-160.58
13694,-170.6
13706,-178.81
13718,-184.8
13730,-188.53
13742,-190.22
13754,-190.31
13766,-189.24
13778,-187.33
13790,-184.73
13802,-181.47
13813,-177.6
13824,-173.11
13836,-167.92
13848,-161.67
13860,-153.7
13872,-143.21
13884,-129.53
13896,-112.49
13908,-92.59
13920,-70.93
13932,-48.87
13944,-27.66
13956,-8.16
13968,9.23
13980,24.36
13992,37.14
14003,47.4
14014,54.92
14026,59.64
14038,61.77
14050,61.88
14062,60.79
14074,59.34
14086,58.21
14098,57.76
14110,57.99
14122,58.59
14134,59.09
14146,59.05
14158,58.19
14170,56.46
14182,54.04
14193,51.23
14204,48.3
14216,45.38
14228,42.39
14240,39.06
14252,35.07
14264,30.17
14276,24.33
14288,17.79
14300,11.13
14312,5.16
14324,0.82
14336,-0.99
14348,0.32
14360,4.84
14372,12.09
14383,21.17
14394,30.97
14406,40.46
14418,48.95
14430,56.08
14442,61.73
14454,65.83
14466,68.32
14478,69.18
14490,68.63
14502,67.27
14514,66.01
14526,65.87
14538,67.61
14550,71.47
14562,77.05
14573,83.59
14584,90.3
14596,96.68
14608,102.7
14620,108.73
14632,115.42
14644,123.43
14656,133.26
14668,145.03
14680,158.13
14692,171.19
14704,182.18
14716,189.02
14728,190.28
14740,185.71
14752,176.23
14763,163.43
14774,148.74
14786,132.9
14798,115.97
14810,97.74
14822,78.35
14834,58.49
14846,39.23
14858,21.61
14870,6.24
14882,-6.74
14894,-17.6
14906,-26.84
14918,-35.16
14930,-43.52
14942,-52.94
14953,-64.24
14964,-77.44
14976,-91.59
14988,-104.9
15000,-115.36
15012,-121.55
15024,-123.15
15036,-120.92
15048,-116.3
15060,-110.76
15072,-105.38
15084,-100.75
15096,-97.2
15108,-95.0
15120,-94.57
15132,-96.24
15143,-100.1
15154,-105.75
15166,-112.33
15178,-118.85
15190,-124.43
15202,-128.64
15214,-131.59
15226,-133.68
15238,-135.38
15250,-136.98
15262,-138.49
15274,-139.76
15286,-140.65
15298,-141.22
15310,-141.81
15322,-142.94
15333,-145.12
15344,-148.57
15356,-153.08
15368,-157.86
15380,-161.74
15392,-163.24
15404,-160.9
15416,-153.55
15428,-140.64
15440,-122.43
15452,-100.1
15464,-75.49
15476,-50.69
15488,-27.51
15500,-7.06
15512,10.32
15523,24.8
15534,36.73
15546,46.23
15558,53.18
15570,57.4
15582,59.04
15594,58.69
15606,57.28
15618,55.73
15630,54.72
15642,54.49
15654,55.08
15666,56.57
15678,59.27
15690,63.68
15702,70.31
15713,79.37
15724,90.73
15736,103.95
15748,118.51
15760,133.75
15772,148.7
15784,161.75
15796,170.7
15808,173.17
15820,167.56
15832,153.87
15844,134.11
15856,111.68
15868,90.21
15880,72.24
15892,58.52
15903,48.25
15914,40.01
15926,32.81
15938,26.55
15950,21.82
15962,19.2
15974,18.57
15986,18.96
15998,18.94
16010,17.21
16022,13.17
16034,7.0
16046,-0.65
16058,-9.08
16070,-18.0
16082,-27.49
16093,-37.77
16104,-48.82
16116,-60.16
16128,-70.82
16140,-79.65
16152,-85.72
16164,-88.6
16176,-88.51
16188,-86.18
16200,-82.53
16212,-78.36
16224,-74.2
16236,-70.29
16248,-66.68
16260,-63.37
16272,-60.28
16283,-57.23
16294,-53.77
16306,-49.27
16318,-43.05
16330,-34.66
16342,-24.12
16354,-11.99
16366,0.86
16378,13.44
16390,24.96
16402,34.9
16414,42.99
16426,49.0
16438,52.72
16450,53.9
16462,52.55
16473,49.05
16484,44.18
16496,38.98
16508,34.42
16520,31.11
16532,29.25
16544,28.7
16556,29.16
16568,30.35
16580,32.04
16592,33.95
16604,35.71
16616,36.87
16628,36.93
16640,35.59
16652,32.79
16663,28.74
16674,23.77
16686,18.25
16698,12.42
16710,6.45
16722,0.52
16734,-5.21
16746,-10.5
16758,-15.14
16770,-18.99
16782,-22.05
16794,-24.45
16806,-26.5
16818,-28.56
16830,-31.06
16842,-34.26
16853,-38.12
16864,-42.2
16876,-45.72
16888,-47.66
16900,-47.15
16912,-43.68
16924,-37.37
16936,-28.83
16948,-19.02
16960,-8.95
16972,0.56
16984,8.89
16996,15.69
17008,20.69
17020,23.71
17032,24.68
17043,23.71
17054,21.12
17066,17.41
17078,13.23
17090,9.23
17102,6.0
17114,3.95
17126,3.28
17138,3.9
17150,5.54
17162,7.74
17174,10.05
17186,12.1
17198,13.65
17210,14.68
17222,15.22
17233,15.36
17244,15.12
17256,14.42
17268,13.18
17280,11.32
17292,8.93
17304,6.2
17316,3.42
17328,0.79
17340,-1.63
17352,-3.99
17364,-6.54
17376,-9.52
17388,-13.04
17400,-17.11
17412,-21.71
17423,-26.76
17434,-32.05
17446,-37.1
17458,-41.06
17470,-42.8
17482,-41.29
17494,-36.03
17506,-27.31
17518,-16.17
17530,-4.08
17542,7.52
17554,17.62
17566,25.73
17578,31.75
17590,35.79
17602,37.95
17613,38.3
17624,36.95
17636,34.16
17648,30.4
17660,26.33
17672,22.68
17684,20.03
17696,18.72
17708,18.71
17720,19.69
17732,21.15
17744,22.62
17756,23.8
17768,24.57
17780,24.99
17792,25.12
17803,24.99
17814,24.6
17826,23.89
17838,22.82
17850,21.4
17862,19.59
17874,17.37
17886,14.7
17898,11.58
17910,8.1
17922,4.44
17934,0.87
17946,-2.4
17958,-5.24
17970,-7.72
17982,-10.11
17993,-12.75
18004,-16.03
18016,-20.11
18028,-24.74
18040,-29.24
18052,-32.5
18064,-33.39
18076,-31.03
18088,-25.24
18100,-16.55
18112,-6.08
18124,4.82
18136,14.95
18148,23.47
18160,29.97
18172,34.35
18183,36.71
18194,37.22
18206,36.11
18218,33.64
18230,30.16
18242,26.12
18254,22.06
18266,18.49
18278,15.84
18290,14.36
18302,13.99
18314,14.46
18326,15.39
18338,16.41
18350,17.27
18362,17.87
18373,18.2
18384,18.22
18396,17.88
18408,17.08
18420,15.77
18432,13.95
18444,11.71
18456,9.2
18468,6.57
18480,3.9
18492,1.21
18504,-1.52
18516,-4.35
18528,-7.27
18540,-10.22
18552,-13.15
18563,-16.04
18574,-19.01
18586,-22.25
18598,-25.89
18610,-29.84
18622,-33.61
18634,-36.37
18646,-37.16
18658,-35.17
18670,-30.13
18682,-22.4
18694,-12.87
18706,-2.74
18718,6.89
18730,15.2
18742,21.78
18753,26.52
18764,29.45
18776,30.64
18788,30.19
18800,28.26
18812,25.14
18824,21.28
18836,17.23
18848,13.48
18860,10.44
18872,8.31
18884,7.13
18896,6.79
18908,7.09
18920,7.8
18932,8.63
18943,9.36
18954,9.8
18966,9.84
18978,9.48
18990,8.75
19002,7.67
19014,6.25
19026,4.46
19038,2.23
19050,-0.42
19062,-3.43
19074,-6.69
19086,-10.02
19098,-13.25
19110,-16.23
19122,-18.9
19133,-21.28
19144,-23.49
19156,-25.7
19168,-28.12
19180,-30.93
19192,-34.15
19204,-37.57
19216,-40.69
19228,-42.73
19240,-42.84
19252,-40.29
19264,-34.74
19276,-26.45
19288,-16.2
19300,-5.18
19312,5.35
19323,14.45
19334,21.57
19346,26.6
19358,29.67
19370,30.99
19382,30.71
19394,28.98
19406,26.04
19418,22.3
19430,18.36
19442,14.87
19454,12.29
19466,10.79
19478,10.22
19490,10.27
19502,10.64
19513,11.17
19524,11.83
19536,12.58
19548,13.28
19560,13.64
19572,13.37
19584,12.35
19596,10.69
19608,8.77
19620,6.98
19632,5.52
19644,4.26
19656,2.87
19668,0.98
19680,-1.58
19692,-4.69
19703,-8.0
19714,-11.14
19726,-13.83
19738,-16.03
19750,-17.85
19762,-19.51
19774,-21.3
19786,-23.52
19798,-26.47
19810,-30.28
19822,-34.72
19834,-39.14
19846,-42.47
19858,-43.51
19870,-41.43
19882,-36.0
19893,-27.75
19904,-17.78
19916,-7.32
19928,2.52
19940,11.02
19952,17.84
19964,22.86
19976,26.11
19988,27.7
20000,27.78
20012,26.62
20024,24.54
20036,21.92
20048,19.13
20060,16.57
20072,14.56
20083,13.31
20094,12.84
20106,13.02
20118,13.57
20130,14.25
20142,14.94
20154,15.67
20166,16.49
20178,17.37
20190,18.11
20202,18.37
20214,17.83
20226,16.38
20238,14.2
20250,11.68
20262,9.23
20273,7.12
20284,5.31
20296,3.54
20308,1.47
20320,-1.16
20332,-4.38
20344,-7.96
20356,-11.52
20368,-14.67
20380,-17.2
20392,-19.13
20404,-20.68
20416,-22.23
20428,-24.16
20440,-26.78
20452,-30.24
20463,-34.43
20474,-38.94
20486,-42.97
20498,-45.54
20510,-45.65
20522,-42.63
20534,-36.42
20546,-27.61
20558,-17.27
20570,-6.64
20582,3.24
20594,11.75
20606,18.64
20618,23.9
20630,27.5
20642,29.41
20653,29.51
20664,27.87
20676,24.78
20688,20.89
20700,17.01
20712,13.93
20724,12.17
20736,11.8
20748,12.47
20760,13.66
20772,14.91
20784,15.98
20796,16.9
20808,17.77
20820,18.66
20832,19.45
20843,19.84
20854,19.58
20866,18.52
20878,16.72
20890,14.38
20902,11.73
20914,8.98
20926,6.26
20938,3.61
20950,1.03
20962,-1.5
20974,-4.01
20986,-6.56
20998,-9.18
