seconds,BVP
8,-23.09
20,-23.67
32,-24.13
44,-24.45
56,-24.5
68,-24.08
80,-22.88
91,-20.7
102,-17.42
114,-13.16
126,-8.21
138,-2.98
150,2.12
162,6.72
174,10.49
186,13.23
198,14.88
210,15.51
222,15.39
234,14.9
246,14.41
258,14.18
270,14.27
281,14.53
292,14.78
304,14.89
316,14.79
328,14.57
340,14.29
352,14.02
364,13.77
376,13.54
388,13.34
400,13.18
412,13.08
424,12.99
436,12.81
448,12.43
460,11.79
471,10.91
482,9.91
494,8.9
506,8.0
518,7.26
530,6.71
542,6.32
554,6.03
566,5.76
578,5.42
590,4.91
602,4.2
614,3.36
626,2.54
638,1.92
650,1.6
661,1.59
672,1.78
684,1.98
696,2.0
708,1.74
720,1.18
732,0.42
744,-0.41
756,-1.17
768,-1.8
780,-2.29
792,-2.73
804,-3.23
816,-3.86
828,-4.62
840,-5.47
851,-6.3
862,-7.06
874,-7.74
886,-8.4
898,-9.07
910,-9.73
922,-10.34
934,-10.9
946,-11.48
958,-12.24
970,-13.3
982,-14.6
994,-15.88
1006,-16.69
1018,-16.6
1030,-15.35
1041,-12.98
1052,-9.81
1064,-6.34
1076,-3.02
1088,-0.24
1100,1.83
1112,3.14
1124,3.77
1136,3.9
1148,3.73
1160,3.46
1172,3.24
1184,3.15
1196,3.19
1208,3.31
1220,3.47
1231,3.62
1242,3.71
1254,3.69
1266,3.55
1278,3.33
1290,3.11
1302,2.99
1314,3.05
1326,3.25
1338,3.47
1350,3.52
1362,3.21
1374,2.48
1386,1.43
1398,0.23
1410,-0.88
1421,-1.7
1432,-2.11
1444,-2.06
1456,-1.55
1468,-0.59
1480,0.77
1492,2.42
1504,4.21
1516,5.92
1528,7.36
1540,8.35
1552,8.87
1564,8.94
1576,8.62
1588,8.0
1600,7.1
1611,5.96
1622,4.65
1634,3.24
1646,1.83
1658,0.48
1670,-0.75
1682,-1.88
1694,-2.94
1706,-4.0
1718,-5.12
1730,-6.36
1742,-7.77
1754,-9.35
1766,-11.02
1778,-12.59
1790,-13.79
1801,-14.31
1812,-13.94
1824,-12.63
1836,-10.52
1848,-7.93
1860,-5.22
1872,-2.72
1884,-0.62
1896,1.02
1908,2.24
1920,3.12
1932,3.71
1944,3.96
1956,3.81
1968,3.25
1980,2.32
1991,1.15
2002,-0.09
2014,-1.24
2026,-2.26
2038,-3.1
2050,-3.8
2062,-4.35
2074,-4.72
2086,-4.84
2098,-4.63
2110,-4.09
2122,-3.24
2134,-2.19
2146,-0.99
2158,0.32
2170,1.76
2181,3.38
2192,5.15
2204,7.0
2216,8.79
2228,10.32
2240,11.47
2252,12.14
2264,12.33
2276,12.09
2288,11.52
2300,10.69
2312,9.74
2324,8.72
2336,7.7
2348,6.7
2360,5.75
2371,4.86
2382,4.03
2394,3.22
2406,2.35
2418,1.38
2430,0.27
2442,-0.99
2454,-2.35
2466,-3.72
2478,-5.05
2490,-6.25
2502,-7.3
2514,-8.21
2526,-9.05
2538,-9.91
2550,-10.91
2561,-12.11
2572,-13.42
2584,-14.61
2596,-15.35
2608,-15.34
2620,-14.4
2632,-12.56
2644,-10.07
2656,-7.27
2668,-4.51
2680,-2.05
2692,-0.03
2704,1.52
2716,2.64
2728,3.37
2740,3.78
2751,3.92
2762,3.94
2774,3.99
2786,4.24
2798,4.76
2810,5.5
2822,6.31
2834,6.98
2846,7.39
2858,7.53
2870,7.52
2882,7.54
2894,7.71
2906,8.04
2918,8.41
2930,8.7
2941,8.81
2952,8.73
2964,8.51
2976,8.19
2988,7.82
3000,7.37
3012,6.84
3024,6.2
3036,5.49
3048,4.75
3060,4.05
3072,3.46
3084,3.0
3096,2.67
3108,2.4
3120,2.12
3131,1.76
3142,1.3
3154,0.75
3166,0.15
3178,-0.42
3190,-0.92
3202,-1.32
3214,-1.64
3226,-1.92
3238,-2.22
3250,-2.59
3262,-3.08
3274,-3.7
3286,-4.47
3298,-5.36
3310,-6.35
3321,-7.37
3332,-8.36
3344,-9.29
3356,-10.13
3368,-10.9
3380,-11.65
3392,-12.41
3404,-13.23
3416,-14.11
3428,-14.98
3440,-15.66
3452,-15.91
3464,-15.5
3476,-14.26
3488,-12.2
3500,-9.53
3511,-6.59
3522,-3.79
3534,-1.42
3546,0.41
3558,1.75
3570,2.75
3582,3.58
3594,4.37
3606,5.16
3618,5.93
3630,6.66
3642,7.32
3654,7.92
3666,8.48
3678,8.98
3690,9.39
3701,9.69
3712,9.85
3724,9.9
3736,9.86
3748,9.8
3760,9.72
3772,9.62
3784,9.47
3796,9.24
3808,8.94
3820,8.61
3832,8.3
3844,8.05
3856,7.85
3868,7.67
3880,7.48
3891,7.21
3902,6.81
3914,6.24
3926,5.49
3938,4.62
3950,3.74
3962,3.0
3974,2.46
3986,2.12
3998,1.88
4010,1.62
4022,1.25
4034,0.77
4046,0.24
4058,-0.24
4070,-0.6
4081,-0.85
4092,-1.05
4104,-1.27
4116,-1.56
4128,-1.88
4140,-2.16
4152,-2.33
4164,-2.4
4176,-2.47
4188,-2.68
4200,-3.19
4212,-4.04
4224,-5.13
4236,-6.25
4248,-7.2
4260,-7.84
4271,-8.2
4282,-8.42
4294,-8.73
4306,-9.28
4318,-10.11
4330,-11.14
4342,-12.21
4354,-13.15
4366,-13.77
4378,-13.94
4390,-13.51
4402,-12.39
4414,-10.57
4426,-8.16
4438,-5.44
4450,-2.73
4461,-0.35
4472,1.56
4484,2.96
4496,3.93
4508,4.58
4520,5.0
4532,5.26
4544,5.42
4556,5.56
4568,5.75
4580,6.02
4592,6.34
4604,6.67
4616,6.94
4628,7.13
4640,7.27
4651,7.41
4662,7.58
4674,7.82
4686,8.09
4698,8.36
4710,8.56
4722,8.64
4734,8.56
4746,8.31
4758,7.86
4770,7.26
4782,6.53
4794,5.76
4806,5.01
4818,4.32
4830,3.71
4841,3.17
4852,2.65
4864,2.11
4876,1.54
4888,1.0
4900,0.57
4912,0.3
4924,0.19
4936,0.14
4948,-0.02
4960,-0.42
4972,-1.1
4984,-1.99
4996,-2.97
5008,-3.93
5020,-4.77
5031,-5.5
5042,-6.14
5054,-6.7
5066,-7.17
5078,-7.57
5090,-7.94
5102,-8.36
5114,-8.96
5126,-9.8
5138,-10.88
5150,-12.05
5162,-13.09
5174,-13.71
5186,-13.69
5198,-12.87
5210,-11.26
5221,-8.99
5232,-6.36
5244,-3.73
5256,-1.41
5268,0.39
5280,1.65
5292,2.49
5304,3.07
5316,3.55
5328,4.02
5340,4.52
5352,5.05
5364,5.61
5376,6.16
5388,6.64
5400,6.93
5411,6.96
5422,6.72
5434,6.34
5446,6.04
5458,5.97
5470,6.21
5482,6.67
5494,7.18
5506,7.56
5518,7.72
5530,7.7
5542,7.59
5554,7.5
5566,7.41
5578,7.25
5590,6.92
5601,6.37
5612,5.68
5624,5.0
5636,4.49
5648,4.21
5660,4.12
5672,4.06
5684,3.88
5696,3.47
5708,2.85
5720,2.13
5732,1.44
5744,0.9
5756,0.56
5768,0.43
5780,0.44
5791,0.47
5802,0.42
5814,0.18
5826,-0.29
5838,-0.95
5850,-1.74
5862,-2.54
5874,-3.28
5886,-3.93
5898,-4.47
5910,-4.91
5922,-5.29
5934,-5.64
5946,-6.0
5958,-6.42
5970,-6.91
5981,-7.48
5992,-8.16
6004,-8.96
6016,-9.91
6028,-11.02
6040,-12.22
6052,-13.36
6064,-14.23
6076,-14.61
6088,-14.35
6100,-13.38
6112,-11.75
6124,-9.58
6136,-7.07
6148,-4.46
6160,-2.03
6171,-0.01
6182,1.46
6194,2.35
6206,2.81
6218,3.05
6230,3.27
6242,3.61
6254,4.09
6266,4.66
6278,5.26
6290,5.82
6302,6.3
6314,6.64
6326,6.85
6338,6.93
6350,6.93
6361,6.94
6372,7.04
6384,7.25
6396,7.52
6408,7.75
6420,7.86
6432,7.79
6444,7.57
6456,7.29
6468,7.01
6480,6.77
6492,6.55
6504,6.3
6516,5.96
6528,5.54
6540,5.04
6551,4.48
6562,3.88
6574,3.28
6586,2.68
6598,2.11
6610,1.57
6622,1.08
6634,0.65
6646,0.33
6658,0.16
6670,0.15
6682,0.25
6694,0.33
6706,0.26
6718,-0.07
6730,-0.64
6741,-1.29
6752,-1.84
6764,-2.12
6776,-2.14
6788,-2.03
6800,-2.02
6812,-2.29
6824,-2.92
6836,-3.82
6848,-4.84
6860,-5.81
6872,-6.61
6884,-7.26
6896,-7.79
6908,-8.27
6920,-8.78
6931,-9.36
6942,-10.03
6954,-10.81
6966,-11.7
6978,-12.64
6990,-13.55
7002,-14.28
7014,-14.6
7026,-14.33
7038,-13.31
7050,-11.53
7062,-9.1
7074,-6.29
7086,-3.42
7098,-0.79
7110,1.37
7121,2.97
7132,4.01
7144,4.59
7156,4.84
7168,4.89
7180,4.86
7192,4.83
7204,4.88
7216,5.04
7228,5.31
7240,5.65
7252,6.01
7264,6.33
7276,6.61
7288,6.85
7300,7.07
7311,7.29
7322,7.51
7334,7.69
7346,7.79
7358,7.79
7370,7.68
7382,7.5
7394,7.25
7406,6.92
7418,6.46
7430,5.86
7442,5.12
7454,4.36
7466,3.68
7478,3.22
7490,3.0
7501,2.97
7512,3.01
7524,2.99
7536,2.82
7548,2.51
7560,2.1
7572,1.68
7584,1.31
7596,0.99
7608,0.71
7620,0.41
7632,0.08
7644,-0.27
7656,-0.61
7668,-0.94
7680,-1.26
7691,-1.61
7702,-2.07
7714,-2.68
7726,-3.44
7738,-4.28
7750,-5.09
7762,-5.76
7774,-6.22
7786,-6.47
7798,-6.58
7810,-6.7
7822,-6.96
7834,-7.43
7846,-8.16
7858,-9.1
7870,-10.18
7881,-11.26
7892,-12.2
7904,-12.78
7916,-12.8
7928,-12.11
7940,-10.66
7952,-8.58
7964,-6.12
7976,-3.59
7988,-1.28
8000,0.63
8012,2.08
8024,3.09
8036,3.76
8048,4.18
8060,4.45
8071,4.66
8082,4.85
8094,5.04
8106,5.21
8118,5.33
8130,5.38
8142,5.37
8154,5.37
8166,5.45
8178,5.67
8190,6.02
8202,6.44
8214,6.84
8226,7.15
8238,7.37
8250,7.5
8261,7.58
8272,7.62
8284,7.56
8296,7.34
8308,6.89
8320,6.21
8332,5.38
8344,4.51
8356,3.72
8368,3.11
8380,2.67
8392,2.35
8404,2.06
8416,1.72
8428,1.3
8440,0.8
8451,0.25
8462,-0.32
8474,-0.88
8486,-1.47
8498,-2.12
8510,-2.85
8522,-3.6
8534,-4.28
8546,-4.81
8558,-5.17
8570,-5.4
8582,-5.61
8594,-5.86
8606,-6.2
8618,-6.6
8630,-7.03
8641,-7.48
8652,-7.96
8664,-8.55
8676,-9.3
8688,-10.2
8700,-11.19
8712,-12.11
8724,-12.73
8736,-12.82
8748,-12.19
8760,-10.75
8772,-8.58
8784,-5.92
8796,-3.12
8808,-0.55
8820,1.53
8831,3.02
8842,3.94
8854,4.44
8866,4.69
8878,4.84
8890,4.99
8902,5.18
8914,5.41
8926,5.66
8938,5.89
8950,6.07
8962,6.17
8974,6.17
8986,6.06
8998,5.85
9010,5.58
9021,5.34
9032,5.22
9044,5.29
9056,5.57
9068,6.02
9080,6.56
9092,7.05
9104,7.4
9116,7.51
9128,7.36
9140,6.98
9152,6.45
9164,5.86
9176,5.34
9188,4.91
9200,4.55
9211,4.18
9222,3.69
9234,3.01
9246,2.19
9258,1.35
9270,0.66
9282,0.22
9294,0.06
9306,0.06
9318,0.09
9330,-0.03
9342,-0.36
9354,-0.88
9366,-1.47
9378,-1.99
9390,-2.38
9401,-2.67
9412,-2.98
9424,-3.44
9436,-4.12
9448,-4.97
9460,-5.88
9472,-6.71
9484,-7.38
9496,-7.92
9508,-8.41
9520,-8.96
9532,-9.63
9544,-10.44
9556,-11.35
9568,-12.28
9580,-13.14
9591,-13.82
9602,-14.17
9614,-14.1
9626,-13.5
9638,-12.33
9650,-10.58
9662,-8.31
9674,-5.66
9686,-2.82
9698,-0.05
9710,2.35
9722,4.15
9734,5.24
9746,5.7
9758,5.73
9770,5.55
9781,5.38
9792,5.3
9804,5.34
9816,5.45
9828,5.58
9840,5.68
9852,5.78
9864,5.89
9876,6.09
9888,6.41
9900,6.85
9912,7.34
9924,7.77
9936,8.01
9948,7.99
9960,7.71
9971,7.24
9982,6.68
9994,6.12
10006,5.62
10018,5.2
10030,4.91
10042,4.75
10054,4.67
10066,4.59
10078,4.37
10090,3.93
10102,3.26
10114,2.44
10126,1.62
10138,0.98
10150,0.63
10161,0.57
10172,0.73
10184,0.99
10196,1.24
10208,1.39
10220,1.38
10232,1.16
10244,0.73
10256,0.12
10268,-0.58
10280,-1.28
10292,-1.91
10304,-2.47
10316,-2.99
10328,-3.58
10340,-4.34
10351,-5.27
10362,-6.33
10374,-7.36
10386,-8.18
10398,-8.67
10410,-8.86
10422,-8.9
10434,-9.03
10446,-9.48
10458,-10.33
10470,-11.51
10482,-12.75
10494,-13.73
10506,-14.14
10518,-13.81
10530,-12.72
10541,-10.98
10552,-8.81
10564,-6.43
10576,-4.08
10588,-1.94
10600,-0.12
10612,1.37
10624,2.56
10636,3.54
10648,4.39
10660,5.13
10672,5.72
10684,6.1
10696,6.26
10708,6.21
10720,6.03
10731,5.82
10742,5.69
10754,5.71
10766,5.87
10778,6.18
10790,6.58
10802,7.05
10814,7.57
10826,8.07
10838,8.46
10850,8.63
10862,8.46
10874,7.93
10886,7.1
10898,6.14
10910,5.29
10921,4.72
10932,4.48
10944,4.5
10956,4.64
10968,4.74
10980,4.7
10992,4.53
11004,4.28
11016,4.0
11028,3.69
11040,3.33
11052,2.88
11064,2.32
11076,1.71
11088,1.14
11100,0.73
11111,0.51
11122,0.47
11134,0.48
11146,0.41
11158,0.14
11170,-0.32
11182,-0.89
11194,-1.43
11206,-1.88
11218,-2.25
11230,-2.64
11242,-3.19
11254,-3.96
11266,-4.92
11278,-5.95
11290,-6.92
11301,-7.71
11312,-8.31
11324,-8.78
11336,-9.25
11348,-9.88
11360,-10.74
11372,-11.81
11384,-12.95
11396,-13.92
11408,-14.43
11420,-14.28
11432,-13.37
11444,-11.74
11456,-9.54
11468,-7.0
11480,-4.36
11491,-1.85
11502,0.34
11514,2.13
11526,3.49
11538,4.49
11550,5.16
11562,5.58
11574,5.77
11586,5.8
11598,5.76
11610,5.72
11622,5.72
11634,5.76
11646,5.78
11658,5.78
11670,5.76
11681,5.8
11692,5.98
11704,6.28
11716,6.62
11728,6.87
11740,6.92
11752,6.75
11764,6.39
11776,5.95
11788,5.49
11800,5.06
11812,4.63
11824,4.19
11836,3.73
11848,3.24
11860,2.73
11871,2.19
11882,1.67
11894,1.19
11906,0.78
11918,0.44
11930,0.12
11942,-0.26
11954,-0.73
11966,-1.3
11978,-1.91
11990,-2.5
12002,-3.03
12014,-3.53
12026,-4.01
12038,-4.51
12050,-4.98
12061,-5.37
12072,-5.65
12084,-5.85
12096,-6.1
12108,-6.58
12120,-7.4
12132,-8.57
12144,-9.98
12156,-11.41
12168,-12.56
12180,-13.14
12192,-12.92
12204,-11.82
12216,-9.89
12228,-7.42
12240,-4.75
12251,-2.24
12262,-0.13
12274,1.47
12286,2.63
12298,3.44
12310,3.98
12322,4.3
12334,4.44
12346,4.46
12358,4.48
12370,4.6
12382,4.91
12394,5.38
12406,5.93
12418,6.45
12430,6.86
12441,7.15
12452,7.35
12464,7.51
12476,7.65
12488,7.75
12500,7.79
12512,7.73
12524,7.57
12536,7.33
12548,7.03
12560,6.67
12572,6.26
12584,5.8
12596,5.31
12608,4.82
12620,4.39
12631,4.03
12642,3.73
12654,3.42
12666,3.02
12678,2.5
12690,1.83
12702,1.08
12714,0.32
12726,-0.37
12738,-0.95
12750,-1.42
12762,-1.81
12774,-2.14
12786,-2.43
12798,-2.74
12810,-3.09
12821,-3.52
12832,-4.05
12844,-4.64
12856,-5.28
12868,-5.93
12880,-6.61
12892,-7.36
12904,-8.21
12916,-9.2
12928,-10.32
12940,-11.54
12952,-12.76
12964,-13.89
12976,-14.76
12988,-15.15
13000,-14.85
13011,-13.73
13022,-11.79
13034,-9.21
13046,-6.3
13058,-3.42
13070,-0.88
13082,1.1
13094,2.46
13106,3.28
13118,3.69
13130,3.88
13142,4.02
13154,4.23
13166,4.6
13178,5.12
13190,5.77
13201,6.48
13212,7.16
13224,7.75
13236,8.2
13248,8.5
13260,8.7
13272,8.86
13284,9.03
13296,9.19
13308,9.29
13320,9.26
13332,9.06
13344,8.7
13356,8.25
13368,7.79
13380,7.33
13391,6.89
13402,6.44
13414,5.95
13426,5.44
13438,4.94
13450,4.43
13462,3.91
13474,3.37
13486,2.82
13498,2.32
13510,1.96
13522,1.74
13534,1.62
13546,1.47
13558,1.16
13570,0.64
13581,-0.03
13592,-0.73
13604,-1.33
13616,-1.78
13628,-2.12
13640,-2.47
13652,-2.97
13664,-3.7
13676,-4.65
13688,-5.77
13700,-6.97
13712,-8.16
13724,-9.24
13736,-10.14
13748,-10.82
13760,-11.31
13771,-11.73
13782,-12.2
13794,-12.84
13806,-13.67
13818,-14.61
13830,-15.43
13842,-15.87
13854,-15.68
13866,-14.66
13878,-12.77
13890,-10.11
13902,-6.97
13914,-3.7
13926,-0.73
13938,1.65
13950,3.29
13961,4.3
13972,4.88
13984,5.29
13996,5.71
14008,6.19
14020,6.66
14032,7.03
14044,7.26
14056,7.35
14068,7.41
14080,7.56
14092,7.88
14104,8.37
14116,8.95
14128,9.5
14140,9.87
14151,10.01
14162,9.94
14174,9.75
14186,9.54
14198,9.35
14210,9.15
14222,8.87
14234,8.44
14246,7.88
14258,7.22
14270,6.55
14282,5.92
14294,5.35
14306,4.85
14318,4.39
14330,3.96
14341,3.55
14352,3.13
14364,2.71
14376,2.28
14388,1.87
14400,1.48
14412,1.08
14424,0.66
14436,0.17
14448,-0.4
14460,-1.05
14472,-1.73
14484,-2.4
14496,-3.02
14508,-3.6
14520,-4.17
14531,-4.79
14542,-5.47
14554,-6.2
14566,-6.9
14578,-7.48
14590,-7.87
14602,-8.11
14614,-8.29
14626,-8.54
14638,-9.0
14650,-9.72
14662,-10.71
14674,-11.92
14686,-13.29
14698,-14.69
14710,-15.9
14721,-16.61
14732,-16.49
14744,-15.36
14756,-13.23
14768,-10.42
14780,-7.33
14792,-4.4
14804,-1.86
14816,0.22
14828,1.93
14840,3.32
14852,4.41
14864,5.15
14876,5.53
14888,5.63
14900,5.63
14911,5.75
14922,6.1
14934,6.68
14946,7.32
14958,7.78
14970,7.92
14982,7.77
14994,7.48
15006,7.29
15018,7.36
15030,7.66
15042,8.05
15054,8.31
15066,8.31
15078,8.04
15090,7.62
15101,7.16
15112,6.72
15124,6.29
15136,5.82
15148,5.31
15160,4.82
15172,4.41
15184,4.13
15196,3.93
15208,3.69
15220,3.31
15232,2.75
15244,2.05
15256,1.31
15268,0.63
15280,0.08
15291,-0.33
15302,-0.65
15314,-0.97
15326,-1.39
15338,-2.01
15350,-2.84
15362,-3.85
15374,-4.9
15386,-5.91
15398,-6.8
15410,-7.63
15422,-8.45
15434,-9.31
15446,-10.21
15458,-11.07
15470,-11.83
15481,-12.44
15492,-12.91
15504,-13.22
15516,-13.28
15528,-12.92
15540,-11.96
15552,-10.31
15564,-8.03
15576,-5.37
15588,-2.67
15600,-0.21
15612,1.81
15624,3.36
15636,4.51
15648,5.34
15660,5.91
15671,6.25
15682,6.37
15694,6.31
15706,6.16
15718,6.02
15730,6.02
15742,6.2
15754,6.59
15766,7.15
15778,7.83
15790,8.55
15802,9.2
15814,9.66
15826,9.84
15838,9.69
15850,9.25
15861,8.64
15872,8.01
15884,7.48
15896,7.07
15908,6.69
15920,6.23
15932,5.64
15944,4.95
15956,4.26
15968,3.72
15980,3.38
15992,3.24
16004,3.2
16016,3.13
16028,2.93
16040,2.52
16051,1.89
16062,1.09
16074,0.21
16086,-0.59
16098,-1.15
16110,-1.42
16122,-1.43
16134,-1.36
16146,-1.45
16158,-1.91
16170,-2.79
16182,-4.01
16194,-5.37
16206,-6.68
16218,-7.84
16230,-8.87
16241,-9.8
16252,-10.7
16264,-11.58
16276,-12.45
16288,-13.34
16300,-14.28
16312,-15.3
16324,-16.27
16336,-16.99
16348,-17.12
16360,-16.41
16372,-14.79
16384,-12.38
16396,-9.52
16408,-6.58
16420,-3.9
16431,-1.64
16442,0.13
16454,1.44
16466,2.36
16478,2.98
16490,3.45
16502,3.89
16514,4.44
16526,5.13
16538,5.93
16550,6.73
16562,7.42
16574,7.88
16586,8.1
16598,8.13
16610,8.06
16621,8.03
16632,8.11
16644,8.35
16656,8.71
16668,9.08
16680,9.37
16692,9.5
16704,9.44
16716,9.25
16728,9.0
16740,8.72
16752,8.38
16764,7.95
16776,7.38
16788,6.68
16800,5.93
16811,5.26
16822,4.75
16834,4.39
16846,4.11
16858,3.79
16870,3.34
16882,2.77
16894,2.18
16906,1.66
16918,1.29
16930,1.05
16942,0.86
16954,0.59
16966,0.2
16978,-0.33
16990,-0.94
17001,-1.54
17012,-2.11
17024,-2.64
17036,-3.15
17048,-3.7
17060,-4.32
17072,-5.04
17084,-5.86
17096,-6.74
17108,-7.61
17120,-8.43
17132,-9.14
17144,-9.75
17156,-10.28
17168,-10.81
17180,-11.38
17191,-12.07
17202,-12.88
17214,-13.78
17226,-14.64
17238,-15.27
17250,-15.46
17262,-15.05
17274,-13.97
17286,-12.27
17298,-10.07
17310,-7.53
17322,-4.84
17334,-2.18
17346,0.23
17358,2.16
17370,3.51
17381,4.27
17392,4.62
17404,4.77
17416,4.93
17428,5.22
17440,5.62
17452,6.1
17464,6.61
17476,7.18
17488,7.8
17500,8.45
17512,9.05
17524,9.53
17536,9.86
17548,10.06
17560,10.2
17571,10.29
17582,10.29
17594,10.14
17606,9.77
17618,9.16
17630,8.38
17642,7.56
17654,6.81
17666,6.22
17678,5.8
17690,5.51
17702,5.27
17714,4.99
17726,4.65
17738,4.24
17750,3.78
17761,3.29
17772,2.78
17784,2.25
17796,1.7
17808,1.11
17820,0.5
17832,-0.08
17844,-0.61
17856,-1.08
17868,-1.5
17880,-1.93
17892,-2.42
17904,-2.98
17916,-3.58
17928,-4.14
17940,-4.61
17951,-4.99
17962,-5.35
17974,-5.8
17986,-6.39
17998,-7.12
18010,-7.9
18022,-8.61
18034,-9.16
18046,-9.59
18058,-9.99
18070,-10.51
18082,-11.23
18094,-12.18
18106,-13.24
18118,-14.24
18130,-14.93
18141,-15.06
18152,-14.41
18164,-12.94
18176,-10.76
18188,-8.12
18200,-5.37
18212,-2.81
18224,-0.61
18236,1.17
18248,2.59
18260,3.72
18272,4.62
18284,5.31
18296,5.81
18308,6.16
18320,6.38
18331,6.52
18342,6.61
18354,6.66
18366,6.68
18378,6.69
18390,6.73
18402,6.84
18414,7.09
18426,7.5
18438,8.04
18450,8.65
18462,9.17
18474,9.46
18486,9.43
18498,9.06
18510,8.47
18521,7.79
18532,7.14
18544,6.58
18556,6.05
18568,5.54
18580,4.99
18592,4.4
18604,3.78
18616,3.12
18628,2.4
18640,1.62
18652,0.87
18664,0.25
18676,-0.18
18688,-0.4
18700,-0.54
18711,-0.73
18722,-1.11
18734,-1.68
18746,-2.36
18758,-3.04
18770,-3.67
18782,-4.3
18794,-5.01
18806,-5.88
18818,-6.9
18830,-7.97
18842,-9.01
18854,-9.97
18866,-10.91
18878,-11.88
18890,-12.92
18901,-13.91
18912,-14.61
18924,-14.73
18936,-14.06
18948,-12.53
18960,-10.29
18972,-7.62
18984,-4.88
18996,-2.34
19008,-0.22
19020,1.43
19032,2.61
19044,3.43
19056,3.96
19068,4.29
19080,4.46
19091,4.51
19102,4.46
19114,4.34
19126,4.21
19138,4.1
19150,4.07
19162,4.13
19174,4.31
19186,4.63
19198,5.1
19210,5.72
19222,6.41
19234,7.06
19246,7.56
19258,7.81
19270,7.77
19281,7.46
19292,6.97
19304,6.37
19316,5.71
19328,5.03
19340,4.36
19352,3.73
19364,3.15
19376,2.67
19388,2.28
19400,2.0
19412,1.81
19424,1.69
19436,1.63
19448,1.65
19460,1.73
19471,1.84
19482,1.92
19494,1.88
19506,1.59
19518,0.98
19530,0.06
19542,-1.09
19554,-2.3
19566,-3.46
19578,-4.47
19590,-5.4
19602,-6.36
19614,-7.48
19626,-8.85
19638,-10.43
19650,-12.04
19661,-13.47
19672,-14.47
19684,-14.87
19696,-14.56
19708,-13.55
19720,-11.93
19732,-9.83
19744,-7.41
19756,-4.86
19768,-2.39
19780,-0.17
19792,1.66
19804,3.03
19816,3.9
19828,4.35
19840,4.47
19851,4.39
19862,4.29
19874,4.29
19886,4.49
19898,4.9
19910,5.44
19922,5.98
19934,6.37
19946,6.53
19958,6.5
19970,6.38
19982,6.3
19994,6.36
20006,6.56
20018,6.85
20030,7.13
20041,7.34
20052,7.43
20064,7.41
20076,7.27
20088,7.02
20100,6.62
20112,6.07
20124,5.41
20136,4.68
20148,3.93
20160,3.17
20172,2.4
20184,1.61
20196,0.81
20208,0.05
20220,-0.62
20231,-1.19
20242,-1.68
20254,-2.16
20266,-2.74
20278,-3.46
20290,-4.28
20302,-5.09
20314,-5.75
20326,-6.16
20338,-6.32
20350,-6.37
20362,-6.49
20374,-6.91
20386,-7.77
20398,-9.09
20410,-10.74
20421,-12.48
20432,-13.98
20444,-14.91
20456,-15.01
20468,-14.15
20480,-12.37
20492,-9.91
20504,-7.09
20516,-4.28
20528,-1.75
20540,0.32
20552,1.92
20564,3.14
20576,4.09
20588,4.87
20600,5.51
20611,6.0
20622,6.31
20634,6.45
20646,6.44
20658,6.35
20670,6.23
20682,6.12
20694,6.06
20706,6.1
20718,6.29
20730,6.65
20742,7.17
20754,7.79
20766,8.37
20778,8.79
20790,8.95
20801,8.85
20812,8.56
20824,8.2
20836,7.86
20848,7.56
20860,7.25
20872,6.84
20884,6.27
20896,5.57
20908,4.8
20920,4.09
20932,3.51
20944,3.07
20956,2.75
20968,2.47
20980,2.18
20991,1.84
