seconds,BVP
4,-0.01
16,-0.27
28,-0.54
40,-0.82
52,-1.08
64,-1.27
76,-1.36
88,-1.39
100,-1.39
111,-1.39
122,-1.37
134,-1.24
146,-0.91
158,-0.31
170,0.51
182,1.48
194,2.43
206,3.23
218,3.79
230,4.06
242,4.08
254,3.95
266,3.78
278,3.67
290,3.7
301,3.88
312,4.17
324,4.46
336,4.66
348,4.72
360,4.68
372,4.64
384,4.74
396,5.05
408,5.55
420,6.13
432,6.68
444,7.12
456,7.46
468,7.77
480,8.11
491,8.5
502,8.86
514,9.13
526,9.28
538,9.33
550,9.37
562,9.44
574,9.52
586,9.51
598,9.33
610,8.96
622,8.45
634,7.93
646,7.52
658,7.19
670,6.87
681,6.41
692,5.71
704,4.78
716,3.67
728,2.51
740,1.34
752,0.23
764,-0.75
776,-1.49
788,-1.83
800,-1.67
812,-1.03
824,-0.12
836,0.78
848,1.39
860,1.62
871,1.57
882,1.46
894,1.49
906,1.68
918,1.91
930,1.94
942,1.62
954,0.98
966,0.24
978,-0.34
990,-0.54
1002,-0.34
1014,0.1
1026,0.57
1038,0.88
1050,0.95
1061,0.82
1072,0.55
1084,0.17
1096,-0.34
1108,-1.0
1120,-1.78
1132,-2.57
1144,-3.21
1156,-3.58
1168,-3.67
1180,-3.64
1192,-3.7
1204,-4.02
1216,-4.6
1228,-5.29
1240,-5.82
1251,-5.96
1262,-5.67
1274,-5.06
1286,-4.34
1298,-3.71
1310,-3.22
1322,-2.8
1334,-2.3
1346,-1.63
1358,-0.82
1370,-0.02
1382,0.61
1394,0.94
1406,0.93
1418,0.64
1430,0.15
1441,-0.51
1452,-1.31
1464,-2.21
1476,-3.17
1488,-4.12
1500,-4.97
1512,-5.71
1524,-6.36
1536,-6.99
1548,-7.66
1560,-8.37
1572,-9.05
1584,-9.57
1596,-9.81
1608,-9.64
1620,-9.02
1631,-8.0
1642,-6.71
1654,-5.38
1666,-4.29
1678,-3.68
1690,-3.71
1702,-4.4
1714,-5.63
1726,-7.2
1738,-8.89
1750,-10.54
1762,-12.06
1774,-13.49
1786,-14.89
1798,-16.31
1810,-17.72
1821,-18.98
1832,-19.89
1844,-20.26
1856,-20.01
1868,-19.18
1880,-17.94
1892,-16.49
1904,-14.99
1916,-13.55
1928,-12.21
1940,-11.0
1952,-9.92
1964,-9.02
1976,-8.33
1988,-7.84
2000,-7.5
2011,-7.19
2022,-6.78
2034,-6.18
2046,-5.4
2058,-4.49
2070,-3.58
2082,-2.76
2094,-2.08
2106,-1.52
2118,-1.06
2130,-0.67
2142,-0.37
2154,-0.18
2166,-0.07
2178,-0.03
2190,-0.01
2201,-0.0
2212,-0.02
2224,-0.08
2236,-0.15
2248,-0.15
2260,-0.03
2272,0.22
2284,0.53
2296,0.76
2308,0.82
2320,0.73
2332,0.6
2344,0.54
2356,0.63
2368,0.81
2380,0.97
2391,1.03
2402,0.97
2414,0.93
2426,1.05
2438,1.47
2450,2.24
2462,3.28
2474,4.46
2486,5.65
2498,6.73
2510,7.65
2522,8.38
2534,8.96
2546,9.44
2558,9.91
2570,10.46
2581,11.11
2592,11.86
2604,12.59
2616,13.19
2628,13.52
2640,13.51
2652,13.19
2664,12.63
2676,11.97
2688,11.32
2700,10.77
2712,10.36
2724,10.06
2736,9.82
2748,9.61
2760,9.4
2771,9.19
2782,8.95
2794,8.67
2806,8.31
2818,7.83
2830,7.27
2842,6.72
2854,6.33
2866,6.23
2878,6.46
2890,6.91
2902,7.34
2914,7.51
2926,7.26
2938,6.66
2950,5.95
2961,5.45
2972,5.45
2984,6.06
2996,7.27
3008,8.92
3020,10.85
3032,12.92
3044,15.05
3056,17.21
3068,19.32
3080,21.29
3092,22.9
3104,23.88
3116,23.94
3128,22.84
3140,20.49
3151,17.02
3162,12.79
3174,8.26
3186,3.9
3198,0.08
3210,-3.09
3222,-5.65
3234,-7.73
3246,-9.43
3258,-10.73
3270,-11.5
3282,-11.62
3294,-11.04
3306,-9.88
3318,-8.41
3330,-6.95
3341,-5.79
3352,-5.11
3364,-4.98
3376,-5.4
3388,-6.32
3400,-7.73
3412,-9.57
3424,-11.77
3436,-14.18
3448,-16.6
3460,-18.83
3472,-20.7
3484,-22.17
3496,-23.24
3508,-24.03
3520,-24.61
3531,-25.02
3542,-25.16
3554,-24.82
3566,-23.8
3578,-21.96
3590,-19.32
3602,-16.12
3614,-12.66
3626,-9.23
3638,-6.01
3650,-3.07
3662,-0.32
3674,2.28
3686,4.76
3698,6.98
3710,8.7
3721,9.67
3732,9.67
3744,8.65
3756,6.72
3768,4.17
3780,1.38
3792,-1.21
3804,-3.26
3816,-4.54
3828,-4.98
3840,-4.65
3852,-3.72
3864,-2.45
3876,-1.11
3888,0.03
3900,0.79
3911,1.1
3922,1.02
3934,0.65
3946,0.14
3958,-0.38
3970,-0.84
3982,-1.2
3994,-1.44
4006,-1.55
4018,-1.57
4030,-1.57
4042,-1.66
4054,-1.98
4066,-2.58
4078,-3.42
4090,-4.36
4101,-5.19
4112,-5.71
4124,-5.79
4136,-5.42
4148,-4.67
4160,-3.69
4172,-2.61
4184,-1.54
4196,-0.52
4208,0.4
4220,1.22
4232,1.89
4244,2.37
4256,2.65
4268,2.75
4280,2.74
4291,2.68
4302,2.61
4314,2.47
4326,2.19
4338,1.69
4350,0.93
4362,-0.05
4374,-1.11
4386,-2.1
4398,-2.88
4410,-3.39
4422,-3.68
4434,-3.82
4446,-3.96
4458,-4.16
4470,-4.46
4481,-4.77
4492,-4.95
4504,-4.84
4516,-4.31
4528,-3.34
4540,-2.02
4552,-0.47
4564,1.12
4576,2.63
4588,3.99
4600,5.19
4612,6.29
4624,7.36
4636,8.47
4648,9.61
4660,10.69
4671,11.54
4682,11.93
4694,11.73
4706,10.96
4718,9.82
4730,8.68
4742,7.88
4754,7.64
4766,7.97
4778,8.66
4790,9.41
4802,9.95
4814,10.15
4826,10.0
4838,9.65
4850,9.24
4861,8.87
4872,8.53
4884,8.13
4896,7.49
4908,6.5
4920,5.05
4932,3.21
4944,1.16
4956,-0.84
4968,-2.48
4980,-3.49
4992,-3.77
5004,-3.44
5016,-2.82
5028,-2.34
5040,-2.37
5051,-3.06
5062,-4.21
5074,-5.42
5086,-6.22
5098,-6.36
5110,-5.88
5122,-5.08
5134,-4.32
5146,-3.84
5158,-3.67
5170,-3.69
5182,-3.82
5194,-4.03
5206,-4.41
5218,-4.99
5230,-5.65
5241,-6.1
5252,-6.01
5264,-5.19
5276,-3.74
5288,-2.03
5300,-0.54
5312,0.36
5324,0.51
5336,-0.01
5348,-0.96
5360,-2.12
5372,-3.36
5384,-4.64
5396,-5.95
5408,-7.26
5420,-8.53
5431,-9.67
5442,-10.62
5454,-11.39
5466,-11.96
5478,-12.36
5490,-12.56
5502,-12.55
5514,-12.36
5526,-12.03
5538,-11.62
5550,-11.2
5562,-10.78
5574,-10.33
5586,-9.79
5598,-9.14
5610,-8.43
5621,-7.7
5632,-7.01
5644,-6.38
5656,-5.76
5668,-5.12
5680,-4.44
5692,-3.79
5704,-3.24
5716,-2.86
5728,-2.67
5740,-2.67
5752,-2.82
5764,-3.1
5776,-3.44
5788,-3.7
5800,-3.69
5811,-3.18
5822,-2.05
5834,-0.37
5846,1.67
5858,3.79
5870,5.7
5882,7.26
5894,8.46
5906,9.36
5918,10.1
5930,10.74
5942,11.32
5954,11.76
5966,11.94
5978,11.68
5990,10.89
6001,9.62
6012,8.04
6024,6.43
6036,4.94
6048,3.61
6060,2.36
6072,1.08
6084,-0.28
6096,-1.65
6108,-2.95
6120,-4.11
6132,-5.16
6144,-6.21
6156,-7.31
6168,-8.42
6180,-9.39
6191,-10.02
6202,-10.19
6214,-9.96
6226,-9.52
6238,-9.1
6250,-8.89
6262,-8.93
6274,-9.07
6286,-9.11
6298,-8.8
6310,-7.98
6322,-6.57
6334,-4.64
6346,-2.31
6358,0.23
6370,2.82
6381,5.3
6392,7.57
6404,9.6
6416,11.39
6428,13.0
6440,14.45
6452,15.76
6464,16.86
6476,17.67
6488,18.06
6500,17.99
6512,17.44
6524,16.53
6536,15.36
6548,14.07
6560,12.74
6571,11.41
6582,10.09
6594,8.83
6606,7.63
6618,6.52
6630,5.49
6642,4.48
6654,3.45
6666,2.41
6678,1.42
6690,0.56
6702,-0.11
6714,-0.63
6726,-1.14
6738,-1.83
6750,-2.82
6761,-4.2
6772,-5.88
6784,-7.72
6796,-9.46
6808,-10.87
6820,-11.73
6832,-11.91
6844,-11.38
6856,-10.24
6868,-8.67
6880,-6.89
6892,-5.11
6904,-3.49
6916,-2.13
6928,-1.07
6940,-0.29
6951,0.26
6962,0.71
6974,1.16
6986,1.71
6998,2.39
7010,3.17
7022,4.06
7034,5.07
7046,6.22
7058,7.58
7070,9.12
7082,10.77
7094,12.46
7106,14.14
7118,15.79
7130,17.43
7141,19.02
7152,20.45
7164,21.52
7176,22.09
7188,22.08
7200,21.52
7212,20.53
7224,19.2
7236,17.59
7248,15.73
7260,13.72
7272,11.69
7284,9.81
7296,8.2
7308,6.82
7320,5.53
7331,4.12
7342,2.49
7354,0.67
7366,-1.15
7378,-2.76
7390,-3.98
7402,-4.73
7414,-5.05
7426,-5.0
7438,-4.62
7450,-3.96
7462,-3.07
7474,-2.08
7486,-1.18
7498,-0.57
7510,-0.41
7521,-0.77
7532,-1.61
7544,-2.82
7556,-4.22
7568,-5.69
7580,-7.1
7592,-8.43
7604,-9.64
7616,-10.75
7628,-11.72
7640,-12.53
7652,-13.12
7664,-13.48
7676,-13.68
7688,-13.82
7700,-13.98
7711,-14.22
7722,-14.47
7734,-14.63
7746,-14.59
7758,-14.32
7770,-13.93
7782,-13.57
7794,-13.36
7806,-13.31
7818,-13.32
7830,-13.24
7842,-12.93
7854,-12.37
7866,-11.57
7878,-10.58
7890,-9.44
7901,-8.13
7912,-6.62
7924,-4.99
7936,-3.35
7948,-1.87
7960,-0.69
7972,0.13
7984,0.66
7996,1.0
8008,1.28
8020,1.59
8032,1.93
8044,2.27
8056,2.57
8068,2.81
8080,3.06
8091,3.37
8102,3.77
8114,4.23
8126,4.63
8138,4.86
8150,4.85
8162,4.65
8174,4.38
8186,4.17
8198,4.14
8210,4.28
8222,4.56
8234,4.9
8246,5.28
8258,5.68
8270,6.12
8281,6.58
8292,7.02
8304,7.32
8316,7.4
8328,7.21
8340,6.77
8352,6.16
8364,5.52
8376,4.95
8388,4.51
8400,4.21
8412,3.99
8424,3.74
8436,3.41
8448,2.96
8460,2.4
8471,1.8
8482,1.2
8494,0.65
8506,0.19
8518,-0.11
8530,-0.2
8542,-0.01
8554,0.46
8566,1.15
8578,1.93
8590,2.63
8602,3.11
8614,3.33
8626,3.32
8638,3.16
8650,2.97
8661,2.82
8672,2.76
8684,2.77
8696,2.86
8708,3.01
8720,3.2
8732,3.37
8744,3.48
8756,3.45
8768,3.28
8780,2.99
8792,2.68
8804,2.48
8816,2.45
8828,2.61
8840,2.86
8851,3.06
8862,3.1
8874,2.89
8886,2.44
8898,1.82
8910,1.13
8922,0.48
8934,-0.06
8946,-0.46
8958,-0.73
8970,-0.89
8982,-0.96
8994,-0.97
9006,-0.96
9018,-0.97
9030,-1.12
9041,-1.46
9052,-2.02
9064,-2.73
9076,-3.41
9088,-3.9
9100,-4.13
9112,-4.14
9124,-4.09
9136,-4.15
9148,-4.41
9160,-4.85
9172,-5.33
9184,-5.71
9196,-5.91
9208,-5.94
9220,-5.85
9231,-5.68
9242,-5.4
9254,-4.99
9266,-4.41
9278,-3.69
9290,-2.89
9302,-2.09
9314,-1.33
9326,-0.61
9338,0.09
9350,0.79
9362,1.49
9374,2.17
9386,2.77
9398,3.22
9410,3.46
9421,3.46
9432,3.27
9444,3.01
9456,2.81
9468,2.77
9480,2.86
9492,2.99
9504,3.01
9516,2.84
9528,2.51
9540,2.13
9552,1.83
9564,1.66
9576,1.58
9588,1.52
9600,1.41
9611,1.26
9622,1.11
9634,1.0
9646,0.95
9658,0.93
9670,0.87
9682,0.73
9694,0.52
9706,0.28
9718,0.07
9730,-0.08
9742,-0.16
9754,-0.23
9766,-0.34
9778,-0.52
9790,-0.75
9801,-0.96
9812,-1.09
9824,-1.11
9836,-1.08
9848,-1.1
9860,-1.3
9872,-1.72
9884,-2.35
9896,-3.06
9908,-3.64
9920,-3.89
9932,-3.67
9944,-2.95
9956,-1.87
9968,-0.64
9980,0.48
9991,1.31
10002,1.78
10014,1.94
10026,1.93
10038,1.9
10050,1.96
10062,2.16
10074,2.45
10086,2.76
10098,3.03
10110,3.19
10122,3.23
10134,3.13
10146,2.94
10158,2.68
10170,2.39
10181,2.12
10192,1.91
10204,1.78
10216,1.76
10228,1.84
10240,1.98
10252,2.12
10264,2.2
10276,2.18
10288,2.07
10300,1.91
10312,1.71
10324,1.49
10336,1.26
10348,1.02
10360,0.78
10371,0.59
10382,0.49
10394,0.47
10406,0.49
10418,0.44
10430,0.21
10442,-0.25
10454,-0.9
10466,-1.59
10478,-2.15
10490,-2.46
10502,-2.52
10514,-2.43
10526,-2.35
10538,-2.38
10550,-2.52
10561,-2.69
10572,-2.78
10584,-2.69
10596,-2.38
10608,-1.89
10620,-1.29
10632,-0.66
10644,-0.07
10656,0.46
10668,0.91
10680,1.27
10692,1.51
10704,1.61
10716,1.57
10728,1.42
10740,1.24
10751,1.13
10762,1.17
10774,1.37
10786,1.67
10798,1.95
10810,2.16
10822,2.29
10834,2.38
10846,2.46
10858,2.52
10870,2.47
10882,2.25
10894,1.83
10906,1.31
10918,0.82
10930,0.48
10941,0.31
10952,0.23
10964,0.15
10976,0.01
10988,-0.18
11000,-0.39
11012,-0.59
11024,-0.79
11036,-1.05
11048,-1.36
11060,-1.69
11072,-1.97
11084,-2.15
11096,-2.25
11108,-2.3
11120,-2.38
11131,-2.48
11142,-2.57
11154,-2.55
11166,-2.38
11178,-2.06
11190,-1.62
11202,-1.09
11214,-0.5
11226,0.17
11238,0.9
11250,1.66
11262,2.36
11274,2.9
11286,3.24
11298,3.36
11310,3.35
11321,3.27
11332,3.21
11344,3.23
11356,3.31
11368,3.46
11380,3.63
11392,3.76
11404,3.83
11416,3.79
11428,3.63
11440,3.38
11452,3.05
11464,2.7
11476,2.38
11488,2.13
11500,1.97
11511,1.89
11522,1.84
11534,1.74
11546,1.53
11558,1.2
11570,0.78
11582,0.37
11594,0.07
11606,-0.07
11618,-0.06
11630,0.03
11642,0.05
11654,-0.13
11666,-0.63
11678,-1.45
11690,-2.51
11701,-3.64
11712,-4.63
11724,-5.3
11736,-5.58
11748,-5.51
11760,-5.22
11772,-4.82
11784,-4.38
11796,-3.92
11808,-3.38
11820,-2.74
11832,-2.03
11844,-1.34
11856,-0.71
11868,-0.18
11880,0.28
11891,0.7
11902,1.09
11914,1.41
11926,1.62
11938,1.7
11950,1.69
11962,1.68
11974,1.74
11986,1.87
11998,2.03
12010,2.17
12022,2.24
12034,2.28
12046,2.32
12058,2.37
12070,2.4
12081,2.36
12092,2.21
12104,1.96
12116,1.66
12128,1.39
12140,1.18
12152,1.02
12164,0.89
12176,0.75
12188,0.64
12200,0.6
12212,0.62
12224,0.65
12236,0.57
12248,0.28
12260,-0.26
12271,-0.92
12282,-1.55
12294,-1.97
12306,-2.13
12318,-2.09
12330,-1.99
12342,-1.96
12354,-2.06
12366,-2.2
12378,-2.27
12390,-2.17
12402,-1.9
12414,-1.55
12426,-1.19
12438,-0.89
12450,-0.6
12461,-0.27
12472,0.13
12484,0.61
12496,1.09
12508,1.49
12520,1.75
12532,1.84
12544,1.77
12556,1.57
12568,1.31
12580,1.09
12592,0.98
12604,1.02
12616,1.23
12628,1.55
12640,1.91
12651,2.23
12662,2.48
12674,2.6
12686,2.55
12698,2.29
12710,1.82
12722,1.27
12734,0.82
12746,0.66
12758,0.88
12770,1.44
12782,2.16
12794,2.82
12806,3.26
12818,3.44
12830,3.4
12841,3.24
12852,3.01
12864,2.72
12876,2.38
12888,2.0
12900,1.64
12912,1.38
12924,1.29
12936,1.34
12948,1.44
12960,1.45
12972,1.24
12984,0.79
12996,0.2
13008,-0.37
13020,-0.81
13031,-1.08
13042,-1.23
13054,-1.35
13066,-1.46
13078,-1.48
13090,-1.29
13102,-0.8
13114,-0.06
13126,0.78
13138,1.51
13150,1.99
13162,2.28
13174,2.52
13186,2.91
13198,3.54
13210,4.33
13221,5.11
13232,5.67
13244,5.93
13256,5.92
13268,5.81
13280,5.72
13292,5.71
13304,5.69
13316,5.47
13328,4.91
13340,3.91
13352,2.48
13364,0.7
13376,-1.32
13388,-3.45
13400,-5.51
13411,-7.28
13422,-8.57
13434,-9.25
13446,-9.38
13458,-9.15
13470,-8.86
13482,-8.75
13494,-8.88
13506,-9.17
13518,-9.43
13530,-9.53
13542,-9.48
13554,-9.43
13566,-9.56
13578,-10.0
13590,-10.75
13601,-11.71
13612,-12.71
13624,-13.6
13636,-14.3
13648,-14.76
13660,-15.0
13672,-15.04
13684,-14.86
13696,-14.41
13708,-13.68
13720,-12.67
13732,-11.47
13744,-10.23
13756,-9.11
13768,-8.21
13780,-7.51
13791,-6.9
13802,-6.23
13814,-5.4
13826,-4.37
13838,-3.19
13850,-1.89
13862,-0.48
13874,1.08
13886,2.84
13898,4.74
13910,6.65
13922,8.39
13934,9.78
13946,10.75
13958,11.3
13970,11.56
13981,11.63
13992,11.58
14004,11.39
14016,11.01
14028,10.36
14040,9.44
14052,8.3
14064,7.05
14076,5.83
14088,4.73
14100,3.81
14112,3.03
14124,2.31
14136,1.6
14148,0.86
14160,0.13
14171,-0.51
14182,-0.98
14194,-1.22
14206,-1.15
14218,-0.75
14230,0.03
14242,1.12
14254,2.41
14266,3.69
14278,4.76
14290,5.5
14302,5.95
14314,6.24
14326,6.54
14338,6.9
14350,7.25
14361,7.4
14372,7.19
14384,6.65
14396,5.95
14408,5.34
14420,5.0
14432,4.9
14444,4.82
14456,4.5
14468,3.75
14480,2.6
14492,1.22
14504,-0.14
14516,-1.33
14528,-2.28
14540,-3.03
14551,-3.59
14562,-3.93
14574,-3.98
14586,-3.68
14598,-3.09
14610,-2.35
14622,-1.69
14634,-1.31
14646,-1.29
14658,-1.63
14670,-2.25
14682,-3.08
14694,-4.05
14706,-5.1
14718,-6.17
14730,-7.18
14741,-8.05
14752,-8.66
14764,-8.94
14776,-8.83
14788,-8.34
14800,-7.55
14812,-6.63
14824,-5.76
14836,-5.1
14848,-4.71
14860,-4.55
14872,-4.48
14884,-4.4
14896,-4.24
14908,-3.99
14920,-3.69
14931,-3.4
14942,-3.11
14954,-2.81
14966,-2.49
14978,-2.18
14990,-1.88
15002,-1.64
15014,-1.47
15026,-1.38
15038,-1.31
15050,-1.18
15062,-0.91
15074,-0.48
15086,0.08
15098,0.68
15110,1.24
15121,1.74
15132,2.3
15144,3.04
15156,4.05
15168,5.29
15180,6.59
15192,7.7
15204,8.42
15216,8.66
15228,8.43
15240,7.82
15252,6.93
15264,5.83
15276,4.62
15288,3.39
15300,2.33
15311,1.6
15322,1.33
15334,1.53
15346,2.1
15358,2.89
15370,3.78
15382,4.68
15394,5.48
15406,6.12
15418,6.51
15430,6.58
15442,6.35
15454,5.91
15466,5.42
15478,4.96
15490,4.55
15501,4.14
15512,3.65
15524,3.05
15536,2.35
15548,1.63
15560,0.93
15572,0.27
15584,-0.37
15596,-0.99
15608,-1.53
15620,-1.95
15632,-2.25
15644,-2.53
15656,-2.96
15668,-3.69
15680,-4.77
15691,-6.08
15702,-7.39
15714,-8.41
15726,-8.95
15738,-8.93
15750,-8.42
15762,-7.57
15774,-6.59
15786,-5.7
15798,-5.11
15810,-4.91
15822,-5.12
15834,-5.64
15846,-6.3
15858,-6.9
15870,-7.31
15881,-7.47
15892,-7.39
15904,-7.09
15916,-6.56
15928,-5.78
15940,-4.74
15952,-3.47
15964,-2.1
15976,-0.75
15988,0.5
16000,1.59
16012,2.57
16024,3.47
16036,4.35
16048,5.22
16060,6.1
16071,7.01
16082,7.99
16094,9.02
16106,10.07
16118,11.07
16130,11.92
16142,12.58
16154,13.03
16166,13.25
16178,13.25
16190,13.01
16202,12.56
16214,11.96
16226,11.33
16238,10.77
16250,10.31
16261,9.85
16272,9.22
16284,8.28
16296,6.98
16308,5.43
16320,3.84
16332,2.4
16344,1.25
16356,0.35
16368,-0.4
16380,-1.12
16392,-1.87
16404,-2.56
16416,-3.05
16428,-3.23
16440,-3.1
16451,-2.8
16462,-2.49
16474,-2.29
16486,-2.15
16498,-1.94
16510,-1.49
16522,-0.77
16534,0.06
16546,0.69
16558,0.81
16570,0.21
16582,-1.07
16594,-2.8
16606,-4.67
16618,-6.41
16630,-7.9
16641,-9.12
16652,-10.15
16664,-11.03
16676,-11.74
16688,-12.26
16700,-12.55
16712,-12.65
16724,-12.65
16736,-12.65
16748,-12.7
16760,-12.72
16772,-12.62
16784,-12.3
16796,-11.74
16808,-11.02
16820,-10.28
16831,-9.64
16842,-9.16
16854,-8.84
16866,-8.6
16878,-8.39
16890,-8.14
16902,-7.83
16914,-7.43
16926,-6.93
16938,-6.39
16950,-5.89
16962,-5.54
16974,-5.42
16986,-5.5
16998,-5.65
17010,-5.66
17021,-5.32
17032,-4.54
17044,-3.38
17056,-2.02
17068,-0.69
17080,0.45
17092,1.36
17104,2.09
17116,2.75
17128,3.38
17140,3.91
17152,4.26
17164,4.35
17176,4.18
17188,3.83
17200,3.38
17211,2.87
17222,2.27
17234,1.59
17246,0.86
17258,0.19
17270,-0.26
17282,-0.37
17294,-0.14
17306,0.3
17318,0.76
17330,1.08
17342,1.19
17354,1.11
17366,0.91
17378,0.69
17390,0.45
17401,0.17
17412,-0.19
17424,-0.61
17436,-1.06
17448,-1.44
17460,-1.69
17472,-1.78
17484,-1.75
17496,-1.69
17508,-1.68
17520,-1.74
17532,-1.86
17544,-1.93
17556,-1.83
17568,-1.47
17580,-0.8
17591,0.12
17602,1.21
17614,2.34
17626,3.4
17638,4.32
17650,5.06
17662,5.64
17674,6.07
17686,6.37
17698,6.55
17710,6.62
17722,6.59
17734,6.44
17746,6.17
17758,5.79
17770,5.35
17781,4.92
17792,4.58
17804,4.41
17816,4.38
17828,4.45
17840,4.48
17852,4.38
17864,4.05
17876,3.51
17888,2.84
17900,2.17
17912,1.58
17924,1.14
17936,0.82
17948,0.57
17960,0.33
17971,0.06
17982,-0.25
17994,-0.57
18006,-0.89
18018,-1.24
18030,-1.66
18042,-2.21
18054,-2.88
18066,-3.63
18078,-4.32
18090,-4.83
18102,-5.01
18114,-4.82
18126,-4.28
18138,-3.49
18150,-2.59
18161,-1.67
18172,-0.73
18184,0.23
18196,1.26
18208,2.35
18220,3.41
18232,4.4
18244,5.24
18256,5.96
18268,6.65
18280,7.37
18292,8.1
18304,8.78
18316,9.25
18328,9.41
18340,9.24
18351,8.84
18362,8.33
18374,7.83
18386,7.36
18398,6.9
18410,6.42
18422,5.94
18434,5.5
18446,5.16
18458,4.91
18470,4.65
18482,4.24
18494,3.6
18506,2.79
18518,1.96
18530,1.29
18541,0.89
18552,0.71
18564,0.6
18576,0.37
18588,-0.08
18600,-0.75
18612,-1.53
18624,-2.31
18636,-3.01
18648,-3.62
18660,-4.18
18672,-4.71
18684,-5.18
18696,-5.48
18708,-5.53
18720,-5.25
18731,-4.68
18742,-3.91
18754,-3.08
18766,-2.29
18778,-1.6
18790,-0.98
18802,-0.36
18814,0.31
18826,1.01
18838,1.69
18850,2.29
18862,2.79
18874,3.21
18886,3.61
18898,4.05
18910,4.49
18921,4.85
18932,5.04
18944,5.03
18956,4.88
18968,4.69
18980,4.6
18992,4.7
19004,5.0
19016,5.4
19028,5.76
19040,5.93
19052,5.82
19064,5.39
19076,4.69
19088,3.84
19100,2.95
19111,2.14
19122,1.48
19134,1.03
19146,0.81
19158,0.82
19170,1.01
19182,1.3
19194,1.56
19206,1.64
19218,1.47
19230,1.06
19242,0.53
19254,0.03
19266,-0.28
19278,-0.35
19290,-0.22
19301,0.02
19312,0.27
19324,0.48
19336,0.58
19348,0.56
19360,0.41
19372,0.15
19384,-0.13
19396,-0.32
19408,-0.31
19420,-0.06
19432,0.38
19444,0.91
19456,1.44
19468,1.93
19480,2.38
19491,2.76
19502,3.03
19514,3.09
19526,2.85
19538,2.31
19550,1.58
19562,0.82
19574,0.22
19586,-0.12
19598,-0.22
19610,-0.16
19622,-0.1
19634,-0.17
19646,-0.46
19658,-1.04
19670,-1.94
19681,-3.1
19692,-4.43
19704,-5.77
19716,-6.96
19728,-7.88
19740,-8.43
19752,-8.57
19764,-8.32
19776,-7.8
19788,-7.17
19800,-6.64
19812,-6.38
19824,-6.45
19836,-6.78
19848,-7.19
19860,-7.5
19871,-7.6
19882,-7.5
19894,-7.31
19906,-7.16
19918,-7.13
19930,-7.19
19942,-7.24
19954,-7.19
19966,-7.0
19978,-6.72
19990,-6.44
20002,-6.24
20014,-6.19
20026,-6.26
20038,-6.43
20050,-6.67
20061,-6.96
20072,-7.29
20084,-7.57
20096,-7.7
20108,-7.51
20120,-6.88
20132,-5.78
20144,-4.32
20156,-2.74
20168,-1.31
20180,-0.23
20192,0.42
20204,0.67
20216,0.65
20228,0.51
20240,0.35
20251,0.24
20262,0.24
20274,0.38
20286,0.68
20298,1.08
20310,1.47
20322,1.71
20334,1.7
20346,1.44
20358,1.07
20370,0.8
20382,0.79
20394,1.09
20406,1.62
20418,2.19
20430,2.6
20441,2.76
20452,2.63
20464,2.29
20476,1.82
20488,1.32
20500,0.87
20512,0.54
20524,0.4
20536,0.45
20548,0.64
20560,0.85
20572,0.93
20584,0.79
20596,0.42
20608,-0.05
20620,-0.43
20631,-0.62
20642,-0.58
20654,-0.43
20666,-0.34
20678,-0.47
20690,-0.86
20702,-1.44
20714,-2.06
20726,-2.56
20738,-2.81
20750,-2.77
20762,-2.5
20774,-2.08
20786,-1.62
20798,-1.15
20810,-0.65
20821,-0.08
20832,0.58
20844,1.28
20856,1.91
20868,2.38
20880,2.62
20892,2.69
20904,2.66
20916,2.6
20928,2.55
20940,2.46
20952,2.31
20964,2.13
20976,1.98
20988,1.92
