seconds,BVP
10,44.38
22,46.67
34,44.17
46,37.73
58,29.28
70,21.03
82,14.81
94,11.54
105,11.17
116,12.97
128,15.87
140,18.83
152,21.04
164,21.99
176,21.54
188,19.9
200,17.58
212,15.26
224,13.49
236,12.57
248,12.36
260,12.42
272,12.22
284,11.35
295,9.73
306,7.54
318,5.12
330,2.75
342,0.55
354,-1.48
366,-3.39
378,-5.16
390,-6.72
402,-7.97
414,-8.94
426,-9.73
438,-10.58
450,-11.71
462,-13.19
474,-14.86
485,-16.44
496,-17.59
508,-18.14
520,-18.2
532,-18.13
544,-18.4
556,-19.34
568,-21.06
580,-23.39
592,-26.01
604,-28.58
616,-30.87
628,-32.75
640,-34.14
652,-35.04
664,-35.48
675,-35.57
686,-35.54
698,-35.57
710,-35.72
722,-35.83
734,-35.55
746,-34.48
758,-32.33
770,-29.07
782,-24.88
794,-20.13
806,-15.19
818,-10.37
830,-5.88
842,-1.89
854,1.47
865,4.09
876,5.87
888,6.77
900,6.86
912,6.32
924,5.4
936,4.39
948,3.57
960,3.09
972,3.01
984,3.32
996,3.9
1008,4.63
1020,5.41
1032,6.16
1044,6.82
1055,7.35
1066,7.67
1078,7.7
1090,7.39
1102,6.75
1114,5.89
1126,4.93
1138,3.99
1150,3.13
1162,2.31
1174,1.41
1186,0.38
1198,-0.85
1210,-2.26
1222,-3.8
1234,-5.45
1245,-7.19
1256,-8.99
1268,-10.82
1280,-12.66
1292,-14.51
1304,-16.46
1316,-18.66
1328,-21.17
1340,-23.94
1352,-26.71
1364,-29.06
1376,-30.52
1388,-30.8
1400,-29.8
1412,-27.64
1424,-24.51
1435,-20.56
1446,-15.9
1458,-10.69
1470,-5.24
1482,0.05
1494,4.71
1506,8.42
1518,11.09
1530,12.89
1542,14.07
1554,14.88
1566,15.4
1578,15.59
1590,15.4
1602,14.85
1614,14.06
1625,13.2
1636,12.44
1648,11.9
1660,11.62
1672,11.58
1684,11.72
1696,11.98
1708,12.26
1720,12.51
1732,12.69
1744,12.78
1756,12.78
1768,12.65
1780,12.34
1792,11.81
1804,11.01
1815,9.9
1826,8.47
1838,6.77
1850,4.87
1862,2.86
1874,0.87
1886,-1.02
1898,-2.78
1910,-4.39
1922,-5.9
1934,-7.31
1946,-8.66
1958,-9.96
1970,-11.27
1982,-12.64
1994,-14.14
2005,-15.82
2016,-17.7
2028,-19.81
2040,-22.1
2052,-24.49
2064,-26.73
2076,-28.49
2088,-29.37
2100,-29.09
2112,-27.52
2124,-24.73
2136,-20.99
2148,-16.58
2160,-11.82
2172,-6.95
2184,-2.15
2195,2.4
2206,6.53
2218,10.05
2230,12.85
2242,14.87
2254,16.18
2266,16.89
2278,17.14
2290,17.1
2302,16.9
2314,16.68
2326,16.52
2338,16.44
2350,16.42
2362,16.43
2374,16.44
2385,16.48
2396,16.63
2408,16.85
2420,17.02
2432,16.91
2444,16.25
2456,14.98
2468,13.25
2480,11.41
2492,9.8
2504,8.63
2516,7.81
2528,7.05
2540,6.04
2552,4.57
2564,2.67
2575,0.56
2586,-1.53
2598,-3.4
2610,-4.99
2622,-6.39
2634,-7.7
2646,-9.04
2658,-10.51
2670,-12.13
2682,-13.94
2694,-15.95
2706,-18.15
2718,-20.51
2730,-22.92
2742,-25.13
2754,-26.79
2765,-27.56
2776,-27.16
2788,-25.5
2800,-22.66
2812,-18.78
2824,-14.03
2836,-8.63
2848,-2.82
2860,3.03
2872,8.48
2884,13.12
2896,16.63
2908,18.91
2920,20.07
2932,20.31
2944,19.84
2955,18.82
2966,17.35
2978,15.58
2990,13.74
3002,12.12
3014,10.97
3026,10.41
3038,10.38
3050,10.69
3062,11.09
3074,11.37
3086,11.43
3098,11.29
3110,11.0
3122,10.62
3134,10.16
3145,9.57
3156,8.77
3168,7.72
3180,6.44
3192,4.93
3204,3.24
3216,1.4
3228,-0.61
3240,-2.8
3252,-5.15
3264,-7.61
3276,-10.04
3288,-12.32
3300,-14.35
3312,-16.19
3324,-18.0
3335,-19.94
3346,-22.07
3358,-24.24
3370,-26.11
3382,-27.21
3394,-27.12
3406,-25.55
3418,-22.44
3430,-17.9
3442,-12.2
3454,-5.71
3466,1.15
3478,7.89
3490,13.97
3502,18.92
3514,22.45
3525,24.47
3536,25.15
3548,24.85
3560,23.97
3572,22.84
3584,21.66
3596,20.45
3608,19.18
3620,17.86
3632,16.52
3644,15.29
3656,14.28
3668,13.57
3680,13.16
3692,12.97
3704,12.91
3715,12.89
3726,12.82
3738,12.61
3750,12.15
3762,11.37
3774,10.22
3786,8.71
3798,6.96
3810,5.09
3822,3.23
3834,1.4
3846,-0.49
3858,-2.55
3870,-4.89
3882,-7.48
3894,-10.14
3905,-12.61
3916,-14.69
3928,-16.31
3940,-17.58
3952,-18.78
3964,-20.25
3976,-22.17
3988,-24.54
4000,-27.11
4012,-29.39
4024,-30.81
4036,-30.91
4048,-29.41
4060,-26.31
4072,-21.87
4084,-16.47
4095,-10.55
4106,-4.53
4118,1.27
4130,6.54
4142,11.03
4154,14.55
4166,17.0
4178,18.45
4190,19.05
4202,19.04
4214,18.65
4226,18.04
4238,17.26
4250,16.36
4262,15.39
4274,14.44
4285,13.64
4296,13.13
4308,12.98
4320,13.22
4332,13.78
4344,14.57
4356,15.43
4368,16.2
4380,16.72
4392,16.81
4404,16.36
4416,15.33
4428,13.79
4440,11.87
4452,9.72
4464,7.46
4475,5.13
4486,2.75
4498,0.33
4510,-2.08
4522,-4.45
4534,-6.74
4546,-8.95
4558,-11.12
4570,-13.25
4582,-15.25
4594,-17.0
4606,-18.39
4618,-19.42
4630,-20.25
4642,-21.14
4654,-22.29
4665,-23.77
4676,-25.38
4688,-26.79
4700,-27.64
4712,-27.61
4724,-26.48
4736,-24.15
4748,-20.58
4760,-15.82
4772,-10.14
4784,-3.95
4796,2.16
4808,7.63
4820,11.98
4832,15.05
4844,16.87
4855,17.68
4866,17.72
4878,17.21
4890,16.35
4902,15.34
4914,14.36
4926,13.58
4938,13.08
4950,12.87
4962,12.83
4974,12.82
4986,12.69
4998,12.35
5010,11.81
5022,11.15
5034,10.51
5045,9.99
5056,9.63
5068,9.34
5080,8.99
5092,8.43
5104,7.58
5116,6.45
5128,5.06
5140,3.46
5152,1.61
5164,-0.48
5176,-2.8
5188,-5.24
5200,-7.66
5212,-9.96
5224,-12.12
5235,-14.2
5246,-16.29
5258,-18.46
5270,-20.68
5282,-22.83
5294,-24.71
5306,-26.07
5318,-26.64
5330,-26.16
5342,-24.48
5354,-21.46
5366,-17.12
5378,-11.58
5390,-5.12
5402,1.84
5414,8.72
5425,14.9
5436,19.83
5448,23.13
5460,24.73
5472,24.86
5484,23.94
5496,22.47
5508,20.83
5520,19.26
5532,17.8
5544,16.37
5556,14.86
5568,13.24
5580,11.6
5592,10.15
5604,9.09
5615,8.54
5626,8.46
5638,8.67
5650,8.95
5662,9.13
5674,9.13
5686,8.92
5698,8.46
5710,7.68
5722,6.51
5734,4.93
5746,3.01
5758,0.9
5770,-1.21
5782,-3.19
5794,-5.02
5805,-6.81
5816,-8.74
5828,-10.93
5840,-13.38
5852,-15.98
5864,-18.5
5876,-20.68
5888,-22.48
5900,-23.97
5912,-25.36
5924,-26.8
5936,-28.27
5948,-29.5
5960,-30.08
5972,-29.59
5984,-27.68
5995,-24.28
6006,-19.48
6018,-13.54
6030,-6.83
6042,0.17
6054,6.96
6066,12.95
6078,17.68
6090,20.84
6102,22.44
6114,22.76
6126,22.3
6138,21.48
6150,20.61
6162,19.68
6174,18.51
6185,16.93
6196,14.89
6208,12.58
6220,10.4
6232,8.72
6244,7.78
6256,7.64
6268,8.14
6280,9.01
6292,9.95
6304,10.73
6316,11.1
6328,10.93
6340,10.18
6352,8.88
6364,7.17
6375,5.21
6386,3.17
6398,1.14
6410,-0.91
6422,-3.02
6434,-5.24
6446,-7.54
6458,-9.83
6470,-11.97
6482,-13.86
6494,-15.48
6506,-16.89
6518,-18.27
6530,-19.83
6542,-21.71
6554,-23.9
6565,-26.2
6576,-28.24
6588,-29.62
6600,-29.99
6612,-29.08
6624,-26.76
6636,-22.98
6648,-17.79
6660,-11.41
6672,-4.26
6684,3.02
6696,9.65
6708,14.95
6720,18.51
6732,20.28
6744,20.55
6755,19.77
6766,18.37
6778,16.69
6790,14.94
6802,13.24
6814,11.71
6826,10.41
6838,9.41
6850,8.71
6862,8.25
6874,7.94
6886,7.7
6898,7.5
6910,7.39
6922,7.46
6934,7.73
6945,8.1
6956,8.32
6968,8.1
6980,7.23
6992,5.7
7004,3.66
7016,1.38
7028,-0.89
7040,-3.0
7052,-4.94
7064,-6.69
7076,-8.28
7088,-9.72
7100,-11.08
7112,-12.48
7124,-14.05
7135,-15.85
7146,-17.7
7158,-19.29
7170,-20.15
7182,-19.82
7194,-17.99
7206,-14.55
7218,-9.63
7230,-3.58
7242,3.07
7254,9.69
7266,15.63
7278,20.36
7290,23.52
7302,25.02
7314,25.0
7325,23.78
7336,21.74
7348,19.3
7360,16.79
7372,14.45
7384,12.41
7396,10.66
7408,9.11
7420,7.68
7432,6.33
7444,5.09
7456,4.08
7468,3.4
7480,3.07
7492,2.97
7504,2.89
7515,2.55
7526,1.72
7538,0.34
7550,-1.59
7562,-3.92
7574,-6.41
7586,-8.86
7598,-11.13
7610,-13.14
7622,-14.94
7634,-16.66
7646,-18.5
7658,-20.65
7670,-23.23
7682,-26.17
7694,-29.14
7705,-31.63
7716,-33.01
7728,-32.69
7740,-30.33
7752,-25.96
7764,-19.94
7776,-12.93
7788,-5.65
7800,1.23
7812,7.28
7824,12.24
7836,16.02
7848,18.62
7860,20.07
7872,20.51
7884,20.12
7895,19.14
7906,17.81
7918,16.29
7930,14.67
7942,12.96
7954,11.17
7966,9.37
7978,7.75
7990,6.53
8002,5.85
8014,5.69
8026,5.84
8038,5.99
8050,5.85
8062,5.21
8074,4.02
8085,2.3
8096,0.13
8108,-2.35
8120,-4.95
8132,-7.52
8144,-9.92
8156,-12.13
8168,-14.26
8180,-16.48
8192,-18.86
8204,-21.24
8216,-23.26
8228,-24.4
8240,-24.19
8252,-22.37
8264,-18.92
8275,-14.06
8286,-8.17
8298,-1.77
8310,4.61
8322,10.48
8334,15.44
8346,19.28
8358,21.95
8370,23.54
8382,24.2
8394,24.07
8406,23.26
8418,21.84
8430,19.9
8442,17.54
8454,14.89
8465,12.14
8476,9.49
8488,7.12
8500,5.14
8512,3.57
8524,2.32
8536,1.23
8548,0.16
8560,-0.96
8572,-2.11
8584,-3.27
8596,-4.42
8608,-5.62
8620,-6.91
8632,-8.38
8644,-10.06
8655,-11.98
8666,-14.15
8678,-16.53
8690,-19.01
8702,-21.35
8714,-23.17
8726,-23.98
8738,-23.28
8750,-20.75
8762,-16.3
8774,-10.21
8786,-3.02
8798,4.54
8810,11.71
8822,17.81
8834,22.42
8845,25.33
8856,26.56
8868,26.3
8880,24.84
8892,22.47
8904,19.42
8916,15.87
8928,11.95
8940,7.89
8952,3.96
8964,0.5
8976,-2.18
8988,-4.0
9000,-5.13
9012,-5.93
9024,-6.79
9035,-7.98
9046,-9.5
9058,-11.26
9070,-13.19
9082,-15.38
9094,-18.04
9106,-21.39
9118,-25.42
9130,-29.92
9142,-34.5
9154,-38.75
9166,-42.38
9178,-45.23
9190,-47.3
9202,-48.69
9214,-49.55
9225,-50.05
9236,-50.22
9248,-49.79
9260,-48.2
9272,-44.69
9284,-38.51
9296,-29.22
9308,-16.83
9320,-1.84
9332,14.88
9344,32.13
9356,48.48
9368,62.41
9380,72.57
9392,78.24
9404,79.59
9415,77.69
9426,74.16
9438,70.48
9450,67.38
9462,64.68
9474,61.61
9486,57.48
9498,52.26
9510,46.59
9522,41.45
9534,37.53
9546,34.8
9558,32.58
9570,30.01
9582,26.61
9594,22.54
9605,18.34
9616,14.51
9628,11.15
9640,7.83
9652,4.04
9664,-0.54
9676,-5.69
9688,-10.75
9700,-14.87
9712,-17.42
9724,-18.15
9736,-17.16
9748,-14.89
9760,-11.99
9772,-9.21
9784,-7.22
9795,-6.37
9806,-6.38
9818,-6.25
9830,-4.49
9842,0.41
9854,9.27
9866,21.85
9878,36.88
9890,52.45
9902,66.7
9914,78.23
9926,86.27
9938,90.59
9950,91.48
9962,89.7
9974,86.49
9985,83.41
9996,81.8
10008,82.26
10020,84.2
10032,86.09
10044,86.2
10056,83.47
10068,78.12
10080,71.3
10092,64.26
10104,57.54
10116,50.84
10128,43.66
10140,36.19
10152,29.63
10164,25.55
10175,24.9
10186,27.31
10198,31.36
10210,35.72
10222,40.04
10234,44.87
10246,50.5
10258,55.84
10270,58.43
10282,55.85
10294,47.5
10306,35.32
10318,22.72
10330,12.39
10342,4.51
10354,-3.3
10365,-14.1
10376,-29.31
10388,-47.56
10400,-65.28
10412,-78.74
10424,-85.89
10436,-87.21
10448,-84.98
10460,-82.0
10472,-80.56
10484,-82.13
10496,-87.45
10508,-96.69
10520,-109.22
10532,-123.37
10544,-136.79
10555,-146.95
10566,-152.01
10578,-151.42
10590,-145.92
10602,-137.08
10614,-126.55
10626,-115.59
10638,-104.99
10650,-95.3
10662,-87.01
10674,-80.44
10686,-75.46
10698,-71.2
10710,-66.19
10722,-59.11
10734,-49.57
10745,-38.65
10756,-28.41
10768,-20.91
10780,-17.12
10792,-16.56
10804,-17.67
10816,-18.91
10828,-19.54
10840,-19.84
10852,-20.66
10864,-22.72
10876,-26.19
10888,-30.79
10900,-36.13
10912,-41.8
10924,-47.2
10935,-51.25
10946,-52.49
10958,-49.63
10970,-42.4
10982,-32.03
10994,-20.95
11006,-11.76
11018,-6.01
11030,-3.57
11042,-2.93
11054,-2.12
11066,0.12
11078,3.8
11090,7.89
11102,11.11
11114,12.56
11125,12.22
11136,10.67
11148,8.74
11160,7.11
11172,6.11
11184,5.69
11196,5.61
11208,5.56
11220,5.19
11232,4.33
11244,2.97
11256,1.41
11268,0.14
11280,-0.26
11292,0.66
11304,3.0
11315,6.45
11326,10.25
11338,13.43
11350,15.1
11362,14.81
11374,12.7
11386,9.5
11398,6.18
11410,3.59
11422,2.28
11434,2.47
11446,4.21
11458,7.49
11470,12.14
11482,17.73
11494,23.45
11505,28.47
11516,32.36
11528,35.36
11540,38.21
11552,41.63
11564,45.67
11576,49.49
11588,51.81
11600,51.62
11612,48.8
11624,44.21
11636,39.07
11648,34.3
11660,30.18
11672,26.47
11684,22.89
11695,19.48
11706,16.53
11718,14.31
11730,12.7
11742,11.13
11754,8.89
11766,5.55
11778,1.12
11790,-4.01
11802,-9.37
11814,-14.76
11826,-20.22
11838,-25.97
11850,-32.07
11862,-38.15
11874,-43.46
11885,-46.99
11896,-47.85
11908,-45.57
11920,-40.39
11932,-33.24
11944,-25.56
11956,-18.88
11968,-14.37
11980,-12.47
11992,-12.88
12004,-14.73
12016,-16.98
12028,-18.82
12040,-19.91
12052,-20.33
12064,-20.42
12075,-20.49
12086,-20.65
12098,-20.83
12110,-20.85
12122,-20.65
12134,-20.32
12146,-20.14
12158,-20.38
12170,-21.24
12182,-22.66
12194,-24.35
12206,-25.84
12218,-26.6
12230,-26.09
12242,-23.96
12254,-20.09
12265,-14.6
12276,-7.93
12288,-0.62
12300,6.74
12312,13.63
12324,19.71
12336,24.76
12348,28.69
12360,31.44
12372,33.04
12384,33.56
12396,33.15
12408,32.02
12420,30.46
12432,28.78
12444,27.31
12455,26.24
12466,25.7
12478,25.62
12490,25.87
12502,26.34
12514,27.04
12526,28.06
12538,29.51
12550,31.3
12562,33.05
12574,34.21
12586,34.26
12598,32.92
12610,30.42
12622,27.25
12634,24.08
12645,21.37
12656,19.24
12668,17.46
12680,15.64
12692,13.44
12704,10.73
12716,7.67
12728,4.62
12740,1.99
12752,0.03
12764,-1.24
12776,-2.04
12788,-2.78
12800,-3.84
12812,-5.42
12824,-7.43
12835,-9.62
12846,-11.66
12858,-13.36
12870,-14.72
12882,-15.89
12894,-17.1
12906,-18.54
12918,-20.29
12930,-22.34
12942,-24.54
12954,-26.72
12966,-28.59
12978,-29.8
12990,-29.92
13002,-28.55
13014,-25.38
13025,-20.36
13036,-13.74
13048,-6.07
13060,1.88
13072,9.32
13084,15.57
13096,20.2
13108,22.98
13120,23.93
13132,23.27
13144,21.43
13156,18.94
13168,16.41
13180,14.31
13192,12.89
13204,12.06
13215,11.5
13226,10.84
13238,9.88
13250,8.65
13262,7.43
13274,6.61
13286,6.46
13298,7.02
13310,8.09
13322,9.33
13334,10.43
13346,11.24
13358,11.79
13370,12.23
13382,12.64
13394,12.97
13405,12.98
13416,12.42
13428,11.07
13440,8.93
13452,6.1
13464,2.83
13476,-0.64
13488,-4.09
13500,-7.33
13512,-10.22
13524,-12.71
13536,-14.89
13548,-16.93
13560,-19.07
13572,-21.46
13584,-24.08
13595,-26.77
13606,-29.24
13618,-31.18
13630,-32.31
13642,-32.39
13654,-31.19
13666,-28.6
13678,-24.71
13690,-19.77
13702,-14.22
13714,-8.52
13726,-3.01
13738,2.15
13750,6.92
13762,11.25
13774,15.12
13785,18.4
13796,21.03
13808,23.04
13820,24.63
13832,26.1
13844,27.72
13856,29.51
13868,31.23
13880,32.48
13892,32.91
13904,32.53
13916,31.66
13928,30.86
13940,30.58
13952,30.85
13964,31.23
13975,31.07
13986,29.89
13998,27.82
14010,25.55
14022,24.05
14034,23.93
14046,25.17
14058,26.97
14070,28.27
14082,28.28
14094,26.9
14106,24.62
14118,22.08
14130,19.63
14142,17.08
14154,14.04
14165,10.36
14176,6.44
14188,3.05
14200,0.99
14212,0.53
14224,1.58
14236,3.87
14248,7.47
14260,12.86
14272,20.67
14284,31.05
14296,43.3
14308,56.07
14320,68.06
14332,78.76
14344,88.83
14355,99.84
14366,113.41
14378,130.4
14390,150.14
14402,170.47
14414,188.19
14426,200.22
14438,204.69
14450,201.54
14462,192.4
14474,179.67
14486,165.2
14498,149.32
14510,130.77
14522,107.69
14534,79.03
14545,45.68
14556,10.84
14568,-20.76
14580,-44.16
14592,-55.89
14604,-55.03
14616,-43.45
14628,-25.24
14640,-5.31
14652,12.28
14664,25.66
14676,35.35
14688,43.62
14700,52.98
14712,64.9
14724,79.21
14735,94.31
14746,108.01
14758,118.39
14770,124.31
14782,125.48
14794,122.03
14806,114.43
14818,103.39
14830,89.8
14842,74.5
14854,58.27
14866,42.0
14878,26.58
14890,12.79
14902,0.81
14914,-10.01
14925,-20.91
14936,-33.09
14948,-46.99
14960,-61.87
14972,-76.29
14984,-89.21
14996,-100.75
15008,-112.43
15020,-125.88
15032,-141.66
15044,-158.67
15056,-174.74
15068,-187.88
15080,-197.03
15092,-202.36
15104,-204.25
15115,-203.26
15126,-198.99
15138,-190.84
15150,-179.14
15162,-165.83
15174,-153.88
15186,-145.37
15198,-141.11
15210,-139.78
15222,-140.8
15234,-143.59
15246,-148.36
15258,-155.96
15270,-166.95
15282,-180.95
15294,-195.47
15305,-208.75
15316,-219.6
15328,-230.83
15340,-245.23
15352,-264.09
15364,-286.5
15376,-310.0
15388,-332.52
15400,-352.05
15412,-370.15
15424,-388.93
15436,-413.1
15448,-444.4
15460,-480.95
15472,-518.41
15484,-551.61
15495,-576.89
15506,-591.21
15518,-596.97
15530,-573.04
15542,-509.54
15554,-407.68
15566,-279.92
15578,-143.56
15590,-12.22
15602,93.42
15614,176.25
15626,239.86
15638,285.82
15650,311.35
15662,316.57
15674,308.28
15685,294.6
15696,283.5
15708,279.56
15720,285.33
15732,298.07
15744,314.79
15756,331.29
15768,345.56
15780,357.03
15792,365.02
15804,368.75
15816,367.26
15828,362.0
15840,353.56
15852,342.76
15864,327.72
15875,305.48
15886,273.18
15898,229.9
15910,178.66
15922,125.81
15934,79.69
15946,45.21
15958,22.84
15970,8.02
15982,-5.42
15994,-22.05
16006,-42.93
16018,-65.39
16030,-85.25
16042,-98.67
16054,-104.65
16065,-104.32
16076,-100.08
16088,-94.01
16100,-87.26
16112,-80.39
16124,-73.64
16136,-67.26
16148,-61.28
16160,-55.57
16172,-49.72
16184,-43.15
16196,-35.41
16208,-26.29
16220,-15.73
16232,-3.58
16244,10.19
16255,25.1
16266,40.12
16278,53.67
16290,64.27
16302,71.13
16314,74.61
16326,76.07
16338,77.27
16350,79.59
16362,83.56
16374,88.64
16386,93.49
16398,96.67
16410,97.11
16422,94.46
16434,89.14
16445,82.07
16456,74.2
16468,66.02
16480,57.52
16492,48.37
16504,38.4
16516,27.95
16528,17.97
16540,9.61
16552,3.66
16564,0.08
16576,-2.04
16588,-4.03
16600,-6.94
16612,-11.02
16624,-15.72
16635,-20.24
16646,-24.0
16658,-27.04
16670,-29.89
16682,-33.04
16694,-36.37
16706,-39.03
16718,-39.77
16730,-37.63
16742,-32.52
16754,-25.35
16766,-17.66
16778,-11.06
16790,-6.55
16802,-4.33
16814,-4.0
16825,-4.93
16836,-6.5
16848,-7.98
16860,-8.5
16872,-6.76
16884,-1.45
16896,8.26
16908,22.17
16920,38.94
16932,56.63
16944,73.6
16956,89.19
16968,103.84
16980,118.52
16992,133.77
17004,148.91
17015,161.78
17026,169.43
17038,169.31
17050,160.46
17062,144.18
17074,123.72
17086,103.04
17098,85.27
17110,71.57
17122,60.97
17134,51.3
17146,40.71
17158,28.77
17170,16.62
17182,6.22
17194,-0.94
17205,-4.68
17216,-6.12
17228,-6.87
17240,-8.23
17252,-10.6
17264,-13.51
17276,-16.13
17288,-17.74
17300,-17.98
17312,-16.89
17324,-14.68
17336,-11.58
17348,-7.85
17360,-3.76
17372,0.4
17384,4.34
17395,7.7
17406,10.11
17418,11.19
17430,10.66
17442,8.44
17454,4.76
17466,0.15
17478,-4.69
17490,-9.1
17502,-12.64
17514,-15.27
17526,-17.31
17538,-19.17
17550,-21.16
17562,-23.29
17574,-25.35
17585,-26.95
17596,-27.79
17608,-27.72
17620,-26.89
17632,-25.58
17644,-24.12
17656,-22.81
17668,-21.83
17680,-21.23
17692,-20.94
17704,-20.86
17716,-20.82
17728,-20.72
17740,-20.6
17752,-20.67
17764,-21.23
17775,-22.53
17786,-24.57
17798,-27.02
17810,-29.41
17822,-31.28
17834,-32.46
17846,-33.1
17858,-33.59
17870,-34.36
17882,-35.72
17894,-37.78
17906,-40.47
17918,-43.57
17930,-46.78
17942,-49.54
17954,-51.13
17965,-50.76
17976,-47.77
17988,-41.93
18000,-33.55
18012,-23.38
18024,-12.49
18036,-1.9
18048,7.62
18060,15.59
18072,21.8
18084,26.23
18096,29.01
18108,30.36
18120,30.65
18132,30.24
18144,29.52
18155,28.81
18166,28.25
18178,27.82
18190,27.43
18202,26.96
18214,26.36
18226,25.67
18238,24.99
18250,24.41
18262,23.96
18274,23.54
18286,23.03
18298,22.37
18310,21.5
18322,20.44
18334,19.19
18345,17.65
18356,15.73
18368,13.37
18380,10.6
18392,7.65
18404,4.78
18416,2.18
18428,-0.11
18440,-2.2
18452,-4.25
18464,-6.34
18476,-8.44
18488,-10.49
18500,-12.52
18512,-14.63
18524,-17.03
18535,-19.79
18546,-22.83
18558,-25.95
18570,-28.91
18582,-31.55
18594,-33.79
18606,-35.52
18618,-36.53
18630,-36.42
18642,-34.75
18654,-31.19
18666,-25.78
18678,-18.92
18690,-11.29
18702,-3.61
18714,3.54
18725,9.82
18736,15.09
18748,19.28
18760,22.39
18772,24.43
18784,25.45
18796,25.54
18808,24.93
18820,23.84
18832,22.56
18844,21.35
18856,20.36
18868,19.71
18880,19.37
18892,19.31
18904,19.44
18915,19.66
18926,19.84
18938,19.88
18950,19.72
18962,19.32
18974,18.67
18986,17.79
18998,16.64
19010,15.18
19022,13.38
19034,11.23
19046,8.77
19058,6.13
19070,3.46
19082,0.9
19094,-1.46
19105,-3.62
19116,-5.75
19128,-8.05
19140,-10.73
19152,-13.84
19164,-17.25
19176,-20.64
19188,-23.66
19200,-26.02
19212,-27.7
19224,-28.92
19236,-30.1
19248,-31.65
19260,-33.82
19272,-36.58
19284,-39.65
19295,-42.6
19306,-44.95
19318,-46.39
19330,-46.68
19342,-45.69
19354,-43.29
19366,-39.29
19378,-33.51
19390,-26.0
19402,-17.13
19414,-7.71
19426,1.12
19438,8.3
19450,13.06
19462,15.14
19474,14.73
19485,12.25
19496,8.15
19508,2.97
19520,-2.6
19532,-7.75
19544,-11.55
19556,-13.28
19568,-12.63
19580,-9.51
19592,-3.8
19604,4.89
19616,17.18
19628,33.73
19640,54.79
19652,79.85
19664,107.46
19675,135.46
19686,161.47
19698,183.53
19710,200.37
19722,211.39
19734,216.19
19746,213.99
19758,203.53
19770,183.38
19782,152.88
19794,112.97
19806,66.67
19818,18.82
19830,-24.84
19842,-58.95
19854,-79.71
19865,-85.34
19876,-76.2
19888,-54.33
19900,-23.07
19912,13.41
19924,50.95
19936,85.92
19948,115.79
19960,139.06
19972,155.07
19984,163.6
19996,164.85
20008,159.49
20020,148.79
20032,134.55
20044,118.64
20055,102.62
20066,87.57
20078,74.29
20090,63.41
20102,55.51
20114,50.96
20126,49.39
20138,49.76
20150,50.44
20162,49.95
20174,47.34
20186,42.31
20198,34.96
20210,25.56
20222,14.7
20234,3.37
20245,-7.16
20256,-16.07
20268,-23.94
20280,-33.1
20292,-46.63
20304,-66.47
20316,-91.71
20328,-118.25
20340,-140.46
20352,-153.84
20364,-157.25
20376,-153.22
20388,-146.28
20400,-140.37
20412,-136.86
20424,-134.56
20435,-131.12
20446,-124.99
20458,-116.46
20470,-107.37
20482,-99.77
20494,-94.63
20506,-91.48
20518,-88.86
20530,-85.33
20542,-80.18
20554,-73.59
20566,-66.16
20578,-58.46
20590,-51.06
20602,-44.99
20614,-42.0
20625,-44.36
20636,-53.71
20648,-69.71
20660,-89.57
20672,-108.8
20684,-123.16
20696,-130.54
20708,-131.68
20720,-129.16
20732,-125.54
20744,-121.61
20756,-116.2
20768,-107.41
20780,-94.39
20792,-78.37
20804,-62.24
20815,-48.74
20826,-38.92
20838,-31.71
20850,-24.84
20862,-16.47
20874,-6.33
20886,4.17
20898,13.04
20910,19.0
20922,22.39
20934,24.9
20946,28.65
20958,35.03
20970,44.06
20982,54.39
20994,64.07
