seconds,BVP
9,-7.61
21,1.84
33,12.44
45,23.08
57,32.95
69,41.64
80,49.6
91,57.27
103,64.57
115,70.75
127,75.0
139,76.95
151,76.67
163,74.75
175,71.97
187,69.56
199,68.32
211,68.23
223,68.68
235,69.07
247,68.87
259,66.98
270,61.41
281,46.36
293,19.46
305,-15.9
317,-51.86
329,-81.11
341,-99.73
353,-107.46
365,-106.7
377,-100.99
389,-93.63
401,-86.26
413,-79.55
425,-73.76
437,-69.46
449,-66.78
460,-65.25
471,-64.21
483,-63.17
495,-62.01
507,-60.46
519,-58.44
531,-55.98
543,-53.54
555,-50.89
567,-46.88
579,-39.62
591,-27.08
603,-7.93
615,17.71
627,47.48
639,77.85
650,103.91
661,122.14
673,131.54
685,133.53
697,130.69
709,125.53
721,119.69
733,111.59
745,101.33
757,86.71
769,65.39
781,36.46
793,1.67
805,-34.34
817,-65.09
829,-84.49
840,-89.48
851,-81.09
863,-64.71
875,-46.92
887,-32.68
899,-23.7
911,-18.69
923,-15.25
935,-11.84
947,-8.81
959,-7.48
971,-9.32
983,-13.99
995,-19.31
1007,-22.3
1019,-20.72
1030,-14.52
1041,-5.89
1053,1.75
1065,5.81
1077,5.53
1089,2.52
1101,-0.2
1113,0.03
1125,4.09
1137,10.59
1149,16.85
1161,20.37
1173,20.18
1185,16.99
1197,12.84
1209,9.93
1220,9.54
1231,11.59
1243,14.71
1255,17.22
1267,18.08
1279,17.29
1291,15.63
1303,14.29
1315,14.08
1327,15.16
1339,17.11
1351,18.83
1363,19.3
1375,17.97
1387,14.83
1399,10.23
1410,5.03
1421,-0.06
1433,-4.38
1445,-7.55
1457,-10.19
1469,-13.14
1481,-17.27
1493,-22.56
1505,-28.93
1517,-35.78
1529,-42.73
1541,-49.45
1553,-55.84
1565,-62.71
1577,-70.6
1589,-79.38
1600,-88.16
1611,-95.95
1623,-101.89
1635,-106.47
1647,-110.81
1659,-112.1
1671,-108.72
1683,-100.14
1695,-86.93
1707,-69.8
1719,-51.18
1731,-29.65
1743,-4.86
1755,22.6
1767,51.91
1779,79.93
1790,103.52
1801,120.41
1813,129.58
1825,131.24
1837,126.98
1849,118.46
1861,107.46
1873,95.52
1885,83.07
1897,70.31
1909,57.43
1921,44.86
1933,33.16
1945,23.21
1957,15.3
1969,9.48
1980,5.5
1991,2.53
2003,-0.09
2015,-2.66
2027,-5.05
2039,-6.89
2051,-7.67
2063,-7.42
2075,-6.44
2087,-5.26
2099,-4.56
2111,-4.73
2123,-5.84
2135,-7.63
2147,-9.81
2159,-12.13
2170,-14.67
2181,-17.62
2193,-21.07
2205,-24.9
2217,-28.56
2229,-31.25
2241,-32.25
2253,-31.28
2265,-28.64
2277,-25.16
2289,-21.79
2301,-19.16
2313,-17.37
2325,-15.99
2337,-14.42
2349,-12.17
2360,-9.2
2371,-5.85
2383,-2.66
2395,-0.14
2407,1.46
2419,2.2
2431,2.44
2443,2.62
2455,3.06
2467,3.84
2479,4.77
2491,5.54
2503,5.89
2515,5.75
2527,5.21
2539,4.49
2550,3.72
2561,2.94
2573,2.05
2585,0.88
2597,-0.71
2609,-2.78
2621,-5.28
2633,-8.11
2645,-11.03
2657,-13.8
2669,-16.1
2681,-17.7
2693,-18.51
2705,-18.57
2717,-18.06
2729,-17.2
2740,-16.24
2751,-15.38
2763,-14.84
2775,-14.71
2787,-15.01
2799,-15.51
2811,-15.77
2823,-15.25
2835,-13.47
2847,-10.23
2859,-5.64
2871,-0.12
2883,5.77
2895,11.51
2907,16.71
2919,21.13
2930,24.65
2941,27.25
2953,28.97
2965,29.93
2977,30.24
2989,30.05
3001,29.48
3013,28.69
3025,27.87
3037,27.19
3049,26.75
3061,26.44
3073,25.98
3085,24.98
3097,23.18
3109,20.54
3120,17.34
3131,14.03
3143,10.97
3155,8.27
3167,5.76
3179,3.18
3191,0.38
3203,-2.58
3215,-5.42
3227,-7.9
3239,-9.94
3251,-11.77
3263,-13.79
3275,-16.44
3287,-20.0
3299,-24.53
3310,-29.86
3321,-35.63
3333,-41.29
3345,-46.15
3357,-49.47
3369,-50.6
3381,-49.19
3393,-45.31
3405,-39.41
3417,-32.21
3429,-24.46
3441,-16.76
3453,-9.39
3465,-2.39
3477,4.3
3489,10.72
3500,16.85
3511,22.75
3523,28.53
3535,34.47
3547,40.85
3559,47.92
3571,55.65
3583,63.69
3595,71.42
3607,78.08
3619,83.1
3631,86.06
3643,86.73
3655,84.98
3667,80.87
3679,74.62
3690,66.71
3701,57.77
3713,48.55
3725,39.98
3737,32.64
3749,26.58
3761,21.36
3773,16.43
3785,11.5
3797,6.53
3809,1.76
3821,-2.47
3833,-5.31
3845,-6.24
3857,-5.36
3869,-3.23
3880,-0.46
3891,2.67
3903,6.12
3915,10.0
3927,14.47
3939,20.49
3951,28.53
3963,38.03
3975,47.5
3987,55.27
3999,60.29
4011,62.25
4023,61.64
4035,59.47
4047,57.97
4059,58.69
4070,61.68
4081,65.72
4093,69.23
4105,70.95
4117,69.63
4129,63.71
4141,45.33
4153,11.57
4165,-32.83
4177,-77.52
4189,-113.34
4201,-136.26
4213,-146.84
4225,-148.11
4237,-143.79
4249,-136.85
4260,-127.96
4271,-117.21
4283,-105.36
4295,-94.15
4307,-85.49
4319,-80.54
4331,-79.42
4343,-81.16
4355,-83.87
4367,-84.25
4379,-79.31
4391,-67.71
4403,-50.5
4415,-30.78
4427,-12.59
4439,0.53
4450,6.99
4461,7.89
4473,6.84
4485,7.44
4497,11.13
4509,16.49
4521,20.51
4533,20.77
4545,16.99
4557,11.1
4569,6.29
4581,5.18
4593,8.97
4605,17.3
4617,28.57
4629,40.8
4640,51.79
4651,59.02
4663,59.94
4675,52.68
4687,37.4
4699,16.67
4711,-5.1
4723,-23.25
4735,-34.24
4747,-36.38
4759,-29.92
4771,-16.79
4783,-0.17
4795,15.81
4807,26.76
4819,30.36
4830,27.15
4841,20.39
4853,14.54
4865,12.97
4877,16.38
4889,22.79
4901,28.93
4913,32.26
4925,31.94
4937,28.31
4949,21.83
4961,12.41
4973,-0.37
4985,-16.1
4997,-32.78
5009,-47.42
5020,-56.89
5031,-59.56
5043,-55.92
5055,-48.36
5067,-39.68
5079,-31.9
5091,-25.68
5103,-20.57
5115,-15.65
5127,-10.26
5139,-4.29
5151,1.77
5163,7.11
5175,11.1
5187,13.6
5199,14.79
5210,15.11
5221,14.99
5233,14.8
5245,14.63
5257,14.31
5269,13.45
5281,11.73
5293,9.23
5305,6.26
5317,3.48
5329,1.64
5341,1.4
5353,2.95
5365,6.14
5377,9.66
5389,11.9
5400,11.84
5411,9.24
5423,4.67
5435,-0.91
5447,-6.65
5459,-11.99
5471,-16.65
5483,-20.4
5495,-23.36
5507,-24.86
5519,-24.54
5531,-22.65
5543,-19.85
5555,-16.93
5567,-14.4
5579,-12.29
5590,-10.41
5601,-8.48
5613,-6.3
5625,-4.08
5637,-2.18
5649,-0.9
5661,-0.33
5673,-0.35
5685,-0.57
5697,-0.85
5709,-1.14
5721,-1.35
5733,-1.48
5745,-1.44
5757,-1.14
5769,-0.5
5780,0.52
5791,1.8
5803,3.08
5815,4.05
5827,4.54
5839,4.53
5851,4.19
5863,3.81
5875,3.69
5887,4.11
5899,5.13
5911,6.48
5923,7.8
5935,8.81
5947,9.5
5959,10.14
5970,11.1
5981,12.78
5993,15.44
6005,18.94
6017,22.64
6029,25.55
6041,26.86
6053,26.25
6065,24.02
6077,21.0
6089,18.16
6101,16.4
6113,16.07
6125,16.86
6137,18.01
6149,18.73
6160,18.34
6171,15.91
6183,9.97
6195,-1.67
6207,-19.64
6219,-41.44
6231,-61.97
6243,-76.24
6255,-81.5
6267,-77.71
6279,-67.15
6291,-53.36
6303,-39.76
6315,-28.46
6327,-20.12
6339,-14.23
6350,-9.86
6361,-6.04
6373,-2.03
6385,2.34
6397,6.77
6409,10.79
6421,14.39
6433,18.14
6445,22.89
6457,29.1
6469,36.18
6481,42.5
6493,46.21
6505,46.84
6517,46.07
6529,47.61
6540,53.64
6551,63.63
6563,73.53
6575,77.36
6587,70.4
6599,52.05
6611,26.49
6623,0.75
6635,-18.87
6647,-29.71
6659,-33.3
6671,-33.4
6683,-33.13
6695,-33.21
6707,-32.12
6719,-27.93
6730,-20.13
6741,-10.37
6753,-1.64
6765,3.34
6777,3.72
6789,0.66
6801,-3.56
6813,-6.68
6825,-7.69
6837,-7.01
6849,-6.22
6861,-5.94
6873,-6.88
6885,-8.82
6897,-10.76
6909,-11.48
6920,-10.07
6931,-6.35
6943,-0.88
6955,5.24
6967,10.97
6979,15.52
6991,19.18
7003,22.93
7015,27.68
7027,33.72
7039,40.51
7051,46.82
7063,51.21
7075,52.57
7087,50.25
7099,44.86
7110,37.27
7121,27.39
7133,14.09
7145,-3.96
7157,-27.22
7169,-54.77
7181,-84.17
7193,-112.32
7205,-135.24
7217,-149.69
7229,-154.82
7241,-152.09
7253,-144.12
7265,-133.66
7277,-123.21
7289,-114.5
7300,-108.64
7311,-104.35
7323,-98.65
7335,-88.45
7347,-71.1
7359,-44.44
7371,-7.44
7383,38.8
7395,91.91
7407,139.52
7419,168.9
7431,177.11
7443,170.23
7455,156.56
7467,142.39
7479,130.77
7490,121.36
7501,112.18
7513,100.29
7525,84.59
7537,65.74
7549,44.79
7561,22.74
7573,0.68
7585,-20.35
7597,-40.75
7609,-59.99
7621,-77.13
7633,-90.06
7645,-96.8
7657,-97.24
7669,-93.19
7680,-87.31
7691,-79.18
7703,-71.19
7715,-63.85
7727,-56.68
7739,-48.4
7751,-38.02
7763,-25.69
7775,-12.29
7787,1.19
7799,13.9
7811,24.71
7823,33.36
7835,39.78
7847,44.33
7859,48.23
7870,51.63
7881,54.37
7893,56.08
7905,56.39
7917,54.82
7929,51.69
7941,47.35
7953,42.21
7965,36.64
7977,30.85
7989,25.3
8001,20.57
8013,17.27
8025,15.52
8037,15.34
8049,16.26
8060,17.49
8071,18.38
8083,18.57
8095,18.22
8107,17.71
8119,17.44
8131,17.08
8143,16.65
8155,16.15
8167,15.63
8179,15.3
8191,15.43
8203,16.36
8215,18.29
8227,21.12
8239,24.52
8250,28.17
8261,31.82
8273,35.43
8285,39.22
8297,43.52
8309,48.5
8321,54.18
8333,60.43
8345,66.88
8357,73.06
8369,78.56
8381,83.28
8393,87.65
8405,92.54
8417,98.94
8429,107.58
8440,118.43
8451,130.03
8463,139.45
8475,142.83
8487,136.58
8499,118.49
8511,88.49
8523,48.4
8535,2.06
8547,-45.43
8559,-88.85
8571,-124.07
8583,-148.64
8595,-162.19
8607,-166.22
8619,-163.42
8630,-157.43
8641,-150.37
8653,-142.39
8665,-132.77
8677,-121.25
8689,-108.55
8701,-96.01
8713,-84.89
8725,-75.7
8737,-69.69
8749,-66.15
8761,-62.91
8773,-58.48
8785,-53.45
8797,-49.86
8809,-49.94
8820,-55.12
8831,-65.56
8843,-82.85
8855,-105.24
8867,-127.93
8879,-146.27
8891,-158.67
8903,-166.52
8915,-172.76
8927,-180.26
8939,-190.6
8951,-206.76
8963,-226.65
8975,-243.41
8987,-249.94
8999,-242.92
9010,-223.0
9021,-193.02
9033,-156.22
9045,-93.42
9057,-7.67
9069,79.48
9081,147.93
9093,192.84
9105,219.38
9117,234.12
9129,241.22
9141,241.77
9153,234.29
9165,212.9
9177,176.1
9189,129.31
9200,82.38
9211,45.25
9223,25.01
9235,23.77
9247,37.91
9259,59.18
9271,75.47
9283,79.69
9295,72.4
9307,59.0
9319,45.19
9331,34.5
9343,27.25
9355,22.25
9367,18.02
9379,12.24
9390,5.31
9401,-0.01
9413,-1.16
9425,2.03
9437,7.45
9449,12.1
9461,13.5
9473,10.61
9485,3.26
9497,-6.8
9509,-16.7
9521,-24.12
9533,-28.38
9545,-30.42
9557,-31.97
9569,-34.62
9580,-39.11
9591,-45.31
9603,-51.99
9615,-56.72
9627,-57.74
9639,-54.31
9651,-46.84
9663,-36.46
9675,-24.52
9687,-11.89
9699,1.04
9711,14.07
9723,26.76
9735,38.19
9747,47.47
9759,53.77
9770,56.69
9781,56.32
9793,53.88
9805,50.91
9817,48.76
9829,47.99
9841,48.32
9853,49.63
9865,51.36
9877,52.63
9889,52.04
9901,49.31
9913,44.69
9925,38.84
9937,32.49
9949,26.37
9960,22.2
9971,20.98
9983,22.43
9995,24.5
10007,26.17
10019,27.07
10031,27.64
10043,28.59
10055,30.76
10067,36.04
10079,45.14
10091,56.94
10103,68.21
10115,77.36
10127,83.96
10139,88.81
10150,93.0
10161,89.37
10173,75.25
10185,53.22
10197,34.74
10209,18.98
10221,3.97
10233,-13.04
10245,-30.89
10257,-47.11
10269,-59.31
10281,-64.96
10293,-63.74
10305,-57.74
10317,-51.17
10329,-46.17
10340,-43.3
10351,-41.78
10363,-40.68
10375,-39.4
10387,-36.92
10399,-33.23
10411,-29.38
10423,-27.61
10435,-28.52
10447,-31.83
10459,-36.67
10471,-42.39
10483,-48.54
10495,-54.14
10507,-58.46
10519,-61.09
10530,-62.28
10541,-61.48
10553,-58.23
10565,-52.42
10577,-44.79
10589,-36.58
10601,-28.86
10613,-22.51
10625,-18.01
10637,-15.52
10649,-14.31
10661,-13.34
10673,-11.69
10685,-9.02
10697,-5.54
10709,-1.7
10720,1.89
10731,4.8
10743,6.81
10755,8.21
10767,9.45
10779,10.87
10791,12.52
10803,14.16
10815,15.5
10827,16.37
10839,16.82
10851,16.96
10863,16.85
10875,16.31
10887,15.0
10899,12.65
10910,9.31
10921,5.47
10933,1.92
10945,-0.6
10957,-1.72
10969,-1.66
10981,-1.05
10993,-0.61
11005,-0.78
11017,-1.51
11029,-2.37
11041,-2.86
11053,-2.72
11065,-2.06
11077,-1.29
11089,-0.86
11100,-1.04
11111,-1.81
11123,-2.93
11135,-4.15
11147,-5.23
11159,-6.03
11171,-6.45
11183,-6.35
11195,-5.6
11207,-4.18
11219,-2.34
11231,-0.59
11243,0.48
11255,0.5
11267,-0.52
11279,-2.18
11290,-3.83
11301,-4.78
11313,-4.6
11325,-3.23
11337,-0.94
11349,1.84
11361,4.76
11373,7.5
11385,9.8
11397,11.5
11409,12.62
11421,13.32
11433,13.83
11445,14.4
11457,15.24
11469,16.6
11480,18.4
11491,20.21
11503,21.59
11515,22.5
11527,23.27
11539,24.45
11551,26.51
11563,29.71
11575,34.4
11587,40.18
11599,45.86
11611,50.09
11623,52.09
11635,51.94
11647,50.39
11659,48.63
11670,47.96
11681,50.11
11693,55.5
11705,62.88
11717,70.2
11729,75.77
11741,78.8
11753,79.32
11765,77.93
11777,75.8
11789,75.27
11801,77.7
11813,82.52
11825,87.51
11837,89.63
11849,85.42
11860,71.68
11871,46.55
11883,5.39
11895,-46.77
11907,-96.86
11919,-132.32
11931,-149.0
11943,-150.78
11955,-144.39
11967,-135.43
11979,-126.79
11991,-119.1
12003,-111.21
12015,-102.9
12027,-95.08
12039,-88.23
12050,-81.02
12061,-71.07
12073,-56.91
12085,-39.35
12097,-21.42
12109,-6.2
12121,3.77
12133,7.65
12145,6.69
12157,3.8
12169,1.91
12181,2.55
12193,5.72
12205,10.71
12217,16.92
12229,23.3
12240,28.21
12251,29.82
12263,26.96
12275,19.66
12287,9.27
12299,-2.13
12311,-12.29
12323,-19.34
12335,-22.71
12347,-23.2
12359,-22.38
12371,-21.7
12383,-21.64
12395,-21.51
12407,-19.82
12419,-15.29
12430,-7.77
12441,1.01
12453,7.71
12465,8.68
12477,1.69
12489,-12.83
12501,-31.52
12513,-49.51
12525,-61.98
12537,-65.39
12549,-59.2
12561,-46.31
12573,-32.0
12585,-22.08
12597,-20.74
12609,-28.62
12620,-43.31
12631,-60.47
12643,-75.3
12655,-83.76
12667,-83.41
12679,-73.88
12691,-56.92
12703,-35.81
12715,-13.37
12727,7.37
12739,23.52
12751,33.26
12763,36.89
12775,36.38
12787,33.99
12799,30.92
12810,26.95
12821,23.39
12833,21.86
12845,24.16
12857,32.29
12869,48.04
12881,71.26
12893,98.55
12905,124.15
12917,142.88
12929,155.4
12941,165.7
12953,177.85
12965,193.64
12977,212.08
12989,229.81
13000,242.58
13011,247.57
13023,228.98
13035,183.7
13047,123.84
13059,66.9
13071,22.04
13083,-11.53
13095,-38.36
13107,-61.72
13119,-82.12
13131,-98.95
13143,-108.71
13155,-109.36
13167,-102.82
13179,-93.89
13190,-86.98
13201,-84.52
13213,-86.94
13225,-93.53
13237,-100.92
13249,-104.92
13261,-102.6
13273,-93.68
13285,-80.08
13297,-64.38
13309,-49.25
13321,-37.77
13333,-33.28
13345,-37.15
13357,-48.93
13369,-64.77
13380,-78.79
13391,-86.69
13403,-87.51
13415,-83.34
13427,-77.8
13439,-73.84
13451,-71.86
13463,-69.12
13475,-61.44
13487,-46.05
13499,-23.57
13511,2.16
13523,25.55
13535,41.65
13547,48.2
13559,46.75
13570,42.38
13581,39.21
13593,39.0
13605,40.41
13617,40.2
13629,35.43
13641,25.39
13653,12.07
13665,-0.63
13677,-8.93
13689,-10.88
13701,-6.82
13713,1.56
13725,12.43
13737,25.01
13749,39.73
13760,56.0
13771,72.06
13783,85.61
13795,94.62
13807,98.2
13819,97.17
13831,93.01
13843,86.63
13855,77.41
13867,63.36
13879,42.72
13891,15.45
13903,-15.92
13915,-49.1
13927,-80.33
13939,-105.91
13950,-123.35
13961,-131.97
13973,-132.66
13985,-126.76
13997,-115.65
14009,-101.2
14021,-85.71
14033,-71.03
14045,-58.6
14057,-49.18
14069,-42.78
14081,-37.01
14093,-29.4
14105,-17.62
14117,-0.67
14129,20.6
14140,44.24
14151,67.62
14163,88.05
14175,103.5
14187,108.24
14199,100.23
14211,84.1
14223,68.34
14235,59.38
14247,58.79
14259,63.73
14271,69.02
14283,69.29
14295,60.87
14307,43.68
14319,20.81
14330,-3.35
14341,-24.7
14353,-40.37
14365,-50.04
14377,-54.73
14389,-55.89
14401,-54.94
14413,-52.22
14425,-47.47
14437,-40.8
14449,-33.1
14461,-25.64
14473,-19.58
14485,-15.42
14497,-12.98
14509,-11.57
14520,-10.12
14531,-7.77
14543,-4.83
14555,-2.41
14567,-1.68
14579,-3.15
14591,-6.45
14603,-10.66
14615,-14.69
14627,-17.65
14639,-19.18
14651,-19.54
14663,-19.31
14675,-18.91
14687,-18.55
14699,-18.15
14710,-17.73
14721,-17.43
14733,-17.57
14745,-18.42
14757,-20.05
14769,-22.1
14781,-23.81
14793,-24.31
14805,-22.89
14817,-19.34
14829,-14.05
14841,-8.28
14853,-3.79
14865,-1.95
14877,-3.03
14889,-6.01
14900,-8.99
14911,-9.79
14923,-6.75
14935,0.9
14947,12.05
14959,24.31
14971,35.42
14983,44.38
14995,51.57
15007,58.19
15019,65.5
15031,74.15
15043,84.18
15055,93.81
15067,100.27
15079,101.64
15090,98.02
15101,91.23
15113,83.9
15125,78.7
15137,77.77
15149,82.65
15161,92.1
15173,102.12
15185,107.65
15197,104.14
15209,88.37
15221,59.1
15233,17.62
15245,-35.14
15257,-88.81
15269,-129.52
15280,-149.95
15291,-152.84
15303,-145.64
15315,-134.76
15327,-123.45
15339,-112.21
15351,-100.14
15363,-85.79
15375,-69.6
15387,-53.71
15399,-40.2
15411,-29.85
15423,-22.13
15435,-15.74
15447,-9.1
15459,-0.96
15470,9.38
15481,20.6
15493,29.93
15505,35.21
15517,36.18
15529,34.32
15541,31.87
15553,30.66
15565,31.4
15577,33.72
15589,36.37
15601,37.02
15613,34.41
15625,28.69
15637,20.98
15649,12.71
15660,5.02
15671,-1.57
15683,-7.09
15695,-12.13
15707,-17.45
15719,-23.14
15731,-28.58
15743,-32.6
15755,-34.08
15767,-32.56
15779,-28.62
15791,-23.65
15803,-19.09
15815,-16.01
15827,-14.47
15839,-14.12
15850,-14.48
15861,-15.09
15873,-15.9
15885,-17.1
15897,-19.25
15909,-22.19
15921,-25.44
15933,-27.32
15945,-27.19
15957,-25.3
15969,-22.21
15981,-18.85
15993,-16.37
16005,-16.46
16017,-19.41
16029,-24.7
16040,-30.95
16051,-37.38
16063,-43.68
16075,-48.84
16087,-51.53
16099,-50.26
16111,-45.01
16123,-35.02
16135,-20.28
16147,-1.4
16159,19.01
16171,37.31
16183,51.16
16195,59.67
16207,63.48
16219,63.16
16230,62.25
16241,65.14
16253,76.61
16265,99.07
16277,125.17
16289,146.49
16301,156.86
16313,163.74
16325,163.67
16337,152.71
16349,122.77
16361,75.32
16373,18.65
16385,-34.89
16397,-72.86
16409,-89.03
16420,-86.35
16431,-76.85
16443,-72.66
16455,-81.36
16467,-102.59
16479,-131.17
16491,-160.8
16503,-186.69
16515,-207.52
16527,-224.34
16539,-239.33
16551,-251.33
16563,-256.79
16575,-250.96
16587,-231.43
16599,-198.95
16610,-156.39
16621,-107.84
16633,-57.11
16645,-7.62
16657,39.24
16669,82.94
16681,123.06
16693,157.8
16705,184.5
16717,200.92
16729,206.33
16741,201.97
16753,190.27
16765,174.58
16777,157.66
16789,141.05
16800,124.97
16811,109.16
16823,93.8
16835,79.61
16847,67.54
16859,58.07
16871,51.21
16883,46.33
16895,42.39
16907,38.21
16919,32.87
16931,25.79
16943,16.81
16955,6.19
16967,-5.37
16979,-16.58
16990,-26.23
17001,-33.59
17013,-38.6
17025,-41.74
17037,-43.88
17049,-45.94
17061,-48.62
17073,-52.12
17085,-55.65
17097,-58.57
17109,-60.84
17121,-62.73
17133,-64.08
17145,-64.13
17157,-61.74
17169,-55.87
17180,-46.06
17191,-31.6
17203,-13.49
17215,5.41
17227,21.92
17239,34.41
17251,43.23
17263,50.16
17275,57.22
17287,65.75
17299,77.71
17311,92.63
17323,107.4
17335,118.32
17347,123.7
17359,124.39
17370,122.83
17381,121.7
17393,123.01
17405,130.11
17417,143.7
17429,160.82
17441,176.53
17453,186.47
17465,187.6
17477,178.01
17489,157.14
17501,111.38
17513,43.25
17525,-27.24
17537,-77.48
17549,-99.0
17560,-98.07
17571,-87.25
17583,-77.42
17595,-73.99
17607,-75.58
17619,-76.23
17631,-71.87
17643,-63.19
17655,-54.29
17667,-49.24
17679,-50.06
17691,-55.54
17703,-62.5
17715,-68.13
17727,-69.07
17739,-64.72
17750,-57.82
17761,-52.54
17773,-51.67
17785,-55.71
17797,-62.22
17809,-67.98
17821,-71.52
17833,-72.6
17845,-73.21
17857,-76.93
17869,-87.08
17881,-104.73
17893,-128.16
17905,-151.56
17917,-167.3
17929,-169.04
17940,-152.89
17951,-118.62
17963,-69.74
17975,-12.4
17987,48.55
17999,99.62
18011,129.42
18023,137.83
18035,133.3
18047,124.86
18059,117.47
18071,111.92
18083,106.55
18095,99.02
18107,87.23
18119,71.7
18130,54.47
18141,37.32
18153,21.45
18165,7.59
18177,-3.92
18189,-13.51
18201,-22.37
18213,-32.22
18225,-43.01
18237,-53.3
18249,-62.41
18261,-69.43
18273,-74.31
18285,-77.49
18297,-79.57
18309,-80.87
18320,-81.24
18331,-79.22
18343,-73.0
18355,-61.99
18367,-47.3
18379,-31.42
18391,-17.15
18403,-6.65
18415,-0.85
18427,0.56
18439,-0.92
18451,-3.54
18463,-6.28
18475,-8.96
18487,-11.93
18499,-15.39
18510,-19.16
18521,-22.33
18533,-23.84
18545,-22.82
18557,-19.02
18569,-13.02
18581,-5.93
18593,1.0
18605,6.91
18617,11.51
18629,14.85
18641,17.09
18653,18.55
18665,19.79
18677,21.57
18689,24.66
18700,29.52
18711,36.04
18723,43.68
18735,51.18
18747,57.09
18759,60.46
18771,61.39
18783,60.82
18795,60.04
18807,60.09
18819,61.38
18831,63.84
18843,66.55
18855,68.24
18867,68.05
18879,66.03
18890,62.75
18901,59.1
18913,55.84
18925,53.41
18937,52.16
18949,51.48
18961,49.99
18973,46.36
18985,40.0
18997,31.09
19009,20.67
19021,10.34
19033,-1.05
19045,-11.96
19057,-20.42
19069,-26.6
19080,-32.9
19091,-41.58
19103,-53.1
19115,-65.56
19127,-75.79
19139,-80.75
19151,-78.63
19163,-70.33
19175,-58.91
19187,-48.79
19199,-41.64
19211,-38.04
19223,-37.34
19235,-38.0
19247,-37.87
19259,-34.72
19270,-27.38
19281,-15.9
19293,-1.15
19305,15.62
19317,32.71
19329,48.62
19341,60.66
19353,66.84
19365,66.8
19377,61.63
19389,53.45
19401,44.7
19413,37.26
19425,31.49
19437,26.38
19449,20.19
19460,11.67
19471,0.71
19483,-11.67
19495,-23.62
19507,-33.07
19519,-38.28
19531,-38.55
19543,-34.21
19555,-26.4
19567,-16.39
19579,-5.3
19591,5.98
19603,16.68
19615,26.12
19627,33.71
19639,39.02
19650,42.08
19661,43.35
19673,43.65
19685,43.65
19697,43.33
19709,41.94
19721,38.41
19733,32.06
19745,23.21
19757,13.36
19769,4.81
19781,-0.43
19793,-1.74
19805,-0.48
19817,0.26
19829,-3.35
19840,-14.65
19851,-35.24
19863,-64.23
19875,-97.93
19887,-130.56
19899,-155.58
19911,-167.58
19923,-163.69
19935,-144.46
19947,-113.55
19959,-76.56
19971,-39.46
19983,-6.84
19995,18.79
20007,36.85
20019,47.99
20030,53.42
20041,54.45
20053,52.32
20065,48.15
20077,42.75
20089,36.97
20101,31.62
20113,26.85
20125,22.13
20137,16.66
20149,9.95
20161,2.18
20173,-5.75
20185,-12.99
20197,-18.05
20209,-19.52
20220,-17.33
20231,-13.05
20243,-8.95
20255,-7.14
20267,-8.96
20279,-14.77
20291,-24.75
20303,-37.22
20315,-49.43
20327,-59.51
20339,-67.29
20351,-73.63
20363,-79.72
20375,-86.63
20387,-95.05
20399,-106.06
20410,-118.13
20421,-127.49
20433,-130.18
20445,-123.32
20457,-105.17
20469,-75.49
20481,-35.87
20493,16.38
20505,71.17
20517,113.58
20529,136.63
20541,143.59
20553,141.34
20565,135.35
20577,128.41
20589,121.44
20600,114.58
20611,106.77
20623,98.32
20635,90.18
20647,81.92
20659,71.85
20671,58.72
20683,42.82
20695,25.89
20707,10.01
20719,-4.19
20731,-15.96
20743,-24.35
20755,-29.22
20767,-31.12
20779,-30.77
20790,-28.95
20801,-26.75
20813,-25.48
20825,-26.69
20837,-30.68
20849,-35.45
20861,-38.99
20873,-39.94
20885,-37.78
20897,-32.72
20909,-25.63
20921,-17.62
20933,-9.86
20945,-2.65
20957,4.56
20969,12.22
20980,20.38
20991,28.53
