seconds,BVP
1,42.46
12,48.62
23,54.29
35,59.15
47,63.04
59,65.84
71,67.5
83,68.07
95,67.66
107,66.51
119,64.9
131,63.06
143,61.07
155,58.82
167,56.05
179,52.43
191,47.69
202,41.71
213,34.6
225,26.66
237,18.28
249,9.85
261,1.64
273,-6.26
285,-13.88
297,-21.33
309,-28.65
321,-35.8
333,-42.64
345,-48.95
357,-54.51
369,-59.17
381,-62.85
392,-65.65
403,-67.78
415,-69.5
427,-71.05
439,-72.48
451,-73.56
463,-73.81
475,-72.68
487,-69.74
499,-64.87
511,-58.35
523,-50.76
535,-42.79
547,-35.09
559,-28.13
571,-22.26
582,-17.67
593,-14.44
605,-12.48
617,-11.52
629,-11.1
641,-10.73
653,-10.03
665,-8.83
677,-7.21
689,-5.43
701,-3.79
713,-2.53
725,-1.75
737,-1.41
749,-1.43
761,-1.71
772,-2.19
783,-2.87
795,-3.8
807,-5.0
819,-6.45
831,-8.02
843,-9.54
855,-10.82
867,-11.76
879,-12.45
891,-13.08
903,-13.97
915,-15.38
927,-17.49
939,-20.24
951,-23.37
962,-26.43
973,-28.85
985,-30.1
997,-29.74
1009,-27.63
1021,-23.88
1033,-18.93
1045,-13.39
1057,-7.99
1069,-3.37
1081,0.05
1093,2.11
1105,2.96
1117,2.92
1129,2.37
1141,1.69
1152,1.16
1163,0.95
1175,1.12
1187,1.63
1199,2.36
1211,3.16
1223,3.81
1235,4.2
1247,4.27
1259,4.12
1271,3.88
1283,3.71
1295,3.65
1307,3.6
1319,3.37
1331,2.77
1342,1.67
1353,0.15
1365,-1.63
1377,-3.39
1389,-4.94
1401,-6.2
1413,-7.28
1425,-8.44
1437,-10.04
1449,-12.33
1461,-15.31
1473,-18.62
1485,-21.6
1497,-23.45
1509,-23.56
1521,-21.67
1532,-18.0
1543,-13.13
1555,-7.79
1567,-2.66
1579,1.8
1591,5.38
1603,7.99
1615,9.65
1627,10.45
1639,10.56
1651,10.26
1663,9.89
1675,9.73
1687,9.95
1699,10.52
1711,11.3
1722,12.05
1733,12.62
1745,12.93
1757,13.0
1769,12.9
1781,12.7
1793,12.45
1805,12.16
1817,11.79
1829,11.28
1841,10.55
1853,9.52
1865,8.15
1877,6.48
1889,4.62
1901,2.67
1912,0.71
1923,-1.26
1935,-3.34
1947,-5.72
1959,-8.61
1971,-12.1
1983,-16.06
1995,-20.05
2007,-23.39
2019,-25.24
2031,-24.98
2043,-22.38
2055,-17.8
2067,-12.03
2079,-6.1
2091,-0.85
2102,3.24
2113,6.17
2125,8.21
2137,9.68
2149,10.77
2161,11.51
2173,11.86
2185,11.87
2197,11.7
2209,11.58
2221,11.7
2233,12.13
2245,12.73
2257,13.32
2269,13.72
2281,13.81
2292,13.64
2303,13.29
2315,12.89
2327,12.51
2339,12.17
2351,11.78
2363,11.22
2375,10.36
2387,9.1
2399,7.48
2411,5.64
2423,3.78
2435,2.04
2447,0.49
2459,-0.96
2471,-2.5
2482,-4.37
2493,-6.75
2505,-9.77
2517,-13.39
2529,-17.39
2541,-21.34
2553,-24.59
2565,-26.45
2577,-26.33
2589,-24.02
2601,-19.77
2613,-14.23
2625,-8.28
2637,-2.67
2649,2.11
2661,5.96
2672,9.0
2683,11.39
2695,13.22
2707,14.48
2719,15.12
2731,15.22
2743,14.97
2755,14.71
2767,14.75
2779,15.29
2791,16.31
2803,17.61
2815,18.88
2827,19.8
2839,20.19
2851,20.02
2862,19.44
2873,18.65
2885,17.83
2897,17.03
2909,16.2
2921,15.25
2933,14.1
2945,12.73
2957,11.18
2969,9.51
2981,7.79
2993,6.08
3005,4.39
3017,2.67
3029,0.84
3041,-1.25
3052,-3.76
3063,-6.81
3075,-10.39
3087,-14.29
3099,-18.09
3111,-21.22
3123,-23.06
3135,-23.08
3147,-21.09
3159,-17.24
3171,-12.09
3183,-6.4
3195,-0.92
3207,3.8
3219,7.53
3231,10.33
3242,12.35
3253,13.73
3265,14.58
3277,14.97
3289,15.06
3301,15.06
3313,15.25
3325,15.82
3337,16.84
3349,18.2
3361,19.66
3373,20.99
3385,21.96
3397,22.46
3409,22.47
3421,22.03
3432,21.22
3443,20.16
3455,18.88
3467,17.47
3479,15.97
3491,14.46
3503,13.02
3515,11.7
3527,10.46
3539,9.14
3551,7.62
3563,5.79
3575,3.69
3587,1.49
3599,-0.58
3611,-2.42
3622,-4.1
3633,-5.86
3645,-8.05
3657,-10.93
3669,-14.61
3681,-18.94
3693,-23.5
3705,-27.66
3717,-30.67
3729,-31.8
3741,-30.57
3753,-26.93
3765,-21.29
3777,-14.43
3789,-7.31
3801,-0.75
3812,4.7
3823,8.87
3835,11.8
3847,13.7
3859,14.75
3871,15.15
3883,15.15
3895,15.01
3907,15.02
3919,15.36
3931,16.07
3943,16.96
3955,17.71
3967,17.96
3979,17.48
3991,16.25
4002,14.46
4013,12.39
4025,10.31
4037,8.3
4049,6.29
4061,4.08
4073,1.5
4085,-1.55
4097,-5.05
4109,-8.91
4121,-13.03
4133,-17.28
4145,-21.5
4157,-25.5
4169,-29.03
4181,-31.87
4192,-33.95
4203,-35.25
4215,-35.9
4227,-36.01
4239,-35.69
4251,-35.05
4263,-34.25
4275,-33.56
4287,-33.3
4299,-33.69
4311,-34.71
4323,-36.03
4335,-36.95
4347,-36.71
4359,-34.63
4371,-30.43
4382,-24.29
4393,-16.83
4405,-8.91
4417,-1.33
4429,5.32
4441,10.79
4453,15.11
4465,18.49
4477,21.11
4489,23.12
4501,24.59
4513,25.64
4525,26.43
4537,27.18
4549,28.11
4561,29.28
4572,30.64
4583,31.94
4595,32.91
4607,33.4
4619,33.38
4631,33.04
4643,32.61
4655,32.29
4667,32.08
4679,31.84
4691,31.3
4703,30.27
4715,28.7
4727,26.74
4739,24.63
4751,22.57
4762,20.6
4773,18.63
4785,16.45
4797,13.97
4809,11.23
4821,8.44
4833,5.82
4845,3.52
4857,1.5
4869,-0.39
4881,-2.35
4893,-4.52
4905,-6.99
4917,-9.78
4929,-12.88
4941,-16.24
4952,-19.66
4963,-22.72
4975,-24.78
4987,-25.2
4999,-23.58
5011,-19.95
5023,-14.81
5035,-8.98
5047,-3.3
5059,1.61
5071,5.53
5083,8.54
5095,10.87
5107,12.68
5119,14.02
5131,14.82
5142,15.12
5153,15.02
5165,14.79
5177,14.75
5189,15.13
5201,15.99
5213,17.22
5225,18.59
5237,19.83
5249,20.75
5261,21.23
5273,21.24
5285,20.81
5297,20.01
5309,18.94
5321,17.67
5332,16.33
5343,15.01
5355,13.77
5367,12.66
5379,11.66
5391,10.72
5403,9.72
5415,8.58
5427,7.22
5439,5.62
5451,3.81
5463,1.86
5475,-0.15
5487,-2.17
5499,-4.22
5511,-6.4
5522,-8.88
5533,-11.78
5545,-15.06
5557,-18.35
5569,-21.05
5581,-22.38
5593,-21.76
5605,-19.0
5617,-14.44
5629,-8.81
5641,-3.03
5653,2.15
5665,6.29
5677,9.35
5689,11.48
5701,12.91
5712,13.78
5723,14.16
5735,14.15
5747,13.89
5759,13.62
5771,13.56
5783,13.86
5795,14.55
5807,15.48
5819,16.47
5831,17.34
5843,17.96
5855,18.26
5867,18.21
5879,17.83
5891,17.11
5902,16.15
5913,15.01
5925,13.82
5937,12.71
5949,11.73
5961,10.9
5973,10.12
5985,9.27
5997,8.18
6009,6.79
6021,5.08
6033,3.16
6045,1.18
6057,-0.71
6069,-2.43
6081,-4.0
6092,-5.52
6103,-7.18
6115,-9.16
6127,-11.62
6139,-14.52
6151,-17.65
6163,-20.58
6175,-22.67
6187,-23.33
6199,-22.13
6211,-19.01
6223,-14.34
6235,-8.81
6247,-3.23
6259,1.7
6271,5.58
6282,8.34
6293,10.13
6305,11.2
6317,11.77
6329,11.95
6341,11.89
6353,11.71
6365,11.58
6377,11.61
6389,11.86
6401,12.28
6413,12.78
6425,13.27
6437,13.71
6449,14.1
6461,14.45
6472,14.73
6483,14.86
6495,14.75
6507,14.3
6519,13.49
6531,12.34
6543,10.95
6555,9.44
6567,7.9
6579,6.37
6591,4.84
6603,3.22
6615,1.48
6627,-0.38
6639,-2.26
6651,-4.02
6662,-5.49
6673,-6.66
6685,-7.61
6697,-8.58
6709,-9.84
6721,-11.62
6733,-13.99
6745,-16.77
6757,-19.52
6769,-21.56
6781,-22.27
6793,-21.19
6805,-18.29
6817,-13.96
6829,-8.88
6841,-3.77
6852,0.75
6863,4.37
6875,7.0
6887,8.74
6899,9.72
6911,10.1
6923,10.07
6935,9.84
6947,9.66
6959,9.74
6971,10.19
6983,11.01
6995,12.1
7007,13.32
7019,14.51
7031,15.54
7042,16.29
7053,16.69
7065,16.71
7077,16.38
7089,15.8
7101,15.06
7113,14.23
7125,13.29
7137,12.18
7149,10.84
7161,9.26
7173,7.55
7185,5.82
7197,4.17
7209,2.64
7221,1.2
7232,-0.21
7243,-1.66
7255,-3.17
7267,-4.81
7279,-6.65
7291,-8.77
7303,-11.16
7315,-13.62
7327,-15.79
7339,-17.14
7351,-17.2
7363,-15.66
7375,-12.57
7387,-8.28
7399,-3.39
7411,1.45
7422,5.67
7433,8.91
7445,11.09
7457,12.31
7469,12.81
7481,12.85
7493,12.63
7505,12.24
7517,11.77
7529,11.27
7541,10.85
7553,10.65
7565,10.76
7577,11.15
7589,11.65
7601,12.01
7612,12.0
7623,11.52
7635,10.62
7647,9.46
7659,8.23
7671,7.05
7683,5.94
7695,4.84
7707,3.69
7719,2.47
7731,1.21
7743,-0.01
7755,-1.12
7767,-2.04
7779,-2.8
7791,-3.41
7802,-3.98
7813,-4.63
7825,-5.58
7837,-6.99
7849,-8.99
7861,-11.56
7873,-14.41
7885,-17.09
7897,-18.98
7909,-19.55
7921,-18.45
7933,-15.73
7945,-11.7
7957,-6.95
7969,-2.11
7981,2.29
7992,5.91
8003,8.66
8015,10.57
8027,11.76
8039,12.35
8051,12.42
8063,12.1
8075,11.56
8087,11.01
8099,10.64
8111,10.57
8123,10.76
8135,11.07
8147,11.29
8159,11.29
8171,11.03
8182,10.56
8193,9.95
8205,9.19
8217,8.27
8229,7.17
8241,5.93
8253,4.65
8265,3.43
8277,2.32
8289,1.23
8301,0.06
8313,-1.29
8325,-2.8
8337,-4.34
8349,-5.78
8361,-7.04
8372,-8.16
8383,-9.31
8395,-10.68
8407,-12.42
8419,-14.54
8431,-16.92
8443,-19.27
8455,-21.22
8467,-22.33
8479,-22.25
8491,-20.77
8503,-17.94
8515,-14.08
8527,-9.68
8539,-5.32
8551,-1.46
8562,1.6
8573,3.8
8585,5.22
8597,6.01
8609,6.34
8621,6.36
8633,6.21
8645,6.02
8657,5.91
8669,6.03
8681,6.44
8693,7.13
8705,7.99
8717,8.81
8729,9.36
8741,9.48
8752,9.14
8763,8.43
8775,7.51
8787,6.51
8799,5.49
8811,4.4
8823,3.18
8835,1.81
8847,0.34
8859,-1.13
8871,-2.51
8883,-3.71
8895,-4.7
8907,-5.52
8919,-6.21
8931,-6.9
8942,-7.75
8953,-8.91
8965,-10.52
8977,-12.57
8989,-14.86
9001,-16.98
9013,-18.38
9025,-18.55
9037,-17.22
9049,-14.44
9061,-10.59
9073,-6.26
9085,-2.09
9097,1.48
9109,4.26
9121,6.26
9132,7.64
9143,8.56
9155,9.09
9167,9.27
9179,9.13
9191,8.77
9203,8.35
9215,8.08
9227,8.13
9239,8.53
9251,9.18
9263,9.87
9275,10.37
9287,10.53
9299,10.33
9311,9.91
9322,9.4
9333,8.93
9345,8.47
9357,7.91
9369,7.13
9381,6.04
9393,4.69
9405,3.24
9417,1.86
9429,0.72
9441,-0.13
9453,-0.72
9465,-1.15
9477,-1.57
9489,-2.14
9501,-3.04
9512,-4.4
9523,-6.27
9535,-8.52
9547,-10.85
9559,-12.79
9571,-13.79
9583,-13.49
9595,-11.76
9607,-8.8
9619,-5.07
9631,-1.1
9643,2.62
9655,5.76
9667,8.19
9679,9.91
9691,10.99
9702,11.52
9713,11.62
9725,11.41
9737,11.04
9749,10.67
9761,10.4
9773,10.31
9785,10.41
9797,10.69
9809,11.1
9821,11.55
9833,11.94
9845,12.16
9857,12.13
9869,11.81
9881,11.23
9892,10.46
9903,9.54
9915,8.46
9927,7.18
9939,5.62
9951,3.8
9963,1.79
9975,-0.21
9987,-2.0
9999,-3.43
10011,-4.48
10023,-5.29
10035,-6.05
10047,-6.93
10059,-8.05
10071,-9.4
10082,-10.96
10093,-12.69
10105,-14.55
10117,-16.41
10129,-18.04
10141,-19.01
10153,-18.91
10165,-17.46
10177,-14.7
10189,-11.04
10201,-7.11
10213,-3.53
10225,-0.72
10237,1.22
10249,2.46
10261,3.26
10272,3.84
10283,4.28
10295,4.55
10307,4.63
10319,4.53
10331,4.36
10343,4.29
10355,4.45
10367,4.89
10379,5.57
10391,6.36
10403,7.1
10415,7.64
10427,7.89
10439,7.82
10451,7.47
10462,6.9
10473,6.18
10485,5.34
10497,4.4
10509,3.37
10521,2.27
10533,1.13
10545,0.02
10557,-1.0
10569,-1.92
10581,-2.73
10593,-3.48
10605,-4.2
10617,-4.96
10629,-5.81
10641,-6.81
10652,-8.06
10663,-9.63
10675,-11.56
10687,-13.74
10699,-15.96
10711,-17.81
10723,-18.9
10735,-18.84
10747,-17.47
10759,-14.8
10771,-11.13
10783,-6.9
10795,-2.64
10807,1.18
10819,4.24
10831,6.41
10842,7.74
10853,8.4
10865,8.59
10877,8.53
10889,8.36
10901,8.21
10913,8.17
10925,8.3
10937,8.66
10949,9.24
10961,9.92
10973,10.53
10985,10.84
10997,10.73
11009,10.23
11021,9.47
11032,8.66
11043,7.93
11055,7.29
11067,6.67
11079,6.0
11091,5.26
11103,4.54
11115,3.92
11127,3.38
11139,2.76
11151,1.88
11163,0.64
11175,-0.89
11187,-2.47
11199,-3.84
11211,-4.84
11222,-5.54
11233,-6.16
11245,-6.93
11257,-8.04
11269,-9.53
11281,-11.36
11293,-13.43
11305,-15.58
11317,-17.57
11329,-19.06
11341,-19.65
11353,-19.02
11365,-17.09
11377,-14.09
11389,-10.56
11401,-7.14
11412,-4.31
11423,-2.29
11435,-1.0
11447,-0.21
11459,0.31
11471,0.68
11483,0.93
11495,1.03
11507,1.02
11519,0.97
11531,0.96
11543,1.06
11555,1.23
11567,1.45
11579,1.65
11591,1.81
11602,1.91
11613,1.92
11625,1.78
11637,1.4
11649,0.74
11661,-0.2
11673,-1.31
11685,-2.45
11697,-3.46
11709,-4.27
11721,-4.81
11733,-5.11
11745,-5.2
11757,-5.19
11769,-5.17
11781,-5.2
11792,-5.34
11803,-5.57
11815,-5.8
11827,-5.99
11839,-6.1
11851,-6.19
11863,-6.36
11875,-6.79
11887,-7.62
11899,-8.91
11911,-10.59
11923,-12.4
11935,-13.93
11947,-14.75
11959,-14.47
11971,-12.93
11982,-10.25
11993,-6.77
12005,-2.97
12017,0.75
12029,4.08
12041,6.89
12053,9.12
12065,10.74
12077,11.73
12089,12.13
12101,12.05
12113,11.68
12125,11.28
12137,11.07
12149,11.15
12161,11.51
12172,12.06
12183,12.67
12195,13.23
12207,13.69
12219,14.04
12231,14.29
12243,14.4
12255,14.31
12267,13.95
12279,13.25
12291,12.26
12303,11.06
12315,9.8
12327,8.58
12339,7.44
12351,6.35
12362,5.24
12373,4.08
12385,2.94
12397,1.89
12409,1.02
12421,0.33
12433,-0.3
12445,-1.05
12457,-2.09
12469,-3.54
12481,-5.38
12493,-7.52
12505,-9.77
12517,-11.88
12529,-13.52
12541,-14.36
12552,-14.11
12563,-12.65
12575,-10.09
12587,-6.8
12599,-3.29
12611,-0.1
12623,2.42
12635,4.11
12647,5.03
12659,5.35
12671,5.24
12683,4.82
12695,4.17
12707,3.36
12719,2.48
12731,1.67
12742,1.06
12753,0.71
12765,0.61
12777,0.74
12789,1.05
12801,1.5
12813,2.04
12825,2.59
12837,3.02
12849,3.17
12861,3.0
12873,2.56
12885,2.02
12897,1.58
12909,1.37
12921,1.41
12932,1.59
12943,1.76
12955,1.8
12967,1.64
12979,1.3
12991,0.8
13003,0.14
13015,-0.66
13027,-1.62
13039,-2.7
13051,-3.85
13063,-5.05
13075,-6.33
13087,-7.81
13099,-9.53
13111,-11.48
13122,-13.41
13133,-14.92
13145,-15.59
13157,-15.11
13169,-13.46
13181,-10.89
13193,-7.86
13205,-4.84
13217,-2.15
13229,0.06
13241,1.81
13253,3.16
13265,4.11
13277,4.66
13289,4.79
13301,4.56
13312,4.14
13323,3.74
13335,3.56
13347,3.71
13359,4.18
13371,4.83
13383,5.47
13395,5.94
13407,6.16
13419,6.13
13431,5.87
13443,5.46
13455,4.92
13467,4.29
13479,3.6
13491,2.89
13502,2.21
13513,1.6
13525,1.03
13537,0.44
13549,-0.26
13561,-1.14
13573,-2.2
13585,-3.33
13597,-4.43
13609,-5.46
13621,-6.46
13633,-7.56
13645,-8.91
13657,-10.6
13669,-12.58
13681,-14.74
13692,-16.89
13703,-18.84
13715,-20.43
13727,-21.47
13739,-21.73
13751,-21.0
13763,-19.17
13775,-16.34
13787,-12.84
13799,-9.22
13811,-6.01
13823,-3.59
13835,-2.06
13847,-1.25
13859,-0.86
13871,-0.59
13882,-0.27
13893,0.11
13905,0.46
13917,0.68
13929,0.81
13941,0.94
13953,1.2
13965,1.66
13977,2.31
13989,3.03
14001,3.71
14013,4.23
14025,4.58
14037,4.74
14049,4.75
14061,4.61
14072,4.31
14083,3.86
14095,3.3
14107,2.69
14119,2.11
14131,1.62
14143,1.2
14155,0.77
14167,0.24
14179,-0.51
14191,-1.53
14203,-2.77
14215,-4.13
14227,-5.47
14239,-6.73
14251,-7.94
14262,-9.26
14273,-10.84
14285,-12.73
14297,-14.77
14309,-16.55
14321,-17.57
14333,-17.38
14345,-15.77
14357,-12.87
14369,-9.12
14381,-5.05
14393,-1.21
14405,2.06
14417,4.61
14429,6.42
14441,7.57
14452,8.16
14463,8.29
14475,8.14
14487,7.95
14499,8.03
14511,8.59
14523,9.74
14535,11.37
14547,13.23
14559,15.01
14571,16.47
14583,17.55
14595,18.34
14607,19.03
14619,19.76
14631,20.62
14642,21.52
14653,22.27
14665,22.62
14677,22.34
14689,21.26
14701,19.35
14713,16.72
14725,13.63
14737,10.38
14749,7.24
14761,4.36
14773,1.75
14785,-0.68
14797,-3.07
14809,-5.52
14821,-8.14
14832,-10.97
14843,-14.03
14855,-17.2
14867,-20.2
14879,-22.58
14891,-23.87
14903,-23.75
14915,-22.16
14927,-19.41
14939,-16.0
14951,-12.46
14963,-9.19
14975,-6.4
14987,-4.14
14999,-2.41
15011,-1.2
15022,-0.46
15033,-0.1
15045,0.05
15057,0.18
15069,0.46
15081,0.97
15093,1.69
15105,2.55
15117,3.43
15129,4.24
15141,4.93
15153,5.46
15165,5.84
15177,6.06
15189,6.11
15201,5.97
15212,5.62
15223,5.02
15235,4.19
15247,3.13
15259,1.91
15271,0.61
15283,-0.64
15295,-1.73
15307,-2.59
15319,-3.19
15331,-3.63
15343,-4.03
15355,-4.55
15367,-5.32
15379,-6.4
15391,-7.75
15402,-9.25
15413,-10.65
15425,-11.64
15437,-11.9
15449,-11.19
15461,-9.43
15473,-6.76
15485,-3.54
15497,-0.23
15509,2.73
15521,5.04
15533,6.54
15545,7.28
15557,7.37
15569,6.99
15581,6.3
15592,5.41
15603,4.43
15615,3.46
15627,2.63
15639,2.07
15651,1.81
15663,1.81
15675,1.91
15687,1.92
15699,1.71
15711,1.28
15723,0.76
15735,0.29
15747,0.0
15759,-0.14
15771,-0.27
15782,-0.57
15793,-1.16
15805,-2.03
15817,-3.12
15829,-4.28
15841,-5.42
15853,-6.47
15865,-7.41
15877,-8.25
15889,-9.01
15901,-9.75
15913,-10.53
15925,-11.42
15937,-12.49
15949,-13.79
15961,-15.31
15972,-16.94
15983,-18.42
15995,-19.41
16007,-19.6
16019,-18.78
16031,-16.99
16043,-14.46
16055,-11.57
16067,-8.72
16079,-6.19
16091,-4.07
16103,-2.35
16115,-0.94
16127,0.21
16139,1.1
16151,1.72
16162,2.07
16173,2.26
16185,2.42
16197,2.74
16209,3.3
16221,4.11
16233,5.0
16245,5.77
16257,6.21
16269,6.23
16281,5.88
16293,5.34
16305,4.81
16317,4.43
16329,4.22
16341,4.06
16352,3.78
16363,3.27
16375,2.48
16387,1.51
16399,0.51
16411,-0.39
16423,-1.12
16435,-1.68
16447,-2.15
16459,-2.66
16471,-3.3
16483,-4.17
16495,-5.34
16507,-6.83
16519,-8.61
16531,-10.56
16542,-12.41
16553,-13.83
16565,-14.44
16577,-13.97
16589,-12.37
16601,-9.77
16613,-6.55
16625,-3.14
16637,0.06
16649,2.76
16661,4.87
16673,6.38
16685,7.36
16697,7.84
16709,7.9
16721,7.63
16732,7.15
16743,6.67
16755,6.38
16767,6.44
16779,6.87
16791,7.59
16803,8.46
16815,9.33
16827,10.11
16839,10.76
16851,11.29
16863,11.69
16875,11.92
16887,11.93
16899,11.68
16911,11.11
16922,10.23
16933,9.08
16945,7.76
16957,6.42
16969,5.2
16981,4.2
16993,3.44
17005,2.86
17017,2.29
17029,1.54
17041,0.46
17053,-1.02
17065,-2.88
17077,-4.99
17089,-7.11
17101,-8.91
17112,-10.0
17123,-10.05
17135,-8.88
17147,-6.56
17159,-3.44
17171,-0.03
17183,3.1
17195,5.54
17207,7.14
17219,8.02
17231,8.42
17243,8.61
17255,8.68
17267,8.59
17279,8.27
17291,7.7
17302,7.02
17313,6.51
17325,6.39
17337,6.73
17349,7.37
17361,8.02
17373,8.41
17385,8.4
17397,8.02
17409,7.43
17421,6.77
17433,6.1
17445,5.41
17457,4.64
17469,3.75
17481,2.78
17492,1.78
17503,0.83
17515,-0.03
17527,-0.76
17539,-1.36
17551,-1.79
17563,-2.09
17575,-2.29
17587,-2.48
17599,-2.78
17611,-3.35
17623,-4.38
17635,-6.03
17647,-8.32
17659,-11.05
17671,-13.83
17682,-16.1
17693,-17.36
17705,-17.34
17717,-16.07
17729,-13.9
17741,-11.36
17753,-8.92
17765,-6.88
17777,-5.32
17789,-4.19
17801,-3.35
17813,-2.75
17825,-2.36
17837,-2.19
17849,-2.22
17861,-2.36
17872,-2.45
17883,-2.36
17895,-2.01
17907,-1.43
17919,-0.77
17931,-0.2
17943,0.13
17955,0.16
17967,-0.07
17979,-0.47
17991,-0.91
18003,-1.36
18015,-1.79
18027,-2.25
18039,-2.8
18051,-3.47
18062,-4.29
18073,-5.22
18085,-6.19
18097,-7.13
18109,-7.97
18121,-8.68
18133,-9.3
18145,-9.91
18157,-10.57
18169,-11.35
18181,-12.24
18193,-13.27
18205,-14.44
18217,-15.78
18229,-17.24
18241,-18.7
18252,-19.89
18263,-20.45
18275,-20.07
18287,-18.56
18299,-15.98
18311,-12.63
18323,-8.94
18335,-5.33
18347,-2.19
18359,0.32
18371,2.13
18383,3.35
18395,4.13
18407,4.62
18419,4.98
18431,5.3
18442,5.68
18453,6.17
18465,6.81
18477,7.59
18489,8.47
18501,9.37
18513,10.17
18525,10.77
18537,11.06
18549,11.01
18561,10.62
18573,9.99
18585,9.23
18597,8.48
18609,7.83
18621,7.34
18632,6.95
18643,6.59
18655,6.16
18667,5.63
18679,5.0
18691,4.32
18703,3.67
18715,3.05
18727,2.46
18739,1.9
18751,1.32
18763,0.69
18775,-0.04
18787,-0.96
18799,-2.16
18811,-3.65
18822,-5.29
18833,-6.82
18845,-7.85
18857,-8.04
18869,-7.19
18881,-5.32
18893,-2.71
18905,0.24
18917,3.09
18929,5.54
18941,7.4
18953,8.67
18965,9.39
18977,9.63
18989,9.47
19001,8.96
19012,8.19
19023,7.32
19035,6.5
19047,5.87
19059,5.48
19071,5.31
19083,5.26
19095,5.24
19107,5.14
19119,4.91
19131,4.51
19143,3.91
19155,3.14
19167,2.26
19179,1.37
19191,0.53
19202,-0.29
19213,-1.17
19225,-2.22
19237,-3.51
19249,-5.03
19261,-6.68
19273,-8.38
19285,-10.04
19297,-11.57
19309,-12.87
19321,-13.77
19333,-14.09
19345,-13.75
19357,-12.83
19369,-11.6
19381,-10.43
19392,-9.63
19403,-9.28
19415,-9.21
19427,-8.99
19439,-8.11
19451,-6.17
19463,-3.05
19475,1.07
19487,5.78
19499,10.53
19511,14.83
19523,18.37
19535,21.05
19547,22.96
19559,24.26
19571,25.11
19582,25.63
19593,25.91
19605,26.03
19617,26.07
19629,26.06
19641,25.98
19653,25.74
19665,25.18
19677,24.16
19689,22.63
19701,20.65
19713,18.37
19725,15.93
19737,13.46
19749,11.03
19761,8.67
19772,6.39
19783,4.21
19795,2.13
19807,0.14
19819,-1.79
19831,-3.62
19843,-5.3
19855,-6.72
19867,-7.84
19879,-8.71
19891,-9.44
19903,-10.19
19915,-11.01
19927,-11.86
19939,-12.67
19951,-13.43
19962,-14.28
19973,-15.42
19985,-17.05
19997,-19.17
20009,-21.55
20021,-23.75
20033,-25.28
20045,-25.75
20057,-24.98
20069,-23.03
20081,-20.17
20093,-16.78
20105,-13.25
20117,-9.86
20129,-6.83
20141,-4.26
20152,-2.18
20163,-0.6
20175,0.49
20187,1.14
20199,1.46
20211,1.62
20223,1.79
20235,2.14
20247,2.77
20259,3.7
20271,4.9
20283,6.25
20295,7.59
20307,8.75
20319,9.56
20331,9.94
20342,9.91
20353,9.5
20365,8.78
20377,7.77
20389,6.52
20401,5.07
20413,3.55
20425,2.12
20437,0.96
20449,0.12
20461,-0.41
20473,-0.77
20485,-1.11
20497,-1.5
20509,-1.98
20521,-2.51
20532,-3.03
20543,-3.53
20555,-4.08
20567,-4.76
20579,-5.63
20591,-6.63
20603,-7.52
20615,-7.9
20627,-7.29
20639,-5.31
20651,-1.85
20663,2.85
20675,8.22
20687,13.54
20699,18.09
20711,21.39
20722,23.21
20733,23.6
20745,22.81
20757,21.16
20769,19.0
20781,16.67
20793,14.44
20805,12.55
20817,11.08
20829,9.96
20841,8.98
20853,7.84
20865,6.26
20877,4.07
20889,1.26
20901,-2.06
20912,-5.65
20923,-9.26
20935,-12.67
20947,-15.62
20959,-17.97
20971,-19.6
20983,-20.57
20995,-21.01
