seconds,BVP
9,2.36
20,3.27
32,3.21
44,2.51
56,1.61
68,0.86
80,0.51
92,0.63
104,1.19
116,2.12
128,3.38
140,4.93
152,6.67
164,8.39
176,9.82
188,10.69
199,10.87
210,10.4
222,9.46
234,8.29
246,7.06
258,5.78
270,4.3
282,2.44
294,0.13
306,-2.53
318,-5.26
330,-7.73
342,-9.69
354,-11.1
366,-12.14
378,-13.11
389,-14.32
400,-15.95
412,-18.03
424,-20.45
436,-22.95
448,-25.13
460,-26.47
472,-26.4
484,-24.49
496,-20.59
508,-14.93
520,-8.1
532,-0.89
544,5.99
556,12.0
568,16.88
579,20.55
590,23.05
602,24.41
614,24.68
626,23.96
638,22.44
650,20.43
662,18.3
674,16.44
686,15.13
698,14.47
710,14.4
722,14.68
734,15.04
746,15.29
758,15.36
769,15.3
780,15.23
792,15.17
804,15.01
816,14.52
828,13.49
840,11.82
852,9.6
864,7.06
876,4.48
888,2.08
900,-0.08
912,-2.1
924,-4.14
936,-6.37
948,-8.81
959,-11.39
970,-13.91
982,-16.18
994,-18.09
1006,-19.67
1018,-21.08
1030,-22.54
1042,-24.27
1054,-26.46
1066,-29.2
1078,-32.47
1090,-36.08
1102,-39.6
1114,-42.39
1126,-43.69
1138,-42.83
1149,-39.53
1160,-33.95
1172,-26.7
1184,-18.59
1196,-10.41
1208,-2.77
1220,3.98
1232,9.63
1244,14.07
1256,17.26
1268,19.26
1280,20.18
1292,20.27
1304,19.8
1316,19.05
1328,18.26
1339,17.62
1350,17.26
1362,17.22
1374,17.47
1386,17.93
1398,18.51
1410,19.15
1422,19.85
1434,20.59
1446,21.34
1458,21.96
1470,22.29
1482,22.16
1494,21.47
1506,20.25
1518,18.6
1529,16.71
1540,14.75
1552,12.9
1564,11.21
1576,9.71
1588,8.32
1600,6.95
1612,5.49
1624,3.86
1636,2.07
1648,0.15
1660,-1.76
1672,-3.51
1684,-4.99
1696,-6.12
1708,-6.94
1719,-7.53
1730,-8.03
1742,-8.6
1754,-9.39
1766,-10.53
1778,-12.1
1790,-13.99
1802,-15.84
1814,-17.07
1826,-16.96
1838,-14.95
1850,-10.8
1862,-4.84
1874,2.17
1886,9.26
1898,15.55
1909,20.5
1920,23.98
1932,26.14
1944,27.24
1956,27.51
1968,27.05
1980,25.92
1992,24.16
2004,21.89
2016,19.31
2028,16.64
2040,14.06
2052,11.72
2064,9.67
2076,7.93
2088,6.54
2099,5.54
2110,4.92
2122,4.65
2134,4.61
2146,4.64
2158,4.59
2170,4.35
2182,3.88
2194,3.2
2206,2.35
2218,1.42
2230,0.52
2242,-0.2
2254,-0.61
2266,-0.64
2278,-0.39
2289,-0.09
2300,-0.0
2312,-0.29
2324,-0.94
2336,-1.74
2348,-2.46
2360,-2.9
2372,-3.01
2384,-2.86
2396,-2.61
2408,-2.4
2420,-2.35
2432,-2.58
2444,-3.23
2456,-4.41
2468,-6.19
2479,-8.42
2490,-10.73
2502,-12.54
2514,-13.19
2526,-12.15
2538,-9.25
2550,-4.74
2562,0.76
2574,6.48
2586,11.74
2598,16.14
2610,19.61
2622,22.25
2634,24.15
2646,25.21
2658,25.26
2669,24.14
2680,21.9
2692,18.91
2704,15.75
2716,12.99
2728,10.98
2740,9.79
2752,9.23
2764,9.02
2776,8.91
2788,8.76
2800,8.49
2812,8.03
2824,7.3
2836,6.22
2848,4.76
2859,2.95
2870,0.92
2882,-1.23
2894,-3.41
2906,-5.56
2918,-7.66
2930,-9.73
2942,-11.78
2954,-13.8
2966,-15.77
2978,-17.62
2990,-19.3
3002,-20.83
3014,-22.26
3026,-23.68
3038,-25.17
3049,-26.72
3060,-28.24
3072,-29.62
3084,-30.79
3096,-31.8
3108,-32.82
3120,-34.11
3132,-35.89
3144,-38.17
3156,-40.69
3168,-42.85
3180,-43.85
3192,-42.93
3204,-39.63
3216,-33.99
3228,-26.55
3239,-18.2
3250,-9.91
3262,-2.41
3274,3.89
3286,8.96
3298,12.9
3310,15.85
3322,17.85
3334,18.87
3346,18.93
3358,18.19
3370,16.94
3382,15.56
3394,14.37
3406,13.55
3418,13.1
3429,12.91
3440,12.88
3452,12.95
3464,13.13
3476,13.4
3488,13.71
3500,13.92
3512,13.85
3524,13.42
3536,12.62
3548,11.58
3560,10.46
3572,9.36
3584,8.3
3596,7.24
3608,6.09
3619,4.81
3630,3.41
3642,1.95
3654,0.47
3666,-1.02
3678,-2.55
3690,-4.13
3702,-5.75
3714,-7.36
3726,-8.93
3738,-10.41
3750,-11.84
3762,-13.26
3774,-14.7
3786,-16.13
3798,-17.48
3809,-18.75
3820,-19.99
3832,-21.44
3844,-23.34
3856,-25.91
3868,-29.12
3880,-32.58
3892,-35.59
3904,-37.22
3916,-36.66
3928,-33.43
3940,-27.64
3952,-19.96
3964,-11.41
3976,-3.06
3988,4.27
3999,10.16
4010,14.58
4022,17.68
4034,19.63
4046,20.58
4058,20.63
4070,19.94
4082,18.73
4094,17.31
4106,15.89
4118,14.59
4130,13.39
4142,12.24
4154,11.17
4166,10.33
4178,9.93
4189,10.07
4200,10.69
4212,11.52
4224,12.24
4236,12.61
4248,12.57
4260,12.25
4272,11.8
4284,11.33
4296,10.82
4308,10.22
4320,9.45
4332,8.49
4344,7.38
4356,6.17
4368,4.86
4379,3.5
4390,2.21
4402,1.12
4414,0.36
4426,-0.06
4438,-0.34
4450,-0.78
4462,-1.68
4474,-3.14
4486,-5.04
4498,-7.05
4510,-8.86
4522,-10.34
4534,-11.57
4546,-12.88
4558,-14.6
4569,-16.97
4580,-19.96
4592,-23.3
4604,-26.49
4616,-28.91
4628,-30.0
4640,-29.27
4652,-26.47
4664,-21.66
4676,-15.23
4688,-7.92
4700,-0.57
4712,6.04
4724,11.37
4736,15.27
4748,17.83
4759,19.26
4770,19.71
4782,19.18
4794,17.64
4806,15.11
4818,11.8
4830,8.16
4842,4.71
4854,1.99
4866,0.36
4878,0.06
4890,1.19
4902,3.73
4914,7.49
4926,12.11
4938,16.94
4949,21.25
4960,24.32
4972,25.67
4984,25.18
4996,23.11
5008,19.95
5020,16.26
5032,12.51
5044,8.99
5056,5.84
5068,3.1
5080,0.74
5092,-1.27
5104,-2.98
5116,-4.48
5128,-5.83
5139,-7.1
5150,-8.33
5162,-9.56
5174,-10.77
5186,-11.92
5198,-12.95
5210,-13.81
5222,-14.51
5234,-15.14
5246,-15.9
5258,-16.99
5270,-18.49
5282,-20.19
5294,-21.61
5306,-22.05
5318,-20.89
5329,-17.79
5340,-12.89
5352,-6.74
5364,-0.13
5376,6.16
5388,11.58
5400,15.84
5412,18.89
5424,20.77
5436,21.47
5448,20.95
5460,19.14
5472,16.1
5484,12.06
5496,7.44
5508,2.71
5519,-1.66
5530,-5.36
5542,-8.3
5554,-10.54
5566,-12.19
5578,-13.4
5590,-14.29
5602,-14.98
5614,-15.63
5626,-16.37
5638,-17.27
5650,-18.27
5662,-19.21
5674,-19.9
5686,-20.22
5698,-20.15
5709,-19.76
5720,-19.2
5732,-18.6
5744,-18.02
5756,-17.48
5768,-16.97
5780,-16.48
5792,-16.02
5804,-15.6
5816,-15.2
5828,-14.72
5840,-14.04
5852,-13.01
5864,-11.56
5876,-9.8
5888,-7.95
5899,-6.38
5910,-5.4
5922,-5.23
5934,-5.86
5946,-7.13
5958,-8.68
5970,-10.03
5982,-10.55
5994,-9.62
6006,-6.7
6018,-1.62
6030,5.34
6042,13.49
6054,21.91
6066,29.81
6078,36.66
6089,42.32
6100,46.89
6112,50.52
6124,53.25
6136,55.04
6148,55.83
6160,55.65
6172,54.67
6184,53.21
6196,51.54
6208,49.82
6220,47.97
6232,45.69
6244,42.61
6256,38.43
6268,33.1
6279,26.89
6290,20.3
6302,13.86
6314,8.02
6326,2.96
6338,-1.31
6350,-4.94
6362,-8.05
6374,-10.73
6386,-12.97
6398,-14.77
6410,-16.23
6422,-17.51
6434,-18.78
6446,-20.17
6458,-21.62
6469,-22.97
6480,-24.05
6492,-24.76
6504,-25.15
6516,-25.38
6528,-25.66
6540,-26.14
6552,-26.87
6564,-27.82
6576,-28.95
6588,-30.21
6600,-31.57
6612,-32.89
6624,-33.9
6636,-34.19
6648,-33.34
6659,-31.1
6670,-27.47
6682,-22.79
6694,-17.61
6706,-12.57
6718,-8.21
6730,-4.83
6742,-2.46
6754,-0.89
6766,0.22
6778,1.2
6790,2.3
6802,3.64
6814,5.19
6826,6.84
6838,8.44
6849,9.9
6860,11.16
6872,12.25
6884,13.14
6896,13.84
6908,14.3
6920,14.52
6932,14.58
6944,14.51
6956,14.34
6968,13.99
6980,13.25
6992,11.94
7004,9.92
7016,7.2
7028,3.97
7039,0.51
7050,-2.89
7062,-5.98
7074,-8.63
7086,-10.79
7098,-12.49
7110,-13.78
7122,-14.75
7134,-15.49
7146,-16.13
7158,-16.76
7170,-17.44
7182,-18.13
7194,-18.71
7206,-19.04
7218,-19.05
7229,-18.83
7240,-18.7
7252,-19.04
7264,-20.19
7276,-22.27
7288,-25.12
7300,-28.39
7312,-31.67
7324,-34.55
7336,-36.69
7348,-37.78
7360,-37.52
7372,-35.61
7384,-31.94
7396,-26.62
7408,-20.04
7419,-12.88
7430,-5.86
7442,0.39
7454,5.52
7466,9.46
7478,12.38
7490,14.61
7502,16.45
7514,18.19
7526,20.04
7538,22.17
7550,24.66
7562,27.56
7574,30.84
7586,34.37
7598,37.92
7609,41.22
7620,44.03
7632,46.26
7644,47.93
7656,49.13
7668,49.99
7680,50.57
7692,50.87
7704,50.89
7716,50.72
7728,50.53
7740,50.57
7752,50.94
7764,51.45
7776,51.59
7788,50.58
7799,47.69
7810,42.48
7822,34.96
7834,25.58
7846,15.04
7858,4.11
7870,-6.55
7882,-16.4
7894,-25.06
7906,-32.26
7918,-37.89
7930,-42.04
7942,-44.99
7954,-47.11
7966,-48.68
7978,-49.68
7989,-49.76
8000,-48.35
8012,-44.85
8024,-38.98
8036,-30.83
8048,-20.95
8060,-10.12
8072,0.81
8084,11.08
8096,20.05
8108,27.29
8120,32.54
8132,35.79
8144,37.28
8156,37.49
8168,36.99
8179,36.23
8190,35.43
8202,34.51
8214,33.21
8226,31.28
8238,28.59
8250,25.25
8262,21.5
8274,17.69
8286,14.13
8298,11.02
8310,8.36
8322,5.98
8334,3.48
8346,0.41
8358,-3.65
8369,-8.89
8380,-15.22
8392,-22.31
8404,-29.76
8416,-37.16
8428,-44.29
8440,-50.98
8452,-57.07
8464,-62.29
8476,-66.25
8488,-68.51
8500,-68.81
8512,-67.12
8524,-63.73
8536,-59.2
8548,-54.18
8559,-49.33
8570,-45.17
8582,-42.02
8594,-39.92
8606,-38.57
8618,-37.39
8630,-35.61
8642,-32.47
8654,-27.48
8666,-20.57
8678,-12.11
8690,-2.88
8702,6.24
8714,14.46
8726,21.21
8738,26.25
8749,29.59
8760,31.44
8772,32.14
8784,32.0
8796,31.28
8808,30.09
8820,28.39
8832,26.04
8844,22.93
8856,19.1
8868,14.79
8880,10.44
8892,6.61
8904,3.78
8916,2.23
8928,1.98
8939,2.78
8950,4.2
8962,5.74
8974,6.95
8986,7.52
8998,7.33
9010,6.46
9022,5.15
9034,3.73
9046,2.47
9058,1.54
9070,0.95
9082,0.56
9094,0.22
9106,-0.19
9118,-0.74
9129,-1.42
9140,-2.26
9152,-3.33
9164,-4.83
9176,-6.99
9188,-9.99
9200,-13.81
9212,-18.2
9224,-22.72
9236,-26.94
9248,-30.57
9260,-33.6
9272,-36.29
9284,-39.0
9296,-42.01
9308,-45.41
9319,-49.03
9330,-52.46
9342,-55.13
9354,-56.4
9366,-55.71
9378,-52.72
9390,-47.42
9402,-40.19
9414,-31.72
9426,-22.77
9438,-13.99
9450,-5.85
9462,1.39
9474,7.6
9486,12.71
9498,16.7
9509,19.69
9520,21.92
9532,23.75
9544,25.54
9556,27.6
9568,30.09
9580,33.02
9592,36.22
9604,39.45
9616,42.46
9628,45.02
9640,47.02
9652,48.48
9664,49.51
9676,50.21
9688,50.64
9699,50.7
9710,50.19
9722,48.9
9734,46.75
9746,43.8
9758,40.3
9770,36.5
9782,32.63
9794,28.78
9806,25.01
9818,21.41
9830,18.12
9842,15.32
9854,13.16
9866,11.63
9878,10.58
9889,9.76
9900,8.96
9912,8.12
9924,7.28
9936,6.55
9948,5.94
9960,5.4
9972,4.76
9984,3.82
9996,2.38
10008,0.25
10020,-2.74
10032,-6.63
10044,-11.28
10056,-16.28
10068,-20.97
10079,-24.59
10090,-26.52
10102,-26.4
10114,-24.31
10126,-20.67
10138,-16.09
10150,-11.16
10162,-6.41
10174,-2.2
10186,1.21
10198,3.65
10210,5.1
10222,5.64
10234,5.44
10246,4.74
10258,3.79
10269,2.79
10280,1.94
10292,1.34
10304,1.08
10316,1.15
10328,1.48
10340,1.95
10352,2.4
10364,2.67
10376,2.66
10388,2.32
10400,1.68
10412,0.78
10424,-0.35
10436,-1.69
10448,-3.26
10459,-5.02
10470,-6.88
10482,-8.7
10494,-10.3
10506,-11.54
10518,-12.38
10530,-12.87
10542,-13.14
10554,-13.31
10566,-13.41
10578,-13.41
10590,-13.2
10602,-12.74
10614,-12.05
10626,-11.26
10638,-10.54
10649,-10.08
10660,-9.98
10672,-10.21
10684,-10.66
10696,-11.12
10708,-11.32
10720,-11.04
10732,-10.08
10744,-8.39
10756,-5.98
10768,-3.01
10780,0.32
10792,3.73
10804,6.95
10816,9.68
10828,11.69
10839,12.86
10850,13.24
10862,13.02
10874,12.47
10886,11.85
10898,11.27
10910,10.75
10922,10.23
10934,9.63
10946,8.95
10958,8.23
10970,7.54
10982,6.94
10994,6.48
11006,6.18
11018,6.12
11029,6.28
11040,6.64
11052,7.02
11064,7.21
11076,7.02
11088,6.39
11100,5.39
11112,4.22
11124,3.05
11136,1.99
11148,1.01
11160,0.06
11172,-0.96
11184,-2.09
11196,-3.36
11208,-4.75
11219,-6.28
11230,-7.96
11242,-9.75
11254,-11.52
11266,-13.08
11278,-14.22
11290,-14.83
11302,-14.97
11314,-14.85
11326,-14.64
11338,-14.41
11350,-14.0
11362,-13.14
11374,-11.58
11386,-9.29
11398,-6.54
11409,-3.72
11420,-1.27
11432,0.57
11444,1.74
11456,2.34
11468,2.48
11480,2.22
11492,1.61
11504,0.74
11516,-0.25
11528,-1.09
11540,-1.55
11552,-1.48
11564,-0.9
11576,0.0
11588,0.96
11599,1.69
11610,2.0
11622,1.86
11634,1.42
11646,0.94
11658,0.68
11670,0.82
11682,1.35
11694,2.09
11706,2.77
11718,3.14
11730,3.09
11742,2.7
11754,2.15
11766,1.68
11778,1.45
11789,1.49
11800,1.7
11812,1.91
11824,1.95
11836,1.76
11848,1.34
11860,0.83
11872,0.37
11884,0.09
11896,0.06
11908,0.28
11920,0.68
11932,1.12
11944,1.46
11956,1.57
11968,1.39
11979,0.97
11990,0.47
12002,0.11
12014,0.11
12026,0.57
12038,1.44
12050,2.5
12062,3.55
12074,4.44
12086,5.1
12098,5.58
12110,5.94
12122,6.15
12134,6.14
12146,5.86
12158,5.33
12169,4.67
12180,4.05
12192,3.6
12204,3.37
12216,3.31
12228,3.34
12240,3.34
12252,3.24
12264,2.99
12276,2.54
12288,1.94
12300,1.28
12312,0.73
12324,0.42
12336,0.4
12348,0.59
12359,0.81
12370,0.87
12382,0.63
12394,0.08
12406,-0.71
12418,-1.64
12430,-2.63
12442,-3.67
12454,-4.73
12466,-5.79
12478,-6.82
12490,-7.8
12502,-8.76
12514,-9.75
12526,-10.85
12538,-12.05
12549,-13.3
12560,-14.51
12572,-15.63
12584,-16.73
12596,-17.98
12608,-19.58
12620,-21.63
12632,-24.05
12644,-26.51
12656,-28.58
12668,-29.8
12680,-29.9
12692,-28.83
12704,-26.85
12716,-24.43
12728,-22.15
12739,-20.54
12750,-19.93
12762,-20.33
12774,-21.4
12786,-22.57
12798,-23.2
12810,-22.82
12822,-21.23
12834,-18.57
12846,-15.21
12858,-11.57
12870,-7.94
12882,-4.47
12894,-1.11
12906,2.3
12918,5.9
12929,9.84
12940,14.2
12952,19.06
12964,24.42
12976,30.17
12988,36.05
13000,41.64
13012,46.5
13024,50.29
13036,52.85
13048,54.24
13060,54.6
13072,54.03
13084,52.52
13096,49.98
13108,46.35
13119,41.72
13130,36.35
13142,30.6
13154,24.79
13166,19.16
13178,13.85
13190,9.0
13202,4.75
13214,1.28
13226,-1.35
13238,-3.23
13250,-4.67
13262,-6.06
13274,-7.72
13286,-9.77
13298,-12.0
13309,-14.08
13320,-15.62
13332,-16.43
13344,-16.55
13356,-16.24
13368,-15.81
13380,-15.5
13392,-15.41
13404,-15.55
13416,-15.91
13428,-16.51
13440,-17.45
13452,-18.78
13464,-20.52
13476,-22.54
13488,-24.67
13499,-26.71
13510,-28.47
13522,-29.8
13534,-30.49
13546,-30.29
13558,-28.96
13570,-26.29
13582,-22.33
13594,-17.37
13606,-11.96
13618,-6.77
13630,-2.36
13642,0.9
13654,2.93
13666,3.84
13678,3.9
13689,3.37
13700,2.49
13712,1.47
13724,0.49
13736,-0.27
13748,-0.72
13760,-0.85
13772,-0.8
13784,-0.83
13796,-1.21
13808,-2.23
13820,-4.13
13832,-7.03
13844,-10.86
13856,-15.22
13868,-19.34
13879,-22.23
13890,-22.86
13902,-20.57
13914,-15.26
13926,-7.46
13938,1.84
13950,11.46
13962,20.38
13974,27.93
13986,33.74
13998,37.71
14010,39.87
14022,40.29
14034,39.18
14046,36.86
14058,33.79
14069,30.48
14080,27.36
14092,24.69
14104,22.47
14116,20.52
14128,18.6
14140,16.59
14152,14.58
14164,12.81
14176,11.51
14188,10.78
14200,10.4
14212,10.0
14224,9.17
14236,7.7
14248,5.6
14259,3.11
14270,0.44
14282,-2.29
14294,-5.15
14306,-8.34
14318,-11.99
14330,-16.11
14342,-20.55
14354,-25.04
14366,-29.3
14378,-33.1
14390,-36.36
14402,-39.08
14414,-41.45
14426,-43.72
14438,-46.23
14449,-49.22
14460,-52.64
14472,-56.06
14484,-58.66
14496,-59.44
14508,-57.52
14520,-52.5
14532,-44.56
14544,-34.43
14556,-23.08
14568,-11.45
14580,-0.18
14592,10.41
14604,20.18
14616,29.0
14628,36.61
14639,42.71
14650,47.0
14662,49.4
14674,50.07
14686,49.4
14698,47.85
14710,45.86
14722,43.76
14734,41.75
14746,40.0
14758,38.64
14770,37.73
14782,37.24
14794,37.01
14806,36.75
14818,36.16
14829,35.0
14840,33.16
14852,30.72
14864,27.91
14876,25.06
14888,22.5
14900,20.49
14912,19.1
14924,18.25
14936,17.65
14948,16.9
14960,15.64
14972,13.62
14984,10.79
14996,7.26
15008,3.16
15019,-1.38
15030,-6.33
15042,-11.56
15054,-16.77
15066,-21.33
15078,-24.39
15090,-25.08
15102,-22.82
15114,-17.6
15126,-9.97
15138,-0.9
15150,8.54
15162,17.46
15174,25.32
15186,31.87
15198,37.12
15209,41.13
15220,43.98
15232,45.68
15244,46.26
15256,45.76
15268,44.28
15280,42.01
15292,39.23
15304,36.27
15316,33.39
15328,30.7
15340,28.18
15352,25.69
15364,23.1
15376,20.38
15388,17.59
15399,14.84
15410,12.19
15422,9.61
15434,7.02
15446,4.34
15458,1.53
15470,-1.37
15482,-4.28
15494,-7.1
15506,-9.79
15518,-12.34
15530,-14.78
15542,-17.17
15554,-19.53
15566,-21.97
15578,-24.58
15589,-27.5
15600,-30.85
15612,-34.65
15624,-38.72
15636,-42.57
15648,-45.44
15660,-46.47
15672,-44.94
15684,-40.6
15696,-33.74
15708,-25.16
15720,-15.92
15732,-6.95
15744,1.05
15756,7.76
15768,13.14
15779,17.26
15790,20.21
15802,22.08
15814,22.98
15826,23.04
15838,22.39
15850,21.11
15862,19.31
15874,17.07
15886,14.56
15898,11.97
15910,9.52
15922,7.41
15934,5.77
15946,4.57
15958,3.68
15969,2.9
15980,1.99
15992,0.75
16004,-0.86
16016,-2.8
16028,-4.91
16040,-7.04
16052,-9.06
16064,-10.96
16076,-12.78
16088,-14.6
16100,-16.45
16112,-18.31
16124,-20.18
16136,-22.04
16148,-23.97
16159,-26.03
16170,-28.26
16182,-30.7
16194,-33.36
16206,-36.28
16218,-39.52
16230,-42.99
16242,-46.37
16254,-49.01
16266,-50.0
16278,-48.52
16290,-44.1
16302,-36.93
16314,-27.82
16326,-17.83
16338,-8.0
16349,1.04
16360,9.01
16372,15.89
16384,21.63
16396,26.13
16408,29.21
16420,30.85
16432,31.18
16444,30.57
16456,29.44
16468,28.16
16480,26.94
16492,25.89
16504,25.0
16516,24.23
16528,23.57
16539,23.0
16550,22.56
16562,22.21
16574,21.92
16586,21.57
16598,20.99
16610,20.06
16622,18.68
16634,16.92
16646,14.91
16658,12.87
16670,10.94
16682,9.16
16694,7.42
16706,5.54
16718,3.33
16729,0.67
16740,-2.43
16752,-5.84
16764,-9.33
16776,-12.61
16788,-15.51
16800,-17.98
16812,-20.16
16824,-22.34
16836,-24.87
16848,-28.02
16860,-31.86
16872,-36.17
16884,-40.41
16896,-43.77
16908,-45.39
16919,-44.55
16930,-40.92
16942,-34.73
16954,-26.67
16966,-17.74
16978,-8.89
16990,-0.81
17002,6.19
17014,12.08
17026,16.94
17038,20.73
17050,23.32
17062,24.53
17074,24.33
17086,22.93
17098,20.69
17109,18.02
17120,15.23
17132,12.47
17144,9.76
17156,7.19
17168,4.92
17180,3.18
17192,2.16
17204,1.92
17216,2.29
17228,2.94
17240,3.52
17252,3.81
17264,3.76
17276,3.53
17288,3.35
17299,3.39
17310,3.62
17322,3.84
17334,3.75
17346,3.06
17358,1.69
17370,-0.28
17382,-2.65
17394,-5.19
17406,-7.79
17418,-10.43
17430,-13.23
17442,-16.33
17454,-19.83
17466,-23.71
17478,-27.81
17489,-31.72
17500,-34.82
17512,-36.41
17524,-35.88
17536,-32.95
17548,-27.79
17560,-21.0
17572,-13.33
17584,-5.54
17596,1.8
17608,8.32
17620,13.81
17632,18.08
17644,21.01
17656,22.57
17668,22.88
17679,22.19
17690,20.84
17702,19.15
17714,17.37
17726,15.65
17738,14.07
17750,12.75
17762,11.82
17774,11.46
17786,11.82
17798,12.96
17810,14.83
17822,17.18
17834,19.66
17846,21.91
17858,23.65
17869,24.83
17880,25.55
17892,26.01
17904,26.37
17916,26.59
17928,26.51
17940,25.91
17952,24.63
17964,22.63
17976,20.0
17988,16.88
18000,13.43
18012,9.7
18024,5.69
18036,1.3
18048,-3.62
18059,-9.27
18070,-15.7
18082,-22.76
18094,-29.86
18106,-36.02
18118,-40.1
18130,-41.14
18142,-38.67
18154,-32.98
18166,-24.92
18178,-15.73
18190,-6.56
18202,1.77
18214,8.89
18226,14.79
18238,19.59
18249,23.4
18260,26.17
18272,27.84
18284,28.37
18296,27.87
18308,26.62
18320,24.9
18332,22.98
18344,21.06
18356,19.27
18368,17.74
18380,16.62
18392,16.04
18404,16.03
18416,16.49
18428,17.16
18439,17.69
18450,17.81
18462,17.33
18474,16.23
18486,14.62
18498,12.7
18510,10.63
18522,8.57
18534,6.5
18546,4.34
18558,1.88
18570,-1.04
18582,-4.5
18594,-8.39
18606,-12.46
18618,-16.42
18629,-20.01
18640,-23.13
18652,-25.82
18664,-28.29
18676,-30.86
18688,-33.83
18700,-37.38
18712,-41.42
18724,-45.46
18736,-48.71
18748,-50.25
18760,-49.3
18772,-45.5
18784,-39.03
18796,-30.52
18808,-20.87
18819,-10.95
18830,-1.47
18842,7.13
18854,14.59
18866,20.77
18878,25.64
18890,29.22
18902,31.61
18914,32.94
18926,33.41
18938,33.26
18950,32.78
18962,32.24
18974,31.88
18986,31.76
18998,31.77
19009,31.67
19020,31.31
19032,30.66
19044,29.89
19056,29.2
19068,28.66
19080,28.16
19092,27.47
19104,26.41
19116,25.07
19128,23.7
19140,22.6
19152,21.86
19164,21.29
19176,20.47
19188,18.9
19199,16.13
19210,11.81
19222,5.61
19234,-2.78
19246,-13.42
19258,-25.98
19270,-39.67
19282,-53.4
19294,-66.19
19306,-77.51
19318,-87.53
19330,-96.96
19342,-106.69
19354,-117.25
19366,-128.57
19378,-139.86
19389,-149.91
19400,-157.36
19412,-161.04
19424,-160.3
19436,-155.03
19448,-145.74
19460,-133.43
19472,-119.34
19484,-104.73
19496,-90.71
19508,-78.06
19520,-67.23
19532,-58.37
19544,-51.32
19556,-45.76
19568,-41.24
19579,-37.23
19590,-33.11
19602,-28.19
19614,-21.77
19626,-13.45
19638,-3.23
19650,8.28
19662,20.06
19674,31.0
19686,40.3
19698,47.69
19710,53.35
19722,57.47
19734,60.03
19746,60.67
19758,59.0
19769,55.04
19780,49.48
19792,43.58
19804,38.68
19816,35.62
19828,34.39
19840,34.19
19852,33.87
19864,32.5
19876,29.71
19888,25.74
19900,21.18
19912,16.64
19924,12.47
19936,8.75
19948,5.53
19959,2.94
19970,1.38
19982,1.32
19994,3.14
20006,6.82
20018,11.96
20030,17.87
20042,23.83
20054,29.41
20066,34.43
20078,38.97
20090,43.09
20102,46.73
20114,49.69
20126,51.75
20138,52.79
20149,52.81
20160,51.97
20172,50.43
20184,48.36
20196,45.91
20208,43.25
20220,40.55
20232,37.96
20244,35.56
20256,33.29
20268,31.05
20280,28.75
20292,26.44
20304,24.32
20316,22.69
20328,21.85
20339,21.92
20350,22.88
20362,24.45
20374,26.28
20386,27.97
20398,29.21
20410,29.81
20422,29.74
20434,29.09
20446,28.01
20458,26.68
20470,25.26
20482,23.96
20494,23.17
20506,23.51
20518,25.85
20529,31.14
20540,40.13
20552,53.15
20564,69.92
20576,89.53
20588,110.53
20600,131.06
20612,149.0
20624,162.27
20636,169.07
20648,168.23
20660,159.51
20672,143.72
20684,122.58
20696,98.38
20708,73.49
20719,49.93
20730,29.13
20742,11.8
20754,-1.92
20766,-12.34
20778,-20.09
20790,-25.89
20802,-30.46
20814,-34.33
20826,-37.78
20838,-40.84
20850,-43.48
20862,-45.75
20874,-47.96
20886,-50.61
20898,-54.26
20909,-59.16
20920,-65.17
20932,-71.72
20944,-78.08
20956,-83.68
20968,-88.27
20980,-92.0
20992,-95.22
