seconds,BVP
5,-37.6
16,-45.59
27,-54.34
39,-63.52
51,-72.63
63,-81.06
75,-88.25
87,-93.93
99,-98.29
111,-102.16
123,-106.78
135,-113.42
147,-122.78
159,-134.43
171,-146.77
183,-157.45
195,-164.21
206,-165.81
217,-162.39
229,-155.41
241,-146.93
253,-138.79
265,-132.12
277,-127.19
289,-123.78
301,-121.65
313,-120.86
325,-121.76
337,-124.67
349,-129.48
361,-135.25
373,-140.27
385,-142.44
396,-139.95
407,-131.99
419,-119.17
431,-103.47
443,-87.67
455,-74.54
467,-66.16
479,-63.48
491,-66.34
503,-73.77
515,-84.25
527,-95.9
539,-106.66
551,-114.52
563,-118.0
575,-116.65
586,-111.15
597,-102.83
609,-93.11
621,-82.82
633,-71.87
645,-59.48
657,-44.79
669,-27.49
681,-8.2
693,11.61
705,30.29
717,46.42
729,59.25
741,68.81
753,75.8
765,81.29
776,86.29
787,91.3
799,96.28
811,101.25
823,106.07
835,110.39
847,113.73
859,115.62
871,115.67
883,113.69
895,109.56
907,103.43
919,96.54
931,90.05
943,84.31
955,78.83
966,72.72
977,65.42
989,57.08
1001,48.46
1013,40.75
1025,36.57
1037,37.97
1049,45.23
1061,57.13
1073,71.67
1085,87.46
1097,103.98
1109,121.39
1121,140.17
1133,162.42
1145,189.31
1156,219.71
1167,250.68
1179,278.43
1191,300.52
1203,316.72
1215,328.81
1227,328.37
1239,311.27
1251,280.92
1263,246.46
1275,215.75
1287,190.2
1299,167.79
1311,145.98
1323,123.38
1335,99.7
1346,77.2
1357,58.9
1369,44.19
1381,31.74
1393,18.98
1405,3.96
1417,-14.93
1429,-39.08
1441,-68.98
1453,-102.05
1465,-134.28
1477,-162.33
1489,-177.18
1501,-174.88
1513,-156.06
1525,-126.25
1536,-94.14
1547,-68.37
1559,-53.37
1571,-49.03
1583,-51.96
1595,-57.45
1607,-62.78
1619,-66.63
1631,-68.83
1643,-69.37
1655,-67.62
1667,-62.07
1679,-51.56
1691,-36.45
1703,-18.52
1715,-1.38
1726,11.79
1737,19.2
1749,20.94
1761,18.67
1773,14.84
1785,11.57
1797,9.85
1809,9.7
1821,9.98
1833,9.83
1845,8.99
1857,7.92
1869,7.48
1881,8.43
1893,11.15
1905,15.37
1916,20.37
1927,24.88
1939,27.69
1951,28.0
1963,25.71
1975,21.45
1987,16.37
1999,11.7
2011,8.32
2023,6.47
2035,5.63
2047,4.99
2059,3.82
2071,1.82
2083,-0.86
2095,-3.76
2106,-6.5
2117,-8.98
2129,-11.46
2141,-14.37
2153,-18.02
2165,-22.44
2177,-27.34
2189,-32.24
2201,-36.75
2213,-40.56
2225,-43.5
2237,-45.38
2249,-45.8
2261,-44.17
2273,-39.78
2285,-32.05
2296,-20.8
2307,-6.29
2319,10.71
2331,29.25
2343,48.31
2355,67.0
2367,84.65
2379,100.74
2391,114.93
2403,127.05
2415,137.2
2427,145.72
2439,153.09
2451,159.58
2463,164.99
2475,168.52
2486,168.9
2497,164.87
2509,155.66
2521,141.25
2533,122.45
2545,100.45
2557,76.56
2569,51.88
2581,27.28
2593,3.48
2605,-18.74
2617,-38.69
2629,-55.84
2641,-70.1
2653,-81.78
2665,-91.55
2676,-100.11
2687,-107.89
2699,-114.94
2711,-120.98
2723,-125.66
2735,-128.82
2747,-130.59
2759,-131.4
2771,-131.81
2783,-132.24
2795,-132.81
2807,-133.24
2819,-132.98
2831,-131.28
2843,-127.45
2855,-121.04
2866,-111.95
2877,-100.53
2889,-87.39
2901,-73.37
2913,-59.24
2925,-45.6
2937,-32.8
2949,-20.97
2961,-10.08
2973,-0.09
2985,9.06
2997,17.43
3009,25.07
3021,31.99
3033,38.1
3045,43.19
3056,46.92
3067,48.91
3079,48.91
3091,46.9
3103,43.22
3115,38.47
3127,33.47
3139,29.01
3151,25.66
3163,23.61
3175,22.72
3187,22.55
3199,22.58
3211,22.36
3223,21.56
3235,20.04
3246,17.73
3257,14.69
3269,11.0
3281,6.82
3293,2.3
3305,-2.35
3317,-6.95
3329,-11.34
3341,-15.41
3353,-19.05
3365,-22.21
3377,-24.86
3389,-26.87
3401,-28.11
3413,-28.34
3425,-27.34
3436,-24.98
3447,-21.33
3459,-16.73
3471,-11.73
3483,-6.93
3495,-2.85
3507,0.19
3519,2.02
3531,2.64
3543,2.17
3555,0.83
3567,-1.1
3579,-3.24
3591,-5.29
3603,-7.06
3615,-8.55
3626,-9.85
3637,-11.18
3649,-12.75
3661,-14.67
3673,-17.0
3685,-19.79
3697,-23.07
3709,-26.91
3721,-31.38
3733,-36.49
3745,-42.05
3757,-47.86
3769,-53.69
3781,-59.43
3793,-65.14
3805,-70.9
3816,-76.64
3827,-82.02
3839,-86.49
3851,-89.39
3863,-90.32
3875,-89.31
3887,-86.76
3899,-83.26
3911,-79.34
3923,-75.31
3935,-71.36
3947,-67.69
3959,-64.58
3971,-62.27
3983,-60.62
3995,-59.05
4006,-56.6
4017,-52.26
4029,-45.46
4041,-36.37
4053,-25.79
4065,-14.82
4077,-4.41
4089,5.0
4101,13.41
4113,21.07
4125,28.07
4137,34.2
4149,39.02
4161,42.11
4173,43.27
4185,42.73
4196,41.07
4207,39.01
4219,37.19
4231,35.93
4243,35.22
4255,34.75
4267,34.05
4279,32.76
4291,30.75
4303,28.08
4315,25.06
4327,22.01
4339,19.04
4351,16.01
4363,12.53
4375,8.2
4386,2.65
4397,-4.11
4409,-11.81
4421,-19.91
4433,-27.83
4445,-35.13
4457,-41.55
4469,-47.13
4481,-52.1
4493,-56.92
4505,-62.16
4517,-68.36
4529,-75.76
4541,-83.93
4553,-91.66
4565,-97.11
4576,-98.26
4587,-93.68
4599,-83.12
4611,-67.77
4623,-49.82
4635,-31.76
4647,-15.53
4659,-1.99
4671,9.02
4683,18.11
4695,25.81
4707,32.2
4719,36.99
4731,39.91
4743,41.08
4755,41.19
4766,41.27
4777,42.25
4789,44.47
4801,47.55
4813,50.54
4825,52.4
4837,52.42
4849,50.5
4861,47.03
4873,42.52
4885,37.25
4897,31.18
4909,24.06
4921,15.86
4933,6.97
4945,-1.79
4956,-9.51
4967,-15.67
4979,-20.37
4991,-24.33
5003,-28.53
5015,-33.77
5027,-40.43
5039,-48.57
5051,-57.98
5063,-68.45
5075,-79.54
5087,-90.46
5099,-99.89
5111,-106.12
5123,-107.47
5135,-102.84
5146,-92.16
5157,-76.36
5169,-57.1
5181,-36.23
5193,-15.42
5205,4.0
5217,20.97
5229,34.7
5241,44.63
5253,50.66
5265,53.17
5277,53.03
5289,51.37
5301,49.28
5313,47.57
5325,46.66
5336,46.65
5347,47.48
5359,48.97
5371,50.97
5383,53.24
5395,55.46
5407,57.22
5419,58.1
5431,57.79
5443,56.11
5455,53.06
5467,48.68
5479,42.97
5491,35.92
5503,27.51
5515,17.92
5526,7.67
5537,-2.51
5549,-11.89
5561,-20.07
5573,-27.18
5585,-33.78
5597,-40.67
5609,-48.53
5621,-57.76
5633,-68.42
5645,-80.21
5657,-92.4
5669,-103.73
5681,-112.34
5693,-116.12
5705,-113.27
5716,-102.92
5727,-85.59
5739,-63.12
5751,-38.09
5763,-13.1
5775,9.95
5787,30.01
5799,46.73
5811,60.06
5823,69.98
5835,76.46
5847,79.54
5859,79.61
5871,77.5
5883,74.4
5895,71.6
5906,70.11
5917,70.35
5929,72.16
5941,74.87
5953,77.74
5965,80.2
5977,82.02
5989,83.19
6001,83.75
6013,83.6
6025,82.42
6037,79.93
6049,75.98
6061,70.69
6073,64.34
6085,57.27
6096,49.66
6107,41.58
6119,33.04
6131,24.19
6143,15.25
6155,6.55
6167,-1.69
6179,-9.41
6191,-16.72
6203,-23.93
6215,-31.47
6227,-39.87
6239,-49.58
6251,-60.68
6263,-72.59
6275,-83.73
6286,-91.81
6297,-94.32
6309,-89.44
6321,-76.79
6333,-57.63
6345,-34.52
6357,-10.43
6369,12.15
6381,31.77
6393,48.04
6405,61.16
6417,71.4
6429,78.91
6441,83.7
6453,85.93
6465,86.06
6476,84.8
6487,82.9
6499,80.91
6511,79.12
6523,77.56
6535,76.21
6547,75.02
6559,73.97
6571,72.91
6583,71.66
6595,70.09
6607,68.29
6619,66.56
6631,65.29
6643,64.64
6655,64.37
6666,63.84
6677,62.31
6689,59.27
6701,54.69
6713,49.03
6725,42.96
6737,37.11
6749,31.8
6761,27.03
6773,22.62
6785,18.21
6797,13.3
6809,7.2
6821,-1.0
6833,-12.08
6845,-26.32
6856,-42.86
6867,-59.69
6879,-73.83
6891,-82.32
6903,-83.15
6915,-76.0
6927,-62.31
6939,-44.62
6951,-25.62
6963,-7.35
6975,9.06
6987,23.25
6999,35.04
7011,44.07
7023,49.82
7035,51.88
7046,50.33
7057,45.99
7069,40.25
7081,34.64
7093,30.42
7105,28.21
7117,28.08
7129,29.66
7141,32.5
7153,36.22
7165,40.6
7177,45.5
7189,50.82
7201,56.43
7213,62.11
7225,67.48
7236,71.94
7247,74.58
7259,74.35
7271,70.27
7283,61.95
7295,49.79
7307,35.09
7319,19.58
7331,4.84
7343,-8.27
7355,-19.78
7367,-30.42
7379,-41.03
7391,-52.15
7403,-63.69
7415,-75.02
7426,-85.02
7437,-92.43
7449,-95.91
7461,-94.38
7473,-87.19
7485,-74.5
7497,-57.43
7509,-37.96
7521,-18.51
7533,-1.34
7545,11.97
7557,20.8
7569,25.34
7581,26.19
7593,24.03
7605,19.45
7616,13.0
7627,5.38
7639,-2.47
7651,-9.48
7663,-14.68
7675,-17.6
7687,-18.41
7699,-17.85
7711,-16.92
7723,-16.39
7735,-16.55
7747,-17.2
7759,-17.86
7771,-18.15
7783,-18.0
7795,-17.79
7806,-18.1
7817,-19.56
7829,-22.54
7841,-27.05
7853,-32.78
7865,-39.23
7877,-45.83
7889,-52.12
7901,-57.74
7913,-62.48
7925,-66.24
7937,-69.1
7949,-71.27
7961,-73.24
7973,-75.6
7985,-78.77
7996,-82.73
8007,-86.66
8019,-89.03
8031,-87.93
8043,-81.76
8055,-69.82
8067,-52.67
8079,-31.91
8091,-9.76
8103,11.63
8115,30.68
8127,46.52
8139,58.91
8151,68.0
8163,74.16
8175,77.88
8186,79.78
8197,80.5
8209,80.69
8221,80.87
8233,81.3
8245,82.08
8257,83.14
8269,84.37
8281,85.74
8293,87.26
8305,88.96
8317,90.8
8329,92.62
8341,94.07
8353,94.74
8365,94.27
8376,92.49
8387,89.45
8399,85.46
8411,80.92
8423,76.16
8435,71.36
8447,66.49
8459,61.36
8471,55.74
8483,49.41
8495,42.13
8507,33.66
8519,23.77
8531,12.38
8543,-0.38
8555,-14.06
8566,-28.08
8577,-41.94
8589,-55.46
8601,-68.69
8613,-81.68
8625,-93.93
8637,-104.11
8649,-110.26
8661,-110.25
8673,-102.69
8685,-87.6
8697,-66.53
8709,-42.2
8721,-17.59
8733,4.72
8745,23.03
8756,36.46
8767,44.76
8779,48.03
8791,46.85
8803,42.35
8815,36.19
8827,30.2
8839,25.79
8851,23.4
8863,22.39
8875,21.43
8887,19.18
8899,14.86
8911,8.61
8923,1.13
8935,-6.6
8946,-13.83
8957,-20.14
8969,-25.43
8981,-29.72
8993,-33.08
9005,-35.64
9017,-37.54
9029,-39.03
9041,-40.4
9053,-41.93
9065,-43.8
9077,-46.08
9089,-48.64
9101,-51.23
9113,-53.57
9125,-55.48
9136,-57.0
9147,-58.38
9159,-60.01
9171,-62.28
9183,-65.27
9195,-68.59
9207,-71.4
9219,-72.56
9231,-71.06
9243,-66.3
9255,-58.18
9267,-46.94
9279,-32.74
9291,-15.38
9303,5.72
9315,31.22
9326,61.38
9337,95.61
9349,132.43
9361,169.71
9373,205.18
9385,236.77
9397,262.96
9409,282.77
9421,295.85
9433,302.37
9445,303.04
9457,298.79
9469,290.49
9481,278.82
9493,264.16
9505,246.78
9516,226.99
9527,205.19
9539,181.76
9551,156.76
9563,129.87
9575,100.51
9587,68.24
9599,33.03
9611,-4.48
9623,-43.12
9635,-81.42
9647,-117.92
9659,-151.44
9671,-181.0
9683,-205.81
9695,-225.16
9706,-238.45
9717,-245.34
9729,-245.93
9741,-240.84
9753,-231.19
9765,-218.35
9777,-203.68
9789,-188.29
9801,-173.01
9813,-158.57
9825,-145.73
9837,-135.25
9849,-127.57
9861,-122.38
9873,-118.32
9885,-113.21
9896,-104.72
9907,-91.28
9919,-72.64
9931,-49.98
9943,-25.45
9955,-1.31
9967,20.71
9979,39.69
9991,55.44
10003,68.11
10015,77.99
10027,85.32
10039,90.35
10051,93.42
10063,94.9
10075,95.17
10086,94.48
10097,92.86
10109,90.19
10121,86.25
10133,80.88
10145,74.06
10157,66.04
10169,57.24
10181,48.22
10193,39.51
10205,31.49
10217,24.33
10229,18.0
10241,12.33
10253,7.07
10265,1.99
10276,-3.12
10287,-8.27
10299,-13.42
10311,-18.3
10323,-22.66
10335,-26.35
10347,-29.39
10359,-32.07
10371,-34.85
10383,-38.27
10395,-42.77
10407,-48.58
10419,-55.51
10431,-62.84
10443,-69.34
10455,-73.43
10466,-73.72
10477,-69.42
10489,-60.76
10501,-48.93
10513,-35.68
10525,-22.74
10537,-11.29
10549,-1.82
10561,5.71
10573,11.57
10585,15.93
10597,18.85
10609,20.34
10621,20.54
10633,19.87
10645,18.92
10656,18.26
10667,18.35
10679,19.33
10691,21.15
10703,23.61
10715,26.51
10727,29.69
10739,33.03
10751,36.35
10763,39.36
10775,41.66
10787,42.85
10799,42.6
10811,40.83
10823,37.67
10835,33.34
10846,28.07
10857,22.0
10869,15.11
10881,7.34
10893,-1.35
10905,-10.86
10917,-20.91
10929,-31.01
10941,-40.57
10953,-49.05
10965,-56.13
10977,-61.81
10989,-66.47
11001,-70.82
11013,-75.62
11025,-81.47
11036,-88.44
11047,-95.95
11059,-102.72
11071,-107.07
11083,-107.42
11095,-102.8
11107,-93.15
11119,-79.4
11131,-63.09
11143,-45.95
11155,-29.49
11167,-14.71
11179,-2.21
11191,7.74
11203,15.08
11215,19.89
11226,22.51
11237,23.41
11249,23.21
11261,22.42
11273,21.41
11285,20.31
11297,19.22
11309,18.21
11321,17.5
11333,17.29
11345,17.69
11357,18.65
11369,19.93
11381,21.11
11393,21.77
11405,21.57
11416,20.36
11427,18.17
11439,15.17
11451,11.69
11463,8.05
11475,4.55
11487,1.34
11499,-1.61
11511,-4.47
11523,-7.4
11535,-10.57
11547,-13.94
11559,-17.4
11571,-20.79
11583,-24.03
11595,-27.18
11606,-30.47
11617,-34.24
11629,-38.88
11641,-44.64
11653,-51.49
11665,-58.98
11677,-66.15
11689,-71.66
11701,-74.11
11713,-72.34
11725,-65.91
11737,-55.22
11749,-41.46
11761,-26.26
11773,-11.3
11785,2.19
11796,13.55
11807,22.65
11819,29.64
11831,34.69
11843,37.88
11855,39.23
11867,38.81
11879,36.95
11891,34.19
11903,31.27
11915,28.92
11927,27.63
11939,27.52
11951,28.42
11963,29.83
11975,31.22
11986,32.11
11997,32.33
12009,32.0
12021,31.45
12033,31.02
12045,30.85
12057,30.78
12069,30.38
12081,29.18
12093,26.89
12105,23.53
12117,19.51
12129,15.37
12141,11.65
12153,8.64
12165,6.36
12176,4.55
12187,2.77
12199,0.52
12211,-2.7
12223,-7.19
12235,-12.88
12247,-19.03
12259,-24.14
12271,-26.14
12283,-22.99
12295,-13.69
12307,0.99
12319,18.21
12331,33.64
12343,42.68
12355,42.01
12366,30.69
12377,10.56
12389,-14.48
12401,-39.62
12413,-60.61
12425,-74.66
12437,-80.75
12449,-79.37
12461,-71.84
12473,-59.81
12485,-45.03
12497,-29.2
12509,-14.12
12521,-1.5
12533,7.19
12545,11.18
12556,10.57
12567,6.36
12579,0.07
12591,-6.75
12603,-12.96
12615,-17.99
12627,-21.86
12639,-24.84
12651,-27.3
12663,-29.39
12675,-31.02
12687,-31.93
12699,-31.76
12711,-30.39
12723,-27.98
12735,-25.06
12746,-22.54
12757,-21.79
12769,-24.59
12781,-32.88
12793,-48.08
12805,-70.22
12817,-97.22
12829,-124.93
12841,-148.09
12853,-161.82
12865,-163.2
12877,-152.08
12889,-130.91
12901,-103.75
12913,-75.0
12925,-48.42
12936,-26.54
12947,-10.61
12959,-0.63
12971,4.36
12983,6.04
12995,6.42
13007,7.32
13019,9.98
13031,14.87
13043,21.74
13055,29.76
13067,37.87
13079,45.05
13091,50.6
13103,54.3
13115,56.43
13126,57.65
13137,58.61
13149,59.75
13161,61.02
13173,62.01
13185,62.08
13197,60.65
13209,57.44
13221,52.52
13233,46.27
13245,39.26
13257,32.08
13269,25.17
13281,18.87
13293,13.36
13305,8.67
13316,4.76
13327,1.37
13339,-1.88
13351,-5.47
13363,-9.84
13375,-15.3
13387,-21.9
13399,-29.42
13411,-37.35
13423,-44.9
13435,-50.99
13447,-54.42
13459,-54.04
13471,-49.11
13483,-39.62
13495,-26.37
13506,-10.87
13517,5.08
13529,19.84
13541,32.33
13553,42.17
13565,49.48
13577,54.6
13589,57.81
13601,59.24
13613,58.95
13625,57.2
13637,54.51
13649,51.62
13661,49.22
13673,47.68
13685,46.95
13696,46.68
13707,46.47
13719,46.15
13731,45.75
13743,45.4
13755,45.07
13767,44.46
13779,43.04
13791,40.39
13803,36.38
13815,31.32
13827,25.76
13839,20.27
13851,15.15
13863,10.42
13875,5.91
13886,1.43
13897,-3.08
13909,-7.48
13921,-11.63
13933,-15.36
13945,-18.66
13957,-21.58
13969,-24.28
13981,-26.96
13993,-29.89
14005,-33.42
14017,-37.95
14029,-43.67
14041,-50.49
14053,-57.73
14065,-64.23
14076,-68.51
14087,-69.19
14099,-65.42
14111,-57.1
14123,-44.99
14135,-30.44
14147,-15.03
14159,-0.19
14171,13.02
14183,24.01
14195,32.6
14207,38.82
14219,42.87
14231,44.99
14243,45.47
14255,44.67
14266,42.99
14277,40.9
14289,38.89
14301,37.35
14313,36.57
14325,36.61
14337,37.32
14349,38.41
14361,39.49
14373,40.19
14385,40.24
14397,39.44
14409,37.74
14421,35.16
14433,31.82
14445,27.93
14456,23.71
14467,19.47
14479,15.47
14491,11.87
14503,8.63
14515,5.54
14527,2.28
14539,-1.41
14551,-5.54
14563,-9.87
14575,-14.01
14587,-17.68
14599,-20.84
14611,-23.85
14623,-27.32
14635,-31.82
14646,-37.64
14657,-44.51
14669,-51.55
14681,-57.43
14693,-60.73
14705,-60.33
14717,-55.75
14729,-47.23
14741,-35.74
14753,-22.63
14765,-9.28
14777,3.13
14789,13.84
14801,22.45
14813,28.83
14825,32.99
14836,35.07
14847,35.3
14859,34.05
14871,31.83
14883,29.19
14895,26.68
14907,24.74
14919,23.6
14931,23.26
14943,23.5
14955,24.01
14967,24.47
14979,24.67
14991,24.51
15003,23.96
15015,22.95
15026,21.41
15037,19.29
15049,16.6
15061,13.43
15073,9.94
15085,6.24
15097,2.41
15109,-1.55
15121,-5.58
15133,-9.57
15145,-13.35
15157,-16.81
15169,-19.98
15181,-23.04
15193,-26.36
15205,-30.25
15216,-34.93
15227,-40.38
15239,-46.34
15251,-52.2
15263,-57.05
15275,-59.86
15287,-59.58
15299,-55.56
15311,-47.78
15323,-36.92
15335,-24.26
15347,-11.28
15359,0.7
15371,10.82
15383,18.75
15395,24.52
15406,28.33
15417,30.38
15429,30.83
15441,29.86
15453,27.84
15465,25.29
15477,22.84
15489,21.1
15501,20.45
15513,20.93
15525,22.3
15537,24.05
15549,25.7
15561,26.9
15573,27.44
15585,27.29
15596,26.51
15607,25.12
15619,23.15
15631,20.56
15643,17.41
15655,13.8
15667,9.91
15679,5.91
15691,1.94
15703,-2.02
15715,-6.03
15727,-10.1
15739,-14.13
15751,-18.01
15763,-21.63
15775,-25.01
15786,-28.44
15797,-32.33
15809,-37.1
15821,-42.92
15833,-49.54
15845,-56.24
15857,-61.9
15869,-65.25
15881,-65.22
15893,-61.17
15905,-53.12
15917,-41.77
15929,-28.34
15941,-14.26
15953,-0.84
15965,10.99
15976,20.79
15987,28.48
15999,34.23
16011,38.21
16023,40.59
16035,41.55
16047,41.3
16059,40.22
16071,38.73
16083,37.24
16095,36.04
16107,35.26
16119,34.92
16131,34.98
16143,35.4
16155,36.18
16166,37.23
16177,38.39
16189,39.3
16201,39.54
16213,38.71
16225,36.58
16237,33.21
16249,28.98
16261,24.38
16273,19.89
16285,15.73
16297,11.83
16309,7.95
16321,3.91
16333,-0.37
16345,-4.74
16356,-9.05
16367,-13.15
16379,-17.03
16391,-20.69
16403,-24.21
16415,-27.68
16427,-31.34
16439,-35.5
16451,-40.46
16463,-46.22
16475,-52.21
16487,-57.31
16499,-60.06
16511,-59.21
16523,-54.18
16535,-45.3
16546,-33.7
16557,-20.82
16569,-8.02
16581,3.77
16593,14.14
16605,22.96
16617,30.2
16629,35.78
16641,39.58
16653,41.56
16665,41.9
16677,41.03
16689,39.5
16701,37.87
16713,36.53
16725,35.7
16736,35.41
16747,35.59
16759,36.13
16771,36.88
16783,37.6
16795,38.04
16807,37.96
16819,37.2
16831,35.75
16843,33.63
16855,30.96
16867,27.78
16879,24.22
16891,20.41
16903,16.56
16915,12.82
16926,9.21
16937,5.56
16949,1.55
16961,-3.05
16973,-8.23
16985,-13.7
16997,-18.93
17009,-23.47
17021,-27.11
17033,-30.0
17045,-32.57
17057,-35.31
17069,-38.66
17081,-42.83
17093,-47.74
17105,-52.95
17116,-57.63
17127,-60.69
17139,-61.05
17151,-57.96
17163,-51.3
17175,-41.62
17187,-30.06
17199,-17.87
17211,-6.13
17223,4.44
17235,13.49
17247,20.87
17259,26.46
17271,30.15
17283,31.9
17295,31.89
17306,30.53
17317,28.45
17329,26.27
17341,24.46
17353,23.26
17365,22.58
17377,22.27
17389,22.12
17401,22.09
17413,22.14
17425,22.27
17437,22.33
17449,22.04
17461,21.13
17473,19.38
17485,16.8
17496,13.58
17507,9.99
17519,6.27
17531,2.56
17543,-1.1
17555,-4.71
17567,-8.28
17579,-11.79
17591,-15.18
17603,-18.4
17615,-21.42
17627,-24.22
17639,-26.87
17651,-29.53
17663,-32.51
17675,-36.08
17686,-40.46
17697,-45.45
17709,-50.39
17721,-54.19
17733,-55.61
17745,-53.65
17757,-47.95
17769,-38.91
17781,-27.58
17793,-15.32
17805,-3.42
17817,7.19
17829,16.01
17841,22.92
17853,27.95
17865,31.18
17876,32.67
17887,32.47
17899,30.73
17911,27.81
17923,24.27
17935,20.88
17947,18.33
17959,17.08
17971,17.14
17983,18.16
17995,19.54
18007,20.68
18019,21.21
18031,20.98
18043,20.04
18055,18.53
18066,16.61
18077,14.45
18089,12.15
18101,9.74
18113,7.23
18125,4.51
18137,1.56
18149,-1.59
18161,-4.81
18173,-7.97
18185,-11.06
18197,-14.21
18209,-17.65
18221,-21.6
18233,-26.15
18245,-31.19
18256,-36.46
18267,-41.6
18279,-46.15
18291,-49.5
18303,-51.02
18315,-50.08
18327,-46.33
18339,-39.81
18351,-31.02
18363,-20.79
18375,-10.09
18387,0.21
18399,9.38
18411,16.95
18423,22.62
18435,26.29
18446,28.07
18457,28.28
18469,27.36
18481,25.77
18493,23.94
18505,22.15
18517,20.62
18529,19.51
18541,19.01
18553,19.18
18565,20.01
18577,21.26
18589,22.48
18601,23.13
18613,22.75
18625,21.08
18636,18.17
18647,14.37
18659,10.16
18671,5.97
18683,2.09
18695,-1.43
18707,-4.71
18719,-7.93
18731,-11.21
18743,-14.56
18755,-17.91
18767,-21.24
18779,-24.57
18791,-28.01
18803,-31.71
18815,-35.77
18826,-40.2
18837,-45.02
18849,-50.2
18861,-55.66
18873,-61.04
18885,-65.63
18897,-68.37
18909,-68.08
18921,-63.89
18933,-55.73
18945,-44.42
18957,-31.42
18969,-18.34
18981,-6.42
18993,3.68
19005,11.86
19016,18.21
19027,22.8
19039,25.64
19051,26.9
19063,26.98
19075,26.56
19087,26.35
19099,26.79
19111,27.87
19123,29.15
19135,30.11
19147,30.34
19159,29.73
19171,28.47
19183,26.82
19195,24.98
19206,23.06
19217,21.14
19229,19.28
19241,17.54
19253,15.93
19265,14.32
19277,12.46
19289,10.11
19301,7.19
19313,3.77
19325,0.11
19337,-3.55
19349,-7.13
19361,-10.67
19373,-14.29
19385,-18.05
19396,-21.93
19407,-25.86
19419,-29.85
19431,-34.08
19443,-38.85
19455,-44.4
19467,-50.81
19479,-57.79
19491,-64.72
19503,-70.72
19515,-74.74
19527,-75.8
19539,-73.17
19551,-66.64
19563,-56.57
19575,-43.94
19586,-30.15
19597,-16.63
19609,-4.52
19621,5.61
19633,13.7
19645,20.06
19657,25.03
19669,28.81
19681,31.45
19693,32.89
19705,33.2
19717,32.64
19729,31.61
19741,30.52
19753,29.64
19765,29.07
19776,28.81
19787,28.89
19799,29.49
19811,30.78
19823,32.76
19835,35.09
19847,37.05
19859,37.76
19871,36.55
19883,33.25
19895,28.25
19907,22.37
19919,16.57
19931,11.59
19943,7.78
19955,5.16
19966,3.47
19977,2.35
19989,1.32
20001,-0.02
20013,-1.95
20025,-4.56
20037,-7.65
20049,-10.86
20061,-13.81
20073,-16.38
20085,-18.82
20097,-21.62
20109,-25.36
20121,-30.28
20133,-36.09
20145,-41.92
20156,-46.54
20167,-48.73
20179,-47.58
20191,-42.77
20203,-34.53
20215,-23.64
20227,-11.17
20239,1.69
20251,13.86
20263,24.51
20275,33.25
20287,39.98
20299,44.9
20311,48.27
20323,50.3
20335,51.07
20346,50.59
20357,48.96
20369,46.37
20381,43.2
20393,39.87
20405,36.79
20417,34.19
20429,32.18
20441,30.78
20453,29.9
20465,29.45
20477,29.23
20489,29.0
20501,28.34
20513,26.8
20525,24.02
20536,19.91
20547,14.74
20559,9.14
20571,3.78
20583,-0.92
20595,-4.93
20607,-8.63
20619,-12.4
20631,-16.37
20643,-20.21
20655,-23.3
20667,-25.1
20679,-25.53
20691,-25.1
20703,-24.79
20715,-25.65
20726,-28.33
20737,-32.8
20749,-38.34
20761,-43.72
20773,-47.63
20785,-48.96
20797,-47.05
20809,-41.77
20821,-33.47
20833,-22.86
20845,-10.91
20857,1.35
20869,12.9
20881,22.9
20893,30.75
20905,36.12
20916,39.0
20927,39.59
20939,38.28
20951,35.5
20963,31.76
20975,27.65
20987,23.79
20999,20.8
