seconds,BVP
8,209.84
20,216.75
32,220.11
44,220.18
56,217.35
68,211.85
80,203.75
91,193.11
102,180.38
114,166.38
126,152.3
138,139.31
150,128.23
162,119.32
174,112.28
186,106.38
198,100.76
210,94.71
222,87.89
234,80.35
246,72.41
258,64.36
270,56.34
281,48.34
292,40.33
304,32.46
316,24.98
328,18.16
340,12.12
352,6.74
364,1.75
376,-3.17
388,-8.33
400,-13.96
412,-20.29
424,-27.4
436,-35.22
448,-43.47
460,-51.7
471,-59.49
482,-66.55
494,-72.76
506,-78.04
518,-82.31
530,-85.34
542,-86.95
554,-87.11
566,-86.0
578,-83.94
590,-81.2
602,-77.96
614,-74.43
626,-71.06
638,-68.58
650,-67.77
661,-69.08
672,-72.26
684,-76.37
696,-80.15
708,-82.56
720,-83.23
732,-82.49
744,-81.06
756,-79.63
768,-78.49
780,-77.54
792,-76.55
804,-75.39
816,-74.12
828,-72.91
840,-71.78
851,-70.53
862,-68.83
874,-66.45
886,-63.37
898,-59.85
910,-56.25
922,-52.84
934,-49.76
946,-47.07
958,-44.85
970,-43.25
982,-42.38
994,-42.22
1006,-42.59
1018,-43.28
1030,-44.15
1041,-45.28
1052,-46.83
1064,-48.83
1076,-50.99
1088,-52.84
1100,-53.93
1112,-54.14
1124,-53.8
1136,-53.53
1148,-53.93
1160,-55.24
1172,-57.31
1184,-59.67
1196,-61.77
1208,-63.19
1220,-63.65
1231,-62.99
1242,-61.15
1254,-58.17
1266,-54.21
1278,-49.59
1290,-44.73
1302,-40.06
1314,-35.86
1326,-32.26
1338,-29.23
1350,-26.62
1362,-24.29
1374,-22.16
1386,-20.25
1398,-18.7
1410,-17.65
1421,-17.11
1432,-16.95
1444,-16.85
1456,-16.47
1468,-15.59
1480,-14.21
1492,-12.55
1504,-10.93
1516,-9.64
1528,-8.85
1540,-8.54
1552,-8.53
1564,-8.41
1576,-7.62
1588,-5.62
1600,-2.15
1611,2.64
1622,8.09
1634,13.27
1646,17.31
1658,19.65
1670,20.14
1682,18.96
1694,16.45
1706,12.99
1718,8.98
1730,4.87
1742,1.07
1754,-2.14
1766,-4.71
1778,-6.85
1790,-8.79
1801,-10.7
1812,-12.56
1824,-14.23
1836,-15.63
1848,-16.87
1860,-18.26
1872,-20.19
1884,-22.91
1896,-26.45
1908,-30.51
1920,-34.58
1932,-38.04
1944,-40.4
1956,-41.42
1968,-41.2
1980,-40.08
1991,-38.53
2002,-36.97
2014,-35.69
2026,-34.82
2038,-34.46
2050,-34.7
2062,-35.65
2074,-37.3
2086,-39.43
2098,-41.64
2110,-43.5
2122,-44.7
2134,-45.17
2146,-45.06
2158,-44.59
2170,-43.94
2181,-43.16
2192,-42.27
2204,-41.31
2216,-40.35
2228,-39.5
2240,-38.81
2252,-38.21
2264,-37.52
2276,-36.46
2288,-34.79
2300,-32.3
2312,-28.96
2324,-24.87
2336,-20.34
2348,-15.81
2360,-11.77
2371,-8.66
2382,-6.73
2394,-6.05
2406,-6.47
2418,-7.8
2430,-9.87
2442,-12.56
2454,-15.68
2466,-18.93
2478,-21.79
2490,-23.65
2502,-24.09
2514,-23.07
2526,-21.07
2538,-18.99
2550,-17.86
2561,-18.49
2572,-21.24
2584,-25.9
2596,-31.76
2608,-37.75
2620,-42.64
2632,-45.27
2644,-44.71
2656,-40.53
2668,-32.84
2680,-22.32
2692,-10.12
2704,2.38
2716,13.8
2728,22.93
2740,28.97
2751,31.57
2762,30.92
2774,27.73
2786,23.01
2798,17.79
2810,12.93
2822,8.85
2834,5.63
2846,3.09
2858,0.96
2870,-0.94
2882,-2.83
2894,-5.0
2906,-7.9
2918,-12.04
2930,-17.68
2941,-24.57
2952,-31.85
2964,-38.19
2976,-42.32
2988,-43.43
3000,-41.49
3012,-37.16
3024,-31.44
3036,-25.27
3048,-19.3
3060,-13.95
3072,-9.51
3084,-6.32
3096,-4.72
3108,-4.97
3120,-6.99
3131,-10.37
3142,-14.39
3154,-18.29
3166,-21.48
3178,-23.73
3190,-25.16
3202,-26.16
3214,-27.18
3226,-28.64
3238,-30.85
3250,-33.99
3262,-38.24
3274,-43.66
3286,-50.07
3298,-56.88
3310,-62.98
3321,-66.96
3332,-67.49
3344,-63.81
3356,-56.06
3368,-45.19
3380,-32.68
3392,-20.04
3404,-8.39
3416,1.62
3428,9.7
3440,15.68
3452,19.39
3464,20.75
3476,19.86
3488,17.23
3500,13.76
3511,10.48
3522,8.31
3534,7.74
3546,8.69
3558,10.6
3570,12.63
3582,13.97
3594,13.99
3606,12.41
3618,9.15
3630,4.39
3642,-1.48
3654,-7.64
3666,-12.85
3678,-15.54
3690,-14.18
3701,-7.79
3712,3.64
3724,19.12
3736,36.89
3748,55.01
3760,71.76
3772,85.92
3784,96.77
3796,103.99
3808,107.51
3820,107.55
3832,104.69
3844,99.78
3856,93.84
3868,87.76
3880,82.05
3891,76.85
3902,71.98
3914,67.2
3926,62.37
3938,57.52
3950,52.69
3962,47.77
3974,42.32
3986,35.73
3998,27.44
4010,17.44
4022,6.47
4034,-3.93
4046,-11.88
4058,-15.79
4070,-14.88
4081,-9.41
4092,-0.53
4104,10.2
4116,21.27
4128,31.43
4140,39.82
4152,45.91
4164,49.48
4176,50.64
4188,49.84
4200,47.77
4212,45.13
4224,42.43
4236,39.87
4248,37.41
4260,34.96
4271,32.54
4282,30.25
4294,28.21
4306,26.32
4318,24.31
4330,21.72
4342,18.14
4354,13.29
4366,7.15
4378,0.03
4390,-7.41
4402,-14.11
4414,-18.71
4426,-19.87
4438,-16.68
4450,-9.07
4461,2.07
4472,15.08
4484,28.01
4496,39.22
4508,47.69
4520,53.08
4532,55.59
4544,55.67
4556,53.8
4568,50.5
4580,46.32
4592,41.78
4604,37.3
4616,33.11
4628,29.25
4640,25.66
4651,22.27
4662,19.08
4674,16.12
4686,13.3
4698,10.35
4710,6.77
4722,2.02
4734,-4.29
4746,-12.07
4758,-20.61
4770,-28.63
4782,-34.56
4794,-37.02
4806,-35.26
4818,-29.5
4830,-20.84
4841,-11.02
4852,-1.85
4864,5.29
4876,9.68
4888,11.28
4900,10.58
4912,8.21
4924,4.68
4936,0.3
4948,-4.88
4960,-10.86
4972,-17.56
4984,-24.78
4996,-32.25
5008,-39.7
5020,-46.92
5031,-53.69
5042,-59.7
5054,-64.59
5066,-68.14
5078,-70.55
5090,-72.45
5102,-74.69
5114,-77.7
5126,-81.03
5138,-83.21
5150,-82.24
5162,-76.45
5174,-65.25
5186,-49.42
5198,-30.78
5210,-11.46
5221,6.74
5232,22.63
5244,35.52
5256,44.96
5268,50.65
5280,52.57
5292,51.13
5304,47.32
5316,42.47
5328,37.91
5340,34.57
5352,32.72
5364,31.97
5376,31.58
5388,30.7
5400,28.73
5411,25.32
5422,20.45
5434,14.29
5446,7.18
5458,-0.29
5470,-7.2
5482,-12.37
5494,-14.46
5506,-12.42
5518,-5.85
5530,4.8
5542,18.28
5554,32.9
5566,46.96
5578,59.17
5590,68.71
5601,75.17
5612,78.41
5624,78.46
5636,75.55
5648,70.2
5660,63.23
5672,55.59
5684,48.15
5696,41.5
5708,35.84
5720,30.97
5732,26.41
5744,21.54
5756,15.77
5768,8.65
5780,0.01
5791,-9.96
5802,-20.68
5814,-31.19
5826,-40.26
5838,-46.52
5850,-48.76
5862,-46.26
5874,-39.06
5886,-28.13
5898,-15.15
5910,-2.13
5922,9.2
5934,17.76
5946,23.18
5958,25.6
5970,25.29
5981,22.46
5992,17.25
6004,10.02
6016,1.54
6028,-7.04
6040,-14.49
6052,-19.93
6064,-23.13
6076,-24.6
6088,-25.2
6100,-25.8
6112,-27.04
6124,-29.28
6136,-32.69
6148,-37.34
6160,-43.08
6171,-49.31
6182,-54.84
6194,-58.01
6206,-57.2
6218,-51.38
6230,-40.61
6242,-26.07
6254,-9.66
6266,6.67
6278,21.47
6290,34.01
6302,44.12
6314,51.85
6326,57.15
6338,59.84
6350,59.82
6361,57.32
6372,53.08
6384,48.19
6396,43.74
6408,40.43
6420,38.25
6432,36.65
6444,34.88
6456,32.38
6468,28.99
6480,24.81
6492,19.96
6504,14.34
6516,7.87
6528,0.82
6540,-5.79
6551,-10.31
6562,-10.99
6574,-6.73
6586,2.33
6598,14.78
6610,28.51
6622,41.54
6634,52.6
6646,61.24
6658,67.53
6670,71.61
6682,73.47
6694,72.96
6706,70.12
6718,65.31
6730,59.16
6741,52.42
6752,45.66
6764,39.22
6776,33.17
6788,27.49
6800,22.08
6812,16.8
6824,11.46
6836,5.73
6848,-0.71
6860,-8.17
6872,-16.69
6884,-25.94
6896,-35.09
6908,-42.87
6920,-47.78
6931,-48.52
6942,-44.39
6954,-35.6
6966,-23.34
6978,-9.45
6990,4.13
7002,15.84
7014,24.86
7026,31.05
7038,34.79
7050,36.57
7062,36.79
7074,35.7
7086,33.54
7098,30.59
7110,27.3
7121,24.15
7132,21.55
7144,19.71
7156,18.63
7168,18.06
7180,17.55
7192,16.54
7204,14.44
7216,10.7
7228,5.17
7240,-1.86
7252,-9.49
7264,-16.39
7276,-21.16
7288,-22.71
7300,-20.53
7311,-14.83
7322,-6.35
7334,3.83
7346,14.58
7358,24.79
7370,33.56
7382,40.2
7394,44.27
7406,45.7
7418,44.71
7430,41.75
7442,37.42
7454,32.3
7466,26.83
7478,21.31
7490,15.94
7501,10.85
7512,6.15
7524,1.93
7536,-1.76
7548,-4.98
7560,-7.89
7572,-10.83
7584,-14.26
7596,-18.66
7608,-24.23
7620,-30.7
7632,-37.17
7644,-42.23
7656,-44.47
7668,-42.91
7680,-37.44
7691,-28.85
7702,-18.49
7714,-7.8
7726,2.06
7738,10.4
7750,16.86
7762,21.27
7774,23.61
7786,23.97
7798,22.7
7810,20.24
7822,17.08
7834,13.52
7846,9.71
7858,5.76
7870,1.83
7881,-1.76
7892,-4.7
7904,-6.88
7916,-8.48
7928,-9.99
7940,-11.94
7952,-14.77
7964,-18.7
7976,-23.75
7988,-29.66
8000,-35.85
8012,-41.36
8024,-44.96
8036,-45.44
8048,-42.07
8060,-35.01
8071,-25.27
8082,-14.43
8094,-4.04
8106,4.82
8118,11.76
8130,16.91
8142,20.48
8154,22.6
8166,23.18
8178,22.16
8190,19.65
8202,16.07
8214,12.02
8226,8.06
8238,4.53
8250,1.47
8261,-1.29
8272,-3.92
8284,-6.51
8296,-9.03
8308,-11.49
8320,-14.04
8332,-17.07
8344,-20.97
8356,-25.87
8368,-31.33
8380,-36.32
8392,-39.46
8404,-39.55
8416,-36.05
8428,-29.31
8440,-20.51
8451,-11.16
8462,-2.62
8474,4.24
8486,9.1
8498,12.02
8510,13.22
8522,12.84
8534,11.09
8546,8.21
8558,4.58
8570,0.64
8582,-3.2
8594,-6.67
8606,-9.7
8618,-12.31
8630,-14.58
8641,-16.55
8652,-18.25
8664,-19.83
8676,-21.64
8688,-24.19
8700,-27.96
8712,-33.17
8724,-39.37
8736,-45.5
8748,-50.07
8760,-51.68
8772,-49.55
8784,-43.83
8796,-35.47
8808,-25.88
8820,-16.35
8831,-7.78
8842,-0.61
8854,5.0
8866,8.96
8878,11.22
8890,11.77
8902,10.82
8914,8.77
8926,6.08
8938,3.21
8950,0.51
8962,-1.75
8974,-3.38
8986,-4.3
8998,-4.66
9010,-4.94
9021,-5.78
9032,-7.84
9044,-11.52
9056,-16.83
9068,-23.36
9080,-30.37
9092,-36.93
9104,-42.0
9116,-44.55
9128,-43.73
9140,-39.08
9152,-30.8
9164,-19.71
9176,-7.13
9188,5.43
9200,16.63
9211,25.53
9222,31.68
9234,35.08
9246,36.03
9258,35.03
9270,32.65
9282,29.44
9294,25.82
9306,22.09
9318,18.47
9330,15.12
9342,12.18
9354,9.75
9366,7.81
9378,6.2
9390,4.57
9401,2.49
9412,-0.48
9424,-4.57
9436,-9.71
9448,-15.48
9460,-21.07
9472,-25.42
9484,-27.39
9496,-26.09
9508,-21.12
9520,-12.79
9532,-2.11
9544,9.46
9556,20.37
9568,29.45
9580,36.11
9591,40.42
9602,42.81
9614,43.78
9626,43.62
9638,42.4
9650,40.06
9662,36.7
9674,32.64
9686,28.36
9698,24.35
9710,20.91
9722,18.07
9734,15.66
9746,13.38
9758,10.9
9770,7.81
9781,3.7
9792,-1.79
9804,-8.7
9816,-16.5
9828,-24.02
9840,-29.76
9852,-32.34
9864,-31.15
9876,-26.59
9888,-19.9
9900,-12.64
9912,-6.04
9924,-0.6
9936,3.82
9948,7.69
9960,11.35
9971,14.82
9982,17.87
9994,20.33
10006,22.3
10018,24.17
10030,26.45
10042,29.44
10054,33.03
10066,36.8
10078,40.29
10090,43.34
10102,46.3
10114,49.91
10126,54.95
10138,61.86
10150,70.49
10161,80.28
10172,90.45
10184,100.33
10196,109.28
10208,116.56
10220,121.03
10232,121.36
10244,116.5
10256,106.52
10268,93.09
10280,79.37
10292,69.09
10304,65.11
10316,68.13
10328,76.22
10340,85.4
10351,91.02
10362,89.34
10374,78.67
10386,59.54
10398,34.18
10410,5.48
10422,-23.85
10434,-51.78
10446,-76.92
10458,-98.47
10470,-116.02
10482,-129.67
10494,-140.06
10506,-148.31
10518,-155.57
10530,-162.53
10541,-168.97
10552,-173.71
10564,-175.02
10576,-171.27
10588,-161.61
10600,-146.32
10612,-126.83
10624,-105.26
10636,-83.9
10648,-64.71
10660,-48.94
10672,-37.12
10684,-29.07
10696,-24.16
10708,-21.57
10720,-20.48
10731,-20.24
10742,-20.42
10754,-20.75
10766,-21.11
10778,-21.43
10790,-21.72
10802,-22.03
10814,-22.46
10826,-23.08
10838,-23.93
10850,-25.03
10862,-26.47
10874,-28.54
10886,-31.6
10898,-35.91
10910,-41.36
10921,-47.2
10932,-52.2
10944,-54.95
10956,-54.42
10968,-50.38
10980,-43.41
10992,-34.7
11004,-25.53
11016,-16.93
11028,-9.52
11040,-3.63
11052,0.51
11064,2.77
11076,3.15
11088,1.97
11100,-0.16
11111,-2.52
11122,-4.49
11134,-5.72
11146,-6.1
11158,-5.62
11170,-4.23
11182,-1.91
11194,1.23
11206,4.77
11218,7.99
11230,10.09
11242,10.53
11254,9.29
11266,6.97
11278,4.64
11290,3.59
11301,5.09
11312,10.03
11324,18.72
11336,30.81
11348,45.24
11360,60.47
11372,74.97
11384,87.58
11396,97.89
11408,106.09
11420,112.64
11432,117.79
11444,121.24
11456,122.38
11468,120.61
11480,115.94
11491,109.21
11502,101.92
11514,95.73
11526,91.87
11538,90.82
11550,92.26
11562,95.29
11574,98.75
11586,101.36
11598,101.8
11610,98.89
11622,91.86
11634,80.67
11646,66.2
11658,50.17
11670,34.65
11681,21.5
11692,11.76
11704,5.51
11716,2.0
11728,0.17
11740,-0.95
11752,-1.95
11764,-3.05
11776,-4.34
11788,-5.91
11800,-7.96
11812,-10.56
11824,-13.58
11836,-16.58
11848,-19.09
11860,-20.81
11871,-21.89
11882,-22.93
11894,-24.67
11906,-27.73
11918,-32.38
11930,-38.62
11942,-46.32
11954,-55.23
11966,-64.91
11978,-74.5
11990,-82.62
12002,-87.68
12014,-88.39
12026,-84.4
12038,-76.43
12050,-66.08
12061,-55.2
12072,-45.18
12084,-36.77
12096,-30.14
12108,-25.23
12120,-22.08
12132,-20.81
12144,-21.42
12156,-23.57
12168,-26.56
12180,-29.56
12192,-31.95
12204,-33.53
12216,-34.48
12228,-35.24
12240,-36.21
12251,-37.66
12262,-39.84
12274,-42.97
12286,-47.33
12298,-53.05
12310,-59.9
12322,-67.14
12334,-73.57
12346,-77.83
12358,-78.87
12370,-76.23
12382,-70.25
12394,-61.84
12406,-52.2
12418,-42.48
12430,-33.54
12441,-25.91
12452,-19.87
12464,-15.55
12476,-12.95
12488,-11.94
12500,-12.22
12512,-13.31
12524,-14.63
12536,-15.7
12548,-16.18
12560,-15.98
12572,-15.24
12584,-14.23
12596,-13.27
12608,-12.74
12620,-13.0
12631,-14.35
12642,-16.93
12654,-20.53
12666,-24.54
12678,-28.08
12690,-30.17
12702,-30.0
12714,-27.22
12726,-22.02
12738,-15.0
12750,-7.08
12762,0.81
12774,7.86
12786,13.52
12798,17.52
12810,19.81
12821,20.55
12832,20.03
12844,18.61
12856,16.7
12868,14.72
12880,13.06
12892,12.0
12904,11.62
12916,11.74
12928,12.02
12940,11.97
12952,11.15
12964,9.24
12976,6.15
12988,1.99
13000,-2.9
13011,-7.95
13022,-12.42
13034,-15.5
13046,-16.49
13058,-15.02
13070,-11.18
13082,-5.47
13094,1.25
13106,8.08
13118,14.18
13130,18.98
13142,22.11
13154,23.48
13166,23.11
13178,21.18
13190,17.99
13201,13.99
13212,9.77
13224,6.01
13236,3.34
13248,2.17
13260,2.47
13272,3.84
13284,5.51
13296,6.72
13308,6.87
13320,5.76
13332,3.56
13344,0.75
13356,-2.01
13368,-3.97
13380,-4.41
13391,-2.71
13402,1.43
13414,7.87
13426,15.96
13438,24.67
13450,32.84
13462,39.47
13474,43.92
13486,45.96
13498,45.71
13510,43.5
13522,39.78
13534,35.07
13546,29.89
13558,24.64
13570,19.55
13581,14.65
13592,9.79
13604,4.8
13616,-0.4
13628,-5.7
13640,-10.79
13652,-15.26
13664,-18.75
13676,-21.04
13688,-22.04
13700,-21.7
13712,-19.92
13724,-16.41
13736,-10.83
13748,-2.92
13760,7.25
13771,19.05
13782,31.39
13794,42.96
13806,52.57
13818,59.57
13830,63.87
13842,65.91
13854,66.29
13866,65.53
13878,63.92
13890,61.66
13902,59.03
13914,56.51
13926,54.76
13938,54.24
13950,55.04
13961,56.81
13972,59.02
13984,61.39
13996,64.1
14008,67.63
14020,72.29
14032,77.68
14044,82.67
14056,85.74
14068,85.8
14080,82.73
14092,77.44
14104,71.38
14116,65.75
14128,60.97
14140,56.67
14151,52.16
14162,46.92
14174,40.98
14186,34.84
14198,29.02
14210,23.81
14222,18.99
14234,13.99
14246,8.23
14258,1.5
14270,-5.92
14282,-13.23
14294,-19.52
14306,-24.14
14318,-27.12
14330,-29.18
14341,-31.48
14352,-35.12
14364,-40.54
14376,-47.28
14388,-54.08
14400,-59.31
14412,-61.66
14424,-60.52
14436,-56.16
14448,-49.56
14460,-41.97
14472,-34.57
14484,-28.21
14496,-23.41
14508,-20.43
14520,-19.36
14531,-20.14
14542,-22.48
14554,-25.83
14566,-29.37
14578,-32.2
14590,-33.57
14602,-33.12
14614,-30.99
14626,-27.65
14638,-23.74
14650,-19.84
14662,-16.3
14674,-13.27
14686,-10.77
14698,-8.7
14710,-6.87
14721,-4.93
14732,-2.4
14744,1.32
14756,6.76
14768,14.13
14780,23.19
14792,33.19
14804,42.94
14816,51.12
14828,56.52
14840,58.28
14852,56.09
14864,50.07
14876,40.78
14888,29.07
14900,16.13
14911,3.42
14922,-7.52
14934,-15.37
14946,-19.54
14958,-20.43
14970,-19.37
14982,-18.07
14994,-18.01
15006,-19.89
15018,-23.57
15030,-28.42
15042,-33.76
15054,-39.19
15066,-44.47
15078,-49.25
15090,-52.83
15101,-54.23
15112,-52.65
15124,-47.9
15136,-40.65
15148,-32.17
15160,-23.95
15172,-17.06
15184,-12.02
15196,-8.81
15208,-7.21
15220,-7.01
15232,-8.14
15244,-10.53
15256,-13.91
15268,-17.78
15280,-21.5
15291,-24.5
15302,-26.55
15314,-27.75
15326,-28.44
15338,-28.94
15350,-29.45
15362,-30.01
15374,-30.63
15386,-31.35
15398,-32.25
15410,-33.28
15422,-34.01
15434,-33.68
15446,-31.34
15458,-26.27
15470,-18.4
15481,-8.5
15492,2.07
15504,11.81
15516,19.58
15528,24.88
15540,27.83
15552,28.84
15564,28.33
15576,26.49
15588,23.3
15600,18.64
15612,12.4
15624,4.52
15636,-4.9
15648,-15.6
15660,-27.0
15671,-38.17
15682,-47.99
15694,-55.38
15706,-59.72
15718,-61.0
15730,-59.86
15742,-57.22
15754,-53.81
15766,-49.75
15778,-44.43
15790,-36.87
15802,-26.22
15814,-12.33
15826,3.95
15838,20.96
15850,36.59
15861,49.02
15872,57.1
15884,60.62
15896,60.06
15908,56.31
15920,50.26
15932,42.72
15944,34.39
15956,25.96
15968,18.09
15980,11.25
15992,5.59
16004,0.85
16016,-3.52
16028,-8.02
16040,-12.81
16051,-17.59
16062,-21.73
16074,-24.59
16086,-25.89
16098,-25.89
16110,-25.26
16122,-24.81
16134,-25.23
16146,-26.85
16158,-29.58
16170,-32.91
16182,-36.06
16194,-38.03
16206,-37.92
16218,-35.16
16230,-29.76
16241,-22.38
16252,-14.17
16264,-6.35
16276,0.12
16288,4.78
16300,7.65
16312,9.03
16324,9.25
16336,8.57
16348,7.22
16360,5.48
16372,3.72
16384,2.35
16396,1.61
16408,1.51
16420,1.8
16431,2.11
16442,2.15
16454,1.83
16466,1.18
16478,0.31
16490,-0.78
16502,-2.16
16514,-3.99
16526,-6.38
16538,-9.31
16550,-12.56
16562,-15.75
16574,-18.34
16586,-19.71
16598,-19.34
16610,-16.9
16621,-12.43
16632,-6.31
16644,0.84
16656,8.36
16668,15.68
16680,22.38
16692,28.12
16704,32.57
16716,35.43
16728,36.55
16740,36.06
16752,34.39
16764,32.08
16776,29.61
16788,27.19
16800,24.77
16811,22.17
16822,19.28
16834,16.12
16846,12.82
16858,9.51
16870,6.21
16882,2.84
16894,-0.72
16906,-4.56
16918,-8.72
16930,-13.15
16942,-17.69
16954,-21.96
16966,-25.4
16978,-27.3
16990,-27.05
17001,-24.32
17012,-19.3
17024,-12.62
17036,-5.15
17048,2.24
17060,8.98
17072,14.77
17084,19.57
17096,23.32
17108,25.94
17120,27.26
17132,27.18
17144,25.77
17156,23.34
17168,20.39
17180,17.42
17191,14.86
17202,12.98
17214,11.94
17226,11.85
17238,12.79
17250,14.79
17262,17.82
17274,21.71
17286,26.16
17298,30.86
17310,35.51
17322,39.92
17334,44.07
17346,48.01
17358,51.78
17370,55.3
17381,58.33
17392,60.46
17404,61.26
17416,60.41
17428,57.8
17440,53.63
17452,48.24
17464,42.04
17476,35.39
17488,28.5
17500,21.48
17512,14.31
17524,6.96
17536,-0.62
17548,-8.35
17560,-15.99
17571,-23.09
17582,-29.09
17594,-33.5
17606,-36.13
17618,-37.18
17630,-37.19
17642,-36.84
17654,-36.67
17666,-36.99
17678,-37.85
17690,-39.13
17702,-40.6
17714,-41.96
17726,-42.76
17738,-42.46
17750,-40.54
17761,-36.77
17772,-31.41
17784,-25.21
17796,-19.2
17808,-14.37
17820,-11.31
17832,-10.08
17844,-10.31
17856,-11.35
17868,-12.63
17880,-13.77
17892,-14.57
17904,-15.01
17916,-15.11
17928,-14.9
17940,-14.47
17951,-13.91
17962,-13.39
17974,-13.07
17986,-13.04
17998,-13.3
18010,-13.77
18022,-14.34
18034,-15.0
18046,-15.88
18058,-17.15
18070,-18.87
18082,-20.88
18094,-22.62
18106,-23.26
18118,-22.0
18130,-18.34
18141,-12.38
18152,-4.8
18164,3.38
18176,11.1
18188,17.69
18200,22.92
18212,26.93
18224,30.03
18236,32.47
18248,34.36
18260,35.83
18272,37.03
18284,38.26
18296,39.82
18308,41.96
18320,44.68
18331,47.87
18342,51.29
18354,54.81
18366,58.39
18378,62.11
18390,66.03
18402,70.07
18414,73.97
18426,77.33
18438,79.82
18450,81.39
18462,82.41
18474,83.57
18486,85.62
18498,89.02
18510,93.68
18521,98.9
18532,103.69
18544,107.08
18556,108.47
18568,107.69
18580,104.92
18592,100.44
18604,94.5
18616,87.31
18628,79.12
18640,70.26
18652,61.12
18664,52.15
18676,43.66
18688,35.85
18700,28.74
18711,22.2
18722,15.95
18734,9.6
18746,2.79
18758,-4.7
18770,-12.84
18782,-21.34
18794,-29.67
18806,-37.3
18818,-43.79
18830,-48.86
18842,-52.39
18854,-54.35
18866,-54.87
18878,-54.25
18890,-53.08
18901,-52.12
18912,-52.12
18924,-53.56
18936,-56.48
18948,-60.48
18960,-65.02
18972,-69.61
18984,-73.91
18996,-77.71
19008,-80.7
19020,-82.45
19032,-82.48
19044,-80.58
19056,-76.99
19068,-72.46
19080,-67.98
19091,-64.46
19102,-62.47
19114,-62.15
19126,-63.39
19138,-65.96
19150,-69.56
19162,-73.79
19174,-77.98
19186,-81.27
19198,-82.76
19210,-81.79
19222,-78.08
19234,-71.78
19246,-63.31
19258,-53.16
19270,-41.8
19281,-29.64
19292,-17.11
19304,-4.74
19316,6.83
19328,16.93
19340,25.04
19352,30.86
19364,34.45
19376,36.14
19388,36.55
19400,36.33
19412,36.08
19424,36.05
19436,36.07
19448,35.53
19460,33.65
19471,29.75
19482,23.63
19494,15.72
19506,7.0
19518,-1.22
19530,-7.71
19542,-11.67
19554,-12.87
19566,-11.69
19578,-8.89
19590,-5.4
19602,-2.08
19614,0.37
19626,1.5
19638,1.02
19650,-1.15
19661,-4.93
19672,-10.04
19684,-15.96
19696,-22.04
19708,-27.64
19720,-32.28
19732,-35.83
19744,-38.47
19756,-40.57
19768,-42.45
19780,-44.19
19792,-45.7
19804,-46.75
19816,-47.27
19828,-47.42
19840,-47.54
19851,-47.89
19862,-48.38
19874,-48.46
19886,-47.34
19898,-44.27
19910,-38.97
19922,-31.74
19934,-23.39
19946,-14.83
19958,-6.8
19970,0.28
19982,6.25
19994,11.05
20006,14.54
20018,16.5
20030,16.82
20041,15.56
20052,13.04
20064,9.81
20076,6.54
20088,3.9
20100,2.38
20112,2.23
20124,3.26
20136,4.9
20148,6.34
20160,6.83
20172,5.95
20184,3.72
20196,0.65
20208,-2.57
20220,-5.15
20231,-6.5
20242,-6.18
20254,-3.97
20266,0.15
20278,5.93
20290,12.87
20302,20.24
20314,27.24
20326,33.19
20338,37.67
20350,40.55
20362,41.87
20374,41.76
20386,40.36
20398,37.91
20410,34.8
20421,31.54
20432,28.68
20444,26.6
20456,25.3
20468,24.42
20480,23.37
20492,21.62
20504,18.89
20516,15.18
20528,10.67
20540,5.54
20552,-0.02
20564,-5.76
20576,-11.17
20588,-15.42
20600,-17.63
20611,-17.16
20622,-13.99
20634,-8.81
20646,-2.77
20658,2.94
20670,7.44
20682,10.4
20694,11.89
20706,12.13
20718,11.27
20730,9.37
20742,6.52
20754,3.02
20766,-0.59
20778,-3.64
20790,-5.59
20801,-6.23
20812,-5.79
20824,-4.83
20836,-4.06
20848,-4.02
20860,-5.08
20872,-7.35
20884,-10.74
20896,-15.11
20908,-20.18
20920,-25.52
20932,-30.48
20944,-34.23
20956,-35.92
20968,-34.96
20980,-31.25
20991,-25.24
