seconds,BVP
4,-25.49
16,-33.29
28,-40.16
40,-46.54
52,-53.38
64,-61.8
76,-72.59
88,-85.69
100,-99.99
112,-113.44
124,-123.61
136,-128.4
147,-126.6
158,-118.13
170,-103.93
182,-85.57
194,-64.84
206,-43.47
218,-22.99
230,-4.86
242,9.54
254,18.9
266,22.36
278,19.89
290,12.55
302,2.62
314,-6.9
326,-12.98
337,-13.54
348,-8.19
360,1.64
372,13.23
384,23.81
396,31.59
408,36.61
420,40.45
432,45.41
444,53.47
456,65.57
468,81.55
480,100.36
492,120.25
504,138.6
516,151.98
527,156.91
538,151.51
550,137.22
562,119.25
574,105.12
586,101.4
598,110.64
610,129.91
622,152.14
634,169.3
646,175.76
658,169.92
670,153.58
682,129.99
694,101.94
706,71.27
717,39.53
728,8.93
740,-17.39
752,-36.25
764,-45.72
776,-46.11
788,-39.8
800,-30.41
812,-21.38
824,-14.78
836,-10.91
848,-8.66
860,-6.23
872,-2.15
884,4.15
896,12.22
907,20.9
918,28.91
930,35.42
942,40.35
954,44.28
966,48.18
978,52.86
990,58.66
1002,65.3
1014,71.93
1026,77.46
1038,80.98
1050,81.93
1062,80.23
1074,76.23
1086,70.48
1097,63.64
1108,56.27
1120,48.83
1132,41.73
1144,35.24
1156,29.5
1168,24.41
1180,19.63
1192,14.54
1204,8.48
1216,0.95
1228,-8.23
1240,-18.89
1252,-30.56
1264,-42.62
1276,-54.38
1287,-65.15
1298,-74.26
1310,-81.11
1322,-85.29
1334,-86.71
1346,-85.59
1358,-82.39
1370,-77.67
1382,-71.88
1394,-65.38
1406,-58.43
1418,-51.24
1430,-44.08
1442,-37.24
1454,-30.86
1466,-24.93
1477,-19.27
1488,-13.65
1500,-7.95
1512,-2.2
1524,3.34
1536,8.33
1548,12.41
1560,15.36
1572,17.24
1584,18.38
1596,19.36
1608,20.79
1620,23.07
1632,26.17
1644,29.6
1656,32.52
1667,34.06
1678,33.6
1690,31.03
1702,26.66
1714,21.06
1726,14.85
1738,8.43
1750,1.96
1762,-4.56
1774,-11.15
1786,-17.81
1798,-24.39
1810,-30.68
1822,-36.54
1834,-41.97
1846,-47.15
1857,-52.35
1868,-57.71
1880,-63.11
1892,-68.05
1904,-71.81
1916,-73.65
1928,-73.08
1940,-70.01
1952,-64.89
1964,-58.68
1976,-52.76
1988,-48.74
2000,-48.02
2012,-51.33
2024,-58.32
2036,-67.43
2047,-76.12
2058,-81.48
2070,-80.96
2082,-73.03
2094,-57.64
2106,-36.2
2118,-11.29
2130,14.05
2142,37.09
2154,56.09
2166,70.48
2178,80.6
2190,87.18
2202,90.8
2214,91.6
2226,89.53
2237,84.8
2248,78.06
2260,70.45
2272,63.15
2284,56.96
2296,52.1
2308,48.32
2320,45.26
2332,42.72
2344,40.75
2356,39.46
2368,38.77
2380,38.28
2392,37.4
2404,35.57
2416,32.54
2427,28.49
2438,23.89
2450,19.38
2462,15.55
2474,12.84
2486,11.45
2498,11.35
2510,12.23
2522,13.53
2534,14.66
2546,15.34
2558,16.0
2570,17.75
2582,21.96
2594,29.47
2606,39.83
2617,51.1
2628,60.45
2640,65.23
2652,64.15
2664,57.68
2676,47.87
2688,37.35
2700,28.29
2712,21.85
2724,18.14
2736,16.64
2748,16.8
2760,18.27
2772,20.84
2784,24.35
2796,28.4
2807,32.42
2818,35.74
2830,37.76
2842,38.09
2854,36.64
2866,33.63
2878,29.52
2890,24.83
2902,19.93
2914,14.9
2926,9.59
2938,3.82
2950,-2.14
2962,-7.49
2974,-10.96
2986,-11.37
2997,-8.23
3008,-2.07
3020,5.66
3032,13.27
3044,19.54
3056,24.11
3068,27.48
3080,30.46
3092,33.69
3104,37.32
3116,41.19
3128,45.18
3140,49.42
3152,54.17
3164,59.49
3176,64.97
3187,69.75
3198,72.94
3210,74.1
3222,73.54
3234,72.21
3246,71.21
3258,71.32
3270,72.69
3282,74.8
3294,76.76
3306,77.6
3318,76.41
3330,72.41
3342,65.04
3354,54.04
3366,39.54
3377,22.18
3388,3.01
3400,-16.66
3412,-35.44
3424,-52.17
3436,-65.95
3448,-76.33
3460,-83.34
3472,-87.44
3484,-89.5
3496,-90.55
3508,-91.56
3520,-93.1
3532,-95.11
3544,-96.76
3556,-96.71
3567,-93.6
3578,-86.58
3590,-75.7
3602,-62.06
3614,-47.41
3626,-33.56
3638,-21.89
3650,-12.97
3662,-6.76
3674,-2.9
3686,-1.15
3698,-1.42
3710,-3.68
3722,-7.72
3734,-12.97
3746,-18.58
3757,-23.7
3768,-27.82
3780,-30.91
3792,-33.46
3804,-36.13
3816,-39.45
3828,-43.48
3840,-47.77
3852,-51.54
3864,-54.04
3876,-54.8
3888,-53.94
3900,-52.02
3912,-49.82
3924,-48.01
3936,-46.89
3947,-46.34
3958,-45.98
3970,-45.4
3982,-44.41
3994,-43.04
4006,-41.52
4018,-40.08
4030,-38.83
4042,-37.72
4054,-36.48
4066,-34.68
4078,-31.84
4090,-27.46
4102,-21.27
4114,-13.29
4126,-3.92
4137,6.15
4148,16.11
4160,25.28
4172,33.17
4184,39.64
4196,44.78
4208,48.79
4220,51.83
4232,54.01
4244,55.27
4256,55.5
4268,54.52
4280,52.17
4292,48.38
4304,43.22
4316,36.88
4327,29.72
4338,22.19
4350,14.7
4362,7.63
4374,1.22
4386,-4.36
4398,-9.07
4410,-12.95
4422,-16.13
4434,-18.84
4446,-21.4
4458,-24.14
4470,-27.32
4482,-30.98
4494,-34.97
4506,-38.95
4517,-42.53
4528,-45.41
4540,-47.49
4552,-48.88
4564,-49.92
4576,-50.92
4588,-52.11
4600,-53.43
4612,-54.44
4624,-54.48
4636,-52.82
4648,-48.98
4660,-42.95
4672,-35.21
4684,-26.59
4696,-17.97
4707,-9.99
4718,-2.9
4730,3.39
4742,9.08
4754,14.32
4766,19.1
4778,23.18
4790,26.3
4802,28.17
4814,28.57
4826,27.3
4838,24.31
4850,19.72
4862,13.88
4874,7.44
4886,1.21
4897,-3.99
4908,-7.63
4920,-9.5
4932,-9.75
4944,-8.82
4956,-7.22
4968,-5.46
4980,-3.99
4992,-3.11
5004,-2.99
5016,-3.65
5028,-4.95
5040,-6.65
5052,-8.41
5064,-9.95
5076,-11.05
5087,-11.62
5098,-11.71
5110,-11.48
5122,-11.19
5134,-11.05
5146,-11.25
5158,-11.83
5170,-12.67
5182,-13.5
5194,-13.93
5206,-13.53
5218,-11.89
5230,-8.67
5242,-3.69
5254,3.05
5266,11.28
5277,20.5
5288,29.93
5300,38.7
5312,45.92
5324,50.91
5336,53.38
5348,53.37
5360,51.28
5372,47.61
5384,42.89
5396,37.54
5408,31.92
5420,26.3
5432,20.9
5444,15.86
5456,11.22
5467,6.95
5478,3.02
5490,-0.47
5502,-3.32
5514,-5.24
5526,-6.07
5538,-5.9
5550,-5.09
5562,-4.21
5574,-3.83
5586,-4.36
5598,-6.02
5610,-8.79
5622,-12.61
5634,-17.41
5646,-23.15
5657,-29.64
5668,-36.52
5680,-43.09
5692,-48.51
5704,-51.99
5716,-53.17
5728,-52.29
5740,-50.06
5752,-47.38
5764,-44.96
5776,-43.02
5788,-41.38
5800,-39.65
5812,-37.55
5824,-35.03
5836,-32.15
5847,-28.94
5858,-25.39
5870,-21.59
5882,-17.96
5894,-15.22
5906,-13.95
5918,-13.98
5930,-14.04
5942,-11.99
5954,-5.73
5966,5.74
5978,21.59
5990,39.43
6002,56.27
6014,69.72
6026,78.88
6037,84.35
6048,87.58
6060,89.98
6072,92.32
6084,94.6
6096,96.4
6108,97.4
6120,97.61
6132,97.39
6144,97.25
6156,97.5
6168,98.06
6180,98.51
6192,98.23
6204,96.75
6216,93.91
6227,89.86
6238,84.87
6250,79.0
6262,72.01
6274,63.42
6286,52.92
6298,40.63
6310,27.32
6322,14.24
6334,2.71
6346,-6.31
6358,-12.53
6370,-16.25
6382,-18.21
6394,-19.15
6406,-19.6
6417,-19.74
6428,-19.42
6440,-18.31
6452,-16.02
6464,-12.21
6476,-6.64
6488,0.75
6500,9.86
6512,20.37
6524,31.75
6536,43.33
6548,54.4
6560,64.27
6572,72.39
6584,78.32
6596,81.76
6607,82.48
6618,80.29
6630,75.05
6642,66.79
6654,55.8
6666,42.74
6678,28.5
6690,14.11
6702,0.5
6714,-11.64
6726,-21.92
6738,-30.22
6750,-36.69
6762,-41.61
6774,-45.33
6786,-48.29
6797,-50.78
6808,-53.04
6820,-55.14
6832,-57.09
6844,-58.83
6856,-60.37
6868,-61.71
6880,-62.88
6892,-63.89
6904,-64.76
6916,-65.56
6928,-66.41
6940,-67.46
6952,-68.77
6964,-70.32
6976,-71.96
6987,-73.55
6998,-75.03
7010,-76.49
7022,-78.07
7034,-79.85
7046,-81.72
7058,-83.32
7070,-84.18
7082,-83.78
7094,-81.79
7106,-78.15
7118,-73.1
7130,-67.11
7142,-60.78
7154,-54.64
7166,-49.13
7177,-44.5
7188,-40.89
7200,-38.29
7212,-36.62
7224,-35.74
7236,-35.46
7248,-35.46
7260,-35.37
7272,-34.75
7284,-33.28
7296,-30.75
7308,-27.2
7320,-22.86
7332,-18.07
7344,-13.15
7356,-8.33
7367,-3.7
7378,0.7
7390,4.85
7402,8.65
7414,11.97
7426,14.66
7438,16.69
7450,18.15
7462,19.26
7474,20.29
7486,21.39
7498,22.55
7510,23.54
7522,24.09
7534,23.89
7546,22.84
7557,21.0
7568,18.56
7580,15.79
7592,12.9
7604,10.03
7616,7.18
7628,4.24
7640,1.04
7652,-2.57
7664,-6.58
7676,-10.77
7688,-14.62
7700,-17.46
7712,-18.7
7724,-18.08
7736,-15.76
7747,-12.3
7758,-8.42
7770,-4.77
7782,-1.78
7794,0.38
7806,1.71
7818,2.3
7830,2.23
7842,1.61
7854,0.62
7866,-0.56
7878,-1.72
7890,-2.66
7902,-3.25
7914,-3.41
7926,-3.14
7937,-2.55
7948,-1.82
7960,-1.16
7972,-0.81
7984,-0.97
7996,-1.85
8008,-3.71
8020,-6.78
8032,-11.25
8044,-17.03
8056,-23.71
8068,-30.59
8080,-36.85
8092,-41.85
8104,-45.29
8116,-47.38
8127,-48.6
8138,-49.51
8150,-50.5
8162,-51.68
8174,-52.9
8186,-53.84
8198,-54.14
8210,-53.42
8222,-51.52
8234,-48.48
8246,-44.63
8258,-40.54
8270,-36.76
8282,-33.64
8294,-31.05
8306,-28.46
8317,-25.08
8328,-20.3
8340,-13.95
8352,-6.46
8364,1.39
8376,8.84
8388,15.58
8400,21.95
8412,28.78
8424,37.03
8436,47.25
8448,59.28
8460,72.1
8472,84.16
8484,93.79
8496,99.82
8507,101.86
8518,100.5
8530,97.02
8542,92.96
8554,89.52
8566,87.07
8578,85.05
8590,82.27
8602,77.56
8614,70.53
8626,61.9
8638,53.39
8650,47.01
8662,44.17
8674,45.11
8686,48.76
8697,53.16
8708,56.18
8720,56.19
8732,52.44
8744,45.16
8756,35.52
8768,25.4
8780,17.01
8792,12.44
8804,12.97
8816,18.53
8828,27.62
8840,37.65
8852,45.79
8864,49.88
8876,49.02
8887,43.66
8898,35.26
8910,25.69
8922,16.69
8934,9.42
8946,4.26
8958,0.78
8970,-1.94
8982,-5.06
8994,-9.57
9006,-15.99
9018,-24.28
9030,-33.9
9042,-44.04
9054,-53.78
9066,-62.25
9077,-68.73
9088,-72.71
9100,-73.98
9112,-72.72
9124,-69.4
9136,-64.63
9148,-59.0
9160,-52.79
9172,-45.98
9184,-38.3
9196,-29.41
9208,-19.29
9220,-8.41
9232,2.16
9244,11.09
9256,17.17
9267,19.78
9278,19.12
9290,16.19
9302,12.56
9314,9.93
9326,9.76
9338,13.06
9350,20.2
9362,30.91
9374,44.33
9386,59.14
9398,73.73
9410,86.53
9422,96.29
9434,102.35
9446,104.8
9457,104.38
9468,102.27
9480,99.74
9492,97.9
9504,97.44
9516,98.63
9528,101.39
9540,105.55
9552,110.87
9564,117.01
9576,123.44
9588,129.29
9600,133.48
9612,134.94
9624,133.0
9636,127.64
9647,119.57
9658,109.84
9670,99.38
9682,88.57
9694,77.19
9706,64.91
9718,51.89
9730,39.24
9742,28.93
9754,23.04
9766,22.77
9778,27.63
9790,35.35
9802,42.53
9814,45.71
9826,42.34
9837,31.37
9848,13.21
9860,-10.59
9872,-37.73
9884,-65.45
9896,-90.84
9908,-111.21
9920,-124.73
9932,-130.9
9944,-130.7
9956,-126.28
9968,-120.25
9980,-114.83
9992,-111.33
10004,-110.04
10016,-110.46
10027,-111.7
10038,-112.67
10050,-112.22
10062,-109.3
10074,-103.18
10086,-93.69
10098,-81.47
10110,-67.94
10122,-54.83
10134,-43.72
10146,-35.44
10158,-29.78
10170,-25.64
10182,-21.51
10194,-16.1
10206,-8.85
10217,-0.16
10228,8.87
10240,16.91
10252,22.84
10264,26.14
10276,26.85
10288,25.49
10300,22.83
10312,19.73
10324,17.0
10336,15.2
10348,14.42
10360,14.23
10372,13.7
10384,11.88
10396,8.27
10407,3.19
10418,-2.34
10430,-6.99
10442,-9.72
10454,-10.07
10466,-8.31
10478,-5.1
10490,-1.3
10502,2.26
10514,4.73
10526,5.35
10538,3.53
10550,-0.96
10562,-7.81
10574,-16.27
10586,-25.42
10597,-34.53
10608,-43.24
10620,-51.56
10632,-59.54
10644,-67.03
10656,-73.55
10668,-78.37
10680,-80.85
10692,-80.64
10704,-77.93
10716,-73.35
10728,-67.87
10740,-62.5
10752,-58.04
10764,-54.88
10776,-52.93
10787,-51.71
10798,-50.56
10810,-48.79
10822,-45.92
10834,-41.76
10846,-36.4
10858,-30.14
10870,-23.31
10882,-16.16
10894,-8.78
10906,-1.16
10918,6.62
10930,14.23
10942,21.04
10954,26.14
10966,28.62
10977,27.83
10988,23.69
11000,16.73
11012,8.08
11024,-0.81
11036,-8.5
11048,-13.9
11060,-16.56
11072,-16.73
11084,-15.21
11096,-13.0
11108,-10.9
11120,-9.23
11132,-7.78
11144,-6.13
11156,-3.99
11167,-1.55
11178,0.51
11190,1.37
11202,0.47
11214,-2.12
11226,-5.63
11238,-8.79
11250,-10.34
11262,-9.56
11274,-6.5
11286,-1.96
11298,2.85
11310,6.8
11322,9.24
11334,10.14
11346,9.91
11357,9.03
11368,7.77
11380,6.02
11392,3.46
11404,-0.17
11416,-4.87
11428,-10.2
11440,-15.54
11452,-20.2
11464,-23.76
11476,-26.11
11488,-27.45
11500,-28.11
11512,-28.28
11524,-27.91
11536,-26.71
11547,-24.24
11558,-20.13
11570,-14.23
11582,-6.74
11594,1.92
11606,11.15
11618,20.27
11630,28.53
11642,35.15
11654,39.39
11666,40.75
11678,39.37
11690,36.14
11702,32.72
11714,31.01
11726,32.5
11737,37.81
11748,46.46
11760,57.21
11772,68.57
11784,79.32
11796,88.8
11808,96.95
11820,103.98
11832,110.12
11844,115.49
11856,120.05
11868,123.73
11880,126.53
11892,128.56
11904,130.05
11916,131.13
11927,131.61
11938,130.92
11950,128.09
11962,122.02
11974,111.88
11986,97.41
11998,79.05
12010,57.9
12022,35.39
12034,12.92
12046,-8.4
12058,-27.9
12070,-45.33
12082,-60.77
12094,-74.34
12106,-86.19
12117,-96.32
12128,-104.7
12140,-111.37
12152,-116.52
12164,-120.47
12176,-123.62
12188,-126.23
12200,-128.42
12212,-130.23
12224,-131.66
12236,-132.84
12248,-134.03
12260,-135.38
12272,-136.82
12284,-137.91
12296,-137.97
12307,-136.36
12318,-132.82
12330,-127.74
12342,-122.06
12354,-117.0
12366,-113.51
12378,-111.89
12390,-111.59
12402,-111.46
12414,-110.29
12426,-107.3
12438,-102.46
12450,-96.42
12462,-90.06
12474,-83.97
12486,-78.19
12497,-72.23
12508,-65.49
12520,-57.63
12532,-48.86
12544,-39.87
12556,-31.52
12568,-24.5
12580,-19.0
12592,-14.71
12604,-11.01
12616,-7.29
12628,-3.29
12640,0.92
12652,5.02
12664,8.94
12676,13.11
12687,18.41
12698,25.7
12710,35.07
12722,45.52
12734,55.18
12746,62.19
12758,65.58
12770,65.67
12782,63.72
12794,61.08
12806,58.31
12818,55.05
12830,50.49
12842,44.16
12854,36.43
12866,28.53
12877,21.95
12888,17.91
12900,16.93
12912,19.01
12924,23.81
12936,31.0
12948,40.2
12960,50.83
12972,61.85
12984,71.76
12996,78.72
13008,81.0
13020,77.6
13032,68.68
13044,55.81
13056,41.53
13067,28.69
13078,19.5
13090,14.97
13102,14.97
13114,18.61
13126,24.9
13138,32.92
13150,41.74
13162,50.11
13174,56.48
13186,59.36
13198,58.04
13210,53.15
13222,46.51
13234,40.52
13246,37.16
13257,37.2
13268,39.9
13280,43.39
13292,45.38
13304,43.88
13316,37.76
13328,26.92
13340,12.14
13352,-5.18
13364,-23.52
13376,-41.65
13388,-58.87
13400,-75.2
13412,-91.24
13424,-108.05
13436,-126.79
13447,-148.23
13458,-172.29
13470,-197.62
13482,-221.68
13494,-241.29
13506,-253.48
13518,-256.37
13530,-249.52
13542,-233.91
13554,-211.62
13566,-185.64
13578,-159.59
13590,-137.45
13602,-122.73
13614,-117.47
13626,-121.27
13637,-131.12
13648,-142.31
13660,-150.06
13672,-151.11
13684,-144.38
13696,-130.57
13708,-111.16
13720,-87.78
13732,-62.27
13744,-37.08
13756,-15.25
13768,0.43
13780,8.76
13792,10.94
13804,10.11
13816,9.65
13827,11.41
13838,14.8
13850,17.63
13862,17.88
13874,15.43
13886,12.49
13898,12.45
13910,17.92
13922,29.22
13934,44.18
13946,59.18
13958,70.81
13970,76.95
13982,76.95
13994,70.99
14006,59.29
14017,41.76
14028,18.28
14040,-10.64
14052,-43.29
14064,-76.69
14076,-107.32
14088,-132.19
14100,-149.76
14112,-160.13
14124,-164.43
14136,-163.99
14148,-159.55
14160,-151.37
14172,-139.66
14184,-125.35
14196,-110.21
14207,-96.64
14218,-86.87
14230,-82.15
14242,-82.36
14254,-86.09
14266,-91.02
14278,-94.5
14290,-93.94
14302,-87.2
14314,-72.89
14326,-50.74
14338,-22.01
14350,10.53
14362,42.96
14374,71.32
14386,92.67
14397,106.01
14408,112.36
14420,114.02
14432,113.25
14444,111.22
14456,107.65
14468,101.47
14480,92.04
14492,80.11
14504,68.03
14516,58.79
14528,54.7
14540,56.26
14552,61.94
14564,68.91
14576,74.13
14587,75.37
14598,71.71
14610,63.42
14622,51.69
14634,38.25
14646,25.31
14658,15.39
14670,11.0
14682,13.95
14694,24.47
14706,40.66
14718,58.46
14730,72.67
14742,78.43
14754,72.78
14766,55.63
14777,29.64
14788,-0.7
14800,-30.4
14812,-55.06
14824,-71.46
14836,-77.63
14848,-72.92
14860,-58.0
14872,-35.15
14884,-8.04
14896,18.82
14908,41.17
14920,56.14
14932,62.9
14944,62.56
14956,57.52
14967,50.35
14978,42.98
14990,36.29
15002,30.27
15014,24.5
15026,18.78
15038,13.55
15050,9.81
15062,8.83
15074,11.51
15086,17.91
15098,27.05
15110,37.19
15122,46.46
15134,53.43
15146,57.41
15157,58.45
15168,56.98
15180,53.52
15192,48.47
15204,42.2
15216,35.14
15228,27.82
15240,20.81
15252,14.49
15264,8.91
15276,3.82
15288,-1.25
15300,-6.71
15312,-12.72
15324,-19.27
15336,-26.23
15347,-33.44
15358,-40.71
15370,-47.8
15382,-54.16
15394,-58.96
15406,-61.1
15418,-59.5
15430,-53.31
15442,-42.22
15454,-26.45
15466,-6.71
15478,15.93
15490,40.07
15502,64.14
15514,86.46
15526,105.41
15537,119.7
15548,128.59
15560,132.01
15572,130.7
15584,125.92
15596,119.26
15608,112.27
15620,106.17
15632,101.75
15644,99.28
15656,98.69
15668,99.69
15680,101.98
15692,105.33
15704,109.5
15716,114.05
15727,118.34
15738,121.57
15750,123.13
15762,122.94
15774,121.52
15786,119.77
15798,118.59
15810,118.32
15822,118.55
15834,118.23
15846,116.03
15858,110.83
15870,102.09
15882,89.85
15894,74.58
15906,56.82
15917,37.07
15928,15.82
15940,-6.14
15952,-27.56
15964,-46.81
15976,-62.24
15988,-72.92
16000,-79.17
16012,-82.65
16024,-85.87
16036,-91.14
16048,-99.6
16060,-110.64
16072,-121.98
16084,-130.43
16096,-132.91
16107,-127.42
16118,-113.63
16130,-92.97
16142,-68.17
16154,-42.61
16166,-19.51
16178,-1.16
16190,11.49
16202,18.86
16214,22.54
16226,24.89
16238,28.39
16250,34.99
16262,45.33
16274,58.27
16286,71.02
16297,79.86
16308,81.67
16320,75.25
16332,62.17
16344,46.24
16356,32.07
16368,23.05
16380,20.12
16392,21.81
16404,25.58
16416,29.38
16428,32.71
16440,36.02
16452,39.31
16464,40.94
16476,37.74
16487,26.52
16498,6.18
16510,-21.1
16522,-50.5
16534,-76.63
16546,-96.0
16558,-108.07
16570,-114.71
16582,-118.31
16594,-120.19
16606,-119.88
16618,-115.89
16630,-106.95
16642,-93.0
16654,-75.24
16666,-55.46
16677,-35.33
16688,-15.93
16700,2.08
16712,18.15
16724,31.63
16736,41.83
16748,48.37
16760,51.48
16772,52.14
16784,51.92
16796,52.57
16808,55.46
16820,61.18
16832,69.43
16844,79.37
16856,90.12
16867,101.1
16878,112.0
16890,122.45
16902,131.61
16914,138.1
16926,140.45
16938,137.77
16950,130.2
16962,119.06
16974,106.33
16986,93.88
16998,82.86
17010,73.48
17022,65.18
17034,57.15
17046,48.62
17057,38.98
17068,27.69
17080,14.23
17092,-1.81
17104,-20.42
17116,-40.91
17128,-61.81
17140,-80.98
17152,-95.97
17164,-104.63
17176,-105.63
17188,-98.93
17200,-85.89
17212,-68.96
17224,-51.06
17236,-34.77
17247,-21.72
17258,-12.24
17270,-5.66
17282,-0.81
17294,3.28
17306,6.95
17318,9.91
17330,11.44
17342,10.89
17354,7.89
17366,2.45
17378,-4.96
17390,-13.33
17402,-21.06
17414,-26.07
17426,-26.25
17437,-20.19
17448,-7.95
17460,8.61
17472,25.96
17484,39.9
17496,46.77
17508,44.54
17520,33.27
17532,14.99
17544,-7.13
17556,-29.65
17568,-49.66
17580,-65.16
17592,-75.14
17604,-79.57
17616,-79.31
17627,-75.96
17638,-71.47
17650,-67.7
17662,-65.66
17674,-65.18
17686,-65.07
17698,-63.8
17710,-60.5
17722,-55.46
17734,-50.02
17746,-45.58
17758,-42.72
17770,-40.71
17782,-37.9
17794,-32.64
17806,-24.21
17817,-12.94
17828,0.03
17840,13.37
17852,25.55
17864,34.54
17876,37.79
17888,33.29
17900,21.37
17912,6.14
17924,-4.9
17936,-3.72
17948,14.23
17960,47.15
17972,86.99
17984,122.87
17996,145.95
18007,152.94
18018,146.57
18030,132.92
18042,117.58
18054,103.12
18066,89.04
18078,73.7
18090,56.5
18102,38.83
18114,23.24
18126,11.9
18138,5.26
18150,1.89
18162,-0.67
18174,-4.52
18186,-10.38
18197,-17.4
18208,-23.79
18220,-27.91
18232,-29.14
18244,-28.21
18256,-26.76
18268,-26.44
18280,-28.18
18292,-31.77
18304,-36.16
18316,-39.96
18328,-42.11
18340,-42.25
18352,-40.75
18364,-38.32
18376,-35.73
18387,-33.49
18398,-31.72
18410,-30.29
18422,-28.87
18434,-27.14
18446,-25.03
18458,-22.71
18470,-20.67
18482,-19.49
18494,-19.52
18506,-20.64
18518,-22.14
18530,-22.96
18542,-22.04
18554,-18.79
18566,-13.26
18577,-6.17
18588,1.3
18600,7.92
18612,12.7
18624,15.05
18636,14.82
18648,12.32
18660,8.15
18672,3.18
18684,-1.66
18696,-5.55
18708,-8.01
18720,-9.04
18732,-9.23
18744,-9.59
18756,-11.29
18767,-15.27
18778,-21.77
18790,-30.2
18802,-39.22
18814,-47.15
18826,-52.5
18838,-54.5
18850,-53.32
18862,-50.01
18874,-46.13
18886,-43.22
18898,-42.27
18910,-43.5
18922,-46.35
18934,-49.84
18946,-53.09
18957,-55.67
18968,-57.67
18980,-59.33
18992,-60.61
19004,-60.85
19016,-58.87
19028,-53.47
19040,-44.26
19052,-32.11
19064,-19.15
19076,-7.92
19088,-0.33
19100,3.33
19112,4.69
19124,6.64
19136,12.1
19147,22.99
19158,39.55
19170,60.45
19182,83.49
19194,106.19
19206,125.95
19218,140.11
19230,146.4
19242,144.02
19254,134.97
19266,124.1
19278,117.54
19290,119.77
19302,131.09
19314,147.05
19326,160.59
19337,165.75
19348,160.64
19360,148.06
19372,133.33
19384,121.0
19396,112.42
19408,105.66
19420,97.32
19432,85.01
19444,68.6
19456,49.74
19468,30.5
19480,11.94
19492,-6.04
19504,-24.07
19516,-42.41
19527,-60.29
19538,-75.89
19550,-87.22
19562,-93.0
19574,-93.33
19586,-89.75
19598,-84.44
19610,-79.34
19622,-75.39
19634,-72.47
19646,-69.87
19658,-66.95
19670,-63.66
19682,-60.52
19694,-58.15
19706,-57.06
19717,-57.46
19728,-59.28
19740,-62.23
19752,-65.86
19764,-69.22
19776,-71.0
19788,-70.02
19800,-65.94
19812,-59.89
19824,-53.89
19836,-49.59
19848,-46.71
19860,-42.77
19872,-34.15
19884,-18.36
19896,4.14
19907,29.59
19918,52.53
19930,68.36
19942,75.32
19954,74.9
19966,70.45
19978,65.1
19990,60.27
20002,55.62
20014,50.09
20026,43.11
20038,35.22
20050,27.75
20062,21.86
20074,18.01
20086,15.59
20097,13.35
20108,10.05
20120,5.14
20132,-1.04
20144,-7.44
20156,-12.89
20168,-16.7
20180,-18.87
20192,-20.07
20204,-21.15
20216,-22.76
20228,-25.05
20240,-27.7
20252,-30.16
20264,-31.92
20276,-32.74
20287,-32.73
20298,-32.35
20310,-32.22
20322,-32.99
20334,-35.22
20346,-39.31
20358,-45.45
20370,-53.5
20382,-62.92
20394,-72.63
20406,-81.15
20418,-86.8
20430,-88.12
20442,-84.44
20454,-76.14
20466,-64.7
20477,-52.34
20488,-41.39
20500,-33.65
20512,-29.91
20524,-29.85
20536,-32.21
20548,-35.25
20560,-37.19
20572,-36.68
20584,-33.02
20596,-26.24
20608,-16.88
20620,-5.8
20632,6.12
20644,18.24
20656,30.13
20667,41.62
20678,52.64
20690,63.22
20702,73.42
20714,83.23
20726,92.49
20738,100.71
20750,107.1
20762,110.62
20774,110.56
20786,107.02
20798,101.38
20810,96.01
20822,93.39
20834,94.89
20846,99.95
20857,106.23
20868,110.57
20880,110.4
20892,104.85
20904,94.87
20916,82.53
20928,69.84
20940,57.93
20952,46.87
20964,36.14
20976,25.2
20988,13.82
