seconds,BVP
3,-23.89
15,-27.69
27,-32.04
39,-36.59
51,-40.69
63,-43.49
75,-44.16
87,-42.18
99,-37.46
111,-30.39
123,-21.7
135,-12.26
146,-2.82
157,6.02
169,13.85
181,20.32
193,25.19
205,28.28
217,29.6
229,29.33
241,27.89
253,25.79
265,23.61
277,21.73
289,20.37
301,19.5
313,18.96
325,18.53
336,18.03
347,17.44
359,16.84
371,16.32
383,15.89
395,15.45
407,14.76
419,13.6
431,11.79
443,9.25
455,6.06
467,2.36
479,-1.61
491,-5.56
503,-9.19
515,-12.28
526,-14.76
537,-16.8
549,-18.79
561,-21.27
573,-24.67
585,-29.14
597,-34.38
609,-39.63
621,-43.87
633,-46.02
645,-45.22
657,-41.09
669,-33.83
681,-24.12
693,-12.98
705,-1.48
716,9.48
727,19.21
739,27.26
751,33.36
763,37.35
775,39.22
787,39.18
799,37.65
811,35.25
823,32.62
835,30.29
847,28.57
859,27.46
871,26.79
883,26.29
895,25.77
906,25.11
917,24.27
929,23.25
941,21.98
953,20.37
965,18.26
977,15.56
989,12.28
1001,8.56
1013,4.62
1025,0.68
1037,-3.14
1049,-6.79
1061,-10.26
1073,-13.59
1085,-16.78
1096,-19.82
1107,-22.8
1119,-25.9
1131,-29.41
1143,-33.62
1155,-38.71
1167,-44.55
1179,-50.6
1191,-55.97
1203,-59.56
1215,-60.33
1227,-57.59
1239,-51.25
1251,-41.8
1263,-30.28
1275,-17.92
1286,-5.91
1297,4.87
1309,13.95
1321,21.23
1333,26.76
1345,30.66
1357,33.02
1369,33.9
1381,33.51
1393,32.25
1405,30.63
1417,29.23
1429,28.41
1441,28.3
1453,28.74
1465,29.44
1476,30.09
1487,30.48
1499,30.44
1511,29.89
1523,28.74
1535,26.97
1547,24.56
1559,21.61
1571,18.26
1583,14.67
1595,11.01
1607,7.34
1619,3.73
1631,0.13
1643,-3.45
1655,-7.04
1666,-10.66
1677,-14.27
1689,-17.87
1701,-21.47
1713,-25.16
1725,-29.04
1737,-33.28
1749,-37.96
1761,-43.01
1773,-48.09
1785,-52.56
1797,-55.56
1809,-56.19
1821,-53.79
1833,-48.16
1845,-39.62
1856,-29.0
1867,-17.36
1879,-5.7
1891,5.19
1903,14.83
1915,22.94
1927,29.34
1939,33.92
1951,36.59
1963,37.42
1975,36.66
1987,34.78
1999,32.36
2011,29.92
2023,27.88
2035,26.5
2046,25.81
2057,25.71
2069,25.96
2081,26.27
2093,26.31
2105,25.86
2117,24.81
2129,23.2
2141,21.14
2153,18.77
2165,16.18
2177,13.4
2189,10.43
2201,7.23
2213,3.74
2225,-0.02
2236,-4.01
2247,-8.05
2259,-11.95
2271,-15.49
2283,-18.55
2295,-21.24
2307,-23.82
2319,-26.72
2331,-30.35
2343,-34.88
2355,-40.11
2367,-45.45
2379,-49.95
2391,-52.56
2403,-52.36
2415,-48.79
2426,-41.86
2437,-32.08
2449,-20.44
2461,-8.1
2473,3.81
2485,14.39
2497,23.08
2509,29.59
2521,33.93
2533,36.17
2545,36.58
2557,35.46
2569,33.3
2581,30.67
2593,28.2
2605,26.4
2616,25.53
2627,25.55
2639,26.15
2651,26.86
2663,27.29
2675,27.23
2687,26.62
2699,25.58
2711,24.24
2723,22.67
2735,20.87
2747,18.73
2759,16.16
2771,13.04
2783,9.4
2795,5.34
2806,1.12
2817,-3.01
2829,-6.81
2841,-10.16
2853,-13.15
2865,-15.97
2877,-18.93
2889,-22.4
2901,-26.65
2913,-31.75
2925,-37.38
2937,-42.82
2949,-47.01
2961,-48.85
2973,-47.51
2985,-42.76
2996,-35.04
3007,-25.26
3019,-14.51
3031,-3.74
3043,6.36
3055,15.35
3067,22.89
3079,28.66
3091,32.35
3103,33.85
3115,33.35
3127,31.33
3139,28.48
3151,25.54
3163,23.12
3175,21.54
3186,20.88
3197,20.92
3209,21.36
3221,21.82
3233,22.03
3245,21.82
3257,21.21
3269,20.27
3281,19.1
3293,17.74
3305,16.12
3317,14.11
3329,11.6
3341,8.52
3353,4.88
3365,0.77
3376,-3.66
3387,-8.23
3399,-12.67
3411,-16.77
3423,-20.41
3435,-23.65
3447,-26.73
3459,-30.0
3471,-33.8
3483,-38.31
3495,-43.4
3507,-48.61
3519,-53.14
3531,-55.96
3543,-56.08
3555,-52.77
3566,-45.84
3577,-35.79
3589,-23.65
3601,-10.79
3613,1.51
3625,12.33
3637,21.19
3649,28.03
3661,32.97
3673,36.16
3685,37.76
3697,37.97
3709,37.08
3721,35.48
3733,33.59
3745,31.75
3756,30.15
3767,28.82
3779,27.7
3791,26.74
3803,25.94
3815,25.33
3827,24.92
3839,24.6
3851,24.18
3863,23.39
3875,21.97
3887,19.79
3899,16.91
3911,13.5
3923,9.86
3935,6.22
3946,2.7
3957,-0.75
3969,-4.25
3981,-7.89
3993,-11.66
4005,-15.38
4017,-18.81
4029,-21.8
4041,-24.34
4053,-26.67
4065,-29.18
4077,-32.31
4089,-36.37
4101,-41.42
4113,-47.12
4125,-52.76
4136,-57.31
4147,-59.63
4159,-58.8
4171,-54.37
4183,-46.54
4195,-36.11
4207,-24.17
4219,-11.86
4231,-0.08
4243,10.58
4255,19.71
4267,27.03
4279,32.34
4291,35.59
4303,36.96
4315,36.89
4326,35.96
4337,34.68
4349,33.44
4361,32.38
4373,31.46
4385,30.61
4397,29.74
4409,28.86
4421,27.97
4433,27.09
4445,26.25
4457,25.41
4469,24.5
4481,23.39
4493,21.9
4505,19.87
4516,17.21
4527,14.0
4539,10.46
4551,6.88
4563,3.57
4575,0.66
4587,-1.86
4599,-4.2
4611,-6.57
4623,-9.16
4635,-12.05
4647,-15.14
4659,-18.27
4671,-21.26
4683,-24.04
4695,-26.63
4706,-29.19
4717,-31.99
4729,-35.31
4741,-39.35
4753,-44.06
4765,-49.03
4777,-53.44
4789,-56.21
4801,-56.28
4813,-52.92
4825,-46.05
4837,-36.26
4849,-24.67
4861,-12.6
4873,-1.21
4885,8.7
4896,16.73
4907,22.85
4919,27.18
4931,29.93
4943,31.28
4955,31.45
4967,30.68
4979,29.27
4991,27.63
5003,26.15
5015,25.19
5027,24.88
5039,25.21
5051,25.96
5063,26.85
5075,27.62
5086,28.07
5097,28.03
5109,27.33
5121,25.79
5133,23.24
5145,19.67
5157,15.34
5169,10.78
5181,6.61
5193,3.23
5205,0.72
5217,-1.26
5229,-3.22
5241,-5.58
5253,-8.47
5265,-11.68
5276,-14.8
5287,-17.41
5299,-19.34
5311,-20.73
5323,-22.0
5335,-23.74
5347,-26.54
5359,-30.72
5371,-36.21
5383,-42.41
5395,-48.28
5407,-52.56
5419,-54.08
5431,-52.1
5443,-46.49
5455,-37.73
5466,-26.72
5477,-14.59
5489,-2.43
5501,8.8
5513,18.45
5525,26.03
5537,31.38
5549,34.54
5561,35.77
5573,35.49
5585,34.24
5597,32.53
5609,30.76
5621,29.17
5633,27.85
5645,26.82
5656,26.06
5667,25.57
5679,25.29
5691,25.11
5703,24.81
5715,24.13
5727,22.84
5739,20.82
5751,18.17
5763,15.13
5775,12.01
5787,9.11
5799,6.6
5811,4.46
5823,2.52
5835,0.54
5846,-1.74
5857,-4.43
5869,-7.57
5881,-11.04
5893,-14.61
5905,-18.07
5917,-21.19
5929,-23.93
5941,-26.43
5953,-28.99
5965,-32.04
5977,-35.92
5989,-40.7
6001,-46.03
6013,-51.1
6025,-54.78
6036,-55.93
6047,-53.73
6059,-47.97
6071,-39.13
6083,-28.23
6095,-16.52
6107,-5.14
6119,5.09
6131,13.73
6143,20.65
6155,25.85
6167,29.39
6179,31.38
6191,31.97
6203,31.49
6215,30.31
6226,28.85
6237,27.47
6249,26.4
6261,25.69
6273,25.26
6285,24.96
6297,24.66
6309,24.29
6321,23.88
6333,23.49
6345,23.14
6357,22.75
6369,22.11
6381,20.96
6393,19.1
6405,16.45
6416,13.16
6427,9.52
6439,5.93
6451,2.69
6463,-0.04
6475,-2.35
6487,-4.52
6499,-6.86
6511,-9.58
6523,-12.67
6535,-15.9
6547,-18.95
6559,-21.58
6571,-23.78
6583,-25.75
6595,-27.84
6606,-30.4
6617,-33.73
6629,-37.96
6641,-43.09
6653,-48.88
6665,-54.73
6677,-59.68
6689,-62.51
6701,-62.09
6713,-57.8
6725,-49.78
6737,-38.97
6749,-26.71
6761,-14.39
6773,-3.01
6785,6.89
6796,15.19
6807,21.89
6819,27.03
6831,30.61
6843,32.66
6855,33.35
6867,33.0
6879,32.02
6891,30.82
6903,29.77
6915,29.05
6927,28.65
6939,28.44
6951,28.19
6963,27.75
6975,27.06
6986,26.19
6997,25.24
7009,24.21
7021,22.93
7033,21.11
7045,18.58
7057,15.37
7069,11.79
7081,8.33
7093,5.42
7105,3.21
7117,1.57
7129,0.15
7141,-1.47
7153,-3.55
7165,-6.2
7176,-9.35
7187,-12.81
7199,-16.4
7211,-19.99
7223,-23.46
7235,-26.75
7247,-29.9
7259,-32.99
7271,-36.2
7283,-39.79
7295,-43.93
7307,-48.65
7319,-53.62
7331,-58.15
7343,-61.24
7355,-61.89
7366,-59.36
7377,-53.48
7389,-44.71
7401,-34.02
7413,-22.56
7425,-11.33
7437,-1.02
7449,8.03
7461,15.72
7473,21.94
7485,26.54
7497,29.35
7509,30.28
7521,29.56
7533,27.69
7545,25.54
7556,24.0
7567,23.81
7579,25.3
7591,28.32
7603,32.27
7615,36.36
7627,39.79
7639,41.96
7651,42.57
7663,41.64
7675,39.42
7687,36.31
7699,32.77
7711,29.26
7723,26.11
7735,23.45
7746,21.12
7757,18.65
7769,15.36
7781,10.62
7793,4.06
7805,-4.21
7817,-13.69
7829,-23.6
7841,-33.12
7853,-41.54
7865,-48.37
7877,-53.29
7889,-56.23
7901,-57.33
7913,-56.94
7925,-55.51
7936,-53.37
7947,-50.5
7959,-46.47
7971,-40.56
7983,-32.07
7995,-20.6
8007,-6.23
8019,10.59
8031,29.15
8043,48.62
8055,67.84
8067,85.34
8079,99.41
8091,108.46
8103,111.66
8115,109.36
8126,103.08
8137,95.02
8149,87.15
8161,80.58
8173,75.19
8185,70.0
8197,63.86
8209,56.13
8221,46.97
8233,37.24
8245,28.1
8257,20.62
8269,15.52
8281,13.14
8293,13.47
8305,16.26
8316,21.06
8327,27.3
8339,34.4
8351,41.9
8363,49.55
8375,57.4
8387,65.66
8399,74.61
8411,84.3
8423,94.4
8435,104.06
8447,112.0
8459,116.75
8471,116.99
8483,111.9
8495,101.52
8506,86.8
8517,69.52
8529,51.82
8541,35.63
8553,22.14
8565,11.53
8577,3.18
8589,-3.9
8601,-10.46
8613,-16.75
8625,-22.56
8637,-27.59
8649,-31.83
8661,-35.62
8673,-39.52
8685,-43.79
8696,-48.23
8707,-51.97
8719,-53.84
8731,-52.81
8743,-48.49
8755,-41.56
8767,-33.78
8779,-27.77
8791,-26.27
8803,-31.32
8815,-43.44
8827,-61.2
8839,-81.55
8851,-100.7
8863,-115.4
8875,-123.8
8886,-125.95
8897,-123.44
8909,-118.64
8921,-113.77
8933,-110.34
8945,-108.8
8957,-108.81
8969,-109.6
8981,-110.48
8993,-111.14
9005,-111.71
9017,-112.59
9029,-114.05
9041,-116.05
9053,-118.17
9065,-119.6
9076,-119.43
9087,-116.76
9099,-110.83
9111,-101.19
9123,-87.78
9135,-71.09
9147,-52.04
9159,-31.98
9171,-12.25
9183,6.0
9195,21.99
9207,35.26
9219,45.63
9231,53.15
9243,58.13
9255,61.23
9266,63.35
9277,65.53
9289,68.58
9301,72.93
9313,78.48
9325,84.85
9337,91.5
9349,98.05
9361,104.31
9373,110.22
9385,115.89
9397,121.35
9409,126.63
9421,131.65
9433,136.23
9445,140.15
9456,143.15
9467,145.04
9479,145.73
9491,145.32
9503,144.0
9515,141.88
9527,138.96
9539,135.03
9551,129.69
9563,122.61
9575,113.63
9587,102.9
9599,90.8
9611,77.86
9623,64.58
9635,51.29
9646,38.0
9657,24.5
9669,10.39
9681,-4.65
9693,-20.65
9705,-37.08
9717,-52.97
9729,-67.05
9741,-78.18
9753,-85.82
9765,-90.12
9777,-91.94
9789,-92.4
9801,-92.56
9813,-93.05
9825,-94.04
9836,-95.3
9847,-96.46
9859,-97.28
9871,-97.7
9883,-97.93
9895,-98.33
9907,-99.27
9919,-100.9
9931,-103.04
9943,-105.24
9955,-106.87
9967,-107.46
9979,-106.9
9991,-105.58
10003,-104.15
10015,-103.29
10026,-103.37
10037,-104.31
10049,-105.61
10061,-106.64
10073,-106.89
10085,-106.17
10097,-104.69
10109,-102.95
10121,-101.56
10133,-101.06
10145,-101.87
10157,-104.16
10169,-107.79
10181,-112.18
10193,-116.32
10205,-118.86
10216,-118.63
10227,-115.14
10239,-108.95
10251,-101.57
10263,-94.86
10275,-90.21
10287,-87.86
10299,-86.86
10311,-85.56
10323,-82.5
10335,-77.2
10347,-70.41
10359,-63.61
10371,-58.23
10383,-54.8
10395,-52.69
10406,-50.48
10417,-46.75
10429,-40.8
10441,-33.02
10453,-24.56
10465,-16.63
10477,-9.86
10489,-3.99
10501,1.75
10513,7.91
10525,14.18
10537,19.23
10549,21.27
10561,18.87
10573,11.83
10585,1.31
10596,-10.53
10607,-21.55
10619,-30.39
10631,-36.95
10643,-42.16
10655,-47.41
10667,-53.88
10679,-62.04
10691,-71.62
10703,-81.71
10715,-91.08
10727,-98.4
10739,-102.45
10751,-102.27
10763,-97.26
10775,-87.36
10786,-73.05
10797,-55.3
10809,-35.32
10821,-14.36
10833,6.46
10845,26.18
10857,43.96
10869,59.12
10881,71.16
10893,79.88
10905,85.49
10917,88.66
10929,90.27
10941,91.22
10953,92.09
10965,93.09
10976,94.04
10987,94.59
10999,94.52
11011,93.84
11023,92.88
11035,92.0
11047,91.43
11059,91.07
11071,90.47
11083,89.0
11095,86.1
11107,81.5
11119,75.31
11131,67.92
11143,59.82
11155,51.44
11166,43.04
11177,34.68
11189,26.28
11201,17.67
11213,8.62
11225,-1.04
11237,-11.25
11249,-21.49
11261,-30.8
11273,-37.78
11285,-40.96
11297,-39.22
11309,-32.18
11321,-20.31
11333,-4.99
11345,11.99
11356,28.81
11367,44.13
11379,57.17
11391,67.75
11403,75.97
11415,81.95
11427,85.72
11439,87.29
11451,86.83
11463,84.84
11475,82.05
11487,79.33
11499,77.26
11511,76.04
11523,75.42
11535,74.91
11546,74.1
11557,72.75
11569,70.88
11581,68.68
11593,66.36
11605,63.97
11617,61.35
11629,58.22
11641,54.25
11653,49.23
11665,43.19
11677,36.44
11689,29.48
11701,22.81
11713,16.74
11725,11.34
11736,6.36
11747,1.37
11759,-4.09
11771,-10.37
11783,-17.64
11795,-25.78
11807,-34.33
11819,-42.42
11831,-48.87
11843,-52.41
11855,-52.01
11867,-47.16
11879,-38.16
11891,-25.99
11903,-12.05
11915,2.2
11926,15.56
11937,27.32
11949,37.11
11961,44.89
11973,50.69
11985,54.62
11997,56.83
12009,57.65
12021,57.5
12033,56.94
12045,56.53
12057,56.62
12069,57.29
12081,58.31
12093,59.24
12105,59.63
12116,59.18
12127,57.86
12139,55.8
12151,53.19
12163,50.1
12175,46.49
12187,42.16
12199,36.97
12211,30.97
12223,24.38
12235,17.56
12247,10.94
12259,4.85
12271,-0.57
12283,-5.36
12295,-9.72
12306,-14.0
12317,-18.56
12329,-23.67
12341,-29.4
12353,-35.48
12365,-41.24
12377,-45.75
12389,-47.9
12401,-46.77
12413,-41.91
12425,-33.47
12437,-22.24
12449,-9.36
12461,3.91
12473,16.53
12485,27.82
12496,37.38
12507,45.05
12519,50.7
12531,54.28
12543,55.84
12555,55.64
12567,54.18
12579,52.11
12591,50.08
12603,48.55
12615,47.67
12627,47.28
12639,47.01
12651,46.48
12663,45.45
12675,43.86
12686,41.79
12697,39.37
12709,36.54
12721,33.2
12733,29.14
12745,24.27
12757,18.74
12769,12.86
12781,7.05
12793,1.66
12805,-3.18
12817,-7.56
12829,-11.74
12841,-15.99
12853,-20.63
12865,-25.84
12876,-31.78
12887,-38.45
12899,-45.58
12911,-52.59
12923,-58.52
12935,-62.22
12947,-62.67
12959,-59.26
12971,-52.1
12983,-41.94
12995,-30.01
13007,-17.64
13019,-5.91
13031,4.51
13043,13.3
13055,20.39
13066,25.81
13077,29.54
13089,31.58
13101,32.06
13113,31.28
13125,29.71
13137,27.92
13149,26.39
13161,25.41
13173,25.02
13185,25.11
13197,25.47
13209,25.92
13221,26.29
13233,26.52
13245,26.68
13256,26.96
13267,27.76
13279,29.49
13291,32.54
13303,37.0
13315,42.59
13327,48.62
13339,54.17
13351,58.33
13363,60.42
13375,60.11
13387,57.42
13399,52.6
13411,45.99
13423,37.87
13435,28.47
13446,17.98
13457,6.64
13469,-5.16
13481,-16.88
13493,-27.82
13505,-37.15
13517,-44.03
13529,-47.68
13541,-47.57
13553,-43.57
13565,-36.21
13577,-26.57
13589,-16.12
13601,-6.3
13613,1.82
13625,7.81
13636,11.83
13647,14.36
13659,15.86
13671,16.59
13683,16.65
13695,16.04
13707,14.86
13719,13.36
13731,11.7
13743,9.95
13755,7.95
13767,5.45
13779,2.41
13791,-0.98
13803,-4.17
13815,-6.59
13826,-7.81
13837,-7.84
13849,-7.05
13861,-6.04
13873,-5.42
13885,-5.59
13897,-6.65
13909,-8.49
13921,-10.93
13933,-13.75
13945,-16.85
13957,-20.19
13969,-23.76
13981,-27.5
13993,-31.23
14005,-34.73
14016,-37.8
14027,-40.51
14039,-43.22
14051,-46.48
14063,-50.75
14075,-56.11
14087,-62.05
14099,-67.47
14111,-71.07
14123,-71.64
14135,-68.49
14147,-61.63
14159,-51.74
14171,-39.92
14183,-27.45
14195,-15.43
14206,-4.63
14217,4.56
14229,12.06
14241,18.01
14253,22.65
14265,26.24
14277,28.96
14289,31.01
14301,32.5
14313,33.57
14325,34.34
14337,34.96
14349,35.57
14361,36.28
14373,37.12
14385,38.03
14396,38.88
14407,39.48
14419,39.69
14431,39.42
14443,38.66
14455,37.44
14467,35.81
14479,33.83
14491,31.55
14503,29.05
14515,26.32
14527,23.33
14539,19.95
14551,16.0
14563,11.22
14575,5.41
14586,-1.57
14597,-9.64
14609,-18.55
14621,-27.85
14633,-37.08
14645,-45.86
14657,-53.97
14669,-61.4
14681,-68.15
14693,-74.1
14705,-78.9
14717,-82.03
14729,-82.95
14741,-81.38
14753,-77.39
14765,-71.46
14776,-64.34
14787,-56.78
14799,-49.38
14811,-42.47
14823,-36.17
14835,-30.53
14847,-25.59
14859,-21.51
14871,-18.41
14883,-16.33
14895,-15.09
14907,-14.37
14919,-13.78
14931,-12.97
14943,-11.81
14955,-10.36
14966,-8.81
14977,-7.39
14989,-6.23
15001,-5.35
15013,-4.72
15025,-4.28
15037,-3.93
15049,-3.59
15061,-3.18
15073,-2.67
15085,-2.15
15097,-1.79
15109,-1.86
15121,-2.6
15133,-4.07
15145,-6.12
15156,-8.44
15167,-10.69
15179,-12.71
15191,-14.53
15203,-16.42
15215,-18.71
15227,-21.63
15239,-25.22
15251,-29.26
15263,-33.34
15275,-36.89
15287,-39.23
15299,-39.76
15311,-38.01
15323,-33.82
15335,-27.44
15346,-19.41
15357,-10.5
15369,-1.56
15381,6.7
15393,13.73
15405,19.17
15417,22.86
15429,24.78
15441,25.14
15453,24.28
15465,22.62
15477,20.59
15489,18.55
15501,16.73
15513,15.27
15525,14.25
15536,13.68
15547,13.44
15559,13.34
15571,13.09
15583,12.42
15595,11.19
15607,9.39
15619,7.14
15631,4.65
15643,2.09
15655,-0.46
15667,-2.96
15679,-5.44
15691,-7.94
15703,-10.43
15715,-12.85
15726,-15.13
15737,-17.27
15749,-19.33
15761,-21.45
15773,-23.84
15785,-26.6
15797,-29.73
15809,-33.12
15821,-36.58
15833,-39.95
15845,-42.97
15857,-45.37
15869,-46.66
15881,-46.34
15893,-43.98
15905,-39.47
15916,-33.11
15927,-25.53
15939,-17.57
15951,-9.98
15963,-3.28
15975,2.26
15987,6.59
15999,9.74
16011,11.79
16023,12.9
16035,13.22
16047,13.0
16059,12.51
16071,12.01
16083,11.73
16095,11.84
16106,12.45
16117,13.52
16129,14.93
16141,16.47
16153,17.94
16165,19.2
16177,20.16
16189,20.83
16201,21.18
16213,21.15
16225,20.67
16237,19.64
16249,18.05
16261,15.96
16273,13.48
16285,10.76
16296,7.87
16307,4.85
16319,1.77
16331,-1.3
16343,-4.33
16355,-7.33
16367,-10.5
16379,-14.15
16391,-18.65
16403,-24.12
16415,-30.35
16427,-36.68
16439,-42.11
16451,-45.57
16463,-46.25
16475,-43.82
16486,-38.54
16497,-31.06
16509,-22.25
16521,-12.94
16533,-3.83
16545,4.6
16557,11.95
16569,17.93
16581,22.33
16593,25.08
16605,26.36
16617,26.46
16629,25.82
16641,24.87
16653,23.94
16665,23.22
16676,22.83
16687,22.74
16699,22.86
16711,23.06
16723,23.16
16735,23.02
16747,22.54
16759,21.7
16771,20.53
16783,19.06
16795,17.33
16807,15.37
16819,13.21
16831,10.87
16843,8.35
16855,5.66
16866,2.82
16877,-0.16
16889,-3.21
16901,-6.24
16913,-9.22
16925,-12.14
16937,-15.13
16949,-18.31
16961,-21.81
16973,-25.73
16985,-30.08
16997,-34.75
17009,-39.44
17021,-43.61
17033,-46.5
17045,-47.28
17056,-45.32
17067,-40.48
17079,-33.13
17091,-24.1
17103,-14.39
17115,-4.88
17127,3.88
17139,11.6
17151,18.16
17163,23.41
17175,27.15
17187,29.24
17199,29.72
17211,28.92
17223,27.4
17235,25.8
17246,24.62
17257,24.09
17269,24.12
17281,24.43
17293,24.74
17305,24.83
17317,24.64
17329,24.16
17341,23.42
17353,22.39
17365,21.01
17377,19.22
17389,16.96
17401,14.28
17413,11.23
17425,7.95
17436,4.6
17447,1.36
17459,-1.7
17471,-4.59
17483,-7.48
17495,-10.6
17507,-14.16
17519,-18.33
17531,-23.09
17543,-28.32
17555,-33.66
17567,-38.65
17579,-42.63
17591,-44.86
17603,-44.64
17615,-41.5
17626,-35.48
17637,-27.07
17649,-17.24
17661,-7.1
17673,2.38
17685,10.53
17697,17.06
17709,21.88
17721,25.0
17733,26.48
17745,26.46
17757,25.23
17769,23.23
17781,20.98
17793,18.95
17805,17.39
17816,16.33
17827,15.68
17839,15.27
17851,15.02
17863,14.89
17875,14.93
17887,15.12
17899,15.41
17911,15.61
17923,15.48
17935,14.7
17947,13.02
17959,10.34
17971,6.8
17983,2.8
17995,-1.15
18006,-4.66
18017,-7.58
18029,-10.13
18041,-12.75
18053,-15.95
18065,-20.07
18077,-25.13
18089,-30.85
18101,-36.72
18113,-42.03
18125,-46.05
18137,-47.93
18149,-47.01
18161,-42.91
18173,-35.76
18185,-26.24
18196,-15.42
18207,-4.52
18219,5.52
18231,14.19
18243,21.39
18255,27.25
18267,31.82
18279,34.98
18291,36.53
18303,36.4
18315,34.84
18327,32.46
18339,30.06
18351,28.34
18363,27.66
18375,27.92
18386,28.72
18397,29.54
18409,29.95
18421,29.79
18433,29.04
18445,27.78
18457,26.1
18469,23.99
18481,21.38
18493,18.21
18505,14.48
18517,10.32
18529,5.91
18541,1.51
18553,-2.74
18565,-6.79
18576,-10.68
18587,-14.51
18599,-18.35
18611,-22.27
18623,-26.31
18635,-30.6
18647,-35.29
18659,-40.56
18671,-46.28
18683,-51.98
18695,-56.71
18707,-59.31
18719,-58.71
18731,-54.35
18743,-46.42
18755,-35.79
18766,-23.74
18777,-11.53
18789,-0.14
18801,9.92
18813,18.45
18825,25.41
18837,30.74
18849,34.42
18861,36.49
18873,37.14
18885,36.76
18897,35.82
18909,34.72
18921,33.8
18933,33.19
18945,32.89
18956,32.85
18967,32.94
18979,33.04
18991,33.04
19003,32.81
19015,32.28
19027,31.38
19039,30.08
19051,28.35
19063,26.17
19075,23.43
19087,20.12
19099,16.23
19111,11.91
19123,7.38
19135,2.87
19146,-1.41
19157,-5.37
19169,-8.97
19181,-12.25
19193,-15.31
19205,-18.29
19217,-21.49
19229,-25.23
19241,-29.77
19253,-35.1
19265,-40.82
19277,-46.09
19289,-49.89
19301,-51.3
19313,-49.77
19325,-45.27
19336,-38.16
19347,-29.15
19359,-19.03
19371,-8.63
19383,1.28
19395,10.05
19407,17.24
19419,22.66
19431,26.41
19443,28.77
19455,30.13
19467,30.83
19479,31.1
19491,31.06
19503,30.76
19515,30.3
19526,29.82
19537,29.48
19549,29.36
19561,29.39
19573,29.27
19585,28.67
19597,27.38
19609,25.43
19621,23.1
19633,20.76
19645,18.69
19657,16.87
19669,15.01
19681,12.74
19693,9.77
19705,6.13
19716,2.07
19727,-2.01
19739,-5.84
19751,-9.31
19763,-12.54
19775,-15.81
19787,-19.28
19799,-23.1
19811,-27.26
19823,-31.62
19835,-36.02
19847,-40.18
19859,-43.66
19871,-45.95
19883,-46.41
19895,-44.46
19906,-39.79
19917,-32.48
19929,-23.11
19941,-12.63
19953,-2.11
19965,7.5
19977,15.58
19989,21.93
20001,26.56
20013,29.65
20025,31.38
20037,31.87
20049,31.29
20061,29.87
20073,28.02
20085,26.27
20096,25.05
20107,24.62
20119,24.92
20131,25.65
20143,26.38
20155,26.73
20167,26.44
20179,25.43
20191,23.76
20203,21.57
20215,18.96
20227,15.98
20239,12.64
20251,8.95
20263,4.96
20275,0.83
20286,-3.22
20297,-6.96
20309,-10.3
20321,-13.26
20333,-16.03
20345,-18.9
20357,-22.15
20369,-25.96
20381,-30.32
20393,-34.96
20405,-39.4
20417,-42.97
20429,-44.94
20441,-44.7
20453,-41.9
20465,-36.54
20476,-29.0
20487,-20.01
20499,-10.39
20511,-0.95
20523,7.67
20535,15.11
20547,21.19
20559,25.85
20571,29.07
20583,30.87
20595,31.3
20607,30.62
20619,29.26
20631,27.71
20643,26.46
20655,25.8
20666,25.79
20677,26.26
20689,26.97
20701,27.62
20713,28.01
20725,27.95
20737,27.33
20749,26.07
20761,24.11
20773,21.48
20785,18.26
20797,14.57
20809,10.52
20821,6.24
20833,1.85
20845,-2.55
20856,-6.82
20867,-10.82
20879,-14.39
20891,-17.45
20903,-20.0
20915,-22.14
20927,-24.15
20939,-26.34
20951,-29.05
20963,-32.52
20975,-36.78
20987,-41.54
20999,-46.19
