seconds,BVP
9,-171.84
21,-214.69
33,-254.91
45,-296.72
57,-344.49
69,-401.02
81,-465.79
93,-533.69
105,-595.63
117,-640.8
129,-660.16
141,-649.83
153,-612.56
165,-556.64
177,-492.47
188,-428.63
199,-369.31
211,-314.3
223,-260.98
235,-206.97
247,-151.86
259,-97.18
271,-44.93
283,3.97
295,50.48
307,96.99
319,146.04
331,199.2
343,256.65
355,317.45
367,380.53
378,444.86
389,509.04
401,570.5
413,625.18
425,668.1
437,695.24
449,705.44
461,701.05
473,687.27
485,669.73
497,652.18
509,635.15
521,616.67
533,593.97
545,565.41
557,531.41
568,493.82
579,454.9
591,416.18
603,378.2
615,341.05
627,304.93
639,270.65
651,239.4
663,212.18
675,189.2
687,169.69
699,152.14
711,135.03
723,117.53
735,99.73
747,82.55
758,67.17
769,54.36
781,44.1
793,35.68
805,28.02
817,20.14
829,11.76
841,3.15
853,-4.98
865,-12.02
877,-17.8
889,-22.78
901,-27.75
913,-33.49
925,-40.41
937,-48.19
948,-56.22
959,-63.7
971,-70.23
983,-75.99
995,-81.62
1007,-87.91
1019,-95.29
1031,-103.64
1043,-112.23
1055,-120.2
1067,-126.8
1079,-131.8
1091,-135.57
1103,-139.0
1115,-143.25
1127,-149.55
1138,-158.85
1149,-171.03
1161,-184.38
1173,-195.26
1185,-198.93
1197,-191.33
1209,-171.32
1221,-141.68
1233,-108.88
1245,-80.7
1257,-63.21
1269,-58.68
1281,-65.09
1293,-77.77
1305,-92.0
1317,-105.21
1328,-117.65
1339,-131.43
1351,-148.82
1363,-170.67
1375,-195.9
1387,-222.28
1399,-247.29
1411,-269.21
1423,-287.52
1435,-302.92
1447,-316.81
1459,-331.13
1471,-348.05
1483,-369.58
1495,-396.45
1507,-426.89
1518,-455.69
1529,-474.52
1541,-474.02
1553,-446.78
1565,-390.75
1577,-310.85
1589,-218.34
1601,-127.59
1613,-51.71
1625,1.22
1637,29.71
1649,37.74
1661,31.85
1673,18.16
1685,0.63
1697,-18.63
1708,-38.08
1719,-55.43
1731,-67.56
1743,-71.72
1755,-66.97
1767,-55.24
1779,-40.71
1791,-27.96
1803,-19.94
1815,-16.85
1827,-16.58
1839,-16.15
1851,-13.51
1863,-8.81
1875,-3.97
1887,-1.68
1898,-3.51
1909,-9.09
1921,-16.13
1933,-21.69
1945,-23.71
1957,-22.2
1969,-19.33
1981,-18.18
1993,-21.51
2005,-30.58
2017,-45.02
2029,-63.2
2041,-83.11
2053,-102.83
2065,-120.76
2077,-135.64
2088,-146.49
2099,-153.11
2111,-156.31
2123,-157.91
2135,-160.06
2147,-164.28
2159,-170.56
2171,-176.6
2183,-178.59
2195,-172.05
2207,-153.58
2219,-121.92
2231,-78.29
2243,-26.07
2255,30.38
2267,86.29
2278,137.39
2289,179.65
2301,209.77
2313,225.35
2325,225.91
2337,213.52
2349,192.56
2361,168.88
2373,147.57
2385,131.44
2397,120.08
2409,110.84
2421,100.61
2433,87.75
2445,73.07
2457,59.19
2468,49.44
2479,46.1
2491,49.56
2503,58.04
2515,68.12
2527,75.7
2539,77.07
2551,70.17
2563,55.11
2575,34.55
2587,12.77
2599,-5.69
2611,-17.83
2623,-23.35
2635,-24.53
2647,-25.31
2658,-29.42
2669,-39.18
2681,-54.66
2693,-74.15
2705,-94.91
2717,-114.39
2729,-130.93
2741,-143.96
2753,-154.04
2765,-162.73
2777,-172.2
2789,-184.71
2801,-201.68
2813,-222.51
2825,-243.85
2837,-259.99
2848,-264.15
2859,-250.92
2871,-218.35
2883,-168.92
2895,-108.66
2907,-45.36
2919,13.67
2931,63.29
2943,100.88
2955,125.98
2967,139.43
2979,142.83
2991,138.24
3003,128.51
3015,117.15
3027,108.16
3038,105.48
3049,111.95
3061,128.33
3073,152.95
3085,181.92
3097,210.24
3109,233.34
3121,248.59
3133,256.14
3145,258.64
3157,260.09
3169,264.21
3181,273.04
3193,286.2
3205,300.76
3217,312.36
3228,316.39
3239,309.61
3251,291.04
3263,262.01
3275,225.23
3287,183.6
3299,138.95
3311,91.52
3323,40.83
3335,-13.35
3347,-69.62
3359,-124.54
3371,-173.18
3383,-210.67
3395,-233.76
3407,-242.09
3418,-238.51
3429,-228.12
3441,-217.29
3453,-211.64
3465,-214.59
3477,-226.08
3489,-242.2
3501,-256.07
3513,-259.64
3525,-246.34
3537,-213.15
3549,-162.02
3561,-99.17
3573,-33.31
3585,26.82
3597,74.75
3608,107.2
3619,124.04
3631,127.03
3643,118.82
3655,101.87
3667,78.6
3679,51.79
3691,24.81
3703,1.37
3715,-15.49
3727,-24.49
3739,-26.86
3751,-25.72
3763,-24.81
3775,-26.69
3787,-31.51
3798,-37.26
3809,-40.8
3821,-39.73
3833,-33.53
3845,-23.89
3857,-14.02
3869,-7.21
3881,-5.41
3893,-8.52
3905,-14.55
3917,-20.53
3929,-24.08
3941,-24.39
3953,-22.79
3965,-22.12
3977,-25.33
3988,-34.17
3999,-48.4
4011,-66.0
4023,-84.14
4035,-100.36
4047,-113.36
4059,-123.3
4071,-131.35
4083,-139.06
4095,-147.98
4107,-159.19
4119,-172.93
4131,-188.16
4143,-202.31
4155,-211.58
4167,-211.69
4178,-199.05
4189,-171.61
4201,-129.73
4213,-76.06
4225,-15.11
4237,47.41
4249,105.4
4261,153.38
4273,187.13
4285,204.56
4297,206.04
4309,194.07
4321,172.68
4333,146.6
4345,120.28
4357,97.35
4368,80.42
4379,70.66
4391,67.79
4403,70.12
4415,75.03
4427,79.97
4439,83.46
4451,85.34
4463,86.49
4475,87.79
4487,89.07
4499,88.79
4511,84.6
4523,74.41
4535,57.71
4547,35.97
4558,12.23
4569,-9.71
4581,-26.7
4593,-37.2
4605,-41.66
4617,-42.22
4629,-41.8
4641,-42.85
4653,-46.28
4665,-51.38
4677,-56.08
4689,-58.15
4701,-56.63
4713,-52.29
4725,-47.5
4737,-45.16
4748,-47.25
4759,-53.77
4771,-62.59
4783,-70.15
4795,-72.76
4807,-67.92
4819,-54.83
4831,-34.41
4843,-8.3
4855,21.92
4867,55.19
4879,90.66
4891,126.79
4903,160.48
4915,186.97
4927,201.04
4938,198.66
4949,178.96
4961,145.07
4973,103.23
4985,60.83
4997,23.78
5009,-5.13
5021,-26.44
5033,-42.52
5045,-55.71
5057,-66.89
5069,-75.13
5081,-78.86
5093,-77.24
5105,-71.37
5117,-64.26
5128,-60.09
5139,-62.63
5151,-73.88
5163,-93.6
5175,-119.23
5187,-146.89
5199,-172.62
5211,-193.78
5223,-209.86
5235,-222.77
5247,-236.25
5259,-254.32
5271,-279.52
5283,-311.31
5295,-345.84
5307,-376.86
5318,-398.11
5329,-405.58
5341,-399.05
5353,-381.76
5365,-358.85
5377,-335.01
5389,-313.01
5401,-293.4
5413,-275.45
5425,-258.5
5437,-242.61
5449,-228.47
5461,-216.54
5473,-206.27
5485,-196.02
5497,-183.76
5508,-168.08
5519,-148.92
5531,-127.64
5543,-106.27
5555,-86.71
5567,-69.92
5579,-55.6
5591,-42.66
5603,-29.67
5615,-15.66
5627,-0.52
5639,14.89
5651,29.32
5663,41.56
5675,50.91
5687,57.46
5698,61.88
5709,65.22
5721,68.5
5733,72.33
5745,76.77
5757,81.64
5769,86.51
5781,91.0
5793,95.11
5805,99.03
5817,103.34
5829,108.65
5841,115.51
5853,124.08
5865,134.21
5877,145.29
5888,156.54
5899,167.37
5911,177.45
5923,186.97
5935,196.61
5947,207.25
5959,219.61
5971,234.05
5983,250.27
5995,267.62
6007,285.36
6019,302.75
6031,319.55
6043,336.0
6055,352.81
6067,371.16
6078,392.4
6089,417.44
6101,446.14
6113,476.61
6125,504.82
6137,525.45
6149,533.34
6161,525.34
6173,501.48
6185,464.97
6197,420.92
6209,374.55
6221,329.65
6233,288.05
6245,250.07
6257,215.6
6268,184.78
6279,158.18
6291,136.34
6303,119.32
6315,106.71
6327,97.8
6339,91.87
6351,88.43
6363,86.98
6375,86.8
6387,86.85
6399,86.01
6411,83.34
6423,78.54
6435,71.74
6447,63.11
6458,52.49
6469,39.21
6481,22.57
6493,2.45
6505,-20.2
6517,-43.47
6529,-65.19
6541,-83.74
6553,-98.68
6565,-110.72
6577,-121.33
6589,-132.1
6601,-144.11
6613,-157.49
6625,-171.05
6637,-182.26
6648,-187.32
6659,-181.68
6671,-161.3
6683,-124.29
6695,-72.32
6707,-11.07
6719,50.65
6731,103.25
6743,139.18
6755,154.86
6767,151.35
6779,133.44
6791,107.61
6803,80.25
6815,56.19
6827,38.22
6838,27.06
6849,21.66
6861,19.54
6873,17.58
6885,12.98
6897,4.17
6909,-8.17
6921,-21.46
6933,-32.13
6945,-37.15
6957,-35.38
6969,-28.03
6981,-18.16
6993,-9.42
7005,-4.8
7017,-5.56
7028,-11.27
7039,-20.01
7051,-29.4
7063,-37.63
7075,-44.02
7087,-48.92
7099,-53.16
7111,-57.09
7123,-60.0
7135,-60.37
7147,-56.78
7159,-49.1
7171,-39.09
7183,-29.99
7195,-25.14
7207,-26.75
7218,-34.81
7229,-46.99
7241,-59.17
7253,-66.73
7265,-65.72
7277,-54.28
7289,-33.14
7301,-5.48
7313,24.1
7325,51.49
7337,74.31
7349,92.47
7361,107.02
7373,118.62
7385,126.22
7397,127.3
7408,119.25
7419,101.38
7431,76.03
7443,47.82
7455,22.02
7467,2.57
7479,-9.07
7491,-13.64
7503,-13.05
7515,-9.32
7527,-3.82
7539,2.84
7551,10.46
7563,18.76
7575,27.21
7587,34.76
7598,40.26
7609,42.78
7621,42.09
7633,38.94
7645,34.81
7657,31.32
7669,29.28
7681,28.41
7693,27.2
7705,23.96
7717,17.69
7729,8.79
7741,-0.93
7753,-9.27
7765,-14.92
7777,-18.29
7788,-21.61
7799,-27.83
7811,-39.11
7823,-55.31
7835,-73.55
7847,-88.82
7859,-95.85
7871,-91.1
7883,-73.83
7895,-46.35
7907,-12.63
7919,23.07
7931,57.66
7943,89.23
7955,116.9
7967,139.78
7978,156.45
7989,165.15
8001,164.48
8013,154.33
8025,136.64
8037,115.14
8049,94.16
8061,77.24
8073,65.89
8085,59.38
8097,55.64
8109,52.53
8121,48.94
8133,45.17
8145,42.28
8157,41.1
8168,41.48
8179,42.23
8191,41.71
8203,38.79
8215,33.31
8227,26.13
8239,18.82
8251,12.83
8263,8.97
8275,6.91
8287,5.47
8299,2.68
8311,-3.02
8323,-12.47
8335,-25.53
8347,-41.16
8358,-58.17
8369,-75.56
8381,-92.86
8393,-110.07
8405,-127.61
8417,-145.77
8429,-164.33
8441,-181.93
8453,-195.91
8465,-202.55
8477,-198.03
8489,-179.81
8501,-147.74
8513,-104.45
8525,-54.82
8537,-4.93
8548,39.24
8559,72.89
8571,93.12
8583,99.2
8595,92.47
8607,75.74
8619,52.58
8631,26.51
8643,0.72
8655,-22.05
8667,-39.19
8679,-48.72
8691,-49.63
8703,-42.74
8715,-30.7
8727,-17.24
8738,-5.71
8749,2.05
8761,6.06
8773,7.39
8785,7.11
8797,5.36
8809,1.41
8821,-5.53
8833,-15.57
8845,-27.66
8857,-40.0
8869,-50.67
8881,-58.82
8893,-64.86
8905,-70.33
8917,-77.09
8928,-86.3
8939,-97.74
8951,-109.71
8963,-119.75
8975,-125.64
8987,-126.66
8999,-123.76
9011,-119.47
9023,-116.87
9035,-118.4
9047,-124.72
9059,-134.23
9071,-143.2
9083,-146.61
9095,-139.85
9107,-120.11
9118,-87.6
9129,-45.63
9141,0.4
9153,44.46
9165,81.5
9177,108.36
9189,123.96
9201,128.73
9213,124.06
9225,111.92
9237,94.6
9249,74.84
9261,55.57
9273,39.36
9285,27.9
9297,21.46
9308,18.62
9319,16.98
9331,14.24
9343,9.17
9355,2.62
9367,-2.93
9379,-4.41
9391,0.22
9403,10.51
9415,23.01
9427,32.55
9439,34.31
9451,26.01
9463,9.16
9475,-11.79
9487,-31.56
9498,-46.46
9509,-55.99
9521,-62.46
9533,-69.15
9545,-77.99
9557,-88.4
9569,-97.52
9581,-102.02
9593,-100.13
9605,-92.79
9617,-83.43
9629,-76.49
9641,-75.74
9653,-83.04
9665,-98.02
9677,-118.01
9688,-138.63
9699,-154.48
9711,-159.97
9723,-150.72
9735,-124.94
9747,-84.42
9759,-34.41
9771,17.74
9783,64.91
9795,102.11
9807,127.46
9819,141.6
9831,146.41
9843,143.76
9855,135.14
9867,122.02
9878,106.55
9889,91.84
9901,81.16
9913,76.72
9925,78.54
9937,84.13
9949,89.39
9961,90.43
9973,85.31
9985,75.07
9997,63.11
10009,53.72
10021,49.77
10033,51.32
10045,55.55
10057,58.19
10068,55.72
10079,47.1
10091,33.98
10103,19.53
10115,6.65
10127,-3.59
10139,-12.03
10151,-20.37
10163,-29.82
10175,-40.15
10187,-49.67
10199,-56.35
10211,-58.98
10223,-57.84
10235,-54.49
10247,-51.11
10258,-49.59
10269,-51.23
10281,-56.8
10293,-66.44
10305,-79.66
10317,-95.08
10329,-110.23
10341,-121.82
10353,-126.58
10365,-122.26
10377,-108.29
10389,-85.83
10401,-57.06
10413,-24.45
10425,9.79
10437,43.67
10448,75.21
10459,102.32
10471,122.9
10483,135.15
10495,138.09
10507,131.67
10519,117.01
10531,96.51
10543,73.72
10555,52.76
10567,37.32
10579,29.45
10591,28.82
10603,32.95
10615,38.36
10627,42.17
10638,43.26
10649,42.33
10661,40.9
10673,40.07
10685,39.8
10697,38.96
10709,36.13
10721,30.48
10733,22.16
10745,11.91
10757,0.81
10769,-10.37
10781,-21.06
10793,-30.82
10805,-39.25
10817,-45.96
10828,-50.97
10839,-54.75
10851,-58.29
10863,-62.61
10875,-68.39
10887,-75.7
10899,-84.16
10911,-93.09
10923,-101.87
10935,-110.02
10947,-117.24
10959,-123.41
10971,-128.74
10983,-133.77
10995,-139.25
11007,-145.55
11018,-152.0
11029,-156.53
11041,-155.86
11053,-146.44
11065,-125.71
11077,-93.24
11089,-51.16
11101,-3.86
11113,43.29
11125,85.26
11137,118.61
11149,141.67
11161,154.5
11173,158.15
11185,154.14
11197,144.34
11208,131.04
11219,116.96
11231,104.84
11243,96.86
11255,93.8
11267,95.01
11279,98.44
11291,101.57
11303,102.18
11315,99.23
11327,93.06
11339,85.27
11351,78.02
11363,73.14
11375,71.32
11387,71.39
11398,70.83
11409,66.66
11421,57.26
11433,43.45
11445,28.25
11457,15.33
11469,7.2
11481,3.98
11493,3.5
11505,2.92
11517,0.22
11529,-4.95
11541,-11.67
11553,-18.87
11565,-26.16
11577,-33.83
11588,-42.09
11599,-50.6
11611,-58.16
11623,-63.41
11635,-65.83
11647,-66.12
11659,-66.16
11671,-68.23
11683,-74.19
11695,-84.72
11707,-98.8
11719,-113.56
11731,-124.84
11743,-128.41
11755,-121.05
11767,-102.01
11778,-73.15
11789,-38.41
11801,-2.5
11813,30.68
11825,58.77
11837,80.8
11849,96.22
11861,104.62
11873,105.33
11885,98.2
11897,84.36
11909,66.43
11921,48.07
11933,32.81
11945,22.84
11957,18.07
11968,16.67
11979,15.79
11991,12.85
12003,6.6
12015,-2.6
12027,-12.93
12039,-21.81
12051,-26.81
12063,-26.58
12075,-21.36
12087,-13.13
12099,-5.06
12111,-0.4
12123,-1.67
12135,-9.65
12147,-23.19
12158,-39.59
12169,-55.45
12181,-67.92
12193,-75.78
12205,-79.75
12217,-81.84
12229,-84.37
12241,-88.53
12253,-93.74
12265,-98.11
12277,-99.63
12289,-97.62
12301,-93.54
12313,-90.33
12325,-90.59
12337,-95.15
12348,-102.45
12359,-109.44
12371,-113.62
12383,-114.75
12395,-114.99
12407,-117.71
12419,-125.51
12431,-138.4
12443,-153.46
12455,-165.64
12467,-169.69
12479,-162.01
12491,-141.78
12503,-111.12
12515,-74.11
12527,-35.37
12538,1.42
12549,34.13
12561,62.1
12573,85.1
12585,102.54
12597,113.21
12609,115.92
12621,110.5
12633,98.66
12645,83.79
12657,69.9
12669,60.26
12681,56.27
12693,57.43
12705,61.95
12717,67.64
12728,72.51
12739,75.16
12751,75.31
12763,73.64
12775,71.7
12787,70.94
12799,71.74
12811,72.9
12823,72.25
12835,68.35
12847,61.84
12859,55.82
12871,54.3
12883,59.81
12895,71.48
12907,84.93
12918,94.34
12929,95.48
12941,87.9
12953,75.2
12965,63.03
12977,56.31
12989,57.1
13001,63.88
13013,72.4
13025,77.43
13037,74.59
13049,61.63
13061,39.13
13073,10.07
13085,-21.31
13097,-51.06
13108,-77.02
13119,-99.16
13131,-118.81
13143,-136.97
13155,-152.86
13167,-163.47
13179,-164.77
13191,-153.57
13203,-128.94
13215,-92.64
13227,-48.23
13239,0.29
13251,49.21
13263,94.99
13275,134.02
13287,162.52
13298,177.33
13309,177.3
13321,164.11
13333,142.07
13345,117.12
13357,94.83
13369,78.92
13381,70.61
13393,68.97
13405,71.49
13417,75.16
13429,77.17
13441,75.81
13453,71.47
13465,66.36
13477,63.86
13488,66.52
13499,74.36
13511,84.09
13523,90.51
13535,88.83
13547,77.21
13559,57.71
13571,35.04
13583,14.42
13595,-0.74
13607,-9.75
13619,-14.09
13631,-15.93
13643,-17.03
13655,-18.31
13667,-20.15
13678,-23.09
13689,-27.85
13701,-34.98
13713,-44.48
13725,-55.39
13737,-65.85
13749,-73.92
13761,-78.37
13773,-79.4
13785,-78.8
13797,-79.31
13809,-83.65
13821,-93.44
13833,-108.56
13845,-127.11
13857,-146.04
13868,-161.68
13879,-170.34
13891,-168.74
13903,-154.7
13915,-127.76
13927,-89.77
13939,-44.58
13951,2.94
13963,48.2
13975,88.02
13987,120.61
13999,145.2
14011,161.01
14023,167.28
14035,163.45
14047,150.31
14058,130.18
14069,106.77
14081,84.33
14093,66.33
14105,54.97
14117,50.69
14129,52.3
14141,57.3
14153,62.64
14165,65.59
14177,64.71
14189,60.32
14201,54.12
14213,48.4
14225,44.62
14237,42.82
14248,41.66
14259,39.29
14271,34.22
14283,26.09
14295,15.61
14307,4.06
14319,-7.27
14331,-17.68
14343,-26.99
14355,-35.34
14367,-42.92
14379,-49.61
14391,-55.04
14403,-58.9
14415,-61.52
14427,-64.18
14438,-68.76
14449,-76.81
14461,-88.36
14473,-101.64
14485,-113.56
14497,-121.41
14509,-124.43
14521,-124.56
14533,-125.73
14545,-132.06
14557,-145.85
14569,-166.26
14581,-189.38
14593,-209.04
14605,-218.93
14617,-214.29
14628,-193.42
14639,-158.16
14651,-113.4
14663,-65.54
14675,-20.61
14687,17.21
14699,46.67
14711,68.7
14723,85.31
14735,98.0
14747,106.77
14759,110.35
14771,107.29
14783,97.31
14795,82.09
14807,64.93
14818,49.28
14829,37.45
14841,29.74
14853,24.66
14865,20.13
14877,14.61
14889,7.61
14901,-0.43
14913,-8.75
14925,-16.86
14937,-24.62
14949,-32.0
14961,-38.93
14973,-45.24
14985,-51.05
14997,-57.1
15008,-64.68
15019,-74.83
15031,-87.67
15043,-102.05
15055,-115.69
15067,-126.07
15079,-131.24
15091,-130.07
15103,-122.29
15115,-108.49
15127,-90.1
15139,-69.69
15151,-50.92
15163,-37.89
15175,-33.9
15187,-39.94
15198,-53.85
15209,-70.95
15221,-85.96
15233,-95.49
15245,-99.65
15257,-101.59
15269,-105.67
15281,-114.84
15293,-129.19
15305,-145.78
15317,-160.17
15329,-168.03
15341,-166.46
15353,-154.33
15365,-132.02
15377,-101.05
15388,-63.71
15399,-22.86
15411,18.67
15423,58.58
15435,95.82
15447,130.58
15459,163.55
15471,194.94
15483,223.87
15495,248.95
15507,269.02
15519,284.15
15531,295.52
15543,304.4
15555,311.23
15567,314.99
15578,314.0
15589,307.24
15601,295.71
15613,282.37
15625,271.12
15637,264.98
15649,264.39
15661,266.98
15673,268.36
15685,264.06
15697,251.07
15709,228.99
15721,199.76
15733,166.72
15745,133.41
15757,102.21
15768,74.18
15779,49.08
15791,26.32
15803,5.59
15815,-12.67
15827,-27.84
15839,-39.63
15851,-48.48
15863,-55.79
15875,-63.08
15887,-71.5
15899,-81.24
15911,-91.49
15923,-100.92
15935,-108.48
15947,-114.04
15958,-118.68
15969,-124.57
15981,-133.81
15993,-147.48
16005,-164.56
16017,-181.95
16029,-195.33
16041,-200.72
16053,-195.73
16065,-180.1
16077,-155.4
16089,-123.88
16101,-87.83
16113,-49.19
16125,-10.01
16137,27.27
16148,59.91
16159,85.43
16171,102.49
16183,110.91
16195,111.72
16207,106.45
16219,96.89
16231,85.06
16243,73.05
16255,62.86
16267,55.9
16279,52.58
16291,52.25
16303,53.83
16315,56.46
16327,59.91
16338,64.44
16349,69.81
16361,74.69
16373,76.69
16385,73.4
16397,63.8
16409,49.34
16421,33.57
16433,20.74
16445,14.07
16457,14.16
16469,18.94
16481,24.57
16493,27.12
16505,24.2
16517,16.17
16528,6.02
16539,-1.82
16551,-3.68
16563,1.2
16575,10.01
16587,17.71
16599,19.56
16611,13.97
16623,3.54
16635,-6.59
16647,-11.78
16659,-10.83
16671,-6.69
16683,-4.7
16695,-9.52
16707,-22.9
16718,-43.34
16729,-67.37
16741,-91.39
16753,-112.29
16765,-127.2
16777,-133.18
16789,-127.55
16801,-109.04
16813,-79.22
16825,-42.64
16837,-5.41
16849,26.66
16861,49.95
16873,63.54
16885,68.45
16897,66.62
16908,60.2
16919,51.28
16931,41.84
16943,33.42
16955,26.35
16967,19.91
16979,12.69
16991,3.7
17003,-6.46
17015,-15.69
17027,-21.33
17039,-21.82
17051,-17.74
17063,-11.75
17075,-7.01
17087,-5.44
17098,-6.95
17109,-10.08
17121,-13.56
17133,-17.66
17145,-23.79
17157,-33.3
17169,-45.91
17181,-59.42
17193,-70.93
17205,-78.83
17217,-83.94
17229,-88.86
17241,-95.97
17253,-105.31
17265,-114.46
17277,-120.16
17288,-120.9
17299,-118.07
17311,-115.19
17323,-115.4
17335,-119.33
17347,-124.71
17359,-127.79
17371,-126.02
17383,-119.52
17395,-111.04
17407,-104.49
17419,-103.04
17431,-107.74
17443,-117.36
17455,-128.57
17467,-136.59
17478,-136.26
17489,-123.26
17501,-95.5
17513,-54.36
17525,-4.6
17537,46.97
17549,93.55
17561,130.48
17573,156.15
17585,171.53
17597,178.6
17609,179.23
17621,174.44
17633,164.95
17645,151.94
17657,137.45
17668,123.93
17679,113.46
17691,106.56
17703,101.91
17715,97.11
17727,89.95
17739,79.95
17751,68.81
17763,59.76
17775,55.92
17787,58.51
17799,65.76
17811,73.54
17823,77.21
17835,73.66
17847,62.97
17858,48.02
17869,32.81
17881,20.29
17893,11.0
17905,3.26
17917,-4.98
17929,-14.59
17941,-24.7
17953,-33.21
17965,-38.42
17977,-40.26
17989,-40.34
18001,-40.75
18013,-42.83
18025,-46.18
18037,-49.07
18048,-49.86
18059,-47.97
18071,-44.56
18083,-42.01
18095,-42.82
18107,-48.4
18119,-58.68
18131,-72.23
18143,-86.66
18155,-99.4
18167,-107.98
18179,-110.17
18191,-104.11
18203,-88.35
18215,-62.54
18227,-27.9
18238,12.47
18249,53.94
18261,91.22
18273,119.36
18285,134.85
18297,136.25
18309,124.59
18321,103.08
18333,76.72
18345,51.32
18357,31.94
18369,21.38
18381,19.55
18393,23.47
18405,28.86
18417,32.03
18428,31.32
18439,27.64
18451,23.73
18463,22.56
18475,25.77
18487,32.97
18499,41.66
18511,48.08
18523,48.59
18535,41.11
18547,26.0
18559,6.32
18571,-13.38
18583,-28.77
18595,-37.55
18607,-40.31
18618,-40.07
18629,-40.68
18641,-45.02
18653,-54.18
18665,-67.63
18677,-84.01
18689,-101.95
18701,-120.29
18713,-137.81
18725,-153.11
18737,-165.03
18749,-173.18
18761,-178.29
18773,-182.31
18785,-187.79
18797,-196.97
18808,-211.03
18819,-229.47
18831,-249.8
18843,-267.64
18855,-277.7
18867,-275.09
18879,-257.03
18891,-223.94
18903,-179.51
18915,-129.43
18927,-79.63
18939,-34.34
18951,4.96
18963,38.79
18975,68.3
18987,93.54
18998,112.96
19009,124.12
19021,125.78
19033,119.48
19045,109.6
19057,102.06
19069,101.58
19081,109.39
19093,122.8
19105,136.89
19117,147.18
19129,151.92
19141,152.65
19153,152.72
19165,155.08
19177,160.54
19188,167.3
19199,172.05
19211,171.4
19223,163.3
19235,147.58
19247,125.78
19259,100.54
19271,74.9
19283,51.58
19295,32.5
19307,18.68
19319,10.15
19331,6.48
19343,6.74
19355,9.58
19367,13.09
19378,14.97
19389,13.16
19401,6.55
19413,-4.16
19425,-16.44
19437,-26.6
19449,-31.42
19461,-29.83
19473,-24.02
19485,-18.89
19497,-20.05
19509,-31.1
19521,-51.31
19533,-75.12
19545,-93.71
19557,-98.15
19568,-82.9
19579,-48.22
19591,-0.18
19603,51.4
19615,96.38
19627,127.46
19639,141.98
19651,141.62
19663,130.65
19675,113.91
19687,95.5
19699,78.41
19711,64.62
19723,55.16
19735,49.94
19747,47.64
19758,45.82
19769,42.22
19781,35.79
19793,27.33
19805,19.02
19817,12.98
19829,9.88
19841,8.67
19853,7.33
19865,3.94
19877,-2.24
19889,-10.96
19901,-21.54
19913,-33.51
19925,-46.69
19937,-60.76
19948,-75.05
19959,-88.71
19971,-101.28
19983,-112.73
19995,-123.46
20007,-133.62
20019,-142.89
20031,-150.74
20043,-157.0
20055,-162.21
20067,-167.46
20079,-173.83
20091,-181.72
20103,-191.13
20115,-201.93
20127,-214.26
20138,-227.96
20149,-241.65
20161,-252.35
20173,-256.06
20185,-249.62
20197,-232.39
20209,-206.78
20221,-176.96
20233,-146.35
20245,-115.9
20257,-83.77
20269,-46.97
20281,-3.84
20293,44.45
20305,93.84
20317,138.84
20328,174.5
20339,197.76
20351,207.68
20363,205.27
20375,192.89
20387,173.87
20399,152.4
20411,133.07
20423,119.82
20435,115.01
20447,118.74
20459,128.84
20471,141.73
20483,153.76
20495,162.31
20507,166.21
20518,165.53
20529,160.97
20541,153.11
20553,142.28
20565,128.51
20577,111.79
20589,92.62
20601,71.95
20613,51.44
20625,32.83
20637,17.42
20649,5.55
20661,-3.53
20673,-11.01
20685,-17.75
20697,-23.46
20708,-27.18
20719,-27.81
20731,-25.56
20743,-22.46
20755,-21.64
20767,-25.94
20779,-36.17
20791,-50.49
20803,-65.16
20815,-76.61
20827,-82.92
20839,-84.78
20851,-84.77
20863,-85.89
20875,-90.43
20887,-99.14
20898,-111.48
20909,-125.66
20921,-139.25
20933,-148.83
20945,-150.49
20957,-140.53
20969,-116.63
20981,-79.36
20993,-32.56
