seconds,BVP
0,-14.54
12,-14.06
24,-13.75
36,-13.58
48,-13.47
60,-13.23
72,-12.55
84,-11.09
95,-8.74
106,-5.57
118,-1.98
130,1.56
142,4.66
154,7.14
166,9.06
178,10.59
190,11.94
202,13.17
214,14.23
226,14.94
238,15.14
250,14.78
262,13.94
274,12.84
285,11.73
296,10.75
308,9.97
320,9.31
332,8.67
344,8.05
356,7.54
368,7.28
380,7.35
392,7.71
404,8.11
416,8.32
428,8.12
440,7.43
452,6.31
464,4.9
475,3.28
486,1.55
498,-0.23
510,-1.93
522,-3.4
534,-4.53
546,-5.33
558,-5.95
570,-6.65
582,-7.68
594,-9.08
606,-10.73
618,-12.35
630,-13.65
642,-14.53
654,-15.1
665,-15.64
676,-16.44
688,-17.54
700,-18.73
712,-19.55
724,-19.57
736,-18.41
748,-15.99
760,-12.56
772,-8.56
784,-4.5
796,-0.79
808,2.34
820,4.87
832,6.87
844,8.51
855,9.92
866,11.18
878,12.26
890,13.11
902,13.63
914,13.74
926,13.45
938,12.78
950,11.85
962,10.8
974,9.83
986,9.12
998,8.78
1010,8.78
1022,9.0
1034,9.23
1045,9.26
1056,8.96
1068,8.24
1080,7.12
1092,5.69
1104,4.09
1116,2.4
1128,0.73
1140,-0.79
1152,-2.09
1164,-3.1
1176,-3.87
1188,-4.47
1200,-5.07
1212,-5.8
1224,-6.75
1235,-7.91
1246,-9.15
1258,-10.33
1270,-11.3
1282,-12.01
1294,-12.57
1306,-13.17
1318,-14.01
1330,-15.13
1342,-16.39
1354,-17.36
1366,-17.57
1378,-16.59
1390,-14.27
1402,-10.83
1414,-6.81
1425,-2.79
1436,0.73
1448,3.53
1460,5.62
1472,7.16
1484,8.32
1496,9.21
1508,9.82
1520,10.12
1532,10.12
1544,9.93
1556,9.68
1568,9.5
1580,9.45
1592,9.45
1604,9.41
1615,9.24
1626,8.98
1638,8.78
1650,8.84
1662,9.24
1674,9.87
1686,10.46
1698,10.67
1710,10.3
1722,9.3
1734,7.86
1746,6.19
1758,4.5
1770,2.88
1782,1.36
1794,-0.05
1805,-1.36
1816,-2.56
1828,-3.7
1840,-4.84
1852,-6.07
1864,-7.38
1876,-8.74
1888,-10.01
1900,-11.05
1912,-11.79
1924,-12.26
1936,-12.57
1948,-12.9
1960,-13.38
1972,-14.02
1984,-14.61
1995,-14.85
2006,-14.33
2018,-12.79
2030,-10.2
2042,-6.84
2054,-3.17
2066,0.31
2078,3.28
2090,5.64
2102,7.5
2114,9.05
2126,10.36
2138,11.46
2150,12.23
2162,12.63
2174,12.6
2185,12.22
2196,11.62
2208,10.92
2220,10.25
2232,9.64
2244,9.07
2256,8.49
2268,7.83
2280,7.04
2292,6.15
2304,5.24
2316,4.43
2328,3.8
2340,3.33
2352,2.92
2364,2.4
2375,1.63
2386,0.59
2398,-0.61
2410,-1.82
2422,-2.88
2434,-3.74
2446,-4.49
2458,-5.23
2470,-6.13
2482,-7.23
2494,-8.53
2506,-9.86
2518,-11.04
2530,-11.93
2542,-12.44
2554,-12.68
2565,-12.85
2576,-13.22
2588,-13.98
2600,-15.08
2612,-16.2
2624,-16.8
2636,-16.34
2648,-14.53
2660,-11.46
2672,-7.54
2684,-3.35
2696,0.6
2708,3.97
2720,6.63
2732,8.6
2744,9.9
2755,10.58
2766,10.68
2778,10.36
2790,9.86
2802,9.44
2814,9.28
2826,9.39
2838,9.67
2850,9.92
2862,9.98
2874,9.78
2886,9.34
2898,8.73
2910,8.07
2922,7.41
2934,6.82
2945,6.37
2956,6.07
2968,5.89
2980,5.72
2992,5.44
3004,4.91
3016,4.13
3028,3.17
3040,2.09
3052,0.97
3064,-0.15
3076,-1.34
3088,-2.62
3100,-4.03
3112,-5.54
3124,-7.05
3135,-8.47
3146,-9.78
3158,-10.96
3170,-12.07
3182,-13.19
3194,-14.34
3206,-15.55
3218,-16.71
3230,-17.65
3242,-18.13
3254,-17.9
3266,-16.72
3278,-14.5
3290,-11.32
3302,-7.44
3314,-3.24
3325,0.84
3336,4.5
3348,7.56
3360,10.04
3372,12.11
3384,13.93
3396,15.59
3408,17.13
3420,18.49
3432,19.55
3444,20.26
3456,20.58
3468,20.58
3480,20.33
3492,19.91
3504,19.31
3515,18.49
3526,17.36
3538,15.91
3550,14.23
3562,12.46
3574,10.76
3586,9.22
3598,7.78
3610,6.31
3622,4.69
3634,2.88
3646,0.92
3658,-1.08
3670,-3.03
3682,-4.98
3694,-7.05
3705,-9.38
3716,-12.12
3728,-15.27
3740,-18.64
3752,-22.03
3764,-25.21
3776,-28.03
3788,-30.44
3800,-32.48
3812,-34.22
3824,-35.69
3836,-36.83
3848,-37.44
3860,-37.24
3872,-35.97
3884,-33.4
3895,-29.44
3906,-24.23
3918,-18.15
3930,-11.77
3942,-5.72
3954,-0.55
3966,3.43
3978,6.17
3990,7.85
4002,8.75
4014,9.13
4026,9.11
4038,8.74
4050,8.03
4062,7.04
4074,6.01
4085,5.22
4096,4.89
4108,5.05
4120,5.59
4132,6.24
4144,6.78
4156,7.11
4168,7.32
4180,7.55
4192,7.92
4204,8.4
4216,8.86
4228,9.15
4240,9.12
4252,8.7
4264,7.85
4275,6.59
4286,4.88
4298,2.81
4310,0.44
4322,-2.14
4334,-4.74
4346,-7.22
4358,-9.36
4370,-10.99
4382,-12.02
4394,-12.49
4406,-12.52
4418,-12.32
4430,-12.05
4442,-11.7
4454,-11.17
4465,-10.16
4476,-8.39
4488,-5.77
4500,-2.4
4512,1.42
4524,5.25
4536,8.67
4548,11.45
4560,13.46
4572,14.81
4584,15.66
4596,16.2
4608,16.59
4620,16.96
4632,17.31
4644,17.61
4655,17.82
4666,17.8
4678,17.51
4690,16.83
4702,15.72
4714,14.13
4726,12.04
4738,9.38
4750,6.04
4762,1.92
4774,-3.16
4786,-9.22
4798,-16.21
4810,-23.89
4822,-31.89
4834,-39.69
4845,-46.74
4856,-52.39
4868,-56.0
4880,-56.97
4892,-54.73
4904,-48.98
4916,-39.69
4928,-27.15
4940,-11.92
4952,5.23
4964,23.45
4976,41.77
4988,59.16
5000,74.59
5012,87.05
5024,95.82
5035,100.58
5046,101.46
5058,98.97
5070,93.83
5082,86.76
5094,78.36
5106,69.16
5118,59.55
5130,49.97
5142,40.82
5154,32.49
5166,25.17
5178,18.92
5190,13.62
5202,9.01
5214,4.85
5225,0.96
5236,-2.72
5248,-6.2
5260,-9.4
5272,-12.24
5284,-14.7
5296,-16.78
5308,-18.59
5320,-20.2
5332,-21.68
5344,-23.05
5356,-24.36
5368,-25.62
5380,-26.86
5392,-28.09
5404,-29.32
5415,-30.43
5426,-31.34
5438,-31.93
5450,-32.08
5462,-31.77
5474,-31.03
5486,-30.06
5498,-29.06
5510,-28.27
5522,-27.78
5534,-27.51
5546,-27.25
5558,-26.64
5570,-25.38
5582,-23.22
5594,-20.14
5605,-16.28
5616,-11.94
5628,-7.56
5640,-3.62
5652,-0.54
5664,1.49
5676,2.55
5688,2.9
5700,2.93
5712,2.91
5724,2.93
5736,2.94
5748,2.88
5760,2.72
5772,2.5
5784,2.32
5795,2.21
5806,2.16
5818,2.11
5830,2.01
5842,1.84
5854,1.66
5866,1.5
5878,1.35
5890,1.14
5902,0.77
5914,0.1
5926,-0.93
5938,-2.31
5950,-3.97
5962,-5.77
5974,-7.54
5985,-9.15
5996,-10.49
6008,-11.53
6020,-12.27
6032,-12.74
6044,-12.91
6056,-12.78
6068,-12.24
6080,-11.16
6092,-9.41
6104,-6.96
6116,-3.99
6128,-0.85
6140,2.0
6152,4.2
6164,5.59
6175,6.22
6186,6.38
6198,6.3
6210,6.1
6222,5.7
6234,4.96
6246,3.8
6258,2.36
6270,0.91
6282,-0.25
6294,-0.89
6306,-1.01
6318,-0.77
6330,-0.47
6342,-0.41
6354,-0.81
6365,-1.7
6376,-3.03
6388,-4.59
6400,-6.15
6412,-7.53
6424,-8.57
6436,-9.17
6448,-9.38
6460,-9.28
6472,-9.04
6484,-8.87
6496,-8.94
6508,-9.32
6520,-9.95
6532,-10.62
6544,-10.96
6555,-10.63
6566,-9.38
6578,-7.16
6590,-4.18
6602,-0.78
6614,2.56
6626,5.47
6638,7.69
6650,9.18
6662,10.04
6674,10.43
6686,10.44
6698,10.11
6710,9.46
6722,8.58
6734,7.62
6745,6.77
6756,6.2
6768,6.0
6780,6.16
6792,6.54
6804,6.96
6816,7.31
6828,7.48
6840,7.4
6852,7.01
6864,6.2
6876,4.96
6888,3.38
6900,1.62
6912,-0.14
6924,-1.71
6935,-3.01
6946,-4.06
6958,-4.99
6970,-5.95
6982,-7.02
6994,-8.15
7006,-9.09
7018,-9.53
7030,-9.1
7042,-7.57
7054,-4.9
7066,-1.28
7078,2.94
7090,7.37
7102,11.61
7114,15.37
7125,18.44
7136,20.72
7148,22.18
7160,22.85
7172,22.84
7184,22.27
7196,21.23
7208,19.76
7220,17.93
7232,15.83
7244,13.52
7256,11.06
7268,8.46
7280,5.68
7292,2.65
7304,-0.73
7315,-4.46
7326,-8.46
7338,-12.62
7350,-16.8
7362,-20.87
7374,-24.75
7386,-28.3
7398,-31.39
7410,-33.88
7422,-35.6
7434,-36.51
7446,-36.67
7458,-36.21
7470,-35.34
7482,-34.25
7494,-33.01
7505,-31.58
7516,-29.89
7528,-27.81
7540,-25.28
7552,-22.21
7564,-18.59
7576,-14.42
7588,-9.81
7600,-4.95
7612,-0.13
7624,4.29
7636,8.06
7648,11.05
7660,13.39
7672,15.32
7684,17.12
7695,18.93
7706,20.7
7718,22.25
7730,23.38
7742,23.97
7754,24.03
7766,23.71
7778,23.21
7790,22.66
7802,22.11
7814,21.53
7826,20.86
7838,20.01
7850,18.98
7862,17.72
7874,16.29
7885,14.69
7896,12.95
7908,11.07
7920,9.0
7932,6.68
7944,4.06
7956,1.15
7968,-1.92
7980,-4.96
7992,-7.75
8004,-10.11
8016,-12.02
8028,-13.54
8040,-14.86
8052,-16.08
8064,-17.24
8075,-18.35
8086,-19.36
8098,-20.26
8110,-21.01
8122,-21.47
8134,-21.38
8146,-20.42
8158,-18.31
8170,-15.05
8182,-10.92
8194,-6.49
8206,-2.39
8218,0.88
8230,3.14
8242,4.53
8254,5.4
8265,6.16
8276,7.02
8288,8.02
8300,9.04
8312,9.93
8324,10.57
8336,10.96
8348,11.2
8360,11.44
8372,11.78
8384,12.28
8396,12.93
8408,13.73
8420,14.66
8432,15.63
8444,16.53
8455,17.21
8466,17.58
8478,17.59
8490,17.28
8502,16.73
8514,16.04
8526,15.18
8538,14.09
8550,12.6
8562,10.63
8574,8.2
8586,5.42
8598,2.52
8610,-0.33
8622,-2.95
8634,-5.28
8645,-7.24
8656,-8.84
8668,-10.11
8680,-11.14
8692,-12.03
8704,-12.79
8716,-13.4
8728,-13.68
8740,-13.37
8752,-12.24
8764,-10.18
8776,-7.29
8788,-3.93
8800,-0.56
8812,2.35
8824,4.49
8835,5.81
8846,6.49
8858,6.85
8870,7.16
8882,7.56
8894,8.04
8906,8.48
8918,8.78
8930,8.93
8942,8.99
8954,9.0
8966,9.01
8978,9.01
8990,8.98
9002,8.96
9014,8.99
9025,9.11
9036,9.3
9048,9.47
9060,9.48
9072,9.21
9084,8.61
9096,7.72
9108,6.66
9120,5.51
9132,4.4
9144,3.36
9156,2.36
9168,1.35
9180,0.22
9192,-1.11
9204,-2.69
9215,-4.41
9226,-6.15
9238,-7.68
9250,-8.96
9262,-9.96
9274,-10.86
9286,-11.85
9298,-13.02
9310,-14.32
9322,-15.46
9334,-16.11
9346,-15.98
9358,-14.96
9370,-13.11
9382,-10.59
9394,-7.63
9405,-4.44
9416,-1.21
9428,1.87
9440,4.63
9452,6.91
9464,8.7
9476,9.98
9488,10.83
9500,11.3
9512,11.41
9524,11.21
9536,10.76
9548,10.23
9560,9.76
9572,9.5
9584,9.44
9595,9.47
9606,9.46
9618,9.34
9630,9.06
9642,8.71
9654,8.28
9666,7.65
9678,6.73
9690,5.42
9702,3.76
9714,2.0
9726,0.46
9738,-0.63
9750,-1.18
9762,-1.35
9774,-1.39
9785,-1.61
9796,-2.21
9808,-3.25
9820,-4.63
9832,-6.18
9844,-7.73
9856,-9.11
9868,-10.24
9880,-11.1
9892,-11.83
9904,-12.57
9916,-13.49
9928,-14.65
9940,-15.93
9952,-17.04
9964,-17.53
9975,-17.02
9986,-15.3
9998,-12.44
10010,-8.75
10022,-4.74
10034,-0.86
10046,2.55
10058,5.34
10070,7.5
10082,9.13
10094,10.3
10106,11.1
10118,11.59
10130,11.85
10142,11.94
10154,11.96
10165,11.9
10176,11.71
10188,11.33
10200,10.74
10212,10.02
10224,9.33
10236,8.84
10248,8.65
10260,8.78
10272,9.09
10284,9.44
10296,9.7
10308,9.75
10320,9.56
10332,9.13
10344,8.48
10355,7.6
10366,6.59
10378,5.51
10390,4.45
10402,3.43
10414,2.43
10426,1.33
10438,0.03
10450,-1.49
10462,-3.21
10474,-5.04
10486,-6.93
10498,-8.94
10510,-11.26
10522,-14.2
10534,-18.06
10545,-22.98
10556,-28.89
10568,-35.46
10580,-42.27
10592,-48.88
10604,-54.9
10616,-60.05
10628,-64.04
10640,-66.56
10652,-67.18
10664,-65.39
10676,-60.68
10688,-52.65
10700,-41.08
10712,-25.93
10724,-7.45
10735,13.87
10746,37.19
10758,61.33
10770,84.78
10782,105.81
10794,122.71
10806,134.1
10818,139.2
10830,137.9
10842,130.79
10854,118.87
10866,103.36
10878,85.38
10890,66.0
10902,46.11
10914,26.56
10925,8.15
10936,-8.38
10948,-22.44
10960,-33.61
10972,-41.76
10984,-47.05
10996,-49.77
11008,-50.42
11020,-49.47
11032,-47.34
11044,-44.39
11056,-40.85
11068,-37.01
11080,-33.13
11092,-29.51
11104,-26.39
11115,-23.98
11126,-22.41
11138,-21.72
11150,-21.91
11162,-22.85
11174,-24.43
11186,-26.33
11198,-28.15
11210,-29.45
11222,-29.77
11234,-28.88
11246,-26.71
11258,-23.54
11270,-19.82
11282,-16.1
11294,-12.84
11305,-10.34
11316,-8.64
11328,-7.63
11340,-7.08
11352,-6.75
11364,-6.55
11376,-6.39
11388,-6.26
11400,-6.13
11412,-6.01
11424,-5.8
11436,-5.45
11448,-4.92
11460,-4.15
11472,-3.21
11484,-2.12
11495,-0.94
11506,0.33
11518,1.68
11530,3.11
11542,4.61
11554,6.07
11566,7.37
11578,8.36
11590,8.87
11602,8.85
11614,8.26
11626,7.18
11638,5.74
11650,4.14
11662,2.53
11674,0.97
11685,-0.54
11696,-2.11
11708,-3.79
11720,-5.62
11732,-7.47
11744,-9.14
11756,-10.46
11768,-11.19
11780,-11.19
11792,-10.32
11804,-8.56
11816,-5.99
11828,-2.88
11840,0.43
11852,3.56
11864,6.23
11875,8.35
11886,9.96
11898,11.21
11910,12.19
11922,13.03
11934,13.73
11946,14.32
11958,14.85
11970,15.35
11982,15.89
11994,16.41
12006,16.91
12018,17.34
12030,17.65
12042,17.85
12054,17.89
12065,17.8
12076,17.56
12088,17.19
12100,16.62
12112,15.8
12124,14.56
12136,12.72
12148,10.08
12160,6.49
12172,1.89
12184,-3.75
12196,-10.35
12208,-17.84
12220,-26.06
12232,-34.87
12244,-44.13
12255,-53.55
12266,-62.77
12278,-71.23
12290,-78.25
12302,-83.04
12314,-84.75
12326,-82.62
12338,-76.13
12350,-65.03
12362,-49.37
12374,-29.54
12386,-6.24
12398,19.5
12410,46.33
12422,72.58
12434,96.5
12445,116.36
12456,130.76
12468,138.88
12480,140.52
12492,136.13
12504,126.58
12516,113.04
12528,96.7
12540,78.75
12552,60.38
12564,42.63
12576,26.58
12588,13.07
12600,2.67
12612,-4.49
12624,-8.73
12635,-10.72
12646,-11.22
12658,-10.88
12670,-10.13
12682,-9.14
12694,-8.08
12706,-7.12
12718,-6.59
12730,-6.88
12742,-8.25
12754,-10.65
12766,-13.82
12778,-17.35
12790,-20.85
12802,-24.1
12814,-26.99
12825,-29.51
12836,-31.7
12848,-33.59
12860,-35.14
12872,-36.32
12884,-37.07
12896,-37.22
12908,-36.59
12920,-35.04
12932,-32.52
12944,-29.19
12956,-25.42
12968,-21.61
12980,-18.12
12992,-15.16
13004,-12.77
13015,-10.95
13026,-9.7
13038,-9.0
13050,-8.82
13062,-9.04
13074,-9.45
13086,-9.81
13098,-9.97
13110,-9.9
13122,-9.7
13134,-9.51
13146,-9.38
13158,-9.26
13170,-9.01
13182,-8.46
13194,-7.53
13205,-6.26
13216,-4.83
13228,-3.51
13240,-2.47
13252,-1.8
13264,-1.5
13276,-1.51
13288,-1.72
13300,-2.12
13312,-2.7
13324,-3.42
13336,-4.23
13348,-4.99
13360,-5.57
13372,-5.9
13384,-6.07
13395,-6.23
13406,-6.52
13418,-6.88
13430,-7.08
13442,-6.75
13454,-5.55
13466,-3.38
13478,-0.45
13490,2.79
13502,5.82
13514,8.23
13526,9.88
13538,10.78
13550,11.05
13562,10.79
13574,10.07
13585,8.96
13596,7.55
13608,6.04
13620,4.62
13632,3.4
13644,2.42
13656,1.57
13668,0.79
13680,0.03
13692,-0.66
13704,-1.16
13716,-1.4
13728,-1.37
13740,-1.14
13752,-0.79
13764,-0.4
13775,-0.03
13786,0.23
13798,0.26
13810,-0.03
13822,-0.63
13834,-1.44
13846,-2.19
13858,-2.66
13870,-2.77
13882,-2.68
13894,-2.79
13906,-3.44
13918,-4.83
13930,-6.87
13942,-9.21
13954,-11.44
13965,-13.18
13976,-14.23
13988,-14.45
14000,-13.78
14012,-12.18
14024,-9.6
14036,-6.05
14048,-1.62
14060,3.45
14072,8.8
14084,13.97
14096,18.57
14108,22.22
14120,24.77
14132,26.21
14144,26.69
14155,26.37
14166,25.41
14178,23.91
14190,21.94
14202,19.61
14214,17.01
14226,14.26
14238,11.43
14250,8.54
14262,5.58
14274,2.6
14286,-0.26
14298,-2.76
14310,-4.6
14322,-5.59
14334,-5.69
14345,-5.08
14356,-4.09
14368,-3.06
14380,-2.22
14392,-1.61
14404,-1.05
14416,-0.22
14428,1.15
14440,3.17
14452,5.73
14464,8.53
14476,11.16
14488,13.29
14500,14.69
14512,15.3
14524,15.2
14535,14.51
14546,13.36
14558,11.91
14570,10.25
14582,8.45
14594,6.58
14606,4.71
14618,2.9
14630,1.23
14642,-0.29
14654,-1.6
14666,-2.69
14678,-3.57
14690,-4.22
14702,-4.63
14714,-4.86
14725,-5.02
14736,-5.26
14748,-5.81
14760,-6.76
14772,-8.15
14784,-9.92
14796,-11.87
14808,-13.84
14820,-15.76
14832,-17.58
14844,-19.28
14856,-20.83
14868,-22.1
14880,-22.87
14892,-22.98
14904,-22.2
14915,-20.42
14926,-17.69
14938,-14.18
14950,-10.2
14962,-6.17
14974,-2.48
14986,0.55
14998,2.78
15010,4.24
15022,5.14
15034,5.69
15046,6.07
15058,6.4
15070,6.68
15082,6.9
15094,7.1
15105,7.31
15116,7.62
15128,8.09
15140,8.76
15152,9.63
15164,10.68
15176,11.82
15188,12.96
15200,13.9
15212,14.51
15224,14.67
15236,14.32
15248,13.62
15260,12.72
15272,11.83
15284,11.04
15295,10.41
15306,9.83
15318,9.23
15330,8.59
15342,8.05
15354,7.93
15366,8.57
15378,10.3
15390,13.22
15402,17.24
15414,22.02
15426,27.1
15438,32.04
15450,36.42
15462,39.91
15474,42.19
15485,42.96
15496,41.84
15508,38.51
15520,32.72
15532,24.36
15544,13.67
15556,1.11
15568,-12.47
15580,-26.03
15592,-38.46
15604,-48.86
15616,-56.63
15628,-61.61
15640,-63.99
15652,-64.12
15664,-62.54
15675,-59.63
15686,-55.76
15698,-51.15
15710,-45.9
15722,-40.07
15734,-33.79
15746,-27.32
15758,-21.08
15770,-15.46
15782,-10.66
15794,-6.58
15806,-2.91
15818,0.7
15830,4.43
15842,8.17
15854,11.6
15865,14.35
15876,16.15
15888,16.87
15900,16.41
15912,14.71
15924,11.76
15936,7.81
15948,3.34
15960,-0.92
15972,-4.29
15984,-6.33
15996,-7.0
16008,-6.58
16020,-5.53
16032,-4.27
16044,-3.06
16055,-1.98
16066,-1.01
16078,-0.12
16090,0.7
16102,1.41
16114,1.96
16126,2.35
16138,2.58
16150,2.66
16162,2.65
16174,2.57
16186,2.43
16198,2.23
16210,1.95
16222,1.61
16234,1.27
16245,0.94
16256,0.73
16268,0.65
16280,0.78
16292,1.09
16304,1.56
16316,2.02
16328,2.31
16340,2.24
16352,1.7
16364,0.79
16376,-0.28
16388,-1.29
16400,-2.07
16412,-2.65
16424,-3.17
16435,-3.85
16446,-4.77
16458,-5.96
16470,-7.25
16482,-8.53
16494,-9.66
16506,-10.57
16518,-11.14
16530,-11.17
16542,-10.36
16554,-8.41
16566,-5.23
16578,-0.99
16590,3.82
16602,8.54
16614,12.61
16625,15.66
16636,17.67
16648,18.78
16660,19.28
16672,19.4
16684,19.29
16696,19.08
16708,18.9
16720,18.92
16732,19.21
16744,19.75
16756,20.4
16768,20.94
16780,21.14
16792,20.86
16804,20.06
16815,18.72
16826,16.87
16838,14.46
16850,11.48
16862,7.91
16874,3.79
16886,-0.82
16898,-5.73
16910,-10.68
16922,-15.41
16934,-19.63
16946,-23.19
16958,-26.13
16970,-28.64
16982,-30.97
16994,-33.31
17005,-35.68
17016,-37.88
17028,-39.67
17040,-40.79
17052,-41.12
17064,-40.73
17076,-39.72
17088,-38.17
17100,-36.15
17112,-33.6
17124,-30.42
17136,-26.57
17148,-21.93
17160,-16.41
17172,-10.03
17184,-2.79
17195,5.14
17206,13.37
17218,21.4
17230,28.61
17242,34.42
17254,38.45
17266,40.56
17278,40.81
17290,39.42
17302,36.72
17314,33.01
17326,28.62
17338,23.77
17350,18.66
17362,13.48
17374,8.46
17385,3.84
17396,-0.14
17408,-3.27
17420,-5.55
17432,-7.09
17444,-8.15
17456,-8.96
17468,-9.61
17480,-10.06
17492,-10.2
17504,-10.02
17516,-9.64
17528,-9.35
17540,-9.39
17552,-9.89
17564,-10.74
17575,-11.69
17586,-12.46
17598,-12.88
17610,-12.98
17622,-12.93
17634,-13.0
17646,-13.36
17658,-14.06
17670,-15.08
17682,-16.34
17694,-17.73
17706,-19.08
17718,-20.26
17730,-21.03
17742,-21.11
17754,-20.23
17765,-18.17
17776,-14.96
17788,-10.83
17800,-6.17
17812,-1.42
17824,3.01
17836,6.91
17848,10.21
17860,12.99
17872,15.35
17884,17.32
17896,18.85
17908,19.77
17920,20.0
17932,19.47
17944,18.33
17955,16.77
17966,15.07
17978,13.52
17990,12.25
18002,11.34
18014,10.76
18026,10.45
18038,10.35
18050,10.37
18062,10.33
18074,10.0
18086,9.18
18098,7.77
18110,5.8
18122,3.43
18134,0.88
18145,-1.58
18156,-3.82
18168,-5.82
18180,-7.62
18192,-9.27
18204,-10.79
18216,-12.22
18228,-13.56
18240,-14.86
18252,-16.06
18264,-17.22
18276,-18.29
18288,-19.22
18300,-19.91
18312,-20.24
18324,-19.99
18335,-18.95
18346,-16.93
18358,-13.89
18370,-10.02
18382,-5.67
18394,-1.29
18406,2.75
18418,6.2
18430,8.98
18442,11.14
18454,12.72
18466,13.84
18478,14.5
18490,14.77
18502,14.74
18514,14.51
18525,14.19
18536,13.82
18548,13.4
18560,12.95
18572,12.49
18584,12.07
18596,11.76
18608,11.56
18620,11.4
18632,11.24
18644,11.01
18656,10.61
18668,9.96
18680,8.98
18692,7.54
18704,5.66
18715,3.41
18726,0.98
18738,-1.43
18750,-3.67
18762,-5.71
18774,-7.61
18786,-9.36
18798,-10.95
18810,-12.26
18822,-13.19
18834,-13.74
18846,-14.08
18858,-14.5
18870,-15.19
18882,-16.14
18894,-17.05
18905,-17.4
18916,-16.67
18928,-14.57
18940,-11.19
18952,-6.98
18964,-2.52
18976,1.71
18988,5.43
19000,8.61
19012,11.31
19024,13.53
19036,15.28
19048,16.47
19060,17.15
19072,17.37
19084,17.29
19095,17.03
19106,16.61
19118,16.01
19130,15.15
19142,14.08
19154,12.92
19166,11.77
19178,10.75
19190,9.9
19202,9.2
19214,8.63
19226,8.15
19238,7.65
19250,7.03
19262,6.17
19274,4.99
19285,3.47
19296,1.76
19308,-0.0
19320,-1.64
19332,-3.06
19344,-4.29
19356,-5.44
19368,-6.56
19380,-7.67
19392,-8.72
19404,-9.6
19416,-10.31
19428,-10.85
19440,-11.29
19452,-11.8
19464,-12.51
19475,-13.43
19486,-14.45
19498,-15.24
19510,-15.41
19522,-14.63
19534,-12.69
19546,-9.65
19558,-5.79
19570,-1.55
19582,2.64
19594,6.43
19606,9.58
19618,11.96
19630,13.5
19642,14.26
19654,14.39
19665,14.12
19676,13.69
19688,13.32
19700,13.07
19712,12.94
19724,12.83
19736,12.63
19748,12.31
19760,11.86
19772,11.37
19784,10.95
19796,10.69
19808,10.57
19820,10.53
19832,10.43
19844,10.12
19855,9.55
19866,8.75
19878,7.8
19890,6.81
19902,5.82
19914,4.76
19926,3.5
19938,1.9
19950,-0.05
19962,-2.26
19974,-4.49
19986,-6.54
19998,-8.28
20010,-9.69
20022,-10.89
20034,-11.99
20045,-13.12
20056,-14.24
20068,-15.28
20080,-16.21
20092,-16.97
20104,-17.61
20116,-18.05
20128,-18.14
20140,-17.55
20152,-15.98
20164,-13.3
20176,-9.65
20188,-5.47
20200,-1.3
20212,2.32
20224,5.17
20235,7.27
20246,8.94
20258,10.44
20270,11.94
20282,13.39
20294,14.63
20306,15.47
20318,15.93
20330,16.17
20342,16.43
20354,16.87
20366,17.47
20378,18.01
20390,18.25
20402,18.01
20414,17.34
20425,16.44
20436,15.49
20448,14.6
20460,13.73
20472,12.77
20484,11.69
20496,10.6
20508,9.69
20520,9.13
20532,8.98
20544,9.13
20556,9.37
20568,9.45
20580,9.23
20592,8.65
20604,7.76
20615,6.63
20626,5.3
20638,3.76
20650,1.95
20662,-0.17
20674,-2.67
20686,-5.57
20698,-8.85
20710,-12.49
20722,-16.41
20734,-20.45
20746,-24.3
20758,-27.62
20770,-30.04
20782,-31.38
20794,-31.63
20805,-31.07
20816,-30.03
20828,-28.83
20840,-27.59
20852,-26.28
20864,-24.79
20876,-23.03
20888,-21.04
20900,-18.92
20912,-16.79
20924,-14.7
20936,-12.63
20948,-10.53
20960,-8.4
20972,-6.31
20984,-4.4
20995,-2.77
