seconds,BVP
7,-83.56
19,-74.53
31,-64.78
43,-55.05
55,-45.8
67,-37.17
79,-29.14
91,-21.58
103,-14.64
115,-8.57
127,-3.58
139,0.22
151,2.86
162,4.5
173,5.3
185,5.45
197,5.15
209,4.6
221,4.01
233,3.65
245,3.69
257,4.26
269,5.4
281,7.07
293,9.2
305,11.64
317,14.13
329,16.38
341,18.12
352,19.19
363,19.65
375,19.75
387,19.83
399,20.22
411,21.07
423,22.32
435,23.77
447,25.13
459,26.12
471,26.53
483,26.24
495,25.25
507,23.68
519,21.71
531,19.53
542,17.28
553,15.01
565,12.69
577,10.27
589,7.76
601,5.26
613,2.97
625,1.14
637,-0.02
649,-0.41
661,-0.04
673,0.9
685,2.2
697,3.61
709,4.96
721,6.17
732,7.23
743,8.11
755,8.85
767,9.42
779,9.77
791,9.85
803,9.56
815,8.89
827,7.84
839,6.55
851,5.27
863,4.27
875,3.78
887,3.81
899,4.17
911,4.53
922,4.59
933,4.16
945,3.17
957,1.69
969,-0.19
981,-2.35
993,-4.66
1005,-6.9
1017,-8.85
1029,-10.32
1041,-11.28
1053,-11.87
1065,-12.36
1077,-13.05
1089,-14.11
1101,-15.57
1112,-17.2
1123,-18.71
1135,-19.74
1147,-20.07
1159,-19.56
1171,-18.25
1183,-16.34
1195,-14.06
1207,-11.65
1219,-9.31
1231,-7.11
1243,-5.05
1255,-3.14
1267,-1.36
1279,0.28
1291,1.74
1302,3.04
1313,4.21
1325,5.37
1337,6.64
1349,8.12
1361,9.75
1373,11.35
1385,12.68
1397,13.56
1409,13.93
1421,13.91
1433,13.72
1445,13.57
1457,13.62
1469,13.81
1481,14.06
1492,14.19
1503,14.1
1515,13.7
1527,12.9
1539,11.58
1551,9.61
1563,6.85
1575,3.31
1587,-0.88
1599,-5.42
1611,-9.98
1623,-14.22
1635,-17.92
1647,-20.97
1659,-23.28
1671,-24.76
1682,-25.25
1693,-24.62
1705,-22.84
1717,-20.14
1729,-16.84
1741,-13.43
1753,-10.26
1765,-7.52
1777,-5.25
1789,-3.38
1801,-1.9
1813,-0.84
1825,-0.28
1837,-0.27
1849,-0.79
1861,-1.74
1872,-2.98
1883,-4.37
1895,-5.77
1907,-7.1
1919,-8.27
1931,-9.17
1943,-9.69
1955,-9.72
1967,-9.22
1979,-8.22
1991,-6.84
2003,-5.26
2015,-3.71
2027,-2.4
2039,-1.48
2051,-1.02
2062,-0.96
2073,-1.21
2085,-1.68
2097,-2.32
2109,-3.14
2121,-4.14
2133,-5.31
2145,-6.61
2157,-7.94
2169,-9.22
2181,-10.37
2193,-11.33
2205,-12.05
2217,-12.44
2229,-12.39
2241,-11.83
2252,-10.72
2263,-9.17
2275,-7.32
2287,-5.35
2299,-3.36
2311,-1.4
2323,0.53
2335,2.4
2347,4.22
2359,5.93
2371,7.52
2383,8.98
2395,10.34
2407,11.65
2419,12.87
2431,13.96
2442,14.83
2453,15.44
2465,15.86
2477,16.22
2489,16.67
2501,17.29
2513,18.05
2525,18.73
2537,19.07
2549,18.83
2561,17.92
2573,16.42
2585,14.56
2597,12.54
2609,10.57
2621,8.75
2632,7.15
2643,5.83
2655,4.84
2667,4.19
2679,3.79
2691,3.46
2703,2.95
2715,2.05
2727,0.71
2739,-0.93
2751,-2.53
2763,-3.77
2775,-4.4
2787,-4.34
2799,-3.69
2811,-2.63
2822,-1.38
2833,-0.07
2845,1.21
2857,2.42
2869,3.44
2881,4.18
2893,4.55
2905,4.62
2917,4.61
2929,4.81
2941,5.56
2953,6.99
2965,9.01
2977,11.33
2989,13.63
3001,15.7
3012,17.48
3023,19.04
3035,20.38
3047,21.36
3059,21.72
3071,21.19
3083,19.65
3095,17.21
3107,14.2
3119,11.07
3131,8.19
3143,5.78
3155,3.88
3167,2.47
3179,1.42
3191,0.69
3202,0.21
3213,-0.06
3225,-0.21
3237,-0.3
3249,-0.37
3261,-0.5
3273,-0.72
3285,-1.06
3297,-1.48
3309,-1.88
3321,-2.05
3333,-1.82
3345,-1.06
3357,0.18
3369,1.74
3381,3.31
3392,4.62
3403,5.45
3415,5.68
3427,5.31
3439,4.47
3451,3.37
3463,2.42
3475,2.06
3487,2.57
3499,3.88
3511,5.52
3523,6.7
3535,6.72
3547,5.24
3559,2.46
3571,-0.97
3582,-4.29
3593,-6.82
3605,-8.2
3617,-8.19
3629,-6.73
3641,-3.82
3653,0.37
3665,5.47
3677,10.92
3689,16.08
3701,20.49
3713,23.96
3725,26.57
3737,28.46
3749,29.68
3761,30.05
3772,29.3
3783,27.11
3795,23.35
3807,18.01
3819,11.26
3831,3.42
3843,-5.1
3855,-13.76
3867,-21.93
3879,-29.03
3891,-34.61
3903,-38.55
3915,-40.93
3927,-42.12
3939,-42.48
3951,-42.27
3962,-41.64
3973,-40.61
3985,-39.18
3997,-37.36
4009,-35.27
4021,-33.04
4033,-30.8
4045,-28.61
4057,-26.47
4069,-24.34
4081,-22.22
4093,-20.1
4105,-17.94
4117,-15.67
4129,-13.11
4141,-10.11
4152,-6.6
4163,-2.71
4175,1.28
4187,4.98
4199,8.03
4211,10.29
4223,11.78
4235,12.72
4247,13.34
4259,13.86
4271,14.4
4283,15.02
4295,15.71
4307,16.38
4319,16.91
4331,17.15
4342,16.99
4353,16.37
4365,15.33
4377,14.0
4389,12.54
4401,11.13
4413,9.86
4425,8.76
4437,7.74
4449,6.58
4461,5.08
4473,3.13
4485,0.77
4497,-1.77
4509,-4.17
4521,-6.19
4532,-7.71
4543,-8.73
4555,-9.3
4567,-9.37
4579,-8.83
4591,-7.57
4603,-5.59
4615,-3.08
4627,-0.44
4639,1.93
4651,3.74
4663,4.87
4675,5.36
4687,5.29
4699,4.71
4711,3.61
4722,1.98
4733,-0.11
4745,-2.47
4757,-4.82
4769,-6.93
4781,-8.6
4793,-9.78
4805,-10.53
4817,-10.98
4829,-11.25
4841,-11.48
4853,-11.75
4865,-12.07
4877,-12.45
4889,-12.81
4901,-13.0
4912,-12.92
4923,-12.5
4935,-11.76
4947,-10.77
4959,-9.6
4971,-8.32
4983,-7.01
4995,-5.68
5007,-4.4
5019,-3.23
5031,-2.25
5043,-1.52
5055,-1.06
5067,-0.83
5079,-0.73
5091,-0.66
5102,-0.46
5113,-0.08
5125,0.46
5137,1.05
5149,1.57
5161,1.87
5173,1.95
5185,1.84
5197,1.59
5209,1.26
5221,0.84
5233,0.29
5245,-0.4
5257,-1.17
5269,-1.97
5281,-2.68
5292,-3.21
5303,-3.52
5315,-3.61
5327,-3.57
5339,-3.52
5351,-3.6
5363,-3.94
5375,-4.64
5387,-5.7
5399,-7.02
5411,-8.4
5423,-9.6
5435,-10.4
5447,-10.63
5459,-10.21
5471,-9.25
5482,-7.93
5493,-6.49
5505,-5.08
5517,-3.8
5529,-2.56
5541,-1.27
5553,0.11
5565,1.57
5577,3.01
5589,4.34
5601,5.47
5613,6.38
5625,7.04
5637,7.39
5649,7.41
5661,7.1
5672,6.56
5683,5.95
5695,5.43
5707,5.03
5719,4.73
5731,4.45
5743,4.11
5755,3.74
5767,3.43
5779,3.23
5791,3.09
5803,2.83
5815,2.29
5827,1.45
5839,0.49
5851,-0.33
5862,-0.78
5873,-0.82
5885,-0.66
5897,-0.63
5909,-1.07
5921,-2.05
5933,-3.44
5945,-4.9
5957,-6.09
5969,-6.78
5981,-6.95
5993,-6.74
6005,-6.32
6017,-5.81
6029,-5.25
6041,-4.53
6052,-3.52
6063,-2.18
6075,-0.57
6087,1.09
6099,2.52
6111,3.58
6123,4.28
6135,4.76
6147,5.24
6159,5.88
6171,6.69
6183,7.48
6195,8.01
6207,8.09
6219,7.72
6231,7.05
6242,6.27
6253,5.5
6265,4.77
6277,4.0
6289,3.06
6301,1.93
6313,0.7
6325,-0.46
6337,-1.4
6349,-2.05
6361,-2.46
6373,-2.77
6385,-3.1
6397,-3.58
6409,-4.27
6421,-5.16
6432,-6.23
6443,-7.47
6455,-8.83
6467,-10.26
6479,-11.68
6491,-12.98
6503,-13.94
6515,-14.35
6527,-14.05
6539,-12.97
6551,-11.19
6563,-8.88
6575,-6.36
6587,-3.88
6599,-1.7
6611,0.06
6622,1.43
6633,2.46
6645,3.26
6657,3.93
6669,4.55
6681,5.12
6693,5.62
6705,6.0
6717,6.25
6729,6.35
6741,6.33
6753,6.19
6765,5.96
6777,5.66
6789,5.36
6801,5.14
6812,5.09
6823,5.28
6835,5.64
6847,6.05
6859,6.3
6871,6.2
6883,5.72
6895,4.96
6907,4.09
6919,3.28
6931,2.53
6943,1.75
6955,0.79
6967,-0.37
6979,-1.59
6991,-2.67
7002,-3.48
7013,-4.03
7025,-4.49
7037,-5.07
7049,-5.88
7061,-6.78
7073,-7.52
7085,-7.79
7097,-7.41
7109,-6.43
7121,-5.05
7133,-3.5
7145,-1.95
7157,-0.47
7169,1.04
7181,2.67
7192,4.48
7203,6.34
7215,8.04
7227,9.35
7239,10.13
7251,10.42
7263,10.44
7275,10.42
7287,10.49
7299,10.65
7311,10.71
7323,10.5
7335,9.94
7347,9.06
7359,8.03
7371,7.02
7382,6.14
7393,5.42
7405,4.81
7417,4.24
7429,3.68
7441,3.11
7453,2.53
7465,1.96
7477,1.4
7489,0.86
7501,0.34
7513,-0.17
7525,-0.73
7537,-1.39
7549,-2.23
7561,-3.31
7572,-4.6
7583,-6.02
7595,-7.39
7607,-8.53
7619,-9.19
7631,-9.23
7643,-8.59
7655,-7.35
7667,-5.65
7679,-3.68
7691,-1.63
7703,0.39
7715,2.26
7727,3.96
7739,5.47
7751,6.78
7762,7.88
7773,8.73
7785,9.26
7797,9.39
7809,9.15
7821,8.64
7833,8.07
7845,7.68
7857,7.6
7869,7.83
7881,8.18
7893,8.41
7905,8.29
7917,7.74
7929,6.8
7941,5.58
7952,4.23
7963,2.86
7975,1.58
7987,0.41
7999,-0.62
8011,-1.55
8023,-2.44
8035,-3.36
8047,-4.32
8059,-5.25
8071,-6.08
8083,-6.69
8095,-7.09
8107,-7.37
8119,-7.67
8131,-8.15
8142,-8.97
8153,-10.1
8165,-11.42
8177,-12.72
8189,-13.76
8201,-14.31
8213,-14.24
8225,-13.55
8237,-12.32
8249,-10.68
8261,-8.78
8273,-6.69
8285,-4.49
8297,-2.28
8309,-0.21
8321,1.64
8332,3.2
8343,4.47
8355,5.52
8367,6.39
8379,7.07
8391,7.6
8403,7.97
8415,8.17
8427,8.27
8439,8.3
8451,8.26
8463,8.07
8475,7.64
8487,6.94
8499,6.04
8511,5.11
8522,4.31
8533,3.77
8545,3.52
8557,3.53
8569,3.68
8581,3.88
8593,4.0
8605,3.93
8617,3.59
8629,2.96
8641,2.09
8653,1.08
8665,0.1
8677,-0.77
8689,-1.5
8701,-2.14
8712,-2.78
8723,-3.5
8735,-4.4
8747,-5.55
8759,-6.97
8771,-8.6
8783,-10.26
8795,-11.66
8807,-12.5
8819,-12.62
8831,-12.0
8843,-10.82
8855,-9.31
8867,-7.72
8879,-6.18
8891,-4.75
8902,-3.4
8913,-2.14
8925,-1.03
8937,-0.1
8949,0.6
8961,1.07
8973,1.34
8985,1.41
8997,1.35
9009,1.23
9021,1.15
9033,1.16
9045,1.28
9057,1.52
9069,1.81
9081,2.17
9092,2.53
9103,2.86
9115,3.14
9127,3.31
9139,3.34
9151,3.25
9163,3.02
9175,2.64
9187,2.13
9199,1.55
9211,0.97
9223,0.51
9235,0.23
9247,0.17
9259,0.22
9271,0.24
9282,0.06
9293,-0.33
9305,-0.91
9317,-1.6
9329,-2.36
9341,-3.31
9353,-4.48
9365,-5.85
9377,-7.24
9389,-8.36
9401,-8.9
9413,-8.72
9425,-7.86
9437,-6.53
9449,-5.02
9461,-3.55
9472,-2.23
9483,-1.05
9495,0.01
9507,1.03
9519,2.02
9531,3.01
9543,3.99
9555,4.92
9567,5.8
9579,6.6
9591,7.32
9603,8.0
9615,8.65
9627,9.25
9639,9.75
9651,10.1
9662,10.28
9673,10.29
9685,10.2
9697,10.07
9709,9.93
9721,9.76
9733,9.5
9745,9.09
9757,8.46
9769,7.57
9781,6.38
9793,4.94
9805,3.29
9817,1.6
9829,0.01
9841,-1.31
9852,-2.31
9863,-3.05
9875,-3.67
9887,-4.36
9899,-5.18
9911,-6.1
9923,-7.02
9935,-7.81
9947,-8.39
9959,-8.77
9971,-8.87
9983,-8.62
9995,-7.87
10007,-6.52
10019,-4.65
10031,-2.5
10042,-0.43
10053,1.25
10065,2.4
10077,3.06
10089,3.43
10101,3.66
10113,3.82
10125,3.91
10137,3.95
10149,4.03
10161,4.23
10173,4.69
10185,5.4
10197,6.23
10209,7.02
10221,7.58
10232,7.85
10243,7.86
10255,7.75
10267,7.61
10279,7.52
10291,7.45
10303,7.35
10315,7.14
10327,6.8
10339,6.33
10351,5.82
10363,5.31
10375,4.81
10387,4.28
10399,3.64
10411,2.8
10422,1.75
10433,0.53
10445,-0.77
10457,-2.08
10469,-3.34
10481,-4.55
10493,-5.72
10505,-6.86
10517,-7.99
10529,-9.12
10541,-10.24
10553,-11.39
10565,-12.51
10577,-13.54
10589,-14.34
10601,-14.69
10612,-14.41
10623,-13.41
10635,-11.76
10647,-9.64
10659,-7.36
10671,-5.14
10683,-3.14
10695,-1.35
10707,0.36
10719,2.08
10731,3.82
10743,5.43
10755,6.72
10767,7.52
10779,7.83
10791,7.75
10802,7.52
10813,7.3
10825,7.15
10837,7.04
10849,6.84
10861,6.45
10873,5.87
10885,5.23
10897,4.65
10909,4.32
10921,4.32
10933,4.57
10945,4.9
10957,5.02
10969,4.73
10981,3.98
10992,2.9
11003,1.74
11015,0.69
11027,-0.14
11039,-0.83
11051,-1.53
11063,-2.41
11075,-3.5
11087,-4.69
11099,-5.84
11111,-6.82
11123,-7.61
11135,-8.28
11147,-8.92
11159,-9.54
11171,-10.17
11182,-10.76
11193,-11.29
11205,-11.79
11217,-12.28
11229,-12.79
11241,-13.31
11253,-13.72
11265,-13.77
11277,-13.27
11289,-12.1
11301,-10.3
11313,-8.07
11325,-5.66
11337,-3.27
11349,-1.03
11361,1.07
11372,3.05
11383,4.91
11395,6.61
11407,8.05
11419,9.14
11431,9.87
11443,10.25
11455,10.32
11467,10.11
11479,9.66
11491,9.05
11503,8.42
11515,7.87
11527,7.43
11539,7.09
11551,6.78
11562,6.44
11573,6.03
11585,5.52
11597,4.93
11609,4.23
11621,3.41
11633,2.43
11645,1.33
11657,0.21
11669,-0.81
11681,-1.6
11693,-2.07
11705,-2.24
11717,-2.17
11729,-1.98
11741,-1.83
11752,-1.77
11763,-1.88
11775,-2.12
11787,-2.5
11799,-2.97
11811,-3.57
11823,-4.29
11835,-5.13
11847,-5.94
11859,-6.5
11871,-6.57
11883,-5.96
11895,-4.66
11907,-2.87
11919,-0.87
11931,1.06
11942,2.75
11953,4.19
11965,5.46
11977,6.59
11989,7.6
12001,8.43
12013,8.98
12025,9.2
12037,9.1
12049,8.78
12061,8.34
12073,7.89
12085,7.43
12097,6.99
12109,6.54
12121,6.1
12132,5.71
12143,5.43
12155,5.33
12167,5.43
12179,5.69
12191,5.99
12203,6.2
12215,6.18
12227,5.91
12239,5.48
12251,5.06
12263,4.79
12275,4.75
12287,4.86
12299,4.9
12311,4.7
12322,4.09
12333,3.01
12345,1.52
12357,-0.25
12369,-2.15
12381,-3.97
12393,-5.56
12405,-6.77
12417,-7.54
12429,-7.89
12441,-7.93
12453,-7.83
12465,-7.74
12477,-7.72
12489,-7.72
12501,-7.62
12512,-7.25
12523,-6.54
12535,-5.47
12547,-4.09
12559,-2.44
12571,-0.55
12583,1.61
12595,4.04
12607,6.66
12619,9.29
12631,11.64
12643,13.45
12655,14.58
12667,15.05
12679,15.01
12691,14.67
12702,14.19
12713,13.65
12725,12.99
12737,12.11
12749,10.94
12761,9.47
12773,7.76
12785,5.94
12797,4.19
12809,2.65
12821,1.46
12833,0.71
12845,0.34
12857,0.27
12869,0.33
12881,0.36
12892,0.25
12903,-0.03
12915,-0.44
12927,-0.89
12939,-1.32
12951,-1.72
12963,-2.17
12975,-2.73
12987,-3.49
12999,-4.44
13011,-5.59
13023,-6.88
13035,-8.22
13047,-9.52
13059,-10.69
13071,-11.61
13082,-12.22
13093,-12.48
13105,-12.42
13117,-12.1
13129,-11.57
13141,-10.87
13153,-9.97
13165,-8.84
13177,-7.48
13189,-5.95
13201,-4.4
13213,-2.99
13225,-1.87
13237,-1.13
13249,-0.74
13261,-0.61
13272,-0.61
13283,-0.61
13295,-0.52
13307,-0.29
13319,0.14
13331,0.73
13343,1.47
13355,2.3
13367,3.1
13379,3.8
13391,4.28
13403,4.49
13415,4.42
13427,4.14
13439,3.68
13451,3.09
13462,2.38
13473,1.62
13485,0.84
13497,0.17
13509,-0.33
13521,-0.71
13533,-1.05
13545,-1.49
13557,-2.13
13569,-2.99
13581,-4.03
13593,-5.13
13605,-6.21
13617,-7.25
13629,-8.25
13641,-9.18
13652,-9.95
13663,-10.49
13675,-10.79
13687,-10.96
13699,-11.18
13711,-11.64
13723,-12.41
13735,-13.36
13747,-14.26
13759,-14.82
13771,-14.91
13783,-14.56
13795,-13.89
13807,-13.08
13819,-12.22
13831,-11.27
13842,-10.08
13853,-8.58
13865,-6.7
13877,-4.54
13889,-2.28
13901,-0.15
13913,1.62
13925,2.96
13937,3.9
13949,4.55
13961,5.02
13973,5.38
13985,5.61
13997,5.72
14009,5.75
14021,5.76
14032,5.89
14043,6.23
14055,6.77
14067,7.39
14079,7.89
14091,8.1
14103,7.96
14115,7.51
14127,6.88
14139,6.21
14151,5.56
14163,4.87
14175,4.05
14187,3.04
14199,1.86
14211,0.68
14222,-0.25
14233,-0.75
14245,-0.76
14257,-0.47
14269,-0.12
14281,-0.0
14293,-0.24
14305,-0.87
14317,-1.8
14329,-2.87
14341,-3.97
14353,-4.98
14365,-5.73
14377,-6.1
14389,-5.93
14401,-5.23
14412,-4.11
14423,-2.82
14435,-1.59
14447,-0.62
14459,0.06
14471,0.54
14483,0.98
14495,1.5
14507,2.16
14519,3.01
14531,4.02
14543,5.17
14555,6.36
14567,7.52
14579,8.5
14591,9.23
14602,9.67
14613,9.8
14625,9.7
14637,9.43
14649,9.09
14661,8.72
14673,8.36
14685,8.01
14697,7.67
14709,7.32
14721,6.9
14733,6.42
14745,5.88
14757,5.35
14769,4.87
14781,4.48
14792,4.16
14803,3.83
14815,3.35
14827,2.63
14839,1.62
14851,0.33
14863,-1.12
14875,-2.61
14887,-4.04
14899,-5.32
14911,-6.44
14923,-7.41
14935,-8.17
14947,-8.67
14959,-8.83
14971,-8.64
14982,-8.15
14993,-7.48
15005,-6.68
15017,-5.74
15029,-4.61
15041,-3.25
15053,-1.77
15065,-0.3
15077,0.98
15089,2.02
15101,2.94
15113,3.93
15125,5.14
15137,6.56
15149,7.93
15161,8.93
15172,9.33
15183,9.1
15195,8.44
15207,7.63
15219,6.93
15231,6.44
15243,6.15
15255,6.03
15267,6.01
15279,6.09
15291,6.26
15303,6.45
15315,6.52
15327,6.3
15339,5.68
15351,4.71
15362,3.59
15373,2.57
15385,1.83
15397,1.44
15409,1.27
15421,1.17
15433,0.97
15445,0.63
15457,0.21
15469,-0.24
15481,-0.78
15493,-1.56
15505,-2.78
15517,-4.48
15529,-6.56
15541,-8.79
15552,-10.86
15563,-12.6
15575,-13.9
15587,-14.81
15599,-15.28
15611,-15.25
15623,-14.58
15635,-13.24
15647,-11.35
15659,-9.13
15671,-6.83
15683,-4.65
15695,-2.66
15707,-0.84
15719,0.82
15731,2.31
15742,3.56
15753,4.51
15765,5.18
15777,5.61
15789,5.87
15801,6.04
15813,6.15
15825,6.19
15837,6.13
15849,5.99
15861,5.79
15873,5.57
15885,5.33
15897,5.1
15909,4.84
15921,4.61
15932,4.42
15943,4.31
15955,4.28
15967,4.24
15979,4.08
15991,3.7
16003,3.11
16015,2.43
16027,1.83
16039,1.47
16051,1.36
16063,1.38
16075,1.3
16087,0.91
16099,0.05
16111,-1.21
16122,-2.76
16133,-4.38
16145,-5.89
16157,-7.2
16169,-8.27
16181,-9.16
16193,-9.95
16205,-10.74
16217,-11.55
16229,-12.42
16241,-13.32
16253,-14.23
16265,-15.1
16277,-15.86
16289,-16.42
16301,-16.64
16312,-16.4
16323,-15.58
16335,-14.18
16347,-12.26
16359,-10.01
16371,-7.66
16383,-5.41
16395,-3.39
16407,-1.65
16419,-0.18
16431,1.01
16443,1.91
16455,2.48
16467,2.74
16479,2.79
16491,2.77
16502,2.83
16513,3.0
16525,3.22
16537,3.31
16549,3.19
16561,2.86
16573,2.51
16585,2.37
16597,2.58
16609,3.14
16621,3.88
16633,4.61
16645,5.14
16657,5.42
16669,5.48
16681,5.42
16692,5.34
16703,5.27
16715,5.18
16727,5.04
16739,4.78
16751,4.33
16763,3.65
16775,2.79
16787,1.82
16799,0.88
16811,0.04
16823,-0.68
16835,-1.34
16847,-2.08
16859,-2.94
16871,-3.94
16882,-5.04
16893,-6.17
16905,-7.3
16917,-8.46
16929,-9.67
16941,-10.93
16953,-12.11
16965,-12.98
16977,-13.27
16989,-12.81
17001,-11.59
17013,-9.8
17025,-7.71
17037,-5.6
17049,-3.65
17061,-1.92
17072,-0.29
17083,1.31
17095,2.95
17107,4.57
17119,6.05
17131,7.22
17143,7.99
17155,8.37
17167,8.4
17179,8.25
17191,8.06
17203,7.96
17215,7.98
17227,8.11
17239,8.27
17251,8.42
17262,8.56
17273,8.73
17285,8.97
17297,9.25
17309,9.51
17321,9.62
17333,9.48
17345,9.05
17357,8.43
17369,7.73
17381,7.05
17393,6.44
17405,5.88
17417,5.28
17429,4.6
17441,3.74
17452,2.68
17463,1.4
17475,-0.09
17487,-1.74
17499,-3.4
17511,-4.99
17523,-6.51
17535,-7.93
17547,-9.34
17559,-10.67
17571,-11.78
17583,-12.45
17595,-12.5
17607,-11.89
17619,-10.67
17631,-9.0
17642,-6.98
17653,-4.72
17665,-2.3
17677,0.14
17689,2.37
17701,4.14
17713,5.28
17725,5.8
17737,5.91
17749,5.91
17761,6.04
17773,6.36
17785,6.82
17797,7.26
17809,7.5
17821,7.49
17832,7.29
17843,7.03
17855,6.87
17867,6.89
17879,7.06
17891,7.3
17903,7.49
17915,7.49
17927,7.24
17939,6.7
17951,5.93
17963,4.97
17975,3.93
17987,2.87
17999,1.81
18011,0.76
18022,-0.3
18033,-1.29
18045,-2.13
18057,-2.69
18069,-2.92
18081,-2.86
18093,-2.7
18105,-2.67
18117,-3.02
18129,-3.87
18141,-5.21
18153,-6.87
18165,-8.68
18177,-10.46
18189,-12.08
18201,-13.41
18212,-14.32
18223,-14.66
18235,-14.31
18247,-13.22
18259,-11.5
18271,-9.35
18283,-7.12
18295,-5.07
18307,-3.43
18319,-2.21
18331,-1.31
18343,-0.56
18355,0.16
18367,0.93
18379,1.8
18391,2.78
18402,3.86
18413,5.03
18425,6.18
18437,7.17
18449,7.87
18461,8.17
18473,8.14
18485,7.95
18497,7.78
18509,7.7
18521,7.67
18533,7.57
18545,7.3
18557,6.84
18569,6.28
18581,5.67
18592,5.01
18603,4.17
18615,3.04
18627,1.6
18639,-0.01
18651,-1.5
18663,-2.67
18675,-3.44
18687,-3.9
18699,-4.24
18711,-4.58
18723,-4.95
18735,-5.22
18747,-5.3
18759,-5.18
18771,-5.02
18782,-5.14
18793,-5.88
18805,-7.44
18817,-9.82
18829,-12.68
18841,-15.54
18853,-17.91
18865,-19.44
18877,-20.0
18889,-19.67
18901,-18.64
18913,-17.11
18925,-15.25
18937,-13.14
18949,-10.91
18961,-8.64
18972,-6.47
18983,-4.51
18995,-2.82
19007,-1.41
19019,-0.25
19031,0.74
19043,1.63
19055,2.41
19067,3.03
19079,3.42
19091,3.48
19103,3.21
19115,2.67
19127,2.02
19139,1.41
19151,0.94
19162,0.63
19173,0.46
19185,0.4
19197,0.51
19209,0.83
19221,1.34
19233,1.93
19245,2.37
19257,2.44
19269,2.01
19281,1.14
19293,-0.02
19305,-1.24
19317,-2.35
19329,-3.23
19341,-3.91
19352,-4.39
19363,-4.7
19375,-4.9
19387,-5.05
19399,-5.31
19411,-5.77
19423,-6.48
19435,-7.34
19447,-8.17
19459,-8.74
19471,-8.87
19483,-8.57
19495,-7.87
19507,-6.9
19519,-5.74
19531,-4.43
19542,-2.95
19553,-1.34
19565,0.28
19577,1.8
19589,3.08
19601,4.13
19613,5.01
19625,5.89
19637,6.88
19649,8.04
19661,9.34
19673,10.62
19685,11.74
19697,12.62
19709,13.26
19721,13.73
19732,14.13
19743,14.57
19755,14.99
19767,15.37
19779,15.55
19791,15.46
19803,15.12
19815,14.62
19827,14.11
19839,13.62
19851,13.15
19863,12.54
19875,11.66
19887,10.44
19899,8.91
19911,7.22
19922,5.49
19933,3.79
19945,2.09
19957,0.29
19969,-1.67
19981,-3.72
19993,-5.7
20005,-7.32
20017,-8.32
20029,-8.54
20041,-7.98
20053,-6.81
20065,-5.27
20077,-3.62
20089,-2.01
20101,-0.44
20112,1.14
20123,2.81
20135,4.54
20147,6.23
20159,7.74
20171,8.95
20183,9.88
20195,10.63
20207,11.32
20219,12.0
20231,12.6
20243,12.98
20255,13.06
20267,12.83
20279,12.44
20291,12.06
20302,11.83
20313,11.75
20325,11.67
20337,11.37
20349,10.67
20361,9.52
20373,8.04
20385,6.47
20397,4.99
20409,3.73
20421,2.65
20433,1.68
20445,0.7
20457,-0.29
20469,-1.28
20481,-2.23
20492,-3.12
20503,-3.98
20515,-4.86
20527,-5.79
20539,-6.77
20551,-7.78
20563,-8.75
20575,-9.67
20587,-10.53
20599,-11.32
20611,-12.01
20623,-12.5
20635,-12.65
20647,-12.32
20659,-11.42
20671,-9.96
20682,-8.02
20693,-5.82
20705,-3.57
20717,-1.47
20729,0.29
20741,1.6
20753,2.43
20765,2.86
20777,3.05
20789,3.22
20801,3.57
20813,4.19
20825,5.07
20837,6.06
20849,6.99
20861,7.73
20872,8.22
20883,8.52
20895,8.7
20907,8.8
20919,8.84
20931,8.81
20943,8.74
20955,8.72
20967,8.82
20979,8.99
20991,9.09
