seconds,BVP
7,-53.93
19,-59.72
31,-66.95
43,-75.51
55,-84.69
67,-93.06
79,-98.73
91,-99.81
103,-94.94
115,-83.78
127,-67.14
139,-46.84
151,-25.14
163,-4.18
175,14.42
186,29.79
197,41.73
209,50.44
221,56.33
233,59.79
245,61.19
257,60.96
269,59.59
281,57.67
293,55.79
305,54.41
317,53.76
329,53.69
341,53.84
353,53.73
365,53.0
376,51.52
387,49.41
399,46.91
411,44.21
423,41.33
435,38.13
447,34.46
459,30.35
471,26.14
483,22.38
495,19.59
507,17.94
519,17.09
531,16.21
543,14.37
555,10.89
566,5.65
577,-0.88
589,-7.96
601,-14.82
613,-20.99
625,-26.41
637,-31.32
649,-36.07
661,-41.07
673,-46.7
685,-53.32
697,-61.15
709,-70.02
721,-79.13
733,-86.86
745,-91.08
756,-89.76
767,-81.72
779,-67.18
791,-47.82
803,-26.22
815,-5.09
827,13.52
839,28.63
851,40.13
863,48.41
875,53.88
887,56.76
899,57.22
911,55.59
923,52.47
935,48.72
946,45.13
957,42.18
969,39.96
981,38.26
993,36.89
1005,35.83
1017,35.25
1029,35.31
1041,35.9
1053,36.65
1065,36.92
1077,36.19
1089,34.22
1101,31.08
1113,27.02
1125,22.34
1136,17.21
1147,11.74
1159,6.05
1171,0.28
1183,-5.4
1195,-10.83
1207,-15.97
1219,-20.82
1231,-25.42
1243,-29.78
1255,-33.96
1267,-38.07
1279,-42.34
1291,-47.11
1303,-52.65
1315,-58.99
1326,-65.67
1337,-71.73
1349,-75.8
1361,-76.41
1373,-72.47
1385,-63.54
1397,-50.07
1409,-33.26
1421,-14.81
1433,3.53
1445,20.35
1457,34.71
1469,46.19
1481,54.68
1493,60.28
1505,63.07
1516,63.22
1527,61.01
1539,56.97
1551,51.92
1563,46.84
1575,42.66
1587,39.99
1599,38.96
1611,39.2
1623,40.09
1635,40.95
1647,41.26
1659,40.71
1671,39.2
1683,36.73
1695,33.37
1706,29.18
1717,24.25
1729,18.65
1741,12.46
1753,5.75
1765,-1.38
1777,-8.73
1789,-16.02
1801,-22.95
1813,-29.24
1825,-34.78
1837,-39.6
1849,-43.94
1861,-48.19
1873,-52.85
1885,-58.4
1896,-65.11
1907,-72.74
1919,-80.33
1931,-86.28
1943,-88.72
1955,-86.1
1967,-77.82
1979,-64.46
1991,-47.74
2003,-29.83
2015,-12.8
2027,2.0
2039,14.0
2051,23.28
2063,30.16
2075,34.96
2086,37.92
2097,39.23
2109,39.13
2121,38.02
2133,36.41
2145,34.82
2157,33.69
2169,33.26
2181,33.51
2193,34.25
2205,35.17
2217,35.98
2229,36.46
2241,36.5
2253,35.97
2265,34.77
2276,32.75
2287,29.86
2299,26.17
2311,21.94
2323,17.49
2335,13.09
2347,8.82
2359,4.49
2371,-0.18
2383,-5.44
2395,-11.32
2407,-17.56
2419,-23.69
2431,-29.24
2443,-33.95
2455,-37.85
2466,-41.41
2477,-45.33
2489,-50.35
2501,-56.86
2513,-64.67
2525,-72.8
2537,-79.69
2549,-83.44
2561,-82.45
2573,-75.85
2585,-63.87
2597,-47.81
2609,-29.67
2621,-11.59
2633,4.64
2645,17.98
2656,28.11
2667,35.29
2679,40.01
2691,42.79
2703,44.03
2715,44.03
2727,43.07
2739,41.51
2751,39.79
2763,38.32
2775,37.45
2787,37.29
2799,37.74
2811,38.54
2823,39.29
2835,39.7
2846,39.57
2857,38.93
2869,37.9
2881,36.59
2893,35.01
2905,33.0
2917,30.35
2929,26.9
2941,22.7
2953,18.05
2965,13.34
2977,8.95
2989,5.02
3001,1.44
3013,-2.14
3025,-6.11
3036,-10.71
3047,-15.94
3059,-21.47
3071,-26.79
3083,-31.39
3095,-34.97
3107,-37.63
3119,-39.88
3131,-42.53
3143,-46.48
3155,-52.35
3167,-60.21
3179,-69.51
3191,-78.92
3203,-86.62
3215,-90.68
3226,-89.5
3237,-82.36
3249,-69.6
3261,-52.64
3273,-33.51
3285,-14.34
3297,3.2
3309,18.11
3321,30.08
3333,39.24
3345,45.87
3357,50.29
3369,52.79
3381,53.74
3393,53.56
3405,52.66
3416,51.38
3427,49.9
3439,48.31
3451,46.69
3463,45.13
3475,43.83
3487,42.93
3499,42.5
3511,42.45
3523,42.56
3535,42.52
3547,41.98
3559,40.63
3571,38.24
3583,34.68
3595,30.08
3606,24.82
3617,19.49
3629,14.74
3641,10.97
3653,8.26
3665,6.22
3677,4.22
3689,1.59
3701,-2.04
3713,-6.63
3725,-11.74
3737,-16.78
3749,-21.26
3761,-25.03
3773,-28.33
3785,-31.64
3796,-35.56
3807,-40.53
3819,-46.74
3831,-54.04
3843,-61.82
3855,-69.08
3867,-74.44
3879,-76.45
3891,-73.97
3903,-66.53
3915,-54.61
3927,-39.52
3939,-23.11
3951,-7.2
3963,6.78
3975,18.05
3986,26.38
3997,31.88
4009,34.89
4021,35.79
4033,35.03
4045,33.13
4057,30.59
4069,27.9
4081,25.48
4093,23.6
4105,22.51
4117,22.3
4129,22.93
4141,24.2
4153,25.74
4165,27.15
4176,28.05
4187,28.16
4199,27.38
4211,25.68
4223,23.09
4235,19.68
4247,15.6
4259,11.12
4271,6.58
4283,2.27
4295,-1.66
4307,-5.24
4319,-8.59
4331,-11.84
4343,-14.96
4355,-17.8
4366,-20.21
4377,-22.21
4389,-24.05
4401,-26.18
4413,-29.1
4425,-33.22
4437,-38.71
4449,-45.38
4461,-52.65
4473,-59.47
4485,-64.46
4497,-66.15
4509,-63.39
4521,-55.78
4533,-43.87
4545,-29.13
4556,-13.48
4567,1.21
4579,13.67
4591,23.3
4603,30.13
4615,34.47
4627,36.69
4639,37.09
4651,35.96
4663,33.63
4675,30.57
4687,27.29
4699,24.29
4711,21.94
4723,20.43
4735,19.72
4746,19.66
4757,19.98
4769,20.47
4781,20.94
4793,21.23
4805,21.18
4817,20.58
4829,19.26
4841,17.08
4853,14.04
4865,10.32
4877,6.21
4889,2.04
4901,-1.96
4913,-5.66
4925,-9.12
4936,-12.43
4947,-15.72
4959,-19.05
4971,-22.42
4983,-25.78
4995,-28.96
5007,-31.8
5019,-34.19
5031,-36.21
5043,-38.21
5055,-40.75
5067,-44.45
5079,-49.6
5091,-55.95
5103,-62.56
5115,-67.89
5126,-70.26
5137,-68.37
5149,-61.77
5161,-50.93
5173,-37.14
5185,-22.02
5197,-7.1
5209,6.54
5221,18.25
5233,27.73
5245,34.89
5257,39.63
5269,42.02
5281,42.24
5293,40.71
5305,38.05
5316,34.98
5327,32.15
5339,30.06
5351,28.91
5363,28.67
5375,29.08
5387,29.83
5399,30.58
5411,31.12
5423,31.33
5435,31.2
5447,30.69
5459,29.69
5471,28.01
5483,25.45
5495,21.95
5506,17.69
5517,13.11
5529,8.77
5541,5.19
5553,2.62
5565,0.97
5577,-0.15
5589,-1.25
5601,-2.74
5613,-4.86
5625,-7.63
5637,-10.95
5649,-14.7
5661,-18.79
5673,-23.15
5685,-27.68
5696,-32.23
5707,-36.66
5719,-40.97
5731,-45.36
5743,-50.22
5755,-55.84
5767,-62.14
5779,-68.41
5791,-73.3
5803,-75.16
5815,-72.68
5827,-65.37
5839,-53.8
5851,-39.43
5863,-24.09
5875,-9.44
5886,3.48
5897,14.2
5909,22.75
5921,29.36
5933,34.26
5945,37.62
5957,39.6
5969,40.36
5981,40.16
5993,39.3
6005,38.13
6017,37.01
6029,36.2
6041,35.88
6053,36.09
6065,36.77
6076,37.76
6087,38.87
6099,39.92
6111,40.68
6123,40.95
6135,40.54
6147,39.35
6159,37.39
6171,34.8
6183,31.78
6195,28.54
6207,25.24
6219,21.93
6231,18.55
6243,15.03
6255,11.3
6266,7.39
6277,3.38
6289,-0.55
6301,-4.26
6313,-7.67
6325,-10.85
6337,-13.96
6349,-17.18
6361,-20.62
6373,-24.24
6385,-27.85
6397,-31.26
6409,-34.44
6421,-37.63
6433,-41.29
6445,-45.96
6456,-51.95
6467,-58.99
6479,-66.23
6491,-72.3
6503,-75.72
6515,-75.32
6527,-70.59
6539,-61.81
6551,-49.91
6563,-36.17
6575,-21.91
6587,-8.28
6599,3.86
6611,13.92
6623,21.63
6635,26.92
6646,29.97
6657,31.15
6669,30.94
6681,29.84
6693,28.33
6705,26.78
6717,25.52
6729,24.79
6741,24.75
6753,25.49
6765,26.96
6777,28.95
6789,31.15
6801,33.21
6813,34.84
6825,35.86
6836,36.21
6847,35.88
6859,34.87
6871,33.13
6883,30.64
6895,27.41
6907,23.61
6919,19.52
6931,15.43
6943,11.45
6955,7.45
6967,3.19
6979,-1.56
6991,-6.77
7003,-12.02
7015,-16.76
7026,-20.5
7037,-23.1
7049,-24.9
7061,-26.56
7073,-28.87
7085,-32.44
7097,-37.5
7109,-43.86
7121,-50.89
7133,-57.61
7145,-62.75
7157,-65.02
7169,-63.44
7181,-57.58
7193,-47.82
7205,-35.23
7216,-21.38
7227,-7.85
7239,4.08
7251,13.65
7263,20.67
7275,25.29
7287,27.85
7299,28.67
7311,28.07
7323,26.35
7335,23.9
7347,21.17
7359,18.7
7371,16.9
7383,16.07
7395,16.28
7406,17.4
7417,19.19
7429,21.3
7441,23.39
7453,25.09
7465,26.08
7477,26.16
7489,25.19
7501,23.2
7513,20.34
7525,16.79
7537,12.76
7549,8.45
7561,4.01
7573,-0.46
7585,-4.88
7596,-9.19
7607,-13.33
7619,-17.24
7631,-20.81
7643,-23.95
7655,-26.61
7667,-28.89
7679,-31.1
7691,-33.72
7703,-37.28
7715,-42.13
7727,-48.16
7739,-54.68
7751,-60.46
7763,-63.99
7775,-63.94
7786,-59.62
7797,-51.17
7809,-39.52
7821,-26.15
7833,-12.59
7845,-0.14
7857,10.3
7869,18.27
7881,23.67
7893,26.67
7905,27.6
7917,26.99
7929,25.4
7941,23.41
7953,21.47
7965,19.9
7976,18.89
7987,18.5
7999,18.7
8011,19.44
8023,20.66
8035,22.27
8047,24.11
8059,25.96
8071,27.48
8083,28.3
8095,28.09
8107,26.65
8119,24.06
8131,20.62
8143,16.81
8155,13.09
8166,9.72
8177,6.62
8189,3.56
8201,0.15
8213,-3.85
8225,-8.41
8237,-13.25
8249,-17.92
8261,-22.13
8273,-25.77
8285,-29.06
8297,-32.36
8309,-36.1
8321,-40.59
8333,-45.95
8345,-51.93
8356,-57.91
8367,-62.89
8379,-65.6
8391,-64.87
8403,-60.03
8415,-51.15
8427,-39.13
8439,-25.46
8451,-11.79
8463,0.5
8475,10.6
8487,18.33
8499,23.9
8511,27.76
8523,30.28
8535,31.77
8546,32.43
8557,32.47
8569,32.18
8581,31.91
8593,32.07
8605,32.95
8617,34.68
8629,37.06
8641,39.73
8653,42.28
8665,44.37
8677,45.88
8689,46.87
8701,47.42
8713,47.53
8725,47.0
8736,45.53
8747,42.87
8759,39.04
8771,34.37
8783,29.44
8795,24.83
8807,20.96
8819,17.87
8831,15.26
8843,12.67
8855,9.68
8867,6.09
8879,1.89
8891,-2.78
8903,-7.75
8915,-12.86
8926,-17.96
8937,-22.88
8949,-27.47
8961,-31.7
8973,-35.72
8985,-39.92
8997,-44.82
9009,-50.79
9021,-57.81
9033,-65.29
9045,-72.07
9057,-76.69
9069,-77.82
9081,-74.58
9093,-66.88
9105,-55.34
9116,-41.2
9127,-25.92
9139,-10.91
9151,2.76
9163,14.48
9175,24.05
9187,31.55
9199,37.23
9211,41.37
9223,44.23
9235,46.02
9247,46.96
9259,47.29
9271,47.23
9283,47.08
9295,47.07
9306,47.37
9317,48.02
9329,48.99
9341,50.15
9353,51.37
9365,52.5
9377,53.35
9389,53.73
9401,53.42
9413,52.21
9425,50.03
9437,46.97
9449,43.32
9461,39.45
9473,35.73
9485,32.36
9496,29.35
9507,26.54
9519,23.74
9531,20.84
9543,17.85
9555,14.92
9567,12.19
9579,9.7
9591,7.31
9603,4.69
9615,1.45
9627,-2.77
9639,-8.1
9651,-14.45
9663,-21.52
9675,-28.93
9686,-36.35
9697,-43.62
9709,-50.76
9721,-57.94
9733,-65.39
9745,-73.23
9757,-81.32
9769,-89.1
9781,-95.6
9793,-99.52
9805,-99.63
9817,-95.11
9829,-85.9
9841,-72.8
9853,-57.23
9865,-40.88
9876,-25.23
9887,-11.32
9899,0.31
9911,9.5
9923,16.32
9935,20.92
9947,23.52
9959,24.39
9971,23.93
9983,22.59
9995,20.83
10007,19.1
10019,17.67
10031,16.67
10043,16.11
10055,15.94
10066,16.1
10077,16.58
10089,17.31
10101,18.12
10113,18.69
10125,18.61
10137,17.51
10149,15.3
10161,12.23
10173,8.84
10185,5.74
10197,3.37
10209,1.83
10221,0.83
10233,-0.1
10245,-1.47
10256,-3.55
10267,-6.36
10279,-9.68
10291,-13.05
10303,-16.03
10315,-18.28
10327,-19.72
10339,-20.57
10351,-21.35
10363,-22.64
10375,-24.95
10387,-28.41
10399,-32.75
10411,-37.27
10423,-41.1
10435,-43.3
10446,-43.18
10457,-40.35
10469,-34.9
10481,-27.28
10493,-18.27
10505,-8.85
10517,0.07
10529,7.74
10541,13.68
10553,17.67
10565,19.69
10577,19.92
10589,18.65
10601,16.31
10613,13.49
10625,10.85
10636,8.95
10647,8.13
10659,8.31
10671,9.1
10683,9.89
10695,10.14
10707,9.5
10719,7.95
10731,5.72
10743,3.24
10755,0.87
10767,-1.1
10779,-2.58
10791,-3.59
10803,-4.29
10815,-4.83
10826,-5.38
10837,-6.01
10849,-6.78
10861,-7.72
10873,-8.87
10885,-10.32
10897,-12.26
10909,-14.88
10921,-18.41
10933,-23.01
10945,-28.67
10957,-35.07
10969,-41.47
10981,-46.81
10993,-49.9
11005,-49.68
11016,-45.6
11027,-37.79
11039,-27.01
11051,-14.45
11063,-1.42
11075,11.01
11087,22.07
11099,31.35
11111,38.65
11123,43.84
11135,46.79
11147,47.48
11159,46.12
11171,43.2
11183,39.56
11195,36.15
11206,33.8
11217,32.94
11229,33.48
11241,34.91
11253,36.5
11265,37.61
11277,37.92
11289,37.38
11301,36.16
11313,34.47
11325,32.38
11337,29.82
11349,26.68
11361,22.92
11373,18.62
11385,14.01
11396,9.39
11407,5.02
11419,1.01
11431,-2.64
11443,-6.03
11455,-9.35
11467,-12.82
11479,-16.68
11491,-21.2
11503,-26.58
11515,-32.83
11527,-39.57
11539,-45.91
11551,-50.58
11563,-52.13
11575,-49.37
11586,-41.78
11597,-29.73
11609,-14.45
11621,2.39
11633,19.02
11645,34.08
11657,46.76
11669,56.77
11681,64.16
11693,69.12
11705,71.89
11717,72.74
11729,71.97
11741,70.03
11753,67.3
11765,64.18
11776,60.94
11787,57.76
11799,54.88
11811,52.5
11823,50.9
11835,50.18
11847,50.24
11859,50.71
11871,51.02
11883,50.57
11895,48.93
11907,46.0
11919,42.0
11931,37.33
11943,32.39
11955,27.47
11966,22.62
11977,17.75
11989,12.66
12001,7.24
12013,1.53
12025,-4.32
12037,-10.06
12049,-15.46
12061,-20.37
12073,-24.79
12085,-28.9
12097,-32.96
12109,-37.37
12121,-42.47
12133,-48.48
12145,-55.26
12156,-62.16
12167,-68.12
12179,-71.75
12191,-71.78
12203,-67.38
12215,-58.5
12227,-45.87
12239,-30.83
12251,-14.98
12263,0.19
12275,13.5
12287,24.27
12299,32.31
12311,37.83
12323,41.25
12335,43.11
12346,43.89
12357,43.96
12369,43.57
12381,42.91
12393,42.2
12405,41.7
12417,41.68
12429,42.3
12441,43.56
12453,45.23
12465,46.86
12477,47.96
12489,48.1
12501,46.98
12513,44.52
12525,40.88
12536,36.38
12547,31.44
12559,26.5
12571,21.89
12583,17.78
12595,14.19
12607,10.94
12619,7.82
12631,4.68
12643,1.51
12655,-1.58
12667,-4.44
12679,-7.02
12691,-9.5
12703,-12.13
12715,-15.18
12726,-18.75
12737,-22.72
12749,-26.82
12761,-30.79
12773,-34.49
12785,-37.97
12797,-41.42
12809,-45.12
12821,-49.36
12833,-54.32
12845,-59.93
12857,-65.71
12869,-70.71
12881,-73.63
12893,-73.19
12905,-68.5
12916,-59.53
12927,-47.08
12939,-32.63
12951,-17.81
12963,-4.01
12975,7.9
12987,17.58
12999,25.08
13011,30.59
13023,34.36
13035,36.58
13047,37.52
13059,37.47
13071,36.79
13083,35.86
13095,34.93
13106,34.15
13117,33.5
13129,32.89
13141,32.3
13153,31.78
13165,31.45
13177,31.4
13189,31.63
13201,31.95
13213,32.04
13225,31.55
13237,30.24
13249,28.03
13261,25.06
13273,21.55
13285,17.83
13296,14.11
13307,10.58
13319,7.24
13331,4.09
13343,1.08
13355,-1.78
13367,-4.44
13379,-6.87
13391,-9.1
13403,-11.22
13415,-13.42
13427,-15.76
13439,-18.2
13451,-20.54
13463,-22.59
13475,-24.22
13486,-25.55
13497,-26.91
13509,-28.81
13521,-31.69
13533,-35.73
13545,-40.83
13557,-46.44
13569,-51.73
13581,-55.63
13593,-57.11
13605,-55.42
13617,-50.33
13629,-42.23
13641,-32.06
13653,-21.08
13665,-10.53
13676,-1.35
13687,5.94
13699,11.23
13711,14.68
13723,16.52
13735,17.08
13747,16.67
13759,15.63
13771,14.29
13783,12.94
13795,11.83
13807,11.09
13819,10.82
13831,11.0
13843,11.58
13855,12.41
13866,13.36
13877,14.3
13889,15.1
13901,15.65
13913,15.89
13925,15.76
13937,15.19
13949,14.16
13961,12.64
13973,10.65
13985,8.23
13997,5.57
14009,2.86
14021,0.35
14033,-1.81
14045,-3.62
14056,-5.27
14067,-7.05
14079,-9.22
14091,-11.89
14103,-14.94
14115,-18.06
14127,-20.92
14139,-23.25
14151,-24.96
14163,-26.2
14175,-27.23
14187,-28.51
14199,-30.43
14211,-33.32
14223,-37.24
14235,-41.86
14246,-46.45
14257,-50.02
14269,-51.52
14281,-50.18
14293,-45.78
14305,-38.65
14317,-29.62
14329,-19.75
14341,-10.11
14353,-1.48
14365,5.62
14377,10.99
14389,14.66
14401,16.73
14413,17.39
14425,16.81
14436,15.24
14447,13.01
14459,10.57
14471,8.37
14483,6.77
14495,5.96
14507,5.87
14519,6.27
14531,6.94
14543,7.66
14555,8.37
14567,9.07
14579,9.73
14591,10.22
14603,10.33
14615,9.88
14626,8.77
14637,7.06
14649,5.0
14661,2.84
14673,0.84
14685,-0.89
14697,-2.36
14709,-3.7
14721,-5.11
14733,-6.72
14745,-8.61
14757,-10.73
14769,-13.0
14781,-15.25
14793,-17.32
14805,-19.12
14816,-20.62
14827,-21.87
14839,-23.07
14851,-24.51
14863,-26.53
14875,-29.35
14887,-32.97
14899,-37.02
14911,-40.77
14923,-43.3
14935,-43.77
14947,-41.62
14959,-36.83
14971,-29.86
14983,-21.53
14995,-12.74
15006,-4.36
15017,2.96
15029,8.83
15041,13.07
15053,15.71
15065,16.96
15077,17.13
15089,16.58
15101,15.62
15113,14.49
15125,13.33
15137,12.25
15149,11.3
15161,10.55
15173,10.05
15185,9.87
15196,10.06
15207,10.65
15219,11.63
15231,12.86
15243,14.07
15255,14.91
15267,15.05
15279,14.33
15291,12.86
15303,10.9
15315,8.81
15327,6.84
15339,5.02
15351,3.24
15363,1.33
15375,-0.83
15386,-3.28
15397,-5.93
15409,-8.69
15421,-11.48
15433,-14.14
15445,-16.53
15457,-18.48
15469,-19.93
15481,-20.99
15493,-22.05
15505,-23.59
15517,-26.01
15529,-29.29
15541,-32.89
15553,-35.81
15565,-36.91
15576,-35.36
15587,-30.85
15599,-23.74
15611,-14.83
15623,-5.06
15635,4.69
15647,13.81
15659,21.94
15671,28.98
15683,34.96
15695,40.01
15707,44.34
15719,48.14
15731,51.6
15743,54.81
15755,57.85
15766,60.74
15777,63.52
15789,66.35
15801,69.39
15813,72.82
15825,76.78
15837,81.29
15849,86.27
15861,91.55
15873,96.86
15885,101.86
15897,106.17
15909,109.47
15921,111.49
15933,112.02
15945,110.95
15956,108.23
15967,103.84
15979,97.88
15991,90.6
16003,82.39
16015,73.78
16027,65.37
16039,57.71
16051,51.19
16063,46.01
16075,42.06
16087,39.05
16099,36.52
16111,33.99
16123,31.13
16135,27.9
16146,24.71
16157,22.28
16169,21.53
16181,23.17
16193,27.44
16205,34.04
16217,42.12
16229,50.52
16241,58.1
16253,63.99
16265,67.84
16277,69.79
16289,70.42
16301,70.54
16313,70.76
16325,71.19
16336,71.19
16347,69.39
16359,64.13
16371,54.01
16383,38.46
16395,17.94
16407,-6.18
16419,-32.13
16431,-58.19
16443,-83.1
16455,-106.08
16467,-126.77
16479,-145.03
16491,-160.83
16503,-174.25
16515,-185.46
16526,-194.66
16537,-202.04
16549,-207.71
16561,-211.69
16573,-213.97
16585,-214.62
16597,-213.76
16609,-211.65
16621,-208.66
16633,-205.17
16645,-201.59
16657,-198.22
16669,-195.22
16681,-192.47
16693,-189.51
16705,-185.66
16716,-180.1
16727,-172.12
16739,-161.44
16751,-148.28
16763,-133.32
16775,-117.53
16787,-101.79
16799,-86.73
16811,-72.67
16823,-59.79
16835,-48.33
16847,-38.66
16859,-31.23
16871,-26.27
16883,-23.53
16895,-22.28
16906,-21.41
16917,-19.92
16929,-17.23
16941,-13.31
16953,-8.63
16965,-3.82
16977,0.53
16989,4.09
17001,6.66
17013,8.15
17025,8.47
17037,7.56
17049,5.43
17061,2.25
17073,-1.77
17085,-6.36
17096,-11.31
17107,-16.46
17119,-21.72
17131,-27.05
17143,-32.47
17155,-38.1
17167,-44.08
17179,-50.38
17191,-56.65
17203,-62.1
17215,-65.75
17227,-66.63
17239,-64.21
17251,-58.64
17263,-50.66
17275,-41.38
17286,-31.93
17297,-23.15
17309,-15.48
17321,-9.06
17333,-3.84
17345,0.3
17357,3.46
17369,5.81
17381,7.49
17393,8.67
17405,9.45
17417,9.85
17429,9.82
17441,9.32
17453,8.41
17465,7.31
17476,6.38
17487,5.95
17499,6.2
17511,7.05
17523,8.19
17535,9.12
17547,9.36
17559,8.56
17571,6.64
17583,3.79
17595,0.34
17607,-3.28
17619,-6.73
17631,-9.84
17643,-12.67
17655,-15.5
17666,-18.77
17677,-22.92
17689,-28.15
17701,-34.27
17713,-40.53
17725,-45.71
17737,-48.37
17749,-47.19
17761,-41.42
17773,-31.11
17785,-17.16
17797,-1.05
17809,15.6
17821,31.45
17833,45.61
17845,57.85
17856,68.23
17867,76.93
17879,84.02
17891,89.49
17903,93.26
17915,95.41
17927,96.27
17939,96.35
17951,96.21
17963,96.28
17975,96.76
17987,97.6
17999,98.62
18011,99.58
18023,100.36
18035,100.91
18046,101.25
18057,101.4
18069,101.3
18081,100.9
18093,100.13
18105,99.08
18117,97.9
18129,96.65
18141,95.04
18153,92.23
18165,86.86
18177,77.32
18189,62.19
18201,40.68
18213,12.81
18225,-20.57
18236,-57.9
18247,-97.0
18259,-135.13
18271,-169.05
18283,-195.35
18295,-210.98
18307,-214.08
18319,-204.49
18331,-184.02
18343,-155.97
18355,-124.29
18367,-92.63
18379,-63.64
18391,-38.73
18403,-18.29
18415,-2.1
18426,10.33
18437,19.55
18449,26.1
18461,30.61
18473,33.71
18485,35.91
18497,37.64
18509,39.1
18521,40.42
18533,41.67
18545,42.93
18557,44.35
18569,46.01
18581,47.99
18593,50.18
18605,52.35
18616,54.13
18627,55.06
18639,54.75
18651,52.96
18663,49.71
18675,45.27
18687,40.02
18699,34.36
18711,28.55
18723,22.68
18735,16.64
18747,10.26
18759,3.34
18771,-4.26
18783,-12.41
18795,-20.56
18806,-27.75
18817,-32.66
18829,-33.96
18841,-30.71
18853,-22.71
18865,-10.54
18877,4.52
18889,20.9
18901,37.07
18913,51.83
18925,64.31
18937,73.98
18949,80.52
18961,83.87
18973,84.17
18985,81.87
18996,77.71
19007,72.51
19019,67.1
19031,62.04
19043,57.63
19055,53.9
19067,50.72
19079,47.96
19091,45.51
19103,43.29
19115,41.29
19127,39.54
19139,38.03
19151,36.65
19163,35.17
19175,33.23
19186,30.44
19197,26.57
19209,21.63
19221,15.89
19233,9.74
19245,3.51
19257,-2.61
19269,-8.72
19281,-15.07
19293,-21.94
19305,-29.37
19317,-37.07
19329,-44.29
19341,-49.94
19353,-52.8
19365,-51.86
19376,-46.65
19387,-37.43
19399,-25.1
19411,-10.96
19423,3.64
19435,17.56
19447,30.04
19459,40.6
19471,48.97
19483,55.03
19495,58.71
19507,60.13
19519,59.61
19531,57.67
19543,54.96
19555,52.12
19566,49.59
19577,47.51
19589,45.76
19601,44.13
19613,42.39
19625,40.46
19637,38.44
19649,36.47
19661,34.69
19673,33.07
19685,31.41
19697,29.37
19709,26.55
19721,22.69
19733,17.77
19745,12.09
19756,6.13
19767,0.39
19779,-4.79
19791,-9.43
19803,-13.81
19815,-18.35
19827,-23.45
19839,-29.24
19851,-35.56
19863,-41.85
19875,-47.26
19887,-50.7
19899,-51.13
19911,-47.8
19923,-40.55
19935,-29.9
19946,-17.03
19957,-3.42
19969,9.5
19981,20.71
19993,29.75
20005,36.55
20017,41.24
20029,43.98
20041,44.88
20053,44.08
20065,41.89
20077,38.85
20089,35.66
20101,32.91
20113,30.97
20125,29.85
20136,29.25
20147,28.76
20159,28.1
20171,27.18
20183,26.09
20195,24.95
20207,23.81
20219,22.58
20231,21.05
20243,19.04
20255,16.43
20267,13.17
20279,9.35
20291,5.1
20303,0.6
20315,-3.94
20326,-8.35
20337,-12.53
20349,-16.49
20361,-20.45
20373,-24.75
20385,-29.7
20397,-35.5
20409,-41.91
20421,-48.26
20433,-53.45
20445,-56.24
20457,-55.61
20469,-51.04
20481,-42.81
20493,-31.84
20505,-19.43
20516,-6.9
20527,4.72
20539,14.82
20551,23.06
20563,29.3
20575,33.44
20587,35.44
20599,35.44
20611,33.8
20623,31.04
20635,27.8
20647,24.61
20659,21.86
20671,19.69
20683,18.05
20695,16.85
20706,15.97
20717,15.36
20729,15.05
20741,15.08
20753,15.33
20765,15.57
20777,15.43
20789,14.58
20801,12.8
20813,10.15
20825,6.93
20837,3.5
20849,0.24
20861,-2.67
20873,-5.2
20885,-7.53
20896,-9.95
20907,-12.8
20919,-16.4
20931,-20.98
20943,-26.48
20955,-32.43
20967,-37.93
20979,-41.89
20991,-43.25
