seconds,BVP
8,-33.84
20,-31.49
32,-29.01
44,-26.55
56,-24.25
68,-22.2
80,-20.38
92,-18.67
104,-16.94
116,-15.1
128,-13.13
140,-11.12
152,-9.26
163,-7.76
174,-6.79
186,-6.37
198,-6.42
210,-6.72
222,-7.03
234,-7.13
246,-6.92
258,-6.43
270,-5.84
282,-5.4
294,-5.35
306,-5.89
318,-7.05
330,-8.7
342,-10.54
353,-12.17
364,-13.19
376,-13.39
388,-12.73
400,-11.46
412,-9.92
424,-8.45
436,-7.27
448,-6.44
460,-5.9
472,-5.51
484,-5.19
496,-4.87
508,-4.53
520,-4.09
532,-3.48
543,-2.57
554,-1.25
566,0.48
578,2.54
590,4.77
602,6.95
614,8.92
626,10.54
638,11.74
650,12.48
662,12.78
674,12.65
686,12.1
698,11.12
710,9.71
722,7.9
733,5.77
744,3.52
756,1.39
768,-0.36
780,-1.53
792,-2.03
804,-1.89
816,-1.17
828,-0.02
840,1.46
852,3.19
864,5.07
876,7.07
888,9.23
900,11.71
912,14.66
923,18.18
934,22.15
946,26.31
958,30.25
970,33.6
982,36.15
994,37.78
1006,38.52
1018,38.35
1030,37.18
1042,34.91
1054,31.49
1066,27.0
1078,21.68
1090,15.92
1102,10.17
1113,4.81
1124,0.16
1136,-3.69
1148,-6.79
1160,-9.32
1172,-11.5
1184,-13.49
1196,-15.3
1208,-16.8
1220,-17.85
1232,-18.23
1244,-17.92
1256,-17.02
1268,-15.78
1280,-14.5
1292,-13.36
1303,-12.35
1314,-11.2
1326,-9.52
1338,-6.91
1350,-3.19
1362,1.54
1374,6.87
1386,12.24
1398,17.07
1410,20.89
1422,23.46
1434,24.76
1446,25.01
1458,24.55
1470,23.75
1482,22.92
1493,22.18
1504,21.51
1516,20.74
1528,19.66
1540,18.09
1552,15.91
1564,13.05
1576,9.53
1588,5.51
1600,1.2
1612,-3.07
1624,-7.0
1636,-10.37
1648,-13.17
1660,-15.45
1672,-17.36
1683,-18.97
1694,-20.32
1706,-21.4
1718,-22.22
1730,-22.76
1742,-22.95
1754,-22.67
1766,-21.77
1778,-20.22
1790,-18.11
1802,-15.72
1814,-13.45
1826,-11.7
1838,-10.67
1850,-10.36
1862,-10.54
1873,-10.82
1884,-10.82
1896,-10.27
1908,-9.1
1920,-7.46
1932,-5.61
1944,-3.83
1956,-2.3
1968,-1.09
1980,-0.18
1992,0.5
2004,1.08
2016,1.81
2028,2.96
2040,4.82
2052,7.51
2063,10.85
2074,14.41
2086,17.57
2098,19.76
2110,20.66
2122,20.23
2134,18.64
2146,16.18
2158,13.13
2170,9.77
2182,6.41
2194,3.39
2206,1.01
2218,-0.56
2230,-1.39
2242,-1.75
2253,-1.96
2264,-2.24
2276,-2.61
2288,-2.93
2300,-2.94
2312,-2.52
2324,-1.66
2336,-0.55
2348,0.53
2360,1.31
2372,1.64
2384,1.46
2396,0.81
2408,-0.17
2420,-1.32
2432,-2.5
2443,-3.62
2454,-4.68
2466,-5.71
2478,-6.78
2490,-7.89
2502,-8.95
2514,-9.75
2526,-10.0
2538,-9.39
2550,-7.67
2562,-4.79
2574,-0.96
2586,3.35
2598,7.54
2610,11.03
2622,13.47
2633,14.82
2644,15.33
2656,15.39
2668,15.31
2680,15.27
2692,15.24
2704,15.15
2716,14.95
2728,14.67
2740,14.39
2752,14.14
2764,13.87
2776,13.48
2788,12.9
2800,12.15
2812,11.37
2823,10.74
2834,10.33
2846,10.14
2858,10.01
2870,9.74
2882,9.22
2894,8.39
2906,7.32
2918,6.14
2930,4.97
2942,3.88
2954,2.91
2966,2.01
2978,1.05
2990,-0.1
3002,-1.58
3013,-3.44
3024,-5.64
3036,-7.94
3048,-9.92
3060,-11.06
3072,-10.96
3084,-9.49
3096,-6.92
3108,-3.8
3120,-0.76
3132,1.69
3144,3.32
3156,4.1
3168,4.17
3180,3.62
3192,2.56
3203,1.11
3214,-0.46
3226,-1.86
3238,-2.82
3250,-3.24
3262,-3.13
3274,-2.62
3286,-1.85
3298,-0.86
3310,0.25
3322,1.32
3334,2.16
3346,2.58
3358,2.51
3370,2.14
3382,1.73
3393,1.52
3404,1.64
3416,1.99
3428,2.33
3440,2.43
3452,2.14
3464,1.47
3476,0.48
3488,-0.7
3500,-1.92
3512,-3.06
3524,-4.03
3536,-4.79
3548,-5.35
3560,-5.82
3572,-6.34
3583,-7.06
3594,-8.02
3606,-9.11
3618,-10.02
3630,-10.34
3642,-9.66
3654,-7.61
3666,-4.07
3678,0.79
3690,6.52
3702,12.45
3714,17.85
3726,22.15
3738,25.06
3750,26.65
3762,27.24
3773,27.24
3784,27.08
3796,27.03
3808,27.25
3820,27.79
3832,28.53
3844,29.26
3856,29.72
3868,29.63
3880,28.82
3892,27.3
3904,25.26
3916,23.01
3928,20.85
3940,18.91
3952,17.13
3963,15.33
3974,13.23
3986,10.59
3998,7.28
4010,3.25
4022,-1.45
4034,-6.66
4046,-12.13
4058,-17.59
4070,-22.79
4082,-27.58
4094,-31.97
4106,-36.1
4118,-40.21
4130,-44.48
4142,-48.94
4153,-53.4
4164,-57.52
4176,-60.89
4188,-63.2
4200,-64.38
4212,-64.61
4224,-64.27
4236,-63.78
4248,-63.32
4260,-62.72
4272,-61.4
4284,-58.53
4296,-53.39
4308,-45.58
4320,-35.25
4332,-23.07
4343,-10.03
4354,2.75
4366,14.32
4378,23.98
4390,31.38
4402,36.46
4414,39.4
4426,40.49
4438,40.05
4450,38.29
4462,35.34
4474,31.27
4486,26.25
4498,20.62
4510,15.0
4522,10.18
4533,6.92
4544,5.82
4556,7.15
4568,10.86
4580,16.65
4592,24.14
4604,32.9
4616,42.56
4628,52.72
4640,62.92
4652,72.61
4664,81.05
4676,87.41
4688,90.91
4700,91.05
4712,87.87
4723,82.02
4734,74.69
4746,67.37
4758,61.35
4770,57.48
4782,55.89
4794,56.08
4806,57.07
4818,57.59
4830,56.24
4842,51.69
4854,42.84
4866,29.2
4878,11.11
4890,-10.07
4902,-32.1
4913,-52.46
4924,-68.98
4936,-80.33
4948,-86.23
4960,-87.16
4972,-83.85
4984,-76.87
4996,-66.61
5008,-53.37
5020,-37.7
5032,-20.47
5044,-2.76
5056,14.46
5068,30.48
5080,44.84
5092,57.01
5103,66.1
5114,70.87
5126,70.02
5138,62.82
5150,49.58
5162,31.8
5174,11.8
5186,-7.92
5198,-25.45
5210,-39.88
5222,-51.21
5234,-59.99
5246,-66.76
5258,-71.71
5270,-74.67
5282,-75.34
5293,-73.61
5304,-69.75
5316,-64.39
5328,-58.22
5340,-51.79
5352,-45.33
5364,-38.81
5376,-32.07
5388,-24.96
5400,-17.51
5412,-9.89
5424,-2.42
5436,4.49
5448,10.54
5460,15.51
5472,19.42
5483,22.45
5494,24.85
5506,26.82
5518,28.41
5530,29.37
5542,29.25
5554,27.53
5566,23.87
5578,18.33
5590,11.44
5602,4.04
5614,-2.9
5626,-8.58
5638,-12.62
5650,-15.0
5662,-16.01
5673,-16.09
5684,-15.66
5696,-15.09
5708,-14.64
5720,-14.5
5732,-14.7
5744,-15.15
5756,-15.59
5768,-15.71
5780,-15.25
5792,-14.16
5804,-12.63
5816,-11.01
5828,-9.68
5840,-8.87
5852,-8.68
5863,-9.01
5874,-9.67
5886,-10.46
5898,-11.17
5910,-11.69
5922,-11.97
5934,-12.05
5946,-12.13
5958,-12.41
5970,-13.1
5982,-14.23
5994,-15.68
6006,-17.16
6018,-18.41
6030,-19.25
6042,-19.69
6053,-19.92
6064,-20.24
6076,-20.88
6088,-21.96
6100,-23.32
6112,-24.62
6124,-25.28
6136,-24.71
6148,-22.5
6160,-18.62
6172,-13.44
6184,-7.69
6196,-2.22
6208,2.21
6220,5.15
6232,6.54
6243,6.62
6254,5.83
6266,4.61
6278,3.35
6290,2.31
6302,1.59
6314,1.27
6326,1.36
6338,1.86
6350,2.74
6362,3.86
6374,5.0
6386,5.95
6398,6.6
6410,6.94
6422,7.06
6433,7.06
6444,6.94
6456,6.59
6468,5.88
6480,4.8
6492,3.43
6504,2.01
6516,0.78
6528,-0.13
6540,-0.72
6552,-1.07
6564,-1.28
6576,-1.39
6588,-1.42
6600,-1.37
6612,-1.31
6623,-1.37
6634,-1.74
6646,-2.57
6658,-3.91
6670,-5.74
6682,-7.91
6694,-10.31
6706,-12.79
6718,-15.12
6730,-16.99
6742,-17.96
6754,-17.56
6766,-15.57
6778,-12.11
6790,-7.7
6802,-3.11
6813,0.91
6824,3.89
6836,5.68
6848,6.47
6860,6.56
6872,6.19
6884,5.5
6896,4.62
6908,3.68
6920,2.83
6932,2.29
6944,2.2
6956,2.65
6968,3.57
6980,4.81
6992,6.11
7003,7.2
7014,7.83
7026,7.87
7038,7.35
7050,6.4
7062,5.22
7074,3.95
7086,2.66
7098,1.38
7110,0.13
7122,-1.05
7134,-2.09
7146,-2.93
7158,-3.57
7170,-4.03
7182,-4.32
7193,-4.45
7204,-4.37
7216,-4.11
7228,-3.71
7240,-3.28
7252,-2.93
7264,-2.76
7276,-2.85
7288,-3.25
7300,-4.02
7312,-5.12
7324,-6.35
7336,-7.34
7348,-7.62
7360,-6.83
7372,-4.82
7383,-1.77
7394,1.82
7406,5.41
7418,8.56
7430,11.1
7442,13.09
7454,14.72
7466,16.15
7478,17.41
7490,18.43
7502,19.09
7514,19.31
7526,19.15
7538,18.73
7550,18.16
7562,17.48
7573,16.62
7584,15.45
7596,13.92
7608,12.1
7620,10.2
7632,8.52
7644,7.28
7656,6.49
7668,5.96
7680,5.33
7692,4.21
7704,2.36
7716,-0.23
7728,-3.28
7740,-6.29
7752,-8.64
7763,-9.63
7774,-8.68
7786,-5.38
7798,0.36
7810,8.14
7822,17.01
7834,25.52
7846,31.99
7858,34.92
7870,33.52
7882,28.07
7894,19.8
7906,10.47
7918,1.68
7930,-5.68
7942,-11.59
7953,-16.63
7964,-21.52
7976,-26.73
7988,-32.51
8000,-38.97
8012,-46.25
8024,-54.33
8036,-62.7
8048,-70.03
8060,-74.17
8072,-72.69
8084,-63.7
8096,-46.6
8108,-22.31
8120,7.01
8132,38.62
8143,69.93
8154,98.86
8166,123.88
8178,143.76
8190,157.4
8202,163.79
8214,162.27
8226,152.81
8238,136.21
8250,113.98
8262,88.03
8274,60.19
8286,31.81
8298,3.74
8310,-23.6
8322,-49.88
8333,-74.71
8344,-97.6
8356,-118.05
8368,-135.69
8380,-150.23
8392,-161.45
8404,-168.96
8416,-172.16
8428,-170.38
8440,-162.99
8452,-149.68
8464,-130.66
8476,-106.68
8488,-78.97
8500,-48.99
8512,-18.2
8523,12.19
8534,41.26
8546,68.34
8558,92.77
8570,113.65
8582,129.76
8594,139.72
8606,142.43
8618,137.58
8630,125.92
8642,109.14
8654,89.4
8666,68.76
8678,48.65
8690,29.8
8702,12.46
8713,-3.29
8724,-17.25
8736,-29.08
8748,-38.46
8760,-45.35
8772,-50.09
8784,-53.4
8796,-56.18
8808,-59.26
8820,-63.3
8832,-68.55
8844,-74.89
8856,-81.76
8868,-88.21
8880,-92.97
8892,-94.73
8903,-92.37
8914,-85.19
8926,-73.17
8938,-56.91
8950,-37.5
8962,-16.29
8974,5.4
8986,26.44
8998,45.98
9010,63.42
9022,78.34
9034,90.31
9046,98.91
9058,103.75
9070,104.59
9082,101.5
9093,94.99
9104,85.92
9116,75.21
9128,63.7
9140,51.89
9152,40.04
9164,28.33
9176,17.07
9188,6.72
9200,-2.12
9212,-8.98
9224,-13.67
9236,-16.2
9248,-16.75
9260,-15.45
9272,-12.47
9283,-8.07
9294,-2.8
9306,2.57
9318,7.39
9330,11.15
9342,13.51
9354,14.42
9366,14.05
9378,12.74
9390,10.97
9402,9.29
9414,8.34
9426,8.84
9438,11.3
9450,15.77
9462,21.97
9473,29.46
9484,37.89
9496,47.01
9508,56.48
9520,65.72
9532,74.14
9544,80.78
9556,84.28
9568,83.39
9580,77.4
9592,66.31
9604,51.01
9616,32.69
9628,13.09
9640,-4.74
9652,-17.95
9663,-24.98
9674,-25.19
9686,-19.01
9698,-7.77
9710,6.64
9722,21.23
9734,33.2
9746,42.64
9758,50.28
9770,56.18
9782,60.91
9794,65.08
9806,69.06
9818,72.84
9830,74.6
9842,72.4
9853,68.34
9864,64.86
9876,62.84
9888,63.14
9900,66.09
9912,70.98
9924,76.05
9936,76.96
9948,69.09
9960,53.24
9972,30.96
9984,2.35
9996,-31.5
10008,-68.76
10020,-107.25
10032,-132.41
10043,-130.67
10054,-119.79
10066,-111.24
10078,-101.22
10090,-89.69
10102,-76.94
10114,-63.42
10126,-49.74
10138,-37.0
10150,-29.02
10162,-30.47
10174,-41.08
10186,-59.38
10198,-83.76
10210,-109.45
10222,-129.73
10233,-138.3
10244,-132.08
10256,-114.46
10268,-93.68
10280,-76.42
10292,-68.31
10304,-72.78
10316,-88.37
10328,-110.34
10340,-133.49
10352,-154.45
10364,-173.33
10376,-191.62
10388,-208.07
10400,-219.99
10412,-224.92
10423,-220.84
10434,-207.48
10446,-186.72
10458,-161.67
10470,-135.53
10482,-110.03
10494,-84.23
10506,-56.53
10518,-26.12
10530,7.02
10542,42.14
10554,77.81
10566,112.04
10578,142.11
10590,165.0
10602,178.35
10613,180.9
10624,172.91
10636,156.45
10648,134.7
10660,110.75
10672,86.83
10684,63.94
10696,42.39
10708,22.38
10720,4.45
10732,-10.54
10744,-21.9
10756,-29.5
10768,-33.96
10780,-36.35
10792,-37.74
10803,-38.84
10814,-39.83
10826,-40.48
10838,-40.48
10850,-39.71
10862,-38.3
10874,-36.63
10886,-35.09
10898,-33.93
10910,-33.17
10922,-32.61
10934,-32.0
10946,-31.15
10958,-30.04
10970,-28.89
10982,-28.08
10993,-27.98
11004,-28.71
11016,-29.94
11028,-30.88
11040,-30.48
11052,-27.84
11064,-22.61
11076,-15.24
11088,-6.85
11100,1.21
11112,7.79
11124,12.31
11136,14.85
11148,15.85
11160,15.84
11172,15.16
11183,13.88
11194,11.96
11206,9.32
11218,6.08
11230,2.5
11242,-1.02
11254,-4.13
11266,-6.52
11278,-8.11
11290,-8.98
11302,-9.24
11314,-8.91
11326,-7.85
11338,-5.71
11350,-2.14
11362,3.07
11373,9.9
11384,18.03
11396,26.95
11408,36.16
11420,45.27
11432,54.04
11444,62.33
11456,70.0
11468,76.82
11480,82.5
11492,86.78
11504,89.44
11516,90.51
11528,90.2
11540,88.87
11552,86.88
11563,84.44
11574,81.57
11586,78.08
11598,73.75
11610,68.45
11622,62.27
11634,55.39
11646,48.03
11658,40.37
11670,32.56
11682,24.87
11694,17.73
11706,11.71
11718,7.29
11730,4.72
11742,3.79
11753,4.1
11764,5.18
11776,6.84
11788,9.12
11800,12.16
11812,15.96
11824,20.18
11836,24.29
11848,27.71
11860,30.17
11872,31.83
11884,33.24
11896,35.08
11908,37.84
11920,41.62
11932,46.02
11943,50.3
11954,53.57
11966,55.11
11978,54.53
11990,51.86
12002,47.52
12014,42.19
12026,36.64
12038,31.67
12050,28.02
12062,26.26
12074,26.79
12086,29.66
12098,34.5
12110,40.59
12122,46.91
12133,52.38
12144,56.03
12156,57.22
12168,55.72
12180,51.67
12192,45.49
12204,37.74
12216,29.0
12228,19.73
12240,10.32
12252,0.98
12264,-8.05
12276,-16.54
12288,-24.11
12300,-30.3
12312,-34.66
12323,-36.94
12334,-37.21
12346,-35.95
12358,-33.93
12370,-32.01
12382,-30.96
12394,-31.13
12406,-32.43
12418,-34.34
12430,-36.09
12442,-36.99
12454,-36.65
12466,-35.07
12478,-32.6
12490,-29.75
12502,-26.89
12513,-24.15
12524,-21.33
12536,-18.07
12548,-14.1
12560,-9.31
12572,-3.75
12584,2.54
12596,9.66
12608,17.89
12620,27.54
12632,38.82
12644,51.62
12656,65.39
12668,79.19
12680,91.77
12692,101.83
12703,108.26
12714,110.35
12726,107.96
12738,101.5
12750,91.75
12762,79.71
12774,66.53
12786,53.42
12798,41.57
12810,31.74
12822,23.8
12834,16.52
12846,7.86
12858,-4.18
12870,-20.47
12882,-40.22
12893,-61.29
12904,-81.19
12916,-98.09
12928,-111.31
12940,-120.92
12952,-127.05
12964,-129.34
12976,-127.1
12988,-120.05
13000,-109.01
13012,-96.04
13024,-83.69
13036,-73.97
13048,-67.55
13060,-63.78
13072,-61.22
13083,-58.45
13094,-54.85
13106,-50.66
13118,-46.74
13130,-44.08
13142,-43.38
13154,-44.91
13166,-48.58
13178,-54.09
13190,-61.07
13202,-69.19
13214,-78.04
13226,-87.12
13238,-95.76
13250,-103.24
13262,-108.98
13273,-112.62
13284,-114.16
13296,-113.74
13308,-111.54
13320,-107.49
13332,-101.29
13344,-92.56
13356,-81.06
13368,-66.95
13380,-50.89
13392,-33.85
13404,-17.01
13416,-1.46
13428,11.83
13440,22.08
13452,28.72
13463,31.61
13474,31.08
13486,28.04
13498,23.69
13510,19.07
13522,14.72
13534,10.45
13546,5.64
13558,-0.25
13570,-7.12
13582,-14.05
13594,-19.52
13606,-22.06
13618,-20.94
13630,-16.45
13642,-9.8
13653,-2.62
13664,3.73
13676,8.55
13688,11.88
13700,14.2
13712,16.09
13724,17.84
13736,19.46
13748,20.79
13760,21.66
13772,22.1
13784,22.23
13796,22.22
13808,22.15
13820,22.03
13832,21.78
13843,21.41
13854,20.99
13866,20.68
13878,20.72
13890,21.22
13902,22.18
13914,23.38
13926,24.52
13938,25.27
13950,25.49
13962,25.2
13974,24.58
13986,23.87
13998,23.17
14010,22.42
14022,21.41
14033,19.94
14044,17.99
14056,15.7
14068,13.4
14080,11.41
14092,9.98
14104,9.17
14116,8.94
14128,9.11
14140,9.47
14152,9.78
14164,9.8
14176,9.45
14188,8.79
14200,8.13
14212,7.93
14223,8.62
14234,10.44
14246,13.35
14258,16.97
14270,20.79
14282,24.32
14294,27.15
14306,29.1
14318,30.13
14330,30.28
14342,29.62
14354,28.25
14366,26.3
14378,23.97
14390,21.55
14402,19.32
14413,17.54
14424,16.41
14436,16.02
14448,16.38
14460,17.39
14472,18.87
14484,20.59
14496,22.33
14508,23.91
14520,25.22
14532,26.17
14544,26.74
14556,26.9
14568,26.66
14580,26.05
14592,25.19
14603,24.29
14614,23.53
14626,23.03
14638,22.72
14650,22.4
14662,21.8
14674,20.69
14686,19.02
14698,16.96
14710,14.81
14722,12.82
14734,11.07
14746,9.39
14758,7.45
14770,4.97
14782,1.85
14793,-1.7
14804,-5.21
14816,-8.12
14828,-10.01
14840,-10.68
14852,-10.17
14864,-8.71
14876,-6.65
14888,-4.34
14900,-2.2
14912,-0.58
14924,0.26
14936,0.23
14948,-0.56
14960,-1.85
14972,-3.3
14983,-4.59
14994,-5.47
15006,-5.71
15018,-5.11
15030,-3.57
15042,-1.09
15054,2.17
15066,5.85
15078,9.57
15090,12.95
15102,15.77
15114,17.98
15126,19.56
15138,20.53
15150,20.82
15162,20.29
15173,18.81
15184,16.28
15196,12.78
15208,8.51
15220,3.82
15232,-0.94
15244,-5.44
15256,-9.46
15268,-12.93
15280,-15.96
15292,-18.75
15304,-21.56
15316,-24.5
15328,-27.42
15340,-29.77
15352,-30.68
15363,-29.19
15374,-24.6
15386,-16.78
15398,-6.31
15410,5.61
15422,17.61
15434,28.48
15446,37.45
15458,44.34
15470,49.33
15482,52.83
15494,55.23
15506,56.8
15518,57.73
15530,58.19
15542,58.33
15553,58.37
15564,58.42
15576,58.49
15588,58.34
15600,57.58
15612,55.77
15624,52.62
15636,48.11
15648,42.45
15660,35.99
15672,29.01
15684,21.65
15696,13.9
15708,5.79
15720,-2.48
15732,-10.46
15743,-17.58
15754,-23.37
15766,-27.55
15778,-30.1
15790,-31.21
15802,-31.01
15814,-29.47
15826,-26.41
15838,-21.64
15850,-15.16
15862,-7.29
15874,1.54
15886,10.92
15898,20.67
15910,30.89
15922,41.75
15933,53.24
15944,64.93
15956,76.07
15968,85.71
15980,93.04
15992,97.57
16004,99.09
16016,97.6
16028,93.14
16040,85.69
16052,75.35
16064,62.4
16076,47.42
16088,31.21
16100,14.66
16112,-1.44
16123,-16.47
16134,-30.12
16146,-42.26
16158,-52.87
16170,-61.92
16182,-69.41
16194,-75.4
16206,-80.05
16218,-83.77
16230,-87.07
16242,-90.5
16254,-94.38
16266,-98.63
16278,-102.76
16290,-105.86
16302,-107.0
16313,-105.49
16324,-101.22
16336,-94.69
16348,-86.85
16360,-78.73
16372,-71.13
16384,-64.37
16396,-58.28
16408,-52.3
16420,-45.81
16432,-38.26
16444,-29.44
16456,-19.61
16468,-9.37
16480,0.38
16492,8.74
16503,15.09
16514,19.24
16526,21.37
16538,21.94
16550,21.43
16562,20.14
16574,18.17
16586,15.52
16598,12.22
16610,8.49
16622,4.65
16634,1.05
16646,-2.06
16658,-4.6
16670,-6.64
16682,-8.33
16693,-9.81
16704,-11.14
16716,-12.31
16728,-13.29
16740,-14.13
16752,-14.98
16764,-16.1
16776,-17.77
16788,-20.11
16800,-23.04
16812,-26.16
16824,-28.93
16836,-30.77
16848,-31.33
16860,-30.55
16872,-28.65
16883,-26.04
16894,-23.11
16906,-20.23
16918,-17.65
16930,-15.53
16942,-13.94
16954,-12.76
16966,-11.58
16978,-9.78
16990,-6.74
17002,-2.06
17014,4.06
17026,10.92
17038,17.47
17050,22.74
17062,26.18
17073,27.8
17084,28.1
17096,27.69
17108,27.02
17120,26.2
17132,25.03
17144,23.22
17156,20.6
17168,17.28
17180,13.64
17192,10.17
17204,7.28
17216,5.15
17228,3.7
17240,2.59
17252,1.42
17263,-0.14
17274,-2.24
17286,-4.82
17298,-7.69
17310,-10.58
17322,-13.31
17334,-15.76
17346,-17.98
17358,-20.08
17370,-22.22
17382,-24.53
17394,-27.04
17406,-29.72
17418,-32.45
17430,-35.1
17442,-37.54
17453,-39.74
17464,-41.77
17476,-43.75
17488,-45.86
17500,-48.11
17512,-50.45
17524,-52.54
17536,-53.9
17548,-53.94
17560,-52.08
17572,-47.86
17584,-41.13
17596,-32.14
17608,-21.49
17620,-10.15
17632,0.84
17643,10.53
17654,18.32
17666,24.0
17678,27.77
17690,30.06
17702,31.35
17714,32.07
17726,32.55
17738,33.03
17750,33.67
17762,34.53
17774,35.6
17786,36.73
17798,37.75
17810,38.51
17822,38.97
17833,39.27
17844,39.61
17856,40.21
17868,41.22
17880,42.6
17892,44.14
17904,45.46
17916,46.01
17928,45.31
17940,43.04
17952,39.17
17964,34.0
17976,28.05
17988,21.86
18000,15.77
18012,9.93
18023,4.23
18034,-1.39
18046,-6.86
18058,-11.88
18070,-16.15
18082,-19.49
18094,-22.01
18106,-24.12
18118,-26.37
18130,-29.26
18142,-33.16
18154,-38.06
18166,-43.69
18178,-49.44
18190,-54.52
18202,-58.14
18213,-59.68
18224,-58.95
18236,-56.31
18248,-52.6
18260,-48.93
18272,-46.29
18284,-45.31
18296,-46.12
18308,-48.46
18320,-51.95
18332,-56.27
18344,-61.38
18356,-67.39
18368,-74.36
18380,-82.25
18392,-90.75
18403,-99.49
18414,-108.19
18426,-116.65
18438,-124.65
18450,-131.73
18462,-136.88
18474,-138.52
18486,-134.71
18498,-123.49
18510,-103.26
18522,-73.19
18534,-33.42
18546,14.7
18558,68.56
18570,124.38
18582,177.65
18593,223.94
18604,259.81
18616,283.53
18628,295.35
18640,297.08
18652,291.42
18664,281.11
18676,268.48
18688,255.09
18700,241.74
18712,228.48
18724,214.73
18736,199.37
18748,181.09
18760,158.81
18772,132.11
18783,101.55
18794,68.64
18806,35.5
18818,4.4
18830,-22.63
18842,-44.31
18854,-60.14
18866,-70.54
18878,-76.64
18890,-79.96
18902,-82.05
18914,-84.14
18926,-86.93
18938,-90.54
18950,-94.61
18962,-98.54
18973,-101.68
18984,-103.56
18996,-103.96
19008,-102.94
19020,-100.86
19032,-98.2
19044,-95.44
19056,-92.89
19068,-90.64
19080,-88.5
19092,-86.14
19104,-83.21
19116,-79.53
19128,-75.1
19140,-70.1
19152,-64.81
19163,-59.5
19174,-54.41
19186,-49.64
19198,-45.22
19210,-41.12
19222,-37.29
19234,-33.74
19246,-30.56
19258,-27.87
19270,-25.84
19282,-24.56
19294,-23.98
19306,-23.96
19318,-24.27
19330,-24.67
19342,-24.95
19353,-24.95
19364,-24.66
19376,-24.13
19388,-23.52
19400,-23.06
19412,-22.95
19424,-23.31
19436,-24.02
19448,-24.68
19460,-24.65
19472,-23.17
19484,-19.71
19496,-14.1
19508,-6.74
19520,1.5
19532,9.57
19543,16.54
19554,21.86
19566,25.47
19578,27.58
19590,28.54
19602,28.6
19614,27.89
19626,26.45
19638,24.44
19650,22.14
19662,19.94
19674,18.19
19686,17.07
19698,16.55
19710,16.44
19722,16.49
19733,16.5
19744,16.38
19756,16.11
19768,15.75
19780,15.37
19792,14.93
19804,14.33
19816,13.46
19828,12.19
19840,10.54
19852,8.59
19864,6.54
19876,4.5
19888,2.56
19900,0.69
19912,-1.11
19923,-2.73
19934,-4.01
19946,-4.79
19958,-5.07
19970,-5.09
19982,-5.24
19994,-5.96
20006,-7.51
20018,-9.81
20030,-12.41
20042,-14.58
20054,-15.49
20066,-14.49
20078,-11.32
20090,-6.23
20102,0.06
20113,6.61
20124,12.49
20136,17.09
20148,20.26
20160,22.16
20172,23.17
20184,23.61
20196,23.66
20208,23.35
20220,22.66
20232,21.59
20244,20.23
20256,18.78
20268,17.43
20280,16.36
20292,15.62
20303,15.21
20314,15.05
20326,15.06
20338,15.15
20350,15.21
20362,15.11
20374,14.74
20386,14.0
20398,12.86
20410,11.37
20422,9.6
20434,7.64
20446,5.56
20458,3.44
20470,1.36
20482,-0.57
20493,-2.21
20504,-3.51
20516,-4.46
20528,-5.18
20540,-5.85
20552,-6.67
20564,-7.85
20576,-9.47
20588,-11.53
20600,-13.77
20612,-15.65
20624,-16.49
20636,-15.64
20648,-12.75
20660,-7.96
20672,-1.87
20683,4.59
20694,10.54
20706,15.33
20718,18.69
20730,20.74
20742,21.75
20754,22.08
20766,22.04
20778,21.79
20790,21.37
20802,20.71
20814,19.72
20826,18.38
20838,16.79
20850,15.19
20862,13.85
20873,12.98
20884,12.63
20896,12.68
20908,12.86
20920,12.92
20932,12.66
20944,12.03
20956,11.05
20968,9.86
20980,8.61
20992,7.4
