seconds,BVP
7,73.92
19,71.06
31,62.8
43,51.03
55,37.69
67,24.34
79,12.05
91,2.03
103,-4.64
115,-7.45
127,-6.7
139,-3.25
150,1.75
161,7.24
173,12.5
185,17.35
197,22.11
209,27.2
221,32.65
233,38.02
245,42.48
257,45.12
269,45.19
281,42.33
293,36.79
305,29.39
317,21.35
329,13.83
340,7.55
351,2.55
363,-1.73
375,-6.07
387,-11.07
399,-16.76
411,-22.68
423,-28.17
435,-32.74
447,-36.33
459,-39.18
471,-41.64
483,-43.92
495,-45.95
507,-47.56
519,-48.7
530,-49.55
541,-50.38
553,-51.26
565,-51.88
577,-51.51
589,-49.3
601,-44.56
613,-37.15
625,-27.49
637,-16.49
649,-5.21
661,5.35
673,14.48
685,21.71
697,26.89
709,30.09
720,31.54
731,31.57
743,30.53
755,28.67
767,26.19
779,23.28
791,20.13
803,17.06
815,14.32
827,12.08
839,10.33
851,8.88
863,7.53
875,6.12
887,4.69
899,3.45
910,2.59
921,2.13
933,1.87
945,1.44
957,0.57
969,-0.84
981,-2.52
993,-4.07
1005,-5.11
1017,-5.5
1029,-5.5
1041,-5.56
1053,-6.09
1065,-7.18
1077,-8.57
1089,-9.7
1100,-9.98
1111,-9.07
1123,-7.01
1135,-4.21
1147,-1.34
1159,0.98
1171,2.39
1183,2.88
1195,2.7
1207,2.26
1219,1.92
1231,1.89
1243,2.25
1255,3.04
1267,4.28
1279,6.02
1290,8.24
1301,10.81
1313,13.49
1325,16.01
1337,18.26
1349,20.35
1361,22.58
1373,25.23
1385,28.38
1397,31.76
1409,34.81
1421,36.99
1433,38.06
1445,38.29
1457,38.29
1469,38.71
1480,39.95
1491,41.88
1503,43.97
1515,45.37
1527,45.21
1539,42.81
1551,37.92
1563,30.87
1575,22.66
1587,14.85
1599,9.23
1611,7.19
1623,8.92
1635,13.32
1647,18.35
1659,21.86
1670,22.48
1681,19.99
1693,15.35
1705,10.01
1717,5.34
1729,1.73
1741,-0.9
1753,-2.58
1765,-3.16
1777,-2.69
1789,-1.87
1801,-2.02
1813,-4.6
1825,-10.48
1837,-20.26
1849,-33.34
1860,-47.72
1871,-60.73
1883,-70.43
1895,-76.48
1907,-80.13
1919,-83.38
1931,-88.15
1943,-96.65
1955,-109.39
1967,-124.05
1979,-135.91
1991,-140.06
2003,-133.76
2015,-117.39
2027,-94.13
2039,-68.66
2050,-47.25
2061,-34.59
2073,-32.06
2085,-38.14
2097,-50.56
2109,-67.99
2121,-89.81
2133,-115.07
2145,-130.99
2157,-127.03
2169,-102.11
2181,-65.76
2193,-29.37
2205,0.37
2217,21.97
2229,37.31
2240,49.62
2251,61.6
2263,72.63
2275,80.64
2287,84.11
2299,83.66
2311,81.11
2323,78.0
2335,75.24
2347,73.22
2359,71.96
2371,70.07
2383,66.31
2395,60.7
2407,54.66
2419,49.77
2430,46.86
2441,46.01
2453,46.72
2465,48.54
2477,50.32
2489,51.12
2501,50.77
2513,49.96
2525,49.44
2537,49.53
2549,50.11
2561,50.97
2573,51.99
2585,52.84
2597,53.48
2609,54.26
2620,55.89
2631,58.94
2643,63.45
2655,69.09
2667,75.36
2679,81.95
2691,88.65
2703,95.48
2715,102.51
2727,109.7
2739,116.75
2751,123.16
2763,128.64
2775,133.33
2787,137.88
2799,143.17
2810,150.11
2821,159.22
2833,170.36
2845,182.49
2857,193.54
2869,200.48
2881,199.88
2893,188.82
2905,165.91
2917,132.1
2929,90.55
2941,45.8
2953,2.28
2965,-36.76
2977,-69.82
2989,-96.72
3000,-117.73
3011,-132.93
3023,-142.14
3035,-145.5
3047,-144.02
3059,-139.77
3071,-135.39
3083,-133.14
3095,-134.03
3107,-137.63
3119,-142.52
3131,-147.16
3143,-150.7
3155,-153.09
3167,-154.72
3179,-155.81
3190,-156.01
3201,-154.37
3213,-149.95
3225,-142.38
3237,-132.16
3249,-120.62
3261,-109.44
3273,-100.06
3285,-93.23
3297,-88.95
3309,-86.6
3321,-85.31
3333,-84.21
3345,-82.49
3357,-79.41
3369,-74.37
3380,-66.97
3391,-57.26
3403,-45.86
3415,-33.92
3427,-22.82
3439,-13.72
3451,-7.22
3463,-3.16
3475,-0.78
3487,0.92
3499,2.77
3511,5.18
3523,8.12
3535,11.29
3547,14.31
3559,16.89
3570,18.82
3581,20.05
3593,20.55
3605,20.34
3617,19.52
3629,18.37
3641,17.27
3653,16.59
3665,16.43
3677,16.4
3689,15.69
3701,13.36
3713,8.83
3725,2.28
3737,-5.3
3749,-12.51
3760,-18.11
3771,-21.57
3783,-23.28
3795,-24.21
3807,-25.45
3819,-27.72
3831,-31.04
3843,-34.9
3855,-38.51
3867,-41.13
3879,-42.31
3891,-41.94
3903,-40.18
3915,-37.36
3927,-33.92
3939,-30.31
3950,-26.97
3961,-24.2
3973,-22.13
3985,-20.7
3997,-19.69
4009,-18.86
4021,-18.1
4033,-17.57
4045,-17.72
4057,-19.18
4069,-22.46
4081,-27.55
4093,-33.72
4105,-39.56
4117,-43.4
4129,-43.84
4140,-40.37
4151,-33.5
4163,-24.59
4175,-15.35
4187,-7.27
4199,-1.25
4211,2.52
4223,4.37
4235,4.98
4247,5.05
4259,5.16
4271,5.6
4283,6.4
4295,7.22
4307,7.65
4319,7.36
4330,6.32
4341,4.82
4353,3.19
4365,1.58
4377,-0.22
4389,-2.67
4401,-6.19
4413,-10.89
4425,-16.38
4437,-21.92
4449,-26.67
4461,-30.14
4473,-32.39
4485,-34.06
4497,-35.99
4509,-38.83
4520,-42.64
4531,-46.88
4543,-50.73
4555,-53.58
4567,-55.31
4579,-56.22
4591,-56.72
4603,-56.9
4615,-56.47
4627,-54.86
4639,-51.56
4651,-46.29
4663,-38.79
4675,-28.75
4687,-15.58
4699,1.0
4710,20.4
4721,40.54
4733,58.17
4745,69.85
4757,73.44
4769,69.12
4781,59.32
4793,47.65
4805,37.25
4817,29.67
4829,24.61
4841,20.71
4853,16.78
4865,12.46
4877,8.44
4889,5.75
4900,5.41
4911,8.3
4923,15.29
4935,27.33
4947,44.94
4959,67.65
4971,93.53
4983,119.59
4995,142.67
5007,160.54
5019,172.31
5031,178.18
5043,178.67
5055,174.04
5067,164.31
5079,149.72
5090,131.17
5101,110.11
5113,88.14
5125,66.38
5137,45.41
5149,25.57
5161,7.36
5173,-8.46
5185,-21.32
5197,-31.31
5209,-39.32
5221,-46.62
5233,-54.12
5245,-61.85
5257,-68.85
5269,-73.81
5280,-75.74
5291,-74.5
5303,-70.68
5315,-65.11
5327,-58.34
5339,-50.39
5351,-40.98
5363,-29.95
5375,-17.66
5387,-4.88
5399,7.49
5411,19.04
5423,30.03
5435,41.21
5447,53.16
5459,65.85
5470,78.58
5481,90.39
5493,100.81
5505,110.21
5517,119.52
5529,129.35
5541,139.31
5553,147.75
5565,152.49
5577,151.91
5589,145.69
5601,134.98
5613,121.72
5625,107.69
5637,93.88
5649,80.46
5660,67.25
5671,54.33
5683,42.35
5695,32.24
5707,24.79
5719,20.11
5731,17.43
5743,15.41
5755,12.64
5767,8.3
5779,2.51
5791,-3.77
5803,-9.29
5815,-13.16
5827,-15.42
5839,-16.97
5850,-19.02
5861,-22.46
5873,-27.36
5885,-33.09
5897,-38.79
5909,-43.95
5921,-48.65
5933,-53.34
5945,-58.47
5957,-64.03
5969,-69.5
5981,-74.06
5993,-77.0
6005,-77.99
6017,-77.27
6029,-75.52
6040,-73.51
6051,-71.95
6063,-71.22
6075,-71.32
6087,-71.92
6099,-72.51
6111,-72.58
6123,-71.83
6135,-70.33
6147,-68.42
6159,-66.64
6171,-65.54
6183,-65.49
6195,-66.54
6207,-68.35
6219,-70.23
6230,-71.29
6241,-70.75
6253,-68.2
6265,-63.84
6277,-58.38
6289,-52.79
6301,-47.95
6313,-44.32
6325,-41.98
6337,-40.67
6349,-40.11
6361,-40.11
6373,-40.7
6385,-42.04
6397,-44.34
6409,-47.79
6420,-52.52
6431,-58.45
6443,-65.27
6455,-72.41
6467,-79.1
6479,-84.59
6491,-88.42
6503,-90.59
6515,-91.72
6527,-92.75
6539,-94.56
6551,-97.29
6563,-99.76
6575,-99.3
6587,-92.4
6599,-75.99
6610,-49.02
6621,-13.43
6633,26.01
6645,63.17
6657,92.58
6669,111.3
6681,119.56
6693,120.03
6705,116.28
6717,111.23
6729,106.44
6741,102.24
6753,98.55
6765,95.42
6777,93.32
6789,92.65
6800,93.26
6811,94.13
6823,93.67
6835,90.25
6847,82.9
6859,71.66
6871,57.4
6883,41.43
6895,24.91
6907,8.65
6919,-6.8
6931,-20.8
6943,-32.41
6955,-40.44
6967,-43.84
6979,-42.21
6990,-36.14
7001,-27.15
7013,-17.35
7025,-8.79
7037,-2.95
7049,-0.48
7061,-1.19
7073,-4.33
7085,-8.9
7097,-13.87
7109,-18.27
7121,-21.27
7133,-22.09
7145,-20.19
7157,-15.4
7169,-8.09
7180,0.8
7191,9.95
7203,17.9
7215,23.49
7227,26.17
7239,26.16
7251,24.32
7263,21.9
7275,20.07
7287,19.49
7299,20.08
7311,20.97
7323,20.89
7335,18.62
7347,13.58
7359,6.15
7370,-2.37
7381,-10.15
7393,-15.48
7405,-17.3
7417,-15.75
7429,-12.1
7441,-8.42
7453,-7.0
7465,-9.64
7477,-17.09
7489,-28.94
7501,-43.85
7513,-60.03
7525,-75.97
7537,-90.78
7549,-104.17
7560,-116.31
7571,-127.33
7583,-137.0
7595,-144.5
7607,-148.62
7619,-148.19
7631,-142.71
7643,-132.81
7655,-120.36
7667,-108.07
7679,-98.59
7691,-93.73
7703,-93.84
7715,-97.71
7727,-102.88
7739,-106.36
7750,-105.23
7761,-97.3
7773,-81.5
7785,-58.1
7797,-28.67
7809,4.21
7821,37.54
7833,68.69
7845,96.15
7857,119.68
7869,139.67
7881,155.88
7893,166.55
7905,168.05
7917,156.11
7929,128.27
7940,86.0
7951,35.27
7963,-14.97
7975,-55.84
7987,-81.61
7999,-91.13
8011,-87.64
8023,-76.63
8035,-63.16
8047,-50.16
8059,-38.17
8071,-26.34
8083,-13.67
8095,0.28
8107,15.76
8119,32.44
8130,49.72
8141,67.14
8153,84.52
8165,101.57
8177,117.65
8189,131.68
8201,142.45
8213,150.18
8225,155.04
8237,156.99
8249,156.42
8261,154.54
8273,152.81
8285,152.15
8297,152.46
8309,152.85
8320,154.36
8331,156.61
8343,157.78
8355,156.36
8367,152.73
8379,148.7
8391,146.08
8403,145.69
8415,147.19
8427,153.08
8439,162.92
8451,173.23
8463,180.31
8475,183.08
8487,182.9
8499,182.0
8510,182.55
8521,186.32
8533,199.14
8545,221.76
8557,248.33
8569,269.7
8581,278.18
8593,269.4
8605,242.64
8617,200.65
8629,120.67
8641,7.34
8653,-111.42
8665,-206.51
8677,-267.55
8689,-298.87
8700,-308.03
8711,-300.47
8723,-280.11
8735,-252.61
8747,-217.21
8759,-177.66
8771,-141.64
8783,-115.61
8795,-100.78
8807,-94.2
8819,-91.88
8831,-91.09
8843,-92.62
8855,-93.15
8867,-92.18
8879,-91.89
8890,-93.87
8901,-97.04
8913,-99.07
8925,-98.46
8937,-95.32
8949,-90.92
8961,-84.22
8973,-75.93
8985,-68.58
8997,-63.68
9009,-60.79
9021,-58.98
9033,-58.16
9045,-59.06
9057,-62.48
9069,-67.03
9080,-71.59
9091,-76.02
9103,-79.03
9115,-78.56
9127,-73.23
9139,-62.52
9151,-45.82
9163,-22.01
9175,10.27
9187,51.29
9199,90.95
9211,116.32
9223,122.0
9235,112.39
9247,96.24
9259,81.0
9270,69.67
9281,60.66
9293,50.32
9305,34.05
9317,12.48
9329,-9.6
9341,-26.62
9353,-35.66
9365,-37.42
9377,-35.6
9389,-35.04
9401,-36.97
9413,-42.96
9425,-51.39
9437,-58.76
9449,-62.11
9460,-60.92
9471,-56.9
9483,-52.75
9495,-50.57
9507,-50.95
9519,-54.0
9531,-57.82
9543,-59.95
9555,-59.15
9567,-56.23
9579,-53.13
9591,-51.61
9603,-52.18
9615,-49.8
9627,-41.81
9639,-28.44
9650,-12.47
9661,2.96
9673,15.51
9685,24.06
9697,28.68
9709,31.1
9721,33.12
9733,35.29
9745,38.02
9757,41.5
9769,45.71
9781,49.59
9793,52.33
9805,53.74
9817,54.44
9829,55.6
9840,57.97
9851,62.05
9863,67.8
9875,74.38
9887,80.14
9899,83.45
9911,83.32
9923,79.93
9935,74.44
9947,68.27
9959,62.9
9971,59.44
9983,58.29
9995,58.86
10007,59.82
10019,59.46
10030,56.26
10041,49.43
10053,39.19
10065,27.09
10077,15.48
10089,6.69
10101,2.05
10113,1.42
10125,3.37
10137,5.87
10149,6.98
10161,5.42
10173,0.76
10185,-6.78
10197,-16.52
10209,-27.56
10220,-38.7
10231,-48.53
10243,-55.64
10255,-59.02
10267,-58.32
10279,-54.14
10291,-47.7
10303,-40.47
10315,-33.51
10327,-27.29
10339,-21.75
10351,-16.78
10363,-12.45
10375,-8.99
10387,-6.63
10399,-5.43
10410,-5.31
10421,-5.98
10433,-7.23
10445,-8.94
10457,-11.22
10469,-14.12
10481,-17.49
10493,-20.94
10505,-23.95
10517,-26.36
10529,-28.15
10541,-29.45
10553,-30.4
10565,-31.22
10577,-32.07
10589,-32.91
10600,-33.65
10611,-34.13
10623,-34.81
10635,-35.96
10647,-37.38
10659,-38.48
10671,-38.77
10683,-38.0
10695,-36.22
10707,-33.82
10719,-31.48
10731,-30.98
10743,-33.26
10755,-37.55
10767,-41.93
10779,-44.54
10790,-44.48
10801,-41.99
10813,-38.46
10825,-35.84
10837,-37.58
10849,-45.19
10861,-57.12
10873,-69.8
10885,-80.02
10897,-86.23
10909,-88.39
10921,-87.48
10933,-84.78
10945,-83.52
10957,-85.52
10969,-90.28
10980,-96.09
10991,-101.76
11003,-106.52
11015,-108.86
11027,-106.27
11039,-83.22
11051,-35.36
11063,26.17
11075,83.31
11087,124.55
11099,147.79
11111,156.72
11123,157.27
11135,154.7
11147,152.13
11159,148.12
11170,140.51
11181,128.71
11193,113.78
11205,96.98
11217,79.2
11229,61.35
11241,44.34
11253,28.97
11265,14.26
11277,-0.31
11289,-13.93
11301,-24.99
11313,-32.6
11325,-37.38
11337,-39.11
11349,-37.79
11360,-33.61
11371,-28.0
11383,-22.21
11395,-16.62
11407,-10.87
11419,-4.92
11431,0.76
11443,5.55
11455,8.67
11467,9.69
11479,8.35
11491,5.3
11503,2.2
11515,1.12
11527,3.14
11539,7.92
11550,14.21
11561,20.31
11573,24.92
11585,27.44
11597,28.31
11609,27.25
11621,25.46
11633,24.27
11645,24.67
11657,27.35
11669,32.38
11681,39.2
11693,46.56
11705,52.43
11717,54.44
11729,51.02
11740,41.79
11751,28.0
11763,12.49
11775,-1.16
11787,-9.55
11799,-10.69
11811,-4.81
11823,5.86
11835,18.6
11847,30.98
11859,41.42
11871,48.99
11883,52.91
11895,52.21
11907,45.73
11919,32.39
11930,12.33
11941,-11.75
11953,-34.92
11965,-51.53
11977,-57.16
11989,-49.99
12001,-31.45
12013,-6.02
12025,19.45
12037,37.68
12049,43.8
12061,36.89
12073,19.77
12085,-2.25
12097,-23.34
12109,-38.84
12120,-45.15
12131,-40.93
12143,-30.33
12155,-20.22
12167,-14.49
12179,-12.43
12191,-10.55
12203,-6.62
12215,-0.15
12227,8.15
12239,17.34
12251,26.22
12263,34.22
12275,41.33
12287,47.33
12299,51.39
12310,52.45
12321,50.06
12333,44.55
12345,36.81
12357,27.98
12369,19.6
12381,13.25
12393,9.75
12405,8.84
12417,9.36
12429,9.89
12441,9.07
12453,5.83
12465,-0.45
12477,-9.46
12489,-19.93
12500,-30.37
12511,-39.62
12523,-47.15
12535,-53.04
12547,-57.83
12559,-62.24
12571,-66.86
12583,-71.66
12595,-76.07
12607,-79.45
12619,-81.42
12631,-81.98
12643,-81.3
12655,-79.49
12667,-76.42
12679,-71.72
12690,-64.97
12701,-56.1
12713,-45.84
12725,-35.71
12737,-27.48
12749,-22.4
12761,-20.6
12773,-20.84
12785,-20.99
12797,-18.89
12809,-13.25
12821,-4.18
12833,7.08
12845,18.71
12857,29.11
12869,37.34
12880,43.17
12891,46.96
12903,49.66
12915,53.01
12927,59.5
12939,71.61
12951,90.37
12963,113.91
12975,137.17
12987,153.13
12999,155.55
13011,141.69
13023,113.63
13035,77.37
13047,40.19
13059,7.76
13070,-17.39
13081,-35.57
13093,-48.2
13105,-56.26
13117,-59.87
13129,-58.82
13141,-53.82
13153,-46.97
13165,-41.22
13177,-39.26
13189,-42.33
13201,-49.72
13213,-59.03
13225,-67.33
13237,-72.18
13249,-72.57
13260,-69.1
13271,-63.65
13283,-58.57
13295,-55.73
13307,-55.91
13319,-58.57
13331,-62.31
13343,-65.5
13355,-66.97
13367,-66.28
13379,-63.57
13391,-59.23
13403,-53.55
13415,-46.63
13427,-38.61
13439,-29.86
13450,-21.03
13461,-12.93
13473,-6.11
13485,-0.65
13497,3.8
13509,7.74
13521,11.46
13533,14.73
13545,16.93
13557,17.36
13569,15.62
13581,11.91
13593,7.13
13605,2.43
13617,-1.21
13629,-3.53
13640,-5.13
13651,-7.2
13663,-10.99
13675,-17.03
13687,-24.82
13699,-32.71
13711,-38.39
13723,-39.57
13735,-34.64
13747,-23.11
13759,-5.77
13771,15.43
13783,37.73
13795,58.03
13807,73.63
13819,82.93
13830,85.88
13841,83.9
13853,79.4
13865,74.81
13877,71.68
13889,70.33
13901,69.98
13913,69.38
13925,67.53
13937,64.16
13949,59.74
13961,55.03
13973,50.71
13985,46.9
13997,43.25
14009,39.19
14020,34.29
14031,28.52
14043,22.39
14055,16.71
14067,12.33
14079,9.97
14091,10.09
14103,12.97
14115,18.62
14127,26.6
14139,35.92
14151,44.97
14163,51.74
14175,54.23
14187,51.02
14199,41.71
14210,27.06
14221,8.78
14233,-11.04
14245,-30.26
14257,-47.09
14269,-60.17
14281,-68.68
14293,-72.36
14305,-71.46
14317,-66.63
14329,-58.88
14341,-49.55
14353,-39.98
14365,-31.22
14377,-23.8
14389,-17.74
14400,-12.55
14411,-7.34
14423,-0.76
14435,8.25
14447,19.69
14459,32.29
14471,43.86
14483,52.13
14495,55.6
14507,53.93
14519,48.14
14531,40.77
14543,34.27
14555,29.83
14567,27.36
14579,26.26
14590,26.11
14601,26.67
14613,27.63
14625,28.44
14637,29.61
14649,31.76
14661,35.06
14673,39.12
14685,43.14
14697,45.97
14709,46.03
14721,41.76
14733,32.7
14745,21.61
14757,12.67
14769,9.23
14780,12.55
14791,21.94
14803,35.68
14815,51.65
14827,68.06
14839,74.89
14851,66.08
14863,43.57
14875,15.43
14887,-11.16
14899,-32.67
14911,-47.55
14923,-55.31
14935,-56.65
14947,-53.74
14959,-48.32
14970,-42.39
14981,-38.06
14993,-36.44
15005,-38.13
15017,-42.48
15029,-48.24
15041,-54.28
15053,-59.87
15065,-63.32
15077,-63.3
15089,-59.65
15101,-53.54
15113,-46.73
15125,-40.79
15137,-36.98
15149,-35.51
15160,-36.49
15171,-38.84
15183,-41.2
15195,-42.73
15207,-43.3
15219,-43.12
15231,-42.26
15243,-40.71
15255,-38.43
15267,-35.52
15279,-31.69
15291,-26.78
15303,-20.95
15315,-14.75
15327,-8.83
15339,-3.72
15350,0.16
15361,2.59
15373,3.48
15385,3.34
15397,2.97
15409,3.17
15421,4.34
15433,6.28
15445,8.19
15457,8.96
15469,7.6
15481,3.62
15493,-2.7
15505,-10.3
15517,-17.82
15529,-23.99
15540,-27.97
15551,-29.43
15563,-28.49
15575,-25.66
15587,-21.62
15599,-17.14
15611,-12.94
15623,-9.51
15635,-6.88
15647,-4.54
15659,-1.49
15671,3.32
15683,10.54
15695,19.9
15707,30.28
15719,40.03
15730,47.67
15741,52.43
15753,54.49
15765,54.87
15777,55.03
15789,56.42
15801,60.19
15813,66.98
15825,76.63
15837,88.01
15849,99.11
15861,107.36
15873,110.23
15885,106.01
15897,94.32
15909,76.15
15920,53.63
15931,29.23
15943,5.3
15955,-16.44
15967,-34.98
15979,-50.01
15991,-61.75
16003,-70.78
16015,-77.75
16027,-82.99
16039,-86.46
16051,-87.63
16063,-85.59
16075,-79.16
16087,-67.43
16099,-50.18
16110,-28.43
16121,-4.67
16133,17.69
16145,34.48
16157,42.07
16169,38.69
16181,25.21
16193,4.77
16205,-18.53
16217,-41.06
16229,-60.69
16241,-76.13
16253,-87.61
16265,-95.88
16277,-101.26
16289,-103.48
16300,-102.25
16311,-97.93
16323,-91.68
16335,-85.08
16347,-78.17
16359,-70.79
16371,-62.2
16383,-50.73
16395,-33.84
16407,-9.04
16419,24.97
16431,67.26
16443,114.2
16455,161.29
16467,201.89
16479,229.25
16490,239.25
16501,232.12
16513,211.95
16525,184.75
16537,156.02
16549,120.24
16561,78.01
16573,33.8
16585,-7.29
16597,-41.86
16609,-67.4
16621,-81.77
16633,-84.35
16645,-77.2
16657,-64.71
16669,-50.62
16680,-38.48
16691,-30.26
16703,-25.65
16715,-22.72
16727,-19.49
16739,-15.33
16751,-11.11
16763,-8.29
16775,-6.63
16787,-5.82
16799,-5.3
16811,-4.39
16823,-2.53
16835,0.42
16847,4.12
16859,8.04
16870,11.99
16881,17.14
16893,24.28
16905,33.79
16917,44.43
16929,53.37
16941,57.49
16953,55.03
16965,46.47
16977,34.17
16989,21.74
17001,11.32
17013,3.46
17025,-1.95
17037,-5.42
17049,-7.51
17060,-8.81
17071,-9.91
17083,-11.91
17095,-13.98
17107,-16.74
17119,-20.97
17131,-27.11
17143,-34.89
17155,-43.34
17167,-51.24
17179,-57.65
17191,-62.31
17203,-65.49
17215,-68.05
17227,-70.38
17239,-72.24
17250,-72.79
17261,-71.26
17273,-67.4
17285,-61.71
17297,-55.34
17309,-49.55
17321,-45.48
17333,-43.47
17345,-43.16
17357,-43.76
17369,-44.75
17381,-46.02
17393,-47.73
17405,-49.86
17417,-51.89
17429,-52.91
17440,-51.64
17451,-46.89
17463,-37.88
17475,-24.91
17487,-9.36
17499,6.81
17511,21.65
17523,33.67
17535,42.21
17547,47.66
17559,50.34
17571,52.08
17583,55.23
17595,60.53
17607,66.42
17619,70.13
17630,69.34
17641,63.31
17653,53.29
17665,41.86
17677,31.82
17689,24.83
17701,20.84
17713,18.62
17725,16.6
17737,13.62
17749,9.25
17761,3.69
17773,-2.49
17785,-8.69
17797,-14.58
17809,-19.94
17820,-24.38
17831,-27.3
17843,-28.03
17855,-26.28
17867,-22.27
17879,-16.87
17891,-11.21
17903,-6.44
17915,-3.44
17927,-2.5
17939,-3.37
17951,-5.54
17963,-8.47
17975,-11.75
17987,-15.13
17999,-18.35
18010,-21.08
18021,-23.17
18033,-24.23
18045,-23.91
18057,-22.12
18069,-19.16
18081,-15.54
18093,-11.9
18105,-8.74
18117,-6.28
18129,-4.47
18141,-3.13
18153,-2.06
18165,-1.17
18177,-0.49
18189,-0.05
18200,0.14
18211,0.16
18223,0.13
18235,0.2
18247,0.42
18259,0.78
18271,1.18
18283,1.59
18295,2.08
18307,2.83
18319,4.08
18331,6.02
18343,8.66
18355,11.89
18367,15.43
18379,18.93
18390,22.09
18401,24.71
18413,26.6
18425,27.63
18437,27.66
18449,26.63
18461,24.66
18473,22.06
18485,19.18
18497,16.27
18509,13.39
18521,10.35
18533,6.93
18545,3.01
18557,-1.32
18569,-5.82
18580,-10.3
18591,-14.77
18603,-19.41
18615,-24.46
18627,-30.01
18639,-35.89
18651,-41.72
18663,-47.02
18675,-51.28
18687,-54.05
18699,-54.94
18711,-53.75
18723,-50.57
18735,-45.85
18747,-40.28
18759,-34.62
18770,-29.35
18781,-24.5
18793,-19.71
18805,-14.47
18817,-8.45
18829,-1.68
18841,5.45
18853,12.41
18865,18.72
18877,24.14
18889,28.66
18901,32.39
18913,35.4
18925,37.72
18937,39.31
18949,40.27
18960,40.89
18971,41.52
18983,42.56
18995,44.14
19007,46.14
19019,48.19
19031,49.93
19043,51.1
19055,51.65
19067,51.55
19079,50.54
19091,48.11
19103,43.74
19115,37.28
19127,29.34
19139,21.32
19150,14.95
19161,11.66
19173,11.99
19185,15.31
19197,20.16
19209,24.74
19221,27.58
19233,27.88
19245,25.5
19257,20.8
19269,14.37
19281,7.0
19293,-0.5
19305,-7.28
19317,-12.68
19329,-16.34
19340,-18.26
19351,-18.74
19363,-18.14
19375,-16.74
19387,-14.6
19399,-11.7
19411,-8.09
19423,-3.96
19435,0.35
19447,4.49
19459,8.12
19471,10.95
19483,12.7
19495,13.21
19507,12.5
19519,10.98
19530,9.34
19541,8.35
19553,8.5
19565,9.75
19577,11.58
19589,13.28
19601,14.34
19613,14.7
19625,14.83
19637,15.51
19649,17.44
19661,20.98
19673,26.06
19685,32.14
19697,38.42
19709,43.97
19720,48.06
19731,50.3
19743,50.76
19755,49.92
19767,48.46
19779,47.0
19791,45.85
19803,44.99
19815,44.11
19827,42.76
19839,40.58
19851,37.43
19863,33.45
19875,29.01
19887,24.58
19899,20.64
19910,17.58
19921,15.61
19933,14.7
19945,14.62
19957,14.93
19969,15.1
19981,14.7
19993,13.47
20005,11.46
20017,9.04
20029,6.84
20041,5.51
20053,5.64
20065,7.43
20077,10.66
20089,14.71
20100,18.64
20111,21.64
20123,23.28
20135,23.48
20147,22.4
20159,20.43
20171,17.9
20183,15.06
20195,12.04
20207,8.76
20219,5.21
20231,1.48
20243,-2.33
20255,-6.19
20267,-10.11
20279,-14.1
20290,-18.2
20301,-22.38
20313,-26.75
20325,-31.24
20337,-35.4
20349,-38.92
20361,-41.75
20373,-43.94
20385,-45.58
20397,-46.84
20409,-47.91
20421,-49.48
20433,-51.93
20445,-54.63
20457,-57.19
20469,-59.55
20480,-61.53
20491,-62.97
20503,-63.86
20515,-64.38
20527,-65.85
20539,-69.08
20551,-72.78
20563,-76.15
20575,-79.01
20587,-80.96
20599,-81.61
20611,-80.88
20623,-79.04
20635,-78.18
20647,-79.75
20659,-81.9
20670,-83.71
20681,-85.32
20693,-86.58
20705,-87.23
20717,-87.11
20729,-86.22
20741,-86.7
20753,-90.01
20765,-93.76
20777,-97.28
20789,-101.49
20801,-106.45
20813,-111.17
20825,-113.9
20837,-100.42
20849,-64.83
20860,-26.94
20871,7.07
20883,40.34
20895,71.89
20907,100.11
20919,123.4
20931,140.58
20943,151.26
20955,153.92
20967,148.69
20979,140.23
20991,131.54
