seconds,BVP
2,4.86
14,5.31
26,5.55
38,5.65
50,5.65
62,5.58
74,5.46
86,5.33
98,5.21
110,5.08
122,4.91
134,4.67
146,4.37
158,4.12
170,4.03
181,4.2
192,4.67
204,5.33
216,6.03
228,6.56
240,6.8
252,6.71
264,6.35
276,5.8
288,5.17
300,4.48
312,3.75
324,2.96
336,2.14
348,1.35
360,0.67
371,0.19
382,-0.05
394,-0.09
406,-0.02
418,0.01
430,-0.14
442,-0.51
454,-1.07
466,-1.71
478,-2.34
490,-2.89
502,-3.4
514,-3.91
526,-4.42
538,-4.9
550,-5.3
561,-5.54
572,-5.69
584,-5.82
596,-6.07
608,-6.47
620,-6.99
632,-7.49
644,-7.84
656,-8.01
668,-8.11
680,-8.32
692,-8.73
704,-9.28
716,-9.72
728,-9.74
740,-9.08
751,-7.66
762,-5.64
774,-3.3
786,-0.98
798,1.07
810,2.73
822,3.98
834,4.89
846,5.51
858,5.86
870,5.94
882,5.8
894,5.5
906,5.18
918,5.02
930,5.13
941,5.53
952,6.14
964,6.75
976,7.14
988,7.21
1000,6.99
1012,6.68
1024,6.48
1036,6.52
1048,6.8
1060,7.17
1072,7.45
1084,7.47
1096,7.19
1108,6.62
1120,5.79
1131,4.78
1142,3.64
1154,2.45
1166,1.38
1178,0.57
1190,0.12
1202,-0.01
1214,0.02
1226,0.02
1238,-0.15
1250,-0.48
1262,-0.87
1274,-1.15
1286,-1.24
1298,-1.16
1310,-1.03
1321,-1.0
1332,-1.14
1344,-1.48
1356,-1.93
1368,-2.42
1380,-2.91
1392,-3.41
1404,-3.96
1416,-4.62
1428,-5.39
1440,-6.22
1452,-7.05
1464,-7.87
1476,-8.71
1488,-9.66
1500,-10.73
1511,-11.82
1522,-12.68
1534,-13.01
1546,-12.52
1558,-11.12
1570,-8.89
1582,-6.14
1594,-3.26
1606,-0.62
1618,1.54
1630,3.12
1642,4.11
1654,4.61
1666,4.75
1678,4.62
1690,4.36
1701,4.04
1712,3.77
1724,3.58
1736,3.47
1748,3.4
1760,3.35
1772,3.29
1784,3.25
1796,3.3
1808,3.48
1820,3.8
1832,4.24
1844,4.7
1856,5.09
1868,5.32
1880,5.39
1891,5.3
1902,5.12
1914,4.87
1926,4.52
1938,4.05
1950,3.42
1962,2.69
1974,1.94
1986,1.3
1998,0.82
2010,0.55
2022,0.44
2034,0.42
2046,0.44
2058,0.43
2070,0.36
2081,0.24
2092,0.07
2104,-0.22
2116,-0.65
2128,-1.27
2140,-2.12
2152,-3.12
2164,-4.17
2176,-5.11
2188,-5.84
2200,-6.37
2212,-6.8
2224,-7.25
2236,-7.81
2248,-8.46
2260,-9.08
2271,-9.62
2282,-10.05
2294,-10.42
2306,-10.75
2318,-10.97
2330,-10.9
2342,-10.31
2354,-9.04
2366,-7.05
2378,-4.53
2390,-1.77
2402,0.87
2414,3.08
2426,4.73
2438,5.81
2450,6.42
2461,6.69
2472,6.76
2484,6.71
2496,6.61
2508,6.52
2520,6.49
2532,6.54
2544,6.65
2556,6.73
2568,6.66
2580,6.38
2592,5.93
2604,5.4
2616,4.96
2628,4.73
2640,4.72
2651,4.91
2662,5.16
2674,5.35
2686,5.39
2698,5.24
2710,4.95
2722,4.61
2734,4.34
2746,4.2
2758,4.23
2770,4.35
2782,4.5
2794,4.57
2806,4.55
2818,4.44
2830,4.28
2841,4.07
2852,3.78
2864,3.39
2876,2.88
2888,2.28
2900,1.67
2912,1.12
2924,0.63
2936,0.16
2948,-0.43
2960,-1.27
2972,-2.42
2984,-3.88
2996,-5.55
3008,-7.29
3020,-8.96
3031,-10.45
3042,-11.75
3054,-12.93
3066,-14.03
3078,-15.12
3090,-16.19
3102,-17.15
3114,-17.9
3126,-18.35
3138,-18.47
3150,-18.29
3162,-17.81
3174,-17.03
3186,-15.88
3198,-14.29
3210,-12.2
3221,-9.68
3232,-6.85
3244,-3.86
3256,-0.86
3268,2.04
3280,4.73
3292,7.11
3304,9.06
3316,10.54
3328,11.53
3340,12.15
3352,12.51
3364,12.68
3376,12.66
3388,12.38
3400,11.8
3411,10.98
3422,10.1
3434,9.31
3446,8.75
3458,8.42
3470,8.25
3482,8.14
3494,8.0
3506,7.81
3518,7.61
3530,7.38
3542,7.11
3554,6.75
3566,6.27
3578,5.68
3590,5.03
3601,4.41
3612,3.86
3624,3.42
3636,3.06
3648,2.74
3660,2.42
3672,2.07
3684,1.71
3696,1.35
3708,1.05
3720,0.83
3732,0.69
3744,0.57
3756,0.41
3768,0.15
3780,-0.23
3791,-0.72
3802,-1.24
3814,-1.73
3826,-2.17
3838,-2.56
3850,-2.97
3862,-3.45
3874,-4.01
3886,-4.58
3898,-5.1
3910,-5.5
3922,-5.76
3934,-5.97
3946,-6.26
3958,-6.73
3970,-7.4
3981,-8.22
3992,-9.05
4004,-9.72
4016,-10.1
4028,-10.03
4040,-9.42
4052,-8.19
4064,-6.33
4076,-3.99
4088,-1.42
4100,1.01
4112,2.99
4124,4.36
4136,5.19
4148,5.63
4160,5.91
4171,6.15
4182,6.37
4194,6.49
4206,6.45
4218,6.21
4230,5.78
4242,5.22
4254,4.6
4266,3.97
4278,3.4
4290,2.94
4302,2.62
4314,2.48
4326,2.51
4338,2.73
4350,3.12
4361,3.66
4372,4.27
4384,4.84
4396,5.22
4408,5.28
4420,4.97
4432,4.35
4444,3.57
4456,2.8
4468,2.2
4480,1.87
4492,1.73
4504,1.68
4516,1.54
4528,1.19
4540,0.57
4551,-0.29
4562,-1.3
4574,-2.36
4586,-3.36
4598,-4.2
4610,-4.82
4622,-5.19
4634,-5.32
4646,-5.27
4658,-5.15
4670,-5.08
4682,-5.19
4694,-5.52
4706,-6.03
4718,-6.63
4730,-7.19
4741,-7.61
4752,-7.86
4764,-7.98
4776,-8.1
4788,-8.36
4800,-8.81
4812,-9.38
4824,-9.82
4836,-9.8
4848,-9.04
4860,-7.43
4872,-5.11
4884,-2.44
4896,0.15
4908,2.29
4920,3.81
4931,4.72
4942,5.18
4954,5.36
4966,5.36
4978,5.23
4990,4.97
5002,4.63
5014,4.28
5026,4.02
5038,3.88
5050,3.87
5062,3.92
5074,3.97
5086,4.0
5098,4.02
5110,4.09
5121,4.29
5132,4.6
5144,4.97
5156,5.26
5168,5.38
5180,5.3
5192,5.02
5204,4.62
5216,4.15
5228,3.67
5240,3.18
5252,2.67
5264,2.17
5276,1.76
5288,1.51
5300,1.43
5311,1.46
5322,1.44
5334,1.25
5346,0.81
5358,0.13
5370,-0.65
5382,-1.4
5394,-2.02
5406,-2.51
5418,-2.93
5430,-3.36
5442,-3.84
5454,-4.35
5466,-4.83
5478,-5.16
5490,-5.32
5501,-5.34
5512,-5.32
5524,-5.39
5536,-5.65
5548,-6.1
5560,-6.73
5572,-7.46
5584,-8.19
5596,-8.8
5608,-9.15
5620,-9.06
5632,-8.41
5644,-7.14
5656,-5.32
5668,-3.11
5680,-0.76
5691,1.5
5702,3.44
5714,4.93
5726,5.95
5738,6.51
5750,6.7
5762,6.64
5774,6.46
5786,6.25
5798,6.1
5810,6.03
5822,6.0
5834,5.97
5846,5.9
5858,5.77
5870,5.62
5881,5.51
5892,5.47
5904,5.53
5916,5.65
5928,5.74
5940,5.74
5952,5.59
5964,5.32
5976,5.01
5988,4.69
6000,4.37
6012,4.0
6024,3.51
6036,2.92
6048,2.29
6060,1.73
6071,1.33
6082,1.06
6094,0.82
6106,0.48
6118,-0.01
6130,-0.59
6142,-1.1
6154,-1.34
6166,-1.25
6178,-0.89
6190,-0.41
6202,-0.06
6214,0.02
6226,-0.21
6238,-0.68
6250,-1.29
6261,-1.93
6272,-2.51
6284,-2.96
6296,-3.27
6308,-3.48
6320,-3.67
6332,-3.92
6344,-4.3
6356,-4.85
6368,-5.5
6380,-6.15
6392,-6.73
6404,-7.16
6416,-7.44
6428,-7.62
6440,-7.8
6451,-8.1
6462,-8.58
6474,-9.2
6486,-9.79
6498,-10.06
6510,-9.68
6522,-8.44
6534,-6.35
6546,-3.66
6558,-0.78
6570,1.86
6582,3.92
6594,5.23
6606,5.81
6618,5.81
6630,5.45
6641,4.99
6652,4.63
6664,4.53
6676,4.75
6688,5.2
6700,5.73
6712,6.15
6724,6.33
6736,6.24
6748,5.97
6760,5.63
6772,5.34
6784,5.18
6796,5.2
6808,5.37
6820,5.64
6831,5.92
6842,6.14
6854,6.22
6866,6.1
6878,5.8
6890,5.33
6902,4.75
6914,4.13
6926,3.52
6938,2.96
6950,2.43
6962,1.91
6974,1.35
6986,0.74
6998,0.11
7010,-0.48
7021,-0.96
7032,-1.28
7044,-1.43
7056,-1.47
7068,-1.49
7080,-1.6
7092,-1.84
7104,-2.2
7116,-2.65
7128,-3.12
7140,-3.55
7152,-3.93
7164,-4.28
7176,-4.63
7188,-5.04
7200,-5.54
7211,-6.14
7222,-6.82
7234,-7.54
7246,-8.24
7258,-8.85
7270,-9.36
7282,-9.76
7294,-10.11
7306,-10.47
7318,-10.85
7330,-11.18
7342,-11.3
7354,-10.97
7366,-10.01
7378,-8.34
7390,-6.08
7401,-3.53
7412,-1.05
7424,1.04
7436,2.58
7448,3.57
7460,4.12
7472,4.43
7484,4.62
7496,4.81
7508,5.03
7520,5.29
7532,5.61
7544,5.96
7556,6.29
7568,6.52
7580,6.62
7591,6.56
7602,6.4
7614,6.22
7626,6.1
7638,6.08
7650,6.1
7662,6.08
7674,5.93
7686,5.61
7698,5.1
7710,4.49
7722,3.84
7734,3.25
7746,2.76
7758,2.41
7770,2.17
7781,1.98
7792,1.79
7804,1.57
7816,1.33
7828,1.12
7840,1.0
7852,1.0
7864,1.08
7876,1.15
7888,1.1
7900,0.88
7912,0.5
7924,0.01
7936,-0.47
7948,-0.89
7960,-1.27
7971,-1.67
7982,-2.19
7994,-2.84
8006,-3.58
8018,-4.26
8030,-4.76
8042,-5.06
8054,-5.25
8066,-5.48
8078,-5.85
8090,-6.41
8102,-7.1
8114,-7.84
8126,-8.56
8138,-9.28
8150,-9.99
8161,-10.65
8172,-11.1
8184,-11.1
8196,-10.46
8208,-9.07
8220,-7.05
8232,-4.62
8244,-2.1
8256,0.23
8268,2.2
8280,3.74
8292,4.82
8304,5.51
8316,5.86
8328,5.94
8340,5.86
8351,5.67
8362,5.46
8374,5.28
8386,5.14
8398,5.05
8410,5.03
8422,5.08
8434,5.21
8446,5.41
8458,5.67
8470,5.94
8482,6.2
8494,6.43
8506,6.61
8518,6.72
8530,6.71
8541,6.57
8552,6.27
8564,5.84
8576,5.32
8588,4.76
8600,4.21
8612,3.7
8624,3.22
8636,2.75
8648,2.28
8660,1.83
8672,1.39
8684,1.0
8696,0.66
8708,0.41
8720,0.24
8731,0.16
8742,0.17
8754,0.22
8766,0.24
8778,0.16
8790,-0.07
8802,-0.49
8814,-1.02
8826,-1.56
8838,-2.03
8850,-2.37
8862,-2.64
8874,-2.92
8886,-3.31
8898,-3.84
8910,-4.47
8921,-5.1
8932,-5.69
8944,-6.19
8956,-6.63
8968,-7.05
8980,-7.49
8992,-7.99
9004,-8.56
9016,-9.21
9028,-9.93
9040,-10.66
9052,-11.26
9064,-11.52
9076,-11.21
9088,-10.16
9100,-8.36
9111,-6.03
9122,-3.5
9134,-1.12
9146,0.83
9158,2.29
9170,3.33
9182,4.07
9194,4.62
9206,5.0
9218,5.19
9230,5.18
9242,5.04
9254,4.9
9266,4.9
9278,5.1
9290,5.46
9301,5.88
9312,6.26
9324,6.51
9336,6.65
9348,6.72
9360,6.8
9372,6.97
9384,7.27
9396,7.67
9408,8.09
9420,8.38
9432,8.41
9444,8.11
9456,7.51
9468,6.7
9480,5.82
9491,4.97
9502,4.21
9514,3.54
9526,2.94
9538,2.39
9550,1.91
9562,1.47
9574,1.07
9586,0.65
9598,0.22
9610,-0.24
9622,-0.7
9634,-1.16
9646,-1.61
9658,-2.03
9670,-2.44
9681,-2.77
9692,-2.98
9704,-3.06
9716,-3.08
9728,-3.16
9740,-3.5
9752,-4.19
9764,-5.23
9776,-6.48
9788,-7.66
9800,-8.55
9812,-8.99
9824,-9.03
9836,-8.85
9848,-8.67
9860,-8.72
9871,-9.08
9882,-9.74
9894,-10.54
9906,-11.27
9918,-11.65
9930,-11.4
9942,-10.32
9954,-8.33
9966,-5.59
9978,-2.42
9990,0.71
10002,3.36
10014,5.24
10026,6.27
10038,6.59
10050,6.44
10061,6.04
10072,5.6
10084,5.22
10096,4.99
10108,4.94
10120,5.07
10132,5.31
10144,5.6
10156,5.83
10168,5.95
10180,5.97
10192,5.93
10204,5.91
10216,6.0
10228,6.21
10240,6.5
10251,6.8
10262,7.06
10274,7.23
10286,7.29
10298,7.19
10310,6.89
10322,6.31
10334,5.44
10346,4.35
10358,3.21
10370,2.2
10382,1.47
10394,1.09
10406,1.0
10418,1.07
10430,1.16
10441,1.16
10452,1.01
10464,0.68
10476,0.18
10488,-0.46
10500,-1.16
10512,-1.9
10524,-2.67
10536,-3.5
10548,-4.46
10560,-5.57
10572,-6.76
10584,-7.93
10596,-8.93
10608,-9.67
10620,-10.12
10631,-10.33
10642,-10.39
10654,-10.42
10666,-10.57
10678,-10.95
10690,-11.57
10702,-12.24
10714,-12.61
10726,-12.29
10738,-11.03
10750,-8.83
10762,-6.01
10774,-3.05
10786,-0.4
10798,1.71
10810,3.29
10821,4.51
10832,5.56
10844,6.55
10856,7.43
10868,8.12
10880,8.57
10892,8.8
10904,8.88
10916,8.87
10928,8.78
10940,8.58
10952,8.24
10964,7.82
10976,7.42
10988,7.18
11000,7.16
11011,7.32
11022,7.52
11034,7.63
11046,7.55
11058,7.26
11070,6.84
11082,6.33
11094,5.74
11106,5.07
11118,4.28
11130,3.4
11142,2.5
11154,1.68
11166,1.02
11178,0.54
11190,0.24
11201,0.06
11212,-0.02
11224,-0.06
11236,-0.13
11248,-0.3
11260,-0.67
11272,-1.27
11284,-2.06
11296,-2.93
11308,-3.72
11320,-4.29
11332,-4.57
11344,-4.6
11356,-4.48
11368,-4.34
11380,-4.26
11391,-4.27
11402,-4.36
11414,-4.51
11426,-4.71
11438,-5.01
11450,-5.4
11462,-5.89
11474,-6.44
11486,-7.06
11498,-7.74
11510,-8.52
11522,-9.4
11534,-10.34
11546,-11.17
11558,-11.62
11570,-11.45
11581,-10.45
11592,-8.64
11604,-6.24
11616,-3.6
11628,-1.11
11640,0.96
11652,2.54
11664,3.7
11676,4.62
11688,5.42
11700,6.17
11712,6.86
11724,7.48
11736,8.01
11748,8.47
11760,8.85
11771,9.09
11782,9.12
11794,8.86
11806,8.32
11818,7.61
11830,6.92
11842,6.41
11854,6.18
11866,6.23
11878,6.43
11890,6.65
11902,6.77
11914,6.71
11926,6.51
11938,6.25
11950,5.98
11961,5.71
11972,5.38
11984,4.91
11996,4.27
12008,3.52
12020,2.79
12032,2.25
12044,1.98
12056,1.93
12068,1.95
12080,1.84
12092,1.49
12104,0.9
12116,0.22
12128,-0.42
12140,-0.92
12151,-1.33
12162,-1.74
12174,-2.26
12186,-2.92
12198,-3.67
12210,-4.39
12222,-5.0
12234,-5.48
12246,-5.89
12258,-6.32
12270,-6.85
12282,-7.49
12294,-8.21
12306,-9.03
12318,-9.92
12330,-10.89
12341,-11.9
12352,-12.85
12364,-13.53
12376,-13.75
12388,-13.31
12400,-12.07
12412,-10.01
12424,-7.27
12436,-4.11
12448,-0.89
12460,2.0
12472,4.32
12484,5.96
12496,6.99
12508,7.55
12520,7.77
12531,7.72
12542,7.38
12554,6.8
12566,6.08
12578,5.37
12590,4.86
12602,4.61
12614,4.6
12626,4.74
12638,4.94
12650,5.17
12662,5.47
12674,5.89
12686,6.44
12698,7.03
12710,7.55
12721,7.85
12732,7.85
12744,7.54
12756,7.0
12768,6.34
12780,5.63
12792,4.92
12804,4.14
12816,3.26
12828,2.25
12840,1.16
12852,0.12
12864,-0.76
12876,-1.39
12888,-1.74
12900,-1.88
12911,-1.9
12922,-1.89
12934,-1.95
12946,-2.13
12958,-2.47
12970,-2.97
12982,-3.57
12994,-4.22
13006,-4.82
13018,-5.29
13030,-5.59
13042,-5.76
13054,-5.92
13066,-6.14
13078,-6.5
13090,-6.98
13101,-7.5
13112,-7.97
13124,-8.33
13136,-8.58
13148,-8.83
13160,-9.19
13172,-9.71
13184,-10.34
13196,-10.93
13208,-11.22
13220,-10.96
13232,-9.96
13244,-8.19
13256,-5.77
13268,-2.98
13280,-0.16
13291,2.36
13302,4.32
13314,5.61
13326,6.26
13338,6.44
13350,6.38
13362,6.34
13374,6.44
13386,6.68
13398,6.95
13410,7.11
13422,7.05
13434,6.74
13446,6.25
13458,5.69
13470,5.22
13481,4.92
13492,4.81
13504,4.87
13516,5.01
13528,5.14
13540,5.18
13552,5.13
13564,5.0
13576,4.81
13588,4.53
13600,4.1
13612,3.47
13624,2.65
13636,1.75
13648,0.94
13660,0.35
13671,-0.0
13682,-0.22
13694,-0.47
13706,-0.84
13718,-1.32
13730,-1.83
13742,-2.22
13754,-2.41
13766,-2.4
13778,-2.28
13790,-2.17
13802,-2.2
13814,-2.41
13826,-2.84
13838,-3.46
13850,-4.19
13861,-4.93
13872,-5.55
13884,-5.98
13896,-6.22
13908,-6.4
13920,-6.69
13932,-7.23
13944,-8.06
13956,-8.95
13968,-9.55
13980,-9.44
13992,-8.36
14004,-6.29
14016,-3.56
14028,-0.63
14040,2.05
14051,4.17
14062,5.67
14074,6.61
14086,7.14
14098,7.34
14110,7.26
14122,6.91
14134,6.36
14146,5.72
14158,5.13
14170,4.73
14182,4.56
14194,4.61
14206,4.81
14218,5.06
14230,5.27
14241,5.43
14252,5.53
14264,5.6
14276,5.68
14288,5.74
14300,5.75
14312,5.62
14324,5.3
14336,4.77
14348,4.04
14360,3.19
14372,2.3
14384,1.44
14396,0.67
14408,0.04
14420,-0.39
14431,-0.64
14442,-0.74
14454,-0.76
14466,-0.73
14478,-0.7
14490,-0.66
14502,-0.6
14514,-0.56
14526,-0.59
14538,-0.8
14550,-1.25
14562,-1.94
14574,-2.77
14586,-3.6
14598,-4.33
14610,-4.96
14621,-5.57
14632,-6.29
14644,-7.17
14656,-8.18
14668,-9.2
14680,-10.02
14692,-10.47
14704,-10.4
14716,-9.76
14728,-8.55
14740,-6.84
14752,-4.8
14764,-2.64
14776,-0.64
14788,0.96
14800,2.05
14811,2.68
14822,3.0
14834,3.24
14846,3.56
14858,3.96
14870,4.34
14882,4.53
14894,4.42
14906,4.02
14918,3.47
14930,2.98
14942,2.7
14954,2.72
14966,3.02
14978,3.54
14990,4.16
15001,4.78
15012,5.3
15024,5.66
15036,5.78
15048,5.66
15060,5.34
15072,4.89
15084,4.39
15096,3.88
15108,3.35
15120,2.72
15132,1.9
15144,0.9
15156,-0.22
15168,-1.32
15180,-2.22
15191,-2.83
15202,-3.14
15214,-3.28
15226,-3.42
15238,-3.74
15250,-4.3
15262,-5.05
15274,-5.88
15286,-6.62
15298,-7.15
15310,-7.42
15322,-7.48
15334,-7.44
15346,-7.41
15358,-7.53
15370,-7.82
15381,-8.28
15392,-8.79
15404,-9.16
15416,-9.16
15428,-8.61
15440,-7.4
15452,-5.61
15464,-3.45
15476,-1.27
15488,0.64
15500,2.11
15512,3.12
15524,3.78
15536,4.21
15548,4.52
15560,4.73
15571,4.86
15582,4.9
15594,4.9
15606,4.91
15618,4.91
15630,4.89
15642,4.78
15654,4.57
15666,4.27
15678,3.93
15690,3.61
15702,3.38
15714,3.31
15726,3.42
15738,3.72
15750,4.15
15761,4.57
15772,4.83
15784,4.81
15796,4.49
15808,3.94
15820,3.3
15832,2.68
15844,2.09
15856,1.48
15868,0.76
15880,-0.06
15892,-0.91
15904,-1.68
15916,-2.27
15928,-2.65
15940,-2.88
15951,-3.08
15962,-3.32
15974,-3.69
15986,-4.2
15998,-4.86
16010,-5.62
16022,-6.39
16034,-7.08
16046,-7.59
16058,-7.89
16070,-8.02
16082,-8.14
16094,-8.39
16106,-8.86
16118,-9.52
16130,-10.18
16141,-10.59
16152,-10.51
16164,-9.75
16176,-8.3
16188,-6.25
16200,-3.83
16212,-1.32
16224,1.0
16236,2.89
16248,4.24
16260,5.06
16272,5.52
16284,5.85
16296,6.22
16308,6.74
16320,7.36
16331,7.89
16342,8.16
16354,8.06
16366,7.62
16378,6.98
16390,6.36
16402,5.94
16414,5.77
16426,5.81
16438,5.96
16450,6.14
16462,6.34
16474,6.55
16486,6.81
16498,7.05
16510,7.2
16521,7.13
16532,6.83
16544,6.35
16556,5.87
16568,5.52
16580,5.37
16592,5.42
16604,5.53
16616,5.6
16628,5.55
16640,5.38
16652,5.15
16664,4.9
16676,4.69
16688,4.52
16700,4.38
16711,4.2
16722,3.92
16734,3.44
16746,2.73
16758,1.82
16770,0.83
16782,-0.04
16794,-0.62
16806,-0.8
16818,-0.61
16830,-0.16
16842,0.36
16854,0.79
16866,0.96
16878,0.8
16890,0.3
16901,-0.5
16912,-1.47
16924,-2.55
16936,-3.63
16948,-4.67
16960,-5.67
16972,-6.65
16984,-7.63
16996,-8.61
17008,-9.57
17020,-10.42
17032,-11.03
17044,-11.23
17056,-10.87
17068,-9.87
17080,-8.29
17091,-6.3
17102,-4.17
17114,-2.11
17126,-0.33
17138,1.09
17150,2.17
17162,2.97
17174,3.59
17186,4.1
17198,4.56
17210,5.01
17222,5.38
17234,5.62
17246,5.64
17258,5.39
17270,4.9
17281,4.22
17292,3.42
17304,2.53
17316,1.61
17328,0.73
17340,0.01
17352,-0.41
17364,-0.46
17376,-0.14
17388,0.37
17400,0.88
17412,1.2
17424,1.28
17436,1.16
17448,0.98
17460,0.84
17471,0.79
17482,0.77
17494,0.67
17506,0.43
17518,0.0
17530,-0.6
17542,-1.32
17554,-2.11
17566,-2.96
17578,-3.84
17590,-4.73
17602,-5.6
17614,-6.35
17626,-6.93
17638,-7.33
17650,-7.62
17661,-7.92
17672,-8.39
17684,-9.12
17696,-10.09
17708,-11.13
17720,-12.03
17732,-12.6
17744,-12.8
17756,-12.75
17768,-12.67
17780,-12.77
17792,-13.09
17804,-13.47
17816,-13.57
17828,-13.1
17840,-11.87
17851,-9.95
17862,-7.61
17874,-5.23
17886,-3.15
17898,-1.59
17910,-0.6
17922,-0.09
17934,0.05
17946,-0.02
17958,-0.1
17970,-0.02
17982,0.39
17994,1.2
18006,2.36
18018,3.68
18030,4.89
18041,5.8
18052,6.35
18064,6.68
18076,6.99
18088,7.52
18100,8.33
18112,9.37
18124,10.47
18136,11.45
18148,12.19
18160,12.57
18172,12.49
18184,11.87
18196,10.72
18208,9.19
18220,7.53
18231,6.08
18242,5.05
18254,4.49
18266,4.26
18278,4.09
18290,3.75
18302,3.14
18314,2.33
18326,1.41
18338,0.53
18350,-0.24
18362,-0.91
18374,-1.5
18386,-2.08
18398,-2.68
18410,-3.3
18421,-3.88
18432,-4.35
18444,-4.64
18456,-4.76
18468,-4.79
18480,-4.86
18492,-5.1
18504,-5.61
18516,-6.42
18528,-7.51
18540,-8.78
18552,-10.12
18564,-11.32
18576,-12.15
18588,-12.33
18600,-11.67
18611,-10.1
18622,-7.72
18634,-4.83
18646,-1.84
18658,0.88
18670,3.07
18682,4.67
18694,5.75
18706,6.51
18718,7.11
18730,7.69
18742,8.23
18754,8.7
18766,9.01
18778,9.15
18790,9.13
18801,9.02
18812,8.87
18824,8.68
18836,8.42
18848,8.05
18860,7.57
18872,7.04
18884,6.5
18896,6.02
18908,5.58
18920,5.17
18932,4.74
18944,4.27
18956,3.78
18968,3.33
18980,2.94
18991,2.58
19002,2.21
19014,1.71
19026,1.01
19038,0.11
19050,-0.9
19062,-1.88
19074,-2.65
19086,-3.13
19098,-3.32
19110,-3.34
19122,-3.34
19134,-3.48
19146,-3.82
19158,-4.31
19170,-4.89
19181,-5.44
19192,-5.91
19204,-6.3
19216,-6.66
19228,-7.01
19240,-7.4
19252,-7.86
19264,-8.43
19276,-9.13
19288,-9.93
19300,-10.71
19312,-11.21
19324,-11.14
19336,-10.25
19348,-8.42
19360,-5.8
19371,-2.71
19382,0.41
19394,3.17
19406,5.33
19418,6.79
19430,7.64
19442,7.98
19454,7.96
19466,7.67
19478,7.2
19490,6.68
19502,6.22
19514,5.89
19526,5.72
19538,5.65
19550,5.6
19561,5.47
19572,5.28
19584,5.07
19596,4.91
19608,4.84
19620,4.83
19632,4.83
19644,4.75
19656,4.5
19668,4.07
19680,3.46
19692,2.73
19704,1.95
19716,1.16
19728,0.37
19740,-0.44
19751,-1.33
19762,-2.27
19774,-3.15
19786,-3.83
19798,-4.19
19810,-4.26
19822,-4.19
19834,-4.2
19846,-4.46
19858,-5.01
19870,-5.71
19882,-6.38
19894,-6.85
19906,-7.12
19918,-7.29
19930,-7.53
19941,-7.99
19952,-8.69
19964,-9.62
19976,-10.67
19988,-11.75
20000,-12.71
20012,-13.37
20024,-13.48
20036,-12.84
20048,-11.33
20060,-9.04
20072,-6.27
20084,-3.43
20096,-0.9
20108,1.08
20120,2.53
20131,3.61
20142,4.49
20154,5.28
20166,5.98
20178,6.52
20190,6.93
20202,7.29
20214,7.74
20226,8.4
20238,9.21
20250,10.02
20262,10.62
20274,10.85
20286,10.69
20298,10.3
20310,9.86
20321,9.54
20332,9.41
20344,9.43
20356,9.5
20368,9.52
20380,9.44
20392,9.26
20404,9.01
20416,8.73
20428,8.44
20440,8.15
20452,7.86
20464,7.55
20476,7.25
20488,6.92
20500,6.53
20511,6.04
20522,5.42
20534,4.68
20546,3.88
20558,3.09
20570,2.37
20582,1.71
20594,1.05
20606,0.27
20618,-0.65
20630,-1.73
20642,-2.86
20654,-3.97
20666,-4.99
20678,-5.94
20690,-6.82
20701,-7.64
20712,-8.44
20724,-9.22
20736,-10.09
20748,-11.15
20760,-12.49
20772,-14.07
20784,-15.63
20796,-16.81
20808,-17.14
20820,-16.33
20832,-14.3
20844,-11.22
20856,-7.49
20868,-3.58
20880,0.05
20891,3.08
20902,5.31
20914,6.75
20926,7.51
20938,7.79
20950,7.83
20962,7.8
20974,7.78
20986,7.72
20998,7.53
