seconds,BVP
4,-11.84
16,-15.6
28,-19.97
40,-25.23
52,-31.42
63,-38.08
74,-44.2
86,-48.38
98,-49.14
110,-45.48
122,-37.21
134,-25.12
146,-10.79
158,3.92
170,17.36
182,28.44
194,36.69
206,42.24
218,45.47
230,46.84
242,46.76
253,45.52
264,43.4
276,40.72
288,37.98
300,35.71
312,34.43
324,34.4
336,35.56
348,37.51
360,39.68
372,41.58
384,42.89
396,43.51
408,43.51
420,43.03
432,42.26
443,41.37
454,40.56
466,39.95
478,39.54
490,39.24
502,38.91
514,38.38
526,37.48
538,35.97
550,33.56
562,29.88
574,24.6
586,17.59
598,8.93
610,-1.07
622,-11.93
633,-23.03
644,-33.55
656,-42.45
668,-48.52
680,-50.64
692,-48.17
704,-41.25
716,-30.88
728,-18.64
740,-6.22
752,4.98
764,14.15
776,21.02
788,25.63
800,28.11
812,28.59
823,27.21
834,24.29
846,20.39
858,16.23
870,12.54
882,9.81
894,8.1
906,7.11
918,6.37
930,5.52
942,4.47
954,3.46
966,2.84
978,2.83
990,3.35
1002,4.0
1013,4.21
1024,3.47
1036,1.61
1048,-1.18
1060,-4.34
1072,-7.19
1084,-9.23
1096,-10.3
1108,-10.71
1120,-11.05
1132,-12.02
1144,-14.19
1156,-17.85
1168,-22.92
1180,-29.0
1192,-35.34
1203,-40.95
1214,-44.67
1226,-45.46
1238,-42.61
1250,-35.99
1262,-26.21
1274,-14.41
1286,-2.06
1298,9.49
1310,19.25
1322,26.68
1334,31.66
1346,34.28
1358,34.7
1370,33.09
1382,29.72
1393,25.0
1404,19.58
1416,14.23
1428,9.66
1440,6.37
1452,4.53
1464,3.99
1476,4.44
1488,5.53
1500,6.97
1512,8.55
1524,10.1
1536,11.39
1548,12.11
1560,12.0
1572,10.88
1583,8.78
1594,5.93
1606,2.76
1618,-0.28
1630,-2.84
1642,-4.85
1654,-6.53
1666,-8.39
1678,-11.04
1690,-14.92
1702,-20.08
1714,-25.97
1726,-31.49
1738,-35.24
1750,-35.96
1762,-32.92
1773,-26.26
1784,-16.84
1796,-6.03
1808,4.77
1820,14.48
1832,22.49
1844,28.58
1856,32.67
1868,34.7
1880,34.6
1892,32.41
1904,28.5
1916,23.56
1928,18.49
1940,14.17
1952,11.15
1963,9.55
1974,9.07
1986,9.25
1998,9.64
2010,9.95
2022,10.02
2034,9.76
2046,9.07
2058,7.83
2070,5.95
2082,3.46
2094,0.52
2106,-2.68
2118,-5.93
2130,-9.17
2142,-12.47
2153,-16.0
2164,-19.99
2176,-24.61
2188,-29.8
2200,-35.21
2212,-40.11
2224,-43.49
2236,-44.34
2248,-42.0
2260,-36.39
2272,-28.16
2284,-18.42
2296,-8.42
2308,0.79
2320,8.63
2332,14.88
2343,19.48
2354,22.38
2366,23.41
2378,22.45
2390,19.59
2402,15.29
2414,10.39
2426,5.88
2438,2.62
2450,1.1
2462,1.27
2474,2.7
2486,4.69
2498,6.57
2510,7.88
2522,8.44
2533,8.33
2544,7.73
2556,6.82
2568,5.68
2580,4.33
2592,2.71
2604,0.8
2616,-1.46
2628,-4.17
2640,-7.53
2652,-11.7
2664,-16.62
2676,-21.84
2688,-26.45
2700,-29.24
2712,-29.12
2723,-25.51
2734,-18.6
2746,-9.34
2758,0.91
2770,10.82
2782,19.41
2794,26.24
2806,31.2
2818,34.37
2830,35.73
2842,35.24
2854,32.9
2866,29.05
2878,24.31
2890,19.6
2902,15.76
2913,13.33
2924,12.33
2936,12.33
2948,12.67
2960,12.78
2972,12.36
2984,11.44
2996,10.19
3008,8.8
3020,7.38
3032,5.92
3044,4.32
3056,2.48
3068,0.22
3080,-2.68
3092,-6.49
3103,-11.43
3114,-17.41
3126,-23.87
3138,-29.76
3150,-33.74
3162,-34.54
3174,-31.5
3186,-24.72
3198,-15.1
3210,-4.0
3222,7.14
3234,17.17
3246,25.4
3258,31.56
3270,35.62
3282,37.67
3293,37.8
3304,36.15
3316,32.99
3328,28.8
3340,24.21
3352,19.96
3364,16.63
3376,14.54
3388,13.59
3400,13.35
3412,13.27
3424,12.89
3436,11.95
3448,10.47
3460,8.6
3472,6.5
3483,4.24
3494,1.77
3506,-1.0
3518,-4.11
3530,-7.57
3542,-11.39
3554,-15.66
3566,-20.57
3578,-26.25
3590,-32.53
3602,-38.76
3614,-43.8
3626,-46.28
3638,-45.08
3650,-39.75
3662,-30.72
3673,-19.17
3684,-6.63
3696,5.46
3708,16.09
3720,24.74
3732,31.24
3744,35.64
3756,38.05
3768,38.62
3780,37.6
3792,35.37
3804,32.49
3816,29.55
3828,27.08
3840,25.38
3852,24.41
3863,23.91
3874,23.44
3886,22.71
3898,21.66
3910,20.46
3922,19.42
3934,18.69
3946,18.1
3958,17.23
3970,15.52
3982,12.61
3994,8.49
4006,3.52
4018,-1.71
4030,-6.67
4042,-11.02
4053,-14.75
4064,-18.08
4076,-21.36
4088,-24.96
4100,-29.23
4112,-34.35
4124,-40.18
4136,-46.19
4148,-51.35
4160,-54.35
4172,-54.02
4184,-49.67
4196,-41.44
4208,-30.23
4220,-17.49
4232,-4.67
4243,7.04
4254,16.95
4266,24.84
4278,30.71
4290,34.7
4302,36.91
4314,37.49
4326,36.68
4338,34.87
4350,32.54
4362,30.24
4374,28.38
4386,27.17
4398,26.58
4410,26.45
4422,26.59
4433,26.92
4444,27.46
4456,28.23
4468,29.18
4480,30.04
4492,30.46
4504,30.1
4516,28.84
4528,26.79
4540,24.31
4552,21.8
4564,19.56
4576,17.65
4588,15.93
4600,14.13
4612,12.0
4623,9.44
4634,6.5
4646,3.43
4658,0.5
4670,-2.05
4682,-4.2
4694,-6.13
4706,-8.12
4718,-10.47
4730,-13.32
4742,-16.58
4754,-19.98
4766,-23.22
4778,-26.04
4790,-28.4
4802,-30.42
4813,-32.42
4824,-34.81
4836,-38.05
4848,-42.48
4860,-48.14
4872,-54.55
4884,-60.63
4896,-64.86
4908,-65.68
4920,-62.05
4932,-53.82
4944,-41.88
4956,-27.86
4968,-13.59
4980,-0.52
4992,10.51
5003,19.3
5014,26.0
5026,30.8
5038,33.8
5050,35.02
5062,34.62
5074,32.94
5086,30.57
5098,28.15
5110,26.2
5122,24.97
5134,24.43
5146,24.4
5158,24.63
5170,25.0
5182,25.51
5193,26.2
5204,27.12
5216,28.16
5228,29.09
5240,29.58
5252,29.31
5264,28.11
5276,26.07
5288,23.51
5300,20.88
5312,18.56
5324,16.66
5336,15.0
5348,13.25
5360,11.08
5372,8.43
5383,5.52
5394,2.71
5406,0.36
5418,-1.45
5430,-2.87
5442,-4.27
5454,-5.98
5466,-8.18
5478,-10.8
5490,-13.65
5502,-16.47
5514,-19.11
5526,-21.5
5538,-23.64
5550,-25.57
5562,-27.38
5573,-29.27
5584,-31.58
5596,-34.7
5608,-38.93
5620,-44.07
5632,-49.31
5644,-53.26
5656,-54.37
5668,-51.54
5680,-44.58
5692,-34.34
5704,-22.39
5716,-10.39
5728,0.42
5740,9.47
5752,16.75
5763,22.45
5774,26.7
5786,29.4
5798,30.44
5810,29.87
5822,28.02
5834,25.53
5846,23.04
5858,21.04
5870,19.78
5882,19.2
5894,19.13
5906,19.36
5918,19.78
5930,20.38
5942,21.18
5953,22.11
5964,23.02
5976,23.62
5988,23.63
6000,22.89
6012,21.48
6024,19.7
6036,17.87
6048,16.24
6060,14.82
6072,13.35
6084,11.54
6096,9.18
6108,6.31
6120,3.22
6132,0.27
6143,-2.27
6154,-4.33
6166,-6.09
6178,-7.79
6190,-9.65
6202,-11.73
6214,-13.93
6226,-16.1
6238,-18.09
6250,-19.86
6262,-21.44
6274,-22.92
6286,-24.48
6298,-26.3
6310,-28.65
6322,-31.74
6333,-35.61
6344,-39.91
6356,-43.85
6368,-46.3
6380,-46.14
6392,-42.65
6404,-35.83
6416,-26.41
6428,-15.63
6440,-4.82
6452,4.96
6464,13.1
6476,19.4
6488,23.86
6500,26.59
6512,27.66
6523,27.21
6534,25.52
6546,23.01
6558,20.19
6570,17.6
6582,15.6
6594,14.36
6606,13.82
6618,13.82
6630,14.15
6642,14.7
6654,15.42
6666,16.29
6678,17.22
6690,18.07
6702,18.65
6713,18.79
6724,18.42
6736,17.58
6748,16.36
6760,14.87
6772,13.16
6784,11.22
6796,9.05
6808,6.68
6820,4.2
6832,1.74
6844,-0.62
6856,-2.86
6868,-5.04
6880,-7.2
6892,-9.39
6903,-11.6
6914,-13.74
6926,-15.73
6938,-17.51
6950,-19.07
6962,-20.5
6974,-21.95
6986,-23.63
6998,-25.77
7010,-28.58
7022,-32.19
7034,-36.43
7046,-40.76
7058,-44.26
7070,-45.84
7082,-44.55
7093,-39.95
7104,-32.31
7116,-22.55
7128,-11.93
7140,-1.68
7152,7.32
7164,14.56
7176,19.88
7188,23.26
7200,24.79
7212,24.59
7224,22.92
7236,20.17
7248,16.9
7260,13.65
7272,10.9
7283,8.96
7294,7.92
7306,7.69
7318,8.04
7330,8.73
7342,9.62
7354,10.63
7366,11.79
7378,13.07
7390,14.35
7402,15.38
7414,15.89
7426,15.63
7438,14.54
7450,12.74
7462,10.49
7473,8.14
7484,5.94
7496,4.05
7508,2.4
7520,0.79
7532,-1.03
7544,-3.26
7556,-5.89
7568,-8.68
7580,-11.3
7592,-13.42
7604,-14.88
7616,-15.76
7628,-16.3
7640,-16.85
7652,-17.66
7663,-18.89
7674,-20.63
7686,-22.91
7698,-25.63
7710,-28.54
7722,-31.04
7734,-32.32
7746,-31.5
7758,-28.05
7770,-21.98
7782,-13.95
7794,-5.01
7806,3.77
7818,11.58
7830,18.01
7842,22.9
7853,26.17
7864,27.71
7876,27.41
7888,25.37
7900,22.0
7912,17.98
7924,14.07
7936,10.85
7948,8.61
7960,7.33
7972,6.81
7984,6.83
7996,7.24
8008,7.95
8020,8.87
8032,9.88
8043,10.76
8054,11.28
8066,11.23
8078,10.51
8090,9.2
8102,7.47
8114,5.59
8126,3.76
8138,2.03
8150,0.33
8162,-1.55
8174,-3.81
8186,-6.56
8198,-9.71
8210,-13.04
8222,-16.22
8233,-18.96
8244,-21.12
8256,-22.77
8268,-24.15
8280,-25.72
8292,-27.94
8304,-31.17
8316,-35.35
8328,-39.94
8340,-43.89
8352,-45.88
8364,-44.81
8376,-40.21
8388,-32.47
8400,-22.68
8412,-12.23
8423,-2.36
8434,6.17
8446,13.11
8458,18.5
8470,22.44
8482,24.89
8494,25.77
8506,25.1
8518,23.11
8530,20.22
8542,16.96
8554,13.82
8566,11.14
8578,9.1
8590,7.74
8602,7.06
8613,6.99
8624,7.4
8636,8.12
8648,8.95
8660,9.7
8672,10.2
8684,10.33
8696,10.04
8708,9.27
8720,7.96
8732,6.06
8744,3.57
8756,0.59
8768,-2.66
8780,-5.88
8792,-8.79
8803,-11.22
8814,-13.24
8826,-15.08
8838,-17.03
8850,-19.33
8862,-22.09
8874,-25.36
8886,-29.12
8898,-33.28
8910,-37.49
8922,-41.13
8934,-43.22
8946,-42.7
8958,-38.83
8970,-31.57
8982,-21.68
8993,-10.55
9004,0.3
9016,9.68
9028,16.99
9040,22.22
9052,25.65
9064,27.61
9076,28.28
9088,27.71
9100,25.93
9112,23.08
9124,19.53
9136,15.79
9148,12.42
9160,9.81
9172,8.11
9183,7.21
9194,6.85
9206,6.8
9218,6.9
9230,7.14
9242,7.51
9254,7.96
9266,8.28
9278,8.2
9290,7.48
9302,5.98
9314,3.78
9326,1.06
9338,-1.92
9350,-4.94
9362,-7.83
9373,-10.49
9384,-12.85
9396,-14.96
9408,-16.98
9420,-19.17
9432,-21.86
9444,-25.35
9456,-29.75
9468,-34.77
9480,-39.68
9492,-43.39
9504,-44.75
9516,-42.86
9528,-37.5
9540,-29.21
9552,-19.12
9563,-8.62
9574,1.12
9586,9.39
9598,16.0
9610,21.01
9622,24.57
9634,26.69
9646,27.26
9658,26.21
9670,23.67
9682,20.07
9694,16.09
9706,12.49
9718,9.88
9730,8.53
9742,8.32
9753,8.83
9764,9.54
9776,10.09
9788,10.38
9800,10.56
9812,10.83
9824,11.26
9836,11.7
9848,11.79
9860,11.15
9872,9.57
9884,7.07
9896,3.96
9908,0.63
9920,-2.57
9932,-5.45
9943,-8.04
9954,-10.48
9966,-12.99
9978,-15.77
9990,-18.95
10002,-22.66
10014,-26.91
10026,-31.54
10038,-36.1
10050,-39.79
10062,-41.59
10074,-40.54
10086,-36.14
10098,-28.61
10110,-18.88
10122,-8.3
10133,1.81
10144,10.51
10156,17.47
10168,22.69
10180,26.35
10192,28.52
10204,29.12
10216,28.04
10228,25.36
10240,21.46
10252,17.01
10264,12.82
10276,9.56
10288,7.66
10300,7.12
10312,7.63
10323,8.69
10334,9.8
10346,10.65
10358,11.12
10370,11.27
10382,11.22
10394,11.07
10406,10.8
10418,10.27
10430,9.27
10442,7.59
10454,5.18
10466,2.11
10478,-1.33
10490,-4.81
10502,-8.01
10513,-10.81
10524,-13.27
10536,-15.64
10548,-18.21
10560,-21.21
10572,-24.75
10584,-28.77
10596,-33.05
10608,-37.12
10620,-40.22
10632,-41.45
10644,-39.91
10656,-35.13
10668,-27.27
10680,-17.2
10692,-6.28
10703,4.08
10714,12.83
10726,19.48
10738,24.06
10750,26.78
10762,27.9
10774,27.52
10786,25.74
10798,22.79
10810,19.17
10822,15.56
10834,12.65
10846,10.87
10858,10.29
10870,10.62
10882,11.38
10893,12.16
10904,12.71
10916,12.99
10928,13.11
10940,13.13
10952,13.0
10964,12.6
10976,11.74
10988,10.3
11000,8.29
11012,5.81
11024,3.05
11036,0.21
11048,-2.53
11060,-5.06
11072,-7.33
11083,-9.36
11094,-11.3
11106,-13.34
11118,-15.76
11130,-18.79
11142,-22.5
11154,-26.66
11166,-30.64
11178,-33.53
11190,-34.31
11202,-32.28
11214,-27.24
11226,-19.65
11238,-10.48
11250,-0.86
11262,8.23
11273,16.14
11284,22.54
11296,27.26
11308,30.2
11320,31.25
11332,30.43
11344,27.95
11356,24.33
11368,20.26
11380,16.5
11392,13.61
11404,11.8
11416,10.94
11428,10.7
11440,10.68
11452,10.64
11463,10.52
11474,10.4
11486,10.36
11498,10.35
11510,10.17
11522,9.54
11534,8.24
11546,6.25
11558,3.71
11570,0.89
11582,-1.95
11594,-4.63
11606,-7.14
11618,-9.54
11630,-12.01
11642,-14.75
11653,-17.99
11664,-21.91
11676,-26.56
11688,-31.75
11700,-36.86
11712,-40.95
11724,-42.89
11736,-41.76
11748,-37.19
11760,-29.55
11772,-19.86
11784,-9.48
11796,0.4
11808,8.99
11820,15.96
11832,21.28
11843,24.95
11854,26.87
11866,26.87
11878,24.97
11890,21.49
11902,17.15
11914,12.87
11926,9.48
11938,7.45
11950,6.81
11962,7.19
11974,8.03
11986,8.82
11998,9.32
12010,9.52
12022,9.58
12033,9.66
12044,9.75
12056,9.68
12068,9.1
12080,7.73
12092,5.44
12104,2.32
12116,-1.28
12128,-4.93
12140,-8.27
12152,-11.16
12164,-13.7
12176,-16.17
12188,-18.94
12200,-22.31
12212,-26.47
12223,-31.45
12234,-37.03
12246,-42.7
12258,-47.54
12270,-50.38
12282,-50.11
12294,-46.1
12306,-38.44
12318,-28.09
12330,-16.47
12342,-5.08
12354,5.01
12366,13.28
12378,19.72
12390,24.43
12402,27.45
12413,28.69
12424,28.12
12436,25.92
12448,22.61
12460,18.93
12472,15.63
12484,13.26
12496,12.03
12508,11.85
12520,12.41
12532,13.36
12544,14.34
12556,15.14
12568,15.64
12580,15.82
12592,15.66
12603,15.12
12614,14.14
12626,12.58
12638,10.39
12650,7.57
12662,4.23
12674,0.63
12686,-2.97
12698,-6.31
12710,-9.27
12722,-11.87
12734,-14.3
12746,-16.8
12758,-19.66
12770,-23.11
12782,-27.27
12793,-32.13
12804,-37.44
12816,-42.6
12828,-46.69
12840,-48.6
12852,-47.34
12864,-42.44
12876,-34.13
12888,-23.38
12900,-11.59
12912,-0.11
12924,10.02
12936,18.29
12948,24.56
12960,28.9
12972,31.37
12983,32.04
12994,31.06
13006,28.73
13018,25.61
13030,22.37
13042,19.63
13054,17.79
13066,16.96
13078,16.97
13090,17.54
13102,18.37
13114,19.26
13126,20.13
13138,20.92
13150,21.54
13162,21.82
13173,21.58
13184,20.69
13196,19.19
13208,17.23
13220,15.01
13232,12.66
13244,10.21
13256,7.53
13268,4.49
13280,1.04
13292,-2.7
13304,-6.48
13316,-10.01
13328,-13.1
13340,-15.73
13352,-18.05
13363,-20.4
13374,-23.2
13386,-26.79
13398,-31.35
13410,-36.66
13422,-42.06
13434,-46.41
13446,-48.47
13458,-47.2
13470,-42.18
13482,-33.81
13494,-23.19
13506,-11.74
13518,-0.75
13530,8.92
13542,16.91
13553,23.22
13564,27.9
13576,30.85
13588,31.94
13600,31.1
13612,28.6
13624,25.09
13636,21.48
13648,18.65
13660,17.1
13672,16.79
13684,17.3
13696,18.09
13708,18.8
13720,19.42
13732,20.1
13743,20.98
13754,21.96
13766,22.68
13778,22.68
13790,21.67
13802,19.65
13814,16.97
13826,14.1
13838,11.43
13850,9.15
13862,7.18
13874,5.27
13886,3.14
13898,0.62
13910,-2.32
13922,-5.5
13933,-8.65
13944,-11.46
13956,-13.74
13968,-15.51
13980,-16.96
13992,-18.44
14004,-20.31
14016,-22.91
14028,-26.42
14040,-30.84
14052,-35.89
14064,-40.85
14076,-44.71
14088,-46.27
14100,-44.53
14112,-39.09
14123,-30.36
14134,-19.47
14146,-7.92
14158,2.89
14170,12.04
14182,19.18
14194,24.36
14206,27.76
14218,29.52
14230,29.7
14242,28.42
14254,26.01
14266,23.0
14278,20.03
14290,17.63
14302,16.11
14313,15.49
14324,15.59
14336,16.17
14348,17.01
14360,18.0
14372,19.1
14384,20.25
14396,21.32
14408,22.14
14420,22.46
14432,22.05
14444,20.78
14456,18.67
14468,15.95
14480,12.98
14492,10.19
14503,7.83
14514,5.89
14526,4.1
14538,2.06
14550,-0.53
14562,-3.74
14574,-7.27
14586,-10.72
14598,-13.68
14610,-15.97
14622,-17.67
14634,-19.09
14646,-20.62
14658,-22.63
14670,-25.42
14682,-29.15
14693,-33.74
14704,-38.65
14716,-42.91
14728,-45.23
14740,-44.41
14752,-39.78
14764,-31.54
14776,-20.74
14788,-8.95
14800,2.3
14812,11.95
14824,19.52
14836,25.01
14848,28.6
14860,30.38
14872,30.38
14883,28.71
14894,25.7
14906,22.01
14918,18.44
14930,15.69
14942,14.1
14954,13.6
14966,13.83
14978,14.38
14990,15.01
15002,15.71
15014,16.6
15026,17.73
15038,18.95
15050,19.91
15062,20.21
15073,19.59
15084,18.03
15096,15.81
15108,13.33
15120,10.96
15132,8.89
15144,7.09
15156,5.35
15168,3.42
15180,1.13
15192,-1.54
15204,-4.4
15216,-7.23
15228,-9.78
15240,-11.94
15252,-13.77
15263,-15.47
15274,-17.31
15286,-19.59
15298,-22.5
15310,-26.07
15322,-30.01
15334,-33.64
15346,-35.97
15358,-35.95
15370,-32.86
15382,-26.59
15394,-17.75
15406,-7.52
15418,2.77
15430,12.08
15442,19.83
15453,25.92
15464,30.47
15476,33.58
15488,35.16
15500,35.06
15512,33.31
15524,30.33
15536,26.92
15548,24.08
15560,22.7
15572,23.18
15584,25.43
15596,28.88
15608,32.82
15620,36.63
15632,39.98
15643,42.89
15654,45.59
15666,48.43
15678,51.66
15690,55.33
15702,59.26
15714,63.07
15726,66.38
15738,69.05
15750,71.25
15762,73.49
15774,76.41
15786,80.51
15798,85.96
15810,92.47
15822,99.48
15833,106.36
15844,112.73
15856,118.58
15868,124.36
15880,130.9
15892,139.21
15904,150.25
15916,164.46
15928,181.34
15940,199.21
15952,215.26
15964,226.15
15976,228.89
15988,221.78
16000,204.94
16012,180.13
16023,150.02
16034,117.15
16046,83.21
16058,48.78
16070,13.72
16082,-22.14
16094,-58.49
16106,-94.41
16118,-128.62
16130,-160.01
16142,-187.95
16154,-212.38
16166,-233.65
16178,-252.1
16190,-267.84
16202,-280.53
16213,-289.39
16224,-293.39
16236,-291.55
16248,-283.23
16260,-268.49
16272,-248.19
16284,-223.99
16296,-198.08
16308,-172.76
16320,-150.01
16332,-131.09
16344,-116.48
16356,-105.95
16368,-98.79
16380,-94.1
16392,-90.94
16403,-88.5
16414,-86.1
16426,-83.29
16438,-80.0
16450,-76.54
16462,-73.57
16474,-71.84
16486,-71.75
16498,-73.03
16510,-74.59
16522,-74.8
16534,-72.01
16546,-65.21
16558,-54.44
16570,-40.7
16582,-25.56
16593,-10.59
16604,3.08
16616,14.85
16628,24.44
16640,31.7
16652,36.49
16664,38.78
16676,38.86
16688,37.49
16700,35.8
16712,34.88
16724,35.51
16736,37.9
16748,41.56
16760,45.47
16772,48.31
16783,48.82
16794,46.01
16806,39.57
16818,29.92
16830,18.49
16842,7.43
16854,-1.02
16866,-5.3
16878,-5.1
16890,-1.38
16902,3.83
16914,8.3
16926,10.0
16938,7.99
16950,2.42
16962,-5.83
16973,-15.54
16984,-25.59
16996,-34.93
17008,-43.2
17020,-50.46
17032,-57.77
17044,-66.31
17056,-76.97
17068,-89.87
17080,-104.04
17092,-117.63
17104,-128.12
17116,-133.96
17128,-134.76
17140,-132.13
17152,-128.34
17163,-125.49
17174,-124.9
17186,-126.67
17198,-130.04
17210,-133.29
17222,-135.38
17234,-130.1
17246,-113.9
17258,-86.23
17270,-50.29
17282,-12.26
17294,21.6
17306,44.15
17318,55.93
17330,60.15
17342,60.52
17353,59.09
17364,56.67
17376,54.16
17388,51.58
17400,49.19
17412,47.67
17424,48.53
17436,52.5
17448,59.68
17460,68.8
17472,78.24
17484,86.58
17496,93.06
17508,98.07
17520,102.91
17532,109.53
17543,119.1
17554,132.04
17566,147.77
17578,165.37
17590,183.85
17602,201.97
17614,218.22
17626,230.58
17638,237.0
17650,235.6
17662,225.86
17674,209.0
17686,187.92
17698,166.13
17710,146.39
17722,130.02
17733,116.86
17744,106.04
17756,96.71
17768,88.58
17780,81.75
17792,76.21
17804,71.33
17816,65.84
17828,58.38
17840,48.28
17852,35.99
17864,22.89
17876,10.78
17888,1.05
17900,-5.92
17912,-10.81
17923,-15.0
17934,-19.95
17946,-26.57
17958,-34.97
17970,-44.62
17982,-54.73
17994,-64.67
18006,-74.27
18018,-83.78
18030,-93.67
18042,-104.29
18054,-115.58
18066,-126.99
18078,-137.64
18090,-146.64
18102,-153.32
18113,-157.48
18124,-159.32
18136,-159.35
18148,-158.14
18160,-156.19
18172,-153.79
18184,-150.83
18196,-146.63
18208,-139.76
18220,-128.22
18232,-110.02
18244,-84.02
18256,-50.72
18268,-12.49
18280,27.0
18292,63.79
18303,94.78
18314,118.34
18326,134.31
18338,143.33
18350,146.1
18362,142.92
18374,133.81
18386,119.01
18398,99.41
18410,76.81
18422,53.66
18434,32.38
18446,14.74
18458,1.31
18470,-8.43
18482,-15.75
18493,-22.0
18504,-28.03
18516,-33.99
18528,-39.56
18540,-44.38
18552,-48.5
18564,-52.53
18576,-57.43
18588,-64.02
18600,-72.55
18612,-82.39
18624,-92.14
18636,-100.1
18648,-104.74
18660,-105.29
18672,-101.87
18683,-95.44
18694,-87.42
18706,-79.28
18718,-72.16
18730,-66.69
18742,-62.93
18754,-60.43
18766,-58.28
18778,-55.37
18790,-50.67
18802,-43.44
18814,-33.53
18826,-21.35
18838,-7.76
18850,6.16
18862,19.32
18873,30.76
18884,39.66
18896,45.41
18908,47.72
18920,46.73
18932,43.09
18944,37.93
18956,32.51
18968,27.92
18980,24.77
18992,23.15
19004,22.82
19016,23.36
19028,24.45
19040,25.93
19052,27.67
19063,29.46
19074,30.91
19086,31.49
19098,30.72
19110,28.29
19122,24.23
19134,18.88
19146,12.82
19158,6.69
19170,0.98
19182,-4.06
19194,-8.45
19206,-12.49
19218,-16.59
19230,-21.21
19242,-26.57
19253,-32.5
19264,-38.32
19276,-42.95
19288,-45.1
19300,-43.72
19312,-38.37
19324,-29.45
19336,-18.04
19348,-5.63
19360,6.4
19372,17.07
19384,25.91
19396,32.8
19408,37.74
19420,40.69
19432,41.58
19443,40.52
19454,37.89
19466,34.35
19478,30.72
19490,27.67
19502,25.54
19514,24.32
19526,23.72
19538,23.48
19550,23.47
19562,23.69
19574,24.16
19586,24.77
19598,25.19
19610,24.92
19622,23.56
19633,20.87
19644,16.98
19656,12.27
19668,7.21
19680,2.23
19692,-2.44
19704,-6.83
19716,-11.13
19728,-15.64
19740,-20.69
19752,-26.46
19764,-32.88
19776,-39.47
19788,-45.3
19800,-49.12
19812,-49.68
19823,-46.09
19834,-38.17
19846,-26.63
19858,-12.83
19870,1.55
19882,15.0
19894,26.51
19906,35.59
19918,42.19
19930,46.38
19942,48.25
19954,47.88
19966,45.53
19978,41.73
19990,37.31
20002,33.19
20013,30.15
20024,28.55
20036,28.29
20048,28.93
20060,29.92
20072,30.89
20084,31.7
20096,32.45
20108,33.32
20120,34.4
20132,35.6
20144,36.67
20156,37.26
20168,37.13
20180,36.24
20192,34.67
20203,32.64
20214,30.3
20226,27.71
20238,24.87
20250,21.82
20262,18.72
20274,15.85
20286,13.44
20298,11.42
20310,9.4
20322,6.83
20334,3.42
20346,-0.41
20358,-3.45
20370,-3.9
20382,-0.06
20393,9.05
20404,23.29
20416,41.49
20428,61.81
20440,82.25
20452,100.88
20464,115.96
20476,125.86
20488,129.32
20500,125.8
20512,115.89
20524,101.31
20536,84.48
20548,67.49
20560,51.29
20572,35.25
20583,17.72
20594,-2.89
20606,-26.8
20618,-52.2
20630,-75.55
20642,-92.85
20654,-101.22
20666,-99.97
20678,-90.85
20690,-77.15
20702,-62.54
20714,-49.9
20726,-40.86
20738,-35.91
20750,-34.82
20762,-37.07
20773,-42.05
20784,-49.06
20796,-57.28
20808,-65.86
20820,-74.08
20832,-81.45
20844,-87.7
20856,-92.69
20868,-96.23
20880,-98.05
20892,-97.83
20904,-95.36
20916,-90.68
20928,-84.19
20940,-76.5
20952,-68.34
20963,-60.16
20974,-51.97
20986,-43.25
20998,-33.23
