seconds,BVP
8,16.38
20,15.81
31,15.02
42,14.16
54,13.51
66,13.38
78,13.88
90,14.84
102,15.86
114,16.46
126,16.24
138,15.05
150,12.98
162,10.28
174,7.24
186,4.05
198,0.8
210,-2.51
221,-5.97
232,-9.58
244,-13.35
256,-17.22
268,-21.05
280,-24.65
292,-27.78
304,-30.25
316,-32.04
328,-33.3
340,-34.4
352,-35.79
364,-37.79
376,-40.49
388,-43.66
400,-46.82
411,-49.29
422,-50.41
434,-49.61
446,-46.6
458,-41.43
470,-34.5
482,-26.48
494,-18.14
506,-10.18
518,-3.04
530,3.07
542,8.15
554,12.3
566,15.59
578,18.06
590,19.74
601,20.73
612,21.17
624,21.3
636,21.33
648,21.43
660,21.62
672,21.86
684,22.02
696,22.02
708,21.9
720,21.77
732,21.76
744,21.93
756,22.21
768,22.36
780,22.11
791,21.19
802,19.53
814,17.23
826,14.58
838,11.9
850,9.45
862,7.35
874,5.45
886,3.55
898,1.41
910,-1.08
922,-3.85
934,-6.69
946,-9.35
958,-11.7
970,-13.73
981,-15.61
992,-17.59
1004,-19.93
1016,-22.82
1028,-26.32
1040,-30.25
1052,-34.15
1064,-37.35
1076,-39.04
1088,-38.62
1100,-35.81
1112,-30.9
1124,-24.52
1136,-17.52
1148,-10.68
1160,-4.52
1171,0.67
1182,4.86
1194,8.11
1206,10.5
1218,12.15
1230,13.16
1242,13.68
1254,13.89
1266,13.95
1278,13.97
1290,14.06
1302,14.19
1314,14.33
1326,14.37
1338,14.24
1350,13.9
1361,13.41
1372,12.86
1384,12.34
1396,11.85
1408,11.34
1420,10.72
1432,9.9
1444,8.83
1456,7.53
1468,6.06
1480,4.53
1492,3.0
1504,1.52
1516,0.04
1528,-1.55
1540,-3.36
1551,-5.43
1562,-7.68
1574,-9.93
1586,-11.98
1598,-13.7
1610,-15.1
1622,-16.36
1634,-17.74
1646,-19.56
1658,-22.06
1670,-25.3
1682,-29.15
1694,-33.17
1706,-36.7
1718,-38.89
1730,-38.96
1741,-36.43
1752,-31.27
1764,-24.0
1776,-15.53
1788,-6.88
1800,1.09
1812,7.87
1824,13.35
1836,17.75
1848,21.43
1860,24.8
1872,28.22
1884,31.96
1896,36.14
1908,40.66
1920,45.12
1931,48.92
1942,51.32
1954,51.75
1966,50.05
1978,46.53
1990,41.87
2002,36.85
2014,32.05
2026,27.67
2038,23.54
2050,19.23
2062,14.32
2074,8.59
2086,2.03
2098,-5.1
2110,-12.39
2121,-19.32
2132,-25.42
2144,-30.37
2156,-34.12
2168,-36.86
2180,-38.98
2192,-40.87
2204,-42.75
2216,-44.61
2228,-46.23
2240,-47.4
2252,-48.09
2264,-48.5
2276,-49.02
2288,-50.03
2300,-51.7
2311,-53.86
2322,-56.06
2334,-57.71
2346,-58.17
2358,-56.87
2370,-53.37
2382,-47.46
2394,-39.23
2406,-29.11
2418,-17.88
2430,-6.52
2442,3.97
2454,12.83
2466,19.62
2478,24.29
2490,27.07
2501,28.32
2512,28.42
2524,27.7
2536,26.4
2548,24.71
2560,22.83
2572,20.97
2584,19.37
2596,18.19
2608,17.53
2620,17.35
2632,17.53
2644,17.87
2656,18.21
2668,18.4
2680,18.3
2691,17.83
2702,16.91
2714,15.51
2726,13.62
2738,11.29
2750,8.65
2762,5.8
2774,2.85
2786,-0.17
2798,-3.23
2810,-6.4
2822,-9.72
2834,-13.22
2846,-16.86
2858,-20.6
2870,-24.4
2881,-28.29
2892,-32.4
2904,-36.82
2916,-41.48
2928,-46.01
2940,-49.78
2952,-52.03
2964,-52.12
2976,-49.79
2988,-45.25
3000,-39.06
3012,-32.0
3024,-24.79
3036,-17.97
3048,-11.86
3060,-6.63
3071,-2.37
3082,0.9
3094,3.15
3106,4.5
3118,5.15
3130,5.39
3142,5.52
3154,5.76
3166,6.26
3178,7.1
3190,8.28
3202,9.85
3214,11.83
3226,14.21
3238,16.89
3250,19.71
3261,22.41
3272,24.75
3284,26.52
3296,27.63
3308,28.03
3320,27.73
3332,26.79
3344,25.24
3356,23.1
3368,20.35
3380,17.04
3392,13.18
3404,8.88
3416,4.27
3428,-0.46
3440,-5.15
3451,-9.68
3462,-14.07
3474,-18.45
3486,-23.06
3498,-28.12
3510,-33.74
3522,-39.76
3534,-45.64
3546,-50.56
3558,-53.59
3570,-53.94
3582,-51.33
3594,-45.99
3606,-38.64
3618,-30.23
3630,-21.67
3641,-13.59
3652,-6.29
3664,0.18
3676,5.88
3688,10.88
3700,15.18
3712,18.73
3724,21.47
3736,23.39
3748,24.56
3760,25.16
3772,25.38
3784,25.43
3796,25.42
3808,25.41
3820,25.37
3831,25.3
3842,25.19
3854,25.01
3866,24.71
3878,24.18
3890,23.26
3902,21.87
3914,20.02
3926,17.83
3938,15.48
3950,13.12
3962,10.82
3974,8.51
3986,6.1
3998,3.5
4010,0.67
4021,-2.35
4032,-5.47
4044,-8.62
4056,-11.74
4068,-14.86
4080,-18.07
4092,-21.57
4104,-25.6
4116,-30.34
4128,-35.81
4140,-41.71
4152,-47.35
4164,-51.76
4176,-53.95
4188,-53.2
4200,-49.35
4211,-42.84
4222,-34.55
4234,-25.46
4246,-16.41
4258,-7.88
4270,-0.05
4282,7.03
4294,13.3
4306,18.64
4318,22.89
4330,25.98
4342,28.01
4354,29.2
4366,29.85
4378,30.25
4390,30.58
4401,30.96
4412,31.43
4424,31.98
4436,32.58
4448,33.16
4460,33.6
4472,33.8
4484,33.64
4496,33.04
4508,31.95
4520,30.38
4532,28.36
4544,25.99
4556,23.41
4568,20.76
4580,18.14
4591,15.55
4602,12.87
4614,9.96
4626,6.66
4638,2.97
4650,-0.98
4662,-4.98
4674,-8.8
4686,-12.34
4698,-15.73
4710,-19.28
4722,-23.39
4734,-28.41
4746,-34.36
4758,-40.82
4770,-46.95
4781,-51.61
4792,-53.77
4804,-52.74
4816,-48.47
4828,-41.42
4840,-32.49
4852,-22.72
4864,-13.01
4876,-4.05
4888,3.78
4900,10.34
4912,15.66
4924,19.87
4936,23.13
4948,25.55
4960,27.26
4971,28.37
4982,29.06
4994,29.53
5006,29.95
5018,30.39
5030,30.85
5042,31.25
5054,31.57
5066,31.87
5078,32.25
5090,32.76
5102,33.32
5114,33.6
5126,33.25
5138,32.0
5150,29.86
5161,27.1
5172,24.14
5184,21.34
5196,18.84
5208,16.53
5220,14.11
5232,11.33
5244,8.06
5256,4.37
5268,0.44
5280,-3.49
5292,-7.3
5304,-11.0
5316,-14.69
5328,-18.62
5340,-23.04
5351,-28.15
5362,-33.96
5374,-40.16
5386,-46.09
5398,-50.86
5410,-53.45
5422,-53.13
5434,-49.59
5446,-43.12
5458,-34.5
5470,-24.73
5482,-14.81
5494,-5.45
5506,2.9
5518,10.11
5530,16.15
5541,21.09
5552,24.96
5564,27.83
5576,29.77
5588,30.95
5600,31.56
5612,31.84
5624,32.04
5636,32.34
5648,32.83
5660,33.48
5672,34.19
5684,34.84
5696,35.33
5708,35.64
5720,35.69
5731,35.36
5742,34.47
5754,32.89
5766,30.59
5778,27.76
5790,24.69
5802,21.73
5814,19.07
5826,16.7
5838,14.41
5850,11.92
5862,9.02
5874,5.69
5886,2.06
5898,-1.58
5910,-4.97
5921,-7.99
5932,-10.72
5944,-13.45
5956,-16.58
5968,-20.51
5980,-25.46
5992,-31.36
6004,-37.77
6016,-43.93
6028,-48.82
6040,-51.46
6052,-51.13
6064,-47.61
6076,-41.26
6088,-32.9
6100,-23.54
6111,-14.12
6122,-5.27
6134,2.74
6146,9.82
6158,16.0
6170,21.21
6182,25.33
6194,28.32
6206,30.25
6218,31.41
6230,32.16
6242,32.83
6254,33.64
6266,34.58
6278,35.56
6290,36.42
6301,37.07
6312,37.53
6324,37.84
6336,38.07
6348,38.17
6360,37.98
6372,37.25
6384,35.78
6396,33.52
6408,30.65
6420,27.51
6432,24.49
6444,21.84
6456,19.56
6468,17.4
6480,15.01
6491,12.14
6502,8.71
6514,4.89
6526,0.95
6538,-2.85
6550,-6.4
6562,-9.74
6574,-13.03
6586,-16.51
6598,-20.41
6610,-24.92
6622,-30.2
6634,-36.15
6646,-42.38
6658,-48.14
6670,-52.42
6681,-54.24
6692,-52.97
6704,-48.54
6716,-41.55
6728,-32.97
6740,-23.81
6752,-14.78
6764,-6.27
6776,1.64
6788,8.92
6800,15.41
6812,20.85
6824,24.99
6836,27.75
6848,29.34
6860,30.18
6871,30.7
6882,31.2
6894,31.77
6906,32.32
6918,32.75
6930,33.02
6942,33.21
6954,33.41
6966,33.67
6978,33.96
6990,34.16
7002,34.16
7014,33.86
7026,33.19
7038,32.07
7050,30.44
7061,28.29
7072,25.75
7084,23.03
7096,20.4
7108,18.02
7120,15.85
7132,13.64
7144,11.07
7156,7.88
7168,4.08
7180,-0.1
7192,-4.25
7204,-8.05
7216,-11.36
7228,-14.32
7240,-17.22
7251,-20.41
7262,-24.19
7274,-28.72
7286,-33.99
7298,-39.8
7310,-45.69
7322,-50.93
7334,-54.61
7346,-55.85
7358,-54.08
7370,-49.25
7382,-41.9
7394,-32.99
7406,-23.58
7418,-14.51
7430,-6.26
7441,1.07
7452,7.52
7464,13.18
7476,18.03
7488,21.99
7500,24.91
7512,26.8
7524,27.75
7536,28.03
7548,27.97
7560,27.87
7572,27.96
7584,28.28
7596,28.78
7608,29.32
7620,29.82
7631,30.22
7642,30.53
7654,30.74
7666,30.76
7678,30.45
7690,29.64
7702,28.23
7714,26.21
7726,23.73
7738,21.0
7750,18.26
7762,15.66
7774,13.23
7786,10.89
7798,8.47
7810,5.83
7821,2.89
7832,-0.3
7844,-3.63
7856,-6.87
7868,-9.87
7880,-12.57
7892,-15.07
7904,-17.64
7916,-20.59
7928,-24.2
7940,-28.62
7952,-33.77
7964,-39.31
7976,-44.64
7988,-48.96
8000,-51.49
8011,-51.59
8022,-49.0
8034,-43.91
8046,-36.91
8058,-28.79
8070,-20.32
8082,-12.07
8094,-4.3
8106,2.9
8118,9.46
8130,15.2
8142,19.85
8154,23.11
8166,24.9
8178,25.39
8190,25.03
8201,24.36
8212,23.88
8224,23.82
8236,24.18
8248,24.77
8260,25.36
8272,25.79
8284,26.02
8296,26.07
8308,25.98
8320,25.74
8332,25.31
8344,24.64
8356,23.7
8368,22.47
8380,20.96
8391,19.18
8402,17.14
8414,14.92
8426,12.59
8438,10.25
8450,7.91
8462,5.51
8474,2.97
8486,0.17
8498,-2.87
8510,-6.03
8522,-9.13
8534,-12.03
8546,-14.67
8558,-17.19
8570,-19.79
8581,-22.72
8592,-26.18
8604,-30.25
8616,-34.85
8628,-39.68
8640,-44.15
8652,-47.48
8664,-48.88
8676,-47.77
8688,-44.02
8700,-38.03
8712,-30.6
8724,-22.64
8736,-14.85
8748,-7.65
8760,-1.14
8771,4.67
8782,9.75
8794,13.96
8806,17.11
8818,19.15
8830,20.19
8842,20.55
8854,20.62
8866,20.71
8878,20.95
8890,21.31
8902,21.67
8914,21.93
8926,22.1
8938,22.23
8950,22.42
8961,22.67
8972,22.87
8984,22.85
8996,22.45
9008,21.51
9020,20.01
9032,18.02
9044,15.71
9056,13.31
9068,11.03
9080,9.05
9092,7.35
9104,5.77
9116,4.02
9128,1.84
9140,-0.95
9151,-4.29
9162,-7.9
9174,-11.43
9186,-14.54
9198,-17.05
9210,-19.01
9222,-20.64
9234,-22.3
9246,-24.35
9258,-27.09
9270,-30.64
9282,-34.89
9294,-39.37
9306,-43.39
9318,-46.08
9330,-46.69
9341,-44.79
9352,-40.48
9364,-34.3
9376,-27.05
9388,-19.55
9400,-12.4
9412,-5.9
9424,-0.12
9436,4.95
9448,9.29
9460,12.8
9472,15.37
9484,17.01
9496,17.83
9508,18.08
9520,18.05
9531,17.96
9542,17.92
9554,17.94
9566,18.0
9578,18.11
9590,18.31
9602,18.68
9614,19.19
9626,19.74
9638,20.12
9650,20.1
9662,19.52
9674,18.35
9686,16.72
9698,14.81
9710,12.85
9721,10.98
9732,9.28
9744,7.74
9756,6.27
9768,4.73
9780,3.02
9792,1.04
9804,-1.18
9816,-3.56
9828,-5.99
9840,-8.36
9852,-10.64
9864,-12.85
9876,-15.09
9888,-17.5
9900,-20.26
9911,-23.52
9922,-27.37
9934,-31.75
9946,-36.34
9958,-40.57
9970,-43.67
9982,-44.89
9994,-43.71
10006,-40.08
10018,-34.41
10030,-27.48
10042,-20.15
10054,-13.12
10066,-6.8
10078,-1.28
10090,3.49
10101,7.59
10112,10.96
10124,13.5
10136,15.1
10148,15.82
10160,15.9
10172,15.73
10184,15.6
10196,15.66
10208,15.83
10220,15.94
10232,15.88
10244,15.66
10256,15.41
10268,15.3
10280,15.37
10291,15.52
10302,15.6
10314,15.44
10326,14.98
10338,14.19
10350,13.1
10362,11.72
10374,10.09
10386,8.27
10398,6.4
10410,4.57
10422,2.81
10434,1.05
10446,-0.87
10458,-3.08
10470,-5.6
10481,-8.33
10492,-11.07
10504,-13.66
10516,-16.01
10528,-18.15
10540,-20.16
10552,-22.17
10564,-24.32
10576,-26.77
10588,-29.69
10600,-33.15
10612,-36.98
10624,-40.65
10636,-43.34
10648,-44.16
10660,-42.48
10671,-38.2
10682,-31.86
10694,-24.35
10706,-16.66
10718,-9.53
10730,-3.27
10742,2.08
10754,6.61
10766,10.32
10778,13.13
10790,14.93
10802,15.74
10814,15.72
10826,15.22
10838,14.59
10850,14.13
10861,13.98
10872,14.14
10884,14.49
10896,14.89
10908,15.24
10920,15.55
10932,15.84
10944,16.17
10956,16.48
10968,16.64
10980,16.47
10992,15.8
11004,14.61
11016,12.95
11028,11.01
11040,8.98
11051,7.01
11062,5.18
11074,3.49
11086,1.84
11098,0.12
11110,-1.77
11122,-3.85
11134,-6.07
11146,-8.33
11158,-10.51
11170,-12.61
11182,-14.7
11194,-16.95
11206,-19.49
11218,-22.38
11230,-25.61
11241,-29.16
11252,-32.93
11264,-36.78
11276,-40.41
11288,-43.27
11300,-44.67
11312,-44.0
11324,-40.96
11336,-35.72
11348,-28.93
11360,-21.47
11372,-14.19
11384,-7.64
11396,-2.02
11408,2.72
11420,6.73
11431,10.08
11442,12.74
11454,14.62
11466,15.66
11478,15.93
11490,15.63
11502,15.05
11514,14.48
11526,14.15
11538,14.13
11550,14.35
11562,14.67
11574,14.97
11586,15.21
11598,15.4
11610,15.6
11621,15.78
11632,15.8
11644,15.48
11656,14.68
11668,13.36
11680,11.66
11692,9.83
11704,8.06
11716,6.41
11728,4.82
11740,3.12
11752,1.16
11764,-1.14
11776,-3.78
11788,-6.66
11800,-9.64
11811,-12.61
11822,-15.41
11834,-17.95
11846,-20.21
11858,-22.29
11870,-24.42
11882,-26.95
11894,-30.16
11906,-34.11
11918,-38.53
11930,-42.77
11942,-45.98
11954,-47.32
11966,-46.23
11978,-42.62
11990,-36.83
12001,-29.59
12012,-21.74
12024,-14.02
12036,-6.98
12048,-0.92
12060,4.07
12072,8.06
12084,11.13
12096,13.4
12108,14.99
12120,16.01
12132,16.59
12144,16.89
12156,17.03
12168,17.13
12180,17.22
12191,17.26
12202,17.24
12214,17.16
12226,17.11
12238,17.21
12250,17.53
12262,18.0
12274,18.41
12286,18.42
12298,17.76
12310,16.29
12322,14.11
12334,11.53
12346,8.93
12358,6.66
12370,4.86
12381,3.46
12392,2.18
12404,0.7
12416,-1.22
12428,-3.62
12440,-6.35
12452,-9.17
12464,-11.88
12476,-14.47
12488,-17.02
12500,-19.75
12512,-22.8
12524,-26.26
12536,-30.15
12548,-34.37
12560,-38.73
12571,-42.84
12582,-46.09
12594,-47.78
12606,-47.28
12618,-44.27
12630,-38.88
12642,-31.67
12654,-23.48
12666,-15.18
12678,-7.5
12690,-0.86
12702,4.58
12714,8.83
12726,12.05
12738,14.41
12750,16.06
12761,17.16
12772,17.84
12784,18.25
12796,18.5
12808,18.74
12820,19.01
12832,19.32
12844,19.62
12856,19.85
12868,19.94
12880,19.87
12892,19.67
12904,19.33
12916,18.83
12928,18.12
12940,17.11
12951,15.77
12962,14.11
12974,12.21
12986,10.17
12998,8.03
13010,5.78
13022,3.33
13034,0.65
13046,-2.22
13058,-5.15
13070,-7.97
13082,-10.58
13094,-13.07
13106,-15.65
13118,-18.61
13130,-22.19
13141,-26.47
13152,-31.36
13164,-36.54
13176,-41.51
13188,-45.64
13200,-48.21
13212,-48.58
13224,-46.39
13236,-41.72
13248,-35.06
13260,-27.23
13272,-19.13
13284,-11.46
13296,-4.66
13308,1.18
13320,6.08
13331,10.17
13342,13.52
13354,16.21
13366,18.34
13378,20.02
13390,21.46
13402,22.84
13414,24.34
13426,26.12
13438,28.28
13450,30.87
13462,33.84
13474,37.03
13486,40.17
13498,42.89
13510,44.85
13521,45.76
13532,45.52
13544,44.24
13556,42.2
13568,39.79
13580,37.33
13592,34.98
13604,32.74
13616,30.44
13628,27.9
13640,25.06
13652,22.05
13664,19.14
13676,16.61
13688,14.69
13700,13.43
13711,12.77
13722,12.44
13734,12.1
13746,11.29
13758,9.6
13770,6.8
13782,3.02
13794,-1.19
13806,-4.94
13818,-7.33
13830,-7.83
13842,-6.5
13854,-4.04
13866,-1.45
13878,0.4
13890,1.09
13901,0.72
13912,-0.28
13924,-1.5
13936,-2.78
13948,-4.21
13960,-5.99
13972,-8.24
13984,-10.82
13996,-13.44
14008,-15.74
14020,-17.49
14032,-18.61
14044,-19.21
14056,-19.42
14068,-19.38
14080,-19.14
14091,-18.66
14102,-17.89
14114,-16.81
14126,-15.5
14138,-14.11
14150,-12.84
14162,-11.86
14174,-11.2
14186,-10.75
14198,-10.26
14210,-9.57
14222,-8.68
14234,-7.87
14246,-7.56
14258,-8.12
14270,-9.63
14281,-11.85
14292,-14.22
14304,-16.2
14316,-17.52
14328,-18.35
14340,-19.3
14352,-21.13
14364,-24.45
14376,-29.44
14388,-35.69
14400,-42.32
14412,-48.17
14424,-52.12
14436,-53.36
14448,-51.61
14460,-47.11
14471,-40.53
14482,-32.75
14494,-24.63
14506,-16.8
14518,-9.57
14530,-3.03
14542,2.91
14554,8.29
14566,13.09
14578,17.2
14590,20.48
14602,22.89
14614,24.53
14626,25.62
14638,26.41
14650,27.11
14661,27.83
14672,28.59
14684,29.41
14696,30.3
14708,31.31
14720,32.42
14732,33.56
14744,34.54
14756,35.05
14768,34.81
14780,33.57
14792,31.26
14804,27.99
14816,24.06
14828,19.82
14840,15.6
14851,11.52
14862,7.52
14874,3.4
14886,-0.99
14898,-5.64
14910,-10.32
14922,-14.68
14934,-18.39
14946,-21.36
14958,-23.83
14970,-26.23
14982,-29.04
14994,-32.63
15006,-37.09
15018,-42.14
15030,-47.21
15041,-51.45
15052,-53.99
15064,-54.08
15076,-51.36
15088,-45.95
15100,-38.46
15112,-29.8
15124,-20.9
15136,-12.45
15148,-4.79
15160,2.06
15172,8.18
15184,13.62
15196,18.26
15208,21.93
15220,24.51
15231,26.07
15242,26.86
15254,27.22
15266,27.46
15278,27.77
15290,28.22
15302,28.78
15314,29.34
15326,29.76
15338,29.92
15350,29.72
15362,29.13
15374,28.23
15386,27.13
15398,25.9
15410,24.56
15421,23.03
15432,21.19
15444,18.97
15456,16.41
15468,13.6
15480,10.66
15492,7.71
15504,4.79
15516,1.91
15528,-0.97
15540,-3.89
15552,-6.95
15564,-10.27
15576,-13.94
15588,-18.04
15600,-22.5
15611,-27.09
15622,-31.35
15634,-34.64
15646,-36.24
15658,-35.59
15670,-32.44
15682,-26.99
15694,-19.86
15706,-11.9
15718,-3.95
15730,3.43
15742,9.98
15754,15.7
15766,20.64
15778,24.81
15790,28.09
15801,30.33
15812,31.51
15824,31.81
15836,31.64
15848,31.45
15860,31.62
15872,32.21
15884,33.09
15896,33.94
15908,34.49
15920,34.58
15932,34.23
15944,33.51
15956,32.47
15968,31.1
15980,29.34
15991,27.13
16002,24.56
16014,21.8
16026,19.07
16038,16.5
16050,14.09
16062,11.66
16074,9.0
16086,5.98
16098,2.63
16110,-0.84
16122,-4.14
16134,-7.09
16146,-9.66
16158,-12.07
16170,-14.65
16181,-17.75
16192,-21.65
16204,-26.46
16216,-32.01
16228,-37.8
16240,-43.02
16252,-46.69
16264,-47.9
16276,-46.09
16288,-41.29
16300,-34.06
16312,-25.35
16324,-16.15
16336,-7.23
16348,1.08
16360,8.74
16371,15.86
16382,22.43
16394,28.27
16406,33.07
16418,36.51
16430,38.47
16442,39.05
16454,38.57
16466,37.39
16478,35.81
16490,34.0
16502,32.02
16514,29.94
16526,27.88
16538,25.97
16550,24.31
16561,22.85
16572,21.48
16584,19.98
16596,18.22
16608,16.2
16620,14.01
16632,11.84
16644,9.89
16656,8.27
16668,6.98
16680,5.84
16692,4.6
16704,2.95
16716,0.65
16728,-2.35
16740,-5.92
16751,-9.75
16762,-13.45
16774,-16.74
16786,-19.51
16798,-21.9
16810,-24.23
16822,-26.9
16834,-30.21
16846,-34.32
16858,-39.06
16870,-44.04
16882,-48.58
16894,-51.92
16906,-53.28
16918,-52.15
16930,-48.34
16941,-42.13
16952,-34.22
16964,-25.53
16976,-16.88
16988,-8.82
17000,-1.5
17012,5.16
17024,11.34
17036,17.02
17048,22.01
17060,26.03
17072,28.9
17084,30.7
17096,31.72
17108,32.33
17120,32.84
17131,33.39
17142,33.98
17154,34.5
17166,34.88
17178,35.12
17190,35.24
17202,35.23
17214,35.04
17226,34.57
17238,33.72
17250,32.38
17262,30.55
17274,28.29
17286,25.73
17298,23.05
17310,20.42
17321,17.95
17332,15.68
17344,13.54
17356,11.42
17368,9.15
17380,6.61
17392,3.79
17404,0.77
17416,-2.31
17428,-5.3
17440,-8.11
17452,-10.79
17464,-13.44
17476,-16.23
17488,-19.34
17500,-22.91
17511,-26.97
17522,-31.38
17534,-35.8
17546,-39.61
17558,-42.09
17570,-42.51
17582,-40.48
17594,-36.04
17606,-29.72
17618,-22.34
17630,-14.76
17642,-7.66
17654,-1.41
17666,3.9
17678,8.35
17690,12.05
17701,15.07
17712,17.43
17724,19.16
17736,20.32
17748,21.01
17760,21.35
17772,21.44
17784,21.35
17796,21.11
17808,20.77
17820,20.4
17832,20.07
17844,19.87
17856,19.82
17868,19.86
17880,19.8
17891,19.43
17902,18.59
17914,17.25
17926,15.55
17938,13.66
17950,11.72
17962,9.73
17974,7.55
17986,5.06
17998,2.2
18010,-0.91
18022,-4.03
18034,-6.94
18046,-9.54
18058,-11.9
18070,-14.19
18081,-16.64
18092,-19.43
18104,-22.67
18116,-26.46
18128,-30.73
18140,-35.21
18152,-39.3
18164,-42.17
18176,-42.99
18188,-41.22
18200,-36.86
18212,-30.53
18224,-23.19
18236,-15.77
18248,-8.88
18260,-2.68
18271,2.95
18282,8.18
18294,13.0
18306,17.2
18318,20.49
18330,22.72
18342,23.99
18354,24.56
18366,24.77
18378,24.87
18390,24.92
18402,24.9
18414,24.77
18426,24.49
18438,24.12
18450,23.75
18461,23.43
18472,23.17
18484,22.93
18496,22.59
18508,22.07
18520,21.26
18532,20.08
18544,18.47
18556,16.49
18568,14.25
18580,11.93
18592,9.65
18604,7.45
18616,5.24
18628,2.9
18640,0.24
18651,-2.75
18662,-6.02
18674,-9.38
18686,-12.61
18698,-15.54
18710,-18.13
18722,-20.51
18734,-22.9
18746,-25.63
18758,-28.95
18770,-32.94
18782,-37.43
18794,-41.83
18806,-45.38
18818,-47.22
18830,-46.73
18841,-43.74
18852,-38.55
18864,-31.86
18876,-24.52
18888,-17.25
18900,-10.49
18912,-4.39
18924,1.08
18936,6.03
18948,10.5
18960,14.45
18972,17.82
18984,20.53
18996,22.57
19008,23.96
19020,24.8
19031,25.22
19042,25.35
19054,25.27
19066,25.05
19078,24.69
19090,24.28
19102,23.91
19114,23.65
19126,23.53
19138,23.43
19150,23.12
19162,22.36
19174,21.0
19186,19.04
19198,16.66
19210,14.12
19221,11.7
19232,9.55
19244,7.69
19256,6.01
19268,4.3
19280,2.35
19292,0.05
19304,-2.61
19316,-5.46
19328,-8.25
19340,-10.76
19352,-12.9
19364,-14.78
19376,-16.68
19388,-18.95
19400,-21.83
19411,-25.41
19422,-29.53
19434,-33.81
19446,-37.69
19458,-40.53
19470,-41.7
19482,-40.76
19494,-37.57
19506,-32.47
19518,-26.09
19530,-19.26
19542,-12.7
19554,-6.86
19566,-1.85
19578,2.47
19590,6.28
19601,9.69
19612,12.63
19624,14.97
19636,16.6
19648,17.52
19660,17.86
19672,17.78
19684,17.48
19696,17.08
19708,16.7
19720,16.42
19732,16.29
19744,16.35
19756,16.63
19768,17.04
19780,17.41
19791,17.51
19802,17.15
19814,16.22
19826,14.78
19838,13.0
19850,11.1
19862,9.25
19874,7.55
19886,5.95
19898,4.38
19910,2.72
19922,0.93
19934,-1.03
19946,-3.16
19958,-5.43
19970,-7.81
19981,-10.27
19992,-12.8
20004,-15.42
20016,-18.22
20028,-21.29
20040,-24.7
20052,-28.33
20064,-31.89
20076,-34.85
20088,-36.61
20100,-36.66
20112,-34.75
20124,-30.96
20136,-25.69
20148,-19.54
20160,-13.14
20171,-7.08
20182,-1.74
20194,2.71
20206,6.26
20218,9.02
20230,11.15
20242,12.73
20254,13.77
20266,14.27
20278,14.26
20290,13.9
20302,13.44
20314,13.12
20326,13.1
20338,13.33
20350,13.65
20361,13.88
20372,13.92
20384,13.77
20396,13.48
20408,13.07
20420,12.49
20432,11.64
20444,10.45
20456,8.98
20468,7.39
20480,5.87
20492,4.55
20504,3.38
20516,2.15
20528,0.58
20540,-1.51
20551,-4.09
20562,-6.96
20574,-9.78
20586,-12.28
20598,-14.36
20610,-16.12
20622,-17.79
20634,-19.68
20646,-22.08
20658,-25.11
20670,-28.75
20682,-32.75
20694,-36.54
20706,-39.38
20718,-40.47
20730,-39.28
20741,-35.71
20752,-30.18
20764,-23.46
20776,-16.45
20788,-9.89
20800,-4.23
20812,0.45
20824,4.22
20836,7.27
20848,9.75
20860,11.75
20872,13.33
20884,14.53
20896,15.38
20908,15.92
20920,16.18
20931,16.18
20942,15.95
20954,15.51
20966,14.92
20978,14.29
20990,13.75
