seconds,BVP
5,-39.54
17,-43.25
28,-45.94
39,-47.67
51,-48.66
63,-49.57
75,-51.23
87,-54.46
99,-59.59
111,-66.18
123,-73.01
135,-78.29
147,-80.18
159,-77.27
171,-69.09
183,-56.29
195,-40.57
207,-24.05
218,-8.78
229,3.89
241,13.54
253,20.52
265,25.55
277,29.16
289,31.69
301,33.21
313,33.93
325,34.3
337,34.94
349,36.39
361,38.71
373,41.54
385,44.13
397,45.86
408,46.35
419,45.59
431,43.86
443,41.45
455,38.65
467,35.57
479,32.41
491,29.27
503,26.28
515,23.38
527,20.54
539,17.75
551,15.26
563,13.59
575,13.07
587,13.8
598,15.32
609,16.81
621,17.67
633,17.76
645,17.41
657,17.1
669,16.93
681,16.49
693,15.13
705,12.35
717,8.1
729,2.96
741,-2.4
753,-7.48
765,-11.98
777,-15.57
788,-17.4
799,-16.11
811,-10.27
823,0.79
835,16.49
847,34.76
859,52.83
871,68.07
883,78.78
895,84.56
907,86.02
919,84.29
931,80.42
943,75.24
955,69.1
967,62.26
978,55.25
989,48.72
1001,43.59
1013,40.59
1025,40.01
1037,41.4
1049,43.81
1061,45.92
1073,46.57
1085,45.2
1097,41.68
1109,36.41
1121,29.84
1133,22.36
1145,14.04
1157,4.88
1168,-5.16
1179,-15.8
1191,-26.43
1203,-36.4
1215,-45.09
1227,-52.34
1239,-58.53
1251,-64.44
1263,-70.85
1275,-78.27
1287,-86.65
1299,-95.47
1311,-104.17
1323,-112.43
1335,-120.31
1347,-127.87
1358,-134.75
1369,-139.58
1381,-140.08
1393,-133.74
1405,-118.75
1417,-95.12
1429,-64.93
1441,-31.92
1453,-0.38
1465,26.06
1477,45.37
1489,57.29
1501,62.72
1513,63.07
1525,59.61
1537,53.44
1548,45.58
1559,37.38
1571,30.35
1583,25.84
1595,24.47
1607,25.67
1619,27.65
1631,27.65
1643,22.94
1655,11.79
1667,-5.53
1679,-26.58
1691,-47.29
1703,-63.24
1715,-71.05
1727,-69.27
1738,-58.68
1749,-41.64
1761,-21.24
1773,-0.45
1785,18.39
1797,33.63
1809,44.43
1821,50.7
1833,53.13
1845,52.93
1857,51.37
1869,49.3
1881,46.84
1893,43.53
1905,38.77
1917,32.3
1928,24.39
1939,15.84
1951,7.7
1963,1.0
1975,-3.61
1987,-6.06
1999,-6.96
2011,-7.51
2023,-9.04
2035,-12.48
2047,-17.68
2059,-23.31
2071,-27.22
2083,-27.43
2095,-23.05
2107,-14.71
2118,-4.34
2129,5.68
2141,13.41
2153,17.83
2165,19.03
2177,17.72
2189,14.92
2201,11.55
2213,8.41
2225,6.05
2237,4.87
2249,5.08
2261,6.53
2273,8.92
2285,11.76
2297,14.52
2308,16.72
2319,17.98
2331,18.04
2343,16.83
2355,14.54
2367,11.54
2379,8.32
2391,5.23
2403,2.39
2415,-0.31
2427,-3.02
2439,-5.67
2451,-7.85
2463,-8.89
2475,-8.27
2487,-5.95
2498,-2.55
2509,0.91
2521,3.35
2533,4.13
2545,3.26
2557,1.36
2569,-0.61
2581,-1.84
2593,-1.92
2605,-1.05
2617,0.03
2629,0.27
2641,-1.43
2653,-5.88
2665,-13.25
2677,-22.79
2688,-33.0
2699,-41.72
2711,-46.79
2723,-46.63
2735,-40.78
2747,-30.08
2759,-16.51
2771,-2.55
2783,9.59
2795,18.41
2807,23.51
2819,25.3
2831,24.73
2843,22.88
2855,20.83
2867,19.49
2878,19.64
2889,21.84
2901,26.2
2913,32.35
2925,39.52
2937,46.72
2949,52.99
2961,57.55
2973,59.87
2985,59.63
2997,56.82
3009,51.72
3021,44.91
3033,37.11
3045,28.76
3057,20.07
3068,10.92
3079,1.18
3091,-8.9
3103,-18.68
3115,-27.2
3127,-33.65
3139,-37.78
3151,-40.15
3163,-41.8
3175,-43.77
3187,-46.86
3199,-51.14
3211,-56.19
3223,-61.25
3235,-65.48
3247,-68.21
3258,-68.97
3269,-67.59
3281,-64.13
3293,-59.04
3305,-52.87
3317,-46.19
3329,-39.32
3341,-32.1
3353,-24.0
3365,-14.13
3377,-1.79
3389,13.37
3401,31.03
3413,50.35
3425,69.89
3437,87.87
3448,102.41
3459,111.74
3471,114.72
3483,111.1
3495,101.78
3507,88.71
3519,74.41
3531,61.35
3543,51.3
3555,45.12
3567,42.65
3579,43.04
3591,45.05
3603,47.35
3615,48.88
3627,48.97
3638,47.48
3649,44.83
3661,41.95
3673,39.8
3685,38.92
3697,39.2
3709,39.8
3721,39.57
3733,37.62
3745,33.73
3757,28.35
3769,22.29
3781,16.17
3793,10.1
3805,3.65
3817,-3.79
3828,-12.52
3839,-22.19
3851,-31.94
3863,-40.87
3875,-48.47
3887,-54.81
3899,-60.36
3911,-65.57
3923,-70.44
3935,-74.66
3947,-77.86
3959,-79.97
3971,-81.44
3983,-82.68
3995,-83.64
4007,-83.49
4018,-80.89
4029,-74.69
4041,-64.74
4053,-52.03
4065,-38.39
4077,-25.61
4089,-14.71
4101,-5.74
4113,1.88
4125,8.74
4137,14.94
4149,20.05
4161,23.56
4173,25.14
4185,25.09
4197,24.24
4208,23.54
4219,23.78
4231,25.27
4243,27.74
4255,30.49
4267,32.69
4279,33.58
4291,32.74
4303,30.22
4315,26.43
4327,21.95
4339,17.36
4351,12.99
4363,8.86
4375,4.99
4387,1.37
4398,-1.87
4409,-4.43
4421,-6.15
4433,-6.97
4445,-7.06
4457,-6.77
4469,-6.58
4481,-6.91
4493,-7.99
4505,-9.82
4517,-12.04
4529,-14.24
4541,-16.08
4553,-17.42
4565,-18.46
4577,-19.52
4588,-20.91
4599,-22.8
4611,-25.31
4623,-28.63
4635,-33.09
4647,-38.89
4659,-45.76
4671,-52.68
4683,-57.86
4695,-59.31
4707,-55.55
4719,-46.34
4731,-32.83
4743,-17.33
4755,-2.45
4767,9.65
4778,17.77
4789,21.84
4801,22.68
4813,21.6
4825,19.91
4837,18.6
4849,18.11
4861,18.37
4873,19.08
4885,19.98
4897,21.02
4909,22.35
4921,24.04
4933,25.93
4945,27.57
4957,28.44
4968,28.14
4979,26.66
4991,24.34
5003,21.65
5015,18.97
5027,16.46
5039,14.29
5051,12.61
5063,11.71
5075,11.79
5087,12.74
5099,14.0
5111,14.76
5123,14.24
5135,12.06
5147,8.3
5158,3.33
5169,-2.36
5181,-8.39
5193,-14.41
5205,-20.14
5217,-25.23
5229,-29.26
5241,-32.01
5253,-33.64
5265,-34.67
5277,-35.79
5289,-37.51
5301,-39.9
5313,-42.68
5325,-45.42
5337,-47.89
5348,-50.11
5359,-52.37
5371,-54.69
5383,-56.58
5395,-56.93
5407,-54.4
5419,-48.02
5431,-37.76
5443,-24.79
5455,-11.23
5467,0.6
5479,8.87
5491,12.82
5503,12.87
5515,10.37
5527,7.01
5538,4.28
5549,2.91
5561,2.8
5573,3.31
5585,3.7
5597,3.5
5609,2.74
5621,1.76
5633,0.96
5645,0.54
5657,0.24
5669,-0.34
5681,-1.48
5693,-3.16
5705,-4.97
5717,-6.38
5728,-7.1
5739,-7.13
5751,-6.74
5763,-6.36
5775,-6.13
5787,-6.04
5799,-6.03
5811,-6.12
5823,-6.57
5835,-7.78
5847,-9.87
5859,-12.26
5871,-13.64
5883,-11.97
5895,-5.32
5907,7.28
5918,25.13
5929,45.94
5941,66.36
5953,83.14
5965,94.22
5977,99.14
5989,99.19
6001,96.51
6013,93.4
6025,91.26
6037,90.09
6049,88.31
6061,83.04
6073,70.95
6085,49.34
6097,17.78
6108,-21.04
6119,-61.2
6131,-95.1
6143,-116.47
6155,-123.05
6167,-117.89
6179,-108.1
6191,-101.69
6203,-103.94
6215,-115.6
6227,-133.25
6239,-151.96
6251,-168.03
6263,-180.11
6275,-188.44
6287,-192.68
6298,-190.61
6309,-178.17
6321,-152.05
6333,-111.96
6345,-61.55
6357,-7.28
6369,44.6
6381,90.27
6393,129.06
6405,161.92
6417,189.54
6429,210.96
6441,224.08
6453,227.31
6465,220.83
6477,207.22
6488,190.15
6499,172.98
6511,157.41
6523,143.62
6535,130.96
6547,118.83
6559,107.18
6571,96.02
6583,85.06
6595,73.4
6607,60.24
6619,45.22
6631,28.88
6643,12.33
6655,-3.63
6667,-19.06
6678,-35.05
6689,-52.91
6701,-73.25
6713,-95.33
6725,-117.22
6737,-136.92
6749,-153.6
6761,-168.27
6773,-182.93
6785,-199.12
6797,-216.05
6809,-230.07
6821,-235.78
6833,-227.95
6845,-203.67
6857,-163.15
6868,-109.22
6879,-46.09
6891,21.6
6903,89.12
6915,151.63
6927,204.11
6939,242.39
6951,264.34
6963,270.76
6975,265.29
6987,252.96
6999,238.24
7011,223.69
7023,209.81
7035,195.87
7047,181.05
7058,165.08
7069,148.06
7081,130.02
7093,110.73
7105,89.96
7117,68.08
7129,46.3
7141,26.08
7153,8.38
7165,-6.86
7177,-20.72
7189,-34.35
7201,-48.03
7213,-60.72
7225,-70.36
7237,-74.82
7248,-72.86
7259,-64.58
7271,-51.43
7283,-35.77
7295,-20.25
7307,-7.26
7319,1.34
7331,4.68
7343,2.92
7355,-2.69
7367,-10.01
7379,-16.63
7391,-20.6
7403,-20.89
7415,-17.95
7427,-14.06
7438,-12.85
7449,-18.53
7461,-34.3
7473,-60.9
7485,-95.61
7497,-132.84
7509,-165.74
7521,-188.6
7533,-198.7
7545,-196.8
7557,-186.1
7569,-170.44
7581,-152.76
7593,-134.57
7605,-116.44
7617,-98.86
7628,-82.82
7639,-69.6
7651,-60.08
7663,-53.99
7675,-50.02
7687,-46.32
7699,-41.3
7711,-34.28
7723,-25.66
7735,-16.46
7747,-7.83
7759,-0.49
7771,5.38
7783,10.07
7795,14.02
7807,17.53
7818,20.65
7829,23.28
7841,25.41
7853,27.2
7865,29.06
7877,31.41
7889,34.59
7901,38.54
7913,42.99
7925,47.4
7937,51.18
7949,53.79
7961,54.75
7973,53.76
7985,50.82
7997,46.25
8008,40.69
8019,34.99
8031,29.67
8043,24.82
8055,20.06
8067,14.81
8079,8.84
8091,2.59
8103,-3.02
8115,-7.09
8127,-9.32
8139,-10.45
8151,-11.97
8163,-15.31
8175,-20.88
8187,-27.41
8198,-32.24
8209,-32.38
8221,-26.0
8233,-13.33
8245,3.29
8257,20.36
8269,34.7
8281,44.45
8293,49.45
8305,50.58
8317,49.14
8329,46.04
8341,41.85
8353,37.03
8365,32.25
8377,28.41
8388,26.26
8399,26.12
8411,27.49
8423,29.37
8435,30.7
8447,30.89
8459,30.01
8471,28.55
8483,27.08
8495,25.82
8507,24.65
8519,23.24
8531,21.37
8543,19.2
8555,17.11
8567,15.44
8578,14.0
8589,12.15
8601,9.06
8613,4.36
8625,-1.55
8637,-7.58
8649,-12.57
8661,-15.95
8673,-18.11
8685,-20.21
8697,-23.44
8709,-28.33
8721,-34.43
8733,-40.61
8745,-45.61
8757,-48.74
8768,-50.14
8779,-50.55
8791,-50.93
8803,-52.05
8815,-54.35
8827,-58.03
8839,-63.02
8851,-68.88
8863,-74.53
8875,-78.2
8887,-77.73
8899,-71.31
8911,-58.38
8923,-40.1
8935,-19.01
8947,1.78
8958,19.69
8969,33.35
8981,42.48
8993,47.56
9005,49.27
9017,48.13
9029,44.72
9041,39.78
9053,34.28
9065,29.27
9077,25.6
9089,23.61
9101,23.22
9113,23.92
9125,24.96
9137,25.54
9148,24.96
9159,22.85
9171,19.38
9183,15.09
9195,10.86
9207,7.52
9219,5.49
9231,4.82
9243,5.18
9255,5.91
9267,6.32
9279,5.74
9291,3.65
9303,-0.1
9315,-5.12
9327,-10.61
9338,-15.54
9349,-18.97
9361,-20.51
9373,-20.3
9385,-18.88
9397,-16.99
9409,-15.37
9421,-14.53
9433,-14.61
9445,-15.51
9457,-16.71
9469,-17.75
9481,-18.28
9493,-18.39
9505,-18.58
9517,-19.52
9528,-21.65
9539,-24.93
9551,-28.65
9563,-31.65
9575,-32.52
9587,-29.9
9599,-22.87
9611,-11.12
9623,4.81
9635,23.45
9647,42.68
9659,60.21
9671,74.05
9683,83.01
9695,86.85
9707,86.18
9718,82.2
9729,76.4
9741,70.15
9753,64.53
9765,60.01
9777,56.43
9789,53.19
9801,49.59
9813,45.37
9825,40.84
9837,36.82
9849,34.04
9861,32.69
9873,32.1
9885,31.12
9897,28.61
9908,24.14
9919,18.31
9931,12.42
9943,7.91
9955,5.62
9967,5.39
9979,6.19
9991,6.61
10003,5.56
10015,2.63
10027,-1.85
10039,-7.1
10051,-12.35
10063,-16.99
10075,-20.74
10087,-23.5
10098,-25.36
10109,-26.41
10121,-26.95
10133,-27.19
10145,-27.32
10157,-27.36
10169,-27.34
10181,-27.51
10193,-28.46
10205,-30.96
10217,-35.45
10229,-41.67
10241,-48.28
10253,-53.16
10265,-54.01
10277,-49.23
10288,-38.57
10299,-23.31
10311,-5.82
10323,11.22
10335,25.58
10347,35.95
10359,42.05
10371,44.22
10383,43.25
10395,40.03
10407,35.47
10419,30.29
10431,24.96
10443,19.81
10455,15.11
10467,11.2
10478,8.62
10489,7.91
10501,9.33
10513,12.58
10525,16.57
10537,19.82
10549,21.1
10561,20.07
10573,17.42
10585,14.37
10597,12.06
10609,10.76
10621,9.8
10633,8.09
10645,4.86
10657,0.07
10668,-5.44
10679,-10.5
10691,-14.29
10703,-16.67
10715,-18.15
10727,-19.48
10739,-21.08
10751,-22.88
10763,-24.49
10775,-25.71
10787,-26.69
10799,-28.01
10811,-30.31
10823,-33.75
10835,-37.88
10847,-41.75
10858,-44.47
10869,-45.93
10881,-46.87
10893,-48.67
10905,-52.43
10917,-58.25
10929,-64.76
10941,-69.4
10953,-69.37
10965,-62.76
10977,-49.49
10989,-31.18
11001,-10.71
11013,8.93
11025,25.39
11037,37.45
11048,44.74
11059,47.5
11071,46.27
11083,41.8
11095,35.24
11107,28.06
11119,21.85
11131,17.78
11143,16.27
11155,16.82
11167,18.41
11179,20.11
11191,21.32
11203,22.07
11215,22.53
11227,22.87
11238,23.04
11249,22.8
11261,22.01
11273,20.76
11285,19.39
11297,18.17
11309,17.18
11321,16.12
11333,14.46
11345,11.77
11357,7.96
11369,3.39
11381,-1.19
11393,-5.07
11405,-7.95
11417,-10.05
11428,-11.94
11439,-14.32
11451,-17.65
11463,-21.92
11475,-26.81
11487,-31.78
11499,-36.52
11511,-41.07
11523,-45.63
11535,-50.4
11547,-55.47
11559,-60.78
11571,-66.32
11583,-72.19
11595,-78.45
11607,-84.81
11618,-90.32
11629,-93.28
11641,-91.65
11653,-83.85
11665,-69.54
11677,-49.96
11689,-27.82
11701,-6.35
11713,11.51
11725,23.88
11737,30.11
11749,30.67
11761,26.75
11773,20.07
11785,12.63
11797,6.25
11808,2.38
11819,1.49
11831,3.02
11843,5.74
11855,8.34
11867,10.17
11879,11.51
11891,13.16
11903,15.6
11915,18.6
11927,21.04
11939,21.7
11951,20.07
11963,16.79
11975,13.38
11987,11.34
11998,11.17
12009,12.09
12021,12.65
12033,11.67
12045,9.11
12057,6.22
12069,4.65
12081,5.52
12093,8.53
12105,12.17
12117,14.62
12129,14.91
12141,13.49
12153,11.85
12165,11.7
12177,13.8
12188,17.57
12199,21.39
12211,23.57
12223,23.19
12235,20.44
12247,16.2
12259,11.33
12271,6.19
12283,0.55
12295,-5.76
12307,-12.39
12319,-17.96
12331,-20.41
12343,-17.77
12355,-9.03
12367,5.28
12378,23.23
12389,41.86
12401,58.23
12413,70.21
12425,76.88
12437,78.5
12449,76.15
12461,71.14
12473,64.58
12485,57.23
12497,49.51
12509,41.74
12521,34.47
12533,28.4
12545,24.15
12557,22.06
12568,21.92
12579,22.91
12591,23.86
12603,23.61
12615,21.55
12627,17.83
12639,13.32
12651,9.14
12663,6.32
12675,5.24
12687,5.51
12699,6.18
12711,6.15
12723,4.65
12735,1.62
12747,-2.41
12758,-6.56
12769,-9.99
12781,-12.36
12793,-13.98
12805,-15.59
12817,-18.0
12829,-21.74
12841,-26.72
12853,-32.3
12865,-37.49
12877,-41.32
12889,-43.3
12901,-43.52
12913,-42.69
12925,-41.69
12937,-41.34
12948,-42.11
12959,-44.1
12971,-47.11
12983,-50.64
12995,-53.99
13007,-56.0
13019,-55.24
13031,-50.29
13043,-40.23
13055,-25.36
13067,-7.4
13079,10.71
13091,25.84
13103,35.61
13115,39.37
13127,38.34
13138,34.92
13149,31.7
13161,30.25
13173,30.72
13185,31.95
13197,32.46
13209,31.34
13221,28.82
13233,26.1
13245,24.63
13257,25.31
13269,27.84
13281,31.1
13293,33.42
13305,33.7
13317,31.7
13328,28.14
13339,24.27
13351,21.12
13363,19.23
13375,18.41
13387,18.1
13399,17.65
13411,16.62
13423,14.96
13435,12.8
13447,10.34
13459,7.64
13471,4.66
13483,1.38
13495,-2.14
13507,-5.71
13518,-9.19
13529,-12.58
13541,-16.08
13553,-20.01
13565,-24.61
13577,-29.87
13589,-35.41
13601,-40.64
13613,-44.91
13625,-47.74
13637,-49.03
13649,-49.09
13661,-48.48
13673,-47.8
13685,-47.5
13697,-47.56
13708,-47.49
13719,-46.21
13731,-42.52
13743,-35.57
13755,-25.29
13767,-12.49
13779,1.4
13791,14.77
13803,26.39
13815,35.58
13827,42.13
13839,46.1
13851,47.5
13863,46.47
13875,43.33
13887,38.81
13898,34.03
13909,30.31
13921,28.67
13933,29.31
13945,31.41
13957,33.11
13969,32.2
13981,26.95
13993,16.86
14005,3.19
14017,-11.51
14029,-24.29
14041,-32.98
14053,-36.97
14065,-37.12
14077,-35.0
14088,-32.01
14099,-28.75
14111,-25.2
14123,-21.33
14135,-17.66
14147,-15.29
14159,-15.38
14171,-18.27
14183,-23.09
14195,-27.89
14207,-30.55
14219,-29.83
14231,-26.0
14243,-20.72
14255,-16.29
14267,-14.64
14278,-16.42
14289,-20.89
14301,-26.32
14313,-30.92
14325,-33.62
14337,-34.46
14349,-34.46
14361,-34.92
14373,-36.95
14385,-40.87
14397,-46.24
14409,-51.99
14421,-56.71
14433,-59.03
14445,-57.73
14457,-52.12
14468,-42.06
14479,-28.32
14491,-12.35
14503,3.77
14515,17.95
14527,28.52
14539,34.57
14551,36.28
14563,34.61
14575,30.94
14587,26.63
14599,22.55
14611,19.07
14623,16.22
14635,14.06
14647,12.77
14658,12.87
14669,14.8
14681,18.59
14693,23.6
14705,28.48
14717,31.65
14729,31.94
14741,29.2
14753,24.44
14765,19.45
14777,15.94
14789,14.93
14801,16.24
14813,18.79
14825,21.3
14837,22.97
14848,23.8
14859,24.36
14871,25.25
14883,26.47
14895,27.5
14907,27.61
14919,26.43
14931,24.34
14943,22.39
14955,21.62
14967,22.56
14979,24.71
14991,26.92
15003,27.85
15015,26.68
15027,23.28
15038,18.23
15049,12.4
15061,6.66
15073,1.68
15085,-2.28
15097,-5.25
15109,-7.57
15121,-9.73
15133,-12.21
15145,-15.12
15157,-18.16
15169,-20.52
15181,-20.97
15193,-18.42
15205,-12.27
15217,-2.77
15228,8.91
15239,21.01
15251,31.74
15263,39.71
15275,44.29
15287,45.62
15299,44.29
15311,40.98
15323,36.23
15335,30.41
15347,23.96
15359,17.7
15371,12.72
15383,10.05
15395,10.34
15407,13.38
15418,18.26
15429,23.71
15441,28.62
15453,32.22
15465,34.28
15477,34.81
15489,33.86
15501,31.52
15513,27.85
15525,23.29
15537,18.6
15549,14.65
15561,11.93
15573,10.26
15585,8.77
15597,6.32
15608,2.22
15619,-3.52
15631,-10.0
15643,-15.88
15655,-20.06
15667,-22.15
15679,-22.59
15691,-22.51
15703,-23.29
15715,-25.93
15727,-30.82
15739,-37.47
15751,-44.74
15763,-51.19
15775,-55.56
15787,-57.15
15798,-56.24
15809,-54.11
15821,-52.54
15833,-53.22
15845,-56.83
15857,-62.63
15869,-68.5
15881,-71.6
15893,-69.48
15905,-61.02
15917,-46.87
15929,-29.21
15941,-10.9
15953,5.43
15965,18.01
15977,26.05
15988,29.56
15999,29.16
16011,25.87
16023,21.01
16035,16.07
16047,12.37
16059,10.74
16071,11.34
16083,13.61
16095,16.56
16107,19.29
16119,21.27
16131,22.39
16143,22.9
16155,23.14
16167,23.36
16178,23.6
16189,23.73
16201,23.4
16213,22.3
16225,20.26
16237,17.37
16249,14.04
16261,10.84
16273,8.32
16285,6.86
16297,6.54
16309,7.05
16321,7.72
16333,7.73
16345,6.29
16357,3.09
16368,-1.62
16379,-7.03
16391,-12.14
16403,-16.18
16415,-19.1
16427,-21.56
16439,-24.55
16451,-28.81
16463,-34.25
16475,-39.95
16487,-44.63
16499,-47.32
16511,-48.08
16523,-48.11
16535,-49.21
16547,-52.86
16558,-59.37
16569,-67.43
16581,-74.35
16593,-77.03
16605,-72.98
16617,-61.33
16629,-43.06
16641,-20.6
16653,2.94
16665,24.61
16677,42.18
16689,54.37
16701,60.85
16713,62.22
16725,59.8
16737,55.39
16748,50.81
16759,47.27
16771,45.09
16783,43.81
16795,42.62
16807,40.82
16819,38.26
16831,35.02
16843,31.23
16855,26.85
16867,21.78
16879,16.16
16891,10.6
16903,6.02
16915,3.08
16927,1.85
16938,1.56
16949,1.07
16961,-0.38
16973,-2.75
16985,-5.21
16997,-6.71
17009,-6.66
17021,-5.46
17033,-3.99
17045,-3.37
17057,-4.28
17069,-6.72
17081,-10.22
17093,-14.26
17105,-18.43
17117,-22.55
17128,-26.6
17139,-30.44
17151,-33.93
17163,-37.15
17175,-40.46
17187,-44.55
17199,-49.98
17211,-56.8
17223,-64.4
17235,-71.92
17247,-78.6
17259,-84.2
17271,-89.04
17283,-93.51
17295,-97.52
17307,-100.23
17318,-100.09
17329,-95.6
17341,-86.12
17353,-72.24
17365,-55.77
17377,-39.08
17389,-23.97
17401,-11.47
17413,-1.59
17425,6.16
17437,12.07
17449,15.96
17461,17.46
17473,16.34
17485,13.05
17497,9.0
17508,5.95
17519,5.43
17531,8.17
17543,13.84
17555,21.28
17567,29.08
17579,36.1
17591,41.87
17603,46.71
17615,51.41
17627,56.67
17639,62.81
17651,69.58
17663,76.36
17675,82.51
17687,87.6
17698,91.48
17709,94.25
17721,95.96
17733,96.46
17745,95.52
17757,92.92
17769,88.81
17781,83.84
17793,78.88
17805,74.69
17817,71.45
17829,68.54
17841,64.74
17853,58.84
17865,50.23
17877,39.37
17888,27.78
17899,17.34
17911,9.47
17923,4.32
17935,0.83
17947,-2.87
17959,-8.32
17971,-15.99
17983,-24.97
17995,-33.28
18007,-38.74
18019,-39.81
18031,-36.07
18043,-28.25
18055,-17.75
18067,-6.07
18078,5.52
18089,16.09
18101,24.97
18113,31.6
18125,35.52
18137,36.57
18149,34.92
18161,31.24
18173,26.5
18185,21.79
18197,17.91
18209,15.32
18221,14.06
18233,14.06
18245,15.34
18257,17.98
18268,21.76
18279,26.02
18291,29.65
18303,31.43
18315,30.73
18327,27.71
18339,23.49
18351,19.58
18363,17.13
18375,16.24
18387,16.21
18399,15.95
18411,14.76
18423,12.74
18435,10.58
18447,9.03
18458,8.37
18469,8.08
18481,6.95
18493,3.75
18505,-1.92
18517,-9.27
18529,-16.56
18541,-22.01
18553,-24.65
18565,-24.51
18577,-22.83
18589,-21.82
18601,-23.37
18613,-28.06
18625,-34.81
18637,-41.29
18648,-45.34
18659,-46.2
18671,-44.26
18683,-41.27
18695,-39.57
18707,-40.18
18719,-42.07
18731,-42.61
18743,-38.32
18755,-26.83
18767,-8.6
18779,13.69
18791,35.04
18803,48.84
18815,49.5
18827,33.49
18838,-0.52
18849,-49.88
18861,-109.17
18873,-172.59
18885,-234.45
18897,-283.02
18909,-305.69
18921,-296.42
18933,-262.92
18945,-222.35
18957,-187.32
18969,-160.81
18981,-143.07
18993,-124.35
19005,-97.06
19017,-58.8
19028,-10.55
19039,43.48
19051,96.5
19063,143.43
19075,182.19
19087,213.0
19099,239.14
19111,264.15
19123,278.08
19135,273.4
19147,263.06
19159,247.39
19171,216.89
19183,170.27
19195,111.19
19207,46.88
19218,-15.71
19229,-72.47
19241,-121.63
19253,-165.09
19265,-209.36
19277,-258.5
19289,-311.66
19301,-365.05
19313,-412.22
19325,-446.31
19337,-462.15
19349,-456.57
19361,-430.85
19373,-392.41
19385,-349.13
19397,-306.44
19408,-267.74
19419,-233.98
19431,-204.87
19443,-180.21
19455,-159.52
19467,-142.61
19479,-130.33
19491,-121.41
19503,-112.54
19515,-100.79
19527,-84.63
19539,-64.48
19551,-42.09
19563,-19.19
19575,3.19
19587,24.31
19598,44.82
19609,66.23
19621,89.69
19633,115.48
19645,143.12
19657,171.73
19669,200.77
19681,230.32
19693,261.04
19705,294.52
19717,332.53
19729,375.57
19741,421.95
19753,467.24
19765,505.18
19777,529.71
19788,537.15
19799,527.49
19811,504.41
19823,473.48
19835,439.9
19847,407.12
19859,376.49
19871,348.14
19883,322.16
19895,299.22
19907,280.23
19919,265.52
19931,254.26
19943,244.42
19955,233.6
19967,219.91
19978,202.47
19989,181.58
20001,158.48
20013,134.89
20025,112.4
20037,91.95
20049,73.3
20061,55.22
20073,35.87
20085,13.84
20097,-10.9
20109,-36.77
20121,-60.99
20133,-80.71
20145,-94.25
20157,-101.66
20168,-104.34
20179,-104.32
20191,-103.23
20203,-101.7
20215,-99.54
20227,-96.21
20239,-91.38
20251,-85.39
20263,-79.18
20275,-74.08
20287,-71.15
20299,-70.75
20311,-72.13
20323,-73.73
20335,-73.51
20347,-69.81
20358,-61.92
20369,-50.28
20381,-36.48
20393,-22.73
20405,-11.56
20417,-5.35
20429,-6.3
20441,-15.78
20453,-33.93
20465,-59.0
20477,-87.25
20489,-113.69
20501,-133.35
20513,-142.77
20525,-140.73
20537,-128.51
20548,-109.01
20559,-85.71
20571,-62.16
20583,-41.9
20595,-28.8
20607,-27.01
20619,-39.75
20631,-67.64
20643,-107.4
20655,-152.05
20667,-192.62
20679,-221.15
20691,-233.25
20703,-229.53
20715,-214.76
20727,-195.28
20738,-176.22
20749,-160.09
20761,-147.07
20773,-135.92
20785,-125.08
20797,-113.14
20809,-99.25
20821,-83.13
20833,-65.09
20845,-46.16
20857,-28.32
20869,-14.41
20881,-7.22
20893,-8.16
20905,-16.44
20917,-29.32
20928,-42.94
20939,-52.9
20951,-55.0
20963,-46.41
20975,-26.52
20987,3.24
20999,40.42
