seconds,BVP
5,-49.36
17,-50.04
29,-52.39
40,-53.68
51,-50.78
63,-41.99
75,-28.07
87,-11.83
99,3.95
111,17.29
123,27.07
135,33.37
147,37.63
159,40.67
171,43.2
183,45.65
195,48.06
207,50.45
219,52.59
230,53.66
241,52.72
253,49.09
265,42.67
277,34.38
289,25.64
301,17.88
313,11.91
325,7.85
337,5.02
349,2.57
361,-0.19
373,-3.77
385,-7.92
397,-12.25
409,-16.52
420,-20.9
431,-25.69
443,-31.14
455,-37.11
467,-43.03
479,-48.25
491,-52.21
503,-54.74
515,-56.1
527,-56.81
539,-57.35
551,-58.0
563,-58.75
575,-59.29
587,-59.15
599,-57.86
610,-55.07
621,-50.8
633,-45.37
645,-39.35
657,-33.36
669,-27.86
681,-23.0
693,-18.69
705,-14.75
717,-11.15
729,-8.12
741,-5.98
753,-5.0
765,-5.23
777,-6.42
789,-8.13
800,-9.99
811,-11.68
823,-13.07
835,-14.03
847,-14.33
859,-13.61
871,-11.6
883,-8.36
895,-4.31
907,-0.23
919,3.04
931,4.93
943,5.33
955,4.54
967,3.11
979,1.49
990,0.08
1001,-0.76
1013,-0.54
1025,1.43
1037,5.83
1049,13.03
1061,22.73
1073,33.87
1085,44.78
1097,53.73
1109,59.57
1121,62.01
1133,61.69
1145,59.74
1157,57.23
1169,54.73
1180,52.18
1191,49.24
1203,45.65
1215,41.69
1227,37.95
1239,35.05
1251,33.33
1263,32.56
1275,32.13
1287,31.41
1299,30.12
1311,28.49
1323,27.1
1335,26.21
1347,25.42
1359,23.82
1370,20.4
1381,14.77
1393,7.43
1405,-0.29
1417,-6.84
1429,-10.96
1441,-12.4
1453,-11.83
1465,-10.19
1477,-8.05
1489,-5.42
1501,-1.99
1513,2.39
1525,7.4
1537,12.51
1549,16.57
1560,18.25
1571,17.03
1583,13.68
1595,9.86
1607,7.48
1619,7.86
1631,11.35
1643,17.96
1655,26.0
1667,32.66
1679,35.63
1691,34.41
1703,30.09
1715,24.46
1727,19.19
1739,15.43
1750,14.87
1761,17.41
1773,21.3
1785,24.73
1797,27.06
1809,28.49
1821,29.64
1833,31.77
1845,37.21
1857,50.42
1869,72.98
1881,101.65
1893,129.33
1905,147.76
1917,149.81
1929,131.73
1940,94.52
1951,34.08
1963,-38.27
1975,-101.86
1987,-141.97
1999,-157.86
2011,-156.37
2023,-144.0
2035,-124.31
2047,-99.33
2059,-71.35
2071,-42.13
2083,-15.44
2095,4.59
2107,15.79
2119,19.14
2130,17.99
2141,16.02
2153,15.54
2165,17.22
2177,21.61
2189,27.32
2201,31.64
2213,32.58
2225,30.24
2237,25.94
2249,21.75
2261,19.12
2273,18.59
2285,20.81
2297,25.26
2309,30.47
2320,34.98
2331,37.96
2343,38.96
2355,37.35
2367,32.25
2379,23.12
2391,10.58
2403,-4.21
2415,-19.96
2427,-35.27
2439,-48.69
2451,-59.16
2463,-66.11
2475,-69.6
2487,-69.95
2499,-67.49
2510,-62.81
2521,-56.82
2533,-50.52
2545,-44.73
2557,-39.97
2569,-36.31
2581,-33.59
2593,-31.45
2605,-29.53
2617,-27.64
2629,-25.76
2641,-24.05
2653,-22.67
2665,-21.71
2677,-21.11
2689,-20.77
2700,-20.55
2711,-20.32
2723,-20.05
2735,-19.84
2747,-19.94
2759,-20.61
2771,-22.07
2783,-24.3
2795,-27.1
2807,-30.02
2819,-32.61
2831,-34.61
2843,-36.15
2855,-37.82
2867,-40.51
2879,-45.12
2890,-52.08
2901,-61.21
2913,-71.73
2925,-82.6
2937,-92.91
2949,-101.96
2961,-109.07
2973,-113.24
2985,-113.07
2997,-107.03
3009,-94.13
3021,-74.27
3033,-48.31
3045,-17.67
3057,16.08
3069,51.43
3080,86.6
3091,119.13
3103,145.81
3115,163.35
3127,169.55
3139,164.4
3151,150.27
3163,130.91
3175,109.97
3187,89.74
3199,70.78
3211,52.5
3223,34.12
3235,15.6
3247,-2.0
3259,-16.86
3270,-27.25
3281,-32.33
3293,-32.62
3305,-29.9
3317,-26.52
3329,-24.64
3341,-25.39
3353,-28.32
3365,-31.6
3377,-32.98
3389,-31.08
3401,-26.17
3413,-20.06
3425,-15.26
3437,-14.05
3449,-17.5
3460,-25.06
3471,-34.95
3483,-45.04
3495,-53.59
3507,-59.54
3519,-62.25
3531,-61.43
3543,-57.49
3555,-51.42
3567,-44.51
3579,-37.95
3591,-32.66
3603,-28.97
3615,-26.49
3627,-23.85
3639,-19.76
3650,-14.09
3661,-7.99
3673,-3.01
3685,0.01
3697,1.3
3709,2.19
3721,4.48
3733,10.39
3745,21.04
3757,35.61
3769,51.75
3781,67.1
3793,80.46
3805,91.67
3817,101.11
3829,104.57
3840,99.09
3851,86.74
3863,73.93
3875,66.36
3887,65.64
3899,69.32
3911,71.99
3923,67.7
3935,52.68
3947,28.47
3959,1.07
3971,-22.35
3983,-37.35
3995,-44.15
4007,-45.67
4019,-46.29
4030,-49.6
4041,-57.13
4053,-67.15
4065,-76.71
4077,-83.83
4089,-88.4
4101,-91.11
4113,-92.04
4125,-90.38
4137,-82.44
4149,-66.6
4161,-43.1
4173,-14.64
4185,14.19
4197,38.49
4209,54.84
4220,62.5
4231,62.91
4243,58.55
4255,51.82
4267,44.91
4279,39.16
4291,34.82
4303,31.21
4315,27.46
4327,23.05
4339,18.03
4351,12.77
4363,7.71
4375,3.39
4387,0.12
4399,-2.37
4410,-4.75
4421,-7.68
4433,-11.38
4445,-15.58
4457,-19.92
4469,-23.98
4481,-27.04
4493,-28.42
4505,-27.95
4517,-26.01
4529,-23.13
4541,-19.61
4553,-15.32
4565,-10.4
4577,-4.87
4589,1.84
4600,10.5
4611,21.44
4623,34.28
4635,48.17
4647,62.1
4659,74.99
4671,84.77
4683,89.85
4695,90.86
4707,90.78
4719,93.87
4731,104.05
4743,123.29
4755,150.15
4767,179.15
4779,200.32
4790,203.3
4801,181.9
4813,136.14
4825,71.17
4837,-4.99
4849,-83.99
4861,-157.98
4873,-211.94
4885,-234.76
4897,-227.06
4909,-197.93
4921,-157.33
4933,-112.98
4945,-70.78
4957,-35.09
4969,-8.54
4980,8.42
4991,15.88
5003,14.94
5015,8.47
5027,0.23
5039,-6.61
5051,-10.21
5063,-9.6
5075,-5.72
5087,-0.03
5099,4.69
5111,5.93
5123,3.13
5135,-2.3
5147,-8.14
5159,-12.49
5170,-14.22
5181,-13.19
5193,-10.0
5205,-6.5
5217,-4.52
5229,-4.71
5241,-6.42
5253,-8.5
5265,-10.13
5277,-10.58
5289,-9.29
5301,-5.78
5313,-0.2
5325,6.84
5337,14.65
5349,22.38
5360,28.95
5371,33.01
5383,33.55
5395,30.25
5407,23.56
5419,14.12
5431,2.59
5443,-10.19
5455,-23.01
5467,-34.42
5479,-43.07
5491,-47.91
5503,-48.59
5515,-45.69
5527,-40.88
5539,-36.37
5550,-33.93
5561,-34.05
5573,-33.71
5585,-29.46
5597,-19.32
5609,-3.62
5621,15.8
5633,36.52
5645,56.0
5657,72.01
5669,82.61
5681,86.08
5693,80.33
5705,64.03
5717,38.04
5729,6.46
5740,-23.87
5751,-45.47
5763,-53.4
5775,-47.51
5787,-32.51
5799,-15.92
5811,-4.23
5823,0.04
5835,-1.52
5847,-5.29
5859,-8.43
5871,-10.54
5883,-13.23
5895,-18.21
5907,-25.92
5919,-35.01
5930,-42.74
5941,-46.74
5953,-46.14
5965,-41.67
5977,-35.24
5989,-28.76
6001,-23.28
6013,-19.04
6025,-15.7
6037,-12.55
6049,-9.17
6061,-5.65
6073,-2.48
6085,-0.3
6097,0.42
6109,0.03
6120,-0.83
6131,-2.41
6143,-4.33
6155,-6.03
6167,-6.87
6179,-6.46
6191,-4.89
6203,-2.09
6215,1.71
6227,6.0
6239,10.13
6251,13.52
6263,15.85
6275,17.18
6287,17.96
6299,19.03
6310,19.74
6321,21.15
6333,24.19
6345,29.0
6357,35.19
6369,42.16
6381,49.37
6393,56.34
6405,62.56
6417,67.58
6429,72.2
6441,77.08
6453,82.4
6465,88.11
6477,94.05
6489,99.97
6500,105.37
6511,109.33
6523,104.88
6535,89.06
6547,64.22
6559,36.39
6571,11.13
6583,-8.48
6595,-21.68
6607,-29.28
6619,-33.51
6631,-36.18
6643,-37.77
6655,-38.75
6667,-39.89
6679,-42.2
6690,-45.39
6701,-49.03
6713,-52.52
6725,-55.45
6737,-57.71
6749,-58.79
6761,-58.48
6773,-57.11
6785,-55.48
6797,-54.32
6809,-54.21
6821,-55.41
6833,-57.94
6845,-61.57
6857,-65.47
6869,-68.53
6880,-69.93
6891,-69.53
6903,-67.69
6915,-65.09
6927,-62.38
6939,-60.01
6951,-58.04
6963,-55.95
6975,-52.46
6987,-46.42
6999,-37.55
7011,-26.49
7023,-14.33
7035,-2.24
7047,9.05
7059,19.37
7070,29.01
7081,39.26
7093,51.18
7105,64.89
7117,79.57
7129,94.23
7141,108.18
7153,121.52
7165,134.85
7177,143.15
7189,141.54
7201,127.77
7213,103.37
7225,71.87
7237,37.34
7249,3.55
7260,-25.9
7271,-48.49
7283,-63.33
7295,-70.13
7307,-69.08
7319,-60.6
7331,-47.07
7343,-28.81
7355,-7.64
7367,13.26
7379,30.32
7391,41.06
7403,45.74
7415,46.71
7427,46.94
7439,48.41
7450,51.53
7461,54.7
7473,55.53
7485,51.09
7497,39.98
7509,23.05
7521,2.67
7533,-18.25
7545,-37.22
7557,-52.35
7569,-62.78
7581,-68.05
7593,-67.81
7605,-61.74
7617,-49.79
7629,-32.77
7640,-12.71
7651,7.4
7663,24.61
7675,36.54
7687,42.28
7699,42.31
7711,38.33
7723,32.47
7735,26.73
7747,22.55
7759,20.58
7771,20.8
7783,22.55
7795,24.87
7807,26.84
7819,27.88
7830,27.82
7841,26.72
7853,24.71
7865,21.78
7877,17.76
7889,12.4
7901,5.8
7913,-1.46
7925,-8.44
7937,-14.27
7949,-18.75
7961,-22.35
7973,-25.85
7985,-29.8
7997,-34.25
8009,-38.86
8020,-43.36
8031,-47.78
8043,-52.43
8055,-57.75
8067,-63.43
8079,-68.12
8091,-69.8
8103,-66.73
8115,-58.28
8127,-45.38
8139,-29.99
8151,-14.32
8163,-0.86
8175,8.86
8187,14.7
8199,17.59
8210,18.61
8221,18.52
8233,17.18
8245,14.27
8257,9.49
8269,1.56
8281,-10.2
8293,-24.7
8305,-39.38
8317,-51.6
8329,-59.32
8341,-62.49
8353,-61.72
8365,-58.08
8377,-54.91
8389,-55.04
8400,-58.56
8411,-62.82
8423,-64.31
8435,-59.9
8447,-49.43
8459,-34.41
8471,-17.85
8483,-6.4
8495,-6.22
8507,-19.6
8519,-44.62
8531,-77.29
8543,-112.71
8555,-148.04
8567,-180.6
8579,-191.45
8590,-168.23
8601,-116.0
8613,-53.91
8625,0.74
8637,36.16
8649,59.44
8661,76.79
8673,92.86
8685,110.62
8697,128.38
8709,142.14
8721,148.47
8733,145.22
8745,131.87
8757,110.83
8769,85.26
8780,60.06
8791,39.69
8803,24.19
8815,10.98
8827,0.49
8839,-6.34
8851,-9.84
8863,-10.44
8875,-9.26
8887,-7.04
8899,-4.5
8911,-3.22
8923,-4.55
8935,-6.78
8947,-7.92
8959,-7.26
8970,-5.52
8981,-5.19
8993,-8.07
9005,-14.32
9017,-23.2
9029,-32.97
9041,-41.73
9053,-49.0
9065,-55.11
9077,-59.75
9089,-61.43
9101,-57.43
9113,-45.41
9125,-25.45
9137,-0.41
9149,25.46
9160,48.19
9171,65.94
9183,79.12
9195,88.71
9207,94.68
9219,95.74
9231,90.6
9243,79.75
9255,66.34
9267,54.95
9279,49.47
9291,50.99
9303,57.12
9315,63.39
9327,65.71
9339,62.42
9350,54.63
9361,45.0
9373,35.84
9385,27.97
9397,20.81
9409,13.41
9421,5.57
9433,-1.58
9445,-6.0
9457,-5.78
9469,-0.21
9481,9.74
9493,21.84
9505,33.6
9517,43.36
9529,50.84
9540,57.02
9551,63.43
9563,71.27
9575,80.72
9587,90.74
9599,99.11
9611,102.82
9623,98.67
9635,84.1
9647,58.21
9659,22.64
9671,-18.32
9683,-58.55
9695,-91.85
9707,-113.7
9719,-122.46
9730,-119.3
9741,-107.25
9753,-89.77
9765,-69.75
9777,-49.31
9789,-30.12
9801,-13.82
9813,-1.97
9825,4.39
9837,5.2
9849,1.56
9861,-4.66
9873,-11.5
9885,-17.62
9897,-22.56
9909,-26.52
9920,-29.79
9931,-32.35
9943,-33.79
9955,-33.56
9967,-31.4
9979,-27.63
9991,-23.14
10003,-19.02
10015,-16.04
10027,-14.38
10039,-13.69
10051,-13.36
10063,-12.88
10075,-12.07
10087,-11.06
10099,-10.18
10110,-9.74
10121,-9.9
10133,-10.68
10145,-12.0
10157,-13.72
10169,-15.65
10181,-17.66
10193,-19.63
10205,-21.56
10217,-23.48
10229,-25.52
10241,-27.79
10253,-30.37
10265,-33.21
10277,-36.05
10289,-38.46
10300,-39.97
10311,-40.22
10323,-39.12
10335,-36.92
10347,-34.11
10359,-31.26
10371,-28.76
10383,-26.8
10395,-25.29
10407,-23.98
10419,-22.54
10431,-20.62
10443,-17.89
10455,-14.13
10467,-9.38
10479,-3.98
10490,1.47
10501,6.18
10513,9.5
10525,11.0
10537,10.68
10549,8.84
10561,5.98
10573,2.67
10585,-0.64
10597,-3.64
10609,-6.19
10621,-8.24
10633,-9.77
10645,-10.72
10657,-10.84
10669,-9.81
10680,-7.29
10691,-3.15
10703,2.29
10715,8.31
10727,13.84
10739,17.84
10751,19.58
10763,18.91
10775,16.24
10787,12.35
10799,8.14
10811,4.32
10823,1.39
10835,-0.41
10847,-1.0
10859,-0.39
10870,1.29
10881,3.81
10893,6.84
10905,10.06
10917,13.23
10929,16.22
10941,19.12
10953,22.05
10965,25.14
10977,28.4
10989,31.71
11001,34.85
11013,37.61
11025,39.79
11037,41.31
11049,42.22
11060,42.67
11071,42.8
11083,42.65
11095,42.16
11107,41.14
11119,39.48
11131,37.25
11143,34.67
11155,32.02
11167,29.43
11179,26.85
11191,24.07
11203,21.01
11215,17.75
11227,14.58
11239,11.86
11250,9.66
11261,7.68
11273,5.23
11285,1.49
11297,-4.09
11309,-11.62
11321,-20.64
11333,-30.39
11345,-39.99
11357,-48.67
11369,-55.86
11381,-61.18
11393,-64.38
11405,-65.29
11417,-63.89
11429,-60.38
11440,-55.14
11451,-48.71
11463,-41.68
11475,-34.46
11487,-27.37
11499,-20.58
11511,-14.28
11523,-8.69
11535,-4.04
11547,-0.46
11559,2.11
11571,3.91
11583,5.26
11595,6.47
11607,7.67
11619,8.89
11630,10.09
11641,11.27
11653,12.56
11665,14.12
11677,16.03
11689,18.18
11701,20.28
11713,22.07
11725,23.48
11737,24.66
11749,25.97
11761,27.76
11773,30.17
11785,33.07
11797,36.04
11809,38.58
11820,40.23
11831,40.71
11843,40.0
11855,38.28
11867,35.86
11879,33.05
11891,30.08
11903,27.09
11915,24.02
11927,20.76
11939,17.13
11951,13.03
11963,8.48
11975,3.67
11987,-1.19
11999,-5.87
12010,-10.18
12021,-13.97
12033,-17.11
12045,-19.46
12057,-20.85
12069,-21.14
12081,-20.33
12093,-18.55
12105,-16.11
12117,-13.38
12129,-10.7
12141,-8.38
12153,-6.65
12165,-5.65
12177,-5.44
12189,-5.93
12200,-6.77
12211,-7.49
12223,-7.47
12235,-6.23
12247,-3.57
12259,0.29
12271,4.74
12283,9.06
12295,12.64
12307,15.22
12319,16.94
12331,18.17
12343,19.25
12355,20.27
12367,21.11
12379,21.44
12390,21.02
12401,19.8
12413,17.9
12425,15.55
12437,12.97
12449,10.3
12461,7.58
12473,4.86
12485,2.13
12497,-0.57
12509,-3.17
12521,-5.54
12533,-7.45
12545,-8.55
12557,-8.58
12569,-7.55
12580,-5.87
12591,-4.35
12603,-3.84
12615,-4.88
12627,-7.39
12639,-10.6
12651,-13.4
12663,-14.81
12675,-14.39
12687,-12.31
12699,-9.23
12711,-5.83
12723,-2.64
12735,0.24
12747,3.2
12759,7.11
12770,13.12
12781,22.35
12793,35.34
12805,51.53
12817,68.92
12829,84.28
12841,93.92
12853,94.94
12865,86.41
12877,69.96
12889,49.62
12901,30.56
12913,17.6
12925,13.76
12937,19.39
12949,32.32
12960,48.83
12971,64.91
12983,77.45
12995,84.94
13007,87.45
13019,86.09
13031,82.3
13043,77.29
13055,71.77
13067,66.04
13079,60.33
13091,55.05
13103,50.8
13115,48.08
13127,46.8
13139,46.08
13150,44.43
13161,40.41
13173,33.36
13185,23.8
13197,13.22
13209,3.35
13221,-4.8
13233,-11.48
13245,-17.95
13257,-25.9
13269,-36.54
13281,-50.17
13293,-66.09
13305,-83.04
13317,-99.48
13329,-113.95
13340,-125.03
13351,-131.4
13363,-132.06
13375,-126.6
13387,-115.54
13399,-100.36
13411,-83.29
13423,-66.66
13435,-52.35
13447,-41.29
13459,-33.36
13471,-27.62
13483,-22.81
13495,-17.81
13507,-12.04
13519,-5.61
13530,0.78
13541,6.19
13553,9.86
13565,11.46
13577,11.24
13589,9.77
13601,7.72
13613,5.47
13625,3.09
13637,0.36
13649,-2.91
13661,-6.66
13673,-10.57
13685,-14.17
13697,-17.09
13709,-19.34
13720,-21.24
13731,-23.4
13743,-26.27
13755,-29.99
13767,-34.23
13779,-38.34
13791,-41.62
13803,-43.63
13815,-44.34
13827,-44.07
13839,-43.22
13851,-42.08
13863,-40.72
13875,-38.92
13887,-36.48
13899,-33.34
13910,-29.81
13921,-26.49
13933,-24.09
13945,-23.06
13957,-23.45
13969,-24.88
13981,-26.64
13993,-28.06
14005,-28.69
14017,-28.42
14029,-27.6
14041,-26.82
14053,-26.73
14065,-27.83
14077,-30.18
14089,-33.25
14100,-35.97
14111,-36.99
14123,-35.1
14135,-29.71
14147,-21.03
14159,-10.03
14171,1.88
14183,13.35
14195,23.41
14207,31.64
14219,38.08
14231,43.07
14243,46.95
14255,50.03
14267,52.49
14279,54.3
14290,55.34
14301,55.37
14313,54.22
14325,52.04
14337,49.45
14349,47.49
14361,47.24
14373,49.27
14385,53.2
14397,57.66
14409,60.71
14421,60.53
14433,56.07
14445,47.34
14457,35.28
14469,21.32
14480,6.9
14491,-6.91
14503,-19.46
14515,-30.54
14527,-40.24
14539,-48.72
14551,-56.13
14563,-62.48
14575,-67.57
14587,-71.17
14599,-73.18
14611,-73.78
14623,-73.33
14635,-72.1
14647,-70.07
14659,-66.85
14670,-62.02
14681,-55.5
14693,-47.86
14705,-40.25
14717,-33.98
14729,-29.98
14741,-28.4
14753,-28.51
14765,-29.15
14777,-29.25
14789,-28.3
14801,-26.47
14813,-24.39
14825,-22.72
14837,-21.76
14849,-21.37
14860,-21.02
14871,-20.24
14883,-18.85
14895,-17.0
14907,-15.02
14919,-13.03
14931,-10.91
14943,-8.24
14955,-4.63
14967,0.12
14979,5.76
14991,11.79
15003,17.57
15015,22.63
15027,26.76
15039,30.01
15050,32.57
15061,34.58
15073,36.09
15085,36.97
15097,37.08
15109,36.19
15121,34.13
15133,30.83
15145,26.39
15157,21.11
15169,15.48
15181,10.13
15193,5.69
15205,2.65
15217,1.22
15229,1.22
15240,2.21
15251,3.59
15263,4.84
15275,5.58
15287,5.61
15299,4.9
15311,3.52
15323,1.56
15335,-0.82
15347,-3.51
15359,-6.48
15371,-9.73
15383,-13.22
15395,-16.83
15407,-20.29
15419,-23.27
15430,-25.58
15441,-27.36
15453,-29.03
15465,-31.16
15477,-34.04
15489,-37.46
15501,-40.62
15513,-42.49
15525,-42.12
15537,-38.96
15549,-32.92
15561,-24.23
15573,-13.3
15585,-0.69
15597,12.88
15609,26.54
15620,39.39
15631,50.82
15643,60.67
15655,69.15
15667,76.47
15679,82.56
15691,86.98
15703,89.18
15715,89.01
15727,87.06
15739,84.53
15751,82.69
15763,82.21
15775,82.7
15787,82.83
15799,80.83
15810,75.4
15821,66.19
15833,53.89
15845,39.87
15857,25.54
15869,12.01
15881,-0.15
15893,-10.76
15905,-19.68
15917,-26.6
15929,-31.32
15941,-34.17
15953,-36.13
15965,-38.6
15977,-42.83
15989,-49.43
16000,-58.17
16011,-67.93
16023,-76.82
16035,-83.08
16047,-85.96
16059,-85.81
16071,-83.77
16083,-81.41
16095,-80.25
16107,-81.43
16119,-85.14
16131,-90.15
16143,-94.67
16155,-97.48
16167,-98.28
16179,-97.52
16190,-95.9
16201,-93.68
16213,-90.27
16225,-84.05
16237,-72.62
16249,-54.36
16261,-29.77
16273,-0.99
16285,29.74
16297,61.49
16309,94.96
16321,129.63
16333,159.29
16345,175.81
16357,175.09
16369,158.68
16380,132.3
16391,103.71
16403,79.52
16415,62.42
16427,49.99
16439,37.08
16451,20.14
16463,0.08
16475,-19.9
16487,-35.65
16499,-44.35
16511,-47.11
16523,-48.13
16535,-51.9
16547,-59.7
16559,-68.12
16570,-71.22
16581,-64.84
16593,-48.43
16605,-23.71
16617,3.46
16629,26.26
16641,40.0
16653,44.03
16665,41.26
16677,36.13
16689,31.79
16701,29.97
16713,31.82
16725,37.2
16737,45.31
16749,55.19
16760,66.34
16771,78.54
16783,91.58
16795,104.55
16807,111.12
16819,108.78
16831,99.88
16843,89.04
16855,78.39
16867,66.51
16879,50.41
16891,31.42
16903,8.2
16915,-18.13
16927,-43.95
16939,-65.94
16950,-82.54
16961,-93.92
16973,-99.21
16985,-97.75
16997,-89.21
17009,-74.89
17021,-56.43
17033,-35.36
17045,-14.08
17057,4.15
17069,16.06
17081,19.69
17093,14.47
17105,1.59
17117,-17.36
17129,-39.51
17140,-61.03
17151,-78.63
17163,-90.62
17175,-96.74
17187,-97.33
17199,-92.92
17211,-81.94
17223,-65.23
17235,-45.83
17247,-27.32
17259,-10.84
17271,4.32
17283,18.84
17295,33.66
17307,47.35
17319,59.14
17330,67.92
17341,73.0
17353,74.44
17365,72.97
17377,69.64
17389,65.76
17401,62.83
17413,61.89
17425,63.34
17437,66.04
17449,68.17
17461,67.96
17473,64.3
17485,56.81
17497,46.04
17509,33.27
17520,19.92
17531,7.41
17543,-3.7
17555,-13.37
17567,-21.82
17579,-29.36
17591,-36.34
17603,-42.97
17615,-49.23
17627,-54.83
17639,-59.15
17651,-61.48
17663,-61.01
17675,-57.0
17687,-49.2
17699,-38.28
17710,-25.9
17721,-14.3
17733,-5.67
17745,-1.36
17757,-1.56
17769,-5.12
17781,-10.03
17793,-14.13
17805,-15.88
17817,-14.7
17829,-11.0
17841,-5.82
17853,-0.35
17865,4.32
17877,7.56
17889,9.08
17900,8.84
17911,6.91
17923,3.43
17935,-1.36
17947,-7.11
17959,-13.33
17971,-19.53
17983,-25.14
17995,-29.59
18007,-32.37
18019,-33.03
18031,-31.22
18043,-26.72
18055,-19.44
18067,-9.44
18079,2.88
18090,16.74
18101,30.8
18113,43.36
18125,52.67
18137,57.52
18149,57.57
18161,53.52
18173,46.81
18185,39.06
18197,31.56
18209,24.94
18221,19.25
18233,14.23
18245,9.56
18257,5.05
18269,0.66
18280,-3.52
18291,-7.41
18303,-10.93
18315,-13.96
18327,-16.44
18339,-18.28
18351,-19.48
18363,-20.1
18375,-20.23
18387,-19.92
18399,-19.23
18411,-18.16
18423,-16.74
18435,-15.06
18447,-13.24
18459,-11.47
18470,-9.95
18481,-8.91
18493,-8.56
18505,-9.04
18517,-10.3
18529,-11.98
18541,-13.48
18553,-13.97
18565,-12.75
18577,-9.47
18589,-4.31
18601,2.08
18613,8.84
18625,15.14
18637,20.55
18649,25.04
18660,29.0
18671,32.98
18683,37.45
18695,42.64
18707,48.38
18719,54.1
18731,58.82
18743,61.39
18755,60.63
18767,55.75
18779,46.58
18791,33.67
18803,18.33
18815,2.23
18827,-12.89
18839,-25.58
18850,-34.92
18861,-40.56
18873,-42.57
18885,-41.4
18897,-37.69
18909,-32.12
18921,-25.43
18933,-18.22
18945,-11.02
18957,-4.23
18969,1.72
18981,6.38
18993,9.22
19005,9.75
19017,7.67
19029,3.08
19040,-3.41
19051,-10.82
19063,-17.93
19075,-23.68
19087,-27.33
19099,-28.65
19111,-27.85
19123,-25.42
19135,-21.97
19147,-18.1
19159,-14.2
19171,-10.49
19183,-6.98
19195,-3.6
19207,-0.22
19219,3.25
19230,6.78
19241,10.1
19253,12.8
19265,14.41
19277,14.54
19289,12.98
19301,9.81
19313,5.32
19325,-0.06
19337,-5.87
19349,-11.71
19361,-17.27
19373,-22.39
19385,-27.06
19397,-31.43
19409,-35.86
19420,-40.73
19431,-46.33
19443,-52.66
19455,-59.34
19467,-65.59
19479,-70.47
19491,-73.11
19503,-72.94
19515,-69.81
19527,-63.97
19539,-55.86
19551,-45.89
19563,-34.32
19575,-21.16
19587,-6.23
19599,10.64
19610,29.55
19621,50.33
19633,72.53
19645,95.4
19657,117.88
19669,138.65
19681,156.25
19693,169.31
19705,176.84
19717,178.46
19729,174.43
19741,165.6
19753,153.0
19765,137.66
19777,120.37
19789,101.74
19800,82.31
19811,62.65
19823,43.41
19835,25.17
19847,8.4
19859,-6.63
19871,-19.83
19883,-31.11
19895,-40.36
19907,-47.41
19919,-52.08
19931,-54.32
19943,-54.34
19955,-52.59
19967,-49.73
19979,-46.46
19990,-43.36
20001,-40.73
20013,-38.58
20025,-36.73
20037,-34.95
20049,-33.09
20061,-31.11
20073,-29.08
20085,-27.05
20097,-25.02
20109,-22.98
20121,-20.9
20133,-18.78
20145,-16.65
20157,-14.52
20169,-12.41
20180,-10.35
20191,-8.44
20203,-6.75
20215,-5.28
20227,-4.0
20239,-2.76
20251,-1.49
20263,-0.19
20275,1.02
20287,1.96
20299,2.53
20311,2.73
20323,2.73
20335,2.7
20347,2.8
20359,3.03
20370,3.31
20381,3.45
20393,3.32
20405,2.83
20417,2.01
20429,0.99
20441,-0.04
20453,-0.93
20465,-1.56
20477,-1.96
20489,-2.17
20501,-2.32
20513,-2.46
20525,-2.67
20537,-3.0
20549,-3.48
20560,-4.17
20571,-5.05
20583,-6.04
20595,-7.02
20607,-7.89
20619,-8.57
20631,-9.11
20643,-9.66
20655,-10.41
20667,-11.46
20679,-12.75
20691,-14.02
20703,-14.86
20715,-14.82
20727,-13.63
20739,-11.34
20750,-8.33
20761,-5.2
20773,-2.51
20785,-0.6
20797,0.57
20809,1.25
20821,1.8
20833,2.43
20845,3.13
20857,3.75
20869,4.12
20881,4.15
20893,3.89
20905,3.51
20917,3.14
20929,2.9
20940,2.83
20951,2.98
20963,3.36
20975,3.96
20987,4.69
20999,5.41
