seconds,BVP
0,-18.16
12,-21.58
24,-24.92
36,-27.59
48,-28.99
60,-28.65
72,-26.39
84,-22.42
96,-17.33
108,-11.94
120,-7.05
132,-3.16
143,-0.41
154,1.43
166,2.73
178,3.87
190,5.05
202,6.23
214,7.19
226,7.66
238,7.45
250,6.56
262,5.14
274,3.48
286,1.86
298,0.46
310,-0.63
322,-1.41
333,-1.83
344,-1.76
356,-1.01
368,0.54
380,2.78
392,5.37
404,7.7
416,9.14
428,9.14
440,7.39
452,3.94
464,-0.93
476,-6.69
488,-12.68
500,-18.28
512,-22.97
523,-26.47
534,-28.72
546,-29.91
558,-30.41
570,-30.57
582,-30.63
594,-30.58
606,-30.18
618,-29.12
630,-27.18
642,-24.44
654,-21.22
666,-17.97
678,-14.99
690,-12.25
702,-9.43
713,-6.05
724,-1.73
736,3.62
748,9.79
760,16.39
772,23.01
784,29.4
796,35.42
808,41.02
820,46.12
832,50.67
844,54.64
856,58.1
868,61.18
880,63.96
892,66.4
903,68.27
914,69.32
926,69.42
938,68.67
950,67.37
962,65.9
974,64.38
986,62.65
998,60.26
1010,56.69
1022,51.54
1034,44.65
1046,36.02
1058,25.75
1070,14.04
1082,1.35
1093,-11.49
1104,-23.2
1116,-32.42
1128,-38.32
1140,-41.08
1152,-42.06
1164,-43.36
1176,-46.95
1188,-53.87
1200,-63.85
1212,-75.63
1224,-87.53
1236,-98.17
1248,-106.6
1260,-112.07
1272,-113.69
1283,-110.21
1294,-100.45
1306,-83.99
1318,-61.82
1330,-36.35
1342,-10.86
1354,11.58
1366,29.15
1378,41.65
1390,50.36
1402,57.15
1414,63.73
1426,71.13
1438,79.58
1450,88.81
1462,98.32
1473,107.48
1484,115.55
1496,121.6
1508,124.54
1520,123.37
1532,117.54
1544,107.12
1556,92.89
1568,76.1
1580,58.28
1592,40.86
1604,25.05
1616,11.72
1628,1.34
1640,-5.95
1652,-10.27
1663,-11.7
1674,-10.21
1686,-5.58
1698,2.38
1710,13.64
1722,27.61
1734,43.07
1746,58.35
1758,71.63
1770,81.44
1782,86.93
1794,88.08
1806,85.47
1818,80.02
1830,72.58
1842,63.72
1853,53.74
1864,42.72
1876,30.81
1888,18.33
1900,5.78
1912,-6.25
1924,-17.29
1936,-27.18
1948,-36.08
1960,-44.34
1972,-52.36
1984,-60.35
1996,-68.21
2008,-75.58
2020,-81.85
2032,-86.38
2043,-88.6
2054,-88.1
2066,-84.75
2078,-78.73
2090,-70.69
2102,-61.71
2114,-53.28
2126,-46.93
2138,-43.7
2150,-43.7
2162,-45.91
2174,-48.46
2186,-49.35
2198,-47.21
2210,-41.79
2222,-33.96
2233,-25.18
2244,-16.91
2256,-10.05
2268,-4.86
2280,-0.99
2292,1.99
2304,4.25
2316,5.7
2328,6.21
2340,5.89
2352,5.16
2364,4.61
2376,4.69
2388,5.71
2400,7.41
2412,8.84
2423,8.73
2434,6.16
2446,1.03
2458,-5.79
2470,-12.66
2482,-17.9
2494,-20.0
2506,-18.75
2518,-15.48
2530,-12.63
2542,-12.51
2554,-16.36
2566,-23.9
2578,-33.57
2590,-43.28
2602,-50.47
2613,-53.2
2624,-50.31
2636,-41.67
2648,-28.05
2660,-11.6
2672,3.97
2684,14.77
2696,15.43
2708,4.18
2720,-14.34
2732,-31.12
2744,-38.72
2756,-34.59
2768,-20.78
2780,-1.49
2792,18.97
2803,36.97
2814,52.42
2826,64.59
2838,72.08
2850,73.88
2862,70.43
2874,63.72
2886,56.05
2898,49.01
2910,43.14
2922,39.46
2934,38.88
2946,42.07
2958,48.04
2970,52.64
2982,49.0
2993,30.36
3004,-5.54
3016,-53.67
3028,-102.26
3040,-138.01
3052,-152.04
3064,-143.75
3076,-120.17
3088,-91.54
3100,-66.22
3112,-47.64
3124,-34.7
3136,-24.51
3148,-15.36
3160,-7.59
3172,-2.82
3183,-2.13
3194,-4.93
3206,-9.01
3218,-11.71
3230,-11.26
3242,-7.8
3254,-3.54
3266,-1.78
3278,-5.42
3290,-15.63
3302,-31.32
3314,-49.52
3326,-66.56
3338,-79.31
3350,-86.16
3362,-87.16
3373,-83.54
3384,-76.95
3396,-68.96
3408,-60.88
3420,-53.79
3432,-48.51
3444,-45.45
3456,-44.46
3468,-44.69
3480,-44.83
3492,-43.44
3504,-39.44
3516,-32.39
3528,-22.47
3540,-10.57
3552,1.94
3563,13.2
3574,21.12
3586,23.99
3598,21.1
3610,13.35
3622,3.35
3634,-5.26
3646,-8.87
3658,-5.15
3670,6.21
3682,23.51
3694,43.75
3706,63.62
3718,80.39
3730,92.39
3742,98.94
3753,99.99
3764,95.63
3776,86.0
3788,71.29
3800,52.05
3812,29.3
3824,4.61
3836,-20.13
3848,-42.89
3860,-61.88
3872,-75.67
3884,-83.38
3896,-84.81
3908,-80.61
3920,-72.43
3932,-62.55
3943,-53.46
3954,-47.04
3966,-43.84
3978,-42.95
3990,-42.45
4002,-40.5
4014,-36.3
4026,-30.51
4038,-24.89
4050,-21.24
4062,-20.52
4074,-22.35
4086,-25.31
4098,-27.74
4110,-28.48
4122,-27.24
4133,-24.52
4144,-21.11
4156,-17.77
4168,-14.96
4180,-12.8
4192,-11.19
4204,-9.83
4216,-8.33
4228,-6.29
4240,-3.48
4252,0.06
4264,3.98
4276,7.64
4288,10.25
4300,10.98
4312,9.11
4323,4.22
4334,-3.58
4346,-13.47
4358,-23.82
4370,-32.35
4382,-36.56
4394,-34.34
4406,-24.37
4418,-6.59
4430,17.89
4442,46.91
4454,77.61
4466,106.91
4478,132.08
4490,151.02
4502,162.43
4513,165.96
4524,162.14
4536,152.33
4548,138.29
4560,121.62
4572,103.01
4584,82.03
4596,57.37
4608,28.08
4620,-4.89
4632,-37.7
4644,-64.14
4656,-77.92
4668,-75.47
4680,-58.06
4692,-31.72
4703,-4.95
4714,14.48
4726,22.09
4738,17.31
4750,2.68
4762,-17.94
4774,-40.74
4786,-62.42
4798,-80.18
4810,-91.56
4822,-94.61
4834,-88.18
4846,-72.35
4858,-48.34
4870,-18.21
4882,15.35
4893,49.16
4904,79.87
4916,104.62
4928,121.72
4940,131.38
4952,135.46
4964,136.76
4976,137.78
4988,139.67
5000,141.9
5012,142.65
5024,139.73
5036,131.52
5048,117.67
5060,99.19
5072,78.03
5083,56.37
5094,35.97
5106,17.77
5118,1.89
5130,-11.94
5142,-24.0
5154,-34.35
5166,-42.86
5178,-49.45
5190,-54.27
5202,-57.78
5214,-60.55
5226,-63.06
5238,-65.43
5250,-67.42
5262,-68.59
5273,-68.6
5284,-67.47
5296,-65.6
5308,-63.62
5320,-62.0
5332,-60.8
5344,-59.5
5356,-57.26
5368,-53.3
5380,-47.31
5392,-39.65
5404,-31.25
5416,-23.17
5428,-16.3
5440,-11.04
5452,-7.39
5463,-5.09
5474,-3.84
5486,-3.36
5498,-3.42
5510,-3.82
5522,-4.38
5534,-4.95
5546,-5.44
5558,-5.8
5570,-6.03
5582,-6.04
5594,-5.69
5606,-4.82
5618,-3.28
5630,-0.95
5642,2.24
5653,6.29
5664,11.12
5676,16.5
5688,22.04
5700,27.14
5712,31.16
5724,33.54
5736,33.97
5748,32.45
5760,29.26
5772,24.89
5784,19.81
5796,14.44
5808,9.02
5820,3.68
5832,-1.59
5843,-6.8
5854,-11.87
5866,-16.51
5878,-20.24
5890,-22.44
5902,-22.58
5914,-20.46
5926,-16.33
5938,-10.88
5950,-4.98
5962,0.58
5974,5.31
5986,9.05
5998,11.85
6010,13.73
6022,14.65
6033,14.53
6044,13.41
6056,11.6
6068,9.6
6080,7.97
6092,7.08
6104,6.93
6116,7.23
6128,7.51
6140,7.36
6152,6.59
6164,5.25
6176,3.55
6188,1.7
6200,-0.13
6212,-1.91
6223,-3.59
6234,-5.18
6246,-6.68
6258,-8.15
6270,-9.71
6282,-11.44
6294,-13.41
6306,-15.55
6318,-17.69
6330,-19.64
6342,-21.29
6354,-22.69
6366,-23.99
6378,-25.4
6390,-27.06
6402,-28.99
6413,-31.11
6424,-33.28
6436,-35.32
6448,-36.92
6460,-37.69
6472,-37.13
6484,-34.81
6496,-30.61
6508,-24.81
6520,-18.15
6532,-11.55
6544,-5.8
6556,-1.3
6568,2.06
6580,4.73
6592,7.17
6603,9.6
6614,11.88
6626,13.66
6638,14.63
6650,14.73
6662,14.19
6674,13.41
6686,12.78
6698,12.46
6710,12.36
6722,12.27
6734,11.99
6746,11.46
6758,10.78
6770,10.03
6782,9.22
6793,8.22
6804,6.95
6816,5.6
6828,4.83
6840,5.6
6852,8.9
6864,15.29
6876,24.54
6888,35.67
6900,47.32
6912,58.18
6924,67.48
6936,75.04
6948,81.21
6960,86.44
6972,91.04
6983,95.02
6994,98.03
7006,99.48
7018,98.58
7030,94.47
7042,86.45
7054,74.25
7066,58.22
7078,39.32
7090,19.04
7102,-0.97
7114,-19.14
7126,-34.3
7138,-45.73
7150,-53.21
7162,-56.97
7173,-57.62
7184,-56.03
7196,-53.17
7208,-49.91
7220,-46.84
7232,-44.21
7244,-41.95
7256,-39.84
7268,-37.61
7280,-35.05
7292,-31.98
7304,-28.26
7316,-23.89
7328,-18.96
7340,-13.72
7352,-8.5
7363,-3.65
7374,0.56
7386,3.91
7398,6.26
7410,7.48
7422,7.48
7434,6.29
7446,4.05
7458,1.01
7470,-2.65
7482,-6.85
7494,-11.59
7506,-16.79
7518,-22.12
7530,-26.95
7542,-30.51
7553,-32.16
7564,-31.68
7576,-29.33
7588,-25.83
7600,-22.05
7612,-18.77
7624,-16.47
7636,-15.31
7648,-15.17
7660,-15.64
7672,-16.16
7684,-16.05
7696,-14.73
7708,-11.84
7720,-7.41
7732,-1.88
7743,3.99
7754,9.33
7766,13.44
7778,15.91
7790,16.75
7802,16.27
7814,14.97
7826,13.32
7838,11.68
7850,10.22
7862,8.98
7874,7.97
7886,7.16
7898,6.57
7910,6.18
7922,6.0
7933,5.98
7944,6.09
7956,6.34
7968,6.78
7980,7.48
7992,8.42
8004,9.49
8016,10.47
8028,11.08
8040,11.11
8052,10.52
8064,9.44
8076,8.07
8088,6.68
8100,5.4
8112,4.28
8123,3.25
8134,2.12
8146,0.76
8158,-0.89
8170,-2.77
8182,-4.69
8194,-6.39
8206,-7.61
8218,-8.22
8230,-8.26
8242,-7.97
8254,-7.68
8266,-7.74
8278,-8.41
8290,-9.74
8302,-11.48
8313,-13.12
8324,-13.98
8336,-13.41
8348,-11.04
8360,-6.99
8372,-1.85
8384,3.49
8396,8.14
8408,11.45
8420,13.2
8432,13.57
8444,12.97
8456,11.88
8468,10.67
8480,9.57
8492,8.65
8503,7.87
8514,7.14
8526,6.39
8538,5.62
8550,4.9
8562,4.33
8574,4.0
8586,3.9
8598,3.97
8610,4.09
8622,4.19
8634,4.26
8646,4.33
8658,4.38
8670,4.29
8682,3.92
8693,3.16
8704,2.02
8716,0.71
8728,-0.47
8740,-1.24
8752,-1.49
8764,-1.35
8776,-1.09
8788,-1.1
8800,-1.65
8812,-2.79
8824,-4.37
8836,-6.04
8848,-7.46
8860,-8.37
8872,-8.69
8883,-8.53
8894,-8.12
8906,-7.76
8918,-7.65
8930,-7.88
8942,-8.44
8954,-9.15
8966,-9.68
8978,-9.65
8990,-8.63
9002,-6.41
9014,-3.01
9026,1.2
9038,5.58
9050,9.44
9062,12.26
9073,13.83
9084,14.23
9096,13.81
9108,12.9
9120,11.76
9132,10.54
9144,9.24
9156,7.88
9168,6.52
9180,5.23
9192,4.16
9204,3.42
9216,3.06
9228,3.07
9240,3.37
9252,3.87
9263,4.5
9274,5.17
9286,5.76
9298,6.17
9310,6.25
9322,5.88
9334,5.0
9346,3.65
9358,1.99
9370,0.32
9382,-1.07
9394,-1.93
9406,-2.14
9418,-1.78
9430,-1.1
9442,-0.4
9453,0.03
9464,0.02
9476,-0.39
9488,-1.07
9500,-1.8
9512,-2.4
9524,-2.83
9536,-3.16
9548,-3.52
9560,-4.06
9572,-4.86
9584,-5.94
9596,-7.23
9608,-8.57
9620,-9.74
9632,-10.45
9643,-10.42
9654,-9.49
9666,-7.69
9678,-5.28
9690,-2.65
9702,-0.24
9714,1.75
9726,3.26
9738,4.43
9750,5.44
9762,6.33
9774,7.05
9786,7.45
9798,7.44
9810,7.04
9822,6.49
9833,6.07
9844,6.01
9856,6.38
9868,7.07
9880,7.83
9892,8.41
9904,8.62
9916,8.41
9928,7.87
9940,7.14
9952,6.32
9964,5.49
9976,4.64
9988,3.72
10000,2.67
10012,1.45
10023,0.14
10034,-1.17
10046,-2.31
10058,-3.21
10070,-3.87
10082,-4.4
10094,-4.88
10106,-5.35
10118,-5.77
10130,-6.07
10142,-6.23
10154,-6.32
10166,-6.5
10178,-6.9
10190,-7.62
10202,-8.6
10213,-9.78
10224,-11.08
10236,-12.46
10248,-13.84
10260,-15.04
10272,-15.7
10284,-15.44
10296,-13.96
10308,-11.32
10320,-7.9
10332,-4.31
10344,-1.15
10356,1.19
10368,2.66
10380,3.48
10392,3.97
10403,4.36
10414,4.7
10426,4.91
10438,4.91
10450,4.67
10462,4.28
10474,3.89
10486,3.59
10498,3.4
10510,3.24
10522,3.0
10534,2.61
10546,2.15
10558,1.75
10570,1.58
10582,1.72
10593,2.12
10604,2.5
10616,2.54
10628,1.97
10640,0.75
10652,-0.92
10664,-2.68
10676,-4.2
10688,-5.31
10700,-6.06
10712,-6.66
10724,-7.23
10736,-7.77
10748,-8.06
10760,-7.9
10772,-7.23
10783,-6.22
10794,-5.2
10806,-4.53
10818,-4.4
10830,-4.75
10842,-5.42
10854,-6.18
10866,-6.85
10878,-7.31
10890,-7.41
10902,-6.93
10914,-5.65
10926,-3.5
10938,-0.64
10950,2.45
10962,5.23
10973,7.22
10984,8.25
10996,8.47
11008,8.25
11020,7.96
11032,7.77
11044,7.68
11056,7.55
11068,7.33
11080,7.08
11092,6.94
11104,7.06
11116,7.47
11128,8.04
11140,8.56
11152,8.82
11163,8.68
11174,8.15
11186,7.29
11198,6.23
11210,5.07
11222,3.9
11234,2.78
11246,1.77
11258,0.88
11270,0.09
11282,-0.65
11294,-1.44
11306,-2.34
11318,-3.37
11330,-4.5
11342,-5.67
11353,-6.79
11364,-7.78
11376,-8.64
11388,-9.37
11400,-10.05
11412,-10.77
11424,-11.69
11436,-12.93
11448,-14.55
11460,-16.39
11472,-18.09
11484,-19.11
11496,-18.94
11508,-17.37
11520,-14.6
11532,-11.18
11543,-7.85
11554,-5.15
11566,-3.29
11578,-2.17
11590,-1.52
11602,-1.12
11614,-0.91
11626,-0.9
11638,-1.11
11650,-1.48
11662,-1.9
11674,-2.25
11686,-2.47
11698,-2.59
11710,-2.58
11722,-2.42
11733,-2.05
11744,-1.4
11756,-0.53
11768,0.48
11780,1.44
11792,2.12
11804,2.29
11816,1.7
11828,0.17
11840,-2.33
11852,-5.59
11864,-9.17
11876,-12.44
11888,-14.72
11900,-15.39
11912,-13.98
11923,-10.34
11934,-4.74
11946,2.21
11958,9.68
11970,16.95
11982,23.53
11994,29.37
12006,34.78
12018,40.2
12030,45.82
12042,51.35
12054,56.04
12066,59.0
12078,59.57
12090,57.55
12102,53.27
12113,47.51
12124,41.19
12136,35.04
12148,29.49
12160,24.68
12172,20.65
12184,17.48
12196,15.06
12208,13.27
12220,12.25
12232,12.37
12244,14.17
12256,18.1
12268,24.4
12280,33.03
12292,43.58
12303,54.7
12314,64.74
12326,72.41
12338,76.97
12350,78.29
12362,76.38
12374,71.42
12386,63.85
12398,54.53
12410,43.77
12422,32.15
12434,21.04
12446,12.11
12458,6.58
12470,3.97
12482,2.0
12493,-2.44
12504,-11.81
12516,-28.14
12528,-51.49
12540,-79.59
12552,-109.06
12564,-136.7
12576,-161.15
12588,-182.95
12600,-203.51
12612,-215.93
12624,-213.97
12636,-196.38
12648,-168.44
12660,-137.54
12672,-107.45
12683,-78.6
12694,-50.25
12706,-22.1
12718,4.92
12730,27.54
12742,41.74
12754,47.05
12766,45.44
12778,42.17
12790,43.86
12802,56.5
12814,83.24
12826,122.97
12838,169.48
12850,214.34
12862,250.81
12873,271.54
12884,274.06
12896,259.93
12908,233.1
12920,198.1
12932,158.95
12944,118.6
12956,80.02
12968,46.94
12980,22.91
12992,10.64
13004,9.98
13016,17.71
13028,28.92
13040,38.88
13052,44.52
13063,45.27
13074,42.62
13086,38.74
13098,35.71
13110,34.16
13122,33.18
13134,30.85
13146,25.17
13158,14.67
13170,-1.07
13182,-21.18
13194,-43.75
13206,-65.85
13218,-84.47
13230,-97.46
13242,-104.05
13253,-105.05
13264,-102.48
13276,-98.76
13288,-95.93
13300,-95.13
13312,-96.27
13324,-98.55
13336,-101.07
13348,-103.27
13360,-105.01
13372,-106.42
13384,-107.51
13396,-107.95
13408,-107.17
13420,-104.54
13432,-99.81
13443,-93.33
13454,-86.07
13466,-79.26
13478,-73.97
13490,-70.77
13502,-69.6
13514,-70.02
13526,-71.49
13538,-73.64
13550,-76.43
13562,-79.96
13574,-84.27
13586,-89.02
13598,-93.39
13610,-96.28
13622,-96.63
13633,-93.76
13644,-87.75
13656,-79.36
13668,-69.67
13680,-59.74
13692,-50.12
13704,-40.83
13716,-31.53
13728,-21.92
13740,-11.98
13752,-2.12
13764,6.97
13776,14.64
13788,20.43
13800,24.21
13812,26.12
13823,26.54
13834,25.87
13846,24.58
13858,23.09
13870,21.67
13882,20.46
13894,19.43
13906,18.43
13918,17.23
13930,15.69
13942,13.75
13954,11.57
13966,9.39
13978,7.51
13990,6.15
14002,5.39
14013,5.14
14024,5.15
14036,5.11
14048,4.68
14060,3.7
14072,2.2
14084,0.55
14096,-0.69
14108,-0.96
14120,0.17
14132,2.71
14144,6.25
14156,9.99
14168,13.0
14180,14.54
14192,14.31
14203,12.58
14214,10.05
14226,7.77
14238,6.75
14250,7.79
14262,11.27
14274,17.19
14286,25.27
14298,35.0
14310,45.69
14322,56.42
14334,66.05
14346,73.4
14358,77.56
14370,78.14
14382,75.43
14393,70.15
14404,62.98
14416,54.2
14428,43.55
14440,30.48
14452,14.7
14464,-3.34
14476,-22.29
14488,-40.15
14500,-54.89
14512,-64.94
14524,-69.69
14536,-69.41
14548,-65.11
14560,-58.11
14572,-49.75
14583,-41.22
14594,-33.52
14606,-27.44
14618,-23.39
14630,-21.35
14642,-20.69
14654,-20.34
14666,-19.19
14678,-16.51
14690,-12.34
14702,-7.54
14714,-3.4
14726,-1.06
14738,-1.01
14750,-2.83
14762,-5.41
14773,-7.4
14784,-7.63
14796,-5.51
14808,-1.13
14820,4.84
14832,11.45
14844,17.79
14856,23.22
14868,27.56
14880,31.03
14892,34.17
14904,37.53
14916,41.49
14928,45.99
14940,50.45
14952,53.93
14963,55.44
14974,54.38
14986,50.81
14998,45.51
15010,39.64
15022,34.28
15034,30.01
15046,26.69
15058,23.57
15070,19.74
15082,14.42
15094,7.15
15106,-2.15
15118,-13.34
15130,-26.11
15142,-39.94
15153,-54.09
15164,-67.74
15176,-80.32
15188,-91.76
15200,-102.64
15212,-113.86
15224,-126.0
15236,-138.81
15248,-150.95
15260,-160.47
15272,-165.49
15284,-164.91
15296,-158.73
15308,-147.77
15320,-133.14
15332,-115.83
15343,-96.52
15354,-75.65
15366,-53.72
15378,-31.39
15390,-9.38
15402,11.65
15414,31.13
15426,48.46
15438,62.99
15450,74.0
15462,80.89
15474,83.32
15486,81.41
15498,75.75
15510,67.32
15522,57.28
15533,46.72
15544,36.43
15556,26.76
15568,17.68
15580,8.89
15592,0.13
15604,-8.63
15616,-17.05
15628,-24.45
15640,-29.97
15652,-32.72
15664,-32.01
15676,-27.41
15688,-18.9
15700,-6.76
15712,8.3
15723,25.32
15734,43.13
15746,60.55
15758,76.6
15770,90.53
15782,101.94
15794,110.76
15806,117.34
15818,122.34
15830,126.66
15842,131.23
15854,136.61
15866,142.79
15878,148.97
15890,153.81
15902,155.72
15913,153.34
15924,145.93
15936,133.46
15948,116.57
15960,96.31
15972,73.85
15984,50.37
15996,27.0
16008,4.82
16020,-15.2
16032,-32.27
16044,-45.97
16056,-56.3
16068,-63.63
16080,-68.62
16092,-71.94
16103,-74.06
16114,-75.21
16126,-75.35
16138,-74.38
16150,-72.22
16162,-68.95
16174,-64.85
16186,-60.32
16198,-55.79
16210,-51.59
16222,-47.84
16234,-44.4
16246,-40.98
16258,-37.23
16270,-32.94
16282,-28.21
16293,-23.32
16304,-18.7
16316,-14.68
16328,-11.43
16340,-8.94
16352,-7.12
16364,-5.98
16376,-5.63
16388,-6.13
16400,-7.38
16412,-8.95
16424,-10.22
16436,-10.52
16448,-9.31
16460,-6.24
16472,-1.07
16483,6.36
16494,16.19
16506,28.35
16518,42.41
16530,57.38
16542,71.89
16554,84.53
16566,94.26
16578,100.73
16590,104.27
16602,105.65
16614,105.65
16626,104.91
16638,103.71
16650,102.16
16662,100.34
16673,98.29
16684,96.19
16696,94.23
16708,92.67
16720,91.73
16732,91.54
16744,91.98
16756,92.59
16768,92.57
16780,90.88
16792,86.6
16804,79.13
16816,68.38
16828,54.8
16840,39.17
16852,22.45
16863,5.6
16874,-10.5
16886,-25.2
16898,-38.15
16910,-49.34
16922,-59.17
16934,-68.25
16946,-77.23
16958,-86.55
16970,-96.36
16982,-106.48
16994,-116.57
17006,-126.15
17018,-134.69
17030,-141.62
17042,-146.32
17053,-148.12
17064,-146.46
17076,-141.08
17088,-132.09
17100,-119.95
17112,-105.2
17124,-88.2
17136,-69.04
17148,-47.54
17160,-23.69
17172,2.14
17184,28.96
17196,55.35
17208,79.89
17220,101.52
17232,119.79
17243,134.75
17254,146.66
17266,155.75
17278,162.1
17290,165.86
17302,167.43
17314,167.55
17326,167.08
17338,166.62
17350,166.24
17362,165.5
17374,163.71
17386,160.41
17398,155.63
17410,149.85
17422,143.69
17433,137.5
17444,131.21
17456,124.31
17468,116.21
17480,106.57
17492,95.39
17504,82.98
17516,69.61
17528,55.35
17540,40.04
17552,23.46
17564,5.62
17576,-13.07
17588,-31.81
17600,-49.63
17612,-65.62
17623,-79.15
17634,-89.99
17646,-98.26
17658,-104.37
17670,-108.96
17682,-112.86
17694,-116.98
17706,-122.13
17718,-128.7
17730,-136.5
17742,-144.69
17754,-152.04
17766,-157.35
17778,-159.85
17790,-159.47
17802,-156.82
17813,-152.91
17824,-148.75
17836,-145.2
17848,-142.82
17860,-141.92
17872,-142.64
17884,-144.99
17896,-148.84
17908,-153.95
17920,-159.97
17932,-166.46
17944,-172.95
17956,-178.86
17968,-183.52
17980,-186.21
17992,-186.33
18003,-183.62
18014,-178.31
18026,-171.11
18038,-162.96
18050,-154.72
18062,-147.01
18074,-140.11
18086,-134.05
18098,-128.72
18110,-123.92
18122,-119.32
18134,-114.52
18146,-109.04
18158,-102.55
18170,-94.95
18182,-86.41
18193,-77.27
18204,-67.81
18216,-58.15
18228,-48.17
18240,-37.69
18252,-26.61
18264,-15.17
18276,-4.0
18288,5.97
18300,13.65
18312,18.09
18324,18.82
18336,16.03
18348,10.75
18360,4.73
18372,0.07
18383,-1.17
18394,2.38
18406,11.04
18418,24.0
18430,39.49
18442,55.31
18454,69.37
18466,80.19
18478,87.16
18490,90.5
18502,91.05
18514,89.87
18526,87.86
18538,85.59
18550,83.23
18562,80.67
18573,77.77
18584,74.47
18596,70.94
18608,67.41
18620,64.1
18632,61.1
18644,58.38
18656,55.87
18668,53.56
18680,51.5
18692,49.7
18704,48.12
18716,46.61
18728,44.98
18740,43.13
18752,41.11
18763,39.07
18774,37.19
18786,35.54
18798,34.02
18810,32.43
18822,30.51
18834,28.14
18846,25.32
18858,22.21
18870,18.98
18882,15.8
18894,12.73
18906,9.74
18918,6.78
18930,3.77
18942,0.63
18953,-2.66
18964,-5.97
18976,-8.87
18988,-10.65
19000,-10.46
19012,-7.55
19024,-1.74
19036,6.49
19048,15.94
19060,25.2
19072,33.0
19084,38.64
19096,42.07
19108,43.67
19120,43.88
19132,43.04
19143,41.23
19154,38.43
19166,34.74
19178,30.44
19190,26.01
19202,21.99
19214,18.79
19226,16.55
19238,15.19
19250,14.43
19262,14.03
19274,13.86
19286,13.91
19298,14.21
19310,14.76
19322,15.4
19333,15.92
19344,16.08
19356,15.76
19368,14.97
19380,13.81
19392,12.35
19404,10.57
19416,8.37
19428,5.64
19440,2.37
19452,-1.34
19464,-5.31
19476,-9.37
19488,-13.42
19500,-17.47
19512,-21.63
19523,-26.04
19534,-30.83
19546,-36.01
19558,-41.41
19570,-46.58
19582,-50.91
19594,-53.67
19606,-54.27
19618,-52.49
19630,-48.46
19642,-42.6
19654,-35.29
19666,-26.75
19678,-16.96
19690,-5.84
19702,6.49
19713,19.59
19724,32.65
19736,44.73
19748,54.96
19760,62.75
19772,67.86
19784,70.3
19796,70.28
19808,68.11
19820,64.16
19832,58.85
19844,52.62
19856,45.96
19868,39.32
19880,33.16
19892,27.96
19903,24.15
19914,22.07
19926,21.91
19938,23.69
19950,27.22
19962,32.15
19974,37.93
19986,43.99
19998,49.74
20010,54.8
20022,58.86
20034,61.79
20046,63.47
20058,63.75
20070,62.49
20082,59.5
20093,54.68
20104,48.07
20116,39.83
20128,30.36
20140,20.29
20152,10.49
20164,1.92
20176,-4.51
20188,-8.25
20200,-9.27
20212,-8.13
20224,-5.79
20236,-3.32
20248,-1.55
20260,-0.95
20272,-1.56
20283,-3.15
20294,-5.4
20306,-7.99
20318,-10.71
20330,-13.34
20342,-15.74
20354,-17.75
20366,-19.28
20378,-20.33
20390,-21.01
20402,-21.48
20414,-21.91
20426,-22.36
20438,-22.82
20450,-23.17
20462,-23.3
20473,-23.18
20484,-22.9
20496,-22.67
20508,-22.69
20520,-23.04
20532,-23.64
20544,-24.2
20556,-24.42
20568,-24.06
20580,-23.08
20592,-21.72
20604,-20.33
20616,-19.33
20628,-18.97
20640,-19.38
20652,-20.45
20663,-21.96
20674,-23.47
20686,-24.4
20698,-24.06
20710,-21.87
20722,-17.59
20734,-11.53
20746,-4.48
20758,2.49
20770,8.39
20782,12.66
20794,15.27
20806,16.55
20818,16.91
20830,16.64
20842,15.77
20853,14.25
20864,12.12
20876,9.6
20888,7.15
20900,5.24
20912,4.17
20924,3.93
20936,4.24
20948,4.66
20960,4.83
20972,4.6
20984,4.09
20996,3.52
