seconds,BVP
6,0.94
17,2.99
29,4.26
41,4.49
53,3.69
65,2.21
77,0.76
89,0.24
101,1.33
113,4.17
125,8.26
137,12.67
149,16.5
161,19.21
173,20.91
185,22.09
196,23.31
207,24.79
219,26.25
231,27.1
243,26.7
255,24.78
267,21.48
279,17.39
291,13.19
303,9.44
315,6.36
327,3.8
339,1.41
351,-1.12
363,-3.91
375,-6.88
386,-9.75
397,-12.26
409,-14.18
421,-15.34
433,-15.72
445,-15.49
457,-15.05
469,-14.94
481,-15.62
493,-17.21
505,-19.4
517,-21.59
529,-23.21
541,-24.08
553,-24.48
565,-24.76
576,-25.11
587,-25.28
599,-24.88
611,-23.86
623,-22.78
635,-22.65
647,-24.42
659,-28.44
671,-34.21
683,-40.81
695,-47.4
707,-53.62
719,-59.52
731,-65.19
743,-70.35
755,-74.43
766,-76.93
777,-77.72
789,-77.15
801,-75.62
813,-73.15
825,-69.25
837,-63.33
849,-55.31
861,-46.0
873,-36.92
885,-29.47
897,-24.28
909,-21.02
921,-18.72
933,-16.67
945,-14.82
956,-13.73
967,-13.88
979,-15.09
991,-16.41
1003,-16.67
1015,-15.19
1027,-12.07
1039,-8.06
1051,-3.81
1063,0.54
1075,5.27
1087,10.6
1099,16.16
1111,20.96
1123,23.83
1135,24.3
1146,22.96
1157,21.4
1169,21.38
1181,23.93
1193,28.92
1205,35.15
1217,41.17
1229,46.14
1241,50.39
1253,55.19
1265,61.94
1277,71.19
1289,81.96
1301,92.01
1313,98.72
1325,100.4
1336,97.03
1347,90.23
1359,82.38
1371,75.36
1383,69.79
1395,64.97
1407,59.69
1419,53.14
1431,45.44
1443,37.58
1455,30.78
1467,25.74
1479,22.31
1491,19.66
1503,16.82
1515,13.19
1526,8.87
1537,4.5
1549,0.76
1561,-2.14
1573,-4.67
1585,-7.83
1597,-12.61
1609,-19.42
1621,-27.82
1633,-36.57
1645,-44.17
1657,-49.31
1669,-51.38
1681,-50.55
1693,-47.54
1705,-43.28
1716,-38.62
1727,-34.21
1739,-30.41
1751,-27.4
1763,-25.24
1775,-23.86
1787,-23.08
1799,-22.65
1811,-22.24
1823,-21.53
1835,-20.31
1847,-18.52
1859,-16.25
1871,-13.72
1883,-11.17
1895,-8.82
1906,-6.83
1917,-5.25
1929,-4.05
1941,-3.12
1953,-2.28
1965,-1.39
1977,-0.38
1989,0.69
2001,1.68
2013,2.45
2025,2.92
2037,3.18
2049,3.41
2061,3.74
2073,4.26
2085,4.84
2096,5.32
2107,5.49
2119,5.26
2131,4.69
2143,3.92
2155,3.16
2167,2.56
2179,2.21
2191,2.12
2203,2.28
2215,2.65
2227,3.24
2239,4.02
2251,4.95
2263,5.9
2275,6.71
2286,7.19
2297,7.21
2309,6.74
2321,5.86
2333,4.73
2345,3.52
2357,2.35
2369,1.28
2381,0.36
2393,-0.38
2405,-0.92
2417,-1.26
2429,-1.51
2441,-1.81
2453,-2.29
2465,-2.96
2476,-3.69
2487,-4.19
2499,-4.21
2511,-3.66
2523,-2.68
2535,-1.62
2547,-0.88
2559,-0.74
2571,-1.24
2583,-2.21
2595,-3.33
2607,-4.29
2619,-4.91
2631,-5.16
2643,-5.21
2655,-5.33
2666,-5.76
2677,-6.63
2689,-7.9
2701,-9.33
2713,-10.56
2725,-11.29
2737,-11.34
2749,-10.79
2761,-9.85
2773,-8.78
2785,-7.64
2797,-6.15
2809,-3.68
2821,0.62
2833,7.6
2845,17.78
2856,31.0
2867,46.22
2879,61.55
2891,74.57
2903,82.88
2915,84.88
2927,80.32
2939,70.39
2951,57.33
2963,43.51
2975,30.58
2987,19.11
2999,8.81
3011,-0.8
3023,-9.75
3035,-17.4
3046,-22.84
3057,-25.48
3069,-25.52
3081,-23.87
3093,-21.74
3105,-20.17
3117,-19.68
3129,-20.34
3141,-21.97
3153,-24.27
3165,-26.83
3177,-29.09
3189,-30.38
3201,-30.09
3213,-27.95
3225,-24.2
3236,-19.6
3247,-15.18
3259,-11.91
3271,-10.33
3283,-10.45
3295,-11.73
3307,-13.38
3319,-14.59
3331,-14.84
3343,-13.99
3355,-12.24
3367,-9.94
3379,-7.45
3391,-5.03
3403,-2.89
3415,-1.18
3426,-0.06
3437,0.48
3449,0.68
3461,1.0
3473,2.05
3485,4.29
3497,7.85
3509,12.53
3521,17.82
3533,23.16
3545,28.15
3557,32.61
3569,36.54
3581,39.95
3593,42.73
3605,44.54
3616,44.86
3627,43.18
3639,39.29
3651,33.5
3663,26.66
3675,19.98
3687,14.61
3699,11.17
3711,9.54
3723,8.91
3735,8.14
3747,6.25
3759,2.84
3771,-1.85
3783,-7.11
3795,-12.16
3806,-16.53
3817,-20.14
3829,-23.35
3841,-26.57
3853,-30.14
3865,-34.12
3877,-38.23
3889,-41.95
3901,-44.71
3913,-45.98
3925,-45.44
3937,-43.05
3949,-39.02
3961,-33.81
3973,-28.0
3985,-22.24
3996,-17.18
4007,-13.34
4019,-10.92
4031,-9.6
4043,-8.57
4055,-6.73
4067,-3.14
4079,2.52
4091,9.84
4103,17.88
4115,25.72
4127,32.93
4139,39.69
4151,46.49
4163,53.59
4175,60.65
4186,66.81
4197,71.13
4209,73.09
4221,72.81
4233,70.82
4245,67.66
4257,63.62
4269,58.69
4281,52.8
4293,46.07
4305,38.92
4317,31.91
4329,25.58
4341,20.21
4353,15.74
4365,11.89
4376,8.26
4387,4.5
4399,0.37
4411,-4.25
4423,-9.5
4435,-15.66
4447,-23.31
4459,-33.26
4471,-46.26
4483,-62.56
4495,-81.58
4507,-101.91
4519,-121.58
4531,-138.59
4543,-151.38
4555,-158.87
4566,-160.52
4577,-156.23
4589,-146.37
4601,-132.01
4613,-114.9
4625,-97.13
4637,-80.45
4649,-65.48
4661,-51.47
4673,-36.75
4685,-19.72
4697,0.01
4709,21.17
4721,41.14
4733,56.9
4745,66.16
4756,68.09
4767,63.43
4779,54.08
4791,42.53
4803,31.25
4815,22.32
4827,17.14
4839,16.28
4851,19.39
4863,25.35
4875,32.63
4887,39.69
4899,45.41
4911,49.14
4923,50.77
4935,50.57
4946,48.97
4957,46.64
4969,44.29
4981,42.66
4993,42.27
5005,43.29
5017,45.43
5029,47.94
5041,49.95
5053,50.73
5065,50.04
5077,48.21
5089,46.02
5101,44.39
5113,44.21
5125,46.1
5136,50.29
5147,56.38
5159,63.11
5171,68.55
5183,70.57
5195,67.7
5207,59.88
5219,48.68
5231,36.65
5243,26.23
5255,18.8
5267,14.16
5279,11.1
5291,8.14
5303,4.35
5315,-0.41
5326,-5.7
5337,-10.9
5349,-15.5
5361,-19.19
5373,-21.96
5385,-24.32
5397,-27.6
5409,-33.89
5421,-45.6
5433,-64.63
5445,-91.41
5457,-124.42
5469,-160.42
5481,-195.14
5493,-224.31
5505,-244.29
5516,-252.49
5527,-247.54
5539,-229.49
5551,-199.96
5563,-162.1
5575,-120.07
5587,-78.13
5599,-39.64
5611,-6.48
5623,20.81
5635,42.36
5647,58.2
5659,67.99
5671,71.34
5683,68.52
5695,60.88
5706,50.78
5717,40.91
5729,33.38
5741,29.2
5753,28.18
5765,29.43
5777,31.94
5789,35.01
5801,38.39
5813,42.01
5825,45.74
5837,49.05
5849,51.08
5861,50.9
5873,48.02
5885,42.79
5896,36.53
5907,31.02
5919,27.76
5931,27.2
5943,28.53
5955,30.07
5967,30.23
5979,28.33
5991,24.95
6003,21.66
6015,20.1
6027,21.13
6039,24.4
6051,28.56
6063,32.03
6075,33.74
6086,33.65
6097,32.58
6109,31.7
6121,31.85
6133,33.19
6145,35.16
6157,36.82
6169,37.37
6181,36.49
6193,34.42
6205,31.78
6217,29.24
6229,27.3
6241,26.15
6253,25.72
6265,25.83
6276,26.24
6287,26.77
6299,27.16
6311,27.2
6323,26.81
6335,26.16
6347,25.66
6359,25.91
6371,27.26
6383,29.67
6395,32.57
6407,35.1
6419,36.5
6431,36.48
6443,35.33
6455,33.67
6466,32.03
6477,30.58
6489,29.11
6501,27.36
6513,25.35
6525,23.33
6537,21.55
6549,19.92
6561,17.85
6573,14.47
6585,9.16
6597,1.93
6609,-6.37
6621,-14.5
6633,-21.33
6645,-26.41
6656,-30.15
6667,-33.45
6679,-37.25
6691,-41.97
6703,-47.35
6715,-52.69
6727,-57.22
6739,-60.42
6751,-62.23
6763,-62.94
6775,-62.92
6787,-62.42
6799,-61.5
6811,-60.16
6823,-58.47
6835,-56.72
6846,-55.36
6857,-54.86
6869,-55.59
6881,-57.69
6893,-61.08
6905,-65.47
6917,-70.45
6929,-75.62
6941,-80.61
6953,-85.2
6965,-89.27
6977,-92.7
6989,-95.29
7001,-96.65
7013,-96.24
7025,-93.53
7036,-88.17
7047,-80.22
7059,-70.09
7071,-58.44
7083,-45.9
7095,-32.9
7107,-19.66
7119,-6.32
7131,6.88
7143,19.43
7155,30.65
7167,39.88
7179,46.68
7191,50.87
7203,52.41
7215,51.27
7226,47.45
7237,41.18
7249,33.09
7261,24.21
7273,15.65
7285,8.22
7297,2.06
7309,-3.12
7321,-7.5
7333,-10.74
7345,-11.96
7357,-10.43
7369,-6.35
7381,-1.28
7393,2.39
7405,2.75
7416,-0.49
7427,-5.65
7439,-10.06
7451,-11.64
7463,-10.09
7475,-6.94
7487,-4.46
7499,-4.1
7511,-5.71
7523,-7.77
7535,-8.6
7547,-7.43
7559,-4.7
7571,-1.41
7583,1.75
7595,5.08
7606,9.53
7617,15.88
7629,24.04
7641,32.93
7653,41.04
7665,47.34
7677,51.7
7689,54.76
7701,57.25
7713,59.3
7725,60.16
7737,58.52
7749,53.22
7761,43.85
7773,30.99
7785,15.99
7796,0.38
7807,-14.56
7819,-27.98
7831,-39.3
7843,-47.9
7855,-53.08
7867,-54.12
7879,-50.73
7891,-43.33
7903,-33.04
7915,-21.32
7927,-9.52
7939,1.49
7951,11.29
7963,19.62
7975,26.19
7986,30.72
7997,33.18
8009,34.01
8021,34.14
8033,34.49
8045,35.57
8057,37.13
8069,38.46
8081,38.88
8093,38.31
8105,37.32
8117,36.68
8129,36.74
8141,37.16
8153,37.13
8165,35.97
8176,33.71
8187,31.18
8199,29.51
8211,29.48
8223,31.0
8235,33.05
8247,34.06
8259,32.51
8271,27.48
8283,18.92
8295,7.67
8307,-4.73
8319,-16.53
8331,-26.19
8343,-32.89
8355,-36.61
8366,-38.02
8377,-37.93
8389,-36.84
8401,-34.71
8413,-31.05
8425,-25.36
8437,-17.6
8449,-8.43
8461,0.93
8473,9.09
8485,15.08
8497,18.75
8509,20.78
8521,22.42
8533,24.87
8545,28.64
8556,33.31
8567,37.68
8579,40.42
8591,40.75
8603,38.97
8615,36.3
8627,34.26
8639,33.93
8651,35.33
8663,37.47
8675,38.86
8687,38.22
8699,35.14
8711,30.18
8723,24.55
8735,19.5
8746,15.73
8757,13.15
8769,10.99
8781,8.26
8793,4.17
8805,-1.74
8817,-9.51
8829,-18.79
8841,-28.81
8853,-38.23
8865,-45.21
8877,-47.79
8889,-44.63
8901,-35.79
8913,-23.12
8925,-9.86
8936,0.41
8947,5.1
8959,3.58
8971,-2.84
8983,-11.62
8995,-20.23
9007,-27.14
9019,-32.12
9031,-35.86
9043,-39.25
9055,-42.74
9067,-46.09
9079,-48.61
9091,-49.58
9103,-48.66
9115,-45.99
9126,-42.01
9137,-37.17
9149,-31.76
9161,-25.8
9173,-19.36
9185,-12.67
9197,-6.31
9209,-1.01
9221,2.62
9233,4.34
9245,4.46
9257,3.7
9269,2.92
9281,2.72
9293,3.24
9305,4.2
9316,5.07
9327,5.38
9339,4.96
9351,3.92
9363,2.6
9375,1.44
9387,0.74
9399,0.71
9411,1.36
9423,2.56
9435,4.13
9447,5.8
9459,7.39
9471,8.78
9483,9.98
9495,11.13
9506,12.34
9517,13.65
9529,14.94
9541,16.0
9553,16.63
9565,16.77
9577,16.54
9589,16.18
9601,15.92
9613,15.83
9625,15.85
9637,15.76
9649,15.4
9661,14.7
9673,13.74
9685,12.7
9696,11.74
9707,10.97
9719,10.32
9731,9.65
9743,8.76
9755,7.54
9767,6.03
9779,4.5
9791,3.33
9803,2.83
9815,3.14
9827,4.04
9839,5.03
9851,5.49
9863,4.91
9875,3.08
9886,0.11
9897,-3.63
9909,-7.71
9921,-11.71
9933,-15.36
9945,-18.51
9957,-21.12
9969,-23.23
9981,-24.83
9993,-25.91
10005,-26.44
10017,-26.36
10029,-25.63
10041,-24.24
10053,-22.14
10065,-19.26
10076,-15.59
10087,-11.3
10099,-6.85
10111,-2.97
10123,-0.4
10135,0.5
10147,0.07
10159,-0.71
10171,-0.6
10183,1.23
10195,4.79
10207,9.25
10219,13.5
10231,16.75
10243,18.97
10255,20.83
10266,23.13
10277,26.4
10289,30.64
10301,35.55
10313,40.77
10325,46.14
10337,51.5
10349,56.5
10361,60.47
10373,62.59
10385,62.36
10397,59.88
10409,55.92
10421,51.57
10433,47.74
10445,44.79
10456,42.5
10467,40.36
10479,37.88
10491,34.87
10503,31.45
10515,27.88
10527,24.46
10539,21.46
10551,19.02
10563,17.16
10575,15.71
10587,14.24
10599,12.16
10611,8.76
10623,3.47
10635,-3.95
10646,-13.34
10657,-24.1
10669,-35.4
10681,-46.26
10693,-55.79
10705,-63.24
10717,-68.14
10729,-70.33
10741,-70.01
10753,-67.66
10765,-63.98
10777,-59.67
10789,-55.28
10801,-51.07
10813,-47.09
10825,-43.22
10836,-39.36
10847,-35.49
10859,-31.68
10871,-28.03
10883,-24.59
10895,-21.39
10907,-18.47
10919,-15.96
10931,-14.04
10943,-12.87
10955,-12.5
10967,-12.84
10979,-13.65
10991,-14.6
11003,-15.33
11015,-15.47
11026,-14.74
11037,-12.91
11049,-9.96
11061,-6.08
11073,-1.67
11085,2.77
11097,6.8
11109,10.07
11121,12.37
11133,13.59
11145,13.77
11157,13.14
11169,12.07
11181,11.08
11193,10.62
11205,10.96
11216,11.98
11227,13.32
11239,14.49
11251,15.11
11263,15.05
11275,14.32
11287,13.0
11299,11.11
11311,8.64
11323,5.6
11335,2.17
11347,-1.25
11359,-4.08
11371,-5.78
11383,-6.02
11395,-4.85
11406,-2.68
11417,-0.16
11429,2.0
11441,3.33
11453,3.7
11465,3.28
11477,2.47
11489,1.64
11501,1.04
11513,0.67
11525,0.4
11537,0.07
11549,-0.45
11561,-1.13
11573,-1.85
11585,-2.47
11596,-2.83
11607,-2.88
11619,-2.65
11631,-2.26
11643,-1.86
11655,-1.68
11667,-1.98
11679,-2.96
11691,-4.72
11703,-7.07
11715,-9.6
11727,-11.68
11739,-12.68
11751,-12.18
11763,-10.19
11775,-7.17
11786,-3.9
11797,-1.16
11809,0.54
11821,1.18
11833,1.11
11845,0.9
11857,0.97
11869,1.51
11881,2.43
11893,3.53
11905,4.69
11917,5.94
11929,7.43
11941,9.28
11953,11.49
11965,13.82
11976,15.86
11987,17.17
11999,17.41
12011,16.45
12023,14.4
12035,11.48
12047,8.04
12059,4.42
12071,0.94
12083,-2.06
12095,-4.26
12107,-5.43
12119,-5.51
12131,-4.72
12143,-3.43
12155,-2.15
12166,-1.23
12177,-0.8
12189,-0.8
12201,-1.07
12213,-1.47
12225,-1.96
12237,-2.51
12249,-3.08
12261,-3.59
12273,-3.9
12285,-4.01
12297,-3.98
12309,-3.94
12321,-4.01
12333,-4.21
12345,-4.4
12356,-4.39
12367,-4.07
12379,-3.34
12391,-2.33
12403,-1.17
12415,-0.06
12427,0.79
12439,1.28
12451,1.32
12463,0.95
12475,0.27
12487,-0.58
12499,-1.42
12511,-2.11
12523,-2.47
12535,-2.4
12546,-1.86
12557,-0.96
12569,0.09
12581,0.93
12593,1.3
12605,1.01
12617,0.16
12629,-0.91
12641,-1.78
12653,-2.06
12665,-1.56
12677,-0.47
12689,0.81
12701,1.82
12713,2.21
12725,1.98
12736,1.44
12747,1.01
12759,1.1
12771,1.79
12783,2.89
12795,3.98
12807,4.64
12819,4.58
12831,3.66
12843,1.89
12855,-0.61
12867,-3.51
12879,-6.27
12891,-8.2
12903,-8.64
12915,-7.26
12926,-4.27
12937,-0.37
12949,3.51
12961,6.52
12973,8.24
12985,8.74
12997,8.43
13009,7.96
13021,7.91
13033,8.72
13045,10.57
13057,13.31
13069,16.42
13081,19.18
13093,20.8
13105,20.71
13116,18.74
13127,15.2
13139,10.69
13151,5.95
13163,1.62
13175,-1.86
13187,-4.24
13199,-5.45
13211,-5.56
13223,-4.74
13235,-3.29
13247,-1.59
13259,-0.07
13271,0.93
13283,1.28
13295,1.11
13306,0.86
13317,1.09
13329,2.32
13341,4.73
13353,8.16
13365,12.12
13377,16.02
13389,19.36
13401,21.89
13413,23.58
13425,24.52
13437,24.85
13449,24.56
13461,23.46
13473,21.1
13485,16.85
13496,10.07
13507,0.52
13519,-11.37
13531,-24.34
13543,-36.61
13555,-46.4
13567,-52.54
13579,-54.78
13591,-53.74
13603,-50.43
13615,-45.86
13627,-40.85
13639,-36.01
13651,-31.99
13663,-29.51
13675,-29.1
13686,-30.72
13697,-33.54
13709,-36.09
13721,-36.83
13733,-34.79
13745,-30.13
13757,-23.99
13769,-18.05
13781,-13.76
13793,-11.79
13805,-11.84
13817,-12.79
13829,-13.14
13841,-11.35
13853,-6.26
13865,2.68
13876,15.07
13887,29.64
13899,44.4
13911,57.25
13923,66.49
13935,71.37
13947,72.06
13959,69.3
13971,63.97
13983,56.61
13995,47.56
14007,37.15
14019,26.05
14031,15.25
14043,5.82
14055,-1.55
14066,-6.84
14077,-10.56
14089,-13.48
14101,-16.08
14113,-18.34
14125,-19.83
14137,-20.02
14149,-18.68
14161,-16.04
14173,-12.7
14185,-9.35
14197,-6.44
14209,-4.13
14221,-2.35
14233,-1.03
14245,-0.22
14256,-0.14
14267,-0.98
14279,-2.83
14291,-5.64
14303,-9.27
14315,-13.65
14327,-18.76
14339,-24.66
14351,-31.24
14363,-38.22
14375,-44.99
14387,-50.84
14399,-55.08
14411,-57.29
14423,-57.44
14435,-55.73
14446,-52.55
14457,-48.2
14469,-42.84
14481,-36.44
14493,-28.95
14505,-20.4
14517,-10.94
14529,-0.89
14541,9.26
14553,19.01
14565,27.82
14577,35.26
14589,41.11
14601,45.43
14613,48.57
14625,51.01
14636,53.16
14647,55.19
14659,56.96
14671,58.08
14683,58.01
14695,56.31
14707,52.71
14719,47.24
14731,40.35
14743,32.82
14755,25.65
14767,19.73
14779,15.61
14791,13.24
14803,12.06
14815,11.28
14826,10.26
14837,8.69
14849,6.58
14861,4.06
14873,1.2
14885,-2.03
14897,-5.63
14909,-9.33
14921,-12.67
14933,-15.05
14945,-16.09
14957,-15.8
14969,-14.61
14981,-13.17
14993,-12.11
15005,-11.83
15016,-12.39
15027,-13.48
15039,-14.66
15051,-15.44
15063,-15.5
15075,-14.77
15087,-13.38
15099,-11.55
15111,-9.42
15123,-6.99
15135,-4.08
15147,-0.46
15159,4.1
15171,9.8
15183,16.81
15195,25.18
15206,34.75
15217,44.97
15229,54.8
15241,62.92
15253,68.08
15265,69.5
15277,67.19
15289,61.87
15301,54.59
15313,46.4
15325,37.95
15337,29.54
15349,21.25
15361,13.13
15373,5.44
15385,-1.54
15396,-7.55
15407,-12.62
15419,-17.0
15431,-21.11
15443,-25.18
15455,-29.12
15467,-32.48
15479,-34.66
15491,-35.19
15503,-33.96
15515,-31.23
15527,-27.54
15539,-23.42
15551,-19.3
15563,-15.44
15575,-12.0
15586,-9.13
15597,-6.98
15609,-5.58
15621,-4.83
15633,-4.47
15645,-4.18
15657,-3.75
15669,-3.08
15681,-2.24
15693,-1.3
15705,-0.38
15717,0.55
15729,1.51
15741,2.48
15753,3.37
15765,3.99
15776,4.12
15787,3.64
15799,2.59
15811,1.22
15823,-0.08
15835,-0.94
15847,-1.17
15859,-0.9
15871,-0.49
15883,-0.37
15895,-0.76
15907,-1.59
15919,-2.5
15931,-3.15
15943,-3.42
15955,-3.48
15966,-3.74
15977,-4.54
15989,-5.98
16001,-7.81
16013,-9.62
16025,-11.07
16037,-12.04
16049,-12.66
16061,-13.11
16073,-13.52
16085,-13.86
16097,-14.0
16109,-13.86
16121,-13.5
16133,-13.15
16145,-13.1
16156,-13.49
16167,-14.28
16179,-15.21
16191,-15.94
16203,-16.15
16215,-15.72
16227,-14.72
16239,-13.34
16251,-11.84
16263,-10.43
16275,-9.25
16287,-8.36
16299,-7.8
16311,-7.54
16323,-7.55
16335,-7.72
16346,-7.96
16357,-8.18
16369,-8.34
16381,-8.47
16393,-8.67
16405,-9.1
16417,-9.95
16429,-11.34
16441,-13.2
16453,-15.23
16465,-17.1
16477,-18.53
16489,-19.49
16501,-20.23
16513,-21.04
16525,-21.97
16536,-22.73
16547,-22.71
16559,-21.44
16571,-18.88
16583,-15.57
16595,-12.3
16607,-9.75
16619,-8.07
16631,-6.83
16643,-5.46
16655,-3.58
16667,-1.3
16679,0.89
16691,2.49
16703,3.31
16715,3.61
16726,3.88
16737,4.56
16749,5.75
16761,7.14
16773,8.27
16785,8.75
16797,8.5
16809,7.76
16821,6.88
16833,6.16
16845,5.61
16857,5.02
16869,4.1
16881,2.69
16893,0.91
16905,-0.81
16916,-2.03
16927,-2.47
16939,-2.21
16951,-1.68
16963,-1.37
16975,-1.55
16987,-2.11
16999,-2.62
17011,-2.58
17023,-1.69
17035,0.02
17047,2.36
17059,5.19
17071,8.51
17083,12.34
17095,16.55
17106,20.74
17117,24.38
17129,27.11
17141,28.95
17153,30.25
17165,31.35
17177,32.38
17189,33.23
17201,33.77
17213,34.22
17225,35.08
17237,36.84
17249,39.52
17261,42.43
17273,44.38
17285,44.34
17296,41.93
17307,37.6
17319,32.33
17331,26.98
17343,21.93
17355,17.04
17367,11.94
17379,6.55
17391,1.25
17403,-3.23
17415,-6.2
17427,-7.44
17439,-7.32
17451,-6.65
17463,-6.23
17475,-6.5
17486,-7.35
17497,-8.26
17509,-8.68
17521,-8.34
17533,-7.38
17545,-6.3
17557,-5.59
17569,-5.53
17581,-6.11
17593,-7.06
17605,-8.04
17617,-8.82
17629,-9.29
17641,-9.46
17653,-9.44
17665,-9.29
17676,-9.07
17687,-8.73
17699,-8.24
17711,-7.59
17723,-6.89
17735,-6.33
17747,-6.17
17759,-6.66
17771,-7.86
17783,-9.63
17795,-11.62
17807,-13.39
17819,-14.57
17831,-15.0
17843,-14.74
17855,-13.98
17866,-12.96
17877,-11.82
17889,-10.59
17901,-9.25
17913,-7.77
17925,-6.15
17937,-4.47
17949,-2.82
17961,-1.32
17973,-0.12
17985,0.64
17997,0.88
18009,0.59
18021,-0.09
18033,-0.92
18045,-1.65
18056,-2.16
18067,-2.52
18079,-2.96
18091,-3.8
18103,-5.31
18115,-7.61
18127,-10.67
18139,-14.21
18151,-17.74
18163,-20.68
18175,-22.57
18187,-23.26
18199,-23.04
18211,-22.52
18223,-22.34
18235,-22.76
18246,-23.64
18257,-24.42
18269,-24.57
18281,-23.87
18293,-22.45
18305,-20.72
18317,-18.99
18329,-17.38
18341,-15.8
18353,-14.2
18365,-12.68
18377,-11.48
18389,-10.89
18401,-11.02
18413,-11.76
18425,-12.78
18436,-13.68
18447,-14.09
18459,-13.73
18471,-12.42
18483,-10.18
18495,-7.2
18507,-3.93
18519,-0.92
18531,1.33
18543,2.65
18555,3.22
18567,3.45
18579,3.67
18591,3.92
18603,3.89
18615,3.23
18626,1.81
18637,-0.07
18649,-1.76
18661,-2.61
18673,-2.3
18685,-0.96
18697,0.97
18709,3.02
18721,4.98
18733,6.88
18745,8.81
18757,10.72
18769,12.32
18781,13.27
18793,13.4
18805,12.86
18816,12.03
18827,11.33
18839,10.97
18851,10.92
18863,10.94
18875,10.83
18887,10.52
18899,10.11
18911,9.79
18923,9.72
18935,9.94
18947,10.29
18959,10.46
18971,10.09
18983,8.82
18995,6.48
19006,3.21
19017,-0.59
19029,-4.3
19041,-7.23
19053,-8.91
19065,-9.14
19077,-8.06
19089,-6.07
19101,-3.65
19113,-1.24
19125,0.89
19137,2.54
19149,3.69
19161,4.42
19173,4.86
19185,5.25
19196,5.76
19207,6.53
19219,7.58
19231,8.87
19243,10.33
19255,11.87
19267,13.37
19279,14.62
19291,15.4
19303,15.48
19315,14.8
19327,13.49
19339,11.83
19351,10.15
19363,8.67
19375,7.43
19386,6.31
19397,5.2
19409,4.07
19421,3.06
19433,2.34
19445,2.04
19457,2.06
19469,2.15
19481,1.99
19493,1.31
19505,0.05
19517,-1.65
19529,-3.48
19541,-5.11
19553,-6.3
19565,-6.98
19576,-7.23
19587,-7.22
19599,-7.14
19611,-7.09
19623,-7.14
19635,-7.27
19647,-7.39
19659,-7.4
19671,-7.19
19683,-6.66
19695,-5.76
19707,-4.5
19719,-2.92
19731,-1.18
19743,0.58
19755,2.24
19766,3.66
19777,4.8
19789,5.62
19801,6.09
19813,6.16
19825,5.85
19837,5.23
19849,4.54
19861,4.12
19873,4.26
19885,5.1
19897,6.53
19909,8.13
19921,9.4
19933,9.96
19945,9.71
19956,8.88
19967,7.91
19979,7.23
19991,7.06
20003,7.32
20015,7.74
20027,7.96
20039,7.76
20051,7.08
20063,5.97
20075,4.62
20087,3.18
20099,1.86
20111,0.86
20123,0.33
20135,0.35
20146,0.86
20157,1.62
20169,2.3
20181,2.54
20193,2.13
20205,1.03
20217,-0.56
20229,-2.37
20241,-4.11
20253,-5.54
20265,-6.52
20277,-6.97
20289,-6.79
20301,-5.96
20313,-4.57
20325,-2.84
20336,-1.08
20347,0.39
20359,1.36
20371,1.87
20383,2.1
20395,2.32
20407,2.63
20419,2.89
20431,2.8
20443,2.13
20455,0.93
20467,-0.37
20479,-1.16
20491,-0.95
20503,0.37
20515,2.42
20526,4.54
20537,6.15
20549,6.98
20561,7.14
20573,6.99
20585,6.9
20597,7.01
20609,7.35
20621,7.81
20633,8.32
20645,8.89
20657,9.44
20669,9.8
20681,9.72
20693,8.96
20705,7.43
20716,5.26
20727,2.78
20739,0.35
20751,-1.77
20763,-3.54
20775,-5.06
20787,-6.51
20799,-7.98
20811,-9.4
20823,-10.55
20835,-11.2
20847,-11.21
20859,-10.57
20871,-9.47
20883,-8.14
20895,-6.77
20906,-5.48
20917,-4.28
20929,-3.13
20941,-2.07
20953,-1.17
20965,-0.52
20977,-0.17
20989,-0.06
