seconds,BVP
1,3.93
12,7.56
23,11.26
35,14.91
47,18.38
59,21.58
71,24.42
83,26.8
95,28.5
107,29.31
119,29.07
131,27.8
143,25.7
155,23.11
167,20.37
179,17.75
191,15.43
202,13.44
213,11.79
225,10.46
237,9.5
249,8.93
261,8.72
273,8.78
285,8.9
297,8.75
309,8.0
321,6.4
333,3.97
345,0.99
357,-2.02
369,-4.56
381,-6.42
392,-7.81
403,-9.21
415,-11.23
427,-14.28
439,-18.38
451,-23.2
463,-28.12
475,-32.59
487,-36.2
499,-38.84
511,-40.61
523,-41.74
535,-42.57
547,-43.46
559,-44.77
571,-46.7
582,-49.16
593,-51.69
605,-53.58
617,-54.06
629,-52.61
641,-49.1
653,-43.82
665,-37.3
677,-30.08
689,-22.64
701,-15.35
713,-8.53
725,-2.48
737,2.56
749,6.49
761,9.43
772,11.67
783,13.61
795,15.58
807,17.65
819,19.66
831,21.31
843,22.31
855,22.46
867,21.83
879,20.58
891,18.96
903,17.21
915,15.49
927,13.88
939,12.4
951,11.05
962,9.81
973,8.65
985,7.55
997,6.51
1009,5.55
1021,4.69
1033,3.88
1045,2.97
1057,1.83
1069,0.35
1081,-1.42
1093,-3.29
1105,-5.11
1117,-6.82
1129,-8.52
1141,-10.44
1152,-12.88
1163,-15.95
1175,-19.56
1187,-23.37
1199,-26.87
1211,-29.5
1223,-30.82
1235,-30.51
1247,-28.54
1259,-25.13
1271,-20.76
1283,-16.01
1295,-11.42
1307,-7.27
1319,-3.55
1331,-0.05
1342,3.42
1353,6.87
1365,10.0
1377,12.37
1389,13.54
1401,13.3
1413,11.8
1425,9.43
1437,6.72
1449,4.05
1461,1.62
1473,-0.61
1485,-2.77
1497,-4.99
1509,-7.42
1521,-10.06
1532,-12.96
1543,-16.09
1555,-19.43
1567,-22.86
1579,-26.19
1591,-29.08
1603,-31.15
1615,-32.19
1627,-32.21
1639,-31.56
1651,-30.75
1663,-30.25
1675,-30.23
1687,-30.49
1699,-30.57
1711,-29.95
1722,-28.43
1733,-26.14
1745,-23.49
1757,-20.89
1769,-18.42
1781,-15.84
1793,-12.67
1805,-8.56
1817,-3.48
1829,2.25
1841,8.08
1853,13.41
1865,17.85
1877,21.26
1889,23.68
1901,25.2
1912,25.9
1923,25.8
1935,24.95
1947,23.44
1959,21.44
1971,19.15
1983,16.78
1995,14.42
2007,12.17
2019,10.07
2031,8.19
2043,6.62
2055,5.49
2067,4.84
2079,4.56
2091,4.34
2102,3.78
2113,2.56
2125,0.52
2137,-2.21
2149,-5.3
2161,-8.29
2173,-10.84
2185,-12.8
2197,-14.25
2209,-15.46
2221,-16.75
2233,-18.43
2245,-20.72
2257,-23.76
2269,-27.47
2281,-31.61
2292,-35.6
2303,-38.69
2315,-40.06
2327,-39.18
2339,-35.94
2351,-30.67
2363,-24.05
2375,-16.89
2387,-9.87
2399,-3.53
2411,1.83
2423,5.98
2435,8.77
2447,10.21
2459,10.54
2471,10.21
2482,9.77
2493,9.73
2505,10.32
2517,11.46
2529,12.84
2541,14.07
2553,14.85
2565,15.07
2577,14.81
2589,14.27
2601,13.7
2613,13.3
2625,13.18
2637,13.29
2649,13.47
2661,13.38
2672,12.62
2683,10.89
2695,8.12
2707,4.49
2719,0.47
2731,-3.52
2743,-7.12
2755,-10.2
2767,-12.91
2779,-15.6
2791,-18.61
2803,-22.14
2815,-26.17
2827,-30.28
2839,-33.79
2851,-35.84
2862,-35.67
2873,-32.87
2885,-27.54
2897,-20.26
2909,-11.86
2921,-3.23
2933,4.83
2945,11.82
2957,17.49
2969,21.77
2981,24.83
2993,26.94
3005,28.4
3017,29.47
3029,30.31
3041,30.88
3052,31.13
3063,31.02
3075,30.64
3087,30.11
3099,29.62
3111,29.23
3123,28.78
3135,28.01
3147,26.66
3159,24.6
3171,21.89
3183,18.76
3195,15.48
3207,12.3
3219,9.3
3231,6.45
3242,3.62
3253,0.74
3265,-2.17
3277,-5.0
3289,-7.68
3301,-10.13
3313,-12.4
3325,-14.64
3337,-17.02
3349,-19.68
3361,-22.46
3373,-24.9
3385,-26.27
3397,-25.92
3409,-23.47
3421,-18.96
3432,-12.97
3443,-6.44
3455,-0.37
3467,4.73
3479,8.98
3491,12.93
3503,17.13
3515,21.82
3527,27.03
3539,32.29
3551,36.81
3563,39.75
3575,40.75
3587,40.17
3599,38.75
3611,37.31
3622,36.49
3633,37.02
3645,39.12
3657,42.32
3669,45.61
3681,48.08
3693,49.35
3705,49.38
3717,48.33
3729,46.47
3741,44.88
3753,44.7
3765,46.68
3777,50.7
3789,55.89
3801,60.5
3812,61.98
3823,57.54
3835,41.72
3847,13.58
3859,-21.5
3871,-54.24
3883,-77.13
3895,-87.97
3907,-88.84
3919,-83.75
3931,-76.33
3943,-68.8
3955,-61.41
3967,-53.98
3979,-47.08
3991,-42.31
4002,-40.86
4013,-42.0
4025,-42.83
4037,-39.3
4049,-28.02
4061,-7.76
4073,19.28
4085,48.31
4097,73.43
4109,90.15
4121,97.44
4133,97.51
4145,94.14
4157,90.62
4169,88.63
4181,87.77
4192,86.31
4203,82.04
4215,73.69
4227,61.36
4239,45.9
4251,27.92
4263,7.74
4275,-14.3
4287,-37.31
4299,-57.21
4311,-69.53
4323,-71.39
4335,-62.51
4347,-45.11
4359,-23.24
4371,-0.8
4382,19.38
4393,36.01
4405,48.9
4417,58.06
4429,63.62
4441,66.19
4453,66.9
4465,66.33
4477,65.6
4489,65.31
4501,65.38
4513,65.09
4525,63.28
4537,59.1
4549,52.71
4561,45.32
4572,38.03
4583,32.17
4595,28.31
4607,25.92
4619,23.31
4631,17.51
4643,4.67
4655,-19.37
4667,-52.23
4679,-91.47
4691,-131.94
4703,-166.52
4715,-187.77
4727,-190.52
4739,-173.95
4751,-142.07
4762,-102.24
4773,-62.43
4785,-29.54
4797,-6.81
4809,5.69
4821,9.86
4833,8.04
4845,2.15
4857,-6.31
4869,-15.97
4881,-25.39
4893,-33.91
4905,-41.1
4917,-47.05
4929,-52.06
4941,-56.52
4952,-60.3
4963,-62.72
4975,-62.83
4987,-59.9
4999,-53.95
5011,-45.32
5023,-34.53
5035,-22.04
5047,-8.34
5059,6.06
5071,20.49
5083,34.07
5095,45.73
5107,54.48
5119,59.97
5131,62.71
5142,63.86
5153,64.64
5165,65.99
5177,68.27
5189,71.13
5201,73.71
5213,74.97
5225,74.11
5237,70.83
5249,65.37
5261,58.0
5273,49.92
5285,42.99
5297,39.03
5309,39.15
5321,43.34
5332,50.51
5343,58.73
5355,65.52
5367,67.0
5379,59.92
5391,42.19
5403,13.25
5415,-25.44
5427,-70.17
5439,-116.11
5451,-159.12
5463,-197.29
5475,-232.53
5487,-266.34
5499,-298.0
5511,-324.6
5522,-342.84
5533,-350.9
5545,-349.7
5557,-342.24
5569,-331.62
5581,-320.65
5593,-307.28
5605,-286.08
5617,-252.21
5629,-204.88
5641,-147.94
5653,-87.96
5665,-31.1
5677,30.54
5689,94.14
5701,150.83
5712,192.7
5723,217.77
5735,228.64
5747,229.01
5759,221.99
5771,210.53
5783,197.4
5795,183.25
5807,169.92
5819,159.49
5831,152.58
5843,147.39
5855,140.75
5867,129.53
5879,112.88
5891,91.85
5902,67.39
5913,42.05
5925,18.82
5937,-0.14
5949,-14.08
5961,-20.83
5973,-20.92
5985,-15.2
5997,-4.95
6009,6.99
6021,18.25
6033,27.37
6045,33.85
6057,37.8
6069,39.68
6081,39.53
6092,37.54
6103,33.93
6115,28.75
6127,23.15
6139,19.02
6151,18.2
6163,21.37
6175,27.81
6187,35.43
6199,42.1
6211,46.21
6223,46.72
6235,43.51
6247,36.9
6259,27.4
6271,15.59
6282,2.48
6293,-10.65
6305,-21.99
6317,-29.98
6329,-34.09
6341,-34.88
6353,-33.77
6365,-32.3
6377,-31.43
6389,-31.29
6401,-31.45
6413,-31.2
6425,-29.98
6437,-27.75
6449,-24.68
6461,-21.02
6472,-16.82
6483,-11.82
6495,-5.7
6507,1.44
6519,9.02
6531,16.15
6543,21.8
6555,25.41
6567,26.92
6579,26.95
6591,26.54
6603,26.73
6615,28.15
6627,30.88
6639,34.42
6651,37.78
6662,39.76
6673,39.09
6685,34.82
6697,26.55
6709,14.46
6721,-0.74
6733,-17.98
6745,-36.05
6757,-53.8
6769,-70.15
6781,-84.14
6793,-94.9
6805,-101.76
6817,-104.65
6829,-104.17
6841,-101.61
6852,-98.47
6863,-95.92
6875,-94.23
6887,-92.65
6899,-89.64
6911,-83.47
6923,-73.07
6935,-58.36
6947,-40.28
6959,-20.26
6971,0.39
6983,21.11
6995,42.14
7007,64.47
7019,89.21
7031,116.77
7042,146.33
7053,175.9
7065,203.02
7077,225.41
7089,241.64
7101,251.19
7113,254.55
7125,252.69
7137,246.21
7149,234.84
7161,217.66
7173,193.68
7185,162.23
7197,123.21
7209,77.32
7221,27.17
7232,-22.65
7243,-66.51
7255,-99.36
7267,-118.21
7279,-123.06
7291,-117.27
7303,-106.62
7315,-97.5
7327,-93.94
7339,-96.09
7351,-100.83
7363,-103.61
7375,-100.13
7387,-87.89
7399,-66.97
7411,-38.44
7422,-8.37
7433,14.62
7445,25.29
7457,24.98
7469,18.88
7481,12.3
7493,8.44
7505,7.84
7517,8.41
7529,6.42
7541,-1.84
7553,-18.75
7565,-44.17
7577,-76.21
7589,-110.82
7601,-142.66
7612,-166.92
7623,-181.01
7635,-184.53
7647,-178.36
7659,-164.03
7671,-143.12
7683,-117.6
7695,-90.32
7707,-64.97
7719,-43.98
7731,-30.47
7743,-25.2
7755,-26.06
7767,-29.75
7779,-32.81
7791,-33.13
7802,-30.8
7813,-27.37
7825,-24.65
7837,-23.96
7849,-24.91
7861,-26.31
7873,-27.91
7885,-29.56
7897,-30.82
7909,-31.16
7921,-29.64
7933,-25.07
7945,-19.59
7957,-15.12
7969,-7.17
7981,6.42
7992,23.52
8003,42.8
8015,62.97
8027,82.61
8039,100.32
8051,114.73
8063,125.48
8075,132.8
8087,136.37
8099,136.46
8111,134.21
8123,130.76
8135,126.92
8147,123.01
8159,118.85
8171,114.31
8182,109.18
8193,102.55
8205,93.94
8217,83.68
8229,72.29
8241,60.33
8253,48.22
8265,36.28
8277,24.97
8289,14.53
8301,4.41
8313,-6.11
8325,-17.57
8337,-30.33
8349,-44.28
8361,-58.77
8372,-72.8
8383,-85.08
8395,-94.38
8407,-99.97
8419,-101.4
8431,-98.59
8443,-92.21
8455,-83.68
8467,-74.93
8479,-67.88
8491,-63.69
8503,-62.42
8515,-63.08
8527,-63.88
8539,-62.87
8551,-58.57
8562,-50.19
8573,-37.67
8585,-21.5
8597,-2.66
8609,17.34
8621,36.5
8633,52.57
8645,63.52
8657,68.17
8669,66.58
8681,59.97
8693,50.29
8705,39.53
8717,29.13
8729,19.68
8741,11.14
8752,3.07
8763,-4.99
8775,-13.44
8787,-22.55
8799,-32.43
8811,-42.94
8823,-53.64
8835,-63.9
8847,-73.03
8859,-80.61
8871,-86.45
8883,-90.54
8895,-92.92
8907,-93.49
8919,-92.07
8931,-88.54
8942,-82.96
8953,-75.55
8965,-66.63
8977,-56.49
8989,-45.22
9001,-32.75
9013,-18.92
9025,-3.73
9037,12.45
9049,28.98
9061,44.98
9073,59.6
9085,72.33
9097,83.22
9109,92.95
9121,102.53
9132,112.78
9143,123.87
9155,135.23
9167,145.76
9179,154.23
9191,159.74
9203,162.1
9215,161.88
9227,160.11
9239,157.71
9251,155.06
9263,151.96
9275,148.21
9287,143.5
9299,137.67
9311,130.86
9322,123.57
9333,116.48
9345,110.06
9357,104.31
9369,98.83
9381,93.81
9393,89.17
9405,84.2
9417,77.64
9429,68.37
9441,55.98
9453,40.94
9465,24.54
9477,8.48
9489,-4.39
9501,-12.45
9512,-16.11
9523,-17.23
9535,-17.52
9547,-17.72
9559,-17.75
9571,-17.52
9583,-17.32
9595,-15.83
9607,-12.12
9619,-6.12
9631,1.54
9643,10.11
9655,18.78
9667,26.61
9679,32.76
9691,27.88
9702,9.91
9713,-15.35
9725,-38.9
9737,-56.2
9749,-69.04
9761,-82.01
9773,-98.11
9785,-116.01
9797,-134.39
9809,-149.25
9821,-157.75
9833,-159.9
9845,-157.93
9857,-154.42
9869,-150.85
9881,-145.79
9892,-138.01
9903,-126.89
9915,-111.22
9927,-91.45
9939,-69.87
9951,-49.58
9963,-32.97
9975,-21.0
9987,-13.29
9999,-9.13
10011,-7.62
10023,-6.75
10035,-4.76
10047,-0.67
10059,5.51
10071,13.01
10082,20.55
10093,26.73
10105,30.31
10117,30.86
10129,29.41
10141,27.29
10153,25.43
10165,23.96
10177,22.66
10189,21.25
10201,19.52
10213,16.97
10225,12.88
10237,6.77
10249,-1.4
10261,-10.83
10272,-19.76
10283,-26.01
10295,-27.9
10307,-25.07
10319,-18.73
10331,-11.13
10343,-4.5
10355,-0.35
10367,0.94
10379,-0.05
10391,-1.97
10403,-3.22
10415,-2.07
10427,3.07
10439,13.2
10451,28.2
10462,46.71
10473,66.34
10485,84.3
10497,98.2
10509,106.46
10521,108.44
10533,104.59
10545,96.08
10557,84.54
10569,71.81
10581,59.71
10593,49.68
10605,42.58
10617,38.04
10629,34.93
10641,31.99
10652,28.19
10663,22.85
10675,15.63
10687,6.62
10699,-3.54
10711,-13.72
10723,-23.45
10735,-32.37
10747,-40.09
10759,-46.26
10771,-50.86
10783,-54.25
10795,-56.89
10807,-58.95
10819,-60.18
10831,-61.48
10842,-63.57
10853,-66.4
10865,-69.18
10877,-71.0
10889,-71.49
10901,-70.94
10913,-70.1
10925,-69.77
10937,-72.53
10949,-80.5
10961,-94.1
10973,-111.92
10985,-131.7
10997,-151.52
11009,-170.33
11021,-187.8
11032,-192.8
11043,-178.02
11055,-143.91
11067,-99.0
11079,-53.37
11091,-13.05
11103,20.32
11115,47.34
11127,69.16
11139,86.83
11151,99.25
11163,105.29
11175,105.21
11187,100.93
11199,94.95
11211,89.26
11222,84.81
11233,81.6
11245,79.02
11257,74.73
11269,66.49
11281,53.17
11293,35.11
11305,13.88
11317,-8.11
11329,-27.65
11341,-41.18
11353,-45.72
11365,-40.91
11377,-28.72
11389,-12.45
11401,4.43
11412,19.34
11423,31.1
11435,39.73
11447,45.86
11459,50.7
11471,54.13
11483,55.89
11495,56.07
11507,55.27
11519,54.3
11531,53.72
11543,53.43
11555,52.76
11567,50.88
11579,46.88
11591,40.23
11602,31.07
11613,20.14
11625,8.65
11637,-1.9
11649,-10.01
11661,-14.5
11673,-14.79
11685,-11.36
11697,-5.58
11709,0.5
11721,4.72
11733,5.56
11745,2.78
11757,-2.57
11769,-8.72
11781,-13.95
11792,-17.52
11803,-19.59
11815,-20.69
11827,-21.12
11839,-20.74
11851,-19.14
11863,-16.25
11875,-12.54
11887,-8.76
11899,-5.71
11911,-3.83
11923,-3.59
11935,-5.91
11947,-12.15
11959,-23.43
11971,-39.47
11982,-57.83
11993,-74.21
12005,-83.81
12017,-83.13
12029,-71.16
12041,-49.42
12053,-21.02
12065,10.5
12077,42.03
12089,71.14
12101,96.09
12113,115.67
12125,129.3
12137,137.1
12149,139.56
12161,137.39
12172,131.14
12183,121.01
12195,106.96
12207,88.92
12219,66.85
12231,40.93
12243,11.74
12255,-19.53
12267,-50.94
12279,-79.96
12291,-104.02
12303,-121.15
12315,-130.72
12327,-133.52
12339,-131.43
12351,-126.67
12362,-121.04
12373,-115.55
12385,-110.45
12397,-105.61
12409,-100.87
12421,-96.25
12433,-91.87
12445,-87.9
12457,-84.38
12469,-81.29
12481,-78.46
12493,-75.67
12505,-72.79
12517,-69.65
12529,-66.17
12541,-62.43
12552,-58.82
12563,-56.05
12575,-55.15
12587,-56.92
12599,-61.53
12611,-68.1
12623,-74.83
12635,-79.51
12647,-80.47
12659,-77.2
12671,-70.63
12683,-62.57
12695,-55.01
12707,-49.25
12719,-45.49
12731,-42.92
12742,-40.0
12753,-35.03
12765,-26.64
12777,-14.1
12789,2.41
12801,21.8
12813,42.35
12825,62.12
12837,79.49
12849,93.45
12861,103.75
12873,110.63
12885,114.6
12897,116.2
12909,116.17
12921,115.5
12932,115.34
12943,116.82
12955,120.46
12967,125.97
12979,132.18
12991,137.46
13003,140.22
13015,139.66
13027,135.87
13039,129.82
13051,122.98
13063,116.76
13075,112.13
13087,109.52
13099,108.79
13111,109.33
13122,110.18
13133,110.05
13145,107.46
13157,100.88
13169,89.0
13181,71.05
13193,47.17
13205,18.53
13217,-12.59
13229,-43.35
13241,-70.85
13253,-92.81
13265,-107.88
13277,-115.75
13289,-116.98
13301,-112.69
13312,-104.39
13323,-93.78
13335,-82.55
13347,-72.12
13359,-63.41
13371,-56.56
13383,-51.03
13395,-45.87
13407,-40.17
13419,-33.56
13431,-26.36
13443,-19.52
13455,-14.35
13467,-12.04
13479,-13.41
13491,-18.49
13502,-26.54
13513,-36.17
13525,-45.72
13537,-53.75
13549,-59.36
13561,-62.33
13573,-62.9
13585,-61.65
13597,-59.08
13609,-55.67
13621,-51.93
13633,-48.44
13645,-45.9
13657,-44.84
13669,-45.42
13681,-47.19
13692,-49.21
13703,-50.3
13715,-49.42
13727,-45.8
13739,-39.12
13751,-29.42
13763,-17.07
13775,-2.73
13787,12.62
13799,27.64
13811,40.77
13823,50.59
13835,56.12
13847,57.16
13859,54.27
13871,48.56
13882,41.2
13893,33.04
13905,24.47
13917,15.56
13929,6.32
13941,-3.07
13953,-12.21
13965,-20.75
13977,-28.62
13989,-36.21
14001,-44.35
14013,-53.89
14025,-65.39
14037,-78.75
14049,-93.16
14061,-107.31
14072,-119.75
14083,-129.25
14095,-135.0
14107,-136.71
14119,-134.45
14131,-128.56
14143,-119.48
14155,-107.78
14167,-94.13
14179,-79.33
14191,-64.14
14203,-49.15
14215,-34.62
14227,-20.41
14239,-6.29
14251,7.95
14262,22.17
14273,35.9
14285,48.42
14297,59.1
14309,67.59
14321,73.99
14333,78.63
14345,81.96
14357,84.32
14369,85.88
14381,86.73
14393,86.81
14405,86.14
14417,84.74
14429,82.66
14441,79.96
14452,76.71
14463,72.95
14475,68.77
14487,64.22
14499,59.35
14511,54.16
14523,48.68
14535,42.97
14547,37.16
14559,31.39
14571,25.73
14583,20.12
14595,14.41
14607,8.44
14619,2.12
14631,-4.57
14642,-11.6
14653,-18.87
14665,-26.13
14677,-32.94
14689,-38.54
14701,-41.96
14713,-42.37
14725,-39.37
14737,-33.25
14749,-24.94
14761,-15.59
14773,-6.13
14785,2.94
14797,11.61
14809,20.03
14821,28.23
14832,36.01
14843,42.99
14855,48.76
14867,53.14
14879,56.15
14891,57.96
14903,58.84
14915,59.05
14927,58.73
14939,58.13
14951,57.47
14963,56.95
14975,56.79
14987,57.14
14999,58.01
15011,59.28
15022,60.65
15033,61.62
15045,61.71
15057,60.58
15069,58.11
15081,54.57
15093,50.4
15105,46.18
15117,42.26
15129,38.7
15141,35.2
15153,31.35
15165,26.81
15177,21.44
15189,15.41
15201,9.05
15212,2.74
15223,-3.27
15235,-8.84
15247,-14.02
15259,-18.93
15271,-23.82
15283,-29.01
15295,-34.77
15307,-41.22
15319,-48.09
15331,-54.66
15343,-59.94
15355,-62.89
15367,-62.76
15379,-59.35
15391,-53.05
15402,-44.58
15413,-34.81
15425,-24.5
15437,-14.11
15449,-3.91
15461,5.86
15473,14.96
15485,23.03
15497,29.7
15509,34.76
15521,38.19
15533,40.22
15545,41.28
15557,41.78
15569,42.0
15581,42.08
15592,42.0
15603,41.74
15615,41.35
15627,40.89
15639,40.38
15651,39.88
15663,39.31
15675,38.72
15687,38.19
15699,37.87
15711,37.91
15723,38.26
15735,38.68
15747,38.84
15759,38.48
15771,37.47
15782,35.9
15793,33.93
15805,31.67
15817,29.07
15829,26.02
15841,22.4
15853,18.26
15865,13.81
15877,9.34
15889,5.16
15901,1.52
15913,-1.49
15925,-3.89
15937,-5.8
15949,-7.45
15961,-9.17
15972,-11.29
15983,-14.13
15995,-17.76
16007,-22.04
16019,-26.4
16031,-30.04
16043,-31.99
16055,-31.41
16067,-27.9
16079,-21.56
16091,-12.96
16103,-2.89
16115,7.85
16127,18.84
16139,29.92
16151,41.09
16162,52.3
16173,63.28
16185,73.61
16197,82.8
16209,90.46
16221,96.29
16233,100.24
16245,102.3
16257,102.56
16269,101.22
16281,98.59
16293,95.08
16305,91.02
16317,86.53
16329,81.48
16341,75.63
16352,68.73
16363,60.76
16375,52.06
16387,43.1
16399,34.5
16411,26.64
16423,19.63
16435,13.33
16447,7.38
16459,1.28
16471,-5.49
16483,-13.41
16495,-22.85
16507,-33.8
16519,-45.73
16531,-57.62
16542,-68.1
16553,-76.0
16565,-80.75
16577,-82.59
16589,-82.46
16601,-81.54
16613,-80.7
16625,-80.21
16637,-79.84
16649,-79.1
16661,-77.72
16673,-75.76
16685,-73.54
16697,-71.29
16709,-68.98
16721,-66.21
16732,-62.44
16743,-57.22
16755,-50.37
16767,-42.07
16779,-32.71
16791,-22.66
16803,-12.18
16815,-1.33
16827,10.05
16839,22.22
16851,35.28
16863,49.09
16875,63.06
16887,76.32
16899,88.01
16911,97.68
16922,105.55
16933,112.6
16945,120.11
16957,128.99
16969,139.13
16981,149.26
16993,157.32
17005,161.32
17017,160.18
17029,154.28
17041,145.34
17053,135.77
17065,127.84
17077,123.05
17089,121.88
17101,123.75
17112,127.14
17123,129.63
17135,128.15
17147,119.51
17159,101.27
17171,72.72
17183,35.31
17195,-7.54
17207,-51.45
17219,-92.21
17231,-126.81
17243,-153.82
17255,-173.27
17267,-186.12
17279,-193.75
17291,-197.71
17302,-199.5
17313,-200.43
17325,-201.36
17337,-202.51
17349,-203.45
17361,-203.28
17373,-201.08
17385,-196.28
17397,-188.97
17409,-179.85
17421,-169.94
17433,-160.19
17445,-151.11
17457,-142.65
17469,-134.29
17481,-125.4
17492,-115.44
17503,-104.28
17515,-92.23
17527,-79.93
17539,-68.11
17551,-57.38
17563,-48.02
17575,-39.98
17587,-33.01
17599,-26.76
17611,-21.0
17623,-15.68
17635,-10.88
17647,-6.74
17659,-3.39
17671,-0.9
17682,0.64
17693,1.1
17705,0.5
17717,-0.98
17729,-2.91
17741,-4.77
17753,-6.16
17765,-7.06
17777,-7.82
17789,-8.99
17801,-11.11
17813,-14.35
17825,-18.49
17837,-22.93
17849,-26.81
17861,-29.3
17872,-29.75
17883,-27.83
17895,-23.6
17907,-17.53
17919,-10.27
17931,-2.55
17943,5.05
17955,12.16
17967,18.66
17979,24.45
17991,29.52
18003,33.86
18015,37.45
18027,40.32
18039,42.47
18051,43.88
18062,44.45
18073,44.15
18085,43.04
18097,41.2
18109,38.65
18121,35.28
18133,30.86
18145,25.2
18157,18.25
18169,10.32
18181,1.94
18193,-6.29
18205,-13.86
18217,-20.55
18229,-26.35
18241,-31.33
18252,-35.59
18263,-39.26
18275,-42.49
18287,-45.54
18299,-48.81
18311,-52.66
18323,-57.28
18335,-62.5
18347,-67.68
18359,-71.73
18371,-73.56
18383,-72.32
18395,-67.82
18407,-60.58
18419,-51.61
18431,-42.04
18442,-32.77
18453,-24.27
18465,-16.64
18477,-9.84
18489,-3.86
18501,1.23
18513,5.33
18525,8.5
18537,11.01
18549,13.25
18561,15.65
18573,18.36
18585,21.36
18597,24.39
18609,27.11
18621,29.33
18632,31.07
18643,32.53
18655,33.94
18667,35.45
18679,37.01
18691,38.4
18703,39.27
18715,39.31
18727,38.31
18739,36.31
18751,33.47
18763,30.03
18775,26.18
18787,21.92
18799,17.06
18811,11.29
18822,4.42
18833,-3.55
18845,-12.25
18857,-21.13
18869,-29.5
18881,-36.67
18893,-42.11
18905,-45.43
18917,-46.48
18929,-45.25
18941,-41.99
18953,-37.12
18965,-31.13
18977,-24.5
18989,-17.64
19001,-10.84
19012,-4.27
19023,1.9
19035,7.54
19047,12.47
19059,16.59
19071,19.84
19083,22.34
19095,24.34
19107,26.2
19119,28.28
19131,30.76
19143,33.52
19155,36.19
19167,38.27
19179,39.37
19191,39.43
19202,38.75
19213,37.83
19225,37.12
19237,36.81
19249,36.78
19261,36.83
19273,36.8
19285,36.74
19297,36.81
19309,37.12
19321,37.53
19333,37.64
19345,36.91
19357,34.91
19369,31.47
19381,26.76
19392,21.25
19403,15.56
19415,10.22
19427,5.53
19439,1.49
19451,-2.18
19463,-5.96
19475,-10.34
19487,-15.66
19499,-21.97
19511,-28.95
19523,-36.01
19535,-42.41
19547,-47.34
19559,-50.14
19571,-50.46
19582,-48.38
19593,-44.39
19605,-39.2
19617,-33.49
19629,-27.74
19641,-22.07
19653,-16.38
19665,-10.52
19677,-4.52
19689,1.37
19701,6.68
19713,10.93
19725,13.84
19737,15.38
19749,15.8
19761,15.42
19772,14.52
19783,13.35
19795,12.1
19807,10.97
19819,10.19
19831,9.94
19843,10.31
19855,11.12
19867,12.04
19879,12.55
19891,12.12
19903,10.45
19915,7.5
19927,3.52
19939,-1.09
19951,-5.83
19962,-10.25
19973,-13.98
19985,-16.89
19997,-19.04
20009,-20.65
20021,-22.07
20033,-23.69
20045,-25.84
20057,-28.65
20069,-31.94
20081,-35.14
20093,-37.5
20105,-38.24
20117,-36.93
20129,-33.6
20141,-28.79
20152,-23.28
20163,-17.75
20175,-12.62
20187,-7.81
20199,-3.0
20211,2.25
20223,8.17
20235,14.82
20247,22.11
20259,29.93
20271,38.15
20283,46.54
20295,54.83
20307,62.58
20319,69.38
20331,74.8
20342,78.55
20353,80.49
20365,80.61
20377,79.08
20389,76.1
20401,71.91
20413,66.8
20425,61.17
20437,55.41
20449,49.96
20461,45.16
20473,41.28
20485,38.37
20497,36.29
20509,34.75
20521,33.39
20532,31.95
20543,30.27
20555,28.34
20567,26.22
20579,23.9
20591,21.37
20603,18.56
20615,15.47
20627,12.2
20639,8.91
20651,5.75
20663,2.77
20675,-0.06
20687,-2.83
20699,-5.65
20711,-8.52
20722,-11.47
20733,-14.62
20745,-18.17
20757,-22.33
20769,-27.11
20781,-32.12
20793,-36.61
20805,-39.5
20817,-39.93
20829,-37.52
20841,-32.63
20853,-26.07
20865,-18.95
20877,-12.07
20889,-5.83
20901,-0.29
20912,4.79
20923,9.55
20935,14.03
20947,18.07
20959,21.51
20971,24.18
20983,26.07
20995,27.25
