seconds,BVP
4,-13.03
16,-14.83
28,-16.8
40,-18.98
51,-21.38
62,-23.92
74,-26.4
86,-28.65
98,-30.5
110,-31.97
122,-33.2
134,-34.48
146,-36.13
158,-38.33
170,-41.09
182,-44.1
194,-46.83
206,-48.53
218,-48.4
230,-45.86
241,-40.61
252,-32.83
264,-23.09
276,-12.26
288,-1.26
300,9.08
312,18.04
324,25.1
336,29.92
348,32.44
360,32.89
372,31.8
384,29.87
396,27.73
408,25.83
420,24.33
431,23.14
442,22.11
454,21.17
466,20.33
478,19.63
490,19.07
502,18.52
514,17.83
526,16.82
538,15.38
550,13.45
562,11.06
574,8.26
586,5.16
598,1.88
610,-1.43
621,-4.65
632,-7.74
644,-10.76
656,-13.84
668,-17.15
680,-20.78
692,-24.62
704,-28.27
716,-31.09
728,-32.29
740,-31.25
752,-27.64
764,-21.67
776,-13.98
788,-5.51
800,2.81
811,10.27
822,16.44
834,21.19
846,24.51
858,26.45
870,27.07
882,26.48
894,24.9
906,22.66
918,20.21
930,17.99
942,16.32
954,15.36
966,15.03
978,15.11
990,15.33
1001,15.47
1012,15.4
1024,15.03
1036,14.3
1048,13.13
1060,11.43
1072,9.18
1084,6.4
1096,3.23
1108,-0.17
1120,-3.65
1132,-7.12
1144,-10.58
1156,-14.1
1168,-17.81
1180,-21.81
1191,-26.1
1202,-30.42
1214,-34.22
1226,-36.72
1238,-37.11
1250,-34.83
1262,-29.87
1274,-22.78
1286,-14.54
1298,-6.22
1310,1.36
1322,7.78
1334,12.98
1346,17.05
1358,20.03
1370,21.86
1381,22.5
1392,22.01
1404,20.67
1416,18.92
1428,17.22
1440,15.87
1452,14.97
1464,14.43
1476,14.1
1488,13.8
1500,13.45
1512,12.99
1524,12.37
1536,11.49
1548,10.22
1560,8.47
1571,6.2
1582,3.52
1594,0.59
1606,-2.34
1618,-5.13
1630,-7.79
1642,-10.49
1654,-13.55
1666,-17.29
1678,-21.82
1690,-26.92
1702,-32.07
1714,-36.49
1726,-39.37
1738,-40.03
1750,-38.11
1761,-33.64
1772,-27.0
1784,-18.91
1796,-10.23
1808,-1.8
1820,5.73
1832,11.96
1844,16.71
1856,19.99
1868,21.85
1880,22.43
1892,21.97
1904,20.78
1916,19.31
1928,17.93
1940,16.9
1951,16.27
1962,15.92
1974,15.69
1986,15.49
1998,15.36
2010,15.3
2022,15.26
2034,15.02
2046,14.27
2058,12.76
2070,10.41
2082,7.41
2094,4.1
2106,0.83
2118,-2.18
2130,-4.92
2141,-7.56
2152,-10.4
2164,-13.73
2176,-17.74
2188,-22.41
2200,-27.51
2212,-32.52
2224,-36.72
2236,-39.29
2248,-39.5
2260,-36.94
2272,-31.63
2284,-24.09
2296,-15.22
2308,-6.08
2320,2.38
2331,9.52
2342,15.05
2354,18.97
2366,21.48
2378,22.8
2390,23.14
2402,22.72
2414,21.78
2426,20.6
2438,19.5
2450,18.68
2462,18.23
2474,18.07
2486,18.02
2498,17.92
2510,17.67
2521,17.29
2532,16.84
2544,16.36
2556,15.78
2568,14.94
2580,13.64
2592,11.7
2604,9.08
2616,5.89
2628,2.38
2640,-1.14
2652,-4.44
2664,-7.45
2676,-10.31
2688,-13.3
2700,-16.74
2711,-20.8
2722,-25.31
2734,-29.81
2746,-33.53
2758,-35.64
2770,-35.5
2782,-32.82
2794,-27.81
2806,-21.03
2818,-13.28
2830,-5.37
2842,2.08
2854,8.63
2866,14.06
2878,18.29
2890,21.32
2901,23.15
2912,23.87
2924,23.63
2936,22.66
2948,21.26
2960,19.78
2972,18.49
2984,17.56
2996,17.0
3008,16.68
3020,16.42
3032,16.1
3044,15.68
3056,15.17
3068,14.62
3080,14.0
3091,13.12
3102,11.77
3114,9.73
3126,6.98
3138,3.68
3150,0.17
3162,-3.18
3174,-6.15
3186,-8.69
3198,-10.98
3210,-13.3
3222,-15.94
3234,-19.1
3246,-22.87
3258,-27.15
3270,-31.66
3281,-35.86
3292,-39.12
3304,-40.76
3316,-40.28
3328,-37.48
3340,-32.54
3352,-25.96
3364,-18.4
3376,-10.52
3388,-2.88
3400,4.1
3412,10.13
3424,14.95
3436,18.37
3448,20.31
3460,20.85
3471,20.27
3482,19.01
3494,17.53
3506,16.22
3518,15.33
3530,14.92
3542,14.93
3554,15.21
3566,15.6
3578,15.94
3590,16.06
3602,15.86
3614,15.29
3626,14.38
3638,13.21
3650,11.81
3661,10.21
3672,8.33
3684,6.11
3696,3.54
3708,0.7
3720,-2.25
3732,-5.13
3744,-7.83
3756,-10.34
3768,-12.78
3780,-15.34
3792,-18.25
3804,-21.65
3816,-25.49
3828,-29.45
3840,-32.93
3851,-35.22
3862,-35.67
3874,-33.89
3886,-29.88
3898,-24.0
3910,-16.86
3922,-9.21
3934,-1.75
3946,4.92
3958,10.39
3970,14.4
3982,16.92
3994,18.1
4006,18.18
4018,17.5
4030,16.4
4041,15.22
4052,14.24
4064,13.65
4076,13.48
4088,13.61
4100,13.83
4112,13.91
4124,13.75
4136,13.41
4148,13.04
4160,12.8
4172,12.69
4184,12.56
4196,12.11
4208,11.05
4220,9.22
4231,6.66
4242,3.63
4254,0.49
4266,-2.42
4278,-4.91
4290,-6.99
4302,-8.88
4314,-10.9
4326,-13.41
4338,-16.63
4350,-20.57
4362,-24.96
4374,-29.26
4386,-32.73
4398,-34.63
4410,-34.4
4421,-31.8
4432,-27.04
4444,-20.66
4456,-13.42
4468,-6.07
4480,0.75
4492,6.61
4504,11.24
4516,14.5
4528,16.36
4540,16.94
4552,16.49
4564,15.39
4576,14.04
4588,12.78
4600,11.8
4611,11.13
4622,10.7
4634,10.45
4646,10.35
4658,10.46
4670,10.78
4682,11.27
4694,11.79
4706,12.08
4718,11.93
4730,11.12
4742,9.6
4754,7.41
4766,4.72
4778,1.79
4790,-1.12
4801,-3.8
4812,-6.2
4824,-8.41
4836,-10.63
4848,-13.1
4860,-15.99
4872,-19.31
4884,-22.87
4896,-26.33
4908,-29.19
4920,-30.93
4932,-31.1
4944,-29.46
4956,-26.02
4968,-21.07
4980,-15.09
4991,-8.65
5002,-2.27
5014,3.64
5026,8.74
5038,12.82
5050,15.69
5062,17.29
5074,17.71
5086,17.19
5098,16.05
5110,14.62
5122,13.18
5134,11.91
5146,10.92
5158,10.26
5170,9.97
5181,10.06
5192,10.46
5204,11.01
5216,11.51
5228,11.72
5240,11.5
5252,10.78
5264,9.57
5276,7.93
5288,5.93
5300,3.65
5312,1.16
5324,-1.4
5336,-3.92
5348,-6.34
5360,-8.69
5371,-11.16
5382,-13.99
5394,-17.31
5406,-21.05
5418,-24.79
5430,-27.9
5442,-29.64
5454,-29.47
5466,-27.17
5478,-22.94
5490,-17.24
5502,-10.66
5514,-3.81
5526,2.81
5538,8.77
5550,13.77
5561,17.56
5572,20.05
5584,21.3
5596,21.47
5608,20.82
5620,19.67
5632,18.34
5644,17.14
5656,16.3
5668,15.91
5680,15.91
5692,16.1
5704,16.24
5716,16.19
5728,15.89
5740,15.41
5751,14.76
5762,13.87
5774,12.57
5786,10.69
5798,8.21
5810,5.31
5822,2.28
5834,-0.58
5846,-3.17
5858,-5.6
5870,-8.13
5882,-11.07
5894,-14.58
5906,-18.62
5918,-22.98
5930,-27.26
5941,-31.01
5952,-33.73
5964,-34.95
5976,-34.31
5988,-31.67
6000,-27.18
6012,-21.27
6024,-14.59
6036,-7.87
6048,-1.68
6060,3.57
6072,7.75
6084,10.82
6096,12.83
6108,13.79
6120,13.75
6131,12.84
6142,11.37
6154,9.76
6166,8.48
6178,7.83
6190,7.89
6202,8.5
6214,9.35
6226,10.12
6238,10.61
6250,10.69
6262,10.38
6274,9.67
6286,8.59
6298,7.19
6310,5.53
6321,3.72
6332,1.87
6344,0.05
6356,-1.75
6368,-3.59
6380,-5.6
6392,-7.9
6404,-10.6
6416,-13.73
6428,-17.18
6440,-20.71
6452,-23.87
6464,-26.13
6476,-26.95
6488,-25.92
6500,-22.95
6511,-18.22
6522,-12.22
6534,-5.61
6546,0.97
6558,7.01
6570,12.15
6582,16.21
6594,19.11
6606,20.83
6618,21.39
6630,20.95
6642,19.78
6654,18.22
6666,16.61
6678,15.19
6690,14.05
6701,13.15
6712,12.42
6724,11.84
6736,11.44
6748,11.23
6760,11.13
6772,10.96
6784,10.47
6796,9.44
6808,7.78
6820,5.53
6832,2.85
6844,-0.08
6856,-3.09
6868,-6.07
6880,-8.98
6891,-11.84
6902,-14.75
6914,-17.88
6926,-21.38
6938,-25.3
6950,-29.46
6962,-33.41
6974,-36.5
6986,-38.06
6998,-37.58
7010,-34.89
7022,-30.18
7034,-23.95
7046,-16.9
7058,-9.74
7070,-3.07
7081,2.71
7092,7.36
7104,10.81
7116,13.06
7128,14.21
7140,14.42
7152,13.88
7164,12.84
7176,11.59
7188,10.4
7200,9.48
7212,8.94
7224,8.78
7236,8.92
7248,9.2
7260,9.48
7271,9.59
7282,9.38
7294,8.74
7306,7.61
7318,6.0
7330,4.01
7342,1.78
7354,-0.53
7366,-2.77
7378,-4.87
7390,-6.87
7402,-8.84
7414,-10.96
7426,-13.39
7438,-16.25
7450,-19.51
7461,-22.96
7472,-26.19
7484,-28.62
7496,-29.64
7508,-28.8
7520,-25.92
7532,-21.21
7544,-15.18
7556,-8.48
7568,-1.74
7580,4.54
7592,10.02
7604,14.49
7616,17.8
7628,19.82
7640,20.56
7651,20.16
7662,18.96
7674,17.42
7686,16.01
7698,15.08
7710,14.77
7722,14.99
7734,15.5
7746,16.05
7758,16.46
7770,16.62
7782,16.54
7794,16.21
7806,15.61
7818,14.66
7830,13.22
7841,11.24
7852,8.76
7864,5.99
7876,3.2
7888,0.65
7900,-1.59
7912,-3.64
7924,-5.81
7936,-8.48
7948,-11.93
7960,-16.21
7972,-21.04
7984,-25.9
7996,-30.02
8008,-32.61
8020,-33.0
8031,-30.86
8042,-26.31
8054,-19.9
8066,-12.49
8078,-4.96
8090,1.95
8102,7.83
8114,12.55
8126,16.08
8138,18.42
8150,19.52
8162,19.44
8174,18.42
8186,16.92
8198,15.52
8210,14.7
8221,14.7
8232,15.4
8244,16.42
8256,17.32
8268,17.81
8280,17.79
8292,17.4
8304,16.81
8316,16.13
8328,15.3
8340,14.15
8352,12.54
8364,10.37
8376,7.75
8388,4.89
8400,2.03
8411,-0.62
8422,-2.98
8434,-5.07
8446,-7.04
8458,-9.07
8470,-11.4
8482,-14.26
8494,-17.76
8506,-21.78
8518,-25.96
8530,-29.66
8542,-32.11
8554,-32.65
8566,-30.86
8578,-26.73
8590,-20.64
8601,-13.34
8612,-5.67
8624,1.55
8636,7.77
8648,12.67
8660,16.2
8672,18.43
8684,19.51
8696,19.66
8708,19.09
8720,18.11
8732,17.07
8744,16.27
8756,15.93
8768,16.07
8780,16.58
8791,17.21
8802,17.71
8814,17.91
8826,17.75
8838,17.27
8850,16.58
8862,15.77
8874,14.88
8886,13.83
8898,12.48
8910,10.73
8922,8.56
8934,6.1
8946,3.53
8958,1.04
8970,-1.28
8981,-3.42
8992,-5.45
9004,-7.5
9016,-9.68
9028,-12.19
9040,-15.15
9052,-18.63
9064,-22.53
9076,-26.47
9088,-29.84
9100,-31.87
9112,-31.95
9124,-29.75
9136,-25.43
9148,-19.52
9160,-12.8
9171,-5.98
9182,0.37
9194,5.96
9206,10.65
9218,14.37
9230,17.09
9242,18.75
9254,19.4
9266,19.27
9278,18.67
9290,17.91
9302,17.24
9314,16.76
9326,16.47
9338,16.32
9350,16.31
9361,16.44
9372,16.66
9384,16.88
9396,17.01
9408,16.94
9420,16.61
9432,15.97
9444,14.98
9456,13.59
9468,11.77
9480,9.55
9492,7.07
9504,4.5
9516,2.0
9528,-0.35
9540,-2.59
9551,-4.8
9562,-7.06
9574,-9.42
9586,-11.9
9598,-14.52
9610,-17.36
9622,-20.45
9634,-23.76
9646,-27.12
9658,-30.16
9670,-32.43
9682,-33.42
9694,-32.77
9706,-30.33
9718,-26.21
9730,-20.76
9741,-14.53
9752,-8.09
9764,-1.96
9776,3.43
9788,7.81
9800,11.05
9812,13.09
9824,14.0
9836,13.93
9848,13.16
9860,11.99
9872,10.76
9884,9.74
9896,9.17
9908,9.19
9920,9.85
9931,11.13
9942,12.86
9954,14.82
9966,16.72
9978,18.3
9990,19.36
10002,19.83
10014,19.72
10026,19.11
10038,18.18
10050,17.07
10062,15.99
10074,15.15
10086,14.67
10098,14.58
10110,14.72
10121,14.84
10132,14.65
10144,14.01
10156,13.01
10168,11.91
10180,11.09
10192,10.9
10204,11.54
10216,13.06
10228,15.46
10240,18.78
10252,23.24
10264,29.21
10276,37.07
10288,47.09
10300,59.22
10311,72.98
10322,87.58
10334,102.03
10346,115.46
10358,127.35
10370,137.67
10382,146.95
10394,156.16
10406,166.54
10418,179.44
10430,195.81
10442,215.8
10454,238.26
10466,260.75
10478,280.02
10490,292.96
10501,297.74
10512,294.49
10524,285.24
10536,272.96
10548,260.39
10560,248.97
10572,238.65
10584,228.38
10596,216.86
10608,203.29
10620,187.53
10632,169.82
10644,150.34
10656,128.96
10668,105.21
10680,78.6
10691,48.99
10702,16.82
10714,-16.9
10726,-50.86
10738,-83.87
10750,-115.32
10762,-145.33
10774,-174.75
10786,-204.9
10798,-237.09
10810,-272.36
10822,-311.09
10834,-352.88
10846,-396.37
10858,-439.38
10870,-479.22
10881,-513.47
10892,-540.73
10904,-561.29
10916,-577.17
10928,-591.45
10940,-607.17
10952,-625.93
10964,-647.0
10976,-667.22
10988,-681.87
11000,-686.21
11012,-677.07
11024,-653.9
11036,-618.84
11048,-575.78
11060,-529.09
11071,-482.36
11082,-437.82
11094,-396.45
11106,-358.49
11118,-323.94
11130,-292.7
11142,-264.36
11154,-238.07
11166,-212.58
11178,-186.7
11190,-159.83
11202,-132.25
11214,-104.92
11226,-78.99
11238,-55.23
11250,-33.69
11261,-13.67
11272,5.77
11284,25.35
11296,45.16
11308,64.66
11320,82.98
11332,99.46
11344,114.02
11356,127.3
11368,140.44
11380,154.5
11392,170.15
11404,187.38
11416,205.58
11428,223.93
11440,241.83
11451,259.21
11462,276.77
11474,295.86
11486,318.11
11498,344.78
11510,375.89
11522,409.6
11534,442.12
11546,468.35
11558,483.26
11570,483.51
11582,468.63
11594,441.28
11606,406.43
11618,369.77
11630,336.1
11641,308.17
11652,286.44
11664,269.57
11676,255.25
11688,241.02
11700,224.88
11712,205.6
11724,182.89
11736,157.36
11748,130.38
11760,103.71
11772,79.2
11784,58.38
11796,42.19
11808,30.93
11820,24.42
11831,22.18
11842,23.72
11854,28.5
11866,35.99
11878,45.57
11890,56.51
11902,67.94
11914,78.83
11926,87.81
11938,93.16
11950,93.12
11962,86.37
11974,72.66
11986,53.16
11998,30.24
12010,6.75
12021,-14.91
12032,-33.51
12044,-49.01
12056,-62.05
12068,-73.27
12080,-82.76
12092,-90.14
12104,-94.96
12116,-97.13
12128,-97.05
12140,-95.45
12152,-92.97
12164,-89.88
12176,-86.11
12188,-81.44
12200,-75.76
12211,-69.32
12222,-62.64
12234,-56.28
12246,-50.6
12258,-45.54
12270,-40.63
12282,-35.21
12294,-28.69
12306,-20.96
12318,-12.47
12330,-4.26
12342,2.34
12354,6.1
12366,6.29
12378,3.04
12390,-2.72
12401,-9.42
12412,-15.38
12424,-19.33
12436,-20.89
12448,-20.59
12460,-19.7
12472,-19.64
12484,-21.33
12496,-24.76
12508,-28.94
12520,-32.21
12532,-33.0
12544,-30.45
12556,-24.86
12568,-17.67
12580,-10.86
12591,-6.24
12602,-4.67
12614,-5.82
12626,-8.46
12638,-11.02
12650,-12.38
12662,-12.08
12674,-10.43
12686,-8.4
12698,-7.62
12710,-10.48
12722,-19.72
12734,-37.3
12746,-62.73
12758,-91.9
12770,-117.45
12781,-131.03
12792,-126.77
12804,-104.06
12816,-68.1
12828,-27.77
12840,8.01
12852,33.69
12864,48.31
12876,54.34
12888,55.24
12900,53.38
12912,49.41
12924,43.21
12936,35.3
12948,27.55
12960,22.84
12971,23.79
12982,31.52
12994,45.0
13006,61.33
13018,76.91
13030,88.66
13042,94.98
13054,95.98
13066,93.06
13078,88.07
13090,82.55
13102,77.23
13114,72.05
13126,66.29
13138,58.78
13150,48.11
13161,32.89
13172,12.04
13184,-14.68
13196,-46.31
13208,-80.66
13220,-114.79
13232,-145.77
13244,-171.4
13256,-190.51
13268,-202.73
13280,-207.95
13292,-205.99
13304,-196.68
13316,-180.25
13328,-157.73
13340,-131.08
13351,-102.72
13362,-74.87
13374,-48.96
13386,-25.38
13398,-3.79
13410,16.42
13422,35.67
13434,54.09
13446,71.6
13458,88.09
13470,103.61
13482,118.43
13494,133.04
13506,148.03
13518,163.98
13530,181.15
13541,199.28
13552,217.42
13564,234.28
13576,248.62
13588,259.91
13600,268.53
13612,275.55
13624,282.03
13636,288.26
13648,293.36
13660,295.46
13672,292.53
13684,283.26
13696,267.52
13708,246.4
13720,221.59
13731,194.59
13742,166.16
13754,136.01
13766,102.94
13778,65.07
13790,20.4
13802,-32.38
13814,-92.74
13826,-157.4
13838,-220.1
13850,-272.57
13862,-306.65
13874,-316.9
13886,-302.83
13898,-269.45
13910,-225.95
13921,-182.74
13932,-148.18
13944,-126.1
13956,-115.2
13968,-110.27
13980,-104.51
13992,-91.92
14004,-68.94
14016,-34.78
14028,9.01
14040,59.46
14052,112.75
14064,164.65
14076,210.64
14088,246.42
14100,268.75
14111,276.27
14122,270.01
14134,252.96
14146,229.04
14158,202.04
14170,174.73
14182,148.76
14194,124.98
14206,103.83
14218,85.49
14230,69.78
14242,56.0
14254,43.03
14266,29.6
14278,14.73
14290,-2.03
14301,-20.52
14312,-40.15
14324,-60.09
14336,-79.41
14348,-97.06
14360,-112.02
14372,-123.4
14384,-130.69
14396,-133.93
14408,-133.73
14420,-131.05
14432,-126.95
14444,-122.34
14456,-117.85
14468,-113.81
14480,-110.34
14491,-107.44
14502,-104.98
14514,-102.76
14526,-100.51
14538,-97.99
14550,-95.07
14562,-91.85
14574,-88.67
14586,-86.04
14598,-84.44
14610,-84.18
14622,-85.23
14634,-87.12
14646,-89.07
14658,-90.14
14670,-89.5
14681,-86.73
14692,-82.01
14704,-76.14
14716,-70.14
14728,-64.78
14740,-59.86
14752,-53.91
14764,-44.31
14776,-27.96
14788,-2.48
14800,32.64
14812,75.15
14824,120.19
14836,161.25
14848,192.13
14860,208.82
14871,210.91
14882,201.68
14894,186.83
14906,172.49
14918,163.1
14930,160.03
14942,161.4
14954,162.95
14966,159.49
14978,146.41
14990,120.81
15002,82.24
15014,33.04
15026,-21.91
15038,-75.92
15050,-121.95
15061,-154.33
15072,-170.27
15084,-170.55
15096,-158.86
15108,-139.94
15120,-117.53
15132,-93.04
15144,-65.82
15156,-34.9
15168,-1.04
15180,31.93
15192,57.71
15204,69.79
15216,64.24
15228,41.62
15240,6.89
15251,-32.49
15262,-69.33
15274,-98.99
15286,-120.1
15298,-133.68
15310,-141.57
15322,-145.2
15334,-145.29
15346,-142.41
15358,-137.77
15370,-133.44
15382,-131.67
15394,-133.68
15406,-138.69
15418,-143.83
15430,-145.22
15441,-139.76
15452,-126.48
15464,-107.09
15476,-85.16
15488,-64.71
15500,-48.68
15512,-38.13
15524,-32.38
15536,-29.65
15548,-27.99
15560,-25.73
15572,-21.68
15584,-15.11
15596,-5.8
15608,5.81
15620,18.56
15631,30.67
15642,40.15
15654,45.27
15666,44.92
15678,38.58
15690,26.19
15702,7.92
15714,-15.86
15726,-44.39
15738,-76.4
15750,-110.1
15762,-143.55
15774,-174.97
15786,-203.04
15798,-226.84
15810,-245.62
15821,-258.7
15832,-265.71
15844,-266.93
15856,-263.5
15868,-257.16
15880,-249.63
15892,-241.78
15904,-233.21
15916,-222.36
15928,-207.29
15940,-186.55
15952,-159.8
15964,-127.98
15976,-92.83
15988,-56.36
16000,-20.33
16011,13.96
16022,45.51
16034,73.52
16046,97.3
16058,116.36
16070,130.61
16082,140.61
16094,147.5
16106,152.8
16118,157.94
16130,163.81
16142,170.51
16154,177.46
16166,183.67
16178,188.22
16190,190.52
16201,190.35
16212,187.79
16224,182.98
16236,176.11
16248,167.37
16260,157.07
16272,145.69
16284,133.76
16296,121.78
16308,110.02
16320,98.54
16332,87.25
16344,76.05
16356,64.92
16368,53.98
16380,43.38
16391,33.27
16402,23.67
16414,14.48
16426,5.57
16438,-3.16
16450,-11.72
16462,-19.97
16474,-27.71
16486,-34.66
16498,-40.46
16510,-44.71
16522,-46.88
16534,-46.46
16546,-43.09
16558,-36.79
16570,-28.04
16581,-17.77
16592,-7.04
16604,3.18
16616,12.3
16628,20.13
16640,26.79
16652,32.52
16664,37.55
16676,42.08
16688,46.22
16700,50.02
16712,53.46
16724,56.44
16736,58.86
16748,60.66
16760,61.88
16771,62.65
16782,63.09
16794,63.25
16806,63.05
16818,62.37
16830,61.05
16842,59.01
16854,56.25
16866,52.76
16878,48.56
16890,43.65
16902,38.09
16914,32.07
16926,25.86
16938,19.75
16950,13.89
16961,8.22
16972,2.52
16984,-3.55
16996,-10.17
17008,-17.33
17020,-24.68
17032,-31.62
17044,-37.41
17056,-41.25
17068,-42.41
17080,-40.44
17092,-35.19
17104,-26.96
17116,-16.44
17128,-4.61
17140,7.5
17151,18.93
17162,28.98
17174,37.18
17186,43.25
17198,47.08
17210,48.7
17222,48.39
17234,46.65
17246,44.18
17258,41.67
17270,39.66
17282,38.37
17294,37.75
17306,37.5
17318,37.3
17330,36.9
17341,36.16
17352,35.06
17364,33.6
17376,31.74
17388,29.38
17400,26.34
17412,22.44
17424,17.55
17436,11.67
17448,4.96
17460,-2.28
17472,-9.7
17484,-16.94
17496,-23.78
17508,-30.18
17520,-36.28
17531,-42.28
17542,-48.4
17554,-54.58
17566,-60.5
17578,-65.46
17590,-68.58
17602,-68.99
17614,-66.07
17626,-59.66
17638,-50.16
17650,-38.47
17662,-25.77
17674,-13.26
17686,-1.97
17698,7.44
17710,14.7
17721,19.82
17732,23.01
17744,24.63
17756,25.06
17768,24.7
17780,23.97
17792,23.19
17804,22.62
17816,22.38
17828,22.51
17840,23.01
17852,23.94
17864,25.34
17876,27.24
17888,29.56
17900,32.03
17911,34.26
17922,35.81
17934,36.33
17946,35.63
17958,33.76
17970,30.95
17982,27.51
17994,23.7
18006,19.71
18018,15.54
18030,11.12
18042,6.28
18054,0.89
18066,-5.05
18078,-11.26
18090,-17.17
18101,-22.04
18112,-25.08
18124,-25.77
18136,-23.98
18148,-20.05
18160,-14.65
18172,-8.57
18184,-2.49
18196,3.1
18208,7.86
18220,11.61
18232,14.18
18244,15.47
18256,15.51
18268,14.5
18280,12.8
18291,10.82
18302,8.94
18314,7.35
18326,6.08
18338,4.98
18350,3.94
18362,2.91
18374,1.93
18386,1.14
18398,0.57
18410,0.18
18422,-0.32
18434,-1.28
18446,-3.12
18458,-6.08
18470,-10.21
18481,-15.29
18492,-20.89
18504,-26.54
18516,-31.76
18528,-36.38
18540,-40.5
18552,-44.51
18564,-48.95
18576,-54.29
18588,-60.62
18600,-67.5
18612,-73.92
18624,-78.48
18636,-79.71
18648,-76.57
18660,-68.7
18671,-56.62
18682,-41.55
18694,-25.18
18706,-9.19
18718,5.08
18730,16.79
18742,25.6
18754,31.59
18766,35.03
18778,36.28
18790,35.78
18802,34.03
18814,31.6
18826,29.04
18838,26.82
18850,25.18
18861,24.08
18872,23.32
18884,22.7
18896,22.13
18908,21.72
18920,21.67
18932,22.08
18944,22.76
18956,23.28
18968,23.03
18980,21.51
18992,18.57
19004,14.46
19016,9.76
19028,5.09
19040,0.91
19051,-2.71
19062,-6.05
19074,-9.67
19086,-14.11
19098,-19.74
19110,-26.58
19122,-34.11
19134,-41.34
19146,-46.89
19158,-49.25
19170,-47.26
19182,-40.46
19194,-29.29
19206,-15.12
19218,0.18
19230,14.68
19241,26.89
19252,36.01
19264,41.89
19276,44.81
19288,45.26
19300,43.74
19312,40.77
19324,36.88
19336,32.64
19348,28.52
19360,24.88
19372,21.83
19384,19.35
19396,17.29
19408,15.6
19420,14.28
19431,13.41
19442,13.02
19454,12.95
19466,12.9
19478,12.46
19490,11.2
19502,8.85
19514,5.4
19526,1.1
19538,-3.57
19550,-8.1
19562,-12.1
19574,-15.43
19586,-18.24
19598,-20.92
19610,-23.95
19621,-27.77
19632,-32.55
19644,-38.07
19656,-43.57
19668,-47.9
19680,-49.66
19692,-47.69
19704,-41.45
19716,-31.3
19728,-18.43
19740,-4.5
19752,8.84
19764,20.37
19776,29.45
19788,35.9
19800,39.78
19811,41.26
19822,40.58
19834,38.14
19846,34.57
19858,30.62
19870,26.98
19882,24.07
19894,21.96
19906,20.44
19918,19.23
19930,18.09
19942,16.95
19954,15.88
19966,14.94
19978,14.14
19990,13.35
20001,12.33
20012,10.79
20024,8.52
20036,5.45
20048,1.73
20060,-2.31
20072,-6.31
20084,-9.94
20096,-13.07
20108,-15.82
20120,-18.5
20132,-21.56
20144,-25.38
20156,-30.12
20168,-35.52
20180,-40.84
20191,-44.91
20202,-46.4
20214,-44.28
20226,-38.19
20238,-28.6
20250,-16.72
20262,-4.15
20274,7.61
20286,17.46
20298,24.86
20310,29.68
20322,32.04
20334,32.14
20346,30.29
20358,26.9
20370,22.55
20381,17.91
20392,13.64
20404,10.2
20416,7.78
20428,6.32
20440,5.58
20452,5.29
20464,5.19
20476,5.12
20488,4.99
20500,4.72
20512,4.2
20524,3.33
20536,1.99
20548,0.18
20560,-2.04
20571,-4.51
20582,-7.06
20594,-9.54
20606,-11.9
20618,-14.16
20630,-16.45
20642,-18.91
20654,-21.71
20666,-24.97
20678,-28.57
20690,-32.13
20702,-34.9
20714,-35.89
20726,-34.19
20738,-29.26
20750,-21.25
20761,-11.01
20772,0.17
20784,10.9
20796,20.08
20808,27.07
20820,31.64
20832,33.84
20844,33.87
20856,32.01
20868,28.67
20880,24.38
20892,19.76
20904,15.42
20916,11.76
20928,8.99
20940,7.07
20951,5.85
20962,5.16
20974,4.87
20986,4.96
20998,5.36
