seconds,BVP
4,15.41
16,14.42
28,12.49
40,9.87
52,7.02
63,4.46
74,2.63
86,1.71
98,1.68
110,2.27
122,3.11
134,3.92
146,4.53
158,4.95
170,5.26
182,5.51
194,5.65
206,5.58
218,5.14
230,4.19
242,2.72
253,0.86
264,-1.19
276,-3.21
288,-5.03
300,-6.6
312,-7.93
324,-9.13
336,-10.28
348,-11.49
360,-12.86
372,-14.41
384,-16.09
396,-17.67
408,-18.75
420,-18.83
432,-17.48
443,-14.47
454,-9.97
466,-4.48
478,1.27
490,6.55
502,10.77
514,13.67
526,15.22
538,15.58
550,14.95
562,13.47
574,11.34
586,8.79
598,6.14
610,3.79
622,2.09
633,1.24
644,1.19
656,1.66
668,2.29
680,2.77
692,2.94
704,2.88
716,2.74
728,2.6
740,2.44
752,2.09
764,1.39
776,0.32
788,-1.04
800,-2.47
812,-3.82
823,-4.98
834,-5.98
846,-6.94
858,-7.98
870,-9.2
882,-10.66
894,-12.47
906,-14.64
918,-17.15
930,-19.67
942,-21.73
954,-22.65
966,-21.91
978,-19.25
990,-14.9
1002,-9.47
1013,-3.62
1024,1.99
1036,7.0
1048,11.21
1060,14.56
1072,16.85
1084,17.89
1096,17.52
1108,15.79
1120,13.06
1132,9.97
1144,7.19
1156,5.29
1168,4.5
1180,4.64
1192,5.38
1203,6.27
1214,6.97
1226,7.36
1238,7.48
1250,7.4
1262,7.25
1274,6.98
1286,6.44
1298,5.46
1310,3.93
1322,1.86
1334,-0.51
1346,-2.89
1358,-4.95
1370,-6.48
1382,-7.49
1393,-8.13
1404,-8.72
1416,-9.57
1428,-10.94
1440,-12.9
1452,-15.41
1464,-18.21
1476,-20.91
1488,-22.94
1500,-23.67
1512,-22.59
1524,-19.44
1536,-14.44
1548,-8.11
1560,-1.33
1572,5.03
1583,10.34
1594,14.19
1606,16.45
1618,17.2
1630,16.56
1642,14.79
1654,12.24
1666,9.4
1678,6.83
1690,5.11
1702,4.57
1714,5.21
1726,6.72
1738,8.5
1750,9.96
1762,10.72
1773,10.65
1784,9.93
1796,8.82
1808,7.58
1820,6.26
1832,4.79
1844,2.96
1856,0.71
1868,-1.9
1880,-4.62
1892,-7.07
1904,-8.96
1916,-10.17
1928,-10.8
1940,-11.11
1952,-11.53
1963,-12.29
1974,-13.5
1986,-15.1
1998,-16.94
2010,-18.82
2022,-20.47
2034,-21.51
2046,-21.4
2058,-19.71
2070,-16.19
2082,-11.04
2094,-4.98
2106,1.15
2118,6.61
2130,10.93
2142,14.04
2153,16.01
2164,16.83
2176,16.42
2188,14.66
2200,11.68
2212,7.96
2224,4.3
2236,1.44
2248,-0.09
2260,-0.18
2272,0.87
2284,2.63
2296,4.67
2308,6.65
2320,8.4
2332,9.74
2343,10.5
2354,10.63
2366,10.12
2378,9.07
2390,7.59
2402,5.83
2414,3.84
2426,1.72
2438,-0.44
2450,-2.56
2462,-4.58
2474,-6.52
2486,-8.41
2498,-10.29
2510,-12.1
2522,-13.77
2533,-15.3
2544,-16.7
2556,-18.05
2568,-19.26
2580,-20.03
2592,-19.85
2604,-18.18
2616,-14.76
2628,-9.83
2640,-4.02
2652,1.86
2664,7.16
2676,11.52
2688,14.86
2700,17.18
2712,18.39
2723,18.33
2734,16.9
2746,14.29
2758,11.08
2770,8.09
2782,6.12
2794,5.62
2806,6.5
2818,8.26
2830,10.2
2842,11.69
2854,12.39
2866,12.35
2878,11.77
2890,10.9
2902,9.92
2913,8.85
2924,7.59
2936,6.09
2948,4.37
2960,2.5
2972,0.64
2984,-1.18
2996,-2.96
3008,-4.77
3020,-6.64
3032,-8.59
3044,-10.43
3056,-12.05
3068,-13.43
3080,-14.65
3092,-15.96
3103,-17.49
3114,-19.18
3126,-20.62
3138,-21.23
3150,-20.37
3162,-17.76
3174,-13.57
3186,-8.29
3198,-2.68
3210,2.6
3222,7.07
3234,10.52
3246,12.91
3258,14.22
3270,14.44
3282,13.56
3293,11.75
3304,9.37
3316,6.97
3328,5.15
3340,4.35
3352,4.7
3364,5.92
3376,7.55
3388,9.01
3400,9.91
3412,10.03
3424,9.43
3436,8.33
3448,6.98
3460,5.61
3472,4.28
3483,3.03
3494,1.78
3506,0.5
3518,-0.84
3530,-2.19
3542,-3.48
3554,-4.69
3566,-5.83
3578,-6.98
3590,-8.18
3602,-9.48
3614,-10.84
3626,-12.24
3638,-13.72
3650,-15.39
3662,-17.34
3673,-19.46
3684,-21.35
3696,-22.33
3708,-21.72
3720,-19.05
3732,-14.36
3744,-8.2
3756,-1.4
3768,5.15
3780,10.79
3792,15.17
3804,18.19
3816,19.8
3828,20.0
3840,18.85
3852,16.53
3863,13.5
3874,10.42
3886,7.9
3898,6.4
3910,6.05
3922,6.65
3934,7.84
3946,9.23
3958,10.45
3970,11.29
3982,11.66
3994,11.54
4006,11.0
4018,10.16
4030,9.09
4042,7.81
4053,6.27
4064,4.31
4076,1.87
4088,-0.97
4100,-3.99
4112,-6.85
4124,-9.3
4136,-11.21
4148,-12.63
4160,-13.71
4172,-14.62
4184,-15.49
4196,-16.43
4208,-17.54
4220,-18.89
4232,-20.44
4243,-21.9
4254,-22.75
4266,-22.33
4278,-20.14
4290,-16.04
4302,-10.4
4314,-3.99
4326,2.26
4338,7.64
4350,11.77
4362,14.64
4374,16.37
4386,17.15
4398,17.01
4410,15.94
4422,14.0
4433,11.44
4444,8.79
4456,6.68
4468,5.63
4480,5.85
4492,7.13
4504,8.92
4516,10.57
4528,11.59
4540,11.8
4552,11.32
4564,10.47
4576,9.53
4588,8.65
4600,7.76
4612,6.73
4623,5.39
4634,3.71
4646,1.79
4658,-0.18
4670,-2.03
4682,-3.71
4694,-5.28
4706,-6.93
4718,-8.8
4730,-10.95
4742,-13.26
4754,-15.58
4766,-17.83
4778,-19.98
4790,-22.14
4802,-24.25
4813,-26.07
4824,-27.02
4836,-26.43
4848,-23.72
4860,-18.85
4872,-12.33
4884,-5.07
4896,1.88
4908,7.75
4920,12.16
4932,15.15
4944,16.9
4956,17.62
4968,17.41
4980,16.34
4992,14.55
5003,12.36
5014,10.24
5026,8.69
5038,8.05
5050,8.4
5062,9.55
5074,11.11
5086,12.69
5098,13.98
5110,14.81
5122,15.12
5134,14.92
5146,14.22
5158,13.07
5170,11.52
5182,9.61
5193,7.42
5204,5.03
5216,2.5
5228,-0.08
5240,-2.59
5252,-4.98
5264,-7.13
5276,-9.03
5288,-10.65
5300,-12.03
5312,-13.19
5324,-14.18
5336,-15.13
5348,-16.27
5360,-17.81
5372,-19.74
5383,-21.72
5394,-23.07
5406,-22.99
5418,-20.93
5430,-16.87
5442,-11.26
5454,-5.01
5466,0.99
5478,6.12
5490,10.13
5502,13.04
5514,14.89
5526,15.67
5538,15.3
5550,13.88
5562,11.71
5573,9.4
5584,7.59
5596,6.71
5608,6.86
5620,7.81
5632,9.16
5644,10.51
5656,11.62
5668,12.35
5680,12.64
5692,12.46
5704,11.75
5716,10.48
5728,8.74
5740,6.67
5752,4.48
5763,2.37
5774,0.44
5786,-1.33
5798,-2.99
5810,-4.55
5822,-5.98
5834,-7.21
5846,-8.15
5858,-8.79
5870,-9.21
5882,-9.62
5894,-10.25
5906,-11.26
5918,-12.73
5930,-14.62
5942,-16.8
5953,-19.03
5964,-21.03
5976,-22.39
5988,-22.71
6000,-21.6
6012,-18.82
6024,-14.42
6036,-8.78
6048,-2.53
6060,3.59
6072,8.9
6084,13.02
6096,15.76
6108,17.16
6120,17.33
6132,16.41
6143,14.6
6154,12.22
6166,9.78
6178,7.82
6190,6.84
6202,7.02
6214,8.19
6226,9.84
6238,11.39
6250,12.44
6262,12.88
6274,12.88
6286,12.69
6298,12.51
6310,12.26
6322,11.68
6333,10.45
6344,8.38
6356,5.54
6368,2.26
6380,-1.08
6392,-4.12
6404,-6.67
6416,-8.78
6428,-10.56
6440,-12.15
6452,-13.64
6464,-15.05
6476,-16.44
6488,-17.97
6500,-19.88
6512,-22.25
6523,-24.91
6534,-27.32
6546,-28.68
6558,-28.19
6570,-25.41
6582,-20.45
6594,-13.92
6606,-6.76
6618,0.14
6630,6.14
6642,10.96
6654,14.58
6666,17.06
6678,18.41
6690,18.5
6702,17.28
6713,14.87
6724,11.72
6736,8.53
6748,6.04
6760,4.77
6772,4.87
6784,6.09
6796,7.9
6808,9.8
6820,11.46
6832,12.71
6844,13.55
6856,13.95
6868,13.86
6880,13.15
6892,11.81
6903,9.92
6914,7.6
6926,5.0
6938,2.18
6950,-0.82
6962,-3.91
6974,-6.94
6986,-9.68
6998,-11.96
7010,-13.75
7022,-15.15
7034,-16.45
7046,-17.9
7058,-19.67
7070,-21.77
7082,-23.98
7093,-25.94
7104,-27.16
7116,-27.17
7128,-25.55
7140,-22.15
7152,-17.1
7164,-10.79
7176,-3.84
7188,3.07
7200,9.36
7212,14.58
7224,18.42
7236,20.69
7248,21.32
7260,20.4
7272,18.25
7283,15.43
7294,12.57
7306,10.29
7318,9.02
7330,8.83
7342,9.51
7354,10.59
7366,11.56
7378,12.02
7390,11.83
7402,11.1
7414,10.05
7426,8.94
7438,7.87
7450,6.78
7462,5.47
7473,3.7
7484,1.44
7496,-1.15
7508,-3.74
7520,-5.97
7532,-7.61
7544,-8.63
7556,-9.22
7568,-9.66
7580,-10.26
7592,-11.25
7604,-12.76
7616,-14.82
7628,-17.25
7640,-19.74
7652,-21.74
7663,-22.54
7674,-21.52
7686,-18.34
7698,-13.13
7710,-6.55
7722,0.45
7734,6.97
7746,12.36
7758,16.35
7770,19.01
7782,20.47
7794,20.83
7806,20.03
7818,18.06
7830,15.12
7842,11.74
7853,8.6
7864,6.36
7876,5.42
7888,5.75
7900,6.98
7912,8.59
7924,10.12
7936,11.26
7948,11.92
7960,12.06
7972,11.72
7984,10.95
7996,9.81
8008,8.4
8020,6.78
8032,4.91
8043,2.71
8054,0.17
8066,-2.67
8078,-5.54
8090,-8.14
8102,-10.22
8114,-11.72
8126,-12.8
8138,-13.75
8150,-14.9
8162,-16.41
8174,-18.32
8186,-20.45
8198,-22.47
8210,-23.86
8222,-24.03
8233,-22.47
8244,-18.95
8256,-13.69
8268,-7.31
8280,-0.64
8292,5.59
8304,10.88
8316,14.99
8328,17.85
8340,19.44
8352,19.71
8364,18.71
8376,16.7
8388,14.15
8400,11.71
8412,9.92
8423,9.02
8434,8.94
8446,9.31
8458,9.71
8470,9.82
8482,9.55
8494,9.0
8506,8.36
8518,7.77
8530,7.21
8542,6.56
8554,5.65
8566,4.4
8578,2.86
8590,1.25
8602,-0.22
8613,-1.4
8624,-2.28
8636,-3.06
8648,-3.98
8660,-5.22
8672,-6.78
8684,-8.57
8696,-10.38
8708,-12.2
8720,-14.06
8732,-16.03
8744,-18.04
8756,-19.75
8768,-20.63
8780,-20.11
8792,-17.83
8803,-13.8
8814,-8.47
8826,-2.49
8838,3.48
8850,8.9
8862,13.46
8874,16.94
8886,19.16
8898,19.99
8910,19.42
8922,17.68
8934,15.23
8946,12.67
8958,10.53
8970,9.12
8982,8.46
8993,8.33
9004,8.43
9016,8.61
9028,8.81
9040,9.0
9052,9.18
9064,9.18
9076,8.84
9088,8.02
9100,6.67
9112,4.91
9124,2.9
9136,0.82
9148,-1.24
9160,-3.22
9172,-5.15
9183,-7.04
9194,-8.92
9206,-10.87
9218,-12.99
9230,-15.4
9242,-18.13
9254,-21.0
9266,-23.56
9278,-25.12
9290,-24.99
9302,-22.69
9314,-18.24
9326,-12.11
9338,-5.12
9350,1.83
9362,8.0
9373,12.85
9384,16.03
9396,17.39
9408,16.96
9420,14.92
9432,11.7
9444,7.93
9456,4.28
9468,1.36
9480,-0.42
9492,-0.95
9504,-0.34
9516,0.99
9528,2.59
9540,3.98
9552,4.89
9563,5.18
9574,4.96
9586,4.35
9598,3.44
9610,2.29
9622,0.86
9634,-0.81
9646,-2.64
9658,-4.48
9670,-6.25
9682,-7.92
9694,-9.55
9706,-11.18
9718,-12.82
9730,-14.43
9742,-15.93
9753,-17.38
9764,-18.75
9776,-19.93
9788,-20.58
9800,-20.16
9812,-18.2
9824,-14.48
9836,-9.24
9848,-3.14
9860,2.96
9872,8.35
9884,12.7
9896,15.95
9908,18.18
9920,19.38
9932,19.42
9943,18.16
9954,15.65
9966,12.27
9978,8.69
9990,5.63
10002,3.61
10014,2.79
10026,2.96
10038,3.71
10050,4.61
10062,5.35
10074,5.82
10086,6.03
10098,6.0
10110,5.69
10122,4.96
10133,3.64
10144,1.62
10156,-1.0
10168,-3.91
10180,-6.67
10192,-8.9
10204,-10.48
10216,-11.52
10228,-12.3
10240,-13.11
10252,-14.14
10264,-15.45
10276,-17.01
10288,-18.74
10300,-20.41
10312,-21.66
10323,-21.92
10334,-20.6
10346,-17.3
10358,-12.07
10370,-5.45
10382,1.59
10394,8.04
10406,13.13
10418,16.56
10430,18.38
10442,18.82
10454,18.08
10466,16.24
10478,13.47
10490,10.1
10502,6.72
10513,3.99
10524,2.49
10536,2.36
10548,3.29
10560,4.65
10572,5.74
10584,6.15
10596,5.91
10608,5.37
10620,4.87
10632,4.63
10644,4.52
10656,4.16
10668,3.18
10680,1.34
10692,-1.23
10703,-4.12
10714,-6.84
10726,-8.97
10738,-10.4
10750,-11.22
10762,-11.71
10774,-12.17
10786,-12.82
10798,-13.74
10810,-14.93
10822,-16.25
10834,-17.33
10846,-17.77
10858,-17.01
10870,-14.63
10882,-10.51
10893,-4.97
10904,1.35
10916,7.56
10928,12.92
10940,17.05
10952,19.93
10964,21.73
10976,22.64
10988,22.73
11000,21.91
11012,20.25
11024,17.89
11036,15.25
11048,12.84
11060,11.05
11072,10.03
11083,9.7
11094,9.76
11106,9.85
11118,9.68
11130,9.11
11142,8.11
11154,6.78
11166,5.23
11178,3.57
11190,1.87
11202,0.09
11214,-1.77
11226,-3.75
11238,-5.72
11250,-7.51
11262,-8.89
11273,-9.71
11284,-9.96
11296,-9.78
11308,-9.42
11320,-9.16
11332,-9.18
11344,-9.65
11356,-10.65
11368,-12.15
11380,-13.99
11392,-15.75
11404,-16.83
11416,-16.6
11428,-14.59
11440,-10.79
11452,-5.63
11463,0.07
11474,5.48
11486,9.96
11498,13.19
11510,15.14
11522,15.81
11534,15.26
11546,13.46
11558,10.57
11570,6.96
11582,3.2
11594,-0.06
11606,-2.38
11618,-3.63
11630,-4.01
11642,-3.9
11653,-3.66
11664,-3.46
11676,-3.26
11688,-2.85
11700,-2.08
11712,-0.97
11724,0.23
11736,1.09
11748,1.27
11760,0.65
11772,-0.53
11784,-1.81
11796,-2.76
11808,-3.15
11820,-3.15
11832,-3.09
11843,-3.27
11854,-3.85
11866,-4.75
11878,-5.83
11890,-6.99
11902,-8.26
11914,-9.55
11926,-10.67
11938,-11.09
11950,-10.25
11962,-7.71
11974,-3.47
11986,2.04
11998,8.02
12010,13.62
12022,18.22
12033,21.45
12044,23.22
12056,23.52
12068,22.39
12080,19.94
12092,16.5
12104,12.6
12116,8.91
12128,6.07
12140,4.45
12152,4.01
12164,4.37
12176,4.99
12188,5.43
12200,5.5
12212,5.24
12223,4.85
12234,4.48
12246,4.15
12258,3.74
12270,3.0
12282,1.71
12294,-0.22
12306,-2.61
12318,-5.14
12330,-7.42
12342,-9.17
12354,-10.39
12366,-11.3
12378,-12.26
12390,-13.69
12402,-15.81
12413,-18.61
12424,-21.82
12436,-24.96
12448,-27.36
12460,-28.35
12472,-27.42
12484,-24.29
12496,-19.08
12508,-12.33
12520,-4.85
12532,2.41
12544,8.68
12556,13.4
12568,16.36
12580,17.57
12592,17.16
12603,15.3
12614,12.24
12626,8.35
12638,4.17
12650,0.35
12662,-2.51
12674,-4.12
12686,-4.53
12698,-4.16
12710,-3.56
12722,-3.1
12734,-2.89
12746,-2.78
12758,-2.63
12770,-2.39
12782,-2.31
12793,-2.78
12804,-4.06
12816,-6.24
12828,-9.1
12840,-12.18
12852,-15.04
12864,-17.4
12876,-19.18
12888,-20.52
12900,-21.75
12912,-23.18
12924,-25.04
12936,-27.37
12948,-29.87
12960,-31.96
12972,-32.91
12983,-31.97
12994,-28.76
13006,-23.37
13018,-16.31
13030,-8.43
13042,-0.65
13054,6.23
13066,11.68
13078,15.5
13090,17.73
13102,18.49
13114,17.99
13126,16.48
13138,14.26
13150,11.72
13162,9.34
13173,7.5
13184,6.42
13196,6.1
13208,6.35
13220,6.87
13232,7.44
13244,7.86
13256,8.11
13268,8.19
13280,8.01
13292,7.44
13304,6.32
13316,4.6
13328,2.44
13340,0.11
13352,-2.17
13363,-4.27
13374,-6.21
13386,-8.09
13398,-9.97
13410,-11.81
13422,-13.52
13434,-15.06
13446,-16.5
13458,-18.01
13470,-19.62
13482,-21.07
13494,-21.85
13506,-21.35
13518,-19.08
13530,-14.95
13542,-9.38
13553,-3.08
13564,3.15
13576,8.69
13588,13.22
13600,16.6
13612,18.79
13624,19.78
13636,19.58
13648,18.27
13660,16.09
13672,13.5
13684,11.05
13696,9.17
13708,8.13
13720,7.92
13732,8.33
13743,9.06
13754,9.88
13766,10.59
13778,11.06
13790,11.2
13802,10.86
13814,10.01
13826,8.68
13838,7.01
13850,5.2
13862,3.5
13874,2.1
13886,1.12
13898,0.53
13910,0.29
13922,0.25
13933,0.22
13944,-0.14
13956,-1.14
13968,-2.95
13980,-5.42
13992,-8.01
14004,-9.97
14016,-10.55
14028,-9.27
14040,-6.17
14052,-1.75
14064,3.19
14076,7.85
14088,11.63
14100,14.27
14112,15.76
14123,16.12
14134,15.39
14146,13.56
14158,10.68
14170,6.99
14182,2.91
14194,-0.95
14206,-4.04
14218,-5.98
14230,-6.72
14242,-6.49
14254,-5.64
14266,-4.56
14278,-3.47
14290,-2.54
14302,-1.81
14313,-1.39
14324,-1.33
14336,-1.66
14348,-2.31
14360,-3.24
14372,-4.34
14384,-5.55
14396,-6.85
14408,-8.29
14420,-10.02
14432,-12.15
14444,-14.73
14456,-17.58
14468,-20.37
14480,-22.45
14492,-23.0
14503,-21.36
14514,-17.24
14526,-10.94
14538,-3.28
14550,4.72
14562,12.13
14574,18.38
14586,23.18
14598,26.42
14610,28.0
14622,27.85
14634,26.07
14646,22.98
14658,19.19
14670,15.43
14682,12.32
14693,10.19
14704,9.05
14716,8.71
14728,8.89
14740,9.33
14752,9.73
14764,9.72
14776,9.02
14788,7.41
14800,4.97
14812,2.02
14824,-0.98
14836,-3.58
14848,-5.56
14860,-6.98
14872,-8.11
14883,-9.27
14894,-10.82
14906,-12.96
14918,-15.7
14930,-18.85
14942,-21.93
14954,-24.23
14966,-24.97
14978,-23.53
14990,-19.67
15002,-13.67
15014,-6.3
15026,1.55
15038,8.93
15050,15.18
15062,19.96
15073,23.19
15084,24.9
15096,25.2
15108,24.23
15120,22.18
15132,19.4
15144,16.29
15156,13.38
15168,11.07
15180,9.62
15192,9.08
15204,9.26
15216,9.92
15228,10.72
15240,11.34
15252,11.47
15263,10.89
15274,9.42
15286,7.06
15298,4.01
15310,0.64
15322,-2.61
15334,-5.41
15346,-7.66
15358,-9.53
15370,-11.28
15382,-13.25
15394,-15.62
15406,-18.36
15418,-21.22
15430,-23.8
15442,-25.53
15453,-25.83
15464,-24.25
15476,-20.54
15488,-14.92
15500,-7.96
15512,-0.53
15524,6.44
15536,12.27
15548,16.58
15560,19.27
15572,20.42
15584,20.2
15596,18.83
15608,16.6
15620,13.97
15632,11.47
15643,9.59
15654,8.74
15666,9.04
15678,10.35
15690,12.34
15702,14.52
15714,16.42
15726,17.69
15738,18.07
15750,17.5
15762,16.01
15774,13.76
15786,10.94
15798,7.89
15810,4.88
15822,2.17
15833,-0.07
15844,-1.9
15856,-3.5
15868,-5.19
15880,-7.22
15892,-9.78
15904,-12.81
15916,-16.1
15928,-19.17
15940,-21.38
15952,-22.06
15964,-20.71
15976,-17.18
15988,-11.84
16000,-5.52
16012,0.78
16023,6.14
16034,10.02
16046,12.4
16058,13.49
16070,13.58
16082,12.84
16094,11.27
16106,8.89
16118,5.94
16130,2.89
16142,0.36
16154,-1.1
16166,-1.32
16178,-0.48
16190,0.91
16202,2.3
16213,3.33
16224,3.9
16236,4.16
16248,4.29
16260,4.45
16272,4.64
16284,4.77
16296,4.71
16308,4.32
16320,3.54
16332,2.36
16344,0.86
16356,-0.83
16368,-2.56
16380,-4.26
16392,-5.94
16403,-7.75
16414,-9.86
16426,-12.29
16438,-14.72
16450,-16.58
16462,-17.14
16474,-15.85
16486,-12.57
16498,-7.66
16510,-1.81
16522,4.11
16534,9.4
16546,13.6
16558,16.46
16570,17.88
16582,17.82
16593,16.3
16604,13.53
16616,9.98
16628,6.23
16640,2.94
16652,0.54
16664,-0.82
16676,-1.28
16688,-1.17
16700,-0.78
16712,-0.29
16724,0.24
16736,0.8
16748,1.36
16760,1.82
16772,1.99
16783,1.76
16794,1.05
16806,-0.08
16818,-1.46
16830,-2.91
16842,-4.27
16854,-5.53
16866,-6.77
16878,-8.2
16890,-9.97
16902,-12.1
16914,-14.51
16926,-16.92
16938,-18.96
16950,-20.19
16962,-20.22
16973,-18.81
16984,-15.98
16996,-11.96
17008,-7.19
17020,-2.22
17032,2.51
17044,6.71
17056,10.26
17068,13.06
17080,14.95
17092,15.67
17104,15.02
17116,13.08
17128,10.14
17140,6.84
17152,3.76
17163,1.32
17174,-0.33
17186,-1.27
17198,-1.65
17210,-1.61
17222,-1.19
17234,-0.49
17246,0.34
17258,1.02
17270,1.24
17282,0.84
17294,-0.24
17306,-1.83
17318,-3.67
17330,-5.48
17342,-7.07
17353,-8.34
17364,-9.35
17376,-10.23
17388,-11.19
17400,-12.51
17412,-14.37
17424,-16.72
17436,-19.16
17448,-20.99
17460,-21.44
17472,-19.98
17484,-16.54
17496,-11.6
17508,-6.0
17520,-0.61
17532,3.99
17543,7.6
17554,10.3
17566,12.25
17578,13.46
17590,13.79
17602,13.16
17614,11.61
17626,9.5
17638,7.36
17650,5.7
17662,4.82
17674,4.73
17686,5.11
17698,5.53
17710,5.65
17722,5.29
17733,4.57
17744,3.67
17756,2.74
17768,1.9
17780,1.12
17792,0.24
17804,-0.94
17816,-2.55
17828,-4.65
17840,-7.18
17852,-10.07
17864,-13.2
17876,-16.44
17888,-19.5
17900,-21.93
17912,-23.1
17923,-22.42
17934,-19.61
17946,-14.77
17958,-8.57
17970,-1.91
17982,4.32
17994,9.56
18006,13.53
18018,16.28
18030,17.86
18042,18.22
18054,17.32
18066,15.14
18078,11.95
18090,8.26
18102,4.76
18113,2.02
18124,0.43
18136,0.02
18148,0.51
18160,1.49
18172,2.5
18184,3.19
18196,3.31
18208,2.81
18220,1.83
18232,0.64
18244,-0.46
18256,-1.27
18268,-1.86
18280,-2.48
18292,-3.49
18303,-5.19
18314,-7.69
18326,-10.77
18338,-14.07
18350,-17.03
18362,-19.08
18374,-19.73
18386,-18.64
18398,-15.69
18410,-11.09
18422,-5.35
18434,0.84
18446,6.66
18458,11.5
18470,14.97
18482,16.93
18493,17.48
18504,16.78
18516,15.09
18528,12.73
18540,10.12
18552,7.66
18564,5.74
18576,4.55
18588,4.09
18600,4.21
18612,4.69
18624,5.29
18636,5.8
18648,6.09
18660,6.04
18672,5.59
18683,4.75
18694,3.51
18706,2.01
18718,0.36
18730,-1.43
18742,-3.39
18754,-5.6
18766,-8.1
18778,-10.84
18790,-13.73
18802,-16.66
18814,-19.5
18826,-22.04
18838,-23.94
18850,-24.7
18862,-23.76
18873,-20.74
18884,-15.6
18896,-8.86
18908,-1.38
18920,5.86
18932,12.06
18944,16.76
18956,19.81
18968,21.25
18980,21.17
18992,19.78
19004,17.36
19016,14.4
19028,11.47
19040,9.08
19052,7.54
19063,6.83
19074,6.72
19086,6.85
19098,6.94
19110,6.86
19122,6.58
19134,6.11
19146,5.41
19158,4.42
19170,3.08
19182,1.41
19194,-0.46
19206,-2.31
19218,-3.97
19230,-5.31
19242,-6.41
19253,-7.43
19264,-8.57
19276,-9.96
19288,-11.64
19300,-13.55
19312,-15.54
19324,-17.34
19336,-18.52
19348,-18.63
19360,-17.25
19372,-14.14
19384,-9.53
19396,-3.91
19408,1.97
19420,7.37
19432,11.82
19443,15.15
19454,17.36
19466,18.49
19478,18.51
19490,17.31
19502,14.99
19514,11.88
19526,8.59
19538,5.86
19550,4.24
19562,3.9
19574,4.67
19586,6.09
19598,7.58
19610,8.81
19622,9.57
19633,9.91
19644,9.89
19656,9.6
19668,8.96
19680,7.84
19692,6.15
19704,3.89
19716,1.31
19728,-1.22
19740,-3.34
19752,-4.87
19764,-5.86
19776,-6.67
19788,-7.73
19800,-9.35
19812,-11.6
19823,-14.3
19834,-17.06
19846,-19.45
19858,-20.99
19870,-21.27
19882,-19.92
19894,-16.85
19906,-12.25
19918,-6.62
19930,-0.63
19942,5.05
19954,9.92
19966,13.75
19978,16.49
19990,18.18
20002,18.81
20013,18.39
20024,16.96
20036,14.75
20048,12.21
20060,9.78
20072,7.9
20084,6.78
20096,6.39
20108,6.54
20120,6.97
20132,7.45
20144,7.83
20156,8.07
20168,8.15
20180,8.07
20192,7.8
20203,7.27
20214,6.47
20226,5.33
20238,3.81
20250,1.93
20262,-0.19
20274,-2.35
20286,-4.38
20298,-6.16
20310,-7.74
20322,-9.16
20334,-10.56
20346,-12.0
20358,-13.5
20370,-15.07
20382,-16.71
20393,-18.38
20404,-19.93
20416,-20.98
20428,-21.03
20440,-19.64
20452,-16.63
20464,-12.19
20476,-6.89
20488,-1.41
20500,3.59
20512,7.69
20524,10.72
20536,12.62
20548,13.36
20560,12.97
20572,11.59
20583,9.55
20594,7.33
20606,5.47
20618,4.44
20630,4.45
20642,5.36
20654,6.8
20666,8.29
20678,9.41
20690,9.88
20702,9.79
20714,9.31
20726,8.7
20738,8.1
20750,7.47
20762,6.64
20773,5.45
20784,3.84
20796,1.94
20808,0.05
20820,-1.53
20832,-2.64
20844,-3.34
20856,-3.83
20868,-4.43
20880,-5.36
20892,-6.68
20904,-8.36
20916,-10.27
20928,-12.35
20940,-14.51
20952,-16.56
20963,-18.09
20974,-18.52
20986,-17.25
20998,-13.95
