seconds,BVP
8,43.37
20,40.27
31,37.13
42,34.15
54,31.48
66,29.21
78,27.34
90,25.81
102,24.49
114,23.3
126,22.17
138,21.13
150,20.18
162,19.32
174,18.5
186,17.6
198,16.51
210,15.15
221,13.47
232,11.49
244,9.35
256,7.29
268,5.55
280,4.3
292,3.52
304,2.96
316,2.13
328,0.47
340,-2.56
352,-7.25
364,-13.53
376,-20.9
388,-28.44
400,-34.94
411,-39.26
422,-40.6
434,-38.74
446,-34.15
458,-27.77
470,-20.63
482,-13.63
494,-7.29
506,-1.87
518,2.52
530,5.79
542,7.81
554,8.55
566,8.15
578,6.93
590,5.33
601,3.76
612,2.53
624,1.88
636,2.04
648,3.26
660,5.8
672,9.66
684,14.44
696,19.32
708,23.19
720,24.98
732,24.04
744,20.25
756,14.0
768,5.89
780,-3.48
791,-13.66
802,-24.22
814,-34.66
826,-44.32
838,-52.51
850,-58.82
862,-63.27
874,-66.37
886,-68.85
898,-71.4
910,-74.31
922,-77.54
934,-80.83
946,-83.94
958,-86.81
970,-89.56
981,-92.46
992,-95.76
1004,-99.71
1016,-104.47
1028,-110.04
1040,-116.05
1052,-121.69
1064,-125.78
1076,-127.1
1088,-124.77
1100,-118.68
1112,-109.51
1124,-98.58
1136,-87.33
1148,-76.92
1160,-67.95
1171,-60.53
1182,-54.49
1194,-49.59
1206,-45.73
1218,-42.84
1230,-40.83
1242,-39.44
1254,-38.23
1266,-36.65
1278,-34.22
1290,-30.72
1302,-26.24
1314,-21.11
1326,-15.75
1338,-10.53
1350,-5.68
1361,-1.31
1372,2.57
1384,5.92
1396,8.74
1408,11.02
1420,12.8
1432,14.09
1444,14.9
1456,15.2
1468,14.98
1480,14.37
1492,13.55
1504,12.77
1516,12.23
1528,11.91
1540,11.65
1551,11.16
1562,10.21
1574,8.72
1586,6.78
1598,4.57
1610,2.31
1622,0.12
1634,-2.01
1646,-4.24
1658,-6.84
1670,-10.09
1682,-14.22
1694,-19.28
1706,-25.02
1718,-30.87
1730,-35.94
1741,-39.21
1752,-39.78
1764,-37.11
1776,-31.15
1788,-22.43
1800,-11.88
1812,-0.61
1824,10.3
1836,20.05
1848,28.2
1860,34.59
1872,39.27
1884,42.37
1896,44.01
1908,44.38
1920,43.75
1931,42.51
1942,41.1
1954,39.97
1966,39.42
1978,39.54
1990,40.21
2002,41.13
2014,42.05
2026,42.78
2038,43.26
2050,43.51
2062,43.56
2074,43.37
2086,42.86
2098,41.95
2110,40.6
2121,38.86
2132,36.8
2144,34.52
2156,32.09
2168,29.58
2180,27.03
2192,24.49
2204,21.97
2216,19.46
2228,16.89
2240,14.19
2252,11.37
2264,8.49
2276,5.69
2288,3.07
2300,0.71
2311,-1.45
2322,-3.54
2334,-5.76
2346,-8.34
2358,-11.5
2370,-15.39
2382,-19.95
2394,-24.82
2406,-29.31
2418,-32.48
2430,-33.4
2442,-31.46
2454,-26.59
2466,-19.25
2478,-10.32
2490,-0.81
2501,8.39
2512,16.55
2524,23.21
2536,28.08
2548,31.04
2560,32.15
2572,31.67
2584,30.05
2596,27.87
2608,25.72
2620,24.05
2632,23.1
2644,22.92
2656,23.37
2668,24.23
2680,25.26
2691,26.29
2702,27.18
2714,27.89
2726,28.41
2738,28.72
2750,28.79
2762,28.53
2774,27.87
2786,26.71
2798,25.05
2810,22.97
2822,20.63
2834,18.22
2846,15.9
2858,13.67
2870,11.43
2881,9.0
2892,6.24
2904,3.11
2916,-0.26
2928,-3.63
2940,-6.72
2952,-9.36
2964,-11.49
2976,-13.24
2988,-14.86
3000,-16.66
3012,-18.96
3024,-21.98
3036,-25.7
3048,-29.84
3060,-33.73
3071,-36.49
3082,-37.18
3094,-35.12
3106,-30.13
3118,-22.57
3130,-13.29
3142,-3.32
3154,6.35
3166,14.99
3178,22.15
3190,27.63
3202,31.39
3214,33.5
3226,34.14
3238,33.62
3250,32.33
3261,30.7
3272,29.15
3284,27.97
3296,27.32
3308,27.25
3320,27.71
3332,28.55
3344,29.61
3356,30.69
3368,31.63
3380,32.27
3392,32.51
3404,32.29
3416,31.62
3428,30.55
3440,29.19
3451,27.64
3462,25.98
3474,24.23
3486,22.41
3498,20.51
3510,18.6
3522,16.75
3534,15.0
3546,13.29
3558,11.38
3570,8.99
3582,5.88
3594,2.0
3606,-2.38
3618,-6.83
3630,-10.86
3641,-14.19
3652,-16.83
3664,-19.05
3676,-21.29
3688,-23.93
3700,-27.16
3712,-30.95
3724,-35.04
3736,-38.95
3748,-42.06
3760,-43.68
3772,-43.19
3784,-40.14
3796,-34.41
3808,-26.26
3820,-16.33
3831,-5.48
3842,5.29
3854,15.09
3866,23.19
3878,29.15
3890,32.77
3902,34.1
3914,33.34
3926,30.86
3938,27.15
3950,22.82
3962,18.56
3974,15.0
3986,12.59
3998,11.45
4010,11.4
4021,12.05
4032,12.98
4044,13.88
4056,14.61
4068,15.11
4080,15.35
4092,15.26
4104,14.75
4116,13.79
4128,12.46
4140,10.99
4152,9.59
4164,8.4
4176,7.37
4188,6.31
4200,4.94
4211,3.07
4222,0.65
4234,-2.2
4246,-5.25
4258,-8.29
4270,-11.2
4282,-14.0
4294,-16.75
4306,-19.51
4318,-22.24
4330,-24.8
4342,-27.04
4354,-28.89
4366,-30.44
4378,-31.93
4390,-33.73
4401,-36.19
4412,-39.54
4424,-43.7
4436,-48.23
4448,-52.28
4460,-54.78
4472,-54.73
4484,-51.53
4496,-45.2
4508,-36.37
4520,-26.11
4532,-15.56
4544,-5.69
4556,2.87
4568,9.83
4580,15.06
4591,18.57
4602,20.4
4614,20.74
4626,19.92
4638,18.41
4650,16.75
4662,15.44
4674,14.82
4686,15.04
4698,16.01
4710,17.48
4722,19.09
4734,20.55
4746,21.69
4758,22.55
4770,23.25
4781,23.88
4792,24.42
4804,24.71
4816,24.55
4828,23.77
4840,22.36
4852,20.45
4864,18.26
4876,15.97
4888,13.71
4900,11.47
4912,9.2
4924,6.86
4936,4.44
4948,1.96
4960,-0.5
4971,-2.91
4982,-5.24
4994,-7.47
5006,-9.56
5018,-11.48
5030,-13.19
5042,-14.72
5054,-16.19
5066,-17.79
5078,-19.75
5090,-22.24
5102,-25.31
5114,-28.75
5126,-32.06
5138,-34.49
5150,-35.21
5161,-33.59
5172,-29.39
5184,-22.93
5196,-14.98
5208,-6.53
5220,1.51
5232,8.53
5244,14.26
5256,18.65
5268,21.71
5280,23.43
5292,23.82
5304,23.04
5316,21.45
5328,19.52
5340,17.74
5351,16.4
5362,15.61
5374,15.27
5386,15.22
5398,15.35
5410,15.6
5422,15.95
5434,16.37
5446,16.79
5458,17.1
5470,17.2
5482,16.96
5494,16.31
5506,15.2
5518,13.62
5530,11.61
5541,9.29
5552,6.78
5564,4.25
5576,1.87
5588,-0.27
5600,-2.11
5612,-3.73
5624,-5.27
5636,-6.91
5648,-8.77
5660,-10.85
5672,-13.05
5684,-15.18
5696,-17.11
5708,-18.79
5720,-20.27
5731,-21.64
5742,-23.07
5754,-24.67
5766,-26.59
5778,-28.94
5790,-31.69
5802,-34.55
5814,-36.96
5826,-38.12
5838,-37.25
5850,-33.86
5862,-28.01
5874,-20.24
5886,-11.41
5898,-2.45
5910,5.97
5921,13.42
5932,19.69
5944,24.63
5956,28.09
5968,29.96
5980,30.24
5992,29.16
6004,27.18
6016,24.86
6028,22.75
6040,21.18
6052,20.23
6064,19.79
6076,19.68
6088,19.76
6100,19.97
6111,20.31
6122,20.73
6134,21.08
6146,21.16
6158,20.81
6170,20.01
6182,18.87
6194,17.56
6206,16.23
6218,14.85
6230,13.31
6242,11.45
6254,9.23
6266,6.79
6278,4.39
6290,2.28
6301,0.55
6312,-0.95
6324,-2.47
6336,-4.27
6348,-6.47
6360,-8.93
6372,-11.4
6384,-13.65
6396,-15.58
6408,-17.28
6420,-18.98
6432,-20.9
6444,-23.19
6456,-25.86
6468,-28.84
6480,-31.98
6491,-34.96
6502,-37.33
6514,-38.48
6526,-37.85
6538,-35.04
6550,-30.05
6562,-23.3
6574,-15.46
6586,-7.33
6598,0.46
6610,7.43
6622,13.34
6634,18.03
6646,21.37
6658,23.29
6670,23.83
6681,23.2
6692,21.8
6704,20.1
6716,18.57
6728,17.49
6740,16.97
6752,16.91
6764,17.14
6776,17.5
6788,17.87
6800,18.18
6812,18.36
6824,18.36
6836,18.11
6848,17.58
6860,16.78
6871,15.76
6882,14.6
6894,13.31
6906,11.88
6918,10.23
6930,8.25
6942,5.9
6954,3.2
6966,0.27
6978,-2.69
6990,-5.45
7002,-7.85
7014,-9.81
7026,-11.38
7038,-12.71
7050,-13.95
7061,-15.25
7072,-16.67
7084,-18.23
7096,-19.94
7108,-21.75
7120,-23.59
7132,-25.37
7144,-27.04
7156,-28.65
7168,-30.36
7180,-32.37
7192,-34.74
7204,-37.21
7216,-39.12
7228,-39.63
7240,-38.01
7251,-33.92
7262,-27.62
7274,-19.86
7286,-11.56
7298,-3.57
7310,3.54
7322,9.47
7334,14.1
7346,17.33
7358,19.09
7370,19.39
7382,18.43
7394,16.59
7406,14.42
7418,12.46
7430,11.13
7441,10.61
7452,10.86
7464,11.69
7476,12.91
7488,14.37
7500,16.05
7512,18.0
7524,20.2
7536,22.56
7548,24.81
7560,26.67
7572,27.88
7584,28.35
7596,28.14
7608,27.38
7620,26.22
7631,24.72
7642,22.86
7654,20.62
7666,18.04
7678,15.22
7690,12.29
7702,9.35
7714,6.45
7726,3.58
7738,0.77
7750,-1.91
7762,-4.33
7774,-6.38
7786,-8.03
7798,-9.36
7810,-10.56
7821,-11.85
7832,-13.46
7844,-15.53
7856,-18.06
7868,-20.78
7880,-23.14
7892,-24.43
7904,-23.88
7916,-21.0
7928,-15.76
7940,-8.65
7952,-0.45
7964,7.98
7976,15.98
7988,23.19
8000,29.48
8011,34.82
8022,39.08
8034,42.14
8046,43.9
8058,44.44
8070,44.05
8082,43.12
8094,42.04
8106,41.06
8118,40.18
8130,39.21
8142,37.93
8154,36.12
8166,33.7
8178,30.77
8190,27.48
8201,24.07
8212,20.7
8224,17.41
8236,14.12
8248,10.67
8260,6.86
8272,2.61
8284,-2.03
8296,-6.82
8308,-11.4
8320,-15.39
8332,-18.46
8344,-20.46
8356,-21.35
8368,-21.22
8380,-20.25
8391,-18.71
8402,-16.91
8414,-15.2
8426,-14.01
8438,-13.7
8450,-14.66
8462,-17.21
8474,-21.51
8486,-27.48
8498,-34.63
8510,-42.06
8522,-48.61
8534,-53.11
8546,-54.78
8558,-53.41
8570,-49.43
8581,-43.66
8592,-36.98
8604,-30.01
8616,-23.05
8628,-16.11
8640,-9.17
8652,-2.37
8664,4.03
8676,9.73
8688,14.54
8700,18.47
8712,21.73
8724,24.56
8736,27.16
8748,29.58
8760,31.86
8771,34.12
8782,36.63
8794,39.82
8806,44.09
8818,49.69
8830,56.52
8842,64.1
8854,71.61
8866,78.05
8878,82.44
8890,84.09
8902,82.74
8914,78.6
8926,72.31
8938,64.71
8950,56.68
8961,48.91
8972,41.79
8984,35.42
8996,29.65
9008,24.26
9020,19.01
9032,13.7
9044,8.2
9056,2.38
9068,-3.86
9080,-10.6
9092,-17.77
9104,-25.11
9116,-32.1
9128,-38.09
9140,-42.44
9151,-44.67
9162,-44.62
9174,-42.42
9186,-38.41
9198,-33.02
9210,-26.73
9222,-20.08
9234,-13.72
9246,-8.41
9258,-4.92
9270,-3.9
9282,-5.72
9294,-10.34
9306,-17.32
9318,-25.83
9330,-34.79
9341,-43.0
9352,-49.26
9364,-52.57
9376,-52.31
9388,-48.44
9400,-41.58
9412,-32.91
9424,-23.9
9436,-15.92
9448,-9.97
9460,-6.45
9472,-5.2
9484,-5.64
9496,-7.1
9508,-9.04
9520,-11.2
9531,-13.56
9542,-16.27
9554,-19.46
9566,-23.22
9578,-27.5
9590,-32.22
9602,-37.31
9614,-42.71
9626,-48.34
9638,-54.08
9650,-59.8
9662,-65.39
9674,-70.79
9686,-75.95
9698,-80.7
9710,-84.62
9721,-87.0
9732,-87.01
9744,-83.91
9756,-77.45
9768,-67.92
9780,-56.21
9792,-43.46
9804,-30.86
9816,-19.33
9828,-9.46
9840,-1.61
9852,4.06
9864,7.49
9876,8.74
9888,8.1
9900,6.14
9911,3.7
9922,1.67
9934,0.81
9946,1.54
9958,3.82
9970,7.18
9982,10.87
9994,14.09
10006,16.22
10018,16.98
10030,16.47
10042,15.15
10054,13.59
10066,12.32
10078,11.62
10090,11.54
10101,11.92
10112,12.55
10124,13.26
10136,13.87
10148,14.22
10160,14.07
10172,13.19
10184,11.45
10196,8.92
10208,5.87
10220,2.67
10232,-0.41
10244,-3.23
10256,-5.7
10268,-7.66
10280,-8.72
10291,-8.34
10302,-6.08
10314,-1.84
10326,3.94
10338,10.43
10350,16.6
10362,21.64
10374,25.12
10386,27.04
10398,27.59
10410,26.99
10422,25.26
10434,22.21
10446,17.51
10458,10.96
10470,2.71
10481,-6.7
10492,-16.32
10504,-25.11
10516,-32.17
10528,-37.02
10540,-39.64
10552,-40.31
10564,-39.4
10576,-37.2
10588,-33.89
10600,-29.64
10612,-24.79
10624,-19.89
10636,-15.52
10648,-12.14
10660,-9.91
10671,-8.62
10682,-7.92
10694,-7.47
10706,-7.11
10718,-6.87
10730,-6.81
10742,-6.91
10754,-7.03
10766,-7.04
10778,-7.05
10790,-7.54
10802,-9.24
10814,-12.83
10826,-18.42
10838,-25.3
10850,-32.02
10861,-36.79
10872,-38.09
10884,-35.15
10896,-28.21
10908,-18.29
10920,-6.77
10932,5.04
10944,16.22
10956,26.29
10968,35.05
10980,42.36
10992,48.1
11004,52.09
11016,54.23
11028,54.7
11040,53.9
11051,52.42
11062,50.85
11074,49.63
11086,48.9
11098,48.54
11110,48.16
11122,47.32
11134,45.6
11146,42.76
11158,38.82
11170,34.03
11182,28.89
11194,23.92
11206,19.45
11218,15.5
11230,11.68
11241,7.38
11252,1.99
11264,-4.81
11276,-12.94
11288,-22.01
11300,-31.49
11312,-40.81
11324,-49.49
11336,-57.02
11348,-62.93
11360,-66.9
11372,-68.95
11384,-69.61
11396,-69.79
11408,-70.45
11420,-72.08
11431,-74.37
11442,-76.28
11454,-76.5
11466,-74.01
11478,-68.55
11490,-60.65
11502,-51.38
11514,-41.83
11526,-32.69
11538,-24.22
11550,-16.48
11562,-9.56
11574,-3.68
11586,0.85
11598,3.74
11610,4.97
11621,4.82
11632,4.0
11644,3.29
11656,3.3
11668,4.23
11680,5.89
11692,7.9
11704,9.82
11716,11.39
11728,12.59
11740,13.77
11752,15.2
11764,16.87
11776,18.42
11788,19.4
11800,19.49
11811,18.65
11822,17.08
11834,15.17
11846,13.98
11858,14.3
11870,16.29
11882,19.45
11894,23.15
11906,26.99
11918,30.9
11930,35.06
11942,39.75
11954,46.44
11966,55.93
11978,67.63
11990,79.65
12001,89.94
12012,97.19
12024,101.01
12036,101.67
12048,99.81
12060,98.23
12072,99.04
12084,102.56
12096,107.47
12108,112.33
12120,116.53
12132,120.27
12144,124.01
12156,128.13
12168,135.45
12180,147.82
12191,164.73
12202,183.51
12214,201.1
12226,215.44
12238,225.4
12250,230.37
12262,213.95
12274,168.51
12286,100.11
12298,25.62
12310,-39.49
12322,-88.35
12334,-121.12
12346,-140.95
12358,-151.44
12370,-156.1
12381,-154.9
12392,-147.62
12404,-135.9
12416,-123.18
12428,-112.74
12440,-106.18
12452,-103.53
12464,-104.02
12476,-105.85
12488,-105.53
12500,-100.6
12512,-90.81
12524,-77.9
12536,-64.17
12548,-51.3
12560,-40.18
12571,-31.14
12582,-24.17
12594,-17.76
12606,-10.6
12618,-2.45
12630,5.95
12642,13.69
12654,20.43
12666,26.37
12678,31.89
12690,37.24
12702,42.92
12714,48.95
12726,54.63
12738,58.9
12750,61.1
12761,61.41
12772,60.78
12784,60.43
12796,61.38
12808,64.18
12820,68.57
12832,73.48
12844,77.34
12856,78.7
12868,76.69
12880,71.22
12892,62.81
12904,52.38
12916,40.87
12928,28.99
12940,17.07
12951,5.23
12962,-6.48
12974,-17.91
12986,-28.71
12998,-38.46
13010,-46.82
13022,-53.71
13034,-59.27
13046,-63.82
13058,-67.75
13070,-71.49
13082,-75.51
13094,-80.27
13106,-86.18
13118,-93.39
13130,-101.69
13141,-110.34
13152,-118.2
13164,-123.95
13176,-126.49
13188,-125.21
13200,-120.23
13212,-112.24
13224,-102.32
13236,-91.58
13248,-80.93
13260,-70.95
13272,-61.94
13284,-54.06
13296,-47.44
13308,-42.3
13320,-38.86
13331,-37.28
13342,-37.51
13354,-39.24
13366,-41.92
13378,-44.85
13390,-47.26
13402,-48.38
13414,-47.51
13426,-44.04
13438,-37.6
13450,-28.18
13462,-16.26
13474,-2.82
13486,10.83
13498,23.43
13510,34.04
13521,42.17
13532,47.79
13544,51.07
13556,52.2
13568,51.29
13580,48.43
13592,43.89
13604,38.15
13616,31.98
13628,26.2
13640,21.5
13652,18.16
13664,16.05
13676,14.68
13688,13.48
13700,12.0
13711,10.14
13722,8.16
13734,6.54
13746,5.8
13758,6.34
13770,8.32
13782,11.59
13794,15.63
13806,19.52
13818,22.09
13830,22.16
13842,19.0
13854,12.66
13866,4.13
13878,-5.01
13890,-13.19
13901,-19.39
13912,-23.44
13924,-25.85
13936,-27.37
13948,-28.61
13960,-29.84
13972,-31.17
13984,-32.73
13996,-34.68
14008,-37.06
14020,-39.53
14032,-41.32
14044,-41.43
14056,-39.0
14068,-33.72
14080,-25.91
14091,-16.41
14102,-6.21
14114,3.75
14126,12.87
14138,20.8
14150,27.4
14162,32.66
14174,36.54
14186,38.99
14198,39.9
14210,39.27
14222,37.24
14234,34.17
14246,30.63
14258,27.12
14270,24.01
14281,21.35
14292,19.03
14304,16.86
14316,14.8
14328,12.92
14340,11.37
14352,10.16
14364,9.1
14376,7.89
14388,6.23
14400,3.96
14412,1.17
14424,-1.93
14436,-5.09
14448,-8.2
14460,-11.31
14471,-14.57
14482,-18.13
14494,-22.04
14506,-26.22
14518,-30.51
14530,-34.71
14542,-38.68
14554,-42.23
14566,-45.13
14578,-46.95
14590,-47.19
14602,-45.37
14614,-41.25
14626,-34.94
14638,-26.97
14650,-18.07
14661,-9.05
14672,-0.6
14684,6.79
14696,12.74
14708,16.97
14720,19.27
14732,19.65
14744,18.32
14756,15.83
14768,12.86
14780,10.08
14792,7.96
14804,6.62
14816,5.91
14828,5.55
14840,5.36
14851,5.31
14862,5.56
14874,6.3
14886,7.59
14898,9.27
14910,10.95
14922,12.16
14934,12.54
14946,11.99
14958,10.67
14970,8.91
14982,7.07
14994,5.35
15006,3.81
15018,2.36
15030,0.8
15041,-1.12
15052,-3.66
15064,-7.03
15076,-11.25
15088,-15.98
15100,-20.53
15112,-23.93
15124,-25.18
15136,-23.64
15148,-19.2
15160,-12.38
15172,-4.15
15184,4.41
15196,12.36
15208,19.09
15220,24.35
15231,28.09
15242,30.34
15254,31.16
15266,30.63
15278,28.95
15290,26.46
15302,23.61
15314,20.82
15326,18.39
15338,16.41
15350,14.81
15362,13.44
15374,12.21
15386,11.12
15398,10.22
15410,9.57
15421,9.13
15432,8.83
15444,8.47
15456,7.86
15468,6.83
15480,5.27
15492,3.18
15504,0.64
15516,-2.16
15528,-5.03
15540,-7.81
15552,-10.46
15564,-13.04
15576,-15.76
15588,-18.93
15600,-22.81
15611,-27.54
15622,-32.88
15634,-38.2
15646,-42.52
15658,-44.75
15670,-44.05
15682,-40.17
15694,-33.56
15706,-25.22
15718,-16.37
15730,-8.03
15742,-0.74
15754,5.59
15766,11.55
15778,18.01
15790,25.88
15801,35.81
15812,48.02
15824,62.12
15836,77.15
15848,91.68
15860,104.17
15872,113.36
15884,118.64
15896,120.27
15908,119.33
15920,117.4
15932,116.08
15944,116.49
15956,118.89
15968,122.74
15980,126.87
15991,130.01
16002,131.18
16014,130.01
16026,126.69
16038,121.79
16050,115.95
16062,109.62
16074,102.99
16086,95.98
16098,88.3
16110,79.54
16122,69.13
16134,56.42
16146,40.88
16158,22.43
16170,1.71
16181,-19.89
16192,-40.42
16204,-58.06
16216,-71.68
16228,-81.31
16240,-88.08
16252,-93.7
16264,-99.68
16276,-106.61
16288,-113.95
16300,-120.28
16312,-124.02
16324,-124.16
16336,-120.73
16348,-114.69
16360,-107.47
16371,-100.36
16382,-94.11
16394,-88.91
16406,-84.62
16418,-81.04
16430,-78.09
16442,-75.74
16454,-73.85
16466,-72.13
16478,-70.16
16490,-67.62
16502,-64.4
16514,-60.68
16526,-56.85
16538,-53.33
16550,-50.46
16561,-48.48
16572,-47.5
16584,-47.47
16596,-48.16
16608,-49.19
16620,-50.06
16632,-50.36
16644,-49.88
16656,-48.76
16668,-47.44
16680,-46.54
16692,-46.6
16704,-47.9
16716,-50.22
16728,-52.84
16740,-54.7
16751,-54.65
16762,-51.86
16774,-46.01
16786,-37.39
16798,-26.76
16810,-15.08
16822,-3.27
16834,7.93
16846,18.0
16858,26.56
16870,33.29
16882,37.93
16894,40.45
16906,41.04
16918,40.17
16930,38.53
16941,36.75
16952,35.28
16964,34.26
16976,33.55
16988,32.86
17000,31.93
17012,30.65
17024,29.09
17036,27.45
17048,25.96
17060,24.72
17072,23.67
17084,22.62
17096,21.33
17108,19.64
17120,17.53
17131,15.15
17142,12.72
17154,10.4
17166,8.25
17178,6.15
17190,3.91
17202,1.36
17214,-1.65
17226,-5.16
17238,-9.13
17250,-13.46
17262,-17.95
17274,-22.17
17286,-25.49
17298,-27.14
17310,-26.44
17321,-23.07
17332,-17.24
17344,-9.65
17356,-1.29
17368,6.94
17380,14.41
17392,20.79
17404,25.96
17416,29.8
17428,32.13
17440,32.75
17452,31.62
17464,29.03
17476,25.56
17488,21.95
17500,18.86
17511,16.67
17522,15.4
17534,14.8
17546,14.48
17558,14.09
17570,13.45
17582,12.55
17594,11.49
17606,10.4
17618,9.33
17630,8.22
17642,6.89
17654,5.2
17666,3.12
17678,0.76
17690,-1.66
17701,-3.88
17712,-5.76
17724,-7.34
17736,-8.81
17748,-10.47
17760,-12.63
17772,-15.54
17784,-19.33
17796,-23.92
17808,-28.97
17820,-33.8
17832,-37.5
17844,-39.12
17856,-37.98
17868,-33.93
17880,-27.39
17891,-19.25
17902,-10.6
17914,-2.37
17926,4.83
17938,10.81
17950,15.65
17962,19.48
17974,22.4
17986,24.35
17998,25.19
18010,24.86
18022,23.45
18034,21.31
18046,19.02
18058,17.24
18070,16.49
18081,17.02
18092,18.74
18104,21.3
18116,24.27
18128,27.4
18140,30.7
18152,34.45
18164,39.07
18176,44.93
18188,52.1
18200,60.32
18212,69.0
18224,77.34
18236,84.55
18248,90.02
18260,93.44
18271,94.8
18282,94.34
18294,92.43
18306,89.42
18318,85.54
18330,80.82
18342,75.08
18354,68.11
18366,59.84
18378,50.57
18390,41.08
18402,32.49
18414,25.97
18426,22.35
18438,21.86
18450,24.08
18461,28.05
18472,32.63
18484,36.83
18496,40.0
18508,41.89
18520,42.58
18532,42.32
18544,41.42
18556,40.2
18568,39.11
18580,38.71
18592,39.62
18604,42.32
18616,46.83
18628,52.49
18640,57.97
18651,61.7
18662,62.36
18674,59.36
18686,52.96
18698,43.97
18710,33.17
18722,20.86
18734,6.72
18746,-9.87
18758,-29.38
18770,-51.62
18782,-75.62
18794,-99.83
18806,-122.5
18818,-142.01
18830,-157.16
18841,-167.19
18852,-171.84
18864,-171.35
18876,-166.42
18888,-158.21
18900,-148.17
18912,-137.81
18924,-128.48
18936,-121.15
18948,-116.17
18960,-113.26
18972,-111.55
18984,-109.76
18996,-106.58
19008,-101.02
19020,-92.77
19031,-82.15
19042,-70.06
19054,-57.61
19066,-45.82
19078,-35.42
19090,-26.83
19102,-20.25
19114,-15.73
19126,-13.2
19138,-12.38
19150,-12.81
19162,-13.88
19174,-14.95
19186,-15.48
19198,-15.09
19210,-13.64
19221,-11.18
19232,-7.99
19244,-4.35
19256,-0.64
19268,2.82
19280,5.81
19292,8.27
19304,10.27
19316,11.88
19328,13.03
19340,13.5
19352,13.15
19364,11.86
19376,9.71
19388,7.04
19400,4.32
19411,2.06
19422,0.45
19434,-0.73
19446,-2.04
19458,-3.71
19470,-5.88
19482,-8.48
19494,-11.32
19506,-14.06
19518,-16.36
19530,-17.96
19542,-18.69
19554,-18.49
19566,-16.68
19578,-12.73
19590,-6.44
19601,2.08
19612,12.46
19624,24.3
19636,37.02
19648,49.9
19660,62.07
19672,73.27
19684,83.09
19696,90.88
19708,96.14
19720,98.87
19732,99.87
19744,100.52
19756,102.3
19768,101.54
19780,95.49
19791,82.84
19802,64.02
19814,40.48
19826,14.23
19838,-11.8
19850,-33.88
19862,-48.48
19874,-53.6
19886,-48.96
19898,-36.86
19910,-21.44
19922,-6.94
19934,3.58
19946,9.55
19958,11.7
19970,11.46
19981,10.41
19992,10.41
20004,12.64
20016,17.41
20028,24.71
20040,34.21
20052,45.67
20064,59.01
20076,74.54
20088,93.07
20100,116.15
20112,145.57
20124,180.13
20136,217.83
20148,255.28
20160,288.14
20171,311.86
20182,322.79
20194,318.89
20206,300.33
20218,269.0
20230,227.95
20242,180.99
20254,131.56
20266,82.23
20278,34.21
20290,-12.68
20302,-59.72
20314,-108.38
20326,-159.24
20338,-211.06
20350,-260.21
20361,-301.64
20372,-330.49
20384,-343.95
20396,-342.28
20408,-328.71
20420,-308.06
20432,-284.89
20444,-262.18
20456,-240.84
20468,-220.67
20480,-201.36
20492,-183.26
20504,-167.2
20516,-153.94
20528,-143.57
20540,-135.36
20551,-128.24
20562,-121.43
20574,-114.93
20586,-109.53
20598,-106.26
20610,-105.51
20622,-106.45
20634,-107.05
20646,-104.69
20658,-97.22
20670,-83.88
20682,-65.7
20694,-45.07
20706,-24.84
20718,-7.31
20730,6.42
20741,16.42
20752,23.41
20764,28.2
20776,31.23
20788,32.57
20800,32.2
20812,30.32
20824,27.51
20836,24.61
20848,22.42
20860,21.42
20872,21.63
20884,22.68
20896,24.07
20908,25.39
20920,26.48
20931,27.45
20942,28.45
20954,29.52
20966,30.48
20978,30.95
20990,30.59
