seconds,BVP
2,38.52
14,36.24
26,33.97
38,31.99
50,30.4
62,29.11
74,27.91
86,26.59
98,25.04
110,23.22
122,21.25
134,19.3
146,17.52
158,16.03
170,14.89
181,14.03
192,13.3
204,12.46
216,11.25
228,9.52
240,7.3
252,4.83
264,2.49
276,0.59
288,-0.78
300,-1.81
312,-2.93
324,-4.57
336,-6.94
348,-9.95
360,-13.29
371,-16.56
382,-19.46
394,-21.96
406,-24.23
418,-26.57
430,-29.35
442,-32.83
454,-37.11
466,-41.97
478,-46.78
490,-50.53
502,-51.96
514,-50.02
526,-44.19
538,-34.84
550,-23.16
561,-10.87
572,0.39
584,9.47
596,15.93
608,19.95
620,22.09
632,22.94
644,23.07
656,22.92
668,22.81
680,22.95
692,23.4
704,24.06
716,24.74
728,25.29
740,25.61
751,25.76
762,25.81
774,25.89
786,26.04
798,26.27
810,26.57
822,26.88
834,27.07
846,27.01
858,26.49
870,25.44
882,23.92
894,22.14
906,20.4
918,18.91
930,17.72
941,16.7
952,15.65
964,14.43
976,13.03
988,11.55
1000,10.13
1012,8.87
1024,7.79
1036,6.81
1048,5.91
1060,5.09
1072,4.4
1084,3.88
1096,3.54
1108,3.28
1120,2.92
1131,2.26
1142,1.16
1154,-0.41
1166,-2.38
1178,-4.57
1190,-6.75
1202,-8.73
1214,-10.4
1226,-11.79
1238,-13.04
1250,-14.33
1262,-15.82
1274,-17.54
1286,-19.47
1298,-21.45
1310,-23.36
1321,-25.08
1332,-26.6
1344,-28.02
1356,-29.55
1368,-31.47
1380,-34.09
1392,-37.56
1404,-41.74
1416,-46.0
1428,-49.31
1440,-50.41
1452,-48.26
1464,-42.42
1476,-33.29
1488,-22.04
1500,-10.27
1511,0.52
1522,9.29
1534,15.65
1546,19.73
1558,21.94
1570,22.76
1582,22.6
1594,21.85
1606,20.88
1618,20.05
1630,19.62
1642,19.71
1654,20.24
1666,20.96
1678,21.6
1690,21.96
1701,22.03
1712,21.96
1724,21.99
1736,22.3
1748,22.92
1760,23.69
1772,24.32
1784,24.52
1796,24.14
1808,23.17
1820,21.78
1832,20.19
1844,18.59
1856,17.12
1868,15.78
1880,14.58
1891,13.42
1902,12.26
1914,11.03
1926,9.69
1938,8.22
1950,6.66
1962,5.08
1974,3.6
1986,2.34
1998,1.41
2010,0.85
2022,0.56
2034,0.36
2046,-0.02
2058,-0.81
2070,-2.15
2081,-3.96
2092,-6.01
2104,-7.97
2116,-9.61
2128,-10.84
2140,-11.81
2152,-12.81
2164,-14.1
2176,-15.82
2188,-17.91
2200,-20.2
2212,-22.44
2224,-24.46
2236,-26.16
2248,-27.55
2260,-28.77
2271,-30.06
2282,-31.74
2294,-34.12
2306,-37.34
2318,-41.16
2330,-44.85
2342,-47.3
2354,-47.27
2366,-43.84
2378,-36.81
2390,-26.84
2402,-15.35
2414,-4.03
2426,5.64
2438,12.77
2450,17.17
2461,19.28
2472,19.78
2484,19.41
2496,18.72
2508,18.08
2520,17.75
2532,17.86
2544,18.47
2556,19.49
2568,20.7
2580,21.83
2592,22.61
2604,22.91
2616,22.76
2628,22.31
2640,21.79
2651,21.41
2662,21.28
2674,21.37
2686,21.53
2698,21.58
2710,21.39
2722,20.89
2734,20.11
2746,19.11
2758,17.95
2770,16.66
2782,15.25
2794,13.77
2806,12.32
2818,10.99
2830,9.82
2841,8.81
2852,7.89
2864,7.04
2876,6.27
2888,5.61
2900,5.09
2912,4.64
2924,4.12
2936,3.4
2948,2.43
2960,1.32
2972,0.26
2984,-0.58
2996,-1.19
3008,-1.69
3020,-2.32
3031,-3.3
3042,-4.69
3054,-6.41
3066,-8.22
3078,-9.9
3090,-11.31
3102,-12.52
3114,-13.72
3126,-15.18
3138,-17.1
3150,-19.47
3162,-22.09
3174,-24.66
3186,-26.85
3198,-28.52
3210,-29.73
3221,-30.71
3232,-31.81
3244,-33.38
3256,-35.74
3268,-38.99
3280,-42.94
3292,-47.0
3304,-50.15
3316,-51.2
3328,-49.09
3340,-43.34
3352,-34.32
3364,-23.18
3376,-11.54
3388,-0.99
3400,7.35
3411,13.04
3422,16.18
3434,17.25
3446,16.86
3458,15.56
3470,13.88
3482,12.32
3494,11.28
3506,11.04
3518,11.62
3530,12.76
3542,14.06
3554,15.13
3566,15.79
3578,16.11
3590,16.33
3601,16.72
3612,17.41
3624,18.35
3636,19.38
3648,20.33
3660,21.05
3672,21.45
3684,21.51
3696,21.2
3708,20.57
3720,19.73
3732,18.82
3744,17.96
3756,17.16
3768,16.34
3780,15.32
3791,14.03
3802,12.52
3814,10.94
3826,9.53
3838,8.42
3850,7.62
3862,7.0
3874,6.43
3886,5.82
3898,5.14
3910,4.41
3922,3.64
3934,2.84
3946,1.96
3958,0.98
3970,-0.12
3981,-1.35
3992,-2.7
4004,-4.15
4016,-5.69
4028,-7.25
4040,-8.74
4052,-10.11
4064,-11.34
4076,-12.51
4088,-13.78
4100,-15.31
4112,-17.17
4124,-19.34
4136,-21.62
4148,-23.76
4160,-25.53
4171,-26.88
4182,-27.98
4194,-29.18
4206,-30.9
4218,-33.48
4230,-36.95
4242,-40.9
4254,-44.52
4266,-46.66
4278,-46.26
4290,-42.6
4302,-35.69
4314,-26.28
4326,-15.66
4338,-5.28
4350,3.68
4361,10.52
4372,15.06
4384,17.53
4396,18.35
4408,18.07
4420,17.24
4432,16.41
4444,15.97
4456,16.08
4468,16.65
4480,17.42
4492,18.06
4504,18.39
4516,18.42
4528,18.26
4540,18.12
4551,18.09
4562,18.22
4574,18.49
4586,18.88
4598,19.35
4610,19.8
4622,20.06
4634,19.91
4646,19.26
4658,18.14
4670,16.73
4682,15.27
4694,13.94
4706,12.78
4718,11.72
4730,10.65
4741,9.53
4752,8.39
4764,7.33
4776,6.43
4788,5.72
4800,5.17
4812,4.73
4824,4.34
4836,3.9
4848,3.32
4860,2.5
4872,1.39
4884,-0.01
4896,-1.61
4908,-3.31
4920,-5.0
4931,-6.62
4942,-8.16
4954,-9.66
4966,-11.18
4978,-12.8
4990,-14.61
5002,-16.62
5014,-18.79
5026,-20.99
5038,-23.03
5050,-24.79
5062,-26.23
5074,-27.44
5086,-28.62
5098,-30.05
5110,-31.98
5121,-34.55
5132,-37.63
5144,-40.74
5156,-43.03
5168,-43.42
5180,-41.01
5192,-35.37
5204,-26.81
5216,-16.28
5228,-5.08
5240,5.52
5252,14.66
5264,21.94
5276,27.3
5288,30.88
5300,32.83
5311,33.35
5322,32.75
5334,31.53
5346,30.19
5358,29.19
5370,28.78
5382,28.92
5394,29.37
5406,29.79
5418,29.89
5430,29.49
5442,28.64
5454,27.51
5466,26.34
5478,25.36
5490,24.64
5501,24.03
5512,23.09
5524,21.26
5536,17.93
5548,12.75
5560,5.82
5572,-2.25
5584,-10.5
5596,-17.94
5608,-23.93
5620,-28.38
5632,-31.69
5644,-34.48
5656,-37.24
5668,-40.08
5680,-42.8
5691,-45.08
5702,-46.74
5714,-47.82
5726,-48.58
5738,-49.3
5750,-50.16
5762,-51.15
5774,-52.15
5786,-52.98
5798,-53.49
5810,-53.59
5822,-53.27
5834,-52.64
5846,-51.97
5858,-51.59
5870,-51.85
5881,-52.94
5892,-54.83
5904,-57.1
5916,-58.99
5928,-59.45
5940,-57.34
5952,-51.78
5964,-42.47
5976,-29.93
5988,-15.42
6000,-0.65
6012,12.69
6024,23.42
6036,31.06
6048,35.79
6060,38.18
6071,38.92
6082,38.62
6094,37.82
6106,36.96
6118,36.41
6130,36.39
6142,36.92
6154,37.82
6166,38.76
6178,39.45
6190,39.75
6202,39.71
6214,39.52
6226,39.43
6238,39.6
6250,40.09
6261,40.78
6272,41.43
6284,41.72
6296,41.36
6308,40.19
6320,38.27
6332,35.86
6344,33.36
6356,31.14
6368,29.41
6380,28.12
6392,27.03
6404,25.8
6416,24.17
6428,22.04
6440,19.51
6451,16.79
6462,14.13
6474,11.71
6486,9.68
6498,8.09
6510,6.88
6522,5.84
6534,4.68
6546,3.04
6558,0.69
6570,-2.38
6582,-5.98
6594,-9.78
6606,-13.5
6618,-17.08
6630,-20.73
6641,-24.76
6652,-29.39
6664,-34.46
6676,-39.36
6688,-43.1
6700,-44.6
6712,-43.08
6724,-38.35
6736,-30.93
6748,-21.96
6760,-12.77
6772,-4.52
6784,2.1
6796,6.97
6808,10.41
6820,12.85
6831,14.69
6842,16.16
6854,17.4
6866,18.51
6878,19.6
6890,20.75
6902,21.95
6914,23.13
6926,24.13
6938,24.81
6950,25.14
6962,25.21
6974,25.21
6986,25.28
6998,25.51
7010,25.85
7021,26.22
7032,26.47
7044,26.51
7056,26.29
7068,25.82
7080,25.12
7092,24.25
7104,23.23
7116,22.09
7128,20.87
7140,19.59
7152,18.27
7164,16.9
7176,15.48
7188,13.98
7200,12.42
7211,10.88
7222,9.46
7234,8.29
7246,7.42
7258,6.82
7270,6.33
7282,5.72
7294,4.77
7306,3.4
7318,1.7
7330,-0.1
7342,-1.71
7354,-2.94
7366,-3.79
7378,-4.47
7390,-5.3
7401,-6.52
7412,-8.23
7424,-10.3
7436,-12.51
7448,-14.65
7460,-16.62
7472,-18.46
7484,-20.3
7496,-22.35
7508,-24.78
7520,-27.77
7532,-31.39
7544,-35.56
7556,-39.9
7568,-43.74
7580,-46.16
7591,-46.24
7602,-43.4
7614,-37.68
7626,-29.75
7638,-20.77
7650,-12.02
7662,-4.46
7674,1.4
7686,5.57
7698,8.36
7710,10.16
7722,11.31
7734,12.08
7746,12.73
7758,13.52
7770,14.67
7781,16.25
7792,18.11
7804,19.93
7816,21.34
7828,22.09
7840,22.13
7852,21.62
7864,20.81
7876,19.97
7888,19.25
7900,18.68
7912,18.22
7924,17.83
7936,17.44
7948,17.03
7960,16.56
7971,16.04
7982,15.46
7994,14.82
8006,14.14
8018,13.41
8030,12.65
8042,11.84
8054,10.94
8066,9.95
8078,8.89
8090,7.86
8102,7.01
8114,6.47
8126,6.3
8138,6.39
8150,6.57
8161,6.6
8172,6.32
8184,5.7
8196,4.84
8208,3.94
8220,3.15
8232,2.55
8244,2.09
8256,1.66
8268,1.12
8280,0.4
8292,-0.51
8304,-1.61
8316,-2.85
8328,-4.23
8340,-5.75
8351,-7.43
8362,-9.23
8374,-11.08
8386,-12.93
8398,-14.71
8410,-16.38
8422,-17.97
8434,-19.53
8446,-21.16
8458,-22.96
8470,-25.09
8482,-27.67
8494,-30.74
8506,-34.05
8518,-37.07
8530,-38.96
8541,-38.86
8552,-36.19
8564,-30.88
8576,-23.56
8588,-15.3
8600,-7.32
8612,-0.62
8624,4.33
8636,7.51
8648,9.29
8660,10.17
8672,10.59
8684,10.85
8696,11.12
8708,11.49
8720,11.95
8731,12.52
8742,13.14
8754,13.8
8766,14.43
8778,15.0
8790,15.46
8802,15.78
8814,15.98
8826,16.16
8838,16.42
8850,16.84
8862,17.38
8874,17.87
8886,18.03
8898,17.64
8910,16.64
8921,15.17
8932,13.51
8944,11.95
8956,10.68
8968,9.69
8980,8.86
8992,8.0
9004,6.98
9016,5.82
9028,4.62
9040,3.54
9052,2.69
9064,2.09
9076,1.62
9088,1.1
9100,0.37
9111,-0.64
9122,-1.88
9134,-3.19
9146,-4.41
9158,-5.45
9170,-6.32
9182,-7.16
9194,-8.14
9206,-9.39
9218,-10.96
9230,-12.77
9242,-14.64
9254,-16.41
9266,-17.98
9278,-19.38
9290,-20.74
9301,-22.26
9312,-24.1
9324,-26.35
9336,-28.93
9348,-31.56
9360,-33.74
9372,-34.88
9384,-34.34
9396,-31.75
9408,-27.07
9420,-20.76
9432,-13.59
9444,-6.52
9456,-0.35
9468,4.44
9480,7.76
9491,9.78
9502,10.83
9514,11.22
9526,11.24
9538,11.12
9550,11.07
9562,11.23
9574,11.68
9586,12.36
9598,13.17
9610,13.94
9622,14.52
9634,14.87
9646,15.0
9658,14.99
9670,14.97
9681,15.06
9692,15.32
9704,15.73
9716,16.15
9728,16.41
9740,16.3
9752,15.77
9764,14.84
9776,13.69
9788,12.48
9800,11.37
9812,10.36
9824,9.41
9836,8.42
9848,7.35
9860,6.19
9871,5.02
9882,3.93
9894,3.0
9906,2.3
9918,1.81
9930,1.5
9942,1.24
9954,0.89
9966,0.36
9978,-0.37
9990,-1.28
10002,-2.27
10014,-3.26
10026,-4.21
10038,-5.15
10050,-6.09
10061,-7.08
10072,-8.18
10084,-9.4
10096,-10.78
10108,-12.32
10120,-13.97
10132,-15.64
10144,-17.23
10156,-18.67
10168,-19.99
10180,-21.3
10192,-22.77
10204,-24.59
10216,-26.86
10228,-29.47
10240,-32.0
10251,-33.77
10262,-33.98
10274,-32.01
10286,-27.65
10298,-21.33
10310,-13.96
10322,-6.66
10334,-0.41
10346,4.3
10358,7.43
10370,9.32
10382,10.4
10394,10.99
10406,11.32
10418,11.52
10430,11.69
10441,11.97
10452,12.46
10464,13.16
10476,13.96
10488,14.66
10500,15.09
10512,15.19
10524,15.05
10536,14.88
10548,14.83
10560,14.98
10572,15.24
10584,15.44
10596,15.4
10608,15.0
10620,14.26
10631,13.27
10642,12.14
10654,10.94
10666,9.76
10678,8.68
10690,7.78
10702,7.08
10714,6.58
10726,6.15
10738,5.68
10750,5.08
10762,4.35
10774,3.58
10786,2.87
10798,2.28
10810,1.77
10821,1.28
10832,0.79
10844,0.32
10856,-0.12
10868,-0.53
10880,-1.02
10892,-1.7
10904,-2.67
10916,-3.89
10928,-5.19
10940,-6.4
10952,-7.39
10964,-8.2
10976,-8.96
10988,-9.86
11000,-11.0
11011,-12.35
11022,-13.82
11034,-15.3
11046,-16.74
11058,-18.11
11070,-19.43
11082,-20.69
11094,-21.85
11106,-22.98
11118,-24.21
11130,-25.83
11142,-28.05
11154,-30.81
11166,-33.64
11178,-35.68
11190,-35.91
11201,-33.61
11212,-28.63
11224,-21.58
11236,-13.53
11248,-5.75
11260,0.8
11272,5.59
11284,8.63
11296,10.23
11308,10.83
11320,10.84
11332,10.6
11344,10.35
11356,10.27
11368,10.45
11380,10.91
11391,11.56
11402,12.25
11414,12.81
11426,13.13
11438,13.17
11450,13.04
11462,12.93
11474,13.05
11486,13.47
11498,14.13
11510,14.85
11522,15.4
11534,15.61
11546,15.45
11558,14.94
11570,14.16
11581,13.2
11592,12.12
11604,11.02
11616,10.01
11628,9.22
11640,8.67
11652,8.27
11664,7.8
11676,7.04
11688,5.9
11700,4.49
11712,3.06
11724,1.89
11736,1.13
11748,0.71
11760,0.42
11771,0.0
11782,-0.65
11794,-1.53
11806,-2.49
11818,-3.4
11830,-4.19
11842,-4.9
11854,-5.61
11866,-6.4
11878,-7.31
11890,-8.35
11902,-9.49
11914,-10.7
11926,-11.94
11938,-13.12
11950,-14.15
11961,-14.96
11972,-15.55
11984,-16.14
11996,-17.03
12008,-18.58
12020,-20.99
12032,-24.17
12044,-27.65
12056,-30.62
12068,-32.17
12080,-31.53
12092,-28.41
12104,-23.06
12116,-16.25
12128,-9.0
12140,-2.29
12151,3.16
12162,7.07
12174,9.53
12186,10.8
12198,11.23
12210,11.13
12222,10.75
12234,10.33
12246,10.06
12258,10.05
12270,10.31
12282,10.72
12294,11.1
12306,11.27
12318,11.19
12330,10.93
12341,10.69
12352,10.69
12364,11.07
12376,11.82
12388,12.75
12400,13.55
12412,13.93
12424,13.7
12436,12.85
12448,11.56
12460,10.11
12472,8.73
12484,7.53
12496,6.47
12508,5.45
12520,4.38
12531,3.22
12542,1.97
12554,0.66
12566,-0.69
12578,-2.07
12590,-3.47
12602,-4.82
12614,-6.09
12626,-7.25
12638,-8.33
12650,-9.4
12662,-10.52
12674,-11.71
12686,-12.95
12698,-14.23
12710,-15.58
12721,-17.08
12732,-18.87
12744,-21.07
12756,-23.7
12768,-26.6
12780,-29.35
12792,-31.29
12804,-31.69
12816,-29.95
12828,-25.88
12840,-19.87
12852,-12.78
12864,-5.71
12876,0.38
12888,4.94
12900,7.95
12911,9.76
12922,10.83
12934,11.58
12946,12.23
12958,12.86
12970,13.47
12982,14.02
12994,14.51
13006,14.95
13018,15.4
13030,15.88
13042,16.41
13054,16.96
13066,17.43
13078,17.7
13090,17.73
13101,17.58
13112,17.41
13124,17.34
13136,17.4
13148,17.42
13160,17.14
13172,16.33
13184,14.93
13196,13.09
13208,11.1
13220,9.22
13232,7.57
13244,6.08
13256,4.53
13268,2.73
13280,0.56
13291,-1.89
13302,-4.43
13314,-6.8
13326,-8.82
13338,-10.42
13350,-11.73
13362,-12.93
13374,-14.29
13386,-16.0
13398,-18.22
13410,-21.02
13422,-24.37
13434,-28.09
13446,-31.74
13458,-34.66
13470,-36.07
13481,-35.32
13492,-32.1
13504,-26.67
13516,-19.8
13528,-12.53
13540,-5.87
13552,-0.53
13564,3.25
13576,5.63
13588,7.02
13600,7.91
13612,8.7
13624,9.62
13636,10.77
13648,12.13
13660,13.64
13671,15.21
13682,16.71
13694,17.99
13706,18.89
13718,19.28
13730,19.19
13742,18.77
13754,18.3
13766,18.02
13778,18.07
13790,18.36
13802,18.67
13814,18.71
13826,18.28
13838,17.26
13850,15.7
13861,13.76
13872,11.63
13884,9.53
13896,7.61
13908,5.91
13920,4.32
13932,2.66
13944,0.77
13956,-1.39
13968,-3.7
13980,-5.94
13992,-7.92
14004,-9.55
14016,-10.91
14028,-12.15
14040,-13.51
14051,-15.24
14062,-17.6
14074,-20.72
14086,-24.51
14098,-28.5
14110,-31.89
14122,-33.68
14134,-33.1
14146,-29.86
14158,-24.36
14170,-17.53
14182,-10.49
14194,-4.21
14206,0.75
14218,4.3
14230,6.68
14241,8.31
14252,9.6
14264,10.88
14276,12.3
14288,13.9
14300,15.59
14312,17.24
14324,18.69
14336,19.83
14348,20.58
14360,20.92
14372,20.88
14384,20.6
14396,20.28
14408,20.13
14420,20.26
14431,20.65
14442,21.17
14454,21.61
14466,21.74
14478,21.45
14490,20.71
14502,19.62
14514,18.33
14526,17.0
14538,15.74
14550,14.66
14562,13.78
14574,13.02
14586,12.26
14598,11.38
14610,10.32
14621,9.17
14632,8.01
14644,6.97
14656,6.11
14668,5.48
14680,5.04
14692,4.71
14704,4.43
14716,4.13
14728,3.83
14740,3.41
14752,2.79
14764,2.03
14776,1.27
14788,0.72
14800,0.53
14811,0.81
14822,1.68
14834,3.18
14846,5.04
14858,6.86
14870,8.34
14882,9.4
14894,10.12
14906,10.65
14918,11.24
14930,12.07
14942,13.16
14954,13.96
14966,13.83
14978,12.48
14990,10.2
15001,7.54
15012,4.93
15024,2.64
15036,0.64
15048,-1.32
15060,-4.03
15072,-8.21
15084,-14.06
15096,-21.15
15108,-28.89
15120,-36.71
15132,-44.1
15144,-50.6
15156,-53.13
15168,-49.69
15180,-41.49
15191,-32.07
15202,-24.19
15214,-18.54
15226,-14.55
15238,-11.41
15250,-8.68
15262,-6.44
15274,-5.47
15286,-6.32
15298,-8.79
15310,-11.97
15322,-14.83
15334,-16.78
15346,-17.67
15358,-17.59
15370,-16.62
15381,-15.5
15392,-14.08
15404,-12.11
15416,-9.34
15428,-5.89
15440,-2.25
15452,1.03
15464,3.65
15476,5.74
15488,7.41
15500,8.85
15512,10.05
15524,10.9
15536,11.22
15548,10.87
15560,9.94
15571,8.75
15582,7.62
15594,6.54
15606,5.35
15618,3.64
15630,1.13
15642,-2.22
15654,-6.08
15666,-9.85
15678,-12.93
15690,-15.02
15702,-16.24
15714,-16.94
15726,-17.57
15738,-18.29
15750,-18.97
15761,-19.35
15772,-19.25
15784,-18.72
15796,-18.04
15808,-17.61
15820,-17.67
15832,-18.27
15844,-19.2
15856,-20.08
15868,-20.62
15880,-20.68
15892,-20.44
15904,-20.22
15916,-20.36
15928,-21.08
15940,-22.36
15951,-23.95
15962,-25.42
15974,-26.28
15986,-26.07
15998,-24.49
16010,-21.4
16022,-16.89
16034,-11.3
16046,-5.2
16058,0.76
16070,5.96
16082,10.02
16094,12.88
16106,14.74
16118,15.95
16130,16.86
16141,17.72
16152,18.72
16164,20.04
16176,21.92
16188,24.56
16200,27.94
16212,31.73
16224,35.3
16236,37.96
16248,39.19
16260,38.89
16272,37.37
16284,35.18
16296,32.87
16308,30.8
16320,29.1
16331,27.72
16342,26.56
16354,25.56
16366,24.68
16378,23.92
16390,23.24
16402,22.66
16414,22.25
16426,22.07
16438,22.23
16450,22.76
16462,23.59
16474,24.53
16486,25.3
16498,25.6
16510,25.24
16521,24.16
16532,22.48
16544,20.34
16556,17.79
16568,14.65
16580,10.56
16592,5.13
16604,-1.89
16616,-10.46
16628,-20.23
16640,-30.61
16652,-40.85
16664,-50.11
16676,-57.53
16688,-62.33
16700,-64.06
16711,-62.74
16722,-58.94
16734,-53.68
16746,-48.02
16758,-42.77
16770,-38.19
16782,-34.1
16794,-30.1
16806,-25.82
16818,-21.11
16830,-16.01
16842,-10.68
16854,-5.27
16866,0.08
16878,5.22
16890,9.99
16901,14.19
16912,17.65
16924,20.35
16936,22.4
16948,24.04
16960,25.49
16972,26.97
16984,28.56
16996,30.26
17008,32.0
17020,33.65
17032,35.08
17044,36.2
17056,36.91
17068,37.15
17080,36.91
17091,36.22
17102,35.19
17114,33.99
17126,32.74
17138,31.57
17150,30.5
17162,29.52
17174,28.54
17186,27.47
17198,26.18
17210,24.56
17222,22.54
17234,20.13
17246,17.41
17258,14.51
17270,11.55
17281,8.57
17292,5.51
17304,2.29
17316,-1.11
17328,-4.62
17340,-8.04
17352,-11.16
17364,-13.87
17376,-16.21
17388,-18.4
17400,-20.7
17412,-23.32
17424,-26.33
17436,-29.64
17448,-33.11
17460,-36.5
17471,-39.54
17482,-41.9
17494,-43.13
17506,-42.82
17518,-40.71
17530,-36.82
17542,-31.56
17554,-25.58
17566,-19.64
17578,-14.33
17590,-9.96
17602,-6.59
17614,-4.06
17626,-2.18
17638,-0.75
17650,0.42
17661,1.48
17672,2.57
17684,3.76
17696,5.01
17708,6.16
17720,7.06
17732,7.57
17744,7.73
17756,7.71
17768,7.71
17780,7.91
17792,8.38
17804,9.08
17816,9.95
17828,10.92
17840,11.93
17851,12.92
17862,13.83
17874,14.54
17886,14.95
17898,15.04
17910,14.89
17922,14.67
17934,14.53
17946,14.55
17958,14.65
17970,14.68
17982,14.48
17994,13.98
18006,13.24
18018,12.39
18030,11.51
18041,10.62
18052,9.63
18064,8.44
18076,7.02
18088,5.41
18100,3.8
18112,2.35
18124,1.13
18136,0.14
18148,-0.73
18160,-1.62
18172,-2.62
18184,-3.76
18196,-5.04
18208,-6.41
18220,-7.81
18231,-9.19
18242,-10.52
18254,-11.8
18266,-13.04
18278,-14.27
18290,-15.48
18302,-16.67
18314,-17.88
18326,-19.19
18338,-20.76
18350,-22.71
18362,-25.01
18374,-27.34
18386,-29.13
18398,-29.69
18410,-28.51
18421,-25.43
18432,-20.77
18444,-15.21
18456,-9.53
18468,-4.4
18480,-0.21
18492,2.89
18504,4.94
18516,6.1
18528,6.57
18540,6.62
18552,6.55
18564,6.64
18576,7.06
18588,7.83
18600,8.83
18611,9.85
18622,10.68
18634,11.21
18646,11.47
18658,11.57
18670,11.64
18682,11.81
18694,12.1
18706,12.43
18718,12.68
18730,12.68
18742,12.35
18754,11.65
18766,10.69
18778,9.63
18790,8.64
18801,7.83
18812,7.2
18824,6.66
18836,6.06
18848,5.31
18860,4.38
18872,3.37
18884,2.4
18896,1.62
18908,1.1
18920,0.87
18932,0.85
18944,0.93
18956,0.98
18968,0.85
18980,0.44
18991,-0.26
19002,-1.2
19014,-2.25
19026,-3.21
19038,-3.99
19050,-4.53
19062,-4.94
19074,-5.41
19086,-6.12
19098,-7.17
19110,-8.55
19122,-10.12
19134,-11.68
19146,-13.1
19158,-14.29
19170,-15.3
19181,-16.26
19192,-17.34
19204,-18.7
19216,-20.43
19228,-22.46
19240,-24.53
19252,-26.18
19264,-26.85
19276,-26.11
19288,-23.75
19300,-19.94
19312,-15.1
19324,-9.85
19336,-4.77
19348,-0.33
19360,3.18
19371,5.68
19382,7.22
19394,7.99
19406,8.25
19418,8.22
19430,8.07
19442,7.85
19454,7.59
19466,7.36
19478,7.26
19490,7.46
19502,8.03
19514,8.91
19526,9.92
19538,10.83
19550,11.53
19561,11.98
19572,12.29
19584,12.52
19596,12.7
19608,12.75
19620,12.56
19632,12.05
19644,11.22
19656,10.17
19668,9.03
19680,7.92
19692,6.95
19704,6.15
19716,5.49
19728,4.85
19740,4.1
19751,3.15
19762,1.98
19774,0.68
19786,-0.59
19798,-1.68
19810,-2.51
19822,-3.1
19834,-3.57
19846,-4.06
19858,-4.7
19870,-5.55
19882,-6.58
19894,-7.77
19906,-9.07
19918,-10.41
19930,-11.72
19941,-12.94
19952,-14.01
19964,-14.92
19976,-15.78
19988,-16.83
20000,-18.29
20012,-20.27
20024,-22.61
20036,-24.83
20048,-26.24
20060,-26.18
20072,-24.29
20084,-20.71
20096,-16.0
20108,-10.96
20120,-6.31
20131,-2.52
20142,0.3
20154,2.26
20166,3.54
20178,4.33
20190,4.79
20202,5.07
20214,5.38
20226,5.91
20238,6.73
20250,7.79
20262,8.88
20274,9.78
20286,10.32
20298,10.54
20310,10.59
20321,10.71
20332,11.06
20344,11.71
20356,12.57
20368,13.47
20380,14.23
20392,14.67
20404,14.74
20416,14.44
20428,13.86
20440,13.13
20452,12.39
20464,11.77
20476,11.28
20488,10.89
20500,10.47
20511,9.89
20522,9.12
20534,8.2
20546,7.28
20558,6.49
20570,5.9
20582,5.48
20594,5.12
20606,4.74
20618,4.29
20630,3.76
20642,3.17
20654,2.48
20666,1.65
20678,0.65
20690,-0.48
20701,-1.62
20712,-2.61
20724,-3.36
20736,-3.92
20748,-4.48
20760,-5.33
20772,-6.66
20784,-8.51
20796,-10.69
20808,-12.9
20820,-14.86
20832,-16.41
20844,-17.59
20856,-18.58
20868,-19.62
20880,-20.95
20891,-22.7
20902,-24.88
20914,-27.25
20926,-29.39
20938,-30.77
20950,-30.84
20962,-29.25
20974,-25.96
20986,-21.32
20998,-15.91
