seconds,BVP
2,-158.68
14,-135.23
26,-119.96
38,-110.27
50,-103.25
62,-97.33
74,-92.32
86,-88.46
98,-85.2
109,-80.81
120,-72.98
132,-59.87
144,-41.01
156,-17.43
168,8.82
180,35.58
192,61.21
204,84.86
216,106.17
228,124.78
240,139.99
252,150.68
264,155.71
276,154.4
288,147.0
299,134.82
310,120.0
322,105.0
334,91.94
346,82.17
358,75.99
370,72.68
382,70.92
394,69.23
406,66.42
418,61.92
430,55.79
442,48.52
454,40.76
466,32.96
478,25.31
489,17.7
500,10.03
512,2.34
524,-5.13
536,-11.94
548,-17.72
560,-22.25
572,-25.52
584,-27.66
596,-28.79
608,-28.94
620,-28.13
632,-26.36
644,-23.75
656,-20.46
668,-16.68
679,-12.6
690,-8.4
702,-4.33
714,-0.64
726,2.49
738,4.99
750,7.04
762,8.91
774,10.88
786,13.04
798,15.32
810,17.44
822,19.05
834,19.83
846,19.57
858,18.32
869,16.44
880,14.62
892,13.76
904,14.73
916,18.02
928,23.54
940,30.64
952,38.26
964,45.31
976,50.85
988,54.26
1000,55.19
1012,53.52
1024,49.46
1036,43.68
1048,37.4
1059,32.36
1070,30.34
1082,32.66
1094,39.67
1106,50.54
1118,63.55
1130,76.69
1142,88.27
1154,97.3
1166,103.32
1178,106.25
1190,105.98
1202,102.43
1214,95.73
1226,86.42
1238,75.46
1249,63.99
1260,52.91
1272,42.57
1284,32.77
1296,22.98
1308,12.78
1320,2.07
1332,-8.82
1344,-19.22
1356,-28.27
1368,-35.01
1380,-38.51
1392,-37.9
1404,-32.61
1416,-22.52
1428,-8.05
1439,9.75
1450,29.35
1462,49.0
1474,66.86
1486,81.38
1498,91.36
1510,96.13
1522,95.56
1534,90.01
1546,80.17
1558,66.79
1570,50.62
1582,32.32
1594,12.61
1606,-7.61
1618,-27.26
1629,-45.13
1640,-60.17
1652,-71.65
1664,-79.39
1676,-83.72
1688,-85.48
1700,-85.71
1712,-85.45
1724,-85.42
1736,-85.83
1748,-86.41
1760,-86.56
1772,-85.65
1784,-83.3
1796,-79.42
1808,-74.15
1819,-67.76
1830,-60.43
1842,-52.22
1854,-43.16
1866,-33.17
1878,-22.23
1890,-10.25
1902,2.7
1914,16.45
1926,30.61
1938,44.61
1950,57.91
1962,70.18
1974,81.46
1986,92.05
1998,102.24
2009,111.87
2020,119.94
2032,124.51
2044,122.9
2056,112.34
2068,90.91
2080,58.42
2092,16.9
2104,-29.67
2116,-76.29
2128,-118.18
2140,-151.93
2152,-175.96
2164,-190.42
2176,-196.54
2188,-196.04
2199,-190.69
2210,-182.02
2222,-171.14
2234,-158.57
2246,-144.28
2258,-127.94
2270,-109.55
2282,-90.01
2294,-71.23
2306,-55.68
2318,-45.43
2330,-41.22
2342,-42.17
2354,-46.14
2366,-50.5
2378,-52.68
2389,-50.39
2400,-41.56
2412,-24.35
2424,2.26
2436,37.68
2448,79.09
2460,121.52
2472,158.99
2484,186.23
2496,200.24
2508,201.16
2520,192.11
2532,177.91
2544,163.51
2556,152.49
2568,146.32
2579,144.42
2590,144.89
2602,145.55
2614,144.78
2626,141.87
2638,136.8
2650,129.84
2662,121.22
2674,111.12
2686,99.92
2698,88.4
2710,77.7
2722,68.96
2734,62.84
2746,59.23
2758,57.23
2769,55.37
2780,51.97
2792,45.41
2804,34.41
2816,18.35
2828,-2.46
2840,-26.51
2852,-51.35
2864,-73.98
2876,-91.73
2888,-102.87
2900,-106.87
2912,-104.25
2924,-96.11
2936,-83.69
2948,-68.13
2959,-50.39
2970,-31.28
2982,-11.38
2994,8.97
3006,29.53
3018,50.01
3030,69.75
3042,87.7
3054,102.67
3066,113.78
3078,120.94
3090,124.88
3102,126.9
3114,128.18
3126,129.3
3138,129.97
3149,129.17
3160,125.54
3172,117.76
3184,104.91
3196,86.73
3208,63.74
3220,37.26
3232,9.28
3244,-17.93
3256,-42.32
3268,-62.44
3280,-77.71
3292,-88.28
3304,-94.85
3316,-98.3
3328,-99.59
3339,-99.67
3350,-99.45
3362,-99.63
3374,-100.63
3386,-102.39
3398,-104.4
3410,-105.88
3422,-106.02
3434,-104.31
3446,-100.64
3458,-95.38
3470,-89.27
3482,-83.2
3494,-77.94
3506,-74.0
3518,-71.4
3529,-69.77
3540,-68.5
3552,-66.98
3564,-64.87
3576,-62.09
3588,-58.78
3600,-55.13
3612,-51.21
3624,-47.07
3636,-42.8
3648,-38.69
3660,-35.21
3672,-32.83
3684,-31.8
3696,-32.01
3708,-33.01
3719,-34.25
3730,-35.29
3742,-35.98
3754,-36.38
3766,-36.69
3778,-37.05
3790,-37.58
3802,-38.32
3814,-39.21
3826,-40.05
3838,-40.42
3850,-39.68
3862,-37.19
3874,-32.62
3886,-26.18
3898,-18.63
3909,-11.06
3920,-4.49
3932,0.47
3944,3.67
3956,5.29
3968,5.6
3980,4.8
3992,3.01
4004,0.41
4016,-2.62
4028,-5.55
4040,-7.81
4052,-9.07
4064,-9.31
4076,-8.86
4088,-8.24
4099,-7.93
4110,-8.26
4122,-9.27
4134,-10.79
4146,-12.54
4158,-14.24
4170,-15.68
4182,-16.78
4194,-17.61
4206,-18.33
4218,-19.16
4230,-20.24
4242,-21.56
4254,-22.93
4266,-24.09
4278,-24.83
4289,-25.11
4300,-25.1
4312,-25.06
4324,-25.26
4336,-25.86
4348,-26.86
4360,-28.1
4372,-29.29
4384,-30.02
4396,-29.81
4408,-28.23
4420,-24.99
4432,-20.17
4444,-14.18
4456,-7.77
4468,-1.78
4479,3.11
4490,6.55
4502,8.5
4514,9.22
4526,9.02
4538,8.15
4550,6.81
4562,5.14
4574,3.36
4586,1.78
4598,0.75
4610,0.56
4622,1.29
4634,2.83
4646,4.87
4658,7.03
4669,8.98
4680,10.46
4692,11.36
4704,11.64
4716,11.33
4728,10.51
4740,9.27
4752,7.69
4764,5.9
4776,3.95
4788,1.94
4800,-0.05
4812,-1.92
4824,-3.59
4836,-4.95
4848,-5.93
4859,-6.47
4870,-6.58
4882,-6.34
4894,-5.93
4906,-5.63
4918,-5.77
4930,-6.59
4942,-8.13
4954,-10.19
4966,-12.32
4978,-13.92
4990,-14.4
5002,-13.31
5014,-10.46
5026,-5.98
5038,-0.34
5049,5.78
5060,11.62
5072,16.5
5084,20.02
5096,22.03
5108,22.7
5120,22.36
5132,21.38
5144,20.1
5156,18.8
5168,17.69
5180,16.89
5192,16.44
5204,16.28
5216,16.27
5228,16.22
5239,15.95
5250,15.35
5262,14.43
5274,13.3
5286,12.12
5298,10.96
5310,9.79
5322,8.49
5334,6.89
5346,4.95
5358,2.8
5370,0.66
5382,-1.28
5394,-2.97
5406,-4.6
5418,-6.48
5429,-8.84
5440,-11.64
5452,-14.57
5464,-17.16
5476,-19.0
5488,-20.06
5500,-20.77
5512,-21.86
5524,-24.06
5536,-27.71
5548,-32.42
5560,-37.18
5572,-40.58
5584,-41.4
5596,-39.15
5608,-34.3
5619,-28.35
5630,-23.5
5642,-22.04
5654,-25.73
5666,-35.03
5678,-48.62
5690,-63.23
5702,-74.22
5714,-76.82
5726,-67.54
5738,-45.43
5750,-12.44
5762,27.11
5774,67.77
5786,104.37
5798,133.2
5809,152.55
5820,162.6
5832,164.63
5844,160.11
5856,149.92
5868,134.04
5880,112.08
5892,84.21
5904,52.07
5916,19.04
5928,-10.37
5940,-31.95
5952,-43.23
5964,-44.33
5976,-37.7
5988,-27.07
5999,-16.03
6010,-7.02
6022,-1.05
6034,1.87
6046,2.06
6058,-0.43
6070,-5.84
6082,-14.21
6094,-24.79
6106,-35.71
6118,-44.31
6130,-48.16
6142,-46.34
6154,-40.07
6166,-32.47
6178,-27.21
6189,-26.98
6200,-32.41
6212,-42.09
6224,-53.29
6236,-62.96
6248,-68.4
6260,-67.41
6272,-58.31
6284,-40.17
6296,-13.25
6308,20.6
6320,58.02
6332,94.86
6344,127.35
6356,153.19
6368,171.82
6379,183.97
6390,190.72
6402,192.58
6414,189.33
6426,180.32
6438,165.24
6450,144.48
6462,119.09
6474,90.3
6486,58.95
6498,25.33
6510,-10.59
6522,-48.57
6534,-87.39
6546,-124.66
6558,-157.17
6569,-181.77
6580,-196.36
6592,-200.63
6604,-195.96
6616,-184.89
6628,-170.04
6640,-153.36
6652,-135.7
6664,-117.06
6676,-97.2
6688,-76.16
6700,-54.45
6712,-32.76
6724,-11.62
6736,8.91
6748,29.02
6759,48.83
6770,67.99
6782,85.64
6794,100.73
6806,112.46
6818,120.65
6830,125.72
6842,128.58
6854,130.27
6866,131.89
6878,134.41
6890,138.58
6902,144.58
6914,151.71
6926,158.24
6938,161.7
6949,159.55
6960,150.1
6972,133.16
6984,110.15
6996,83.65
7008,56.6
7020,31.57
7032,10.52
7044,-5.26
7056,-15.16
7068,-19.53
7080,-19.85
7092,-18.69
7104,-19.07
7116,-23.42
7128,-32.75
7139,-46.49
7150,-63.21
7162,-81.75
7174,-101.9
7186,-124.28
7198,-149.37
7210,-176.34
7222,-202.73
7234,-225.04
7246,-240.29
7258,-247.22
7270,-246.82
7282,-241.65
7294,-234.59
7306,-227.62
7318,-221.42
7329,-215.57
7340,-209.23
7352,-201.84
7364,-193.41
7376,-184.42
7388,-175.38
7400,-166.47
7412,-157.47
7424,-147.87
7436,-137.21
7448,-125.32
7460,-112.44
7472,-98.97
7484,-85.15
7496,-70.83
7508,-55.56
7519,-38.81
7530,-20.43
7542,-0.76
7554,19.39
7566,39.12
7578,57.83
7590,75.36
7602,91.97
7614,107.96
7626,123.52
7638,138.5
7650,152.58
7662,165.33
7674,176.42
7686,185.6
7698,192.67
7709,197.32
7720,199.08
7732,197.41
7744,191.95
7756,182.84
7768,171.05
7780,158.38
7792,146.99
7804,138.83
7816,134.9
7828,135.0
7840,137.98
7852,142.28
7864,146.63
7876,150.31
7888,153.03
7899,154.54
7910,154.28
7922,151.35
7934,144.61
7946,133.1
7958,116.08
7970,93.15
7982,64.24
7994,29.82
8006,-8.83
8018,-49.33
8030,-88.45
8042,-122.77
8054,-149.64
8066,-168.03
8078,-178.72
8089,-183.77
8100,-185.44
8112,-185.16
8124,-183.0
8136,-177.93
8148,-168.63
8160,-154.43
8172,-135.94
8184,-114.9
8196,-93.72
8208,-74.64
8220,-59.08
8232,-47.52
8244,-39.68
8256,-34.98
8268,-32.83
8279,-32.77
8290,-34.35
8302,-37.04
8314,-40.16
8326,-42.93
8338,-44.57
8350,-44.29
8362,-41.18
8374,-34.28
8386,-22.8
8398,-6.44
8410,14.23
8422,37.72
8434,61.9
8446,84.59
8458,104.08
8469,119.45
8480,130.59
8492,137.93
8504,142.17
8516,144.15
8528,144.85
8540,145.32
8552,146.58
8564,149.41
8576,154.13
8588,160.42
8600,167.28
8612,173.11
8624,175.92
8636,173.76
8648,165.39
8659,150.78
8670,131.33
8682,109.58
8694,88.33
8706,69.75
8718,54.75
8730,42.9
8742,33.03
8754,23.89
8766,14.7
8778,5.21
8790,-4.51
8802,-14.39
8814,-24.31
8826,-34.06
8838,-43.04
8849,-50.38
8860,-55.24
8872,-57.16
8884,-56.28
8896,-53.16
8908,-48.47
8920,-42.59
8932,-35.53
8944,-27.0
8956,-16.79
8968,-5.02
8980,7.61
8992,19.96
9004,30.61
9016,38.23
9028,41.83
9039,40.95
9050,35.66
9062,26.46
9074,14.08
9086,-0.55
9098,-16.38
9110,-32.2
9122,-46.74
9134,-58.77
9146,-67.46
9158,-72.63
9170,-74.81
9182,-75.02
9194,-74.34
9206,-73.55
9218,-72.92
9229,-72.39
9240,-71.82
9252,-71.27
9264,-70.95
9276,-71.03
9288,-71.4
9300,-71.65
9312,-71.22
9324,-69.86
9336,-67.87
9348,-66.05
9360,-65.37
9372,-66.39
9384,-68.9
9396,-71.94
9408,-74.13
9419,-74.21
9430,-71.43
9442,-65.72
9454,-57.57
9466,-47.75
9478,-37.09
9490,-26.37
9502,-16.3
9514,-7.57
9526,-0.73
9538,3.83
9550,6.08
9562,6.35
9574,5.3
9586,3.75
9598,2.39
9609,1.62
9620,1.49
9632,1.81
9644,2.31
9656,2.84
9668,3.44
9680,4.23
9692,5.26
9704,6.43
9716,7.49
9728,8.09
9740,8.0
9752,7.2
9764,5.84
9776,4.19
9788,2.48
9799,0.79
9810,-0.98
9822,-3.05
9834,-5.69
9846,-9.05
9858,-13.06
9870,-17.36
9882,-21.25
9894,-23.85
9906,-24.31
9918,-22.09
9930,-17.14
9942,-9.99
9954,-1.59
9966,6.89
9978,14.41
9989,20.24
10000,24.09
10012,26.05
10024,26.45
10036,25.71
10048,24.21
10060,22.25
10072,20.07
10084,17.82
10096,15.7
10108,13.88
10120,12.52
10132,11.72
10144,11.46
10156,11.62
10168,12.02
10179,12.42
10190,12.6
10202,12.31
10214,11.35
10226,9.54
10238,6.82
10250,3.3
10262,-0.77
10274,-5.02
10286,-9.08
10298,-12.71
10310,-15.85
10322,-18.67
10334,-21.46
10346,-24.48
10358,-27.8
10369,-31.13
10380,-33.83
10392,-35.06
10404,-34.05
10416,-30.37
10428,-24.11
10440,-15.95
10452,-6.89
10464,1.98
10476,9.79
10488,15.98
10500,20.34
10512,22.88
10524,23.7
10536,23.03
10548,21.2
10559,18.66
10570,15.91
10582,13.37
10594,11.3
10606,9.79
10618,8.84
10630,8.38
10642,8.37
10654,8.76
10666,9.44
10678,10.21
10690,10.84
10702,11.09
10714,10.79
10726,9.84
10738,8.23
10749,5.99
10760,3.18
10772,-0.04
10784,-3.52
10796,-7.05
10808,-10.5
10820,-13.83
10832,-17.11
10844,-20.49
10856,-24.08
10868,-27.85
10880,-31.46
10892,-34.3
10904,-35.6
10916,-34.65
10928,-31.08
10939,-25.1
10950,-17.38
10962,-8.93
10974,-0.75
10986,6.42
10998,12.14
11010,16.23
11022,18.66
11034,19.48
11046,18.89
11058,17.31
11070,15.38
11082,13.9
11094,13.54
11106,14.68
11118,17.26
11129,20.85
11140,24.76
11152,28.3
11164,30.99
11176,32.71
11188,33.62
11200,34.1
11212,34.43
11224,34.72
11236,34.75
11248,34.08
11260,32.27
11272,29.03
11284,24.38
11296,18.56
11308,12.06
11319,5.41
11330,-0.81
11342,-6.1
11354,-10.19
11366,-13.13
11378,-15.46
11390,-18.03
11402,-21.7
11414,-26.93
11426,-33.41
11438,-40.09
11450,-45.44
11462,-48.05
11474,-47.1
11486,-42.61
11498,-35.37
11509,-26.57
11520,-17.4
11532,-8.8
11544,-1.41
11556,4.41
11568,8.42
11580,10.58
11592,11.06
11604,10.41
11616,9.36
11628,8.71
11640,8.98
11652,10.21
11664,11.94
11676,13.4
11688,13.87
11699,12.93
11710,10.68
11722,7.55
11734,4.23
11746,1.28
11758,-0.94
11770,-2.32
11782,-2.99
11794,-3.2
11806,-3.22
11818,-3.26
11830,-3.44
11842,-3.83
11854,-4.41
11866,-5.1
11878,-5.84
11889,-6.61
11900,-7.49
11912,-8.61
11924,-10.11
11936,-12.07
11948,-14.35
11960,-16.64
11972,-18.47
11984,-19.28
11996,-18.63
12008,-16.28
12020,-12.21
12032,-6.68
12044,-0.16
12056,6.8
12068,13.63
12079,19.85
12090,25.1
12102,29.14
12114,31.83
12126,33.04
12138,32.73
12150,30.94
12162,27.9
12174,24.03
12186,19.82
12198,15.71
12210,11.95
12222,8.57
12234,5.41
12246,2.37
12258,-0.51
12269,-2.99
12280,-4.79
12292,-5.73
12304,-5.91
12316,-5.66
12328,-5.49
12340,-5.88
12352,-7.13
12364,-9.28
12376,-12.14
12388,-15.38
12400,-18.59
12412,-21.44
12424,-23.7
12436,-25.3
12448,-26.3
12459,-26.91
12470,-27.41
12482,-28.15
12494,-29.37
12506,-31.06
12518,-32.89
12530,-34.25
12542,-34.36
12554,-32.55
12566,-28.58
12578,-22.67
12590,-15.48
12602,-7.85
12614,-0.55
12626,5.91
12638,11.29
12649,15.48
12660,18.48
12672,20.28
12684,21.02
12696,21.01
12708,20.75
12720,20.79
12732,21.52
12744,23.07
12756,25.28
12768,27.87
12780,30.59
12792,33.37
12804,36.22
12816,39.14
12828,41.94
12839,44.19
12850,45.36
12862,44.88
12874,42.42
12886,37.94
12898,31.74
12910,24.37
12922,16.55
12934,8.97
12946,2.12
12958,-3.78
12970,-8.79
12982,-13.23
12994,-17.48
13006,-21.84
13018,-26.46
13029,-31.19
13040,-35.58
13052,-38.96
13064,-40.57
13076,-39.78
13088,-36.32
13100,-30.38
13112,-22.6
13124,-13.88
13136,-5.17
13148,2.72
13160,9.21
13172,13.97
13184,16.94
13196,18.27
13208,18.27
13219,17.38
13230,16.09
13242,14.86
13254,13.97
13266,13.61
13278,13.85
13290,14.66
13302,15.99
13314,17.73
13326,19.74
13338,21.8
13350,23.63
13362,24.93
13374,25.43
13386,24.92
13398,23.31
13409,20.64
13420,17.1
13432,12.97
13444,8.61
13456,4.36
13468,0.5
13480,-2.8
13492,-5.53
13504,-7.73
13516,-9.59
13528,-11.31
13540,-13.03
13552,-14.7
13564,-15.97
13576,-16.21
13588,-14.64
13599,-10.66
13610,-4.02
13622,4.95
13634,15.46
13646,26.44
13658,36.91
13670,46.02
13682,53.18
13694,58.01
13706,60.29
13718,60.09
13730,57.8
13742,54.14
13754,49.92
13766,45.78
13778,41.93
13789,38.08
13800,33.68
13812,28.11
13824,21.01
13836,12.27
13848,2.15
13860,-8.8
13872,-19.8
13884,-29.86
13896,-38.03
13908,-43.59
13920,-46.34
13932,-46.69
13944,-45.55
13956,-43.96
13968,-42.73
13979,-42.15
13990,-41.92
14002,-41.38
14014,-39.8
14026,-36.65
14038,-31.74
14050,-25.1
14062,-16.89
14074,-7.31
14086,3.39
14098,14.82
14110,26.38
14122,37.32
14134,46.94
14146,54.82
14158,60.83
14169,65.08
14180,67.66
14192,68.47
14204,67.23
14216,63.66
14228,57.66
14240,49.44
14252,39.42
14264,28.19
14276,16.39
14288,4.71
14300,-6.09
14312,-15.25
14324,-22.18
14336,-26.72
14348,-29.16
14359,-30.17
14370,-30.46
14382,-30.47
14394,-30.27
14406,-29.63
14418,-28.34
14430,-26.48
14442,-24.53
14454,-23.27
14466,-23.51
14478,-25.71
14490,-29.83
14502,-35.32
14514,-41.29
14526,-46.86
14538,-51.44
14549,-54.8
14560,-57.12
14572,-58.81
14584,-60.32
14596,-62.03
14608,-64.07
14620,-66.38
14632,-68.62
14644,-70.3
14656,-70.87
14668,-69.84
14680,-66.96
14692,-62.27
14704,-56.04
14716,-48.71
14728,-40.73
14739,-32.48
14750,-24.33
14762,-16.66
14774,-9.9
14786,-4.49
14798,-0.67
14810,1.6
14822,2.7
14834,3.23
14846,3.76
14858,4.67
14870,6.02
14882,7.66
14894,9.33
14906,10.83
14918,12.1
14929,13.16
14940,14.11
14952,14.98
14964,15.73
14976,16.22
14988,16.28
15000,15.76
15012,14.63
15024,12.96
15036,10.97
15048,8.92
15060,7.01
15072,5.27
15084,3.58
15096,1.67
15108,-0.71
15119,-3.7
15130,-7.19
15142,-10.89
15154,-14.3
15166,-16.9
15178,-18.19
15190,-17.85
15202,-15.79
15214,-12.19
15226,-7.49
15238,-2.26
15250,2.9
15262,7.49
15274,11.13
15286,13.61
15298,14.79
15309,14.57
15320,12.94
15332,9.96
15344,5.81
15356,0.82
15368,-4.57
15380,-9.86
15392,-14.65
15404,-18.72
15416,-22.12
15428,-25.2
15440,-28.44
15452,-32.37
15464,-37.44
15476,-43.93
15488,-52.13
15499,-62.32
15510,-74.74
15522,-89.24
15534,-104.92
15546,-119.92
15558,-131.78
15570,-138.13
15582,-137.66
15594,-130.58
15606,-118.59
15618,-104.16
15630,-89.66
15642,-76.75
15654,-66.22
15666,-58.29
15678,-52.93
15689,-49.93
15700,-48.62
15712,-47.66
15724,-45.11
15736,-38.91
15748,-27.69
15760,-11.42
15772,8.53
15784,29.87
15796,50.2
15808,67.81
15820,82.06
15832,93.22
15844,101.99
15856,109.02
15868,114.58
15879,118.66
15890,121.13
15902,121.99
15914,121.44
15926,119.86
15938,117.65
15950,115.1
15962,112.4
15974,109.58
15986,106.65
15998,103.59
16010,100.39
16022,97.06
16034,93.62
16046,90.06
16058,86.39
16069,82.56
16080,78.52
16092,74.29
16104,69.97
16116,65.75
16128,61.87
16140,58.56
16152,55.93
16164,53.98
16176,52.64
16188,51.79
16200,51.41
16212,51.51
16224,52.12
16236,53.18
16248,54.56
16259,56.08
16270,57.66
16282,59.36
16294,61.28
16306,63.41
16318,65.39
16330,66.54
16342,66.06
16354,63.44
16366,58.78
16378,52.88
16390,46.92
16402,41.97
16414,38.51
16426,36.25
16438,34.38
16449,32.05
16460,28.76
16472,24.57
16484,19.93
16496,15.42
16508,11.45
16520,8.15
16532,5.45
16544,3.24
16556,1.45
16568,0.03
16580,-1.09
16592,-2.06
16604,-3.12
16616,-4.42
16628,-5.98
16639,-7.68
16650,-9.44
16662,-11.3
16674,-13.6
16686,-16.75
16698,-21.07
16710,-26.53
16722,-32.64
16734,-38.64
16746,-43.7
16758,-47.24
16770,-49.07
16782,-49.36
16794,-48.46
16806,-46.78
16818,-44.68
16829,-42.43
16840,-40.23
16852,-38.22
16864,-36.5
16876,-35.03
16888,-33.67
16900,-32.2
16912,-30.39
16924,-28.11
16936,-25.42
16948,-22.56
16960,-19.87
16972,-17.63
16984,-15.98
16996,-14.88
17008,-14.18
17019,-13.75
17030,-13.5
17042,-13.48
17054,-13.78
17066,-14.49
17078,-15.67
17090,-17.31
17102,-19.3
17114,-21.4
17126,-23.27
17138,-24.6
17150,-25.23
17162,-25.35
17174,-25.42
17186,-26.05
17198,-27.61
17209,-30.08
17220,-32.95
17232,-35.41
17244,-36.66
17256,-36.18
17268,-33.83
17280,-29.89
17292,-24.82
17304,-19.18
17316,-13.46
17328,-8.07
17340,-3.33
17352,0.57
17364,3.53
17376,5.54
17388,6.66
17399,7.03
17410,6.83
17422,6.3
17434,5.71
17446,5.37
17458,5.49
17470,6.17
17482,7.31
17494,8.67
17506,9.9
17518,10.74
17530,11.08
17542,11.0
17554,10.66
17566,10.22
17578,9.68
17589,8.95
17600,7.87
17612,6.38
17624,4.57
17636,2.64
17648,0.79
17660,-0.8
17672,-2.12
17684,-3.26
17696,-4.37
17708,-5.6
17720,-7.09
17732,-8.95
17744,-11.22
17756,-13.86
17768,-16.68
17779,-19.33
17790,-21.34
17802,-22.24
17814,-21.67
17826,-19.47
17838,-15.77
17850,-10.91
17862,-5.42
17874,0.12
17886,5.09
17898,9.0
17910,11.52
17922,12.6
17934,12.42
17946,11.41
17958,10.1
17969,9.0
17980,8.47
17992,8.69
18004,9.63
18016,11.14
18028,12.96
18040,14.75
18052,16.22
18064,17.11
18076,17.32
18088,16.9
18100,15.98
18112,14.73
18124,13.27
18136,11.64
18148,9.82
18159,7.78
18170,5.53
18182,3.14
18194,0.76
18206,-1.46
18218,-3.41
18230,-5.1
18242,-6.58
18254,-8.02
18266,-9.58
18278,-11.41
18290,-13.55
18302,-15.9
18314,-18.21
18326,-20.14
18338,-21.31
18349,-21.36
18360,-20.1
18372,-17.49
18384,-13.69
18396,-9.09
18408,-4.2
18420,0.43
18432,4.33
18444,7.2
18456,8.95
18468,9.65
18480,9.48
18492,8.68
18504,7.52
18516,6.3
18528,5.33
18539,4.86
18550,5.0
18562,5.66
18574,6.57
18586,7.43
18598,8.02
18610,8.36
18622,8.63
18634,9.07
18646,9.78
18658,10.67
18670,11.41
18682,11.66
18694,11.18
18706,9.95
18718,8.11
18729,5.88
18740,3.48
18752,1.05
18764,-1.34
18776,-3.73
18788,-6.2
18800,-8.88
18812,-11.9
18824,-15.33
18836,-19.08
18848,-22.89
18860,-26.32
18872,-28.83
18884,-29.95
18896,-29.32
18908,-26.87
18919,-22.81
18930,-17.62
18942,-11.89
18954,-6.24
18966,-1.11
18978,3.24
18990,6.77
19002,9.49
19014,11.38
19026,12.37
19038,12.39
19050,11.53
19062,10.08
19074,8.51
19086,7.28
19098,6.7
19109,6.74
19120,7.14
19132,7.57
19144,7.77
19156,7.67
19168,7.31
19180,6.83
19192,6.23
19204,5.47
19216,4.4
19228,2.93
19240,1.04
19252,-1.18
19264,-3.59
19276,-6.03
19288,-8.37
19299,-10.53
19310,-12.5
19322,-14.27
19334,-15.9
19346,-17.45
19358,-19.06
19370,-20.85
19382,-22.92
19394,-25.24
19406,-27.56
19418,-29.41
19430,-30.17
19442,-29.31
19454,-26.59
19466,-22.14
19478,-16.5
19489,-10.35
19500,-4.33
19512,1.14
19524,5.86
19536,9.76
19548,12.75
19560,14.68
19572,15.44
19584,15.06
19596,13.86
19608,12.32
19620,11.01
19632,10.35
19644,10.47
19656,11.23
19668,12.32
19679,13.41
19690,14.28
19702,14.88
19714,15.2
19726,15.3
19738,15.15
19750,14.68
19762,13.77
19774,12.33
19786,10.32
19798,7.82
19810,4.98
19822,1.98
19834,-1.0
19846,-3.84
19858,-6.51
19869,-9.0
19880,-11.33
19892,-13.52
19904,-15.58
19916,-17.6
19928,-19.69
19940,-22.03
19952,-24.7
19964,-27.52
19976,-30.01
19988,-31.43
20000,-31.08
20012,-28.54
20024,-23.94
20036,-17.9
20048,-11.33
20059,-5.04
20070,0.46
20082,5.04
20094,8.82
20106,11.86
20118,14.09
20130,15.26
20142,15.2
20154,13.99
20166,12.01
20178,9.94
20190,8.41
20202,7.85
20214,8.32
20226,9.53
20238,11.02
20249,12.4
20260,13.43
20272,14.12
20284,14.58
20296,14.95
20308,15.23
20320,15.3
20332,14.92
20344,13.89
20356,12.1
20368,9.6
20380,6.56
20392,3.3
20404,0.13
20416,-2.68
20428,-5.02
20439,-6.88
20450,-8.42
20462,-9.86
20474,-11.45
20486,-13.38
20498,-15.7
20510,-18.31
20522,-20.88
20534,-22.92
20546,-23.84
20558,-23.1
20570,-20.34
20582,-15.59
20594,-9.29
20606,-2.18
20618,4.83
20629,10.97
20640,15.72
20652,18.92
20664,20.62
20676,21.02
20688,20.38
20700,18.94
20712,16.98
20724,14.84
20736,12.88
20748,11.4
20760,10.61
20772,10.55
20784,11.06
20796,11.91
20808,12.8
20819,13.5
20830,13.85
20842,13.82
20854,13.41
20866,12.63
20878,11.51
20890,10.0
20902,8.12
20914,5.97
20926,3.72
20938,1.6
20950,-0.19
20962,-1.64
20974,-2.95
20986,-4.44
20998,-6.45
