seconds,BVP
4,-54.39
16,-49.26
28,-40.77
40,-29.97
51,-18.31
62,-7.1
74,2.74
86,10.81
98,17.18
110,22.07
122,25.73
134,28.29
146,29.85
158,30.5
170,30.46
182,30.06
194,29.7
206,29.68
218,30.13
230,30.99
241,32.1
252,33.26
264,34.33
276,35.22
288,35.87
300,36.14
312,35.83
324,34.74
336,32.74
348,29.94
360,26.58
372,23.07
384,19.71
396,16.7
408,13.99
420,11.32
431,8.37
442,4.87
454,0.73
466,-3.91
478,-8.73
490,-13.32
502,-17.41
514,-20.97
526,-24.24
538,-27.74
550,-32.04
562,-37.59
574,-44.48
586,-52.26
598,-59.98
610,-66.28
621,-69.72
632,-69.23
644,-64.42
656,-55.73
668,-44.32
680,-31.71
692,-19.33
704,-8.2
716,1.23
728,8.94
740,15.13
752,20.02
764,23.73
776,26.31
788,27.85
800,28.56
811,28.79
822,28.92
834,29.26
846,29.94
858,30.87
870,31.84
882,32.59
894,33.01
906,33.16
918,33.21
930,33.33
942,33.49
954,33.47
966,32.88
978,31.4
990,28.93
1001,25.68
1012,22.1
1024,18.67
1036,15.68
1048,13.12
1060,10.69
1072,7.99
1084,4.67
1096,0.67
1108,-3.8
1120,-8.32
1132,-12.47
1144,-16.04
1156,-19.09
1168,-22.0
1180,-25.33
1191,-29.66
1202,-35.36
1214,-42.46
1226,-50.48
1238,-58.45
1250,-65.03
1262,-68.78
1274,-68.54
1286,-63.83
1298,-55.02
1310,-43.28
1322,-30.21
1334,-17.37
1346,-5.86
1358,3.89
1370,11.96
1381,18.67
1392,24.27
1404,28.8
1416,32.15
1428,34.2
1440,35.03
1452,34.9
1464,34.27
1476,33.66
1488,33.5
1500,34.07
1512,35.43
1524,37.38
1536,39.58
1548,41.6
1560,43.07
1571,43.79
1582,43.73
1594,42.9
1606,41.34
1618,38.99
1630,35.82
1642,31.97
1654,27.78
1666,23.73
1678,20.23
1690,17.42
1702,15.06
1714,12.66
1726,9.77
1738,6.16
1750,1.97
1761,-2.43
1772,-6.63
1784,-10.39
1796,-13.74
1808,-16.97
1820,-20.47
1832,-24.66
1844,-29.84
1856,-36.13
1868,-43.36
1880,-50.91
1892,-57.75
1904,-62.57
1916,-64.05
1928,-61.35
1940,-54.41
1951,-44.0
1962,-31.51
1974,-18.53
1986,-6.35
1998,4.18
2010,12.8
2022,19.53
2034,24.54
2046,27.96
2058,29.9
2070,30.55
2082,30.2
2094,29.33
2106,28.42
2118,27.87
2130,27.88
2141,28.38
2152,29.14
2164,29.89
2176,30.46
2188,30.84
2200,31.1
2212,31.27
2224,31.27
2236,30.92
2248,30.0
2260,28.45
2272,26.4
2284,24.12
2296,21.88
2308,19.81
2320,17.79
2331,15.54
2342,12.77
2354,9.3
2366,5.17
2378,0.64
2390,-3.97
2402,-8.37
2414,-12.41
2426,-16.13
2438,-19.78
2450,-23.78
2462,-28.54
2474,-34.39
2486,-41.3
2498,-48.72
2510,-55.61
2521,-60.54
2532,-62.12
2544,-59.42
2556,-52.32
2568,-41.63
2580,-28.85
2592,-15.71
2604,-3.68
2616,6.34
2628,14.15
2640,20.0
2652,24.32
2664,27.45
2676,29.6
2688,30.83
2700,31.31
2711,31.29
2722,31.19
2734,31.33
2746,31.92
2758,32.87
2770,33.89
2782,34.68
2794,35.04
2806,35.01
2818,34.78
2830,34.54
2842,34.34
2854,34.03
2866,33.26
2878,31.7
2890,29.2
2901,25.85
2912,21.98
2924,17.99
2936,14.26
2948,10.92
2960,7.91
2972,5.01
2984,1.86
2996,-1.75
3008,-5.9
3020,-10.42
3032,-14.97
3044,-19.2
3056,-22.89
3068,-26.06
3080,-29.02
3091,-32.23
3102,-36.22
3114,-41.4
3126,-47.89
3138,-55.4
3150,-63.14
3162,-69.82
3174,-73.88
3186,-73.91
3198,-69.11
3210,-59.71
3222,-46.95
3234,-32.73
3246,-18.95
3258,-7.0
3270,2.56
3281,9.9
3292,15.55
3304,20.02
3316,23.55
3328,26.14
3340,27.79
3352,28.61
3364,28.92
3376,29.13
3388,29.57
3400,30.35
3412,31.36
3424,32.39
3436,33.25
3448,33.9
3460,34.42
3471,34.92
3482,35.47
3494,35.93
3506,36.06
3518,35.53
3530,34.07
3542,31.61
3554,28.28
3566,24.45
3578,20.58
3590,17.12
3602,14.33
3614,12.17
3626,10.38
3638,8.5
3650,6.12
3661,2.99
3672,-0.84
3684,-5.11
3696,-9.49
3708,-13.69
3720,-17.61
3732,-21.35
3744,-25.17
3756,-29.43
3768,-34.49
3780,-40.61
3792,-47.74
3804,-55.45
3816,-62.74
3828,-68.21
3840,-70.35
3851,-68.06
3862,-61.08
3874,-50.19
3886,-37.0
3898,-23.42
3910,-11.07
3922,-0.85
3934,7.13
3946,13.23
3958,17.95
3970,21.59
3982,24.22
3994,25.85
4006,26.55
4018,26.62
4030,26.5
4041,26.58
4052,27.06
4064,27.91
4076,28.87
4088,29.72
4100,30.32
4112,30.76
4124,31.17
4136,31.7
4148,32.32
4160,32.76
4172,32.69
4184,31.74
4196,29.81
4208,27.03
4220,23.78
4231,20.52
4242,17.57
4254,14.98
4266,12.53
4278,9.84
4290,6.59
4302,2.69
4314,-1.71
4326,-6.22
4338,-10.46
4350,-14.19
4362,-17.46
4374,-20.49
4386,-23.69
4398,-27.47
4410,-32.19
4421,-37.95
4432,-44.51
4444,-51.09
4456,-56.45
4468,-59.19
4480,-58.09
4492,-52.68
4504,-43.36
4516,-31.4
4528,-18.46
4540,-6.13
4552,4.51
4564,13.02
4576,19.46
4588,24.15
4600,27.38
4611,29.34
4622,30.15
4634,29.93
4646,28.94
4658,27.5
4670,26.02
4682,24.86
4694,24.23
4706,24.2
4718,24.67
4730,25.4
4742,26.18
4754,26.77
4766,27.01
4778,26.73
4790,25.8
4801,24.1
4812,21.57
4824,18.29
4836,14.5
4848,10.53
4860,6.76
4872,3.4
4884,0.47
4896,-2.25
4908,-5.08
4920,-8.3
4932,-12.0
4944,-16.02
4956,-20.03
4968,-23.75
4980,-27.09
4991,-30.22
5002,-33.6
5014,-37.75
5026,-43.12
5038,-49.77
5050,-57.25
5062,-64.47
5074,-69.96
5086,-72.16
5098,-69.97
5110,-63.13
5122,-52.41
5134,-39.36
5146,-25.82
5158,-13.34
5170,-2.82
5181,5.6
5192,12.2
5204,17.4
5216,21.49
5228,24.53
5240,26.51
5252,27.48
5264,27.63
5276,27.31
5288,26.9
5300,26.69
5312,26.77
5324,27.12
5336,27.56
5348,27.96
5360,28.27
5371,28.51
5382,28.76
5394,29.05
5406,29.24
5418,29.04
5430,28.12
5442,26.2
5454,23.27
5466,19.58
5478,15.64
5490,11.98
5502,8.99
5514,6.65
5526,4.63
5538,2.35
5550,-0.73
5561,-4.82
5572,-9.71
5584,-14.91
5596,-19.79
5608,-23.93
5620,-27.32
5632,-30.29
5644,-33.46
5656,-37.46
5668,-42.79
5680,-49.58
5692,-57.47
5704,-65.55
5716,-72.43
5728,-76.5
5740,-76.41
5751,-71.44
5762,-61.92
5774,-49.08
5786,-34.73
5798,-20.69
5810,-8.24
5822,2.09
5834,10.43
5846,17.16
5858,22.62
5870,26.91
5882,29.97
5894,31.78
5906,32.54
5918,32.69
5930,32.75
5941,33.11
5952,33.93
5964,35.08
5976,36.26
5988,37.19
6000,37.71
6012,37.88
6024,37.83
6036,37.72
6048,37.57
6060,37.25
6072,36.48
6084,34.94
6096,32.43
6108,29.03
6120,25.06
6131,21.04
6142,17.41
6154,14.37
6166,11.81
6178,9.3
6190,6.42
6202,2.88
6214,-1.32
6226,-5.89
6238,-10.42
6250,-14.57
6262,-18.25
6274,-21.62
6286,-25.06
6298,-29.02
6310,-33.91
6321,-39.96
6332,-47.06
6344,-54.68
6356,-61.86
6368,-67.23
6380,-69.41
6392,-67.31
6404,-60.62
6416,-49.93
6428,-36.66
6440,-22.58
6452,-9.36
6464,1.96
6476,11.04
6488,18.04
6500,23.32
6511,27.2
6522,29.76
6534,31.05
6546,31.24
6558,30.7
6570,29.97
6582,29.56
6594,29.79
6606,30.7
6618,32.03
6630,33.44
6642,34.67
6654,35.54
6666,36.01
6678,36.08
6690,35.71
6701,34.81
6712,33.27
6724,31.02
6736,28.07
6748,24.54
6760,20.59
6772,16.36
6784,11.97
6796,7.48
6808,2.9
6820,-1.77
6832,-6.5
6844,-11.2
6856,-15.71
6868,-19.89
6880,-23.63
6891,-27.01
6902,-30.29
6914,-33.96
6926,-38.55
6938,-44.44
6950,-51.59
6962,-59.37
6974,-66.55
6986,-71.49
6998,-72.67
7010,-69.15
7022,-60.93
7034,-49.0
7046,-35.02
7058,-20.78
7070,-7.74
7081,3.34
7092,12.31
7104,19.41
7116,24.94
7128,29.05
7140,31.76
7152,33.08
7164,33.22
7176,32.61
7188,31.85
7200,31.48
7212,31.76
7224,32.67
7236,33.89
7248,35.04
7260,35.84
7271,36.23
7282,36.32
7294,36.24
7306,36.04
7318,35.57
7330,34.55
7342,32.67
7354,29.8
7366,26.09
7378,21.95
7390,17.9
7402,14.37
7414,11.47
7426,9.01
7438,6.57
7450,3.67
7461,0.08
7472,-4.19
7484,-8.86
7496,-13.53
7508,-17.93
7520,-22.0
7532,-25.9
7544,-30.02
7556,-34.81
7568,-40.64
7580,-47.69
7592,-55.74
7604,-64.05
7616,-71.41
7628,-76.32
7640,-77.35
7651,-73.66
7662,-65.25
7674,-53.08
7686,-38.74
7698,-24.01
7710,-10.33
7722,1.46
7734,11.19
7746,19.11
7758,25.59
7770,30.85
7782,34.92
7794,37.73
7806,39.27
7818,39.71
7830,39.46
7841,38.97
7852,38.63
7864,38.57
7876,38.7
7888,38.77
7900,38.59
7912,38.13
7924,37.54
7936,37.01
7948,36.61
7960,36.21
7972,35.49
7984,34.08
7996,31.73
8008,28.47
8020,24.56
8031,20.43
8042,16.53
8054,13.09
8066,10.07
8078,7.21
8090,4.09
8102,0.36
8114,-4.07
8126,-8.99
8138,-13.99
8150,-18.59
8162,-22.5
8174,-25.76
8186,-28.72
8198,-31.95
8210,-36.05
8221,-41.51
8232,-48.49
8244,-56.7
8256,-65.28
8268,-72.81
8280,-77.65
8292,-78.32
8304,-74.03
8316,-65.01
8328,-52.43
8340,-38.09
8352,-23.79
8364,-10.89
8376,-0.07
8388,8.62
8400,15.41
8411,20.61
8422,24.44
8434,27.07
8446,28.65
8458,29.43
8470,29.71
8482,29.82
8494,30.0
8506,30.35
8518,30.85
8530,31.41
8542,31.94
8554,32.44
8566,32.93
8578,33.44
8590,33.83
8601,33.88
8612,33.27
8624,31.77
8636,29.35
8648,26.23
8660,22.78
8672,19.38
8684,16.21
8696,13.23
8708,10.15
8720,6.72
8732,2.78
8744,-1.55
8756,-5.97
8768,-10.13
8780,-13.79
8791,-17.01
8802,-20.09
8814,-23.54
8826,-27.83
8838,-33.33
8850,-40.02
8862,-47.47
8874,-54.72
8886,-60.47
8898,-63.32
8910,-62.12
8922,-56.47
8934,-46.78
8946,-34.28
8958,-20.67
8970,-7.58
8981,3.79
8992,12.9
9004,19.78
9016,24.78
9028,28.26
9040,30.47
9052,31.54
9064,31.59
9076,30.89
9088,29.86
9100,29.0
9112,28.67
9124,28.99
9136,29.79
9148,30.78
9160,31.69
9171,32.41
9182,32.96
9194,33.35
9206,33.5
9218,33.09
9230,31.78
9242,29.33
9254,25.82
9266,21.64
9278,17.34
9290,13.37
9302,9.91
9314,6.83
9326,3.79
9338,0.46
9350,-3.3
9361,-7.43
9372,-11.69
9384,-15.83
9396,-19.72
9408,-23.34
9420,-26.85
9432,-30.59
9444,-34.97
9456,-40.46
9468,-47.28
9480,-55.26
9492,-63.55
9504,-70.7
9516,-74.95
9528,-74.78
9540,-69.44
9551,-59.32
9562,-45.83
9574,-31.0
9586,-16.77
9598,-4.47
9610,5.42
9622,13.12
9634,19.21
9646,24.18
9658,28.22
9670,31.32
9682,33.42
9694,34.57
9706,35.06
9718,35.23
9730,35.37
9741,35.56
9752,35.69
9764,35.61
9776,35.31
9788,34.92
9800,34.7
9812,34.86
9824,35.33
9836,35.83
9848,35.87
9860,34.94
9872,32.75
9884,29.34
9896,25.1
9908,20.63
9920,16.51
9931,13.07
9942,10.24
9954,7.65
9966,4.7
9978,0.98
9990,-3.65
10002,-8.93
10014,-14.31
10026,-19.24
10038,-23.41
10050,-26.84
10062,-29.92
10074,-33.22
10086,-37.34
10098,-42.72
10110,-49.53
10121,-57.5
10132,-65.77
10144,-72.98
10156,-77.41
10168,-77.54
10180,-72.53
10192,-62.61
10204,-49.08
10216,-33.86
10228,-18.95
10240,-5.75
10252,5.12
10264,13.77
10276,20.63
10288,26.14
10300,30.5
10311,33.7
10322,35.74
10334,36.77
10346,37.15
10358,37.32
10370,37.66
10382,38.31
10394,39.17
10406,40.01
10418,40.61
10430,40.91
10442,41.04
10454,41.16
10466,41.37
10478,41.57
10490,41.48
10501,40.72
10512,39.0
10524,36.2
10536,32.47
10548,28.18
10560,23.83
10572,19.87
10584,16.54
10596,13.8
10608,11.33
10620,8.66
10632,5.39
10644,1.36
10656,-3.29
10668,-8.19
10680,-12.92
10691,-17.17
10702,-20.93
10714,-24.44
10726,-28.12
10738,-32.43
10750,-37.76
10762,-44.32
10774,-51.97
10786,-60.15
10798,-67.83
10810,-73.54
10822,-75.75
10834,-73.34
10846,-65.99
10858,-54.47
10870,-40.37
10881,-25.63
10892,-11.96
10904,-0.39
10916,8.82
10928,15.97
10940,21.54
10952,25.9
10964,29.17
10976,31.31
10988,32.3
11000,32.28
11012,31.61
11024,30.76
11036,30.17
11048,30.06
11060,30.43
11071,31.11
11082,31.84
11094,32.43
11106,32.72
11118,32.65
11130,32.14
11142,31.09
11154,29.42
11166,27.13
11178,24.31
11190,21.15
11202,17.84
11214,14.5
11226,11.12
11238,7.55
11250,3.58
11261,-0.89
11272,-5.78
11284,-10.8
11296,-15.59
11308,-19.83
11320,-23.47
11332,-26.74
11344,-30.14
11356,-34.29
11368,-39.65
11380,-46.32
11392,-53.88
11404,-61.33
11416,-67.25
11428,-70.08
11440,-68.58
11451,-62.31
11462,-51.79
11474,-38.44
11486,-24.13
11498,-10.63
11510,0.89
11522,10.04
11534,17.02
11546,22.33
11558,26.35
11570,29.27
11582,31.1
11594,31.81
11606,31.6
11618,30.8
11630,29.88
11641,29.22
11652,28.96
11664,29.01
11676,29.16
11688,29.22
11700,29.12
11712,28.97
11724,28.89
11736,28.92
11748,28.88
11760,28.42
11772,27.14
11784,24.82
11796,21.58
11808,17.79
11820,13.97
11831,10.5
11842,7.46
11854,4.55
11866,1.28
11878,-2.73
11890,-7.59
11902,-12.98
11914,-18.32
11926,-23.03
11938,-26.84
11950,-29.88
11962,-32.69
11974,-35.97
11986,-40.39
11998,-46.35
12010,-53.84
12021,-62.33
12032,-70.71
12044,-77.41
12056,-80.72
12068,-79.25
12080,-72.43
12092,-60.82
12104,-45.95
12116,-29.95
12128,-14.78
12140,-1.8
12152,8.54
12164,16.49
12176,22.61
12188,27.38
12200,31.06
12211,33.7
12222,35.37
12234,36.24
12246,36.63
12258,36.9
12270,37.24
12282,37.64
12294,37.97
12306,38.06
12318,37.9
12330,37.62
12342,37.42
12354,37.35
12366,37.3
12378,36.95
12390,35.94
12401,33.97
12412,30.99
12424,27.19
12436,22.94
12448,18.73
12460,14.94
12472,11.76
12484,9.07
12496,6.49
12508,3.5
12520,-0.3
12532,-5.03
12544,-10.39
12556,-15.83
12568,-20.76
12580,-24.83
12591,-28.14
12602,-31.17
12614,-34.6
12626,-39.08
12638,-45.0
12650,-52.31
12662,-60.46
12674,-68.39
12686,-74.69
12698,-77.83
12710,-76.61
12722,-70.52
12734,-60.0
12746,-46.34
12758,-31.36
12770,-16.86
12781,-4.17
12792,6.12
12804,14.08
12816,20.16
12828,24.85
12840,28.5
12852,31.24
12864,33.1
12876,34.14
12888,34.54
12900,34.6
12912,34.57
12924,34.64
12936,34.79
12948,34.93
12960,34.94
12971,34.84
12982,34.77
12994,34.96
13006,35.49
13018,36.2
13030,36.64
13042,36.24
13054,34.51
13066,31.35
13078,27.05
13090,22.25
13102,17.68
13114,13.83
13126,10.78
13138,8.26
13150,5.75
13161,2.76
13172,-0.95
13184,-5.33
13196,-10.05
13208,-14.67
13220,-18.82
13232,-22.41
13244,-25.63
13256,-28.94
13268,-32.89
13280,-37.95
13292,-44.28
13304,-51.61
13316,-59.14
13328,-65.66
13340,-69.73
13351,-70.02
13362,-65.79
13374,-57.09
13386,-44.84
13398,-30.61
13410,-16.14
13422,-2.9
13434,8.23
13446,16.95
13458,23.4
13470,27.9
13482,30.75
13494,32.25
13506,32.64
13518,32.26
13530,31.45
13541,30.6
13552,29.97
13564,29.72
13576,29.8
13588,30.09
13600,30.4
13612,30.58
13624,30.53
13636,30.24
13648,29.7
13660,28.86
13672,27.67
13684,26.05
13696,23.94
13708,21.39
13720,18.47
13731,15.29
13742,11.89
13754,8.29
13766,4.46
13778,0.46
13790,-3.59
13802,-7.55
13814,-11.31
13826,-14.87
13838,-18.37
13850,-22.01
13862,-26.01
13874,-30.62
13886,-35.98
13898,-42.08
13910,-48.63
13921,-54.85
13932,-59.51
13944,-61.17
13956,-58.72
13968,-51.76
13980,-40.89
13992,-27.63
14004,-13.79
14016,-1.03
14028,9.72
14040,18.24
14052,24.8
14064,29.76
14076,33.31
14088,35.47
14100,36.23
14111,35.79
14122,34.61
14134,33.33
14146,32.52
14158,32.4
14170,32.85
14182,33.45
14194,33.82
14206,33.74
14218,33.27
14230,32.62
14242,31.94
14254,31.13
14266,29.94
14278,28.05
14290,25.29
14301,21.76
14312,17.79
14324,13.84
14336,10.29
14348,7.27
14360,4.66
14372,2.08
14384,-0.85
14396,-4.47
14408,-8.81
14420,-13.66
14432,-18.6
14444,-23.21
14456,-27.21
14468,-30.63
14480,-33.84
14491,-37.43
14502,-42.09
14514,-48.28
14526,-56.05
14538,-64.77
14550,-73.13
14562,-79.31
14574,-81.54
14586,-78.59
14598,-70.29
14610,-57.64
14622,-42.48
14634,-26.94
14646,-12.75
14658,-0.94
14670,8.31
14681,15.34
14692,20.71
14704,24.86
14716,27.99
14728,30.17
14740,31.45
14752,32.03
14764,32.21
14776,32.38
14788,32.77
14800,33.4
14812,34.06
14824,34.47
14836,34.44
14848,34.03
14860,33.48
14871,33.05
14882,32.83
14894,32.62
14906,32.03
14918,30.68
14930,28.36
14942,25.2
14954,21.55
14966,17.87
14978,14.49
14990,11.54
15002,8.85
15014,6.11
15026,2.99
15038,-0.68
15050,-4.82
15061,-9.1
15072,-13.04
15084,-16.29
15096,-18.75
15108,-20.7
15120,-22.71
15132,-25.48
15144,-29.57
15156,-35.19
15168,-42.05
15180,-49.32
15192,-55.7
15204,-59.62
15216,-59.64
15228,-54.9
15240,-45.42
15251,-32.17
15262,-16.84
15274,-1.28
15286,12.94
15298,24.96
15310,34.6
15322,42.17
15334,48.15
15346,52.88
15358,56.51
15370,59.03
15382,60.46
15394,60.95
15406,60.72
15418,59.99
15430,58.89
15441,57.37
15452,55.28
15464,52.54
15476,49.26
15488,45.76
15500,42.43
15512,39.56
15524,37.09
15536,34.63
15548,31.6
15560,27.45
15572,21.98
15584,15.4
15596,8.27
15608,1.3
15620,-4.92
15631,-10.13
15642,-14.41
15654,-18.13
15666,-21.71
15678,-25.45
15690,-29.33
15702,-33.1
15714,-36.36
15726,-38.8
15738,-40.44
15750,-41.6
15762,-42.89
15774,-44.95
15786,-48.26
15798,-52.99
15810,-58.91
15821,-65.35
15832,-71.26
15844,-75.26
15856,-75.95
15868,-72.3
15880,-64.03
15892,-51.79
15904,-37.12
15916,-21.93
15928,-7.97
15940,3.68
15952,12.67
15964,19.24
15976,23.84
15988,26.86
16000,28.55
16011,29.11
16022,28.83
16034,28.13
16046,27.45
16058,27.14
16070,27.34
16082,27.95
16094,28.75
16106,29.51
16118,30.09
16130,30.42
16142,30.48
16154,30.21
16166,29.5
16178,28.25
16190,26.38
16201,23.92
16212,21.01
16224,17.81
16236,14.48
16248,11.1
16260,7.71
16272,4.26
16284,0.72
16296,-2.93
16308,-6.7
16320,-10.56
16332,-14.42
16344,-18.22
16356,-21.88
16368,-25.4
16380,-28.93
16391,-32.78
16402,-37.43
16414,-43.24
16426,-50.28
16438,-57.94
16450,-64.96
16462,-69.62
16474,-70.3
16486,-66.03
16498,-56.89
16510,-44.06
16522,-29.38
16534,-14.78
16546,-1.69
16558,9.17
16570,17.73
16581,24.24
16592,28.97
16604,32.04
16616,33.5
16628,33.51
16640,32.4
16652,30.71
16664,29.01
16676,27.7
16688,26.91
16700,26.53
16712,26.3
16724,26.03
16736,25.66
16748,25.32
16760,25.15
16771,25.2
16782,25.35
16794,25.3
16806,24.64
16818,23.03
16830,20.33
16842,16.68
16854,12.49
16866,8.27
16878,4.44
16890,1.17
16902,-1.68
16914,-4.5
16926,-7.7
16938,-11.5
16950,-15.87
16961,-20.5
16972,-25.01
16984,-29.09
16996,-32.65
17008,-35.83
17020,-38.94
17032,-42.41
17044,-46.72
17056,-52.27
17068,-59.19
17080,-67.11
17092,-74.96
17104,-81.12
17116,-83.74
17128,-81.38
17140,-73.58
17151,-61.05
17162,-45.49
17174,-28.99
17186,-13.42
17198,0.05
17210,11.01
17222,19.6
17234,26.16
17246,30.98
17258,34.2
17270,35.92
17282,36.35
17294,35.91
17306,35.1
17318,34.44
17330,34.27
17341,34.62
17352,35.3
17364,36.0
17376,36.47
17388,36.65
17400,36.72
17412,36.88
17424,37.29
17436,37.82
17448,38.13
17460,37.73
17472,36.24
17484,33.55
17496,29.88
17508,25.69
17520,21.47
17531,17.6
17542,14.18
17554,11.08
17566,7.99
17578,4.54
17590,0.47
17602,-4.26
17614,-9.48
17626,-14.84
17638,-19.92
17650,-24.42
17662,-28.29
17674,-31.74
17686,-35.19
17698,-39.17
17710,-44.13
17721,-50.34
17732,-57.65
17744,-65.44
17756,-72.55
17768,-77.46
17780,-78.65
17792,-75.07
17804,-66.52
17816,-53.8
17828,-38.56
17840,-22.76
17852,-8.1
17864,4.3
17876,14.1
17888,21.51
17900,26.96
17911,30.9
17922,33.57
17934,35.14
17946,35.82
17958,35.89
17970,35.71
17982,35.62
17994,35.82
18006,36.29
18018,36.85
18030,37.27
18042,37.41
18054,37.28
18066,37.0
18078,36.72
18090,36.49
18101,36.2
18112,35.61
18124,34.37
18136,32.18
18148,28.9
18160,24.67
18172,19.93
18184,15.27
18196,11.25
18208,8.11
18220,5.7
18232,3.53
18244,0.93
18256,-2.58
18268,-7.09
18280,-12.28
18291,-17.53
18302,-22.27
18314,-26.18
18326,-29.34
18338,-32.14
18350,-35.12
18362,-38.81
18374,-43.58
18386,-49.58
18398,-56.59
18410,-63.91
18422,-70.4
18434,-74.52
18446,-74.83
18458,-70.33
18470,-61.0
18481,-47.81
18492,-32.49
18504,-17.03
18516,-3.07
18528,8.44
18540,17.25
18552,23.6
18564,27.91
18576,30.53
18588,31.71
18600,31.72
18612,30.9
18624,29.73
18636,28.68
18648,28.09
18660,28.07
18671,28.5
18682,29.15
18694,29.81
18706,30.38
18718,30.8
18730,31.05
18742,30.96
18754,30.33
18766,28.93
18778,26.66
18790,23.61
18802,20.05
18814,16.27
18826,12.5
18838,8.81
18850,5.17
18861,1.49
18872,-2.29
18884,-6.16
18896,-10.05
18908,-13.86
18920,-17.53
18932,-21.0
18944,-24.28
18956,-27.43
18968,-30.7
18980,-34.43
18992,-39.05
19004,-44.84
19016,-51.7
19028,-58.9
19040,-65.1
19051,-68.66
19062,-68.12
19074,-62.77
19086,-52.93
19098,-39.92
19110,-25.55
19122,-11.57
19134,0.84
19146,11.23
19158,19.61
19170,26.16
19182,30.97
19194,33.96
19206,35.19
19218,34.95
19230,33.91
19241,32.88
19252,32.51
19264,33.06
19276,34.33
19288,35.82
19300,36.99
19312,37.53
19324,37.41
19336,36.84
19348,36.1
19360,35.36
19372,34.57
19384,33.52
19396,31.91
19408,29.54
19420,26.38
19431,22.65
19442,18.72
19454,14.97
19466,11.61
19478,8.6
19490,5.65
19502,2.4
19514,-1.46
19526,-6.03
19538,-11.13
19550,-16.39
19562,-21.42
19574,-25.91
19586,-29.79
19598,-33.32
19610,-36.98
19621,-41.38
19632,-47.05
19644,-54.19
19656,-62.42
19668,-70.67
19680,-77.33
19692,-80.61
19704,-79.11
19716,-72.35
19728,-60.99
19740,-46.63
19752,-31.33
19764,-16.92
19776,-4.54
19788,5.47
19800,13.34
19811,19.5
19822,24.23
19834,27.62
19846,29.63
19858,30.43
19870,30.39
19882,30.08
19894,30.04
19906,30.52
19918,31.39
19930,32.32
19942,32.93
19954,33.06
19966,32.84
19978,32.54
19990,32.41
20001,32.45
20012,32.38
20024,31.82
20036,30.46
20048,28.18
20060,25.16
20072,21.73
20084,18.25
20096,15.0
20108,12.06
20120,9.36
20132,6.68
20144,3.66
20156,0.03
20168,-4.36
20180,-9.37
20191,-14.65
20202,-19.74
20214,-24.25
20226,-28.13
20238,-31.6
20250,-35.2
20262,-39.6
20274,-45.32
20286,-52.58
20298,-61.02
20310,-69.67
20322,-77.0
20334,-81.23
20346,-80.89
20358,-75.24
20370,-64.63
20381,-50.38
20392,-34.42
20404,-18.63
20416,-4.4
20428,7.62
20440,17.36
20452,25.07
20464,31.01
20476,35.29
20488,37.94
20500,39.11
20512,39.11
20524,38.51
20536,37.95
20548,37.91
20560,38.54
20571,39.63
20582,40.75
20594,41.53
20606,41.8
20618,41.72
20630,41.58
20642,41.61
20654,41.77
20666,41.73
20678,41.02
20690,39.24
20702,36.28
20714,32.35
20726,27.93
20738,23.53
20750,19.5
20761,15.9
20772,12.52
20784,9.02
20796,5.12
20808,0.73
20820,-3.99
20832,-8.72
20844,-13.16
20856,-17.17
20868,-20.82
20880,-24.42
20892,-28.34
20904,-32.99
20916,-38.66
20928,-45.5
20940,-53.29
20951,-61.37
20962,-68.5
20974,-73.1
20986,-73.63
20998,-69.15
