seconds,BVP
8,3.4
20,2.83
32,2.28
44,1.8
56,1.43
68,1.12
79,0.81
90,0.44
102,-0.04
114,-0.64
126,-1.35
138,-2.12
150,-2.88
162,-3.56
174,-4.12
186,-4.6
198,-5.09
210,-5.67
222,-6.38
234,-7.16
246,-7.82
258,-8.12
269,-7.83
280,-6.89
292,-5.4
304,-3.62
316,-1.88
328,-0.46
340,0.56
352,1.22
364,1.66
376,2.0
388,2.27
400,2.42
412,2.4
424,2.27
436,2.12
448,2.06
459,2.11
470,2.2
482,2.17
494,1.91
506,1.45
518,0.93
530,0.59
542,0.6
554,0.97
566,1.55
578,2.07
590,2.31
602,2.17
614,1.7
626,1.05
638,0.36
649,-0.25
660,-0.76
672,-1.23
684,-1.68
696,-2.13
708,-2.54
720,-2.84
732,-3.04
744,-3.22
756,-3.5
768,-4.01
780,-4.77
792,-5.67
804,-6.46
816,-6.89
828,-6.8
839,-6.21
850,-5.29
862,-4.25
874,-3.24
886,-2.28
898,-1.32
910,-0.28
922,0.78
934,1.72
946,2.35
958,2.52
970,2.25
982,1.68
994,1.03
1006,0.52
1018,0.26
1029,0.26
1040,0.44
1052,0.67
1064,0.84
1076,0.91
1088,0.9
1100,0.89
1112,0.95
1124,1.1
1136,1.29
1148,1.39
1160,1.27
1172,0.84
1184,0.18
1196,-0.57
1208,-1.23
1219,-1.68
1230,-1.9
1242,-1.99
1254,-2.09
1266,-2.27
1278,-2.57
1290,-3.0
1302,-3.54
1314,-4.2
1326,-4.91
1338,-5.56
1350,-5.93
1362,-5.8
1374,-5.02
1386,-3.63
1398,-1.88
1409,-0.11
1420,1.35
1432,2.3
1444,2.77
1456,2.87
1468,2.77
1480,2.58
1492,2.34
1504,2.01
1516,1.59
1528,1.13
1540,0.71
1552,0.43
1564,0.35
1576,0.44
1588,0.62
1599,0.81
1610,0.98
1622,1.14
1634,1.34
1646,1.61
1658,1.91
1670,2.12
1682,2.11
1694,1.78
1706,1.14
1718,0.3
1730,-0.57
1742,-1.34
1754,-1.97
1766,-2.47
1778,-2.94
1789,-3.44
1800,-3.96
1812,-4.45
1824,-4.85
1836,-5.15
1848,-5.39
1860,-5.6
1872,-5.8
1884,-5.95
1896,-5.92
1908,-5.62
1920,-5.0
1932,-4.09
1944,-2.96
1956,-1.69
1968,-0.39
1979,0.84
1990,1.88
2002,2.64
2014,3.05
2026,3.13
2038,2.97
2050,2.65
2062,2.24
2074,1.78
2086,1.31
2098,0.91
2110,0.72
2122,0.84
2134,1.28
2146,1.9
2158,2.49
2169,2.83
2180,2.81
2192,2.44
2204,1.87
2216,1.23
2228,0.62
2240,0.11
2252,-0.32
2264,-0.69
2276,-1.05
2288,-1.44
2300,-1.93
2312,-2.53
2324,-3.24
2336,-3.99
2348,-4.71
2359,-5.32
2370,-5.79
2382,-6.15
2394,-6.44
2406,-6.71
2418,-6.93
2430,-6.99
2442,-6.76
2454,-6.12
2466,-5.04
2478,-3.57
2490,-1.91
2502,-0.27
2514,1.15
2526,2.22
2538,2.9
2549,3.2
2560,3.17
2572,2.85
2584,2.35
2596,1.83
2608,1.43
2620,1.31
2632,1.52
2644,1.99
2656,2.54
2668,2.95
2680,3.02
2692,2.76
2704,2.27
2716,1.75
2728,1.36
2739,1.16
2750,1.08
2762,1.01
2774,0.84
2786,0.56
2798,0.23
2810,-0.09
2822,-0.39
2834,-0.71
2846,-1.14
2858,-1.74
2870,-2.43
2882,-3.08
2894,-3.56
2906,-3.81
2918,-3.95
2929,-4.13
2940,-4.5
2952,-5.02
2964,-5.5
2976,-5.65
2988,-5.25
3000,-4.28
3012,-2.93
3024,-1.51
3036,-0.31
3048,0.57
3060,1.16
3072,1.6
3084,2.0
3096,2.37
3108,2.58
3119,2.54
3130,2.19
3142,1.66
3154,1.12
3166,0.79
3178,0.77
3190,1.02
3202,1.4
3214,1.71
3226,1.85
3238,1.79
3250,1.6
3262,1.37
3274,1.19
3286,1.07
3298,1.01
3309,0.95
3320,0.86
3332,0.74
3344,0.55
3356,0.28
3368,-0.08
3380,-0.57
3392,-1.16
3404,-1.82
3416,-2.48
3428,-3.07
3440,-3.51
3452,-3.78
3464,-3.91
3476,-3.96
3488,-4.05
3499,-4.31
3510,-4.83
3522,-5.56
3534,-6.33
3546,-6.89
3558,-6.96
3570,-6.4
3582,-5.25
3594,-3.7
3606,-2.03
3618,-0.5
3630,0.71
3642,1.55
3654,2.04
3666,2.28
3678,2.4
3689,2.5
3700,2.68
3712,2.93
3724,3.2
3736,3.38
3748,3.37
3760,3.15
3772,2.81
3784,2.49
3796,2.34
3808,2.39
3820,2.58
3832,2.78
3844,2.89
3856,2.88
3868,2.79
3879,2.64
3890,2.4
3902,1.98
3914,1.33
3926,0.45
3938,-0.54
3950,-1.4
3962,-1.96
3974,-2.15
3986,-2.08
3998,-1.94
4010,-1.92
4022,-2.13
4034,-2.58
4046,-3.2
4058,-3.92
4069,-4.64
4080,-5.23
4092,-5.57
4104,-5.49
4116,-4.93
4128,-3.91
4140,-2.54
4152,-1.04
4164,0.38
4176,1.59
4188,2.53
4200,3.18
4212,3.55
4224,3.62
4236,3.38
4248,2.91
4259,2.33
4270,1.82
4282,1.56
4294,1.6
4306,1.91
4318,2.34
4330,2.75
4342,3.02
4354,3.15
4366,3.17
4378,3.15
4390,3.09
4402,2.99
4414,2.8
4426,2.54
4438,2.24
4449,1.93
4460,1.63
4472,1.26
4484,0.77
4496,0.13
4508,-0.58
4520,-1.27
4532,-1.83
4544,-2.24
4556,-2.58
4568,-2.95
4580,-3.45
4592,-4.12
4604,-4.88
4616,-5.64
4628,-6.25
4639,-6.55
4650,-6.39
4662,-5.75
4674,-4.69
4686,-3.38
4698,-2.04
4710,-0.86
4722,0.1
4734,0.9
4746,1.63
4758,2.33
4770,2.94
4782,3.29
4794,3.25
4806,2.81
4818,2.08
4829,1.3
4840,0.68
4852,0.36
4864,0.38
4876,0.68
4888,1.17
4900,1.77
4912,2.38
4924,2.93
4936,3.33
4948,3.48
4960,3.31
4972,2.85
4984,2.19
4996,1.5
5008,0.89
5019,0.46
5030,0.15
5042,-0.12
5054,-0.47
5066,-0.98
5078,-1.62
5090,-2.36
5102,-3.11
5114,-3.85
5126,-4.54
5138,-5.16
5150,-5.66
5162,-5.93
5174,-5.9
5186,-5.53
5198,-4.82
5209,-3.87
5220,-2.77
5232,-1.64
5244,-0.59
5256,0.3
5268,0.93
5280,1.27
5292,1.32
5304,1.15
5316,0.86
5328,0.55
5340,0.26
5352,0.03
5364,-0.12
5376,-0.14
5388,0.06
5399,0.48
5410,1.06
5422,1.66
5434,2.08
5446,2.26
5458,2.21
5470,2.03
5482,1.83
5494,1.63
5506,1.38
5518,1.01
5530,0.5
5542,-0.1
5554,-0.74
5566,-1.38
5578,-2.05
5589,-2.78
5600,-3.56
5612,-4.34
5624,-5.05
5636,-5.65
5648,-6.18
5660,-6.72
5672,-7.27
5684,-7.72
5696,-7.87
5708,-7.52
5720,-6.59
5732,-5.18
5744,-3.6
5756,-2.1
5768,-0.89
5779,0.0
5790,0.65
5802,1.15
5814,1.49
5826,1.62
5838,1.51
5850,1.19
5862,0.8
5874,0.51
5886,0.42
5898,0.59
5910,0.95
5922,1.42
5934,1.96
5946,2.51
5958,3.01
5969,3.4
5980,3.58
5992,3.54
6004,3.33
6016,3.08
6028,2.87
6040,2.7
6052,2.51
6064,2.16
6076,1.58
6088,0.79
6100,-0.11
6112,-1.02
6124,-1.88
6136,-2.64
6148,-3.24
6159,-3.63
6170,-3.7
6182,-3.39
6194,-2.65
6206,-1.5
6218,-0.04
6230,1.63
6242,3.36
6254,4.99
6266,6.39
6278,7.44
6290,8.08
6302,8.31
6314,8.15
6326,7.67
6338,6.93
6349,6.04
6360,5.17
6372,4.48
6384,4.08
6396,3.96
6408,4.01
6420,4.04
6432,3.9
6444,3.54
6456,3.02
6468,2.46
6480,1.97
6492,1.55
6504,1.13
6516,0.59
6528,-0.18
6539,-1.21
6550,-2.41
6562,-3.63
6574,-4.71
6586,-5.53
6598,-6.12
6610,-6.6
6622,-7.13
6634,-7.85
6646,-8.76
6658,-9.69
6670,-10.39
6682,-10.61
6694,-10.19
6706,-9.13
6718,-7.6
6729,-5.85
6740,-4.07
6752,-2.42
6764,-0.93
6776,0.41
6788,1.6
6800,2.58
6812,3.27
6824,3.59
6836,3.58
6848,3.39
6860,3.22
6872,3.24
6884,3.5
6896,3.97
6908,4.51
6919,4.96
6930,5.26
6942,5.39
6954,5.41
6966,5.35
6978,5.25
6990,5.1
7002,4.85
7014,4.45
7026,3.9
7038,3.21
7050,2.43
7062,1.6
7074,0.77
7086,-0.06
7098,-0.94
7109,-1.89
7120,-2.91
7132,-3.94
7144,-4.9
7156,-5.72
7168,-6.44
7180,-7.14
7192,-7.87
7204,-8.57
7216,-9.0
7228,-8.86
7240,-7.96
7252,-6.29
7264,-4.11
7276,-1.8
7288,0.29
7299,2.01
7310,3.4
7322,4.54
7334,5.5
7346,6.19
7358,6.48
7370,6.33
7382,5.83
7394,5.24
7406,4.82
7418,4.75
7430,5.02
7442,5.49
7454,6.0
7466,6.4
7478,6.69
7489,6.86
7500,6.97
7512,7.01
7524,6.94
7536,6.75
7548,6.44
7560,6.03
7572,5.56
7584,5.06
7596,4.52
7608,3.9
7620,3.19
7632,2.43
7644,1.68
7656,1.02
7668,0.52
7679,0.16
7690,-0.14
7702,-0.5
7714,-1.09
7726,-1.99
7738,-3.23
7750,-4.71
7762,-6.25
7774,-7.61
7786,-8.52
7798,-8.76
7810,-8.23
7822,-6.99
7834,-5.21
7846,-3.16
7858,-1.08
7869,0.84
7880,2.55
7892,4.01
7904,5.2
7916,6.05
7928,6.47
7940,6.37
7952,5.81
7964,4.95
7976,4.06
7988,3.4
8000,3.14
8012,3.25
8024,3.56
8036,3.9
8048,4.13
8059,4.27
8070,4.4
8082,4.59
8094,4.83
8106,4.99
8118,4.95
8130,4.63
8142,4.11
8154,3.54
8166,3.09
8178,2.8
8190,2.59
8202,2.3
8214,1.81
8226,1.1
8238,0.27
8249,-0.55
8260,-1.23
8272,-1.74
8284,-2.11
8296,-2.44
8308,-2.84
8320,-3.41
8332,-4.23
8344,-5.32
8356,-6.6
8368,-7.87
8380,-8.81
8392,-9.11
8404,-8.57
8416,-7.22
8428,-5.27
8439,-3.04
8450,-0.85
8462,1.1
8474,2.73
8486,4.02
8498,4.93
8510,5.44
8522,5.52
8534,5.21
8546,4.65
8558,4.05
8570,3.57
8582,3.29
8594,3.21
8606,3.27
8618,3.41
8629,3.61
8640,3.89
8652,4.26
8664,4.66
8676,5.0
8688,5.18
8700,5.16
8712,4.96
8724,4.69
8736,4.42
8748,4.17
8760,3.89
8772,3.49
8784,2.91
8796,2.18
8808,1.42
8819,0.73
8830,0.13
8842,-0.43
8854,-1.04
8866,-1.77
8878,-2.59
8890,-3.44
8902,-4.22
8914,-4.9
8926,-5.46
8938,-5.89
8950,-6.13
8962,-6.05
8974,-5.54
8986,-4.55
8998,-3.14
9009,-1.45
9020,0.32
9032,2.0
9044,3.47
9056,4.65
9068,5.43
9080,5.71
9092,5.43
9104,4.65
9116,3.58
9128,2.54
9140,1.88
9152,1.8
9164,2.31
9176,3.14
9188,3.93
9199,4.36
9210,4.29
9222,3.8
9234,3.11
9246,2.45
9258,1.98
9270,1.73
9282,1.63
9294,1.61
9306,1.58
9318,1.49
9330,1.27
9342,0.89
9354,0.31
9366,-0.41
9378,-1.17
9389,-1.87
9400,-2.46
9412,-2.95
9424,-3.43
9436,-4.02
9448,-4.75
9460,-5.61
9472,-6.52
9484,-7.35
9496,-7.94
9508,-8.14
9520,-7.81
9532,-6.9
9544,-5.45
9556,-3.59
9568,-1.55
9579,0.45
9590,2.18
9602,3.52
9614,4.39
9626,4.8
9638,4.8
9650,4.51
9662,4.05
9674,3.56
9686,3.16
9698,2.93
9710,2.86
9722,2.95
9734,3.14
9746,3.36
9758,3.56
9769,3.67
9780,3.66
9792,3.54
9804,3.3
9816,3.0
9828,2.64
9840,2.24
9852,1.77
9864,1.23
9876,0.63
9888,-0.01
9900,-0.62
9912,-1.19
9924,-1.7
9936,-2.19
9948,-2.67
9959,-3.16
9970,-3.66
9982,-4.15
9994,-4.62
10006,-5.09
10018,-5.57
10030,-6.09
10042,-6.61
10054,-7.05
10066,-7.29
10078,-7.16
10090,-6.56
10102,-5.47
10114,-3.94
10126,-2.11
10138,-0.15
10149,1.78
10160,3.49
10172,4.84
10184,5.75
10196,6.2
10208,6.22
10220,5.92
10232,5.4
10244,4.76
10256,4.13
10268,3.59
10280,3.21
10292,3.04
10304,3.07
10316,3.23
10328,3.46
10339,3.72
10350,4.02
10362,4.37
10374,4.73
10386,5.0
10398,4.99
10410,4.56
10422,3.67
10434,2.46
10446,1.18
10458,0.11
10470,-0.59
10482,-0.95
10494,-1.12
10506,-1.28
10518,-1.57
10529,-2.03
10540,-2.63
10552,-3.33
10564,-4.07
10576,-4.77
10588,-5.32
10600,-5.59
10612,-5.46
10624,-4.88
10636,-3.87
10648,-2.61
10660,-1.26
10672,-0.01
10684,1.05
10696,1.9
10708,2.56
10719,3.05
10730,3.37
10742,3.52
10754,3.54
10766,3.47
10778,3.38
10790,3.35
10802,3.37
10814,3.4
10826,3.37
10838,3.22
10850,2.95
10862,2.64
10874,2.38
10886,2.22
10898,2.13
10909,2.02
10920,1.77
10932,1.33
10944,0.69
10956,-0.07
10968,-0.87
10980,-1.64
10992,-2.33
11004,-2.91
11016,-3.33
11028,-3.54
11040,-3.56
11052,-3.45
11064,-3.34
11076,-3.35
11088,-3.53
11099,-3.77
11110,-3.91
11122,-3.77
11134,-3.26
11146,-2.42
11158,-1.39
11170,-0.28
11182,0.86
11194,2.05
11206,3.27
11218,4.47
11230,5.5
11242,6.18
11254,6.39
11266,6.12
11278,5.45
11289,4.49
11300,3.34
11312,2.04
11324,0.6
11336,-0.98
11348,-2.62
11360,-4.19
11372,-5.51
11384,-6.42
11396,-6.85
11408,-6.87
11420,-6.67
11432,-6.5
11444,-6.58
11456,-7.01
11468,-7.72
11479,-8.55
11490,-9.34
11502,-9.98
11514,-10.43
11526,-10.69
11538,-10.75
11550,-10.55
11562,-10.1
11574,-9.39
11586,-8.54
11598,-7.64
11610,-6.76
11622,-5.89
11634,-4.96
11646,-3.91
11658,-2.71
11669,-1.43
11680,-0.17
11692,0.9
11704,1.7
11716,2.18
11728,2.37
11740,2.34
11752,2.15
11764,1.85
11776,1.46
11788,1.02
11800,0.6
11812,0.3
11824,0.21
11836,0.34
11848,0.6
11859,0.83
11870,0.86
11882,0.63
11894,0.16
11906,-0.42
11918,-0.95
11930,-1.41
11942,-1.81
11954,-2.25
11966,-2.78
11978,-3.35
11990,-3.86
12002,-4.2
12014,-4.35
12026,-4.4
12038,-4.49
12049,-4.77
12060,-5.27
12072,-5.92
12084,-6.56
12096,-7.01
12108,-7.17
12120,-7.03
12132,-6.61
12144,-5.97
12156,-5.16
12168,-4.2
12180,-3.13
12192,-1.97
12204,-0.77
12216,0.35
12228,1.29
12239,1.93
12250,2.17
12262,2.04
12274,1.6
12286,0.93
12298,0.13
12310,-0.78
12322,-1.82
12334,-2.99
12346,-4.24
12358,-5.45
12370,-6.5
12382,-7.32
12394,-7.95
12406,-8.57
12418,-9.38
12429,-10.46
12440,-11.78
12452,-13.09
12464,-14.12
12476,-14.55
12488,-14.17
12500,-12.89
12512,-10.71
12524,-7.77
12536,-4.23
12548,-0.35
12560,3.56
12572,7.13
12584,9.99
12596,11.81
12608,12.41
12619,11.84
12630,10.33
12642,8.31
12654,6.24
12666,4.47
12678,3.15
12690,2.19
12702,1.36
12714,0.46
12726,-0.57
12738,-1.65
12750,-2.61
12762,-3.36
12774,-3.88
12786,-4.23
12798,-4.41
12809,-4.31
12820,-3.78
12832,-2.73
12844,-1.25
12856,0.38
12868,1.75
12880,2.55
12892,2.64
12904,2.17
12916,1.42
12928,0.76
12940,0.47
12952,0.69
12964,1.45
12976,2.68
12988,4.22
12999,5.88
13010,7.48
13022,8.9
13034,10.09
13046,11.05
13058,11.84
13070,12.45
13082,12.86
13094,13.03
13106,12.89
13118,12.46
13130,11.78
13142,10.91
13154,9.9
13166,8.76
13178,7.47
13189,6.01
13200,4.38
13212,2.61
13224,0.78
13236,-1.0
13248,-2.63
13260,-4.0
13272,-5.05
13284,-5.78
13296,-6.3
13308,-6.71
13320,-7.11
13332,-7.59
13344,-8.18
13356,-8.88
13368,-9.64
13379,-10.37
13390,-10.88
13402,-10.96
13414,-10.44
13426,-9.26
13438,-7.53
13450,-5.5
13462,-3.43
13474,-1.51
13486,0.18
13498,1.6
13510,2.73
13522,3.55
13534,3.98
13546,4.03
13558,3.82
13569,3.54
13580,3.39
13592,3.5
13604,3.85
13616,4.3
13628,4.67
13640,4.83
13652,4.74
13664,4.46
13676,4.16
13688,3.94
13700,3.8
13712,3.69
13724,3.49
13736,3.16
13748,2.7
13759,2.21
13770,1.77
13782,1.4
13794,1.02
13806,0.54
13818,-0.13
13830,-1.0
13842,-2.02
13854,-3.09
13866,-4.07
13878,-4.8
13890,-5.16
13902,-5.0
13914,-4.28
13926,-3.06
13938,-1.5
13949,0.19
13960,1.79
13972,3.21
13984,4.37
13996,5.28
14008,5.93
14020,6.31
14032,6.43
14044,6.3
14056,6.0
14068,5.64
14080,5.32
14092,5.11
14104,5.04
14116,5.08
14128,5.15
14139,5.21
14150,5.22
14162,5.19
14174,5.12
14186,5.01
14198,4.82
14210,4.49
14222,3.98
14234,3.34
14246,2.63
14258,1.94
14270,1.26
14282,0.55
14294,-0.3
14306,-1.35
14318,-2.57
14329,-3.82
14340,-4.96
14352,-5.8
14364,-6.24
14376,-6.23
14388,-5.71
14400,-4.64
14412,-3.03
14424,-1.04
14436,1.05
14448,2.91
14460,4.24
14472,4.94
14484,5.13
14496,5.06
14508,4.94
14519,4.9
14530,4.92
14542,4.88
14554,4.7
14566,4.38
14578,4.0
14590,3.67
14602,3.45
14614,3.33
14626,3.27
14638,3.17
14650,2.95
14662,2.59
14674,2.11
14686,1.56
14698,1.04
14709,0.61
14720,0.27
14732,0.02
14744,-0.24
14756,-0.58
14768,-1.08
14780,-1.77
14792,-2.63
14804,-3.57
14816,-4.47
14828,-5.12
14840,-5.3
14852,-4.84
14864,-3.69
14876,-1.94
14888,0.13
14899,2.16
14910,3.84
14922,5.0
14934,5.63
14946,5.87
14958,5.89
14970,5.82
14982,5.69
14994,5.46
15006,5.11
15018,4.67
15030,4.21
15042,3.81
15054,3.55
15066,3.4
15078,3.3
15089,3.15
15100,2.91
15112,2.6
15124,2.24
15136,1.91
15148,1.62
15160,1.34
15172,1.03
15184,0.63
15196,0.11
15208,-0.52
15220,-1.21
15232,-1.9
15244,-2.54
15256,-3.13
15268,-3.67
15279,-4.16
15290,-4.57
15302,-4.83
15314,-4.82
15326,-4.43
15338,-3.59
15350,-2.35
15362,-0.8
15374,0.85
15386,2.42
15398,3.72
15410,4.63
15422,5.08
15434,5.04
15446,4.56
15458,3.74
15469,2.78
15480,1.9
15492,1.32
15504,1.19
15516,1.5
15528,2.11
15540,2.8
15552,3.33
15564,3.57
15576,3.48
15588,3.09
15600,2.52
15612,1.89
15624,1.29
15636,0.78
15648,0.37
15659,0.02
15670,-0.32
15682,-0.71
15694,-1.17
15706,-1.69
15718,-2.24
15730,-2.77
15742,-3.25
15754,-3.7
15766,-4.14
15778,-4.58
15790,-5.02
15802,-5.36
15814,-5.47
15826,-5.2
15838,-4.48
15849,-3.35
15860,-1.94
15872,-0.49
15884,0.79
15896,1.79
15908,2.51
15920,2.99
15932,3.27
15944,3.33
15956,3.1
15968,2.56
15980,1.74
15992,0.85
16004,0.1
16016,-0.29
16028,-0.27
16039,0.06
16050,0.5
16062,0.83
16074,0.9
16086,0.69
16098,0.27
16110,-0.25
16122,-0.73
16134,-1.1
16146,-1.33
16158,-1.41
16170,-1.39
16182,-1.31
16194,-1.22
16206,-1.17
16218,-1.21
16229,-1.35
16240,-1.6
16252,-1.92
16264,-2.3
16276,-2.73
16288,-3.26
16300,-3.9
16312,-4.61
16324,-5.26
16336,-5.65
16348,-5.55
16360,-4.86
16372,-3.62
16384,-2.02
16396,-0.38
16408,1.03
16419,2.05
16430,2.66
16442,2.93
16454,2.98
16466,2.94
16478,2.86
16490,2.76
16502,2.61
16514,2.4
16526,2.14
16538,1.87
16550,1.64
16562,1.47
16574,1.39
16586,1.39
16598,1.42
16609,1.48
16620,1.54
16632,1.56
16644,1.5
16656,1.31
16668,0.98
16680,0.55
16692,0.1
16704,-0.27
16716,-0.47
16728,-0.48
16740,-0.38
16752,-0.28
16764,-0.3
16776,-0.52
16788,-0.93
16799,-1.46
16810,-2.01
16822,-2.51
16834,-2.95
16846,-3.32
16858,-3.69
16870,-4.08
16882,-4.45
16894,-4.72
16906,-4.74
16918,-4.38
16930,-3.61
16942,-2.52
16954,-1.29
16966,-0.11
16978,0.87
16989,1.61
17000,2.12
17012,2.46
17024,2.6
17036,2.54
17048,2.26
17060,1.78
17072,1.19
17084,0.6
17096,0.12
17108,-0.22
17120,-0.4
17132,-0.44
17144,-0.36
17156,-0.18
17168,0.05
17179,0.26
17190,0.36
17202,0.33
17214,0.19
17226,0.02
17238,-0.15
17250,-0.3
17262,-0.48
17274,-0.71
17286,-0.99
17298,-1.26
17310,-1.44
17322,-1.5
17334,-1.46
17346,-1.38
17358,-1.36
17369,-1.5
17380,-1.82
17392,-2.36
17404,-3.04
17416,-3.74
17428,-4.31
17440,-4.6
17452,-4.48
17464,-3.93
17476,-3.03
17488,-1.97
17500,-0.97
17512,-0.19
17524,0.29
17536,0.51
17548,0.57
17559,0.63
17570,0.76
17582,0.99
17594,1.25
17606,1.42
17618,1.37
17630,1.04
17642,0.47
17654,-0.2
17666,-0.78
17678,-1.1
17690,-1.09
17702,-0.76
17714,-0.23
17726,0.38
17738,0.92
17749,1.24
17760,1.29
17772,1.04
17784,0.53
17796,-0.13
17808,-0.8
17820,-1.36
17832,-1.74
17844,-1.92
17856,-1.95
17868,-1.85
17880,-1.68
17892,-1.5
17904,-1.37
17916,-1.41
17928,-1.7
17939,-2.25
17950,-2.97
17962,-3.7
17974,-4.22
17986,-4.37
17998,-4.15
18010,-3.63
18022,-2.93
18034,-2.18
18046,-1.41
18058,-0.62
18070,0.21
18082,1.04
18094,1.78
18106,2.35
18118,2.67
18129,2.73
18140,2.54
18152,2.09
18164,1.44
18176,0.69
18188,-0.01
18200,-0.46
18212,-0.51
18224,-0.17
18236,0.42
18248,0.98
18260,1.24
18272,1.09
18284,0.59
18296,-0.04
18308,-0.55
18319,-0.81
18330,-0.79
18342,-0.6
18354,-0.43
18366,-0.4
18378,-0.56
18390,-0.88
18402,-1.26
18414,-1.64
18426,-1.99
18438,-2.33
18450,-2.7
18462,-3.09
18474,-3.48
18486,-3.83
18498,-4.14
18509,-4.39
18520,-4.56
18532,-4.57
18544,-4.32
18556,-3.72
18568,-2.79
18580,-1.69
18592,-0.64
18604,0.15
18616,0.62
18628,0.87
18640,1.03
18652,1.23
18664,1.45
18676,1.57
18688,1.49
18699,1.18
18710,0.75
18722,0.35
18734,0.1
18746,0.02
18758,0.06
18770,0.15
18782,0.27
18794,0.43
18806,0.64
18818,0.87
18830,1.03
18842,1.04
18854,0.88
18866,0.64
18878,0.42
18889,0.33
18900,0.36
18912,0.42
18924,0.39
18936,0.2
18948,-0.12
18960,-0.52
18972,-0.91
18984,-1.27
18996,-1.64
19008,-2.05
19020,-2.5
19032,-2.93
19044,-3.21
19056,-3.24
19068,-2.94
19079,-2.35
19090,-1.61
19102,-0.89
19114,-0.35
19126,-0.03
19138,0.12
19150,0.23
19162,0.44
19174,0.82
19186,1.3
19198,1.77
19210,2.09
19222,2.2
19234,2.09
19246,1.84
19258,1.54
19269,1.26
19280,1.03
19292,0.85
19304,0.7
19316,0.57
19328,0.49
19340,0.45
19352,0.46
19364,0.51
19376,0.55
19388,0.54
19400,0.47
19412,0.31
19424,0.1
19436,-0.16
19448,-0.44
19459,-0.76
19470,-1.16
19482,-1.67
19494,-2.28
19506,-2.93
19518,-3.56
19530,-4.1
19542,-4.49
19554,-4.71
19566,-4.72
19578,-4.56
19590,-4.22
19602,-3.76
19614,-3.17
19626,-2.5
19638,-1.75
19649,-0.94
19660,-0.13
19672,0.64
19684,1.31
19696,1.81
19708,2.11
19720,2.19
19732,2.08
19744,1.81
19756,1.45
19768,1.07
19780,0.73
19792,0.52
19804,0.48
19816,0.6
19828,0.77
19839,0.85
19850,0.73
19862,0.38
19874,-0.06
19886,-0.39
19898,-0.49
19910,-0.37
19922,-0.19
19934,-0.17
19946,-0.46
19958,-1.04
19970,-1.72
19982,-2.29
19994,-2.65
20006,-2.85
20018,-3.09
20029,-3.54
20040,-4.23
20052,-5.03
20064,-5.66
20076,-5.92
20088,-5.7
20100,-5.09
20112,-4.27
20124,-3.43
20136,-2.65
20148,-1.94
20160,-1.24
20172,-0.52
20184,0.19
20196,0.73
20208,0.98
20219,0.88
20230,0.49
20242,0.03
20254,-0.3
20266,-0.37
20278,-0.19
20290,0.1
20302,0.36
20314,0.52
20326,0.63
20338,0.8
20350,1.1
20362,1.47
20374,1.76
20386,1.81
20398,1.53
20409,0.98
20420,0.29
20432,-0.43
20444,-1.09
20456,-1.69
20468,-2.24
20480,-2.7
20492,-3.05
20504,-3.28
20516,-3.47
20528,-3.72
20540,-4.11
20552,-4.6
20564,-5.01
20576,-5.17
20588,-4.98
20599,-4.48
20610,-3.83
20622,-3.17
20634,-2.53
20646,-1.82
20658,-0.94
20670,0.18
20682,1.41
20694,2.51
20706,3.18
20718,3.19
20730,2.55
20742,1.46
20754,0.27
20766,-0.66
20778,-1.08
20789,-0.97
20800,-0.47
20812,0.17
20824,0.75
20836,1.15
20848,1.35
20860,1.36
20872,1.16
20884,0.72
20896,0.05
20908,-0.74
20920,-1.47
20932,-1.95
20944,-2.09
20956,-1.95
20968,-1.75
20979,-1.72
20990,-2.04
