seconds,BVP
3,14.97
15,17.46
27,19.51
39,20.8
51,20.84
63,19.34
75,16.43
87,12.66
99,8.83
111,5.62
123,3.29
135,1.67
147,0.24
158,-1.61
169,-4.25
181,-7.66
193,-11.54
205,-15.34
217,-18.54
229,-20.84
241,-22.16
253,-22.75
265,-23.04
277,-23.6
289,-24.91
301,-27.27
313,-30.6
325,-34.32
337,-37.49
348,-38.98
359,-37.84
371,-33.51
383,-26.04
395,-16.02
407,-4.42
419,7.67
431,19.4
443,30.23
455,39.96
467,48.54
479,55.96
491,62.02
503,66.4
515,68.75
527,68.86
538,66.84
549,63.11
561,58.34
573,53.12
585,47.9
597,42.86
609,37.95
621,32.98
633,27.84
645,22.5
657,17.05
669,11.68
681,6.64
693,2.09
705,-1.92
717,-5.49
728,-8.85
739,-12.18
751,-15.58
763,-18.93
775,-22.01
787,-24.6
799,-26.65
811,-28.38
823,-30.05
835,-31.88
847,-33.82
859,-35.57
871,-36.72
883,-37.06
895,-36.74
907,-36.23
918,-36.19
929,-37.04
941,-38.82
953,-41.08
965,-43.19
977,-44.63
989,-45.26
1001,-45.38
1013,-45.5
1025,-46.13
1037,-47.48
1049,-49.4
1061,-51.37
1073,-52.7
1085,-52.68
1097,-50.81
1108,-46.83
1119,-40.82
1131,-33.09
1143,-24.05
1155,-14.09
1167,-3.47
1179,7.64
1191,19.0
1203,30.26
1215,40.87
1227,50.26
1239,57.98
1251,63.94
1263,68.4
1275,71.92
1287,75.18
1298,78.77
1309,83.0
1321,87.65
1333,91.99
1345,94.77
1357,94.66
1369,90.73
1381,82.92
1393,72.13
1405,59.95
1417,48.1
1429,37.82
1441,29.67
1453,23.64
1465,19.5
1477,17.0
1488,15.85
1499,15.5
1511,15.04
1523,13.35
1535,9.58
1547,3.63
1559,-3.82
1571,-11.61
1583,-18.68
1595,-24.66
1607,-29.82
1619,-34.75
1631,-39.79
1643,-44.73
1655,-48.86
1667,-51.47
1678,-52.3
1689,-51.7
1701,-50.55
1713,-49.87
1725,-50.45
1737,-52.71
1749,-56.56
1761,-61.52
1773,-66.74
1785,-71.21
1797,-73.83
1809,-73.66
1821,-70.17
1833,-63.35
1845,-53.79
1857,-42.45
1868,-30.52
1879,-19.04
1891,-8.8
1903,-0.22
1915,6.69
1927,12.1
1939,16.3
1951,19.47
1963,21.7
1975,23.02
1987,23.53
1999,23.47
2011,23.22
2023,23.12
2035,23.37
2047,23.97
2058,24.75
2069,25.47
2081,25.98
2093,26.21
2105,26.19
2117,25.95
2129,25.44
2141,24.58
2153,23.31
2165,21.6
2177,19.48
2189,17.06
2201,14.4
2213,11.55
2225,8.51
2237,5.3
2248,1.94
2259,-1.54
2271,-5.12
2283,-8.87
2295,-12.89
2307,-17.26
2319,-21.94
2331,-26.73
2343,-31.33
2355,-35.46
2367,-39.01
2379,-42.05
2391,-44.86
2403,-47.78
2415,-51.06
2427,-54.85
2438,-59.16
2449,-63.89
2461,-68.73
2473,-73.12
2485,-76.2
2497,-76.96
2509,-74.49
2521,-68.32
2533,-58.65
2545,-46.34
2557,-32.63
2569,-18.74
2581,-5.58
2593,6.4
2605,16.99
2617,26.06
2628,33.36
2639,38.59
2651,41.57
2663,42.4
2675,41.59
2687,39.9
2699,38.1
2711,36.78
2723,36.19
2735,36.34
2747,37.07
2759,38.2
2771,39.49
2783,40.66
2795,41.42
2807,41.49
2818,40.72
2829,39.13
2841,36.96
2853,34.56
2865,32.26
2877,30.3
2889,28.67
2901,27.2
2913,25.6
2925,23.62
2937,21.07
2949,17.97
2961,14.45
2973,10.69
2985,6.83
2997,2.87
3008,-1.2
3019,-5.38
3031,-9.58
3043,-13.59
3055,-17.25
3067,-20.54
3079,-23.61
3091,-26.71
3103,-30.12
3115,-34.01
3127,-38.48
3139,-43.56
3151,-49.16
3163,-54.99
3175,-60.44
3187,-64.62
3198,-66.5
3209,-65.28
3221,-60.6
3233,-52.79
3245,-42.72
3257,-31.52
3269,-20.28
3281,-9.79
3293,-0.49
3305,7.44
3317,13.96
3329,19.12
3341,23.03
3353,25.95
3365,28.28
3377,30.44
3388,32.78
3399,35.45
3411,38.39
3423,41.4
3435,44.41
3447,47.63
3459,51.49
3471,56.46
3483,62.73
3495,69.87
3507,76.95
3519,82.82
3531,86.55
3543,87.97
3555,87.71
3567,86.98
3578,87.05
3589,88.65
3601,91.72
3613,95.58
3625,99.17
3637,101.51
3649,102.06
3661,100.7
3673,97.88
3685,94.57
3697,92.02
3709,91.36
3721,92.69
3733,94.28
3745,92.35
3757,81.82
3768,58.05
3779,18.97
3791,-33.6
3803,-93.91
3815,-153.83
3827,-205.06
3839,-241.27
3851,-259.22
3863,-258.88
3875,-242.87
3887,-215.48
3899,-181.79
3911,-146.82
3923,-114.62
3935,-87.72
3947,-66.74
3958,-50.77
3969,-38.01
3981,-26.7
3993,-15.62
4005,-4.33
4017,7.0
4029,17.93
4041,27.79
4053,35.9
4065,41.67
4077,44.76
4089,45.29
4101,43.98
4113,41.99
4125,40.57
4137,40.66
4148,42.53
4159,45.81
4171,49.63
4183,53.06
4195,55.47
4207,56.72
4219,57.1
4231,57.16
4243,57.44
4255,58.24
4267,59.53
4279,60.94
4291,61.88
4303,61.73
4315,60.03
4327,56.71
4338,52.15
4349,47.06
4361,42.29
4373,38.43
4385,35.58
4397,33.25
4409,30.52
4421,26.22
4433,19.24
4445,8.83
4457,-5.08
4469,-21.78
4481,-39.7
4493,-56.79
4505,-71.07
4517,-81.23
4528,-87.1
4539,-89.51
4551,-89.82
4563,-89.19
4575,-88.13
4587,-86.34
4599,-83.04
4611,-77.58
4623,-69.73
4635,-59.92
4647,-48.95
4659,-37.64
4671,-26.6
4683,-16.11
4695,-6.19
4707,3.11
4718,11.67
4729,19.17
4741,25.24
4753,29.6
4765,32.23
4777,33.38
4789,33.54
4801,33.25
4813,32.96
4825,32.88
4837,33.05
4849,33.36
4861,33.67
4873,33.9
4885,34.0
4897,33.91
4908,33.59
4919,32.89
4931,31.72
4943,30.12
4955,28.36
4967,26.87
4979,26.14
4991,26.45
5003,27.77
5015,29.7
5027,31.55
5039,32.65
5051,32.49
5063,30.88
5075,27.91
5087,23.81
5098,18.8
5109,13.09
5121,6.89
5133,0.43
5145,-5.99
5157,-11.97
5169,-17.24
5181,-21.67
5193,-25.34
5205,-28.56
5217,-31.75
5229,-35.32
5241,-39.52
5253,-44.35
5265,-49.46
5277,-54.19
5288,-57.65
5299,-58.98
5311,-57.58
5323,-53.33
5335,-46.6
5347,-38.14
5359,-28.83
5371,-19.48
5383,-10.65
5395,-2.68
5407,4.25
5419,10.0
5431,14.5
5443,17.74
5455,19.84
5467,21.1
5478,21.87
5489,22.44
5501,22.98
5513,23.43
5525,23.62
5537,23.45
5549,22.96
5561,22.39
5573,22.1
5585,22.38
5597,23.31
5609,24.63
5621,25.95
5633,26.77
5645,26.84
5657,26.12
5668,24.79
5679,23.11
5691,21.29
5703,19.36
5715,17.23
5727,14.8
5739,12.1
5751,9.23
5763,6.37
5775,3.67
5787,1.18
5799,-1.15
5811,-3.41
5823,-5.65
5835,-7.9
5847,-10.18
5858,-12.56
5869,-15.11
5881,-17.87
5893,-20.8
5905,-23.79
5917,-26.73
5929,-29.6
5941,-32.57
5953,-35.88
5965,-39.71
5977,-43.93
5989,-48.09
6001,-51.38
6013,-52.91
6025,-51.97
6037,-48.32
6048,-42.19
6059,-34.22
6071,-25.22
6083,-15.95
6095,-6.99
6107,1.3
6119,8.64
6131,14.83
6143,19.66
6155,23.06
6167,25.05
6179,25.85
6191,25.8
6203,25.2
6215,24.35
6227,23.41
6238,22.51
6249,21.7
6261,21.04
6273,20.51
6285,20.07
6297,19.72
6309,19.4
6321,19.09
6333,18.69
6345,18.08
6357,17.08
6369,15.57
6381,13.54
6393,11.14
6405,8.65
6417,6.3
6428,4.19
6439,2.28
6451,0.39
6463,-1.69
6475,-4.08
6487,-6.74
6499,-9.43
6511,-11.84
6523,-13.6
6535,-14.44
6547,-14.34
6559,-13.51
6571,-12.37
6583,-11.47
6595,-11.26
6607,-11.93
6618,-13.48
6629,-15.68
6641,-18.22
6653,-20.84
6665,-23.41
6677,-25.91
6689,-28.47
6701,-31.27
6713,-34.46
6725,-38.07
6737,-41.94
6749,-45.64
6761,-48.6
6773,-50.2
6785,-49.83
6797,-47.18
6808,-42.24
6819,-35.37
6831,-27.18
6843,-18.41
6855,-9.7
6867,-1.51
6879,5.9
6891,12.38
6903,17.81
6915,22.1
6927,25.14
6939,26.94
6951,27.63
6963,27.52
6975,26.96
6987,26.28
6998,25.74
7009,25.45
7021,25.46
7033,25.77
7045,26.35
7057,27.17
7069,28.2
7081,29.35
7093,30.54
7105,31.62
7117,32.41
7129,32.77
7141,32.61
7153,31.93
7165,30.86
7177,29.61
7188,28.33
7199,27.16
7211,26.06
7223,24.87
7235,23.39
7247,21.48
7259,19.12
7271,16.52
7283,13.93
7295,11.59
7307,9.67
7319,8.09
7331,6.65
7343,5.09
7355,3.18
7367,0.82
7378,-1.9
7389,-4.79
7401,-7.59
7413,-10.06
7425,-12.13
7437,-13.84
7449,-15.47
7461,-17.38
7473,-19.93
7485,-23.28
7497,-27.33
7509,-31.68
7521,-35.73
7533,-38.96
7545,-40.99
7557,-41.75
7568,-41.38
7579,-40.08
7591,-38.01
7603,-35.23
7615,-31.84
7627,-28.02
7639,-24.14
7651,-20.56
7663,-17.59
7675,-15.27
7687,-13.4
7699,-11.74
7711,-10.14
7723,-8.63
7735,-7.39
7747,-6.56
7758,-6.05
7769,-5.63
7781,-4.93
7793,-3.71
7805,-1.88
7817,0.53
7829,3.38
7841,6.6
7853,10.08
7865,13.74
7877,17.35
7889,20.61
7901,23.21
7913,24.96
7925,25.85
7937,26.03
7948,25.7
7959,25.02
7971,24.04
7983,22.76
7995,21.17
8007,19.27
8019,17.12
8031,14.8
8043,12.35
8055,9.84
8067,7.3
8079,4.78
8091,2.24
8103,-0.4
8115,-3.25
8127,-6.47
8138,-10.08
8149,-13.99
8161,-17.97
8173,-21.69
8185,-24.87
8197,-27.37
8209,-29.27
8221,-30.81
8233,-32.37
8245,-34.3
8257,-36.82
8269,-39.86
8281,-43.04
8293,-45.59
8305,-46.65
8317,-45.47
8328,-41.7
8339,-35.52
8351,-27.53
8363,-18.62
8375,-9.59
8387,-1.09
8399,6.52
8411,13.08
8423,18.52
8435,22.86
8447,26.12
8459,28.38
8471,29.75
8483,30.34
8495,30.3
8507,29.79
8518,28.97
8529,28.07
8541,27.27
8553,26.71
8565,26.46
8577,26.52
8589,26.85
8601,27.37
8613,27.98
8625,28.54
8637,28.87
8649,28.78
8661,28.12
8673,26.91
8685,25.27
8697,23.48
8708,21.76
8719,20.27
8731,18.99
8743,17.79
8755,16.41
8767,14.65
8779,12.42
8791,9.77
8803,6.9
8815,4.05
8827,1.42
8839,-0.9
8851,-2.94
8863,-4.79
8875,-6.58
8887,-8.39
8898,-10.32
8909,-12.45
8921,-14.83
8933,-17.44
8945,-20.22
8957,-23.05
8969,-25.82
8981,-28.49
8993,-31.18
9005,-34.19
9017,-37.79
9029,-42.16
9041,-47.17
9053,-52.34
9065,-56.86
9077,-59.84
9088,-60.54
9099,-58.52
9111,-53.84
9123,-46.96
9135,-38.57
9147,-29.45
9159,-20.28
9171,-11.6
9183,-3.78
9195,2.96
9207,8.57
9219,13.09
9231,16.65
9243,19.29
9255,21.07
9267,21.99
9278,22.09
9289,21.5
9301,20.46
9313,19.28
9325,18.2
9337,17.38
9349,16.85
9361,16.55
9373,16.44
9385,16.48
9397,16.63
9409,16.83
9421,16.99
9433,17.02
9445,16.84
9457,16.43
9468,15.76
9479,14.9
9491,13.87
9503,12.77
9515,11.68
9527,10.71
9539,9.92
9551,9.36
9563,8.99
9575,8.73
9587,8.51
9599,8.2
9611,7.74
9623,7.04
9635,6.03
9647,4.7
9658,3.15
9669,1.49
9681,-0.18
9693,-1.8
9705,-3.39
9717,-5.06
9729,-6.86
9741,-8.82
9753,-10.86
9765,-12.94
9777,-15.1
9789,-17.5
9801,-20.26
9813,-23.3
9825,-26.25
9837,-28.36
9848,-28.85
9859,-27.12
9871,-23.06
9883,-17.07
9895,-9.92
9907,-2.45
9919,4.68
9931,11.09
9943,16.63
9955,21.24
9967,24.84
9979,27.3
9991,28.5
10003,28.5
10015,27.51
10027,25.93
10038,24.17
10049,22.57
10061,21.31
10073,20.41
10085,19.86
10097,19.62
10109,19.7
10121,20.12
10133,20.83
10145,21.71
10157,22.52
10169,23.01
10181,23.0
10193,22.48
10205,21.59
10217,20.55
10228,19.48
10239,18.42
10251,17.23
10263,15.77
10275,13.95
10287,11.77
10299,9.34
10311,6.8
10323,4.28
10335,1.83
10347,-0.5
10359,-2.71
10371,-4.9
10383,-7.21
10395,-9.85
10407,-12.96
10418,-16.51
10429,-20.24
10441,-23.81
10453,-26.89
10465,-29.32
10477,-31.27
10489,-33.07
10501,-35.19
10513,-37.97
10525,-41.52
10537,-45.62
10549,-49.73
10561,-53.12
10573,-55.02
10585,-54.81
10597,-52.19
10608,-47.28
10619,-40.51
10631,-32.49
10643,-23.93
10655,-15.45
10667,-7.52
10679,-0.4
10691,5.8
10703,11.17
10715,15.75
10727,19.59
10739,22.69
10751,24.94
10763,26.3
10775,26.81
10787,26.64
10798,26.08
10809,25.47
10821,25.03
10833,24.92
10845,25.18
10857,25.71
10869,26.37
10881,26.96
10893,27.33
10905,27.33
10917,26.9
10929,26.02
10941,24.76
10953,23.28
10965,21.78
10977,20.43
10988,19.3
10999,18.24
11011,16.99
11023,15.26
11035,12.86
11047,9.87
11059,6.56
11071,3.29
11083,0.35
11095,-2.16
11107,-4.4
11119,-6.57
11131,-8.92
11143,-11.57
11155,-14.58
11167,-17.88
11178,-21.35
11189,-24.81
11201,-28.11
11213,-31.14
11225,-33.9
11237,-36.52
11249,-39.25
11261,-42.43
11273,-46.23
11285,-50.6
11297,-55.13
11309,-59.03
11321,-61.38
11333,-61.33
11345,-58.46
11357,-52.85
11368,-45.09
11379,-36.06
11391,-26.64
11403,-17.54
11415,-9.14
11427,-1.64
11439,4.91
11451,10.43
11463,14.81
11475,17.93
11487,19.77
11499,20.43
11511,20.12
11523,19.15
11535,17.79
11547,16.26
11558,14.71
11569,13.27
11581,12.15
11593,11.58
11605,11.73
11617,12.58
11629,13.88
11641,15.19
11653,16.12
11665,16.49
11677,16.4
11689,16.15
11701,16.0
11713,16.03
11725,16.07
11737,15.89
11748,15.31
11759,14.38
11771,13.3
11783,12.27
11795,11.37
11807,10.47
11819,9.37
11831,7.93
11843,6.17
11855,4.24
11867,2.31
11879,0.44
11891,-1.43
11903,-3.42
11915,-5.64
11927,-8.05
11938,-10.53
11949,-12.91
11961,-15.11
11973,-17.21
11985,-19.45
11997,-22.13
12009,-25.46
12021,-29.43
12033,-33.77
12045,-37.88
12057,-40.96
12069,-42.21
12081,-41.0
12093,-37.06
12105,-30.6
12117,-22.22
12128,-12.74
12139,-2.96
12151,6.49
12163,15.19
12175,22.9
12187,29.43
12199,34.6
12211,38.24
12223,40.35
12235,41.1
12247,40.89
12259,40.17
12271,39.38
12283,38.78
12295,38.43
12307,38.22
12318,37.95
12329,37.43
12341,36.58
12353,35.42
12365,34.07
12377,32.63
12389,31.2
12401,29.75
12413,28.19
12425,26.39
12437,24.28
12449,21.83
12461,19.06
12473,16.08
12485,12.96
12497,9.75
12508,6.52
12519,3.35
12531,0.38
12543,-2.3
12555,-4.65
12567,-6.72
12579,-8.68
12591,-10.75
12603,-13.15
12615,-15.99
12627,-19.26
12639,-22.79
12651,-26.39
12663,-29.83
12675,-32.97
12687,-35.84
12698,-38.53
12709,-41.23
12721,-44.07
12733,-47.14
12745,-50.37
12757,-53.55
12769,-56.35
12781,-58.3
12793,-58.86
12805,-57.58
12817,-54.11
12829,-48.4
12841,-40.74
12853,-31.72
12865,-22.11
12877,-12.69
12888,-4.09
12899,3.29
12911,9.37
12923,14.25
12935,18.1
12947,21.06
12959,23.16
12971,24.45
12983,25.03
12995,25.21
13007,25.46
13019,26.32
13031,28.09
13043,30.74
13055,33.85
13067,36.74
13078,38.86
13089,39.91
13101,39.94
13113,39.29
13125,38.35
13137,37.35
13149,36.35
13161,35.28
13173,34.04
13185,32.67
13197,31.23
13209,29.78
13221,28.34
13233,26.77
13245,24.92
13257,22.68
13268,20.02
13279,17.01
13291,13.75
13303,10.34
13315,6.86
13327,3.39
13339,0.04
13351,-3.07
13363,-5.88
13375,-8.42
13387,-10.84
13399,-13.35
13411,-16.21
13423,-19.57
13435,-23.49
13447,-27.86
13458,-32.45
13469,-36.82
13481,-40.41
13493,-42.53
13505,-42.58
13517,-40.19
13529,-35.37
13541,-28.6
13553,-20.63
13565,-12.28
13577,-4.24
13589,3.12
13601,9.66
13613,15.33
13625,20.06
13637,23.6
13648,25.7
13659,26.26
13671,25.43
13683,23.69
13695,21.7
13707,20.03
13719,18.96
13731,18.51
13743,18.47
13755,18.64
13767,18.94
13779,19.4
13791,20.09
13803,20.94
13815,21.74
13827,22.14
13838,21.89
13849,20.91
13861,19.31
13873,17.37
13885,15.35
13897,13.41
13909,11.59
13921,9.87
13933,8.17
13945,6.45
13957,4.65
13969,2.65
13981,0.33
13993,-2.45
14005,-5.73
14017,-9.43
14028,-13.36
14039,-17.23
14051,-20.84
14063,-24.03
14075,-26.85
14087,-29.42
14099,-31.97
14111,-34.81
14123,-38.26
14135,-42.49
14147,-47.48
14159,-52.78
14171,-57.62
14183,-61.01
14195,-61.99
14207,-60.0
14218,-55.0
14229,-47.5
14241,-38.35
14253,-28.45
14265,-18.56
14277,-9.21
14289,-0.74
14301,6.62
14313,12.71
14325,17.43
14337,20.85
14349,23.12
14361,24.51
14373,25.26
14385,25.59
14397,25.64
14408,25.54
14419,25.41
14431,25.38
14443,25.55
14455,25.92
14467,26.39
14479,26.82
14491,27.08
14503,27.06
14515,26.74
14527,26.16
14539,25.32
14551,24.23
14563,22.84
14575,21.14
14587,19.15
14598,16.94
14609,14.58
14621,12.19
14633,9.87
14645,7.62
14657,5.43
14669,3.21
14681,0.88
14693,-1.64
14705,-4.4
14717,-7.45
14729,-10.81
14741,-14.44
14753,-18.22
14765,-22.0
14777,-25.66
14788,-29.12
14799,-32.43
14811,-35.75
14823,-39.28
14835,-43.18
14847,-47.38
14859,-51.54
14871,-54.94
14883,-56.7
14895,-56.01
14907,-52.37
14919,-45.83
14931,-37.03
14943,-26.98
14955,-16.76
14967,-7.21
14978,1.19
14989,8.38
15001,14.47
15013,19.62
15025,23.92
15037,27.31
15049,29.73
15061,31.19
15073,31.81
15085,31.76
15097,31.36
15109,30.86
15121,30.48
15133,30.32
15145,30.34
15157,30.46
15168,30.58
15179,30.67
15191,30.71
15203,30.7
15215,30.55
15227,30.13
15239,29.36
15251,28.17
15263,26.61
15275,24.74
15287,22.67
15299,20.42
15311,17.98
15323,15.35
15335,12.53
15347,9.62
15358,6.7
15369,3.86
15381,1.1
15393,-1.65
15405,-4.49
15417,-7.47
15429,-10.59
15441,-13.81
15453,-16.95
15465,-19.93
15477,-22.69
15489,-25.31
15501,-28.02
15513,-31.1
15525,-34.8
15537,-39.17
15548,-44.03
15559,-48.89
15571,-53.06
15583,-55.77
15595,-56.31
15607,-54.31
15619,-49.68
15631,-42.73
15643,-34.02
15655,-24.26
15667,-14.21
15679,-4.57
15691,4.08
15703,11.39
15715,17.21
15727,21.61
15738,24.78
15749,26.92
15761,28.19
15773,28.68
15785,28.48
15797,27.73
15809,26.69
15821,25.66
15833,24.92
15845,24.58
15857,24.65
15869,25.02
15881,25.56
15893,26.16
15905,26.66
15917,26.95
15928,26.87
15939,26.3
15951,25.25
15963,23.81
15975,22.16
15987,20.51
15999,19.0
16011,17.6
16023,16.19
16035,14.5
16047,12.32
16059,9.59
16071,6.43
16083,3.13
16095,-0.01
16107,-2.82
16118,-5.35
16129,-7.8
16141,-10.43
16153,-13.35
16165,-16.51
16177,-19.71
16189,-22.71
16201,-25.39
16213,-27.79
16225,-30.09
16237,-32.52
16249,-35.28
16261,-38.56
16273,-42.34
16285,-46.44
16297,-50.33
16308,-53.19
16319,-54.08
16331,-52.22
16343,-47.28
16355,-39.6
16367,-30.03
16379,-19.65
16391,-9.48
16403,-0.15
16415,8.08
16427,15.15
16439,21.07
16451,25.69
16463,28.83
16475,30.38
16487,30.51
16498,29.68
16509,28.52
16521,27.6
16533,27.27
16545,27.5
16557,28.02
16569,28.46
16581,28.57
16593,28.3
16605,27.75
16617,27.09
16629,26.41
16641,25.71
16653,24.87
16665,23.81
16677,22.55
16688,21.17
16699,19.77
16711,18.4
16723,17.0
16735,15.37
16747,13.35
16759,10.8
16771,7.79
16783,4.54
16795,1.35
16807,-1.49
16819,-3.87
16831,-5.85
16843,-7.64
16855,-9.51
16867,-11.62
16878,-14.01
16889,-16.53
16901,-19.03
16913,-21.38
16925,-23.66
16937,-26.09
16949,-29.04
16961,-32.84
16973,-37.52
16985,-42.76
16997,-47.74
17009,-51.42
17021,-52.75
17033,-51.06
17045,-46.3
17057,-38.98
17068,-30.03
17079,-20.41
17091,-10.89
17103,-1.91
17115,6.24
17127,13.47
17139,19.63
17151,24.53
17163,28.07
17175,30.31
17187,31.49
17199,31.91
17211,31.93
17223,31.71
17235,31.34
17247,30.78
17258,30.0
17269,29.08
17281,28.15
17293,27.4
17305,26.94
17317,26.82
17329,26.87
17341,26.82
17353,26.42
17365,25.45
17377,23.91
17389,21.91
17401,19.67
17413,17.37
17425,15.12
17437,12.84
17448,10.41
17459,7.74
17471,4.84
17483,1.84
17495,-1.1
17507,-3.86
17519,-6.45
17531,-8.95
17543,-11.52
17555,-14.21
17567,-16.96
17579,-19.63
17591,-22.04
17603,-24.11
17615,-25.89
17627,-27.56
17638,-29.38
17649,-31.6
17661,-34.37
17673,-37.79
17685,-41.85
17697,-46.36
17709,-50.9
17721,-54.8
17733,-57.15
17745,-57.11
17757,-54.11
17769,-48.1
17781,-39.59
17793,-29.49
17805,-18.84
17817,-8.5
17828,0.95
17839,9.25
17851,16.34
17863,22.26
17875,27.04
17887,30.71
17899,33.36
17911,35.06
17923,35.99
17935,36.33
17947,36.3
17959,36.13
17971,35.95
17983,35.86
17995,35.83
18007,35.8
18018,35.64
18029,35.22
18041,34.5
18053,33.47
18065,32.22
18077,30.88
18089,29.57
18101,28.35
18113,27.24
18125,26.14
18137,24.94
18149,23.5
18161,21.77
18173,19.78
18185,17.55
18197,15.11
18208,12.47
18219,9.63
18231,6.64
18243,3.63
18255,0.81
18267,-1.63
18279,-3.65
18291,-5.37
18303,-7.05
18315,-8.9
18327,-10.99
18339,-13.25
18351,-15.5
18363,-17.63
18375,-19.7
18387,-21.98
18398,-24.78
18409,-28.38
18421,-32.79
18433,-37.72
18445,-42.57
18457,-46.55
18469,-48.84
18481,-48.83
18493,-46.22
18505,-41.16
18517,-34.2
18529,-26.15
18541,-17.85
18553,-9.93
18565,-2.75
18577,3.57
18588,9.07
18599,13.74
18611,17.53
18623,20.36
18635,22.18
18647,23.11
18659,23.4
18671,23.42
18683,23.5
18695,23.82
18707,24.45
18719,25.27
18731,26.13
18743,26.87
18755,27.39
18767,27.62
18778,27.54
18789,27.13
18801,26.37
18813,25.29
18825,23.89
18837,22.24
18849,20.42
18861,18.6
18873,16.86
18885,15.24
18897,13.62
18909,11.83
18921,9.68
18933,7.11
18945,4.22
18957,1.25
18968,-1.54
18979,-4.03
18991,-6.25
19003,-8.38
19015,-10.63
19027,-13.17
19039,-16.08
19051,-19.34
19063,-22.82
19075,-26.37
19087,-29.76
19099,-32.79
19111,-35.38
19123,-37.58
19135,-39.65
19147,-41.91
19158,-44.7
19169,-48.1
19181,-51.97
19193,-55.82
19205,-58.91
19217,-60.48
19229,-59.84
19241,-56.57
19253,-50.66
19265,-42.5
19277,-32.85
19289,-22.64
19301,-12.72
19313,-3.65
19325,4.29
19337,11.12
19348,16.96
19359,21.89
19371,25.88
19383,28.83
19395,30.64
19407,31.4
19419,31.35
19431,30.86
19443,30.29
19455,29.87
19467,29.68
19479,29.69
19491,29.86
19503,30.18
19515,30.62
19527,31.1
19538,31.5
19549,31.69
19561,31.61
19573,31.23
19585,30.66
19597,29.99
19609,29.28
19621,28.47
19633,27.46
19645,26.08
19657,24.27
19669,22.04
19681,19.44
19693,16.62
19705,13.75
19717,11.03
19728,8.66
19739,6.77
19751,5.32
19763,4.13
19775,2.85
19787,1.11
19799,-1.34
19811,-4.58
19823,-8.44
19835,-12.54
19847,-16.5
19859,-20.05
19871,-23.15
19883,-25.96
19895,-28.85
19907,-32.15
19918,-36.12
19929,-40.69
19941,-45.5
19953,-49.83
19965,-52.85
19977,-53.75
19989,-51.97
20001,-47.45
20013,-40.53
20025,-31.99
20037,-22.73
20049,-13.6
20061,-5.23
20073,2.05
20085,8.19
20097,13.18
20108,17.06
20119,19.87
20131,21.64
20143,22.48
20155,22.63
20167,22.45
20179,22.27
20191,22.28
20203,22.49
20215,22.74
20227,22.86
20239,22.73
20251,22.43
20263,22.13
20275,22.01
20287,22.13
20298,22.39
20309,22.59
20321,22.52
20333,22.09
20345,21.33
20357,20.33
20369,19.26
20381,18.22
20393,17.24
20405,16.25
20417,15.14
20429,13.74
20441,11.91
20453,9.59
20465,6.84
20477,3.84
20488,0.85
20499,-1.96
20511,-4.51
20523,-6.9
20535,-9.34
20547,-11.98
20559,-14.89
20571,-17.99
20583,-21.03
20595,-23.8
20607,-26.14
20619,-28.06
20631,-29.75
20643,-31.56
20655,-33.88
20667,-37.07
20678,-41.23
20689,-46.14
20701,-51.23
20713,-55.6
20725,-58.27
20737,-58.44
20749,-55.7
20761,-50.14
20773,-42.32
20785,-33.05
20797,-23.21
20809,-13.52
20821,-4.47
20833,3.69
20845,10.85
20857,16.95
20868,21.96
20879,25.83
20891,28.57
20903,30.24
20915,30.95
20927,30.89
20939,30.32
20951,29.52
20963,28.78
20975,28.34
20987,28.33
20999,28.73
