seconds,BVP
2,-8.07
14,-6.08
26,-3.81
38,-1.6
50,0.28
62,1.67
74,2.55
86,3.01
98,3.18
110,3.22
121,3.2
132,3.21
144,3.28
156,3.47
168,3.85
180,4.43
192,5.18
204,6.01
216,6.79
228,7.39
240,7.73
252,7.81
264,7.65
276,7.35
288,6.98
300,6.6
311,6.24
322,5.9
334,5.57
346,5.24
358,4.87
370,4.43
382,3.84
394,3.1
406,2.28
418,1.55
430,1.13
442,1.23
454,1.88
466,2.96
478,4.22
490,5.41
501,6.38
512,7.11
524,7.64
536,8.03
548,8.29
560,8.37
572,8.29
584,8.09
596,7.88
608,7.75
620,7.71
632,7.69
644,7.61
656,7.39
668,7.06
680,6.67
691,6.3
702,5.98
714,5.68
726,5.41
738,5.15
750,4.89
762,4.61
774,4.24
786,3.69
798,2.9
810,1.9
822,0.78
834,-0.33
846,-1.32
858,-2.13
870,-2.77
881,-3.22
892,-3.42
904,-3.27
916,-2.73
928,-1.83
940,-0.74
952,0.34
964,1.24
976,1.93
988,2.53
1000,3.18
1012,3.95
1024,4.78
1036,5.45
1048,5.75
1060,5.6
1071,5.1
1082,4.55
1094,4.21
1106,4.25
1118,4.6
1130,5.05
1142,5.35
1154,5.34
1166,5.01
1178,4.49
1190,3.89
1202,3.31
1214,2.77
1226,2.25
1238,1.77
1250,1.31
1261,0.85
1272,0.33
1284,-0.32
1296,-1.15
1308,-2.13
1320,-3.12
1332,-3.94
1344,-4.41
1356,-4.43
1368,-3.99
1380,-3.16
1392,-2.01
1404,-0.63
1416,0.86
1428,2.33
1440,3.62
1451,4.62
1462,5.27
1474,5.58
1486,5.63
1498,5.52
1510,5.32
1522,5.07
1534,4.81
1546,4.58
1558,4.44
1570,4.42
1582,4.52
1594,4.68
1606,4.79
1618,4.78
1630,4.62
1641,4.29
1652,3.83
1664,3.22
1676,2.48
1688,1.62
1700,0.69
1712,-0.19
1724,-0.89
1736,-1.33
1748,-1.5
1760,-1.53
1772,-1.6
1784,-1.88
1796,-2.44
1808,-3.19
1820,-3.9
1831,-4.32
1842,-4.27
1854,-3.69
1866,-2.71
1878,-1.49
1890,-0.24
1902,0.91
1914,1.87
1926,2.65
1938,3.25
1950,3.67
1962,3.95
1974,4.13
1986,4.27
1998,4.38
2010,4.44
2021,4.4
2032,4.21
2044,3.87
2056,3.43
2068,2.96
2080,2.52
2092,2.13
2104,1.77
2116,1.41
2128,1.08
2140,0.82
2152,0.69
2164,0.67
2176,0.68
2188,0.59
2200,0.3
2211,-0.17
2222,-0.71
2234,-1.16
2246,-1.42
2258,-1.55
2270,-1.73
2282,-2.11
2294,-2.8
2306,-3.69
2318,-4.54
2330,-5.06
2342,-5.05
2354,-4.48
2366,-3.46
2378,-2.22
2390,-0.98
2401,0.11
2412,1.0
2424,1.66
2436,2.11
2448,2.38
2460,2.49
2472,2.49
2484,2.44
2496,2.4
2508,2.38
2520,2.36
2532,2.29
2544,2.17
2556,2.02
2568,1.89
2580,1.81
2591,1.79
2602,1.77
2614,1.7
2626,1.58
2638,1.47
2650,1.43
2662,1.5
2674,1.62
2686,1.71
2698,1.66
2710,1.43
2722,1.02
2734,0.48
2746,-0.14
2758,-0.82
2770,-1.55
2781,-2.32
2792,-3.13
2804,-3.92
2816,-4.62
2828,-5.12
2840,-5.29
2852,-5.01
2864,-4.23
2876,-3.01
2888,-1.51
2900,0.01
2912,1.33
2924,2.29
2936,2.89
2948,3.24
2960,3.48
2971,3.66
2982,3.8
2994,3.81
3006,3.66
3018,3.38
3030,3.07
3042,2.86
3054,2.83
3066,2.94
3078,3.1
3090,3.21
3102,3.19
3114,3.04
3126,2.77
3138,2.39
3150,1.89
3161,1.27
3172,0.58
3184,-0.12
3196,-0.73
3208,-1.23
3220,-1.69
3232,-2.21
3244,-2.9
3256,-3.8
3268,-4.79
3280,-5.74
3292,-6.42
3304,-6.7
3316,-6.52
3328,-5.89
3340,-4.91
3351,-3.72
3362,-2.46
3374,-1.26
3386,-0.23
3398,0.6
3410,1.25
3422,1.76
3434,2.18
3446,2.53
3458,2.79
3470,2.94
3482,2.97
3494,2.87
3506,2.67
3518,2.44
3530,2.24
3541,2.08
3552,1.97
3564,1.85
3576,1.67
3588,1.4
3600,1.07
3612,0.78
3624,0.59
3636,0.52
3648,0.51
3660,0.42
3672,0.15
3684,-0.34
3696,-0.99
3708,-1.69
3720,-2.31
3731,-2.81
3742,-3.19
3754,-3.46
3766,-3.6
3778,-3.53
3790,-3.17
3802,-2.44
3814,-1.41
3826,-0.21
3838,0.96
3850,1.9
3862,2.53
3874,2.85
3886,2.96
3898,2.96
3910,2.91
3921,2.81
3932,2.64
3944,2.38
3956,2.1
3968,1.9
3980,1.88
3992,2.05
4004,2.31
4016,2.52
4028,2.52
4040,2.25
4052,1.79
4064,1.28
4076,0.88
4088,0.64
4100,0.51
4111,0.37
4122,0.13
4134,-0.22
4146,-0.6
4158,-0.93
4170,-1.13
4182,-1.23
4194,-1.3
4206,-1.44
4218,-1.68
4230,-1.97
4242,-2.17
4254,-2.16
4266,-1.87
4278,-1.31
4290,-0.59
4301,0.17
4312,0.88
4324,1.48
4336,1.94
4348,2.25
4360,2.4
4372,2.4
4384,2.25
4396,1.98
4408,1.62
4420,1.24
4432,0.89
4444,0.64
4456,0.51
4468,0.45
4480,0.36
4491,0.12
4502,-0.34
4514,-0.97
4526,-1.65
4538,-2.15
4550,-2.33
4562,-2.16
4574,-1.78
4586,-1.39
4598,-1.18
4610,-1.23
4622,-1.51
4634,-1.92
4646,-2.35
4658,-2.74
4670,-3.06
4681,-3.28
4692,-3.37
4704,-3.24
4716,-2.84
4728,-2.2
4740,-1.38
4752,-0.53
4764,0.22
4776,0.8
4788,1.19
4800,1.43
4812,1.55
4824,1.57
4836,1.51
4848,1.4
4860,1.27
4871,1.16
4882,1.06
4894,0.93
4906,0.75
4918,0.53
4930,0.35
4942,0.27
4954,0.31
4966,0.34
4978,0.22
4990,-0.17
5002,-0.78
5014,-1.44
5026,-1.93
5038,-2.12
5050,-2.06
5061,-1.9
5072,-1.84
5084,-1.97
5096,-2.25
5108,-2.58
5120,-2.87
5132,-3.08
5144,-3.18
5156,-3.12
5168,-2.8
5180,-2.13
5192,-1.12
5204,0.09
5216,1.3
5228,2.29
5240,2.97
5251,3.35
5262,3.54
5274,3.66
5286,3.75
5298,3.79
5310,3.72
5322,3.55
5334,3.34
5346,3.2
5358,3.19
5370,3.33
5382,3.52
5394,3.6
5406,3.45
5418,3.04
5430,2.46
5441,1.89
5452,1.49
5464,1.32
5476,1.31
5488,1.36
5500,1.34
5512,1.19
5524,0.93
5536,0.59
5548,0.22
5560,-0.16
5572,-0.52
5584,-0.84
5596,-1.06
5608,-1.08
5620,-0.86
5631,-0.37
5642,0.31
5654,1.1
5666,1.89
5678,2.64
5690,3.3
5702,3.89
5714,4.38
5726,4.73
5738,4.88
5750,4.78
5762,4.44
5774,3.92
5786,3.38
5798,2.98
5810,2.82
5821,2.93
5832,3.19
5844,3.45
5856,3.59
5868,3.54
5880,3.36
5892,3.11
5904,2.86
5916,2.57
5928,2.19
5940,1.66
5952,0.99
5964,0.28
5976,-0.39
5988,-0.94
6000,-1.44
6011,-1.98
6022,-2.6
6034,-3.3
6046,-3.93
6058,-4.36
6070,-4.48
6082,-4.28
6094,-3.85
6106,-3.31
6118,-2.78
6130,-2.3
6142,-1.91
6154,-1.61
6166,-1.39
6178,-1.28
6190,-1.27
6201,-1.35
6212,-1.48
6224,-1.57
6236,-1.59
6248,-1.51
6260,-1.36
6272,-1.21
6284,-1.06
6296,-0.87
6308,-0.56
6320,-0.07
6332,0.56
6344,1.17
6356,1.56
6368,1.6
6380,1.28
6391,0.8
6402,0.37
6414,0.2
6426,0.28
6438,0.45
6450,0.47
6462,0.16
6474,-0.46
6486,-1.2
6498,-1.79
6510,-2.04
6522,-1.87
6534,-1.36
6546,-0.62
6558,0.24
6570,1.2
6581,2.28
6592,3.45
6604,4.59
6616,5.57
6628,6.26
6640,6.63
6652,6.75
6664,6.74
6676,6.71
6688,6.72
6700,6.75
6712,6.76
6724,6.72
6736,6.62
6748,6.52
6760,6.44
6771,6.39
6782,6.35
6794,6.26
6806,6.11
6818,5.91
6830,5.67
6842,5.39
6854,5.03
6866,4.54
6878,3.88
6890,3.09
6902,2.24
6914,1.46
6926,0.81
6938,0.32
6950,-0.04
6961,-0.32
6972,-0.53
6984,-0.64
6996,-0.65
7008,-0.63
7020,-0.64
7032,-0.71
7044,-0.84
7056,-0.9
7068,-0.81
7080,-0.55
7092,-0.23
7104,-0.01
7116,-0.08
7128,-0.47
7140,-1.13
7151,-1.94
7162,-2.81
7174,-3.74
7186,-4.74
7198,-5.83
7210,-6.9
7222,-7.77
7234,-8.27
7246,-8.32
7258,-8.01
7270,-7.51
7282,-7.04
7294,-6.75
7306,-6.63
7318,-6.62
7330,-6.61
7341,-6.53
7352,-6.34
7364,-6.08
7376,-5.78
7388,-5.5
7400,-5.27
7412,-5.13
7424,-5.06
7436,-5.03
7448,-4.97
7460,-4.84
7472,-4.65
7484,-4.47
7496,-4.38
7508,-4.39
7520,-4.42
7531,-4.28
7542,-3.83
7554,-3.03
7566,-2.02
7578,-1.02
7590,-0.2
7602,0.41
7614,0.9
7626,1.44
7638,2.11
7650,2.86
7662,3.51
7674,3.87
7686,3.85
7698,3.52
7710,2.99
7721,2.43
7732,1.91
7744,1.48
7756,1.17
7768,0.99
7780,0.97
7792,1.09
7804,1.27
7816,1.41
7828,1.42
7840,1.24
7852,0.91
7864,0.53
7876,0.15
7888,-0.18
7900,-0.45
7911,-0.67
7922,-0.84
7934,-1.0
7946,-1.21
7958,-1.55
7970,-2.06
7982,-2.72
7994,-3.39
8006,-3.93
8018,-4.2
8030,-4.15
8042,-3.81
8054,-3.31
8066,-2.75
8078,-2.23
8090,-1.78
8101,-1.39
8112,-1.02
8124,-0.65
8136,-0.27
8148,0.08
8160,0.32
8172,0.4
8184,0.28
8196,0.03
8208,-0.24
8220,-0.43
8232,-0.43
8244,-0.23
8256,0.13
8268,0.56
8280,0.93
8291,1.14
8302,1.13
8314,0.92
8326,0.56
8338,0.14
8350,-0.24
8362,-0.54
8374,-0.7
8386,-0.73
8398,-0.68
8410,-0.61
8422,-0.66
8434,-0.93
8446,-1.49
8458,-2.29
8470,-3.2
8481,-4.02
8492,-4.57
8504,-4.77
8516,-4.6
8528,-4.12
8540,-3.38
8552,-2.43
8564,-1.34
8576,-0.22
8588,0.81
8600,1.6
8612,2.09
8624,2.27
8636,2.23
8648,2.05
8660,1.82
8671,1.62
8682,1.47
8694,1.43
8706,1.48
8718,1.59
8730,1.67
8742,1.65
8754,1.5
8766,1.24
8778,0.98
8790,0.8
8802,0.75
8814,0.8
8826,0.9
8838,0.96
8850,0.89
8861,0.63
8872,0.15
8884,-0.52
8896,-1.31
8908,-2.02
8920,-2.47
8932,-2.56
8944,-2.31
8956,-1.91
8968,-1.59
8980,-1.56
8992,-1.85
9004,-2.39
9016,-3.0
9028,-3.51
9040,-3.82
9051,-3.87
9062,-3.66
9074,-3.21
9086,-2.58
9098,-1.88
9110,-1.21
9122,-0.66
9134,-0.28
9146,-0.03
9158,0.2
9170,0.46
9182,0.81
9194,1.21
9206,1.6
9218,1.91
9230,2.09
9241,2.15
9252,2.1
9264,2.02
9276,1.97
9288,2.0
9300,2.18
9312,2.52
9324,3.02
9336,3.58
9348,4.11
9360,4.49
9372,4.7
9384,4.79
9396,4.87
9408,5.03
9420,5.3
9431,5.59
9442,5.72
9454,5.58
9466,5.12
9478,4.47
9490,3.82
9502,3.36
9514,3.22
9526,3.36
9538,3.63
9550,3.83
9562,3.78
9574,3.38
9586,2.67
9598,1.8
9610,0.94
9621,0.22
9632,-0.29
9644,-0.64
9656,-0.87
9668,-1.04
9680,-1.12
9692,-1.07
9704,-0.83
9716,-0.38
9728,0.2
9740,0.85
9752,1.52
9764,2.22
9776,3.0
9788,3.89
9800,4.83
9811,5.67
9822,6.21
9834,6.38
9846,6.18
9858,5.76
9870,5.3
9882,4.95
9894,4.76
9906,4.67
9918,4.6
9930,4.5
9942,4.38
9954,4.32
9966,4.36
9978,4.49
9990,4.63
10001,4.67
10012,4.52
10024,4.14
10036,3.55
10048,2.8
10060,1.96
10072,1.08
10084,0.2
10096,-0.66
10108,-1.46
10120,-2.19
10132,-2.83
10144,-3.33
10156,-3.69
10168,-3.89
10180,-3.92
10191,-3.81
10202,-3.62
10214,-3.41
10226,-3.28
10238,-3.3
10250,-3.48
10262,-3.79
10274,-4.12
10286,-4.41
10298,-4.59
10310,-4.68
10322,-4.74
10334,-4.84
10346,-4.97
10358,-5.1
10370,-5.12
10381,-4.94
10392,-4.51
10404,-3.86
10416,-3.08
10428,-2.29
10440,-1.59
10452,-1.06
10464,-0.75
10476,-0.64
10488,-0.71
10500,-0.84
10512,-0.9
10524,-0.79
10536,-0.44
10548,0.09
10560,0.69
10571,1.21
10582,1.55
10594,1.7
10606,1.71
10618,1.67
10630,1.63
10642,1.6
10654,1.56
10666,1.46
10678,1.33
10690,1.18
10702,1.03
10714,0.91
10726,0.79
10738,0.63
10750,0.41
10761,0.12
10772,-0.24
10784,-0.63
10796,-0.99
10808,-1.25
10820,-1.37
10832,-1.33
10844,-1.18
10856,-1.02
10868,-0.96
10880,-1.09
10892,-1.43
10904,-1.93
10916,-2.49
10928,-3.03
10940,-3.44
10951,-3.7
10962,-3.79
10974,-3.72
10986,-3.52
10998,-3.24
11010,-2.9
11022,-2.52
11034,-2.09
11046,-1.62
11058,-1.13
11070,-0.66
11082,-0.25
11094,0.1
11106,0.4
11118,0.72
11130,1.09
11141,1.52
11152,1.94
11164,2.26
11176,2.39
11188,2.29
11200,1.99
11212,1.56
11224,1.15
11236,0.85
11248,0.73
11260,0.76
11272,0.86
11284,0.95
11296,0.95
11308,0.89
11320,0.8
11331,0.72
11342,0.64
11354,0.52
11366,0.3
11378,0.01
11390,-0.3
11402,-0.51
11414,-0.6
11426,-0.56
11438,-0.5
11450,-0.51
11462,-0.65
11474,-0.92
11486,-1.28
11498,-1.68
11510,-2.1
11521,-2.52
11532,-2.94
11544,-3.35
11556,-3.7
11568,-3.9
11580,-3.9
11592,-3.65
11604,-3.18
11616,-2.54
11628,-1.82
11640,-1.1
11652,-0.45
11664,0.12
11676,0.58
11688,0.93
11700,1.16
11711,1.25
11722,1.27
11734,1.28
11746,1.35
11758,1.52
11770,1.75
11782,1.96
11794,2.08
11806,2.07
11818,1.98
11830,1.9
11842,1.91
11854,2.04
11866,2.26
11878,2.48
11890,2.63
11901,2.68
11912,2.62
11924,2.44
11936,2.15
11948,1.74
11960,1.2
11972,0.6
11984,0.02
11996,-0.41
12008,-0.64
12020,-0.72
12032,-0.75
12044,-0.88
12056,-1.17
12068,-1.58
12080,-2.02
12091,-2.41
12102,-2.68
12114,-2.86
12126,-2.97
12138,-3.0
12150,-2.85
12162,-2.44
12174,-1.71
12186,-0.72
12198,0.35
12210,1.28
12222,1.89
12234,2.11
12246,1.99
12258,1.65
12270,1.21
12281,0.76
12292,0.35
12304,0.04
12316,-0.13
12328,-0.1
12340,0.16
12352,0.61
12364,1.11
12376,1.53
12388,1.72
12400,1.65
12412,1.39
12424,1.08
12436,0.85
12448,0.76
12460,0.78
12471,0.81
12482,0.72
12494,0.45
12506,0.02
12518,-0.47
12530,-0.91
12542,-1.18
12554,-1.29
12566,-1.28
12578,-1.28
12590,-1.38
12602,-1.62
12614,-2.01
12626,-2.5
12638,-3.06
12650,-3.61
12661,-4.11
12672,-4.43
12684,-4.5
12696,-4.23
12708,-3.63
12720,-2.81
12732,-1.91
12744,-1.07
12756,-0.36
12768,0.19
12780,0.63
12792,0.97
12804,1.18
12816,1.22
12828,1.05
12840,0.72
12851,0.35
12862,0.08
12874,0.0
12886,0.11
12898,0.31
12910,0.47
12922,0.48
12934,0.36
12946,0.15
12958,-0.05
12970,-0.2
12982,-0.29
12994,-0.41
13006,-0.59
13018,-0.86
13030,-1.16
13041,-1.42
13052,-1.57
13064,-1.58
13076,-1.47
13088,-1.32
13100,-1.2
13112,-1.2
13124,-1.39
13136,-1.78
13148,-2.36
13160,-3.01
13172,-3.58
13184,-3.89
13196,-3.83
13208,-3.38
13220,-2.65
13231,-1.79
13242,-0.96
13254,-0.27
13266,0.24
13278,0.59
13290,0.84
13302,1.02
13314,1.16
13326,1.23
13338,1.23
13350,1.18
13362,1.12
13374,1.09
13386,1.13
13398,1.22
13410,1.3
13421,1.3
13432,1.17
13444,0.93
13456,0.68
13468,0.53
13480,0.53
13492,0.65
13504,0.76
13516,0.73
13528,0.51
13540,0.13
13552,-0.3
13564,-0.71
13576,-1.09
13588,-1.49
13600,-1.95
13611,-2.45
13622,-2.93
13634,-3.32
13646,-3.59
13658,-3.79
13670,-3.94
13682,-4.04
13694,-4.0
13706,-3.71
13718,-3.1
13730,-2.24
13742,-1.26
13754,-0.34
13766,0.39
13778,0.88
13790,1.17
13801,1.3
13812,1.33
13824,1.32
13836,1.31
13848,1.32
13860,1.35
13872,1.38
13884,1.38
13896,1.33
13908,1.27
13920,1.26
13932,1.3
13944,1.39
13956,1.41
13968,1.27
13980,0.93
13991,0.47
14002,0.05
14014,-0.18
14026,-0.17
14038,-0.02
14050,0.11
14062,0.01
14074,-0.41
14086,-1.12
14098,-2.0
14110,-2.92
14122,-3.76
14134,-4.46
14146,-4.94
14158,-5.12
14170,-4.89
14181,-4.2
14192,-3.13
14204,-1.87
14216,-0.65
14228,0.36
14240,1.11
14252,1.68
14264,2.17
14276,2.67
14288,3.16
14300,3.57
14312,3.84
14324,3.93
14336,3.88
14348,3.76
14360,3.62
14371,3.54
14382,3.54
14394,3.61
14406,3.73
14418,3.81
14430,3.78
14442,3.62
14454,3.35
14466,3.05
14478,2.76
14490,2.5
14502,2.22
14514,1.82
14526,1.26
14538,0.51
14550,-0.37
14561,-1.3
14572,-2.21
14584,-3.06
14596,-3.84
14608,-4.55
14620,-5.18
14632,-5.72
14644,-6.14
14656,-6.44
14668,-6.61
14680,-6.63
14692,-6.5
14704,-6.18
14716,-5.62
14728,-4.78
14740,-3.66
14751,-2.3
14762,-0.84
14774,0.59
14786,1.86
14798,2.92
14810,3.74
14822,4.37
14834,4.83
14846,5.16
14858,5.4
14870,5.6
14882,5.81
14894,6.1
14906,6.49
14918,7.0
14930,7.57
14941,8.19
14952,8.83
14964,9.48
14976,10.1
14988,10.66
15000,11.16
15012,11.6
15024,12.05
15036,12.59
15048,13.29
15060,14.17
15072,15.21
15084,16.35
15096,17.52
15108,18.64
15120,19.6
15131,20.23
15142,20.35
15154,19.79
15166,18.49
15178,16.52
15190,14.07
15202,11.35
15214,8.51
15226,5.57
15238,2.48
15250,-0.78
15262,-4.12
15274,-7.33
15286,-10.11
15298,-12.24
15310,-13.64
15321,-14.42
15332,-14.82
15344,-15.06
15356,-15.31
15368,-15.6
15380,-15.83
15392,-15.93
15404,-15.8
15416,-15.47
15428,-14.96
15440,-14.33
15452,-13.63
15464,-12.91
15476,-12.25
15488,-11.75
15500,-11.44
15511,-11.36
15522,-11.45
15534,-11.65
15546,-11.87
15558,-12.05
15570,-12.14
15582,-12.04
15594,-11.65
15606,-10.83
15618,-9.56
15630,-7.9
15642,-6.02
15654,-4.14
15666,-2.41
15678,-0.9
15690,0.42
15701,1.64
15712,2.78
15724,3.85
15736,4.84
15748,5.69
15760,6.36
15772,6.79
15784,6.88
15796,6.56
15808,5.76
15820,4.53
15832,3.02
15844,1.48
15856,0.21
15868,-0.55
15880,-0.7
15891,-0.34
15902,0.26
15914,0.74
15926,0.81
15938,0.34
15950,-0.58
15962,-1.64
15974,-2.5
15986,-2.87
15998,-2.63
16010,-1.86
16022,-0.72
16034,0.63
16046,2.07
16058,3.56
16070,5.05
16081,6.45
16092,7.57
16104,8.23
16116,8.27
16128,7.69
16140,6.63
16152,5.4
16164,4.29
16176,3.55
16188,3.25
16200,3.32
16212,3.62
16224,4.0
16236,4.38
16248,4.74
16260,5.13
16271,5.55
16282,5.95
16294,6.24
16306,6.38
16318,6.35
16330,6.22
16342,6.04
16354,5.84
16366,5.59
16378,5.19
16390,4.57
16402,3.72
16414,2.68
16426,1.52
16438,0.35
16450,-0.77
16461,-1.81
16472,-2.78
16484,-3.74
16496,-4.75
16508,-5.85
16520,-7.06
16532,-8.32
16544,-9.49
16556,-10.4
16568,-10.9
16580,-10.91
16592,-10.44
16604,-9.59
16616,-8.47
16628,-7.23
16640,-5.94
16651,-4.72
16662,-3.69
16674,-2.99
16686,-2.73
16698,-2.95
16710,-3.56
16722,-4.34
16734,-5.08
16746,-5.63
16758,-5.95
16770,-6.13
16782,-6.29
16794,-6.49
16806,-6.74
16818,-6.98
16830,-7.18
16841,-7.34
16852,-7.52
16864,-7.77
16876,-8.09
16888,-8.41
16900,-8.66
16912,-8.79
16924,-8.84
16936,-8.86
16948,-8.9
16960,-8.97
16972,-9.01
16984,-8.95
16996,-8.74
17008,-8.4
17020,-7.97
17031,-7.5
17042,-6.99
17054,-6.45
17066,-5.82
17078,-5.07
17090,-4.15
17102,-3.02
17114,-1.66
17126,-0.1
17138,1.55
17150,3.1
17162,4.35
17174,5.14
17186,5.41
17198,5.27
17210,4.92
17221,4.6
17232,4.5
17244,4.7
17256,5.17
17268,5.81
17280,6.49
17292,7.13
17304,7.7
17316,8.22
17328,8.72
17340,9.2
17352,9.67
17364,10.16
17376,10.67
17388,11.21
17400,11.73
17411,12.11
17422,12.23
17434,11.97
17446,11.34
17458,10.46
17470,9.53
17482,8.72
17494,8.16
17506,7.85
17518,7.67
17530,7.49
17542,7.16
17554,6.59
17566,5.72
17578,4.56
17590,3.2
17601,1.78
17612,0.46
17624,-0.67
17636,-1.62
17648,-2.5
17660,-3.51
17672,-4.77
17684,-6.29
17696,-7.9
17708,-9.38
17720,-10.5
17732,-11.16
17744,-11.4
17756,-11.35
17768,-11.16
17780,-10.88
17791,-10.51
17802,-9.99
17814,-9.33
17826,-8.6
17838,-7.88
17850,-7.23
17862,-6.63
17874,-5.96
17886,-5.1
17898,-3.99
17910,-2.67
17922,-1.28
17934,-0.0
17946,1.05
17958,1.78
17970,2.16
17981,2.19
17992,1.9
18004,1.39
18016,0.8
18028,0.29
18040,-0.0
18052,-0.05
18064,0.09
18076,0.35
18088,0.71
18100,1.17
18112,1.76
18124,2.45
18136,3.17
18148,3.82
18160,4.31
18171,4.66
18182,4.94
18194,5.28
18206,5.78
18218,6.46
18230,7.23
18242,7.9
18254,8.3
18266,8.27
18278,7.78
18290,6.93
18302,5.91
18314,4.97
18326,4.31
18338,4.04
18350,4.15
18361,4.54
18372,5.06
18384,5.54
18396,5.82
18408,5.78
18420,5.31
18432,4.41
18444,3.08
18456,1.41
18468,-0.5
18480,-2.52
18492,-4.51
18504,-6.29
18516,-7.65
18528,-8.4
18540,-8.45
18551,-7.84
18562,-6.79
18574,-5.62
18586,-4.6
18598,-3.87
18610,-3.39
18622,-3.0
18634,-2.57
18646,-2.03
18658,-1.49
18670,-1.09
18682,-0.97
18694,-1.16
18706,-1.59
18718,-2.15
18730,-2.73
18741,-3.27
18752,-3.75
18764,-4.2
18776,-4.67
18788,-5.15
18800,-5.64
18812,-6.09
18824,-6.43
18836,-6.6
18848,-6.57
18860,-6.36
18872,-6.02
18884,-5.62
18896,-5.15
18908,-4.64
18920,-4.07
18931,-3.45
18942,-2.77
18954,-2.04
18966,-1.22
18978,-0.29
18990,0.74
19002,1.77
19014,2.61
19026,3.07
19038,3.05
19050,2.65
19062,2.1
19074,1.76
19086,1.88
19098,2.56
19110,3.7
19121,5.03
19132,6.26
19144,7.16
19156,7.66
19168,7.77
19180,7.62
19192,7.35
19204,7.1
19216,6.93
19228,6.88
19240,6.93
19252,7.03
19264,7.17
19276,7.33
19288,7.54
19300,7.78
19311,8.02
19322,8.23
19334,8.4
19346,8.58
19358,8.85
19370,9.15
19382,9.33
19394,9.07
19406,8.05
19418,6.09
19430,3.31
19442,0.09
19454,-3.07
19466,-5.73
19478,-7.63
19490,-8.69
19501,-8.99
19512,-8.68
19524,-7.92
19536,-6.87
19548,-5.71
19560,-4.61
19572,-3.72
19584,-3.1
19596,-2.7
19608,-2.4
19620,-2.05
19632,-1.55
19644,-0.91
19656,-0.19
19668,0.45
19680,0.92
19691,1.21
19702,1.42
19714,1.69
19726,2.14
19738,2.75
19750,3.43
19762,4.04
19774,4.51
19786,4.89
19798,5.32
19810,5.96
19822,6.88
19834,8.04
19846,9.32
19858,10.52
19870,11.48
19881,12.07
19892,12.3
19904,12.31
19916,12.36
19928,12.74
19940,13.6
19952,14.86
19964,16.13
19976,16.9
19988,16.69
20000,15.33
20012,12.97
20024,10.04
20036,6.98
20048,4.1
20060,1.45
20071,-1.09
20082,-3.65
20094,-6.2
20106,-8.58
20118,-10.5
20130,-11.7
20142,-12.07
20154,-11.65
20166,-10.64
20178,-9.24
20190,-7.65
20202,-5.95
20214,-4.19
20226,-2.4
20238,-0.62
20250,1.02
20261,2.34
20272,3.12
20284,3.22
20296,2.56
20308,1.22
20320,-0.59
20332,-2.58
20344,-4.5
20356,-6.14
20368,-7.46
20380,-8.55
20392,-9.51
20404,-10.46
20416,-11.37
20428,-12.17
20440,-12.74
20451,-13.04
20462,-13.11
20474,-13.1
20486,-13.18
20498,-13.45
20510,-13.92
20522,-14.47
20534,-14.91
20546,-15.13
20558,-15.07
20570,-14.79
20582,-14.39
20594,-13.98
20606,-13.59
20618,-13.2
20630,-12.76
20641,-12.26
20652,-11.64
20664,-10.88
20676,-9.92
20688,-8.69
20700,-7.19
20712,-5.42
20724,-3.51
20736,-1.56
20748,0.28
20760,1.94
20772,3.34
20784,4.46
20796,5.28
20808,5.83
20820,6.16
20831,6.32
20842,6.39
20854,6.46
20866,6.59
20878,6.82
20890,7.12
20902,7.39
20914,7.44
20926,7.06
20938,6.14
20950,4.66
20962,2.79
20974,0.77
20986,-1.18
20998,-2.92
