seconds,BVP
3,-62.26
15,-131.54
27,-193.2
39,-209.51
51,-226.48
63,-232.0
75,-219.7
87,-193.01
99,-160.29
111,-130.06
123,-106.4
135,-84.75
147,-67.03
158,-60.54
169,-59.16
181,-64.87
193,-91.81
205,-154.84
217,-260.18
229,-399.89
241,-550.6
253,-698.89
265,-839.16
277,-958.04
289,-988.99
301,-889.46
313,-667.87
325,-382.13
337,-136.22
348,67.0
359,239.49
371,386.97
383,521.06
395,637.13
407,719.21
419,754.7
431,734.3
443,664.2
455,570.88
467,474.29
479,387.27
491,318.69
503,268.87
515,228.13
527,187.28
538,143.59
549,102.81
561,77.85
573,69.3
585,71.97
597,81.06
609,91.41
621,95.83
633,89.75
645,73.88
657,54.3
669,41.22
681,36.37
693,37.52
705,41.71
717,45.53
728,44.85
739,37.0
751,21.89
763,2.45
775,-16.05
787,-32.11
799,-48.08
811,-62.8
823,-75.51
835,-85.61
847,-92.04
859,-93.62
871,-88.55
883,-75.01
895,-53.48
907,-25.84
918,5.88
929,38.91
941,71.0
953,100.48
965,125.53
977,145.22
989,159.18
1001,167.42
1013,170.14
1025,168.26
1037,162.62
1049,154.41
1061,145.03
1073,135.14
1085,125.62
1097,117.28
1108,110.62
1119,105.7
1131,102.39
1143,99.84
1155,96.48
1167,95.27
1179,96.51
1191,100.02
1203,105.24
1215,111.49
1227,118.28
1239,125.29
1251,132.4
1263,139.54
1275,146.84
1287,153.59
1298,159.29
1309,163.39
1321,165.31
1333,164.69
1345,161.42
1357,155.64
1369,147.84
1381,138.76
1393,128.52
1405,117.35
1417,105.33
1429,92.38
1441,78.57
1453,64.08
1465,49.4
1477,35.36
1488,22.81
1499,11.93
1511,2.45
1523,-6.32
1535,-15.4
1547,-25.65
1559,-37.54
1571,-50.85
1583,-64.78
1595,-78.5
1607,-91.84
1619,-105.5
1631,-120.89
1643,-139.77
1655,-163.57
1667,-192.68
1678,-226.2
1689,-262.37
1701,-299.19
1713,-335.23
1725,-370.1
1737,-404.3
1749,-439.12
1761,-476.29
1773,-517.66
1785,-564.89
1797,-618.31
1809,-675.68
1821,-731.4
1833,-777.12
1845,-804.04
1857,-806.02
1868,-782.11
1879,-736.84
1891,-678.37
1903,-615.28
1915,-553.69
1927,-496.1
1939,-442.35
1951,-391.51
1963,-343.34
1975,-298.67
1987,-258.38
1999,-222.52
2011,-189.84
2023,-158.39
2035,-126.56
2047,-93.93
2058,-61.25
2069,-30.19
2081,-2.25
2093,22.0
2105,43.04
2117,62.19
2129,80.92
2141,100.03
2153,119.31
2165,137.56
2177,153.31
2189,165.32
2201,173.4
2213,178.45
2225,182.18
2237,186.49
2248,192.86
2259,201.89
2271,213.31
2283,226.41
2295,240.19
2307,253.94
2319,267.34
2331,280.56
2343,294.3
2355,309.75
2367,328.17
2379,350.28
2391,375.39
2403,400.78
2415,422.06
2427,434.3
2438,433.54
2449,418.05
2461,388.81
2473,349.13
2485,303.97
2497,258.79
2509,218.47
2521,186.62
2533,164.98
2545,153.28
2557,149.68
2569,151.18
2581,154.49
2593,156.73
2605,155.98
2617,151.54
2628,144.07
2639,135.19
2651,126.72
2663,119.89
2675,114.64
2687,109.84
2699,104.0
2711,96.53
2723,88.02
2735,80.05
2747,73.65
2759,68.32
2771,62.11
2783,52.69
2795,38.9
2807,21.41
2818,2.5
2829,-14.96
2841,-28.23
2853,-35.44
2865,-35.75
2877,-29.43
2889,-18.29
2901,-5.51
2913,4.92
2925,9.61
2937,6.92
2949,-2.48
2961,-16.18
2973,-31.21
2985,-44.95
2997,-55.68
3008,-62.36
3019,-64.32
3031,-61.25
3043,-53.92
3055,-44.5
3067,-36.25
3079,-32.5
3091,-34.93
3103,-42.95
3115,-53.65
3127,-63.14
3139,-67.95
3151,-66.21
3163,-57.94
3175,-44.49
3187,-27.87
3198,-9.96
3209,7.49
3221,22.84
3233,34.28
3245,40.14
3257,39.73
3269,34.19
3281,26.73
3293,21.49
3305,21.68
3317,27.26
3329,34.63
3341,37.76
3353,31.32
3365,13.63
3377,-11.88
3388,-37.82
3399,-56.44
3411,-63.19
3423,-58.78
3435,-48.01
3447,-36.65
3459,-28.31
3471,-23.28
3483,-19.59
3495,-15.16
3507,-9.64
3519,-4.15
3531,-0.07
3543,2.3
3555,4.22
3567,7.56
3578,13.52
3589,21.94
3601,31.62
3613,40.87
3625,48.34
3637,53.35
3649,55.61
3661,55.26
3673,52.93
3685,49.6
3697,45.91
3709,41.67
3721,35.42
3733,25.6
3745,11.91
3757,-3.81
3768,-17.7
3779,-25.78
3791,-26.07
3803,-19.6
3815,-9.91
3827,-1.18
3839,3.84
3851,4.76
3863,2.86
3875,-0.02
3887,-3.16
3899,-7.09
3911,-12.85
3923,-20.79
3935,-29.57
3947,-36.53
3958,-39.12
3969,-36.56
3981,-30.3
3993,-23.46
4005,-18.96
4017,-17.77
4029,-18.62
4041,-19.25
4053,-18.0
4065,-15.04
4077,-12.23
4089,-11.19
4101,-12.15
4113,-13.61
4125,-13.66
4137,-11.67
4148,-9.19
4159,-8.91
4171,-12.74
4183,-20.09
4195,-27.59
4207,-30.6
4219,-25.66
4231,-12.39
4243,6.15
4255,24.96
4267,39.16
4279,45.77
4291,44.2
4303,35.58
4315,21.84
4327,4.85
4338,-13.49
4349,-31.21
4361,-46.32
4373,-57.35
4385,-64.01
4397,-67.47
4409,-69.68
4421,-72.31
4433,-76.05
4445,-80.4
4457,-84.69
4469,-88.91
4481,-94.08
4493,-101.63
4505,-112.54
4517,-126.47
4528,-141.86
4539,-156.76
4551,-169.59
4563,-179.69
4575,-187.4
4587,-193.55
4599,-198.91
4611,-203.79
4623,-207.98
4635,-211.09
4647,-213.09
4659,-214.69
4671,-216.93
4683,-220.64
4695,-225.08
4707,-227.58
4718,-223.97
4729,-210.13
4741,-183.82
4753,-146.01
4765,-100.43
4777,-52.09
4789,-5.56
4801,36.44
4813,73.04
4825,104.31
4837,130.26
4849,150.3
4861,163.46
4873,169.09
4885,167.31
4897,159.16
4908,146.33
4919,130.75
4931,113.99
4943,97.22
4955,81.2
4967,66.54
4979,54.12
4991,45.2
5003,41.23
5015,43.74
5027,53.87
5039,72.02
5051,97.88
5063,130.44
5075,168.23
5087,209.6
5098,252.97
5109,297.01
5121,340.88
5133,384.33
5145,427.38
5157,470.02
5169,511.58
5181,550.21
5193,582.89
5205,605.72
5217,614.9
5229,607.53
5241,582.1
5253,538.93
5265,480.2
5277,409.62
5288,331.92
5299,252.39
5311,175.91
5323,106.43
5335,46.63
5347,-2.03
5359,-38.89
5371,-63.53
5383,-75.88
5395,-76.54
5407,-67.1
5419,-50.75
5431,-32.04
5443,-16.19
5455,-8.22
5467,-12.17
5478,-30.56
5489,-64.22
5501,-112.32
5513,-172.37
5525,-240.36
5537,-310.99
5549,-377.58
5561,-432.62
5573,-468.59
5585,-479.54
5597,-462.1
5609,-416.56
5621,-347.11
5633,-261.25
5645,-168.84
5657,-80.74
5668,-7.8
5679,40.73
5691,58.95
5703,46.38
5715,8.94
5727,-41.93
5739,-92.52
5751,-131.05
5763,-151.18
5775,-153.61
5787,-144.22
5799,-130.3
5811,-117.12
5823,-106.21
5835,-95.96
5847,-84.05
5858,-69.71
5869,-54.6
5881,-42.14
5893,-35.75
5905,-36.83
5917,-44.36
5929,-55.25
5941,-65.46
5953,-71.01
5965,-69.06
5977,-57.63
5989,-35.27
6001,-1.09
6013,44.46
6025,98.01
6037,153.01
6048,201.46
6059,237.22
6071,258.81
6083,270.09
6095,277.84
6107,287.35
6119,298.67
6131,306.05
6143,301.1
6155,278.11
6167,238.04
6179,188.95
6191,142.85
6203,110.3
6215,96.07
6227,97.43
6238,106.06
6249,111.99
6261,107.4
6273,88.9
6285,57.91
6297,19.31
6309,-20.27
6321,-54.34
6333,-77.34
6345,-85.16
6357,-76.04
6369,-51.63
6381,-17.81
6393,15.92
6405,38.62
6417,41.27
6428,19.41
6439,-25.6
6451,-87.74
6463,-158.65
6475,-229.69
6487,-293.03
6499,-341.87
6511,-370.55
6523,-375.34
6535,-355.74
6547,-315.48
6559,-262.63
6571,-208.02
6583,-162.58
6595,-134.06
6607,-124.75
6618,-130.92
6629,-144.09
6641,-154.44
6653,-154.33
6665,-141.27
6677,-118.4
6689,-92.35
6701,-69.49
6713,-52.67
6725,-40.18
6737,-27.39
6749,-9.65
6761,15.27
6773,46.33
6785,79.85
6797,110.8
6808,133.85
6819,143.99
6831,137.3
6843,112.3
6855,71.54
6867,21.86
6879,-27.35
6891,-67.35
6903,-93.36
6915,-105.91
6927,-109.71
6939,-110.54
6951,-111.87
6963,-113.22
6975,-110.86
6987,-100.94
6998,-82.63
7009,-59.28
7021,-37.05
7033,-21.32
7045,-13.17
7057,-7.86
7069,2.65
7081,24.84
7093,58.91
7105,97.17
7117,127.21
7129,138.28
7141,127.28
7153,100.88
7165,71.95
7177,52.88
7188,49.68
7199,60.42
7211,78.2
7223,96.23
7235,111.48
7247,125.29
7259,140.85
7271,159.86
7283,180.25
7295,196.97
7307,204.44
7319,199.27
7331,182.18
7343,157.24
7355,130.55
7367,107.68
7378,92.25
7389,85.27
7401,85.74
7413,91.44
7425,99.38
7437,106.53
7449,109.84
7461,106.88
7473,96.78
7485,81.09
7497,64.11
7509,51.8
7521,49.3
7533,58.41
7545,76.57
7557,97.14
7568,111.91
7579,113.91
7591,99.84
7603,71.75
7615,36.82
7627,5.69
7639,-10.8
7651,-5.38
7663,21.9
7675,63.01
7687,104.38
7699,132.28
7711,139.11
7723,126.35
7735,103.32
7747,81.48
7758,68.23
7769,63.23
7781,59.96
7793,50.57
7805,30.97
7817,3.21
7829,-26.73
7841,-53.31
7853,-74.99
7865,-94.67
7877,-116.79
7889,-143.7
7901,-173.66
7913,-202.05
7925,-224.68
7937,-240.65
7948,-252.45
7959,-263.35
7971,-274.26
7983,-282.33
7995,-282.52
8007,-270.8
8019,-247.4
8031,-217.33
8043,-188.65
8055,-168.57
8067,-160.0
8079,-160.24
8091,-162.26
8103,-158.34
8115,-143.91
8127,-119.63
8138,-90.64
8149,-63.8
8161,-44.34
8173,-33.81
8185,-30.46
8197,-30.94
8209,-32.32
8221,-33.0
8233,-32.54
8245,-30.69
8257,-27.05
8269,-21.97
8281,-17.52
8293,-17.61
8305,-26.39
8317,-45.29
8328,-71.16
8339,-96.64
8351,-113.2
8363,-114.87
8375,-101.09
8387,-76.61
8399,-48.99
8411,-25.25
8423,-9.16
8435,-0.38
8447,4.66
8459,10.45
8471,20.19
8483,34.24
8495,50.49
8507,66.06
8518,79.14
8529,89.9
8541,99.33
8553,107.4
8565,111.8
8577,108.6
8589,95.27
8601,73.4
8613,49.25
8625,31.12
8637,24.51
8649,28.51
8661,36.08
8673,38.02
8685,28.23
8697,7.55
8708,-17.15
8719,-36.88
8731,-45.47
8743,-41.99
8755,-30.25
8767,-15.91
8779,-3.41
8791,5.65
8803,12.43
8815,19.61
8827,30.32
8839,46.82
8851,70.0
8863,98.7
8875,129.87
8887,159.12
8898,181.29
8909,191.77
8921,187.27
8933,166.76
8945,132.2
8957,88.39
8969,41.75
8981,-1.65
8993,-37.83
9005,-65.95
9017,-87.83
9029,-106.48
9041,-124.18
9053,-141.26
9065,-156.4
9077,-167.52
9088,-173.12
9099,-172.61
9111,-166.49
9123,-155.92
9135,-142.31
9147,-126.7
9159,-109.21
9171,-89.08
9183,-65.21
9195,-37.61
9207,-8.21
9219,19.34
9231,41.46
9243,56.6
9255,66.18
9267,73.65
9278,81.95
9289,91.74
9301,101.34
9313,108.28
9325,111.38
9337,111.63
9349,110.75
9361,109.36
9373,106.1
9385,98.75
9397,86.39
9409,70.43
9421,53.72
9433,38.39
9445,24.45
9457,10.36
9468,-4.71
9479,-19.21
9491,-30.04
9503,-35.28
9515,-36.61
9527,-39.17
9539,-48.19
9551,-64.84
9563,-84.04
9575,-96.35
9587,-93.04
9599,-70.98
9611,-34.63
9623,6.28
9635,41.11
9647,62.45
9658,67.85
9669,58.77
9681,38.88
9693,12.59
9705,-15.4
9717,-40.51
9729,-58.61
9741,-67.42
9753,-66.93
9765,-59.37
9777,-48.05
9789,-35.84
9801,-24.17
9813,-12.96
9825,-1.72
9837,9.71
9848,20.95
9859,31.97
9871,43.58
9883,57.24
9895,74.35
9907,94.93
9919,117.09
9931,137.0
9943,150.15
9955,152.51
9967,141.84
9979,118.67
9991,86.48
10003,51.11
10015,18.62
10027,-6.94
10038,-25.42
10049,-40.52
10061,-57.53
10073,-79.88
10085,-106.46
10097,-131.79
10109,-148.53
10121,-151.63
10133,-140.94
10145,-121.38
10157,-100.35
10169,-84.44
10181,-76.61
10193,-75.67
10205,-77.41
10217,-76.74
10228,-69.78
10239,-54.87
10251,-33.11
10263,-7.57
10275,18.07
10287,40.72
10299,58.68
10311,71.23
10323,78.11
10335,78.82
10347,73.28
10359,62.54
10371,49.64
10383,39.07
10395,34.62
10407,37.29
10418,44.26
10429,50.22
10441,50.17
10453,42.35
10465,28.81
10477,14.2
10489,3.18
10501,-1.82
10513,-0.79
10525,4.74
10537,13.16
10549,23.19
10561,33.98
10573,44.15
10585,51.97
10597,56.05
10608,56.15
10619,53.72
10631,51.02
10643,49.69
10655,49.17
10667,46.5
10679,37.55
10691,19.69
10703,-5.98
10715,-34.41
10727,-58.47
10739,-72.32
10751,-74.28
10763,-67.33
10775,-57.01
10787,-47.85
10798,-40.53
10809,-31.91
10821,-17.5
10833,4.52
10845,31.01
10857,54.36
10869,66.14
10881,61.69
10893,42.83
10905,17.24
10917,-5.26
10929,-17.18
10941,-16.23
10953,-5.33
10965,9.77
10977,23.76
10988,33.87
10999,40.33
11011,44.75
11023,48.56
11035,52.39
11047,56.5
11059,61.78
11071,70.2
11083,83.98
11095,103.4
11107,125.08
11119,142.24
11131,147.3
11143,135.88
11155,109.66
11167,76.12
11178,45.39
11189,25.36
11201,18.55
11213,21.73
11225,28.72
11237,34.12
11249,35.54
11261,33.23
11273,27.94
11285,19.22
11297,4.93
11309,-16.76
11321,-45.3
11333,-76.76
11345,-105.15
11357,-125.2
11368,-135.26
11379,-137.91
11391,-138.25
11403,-140.8
11415,-146.51
11427,-152.39
11439,-153.57
11451,-146.42
11463,-130.56
11475,-108.84
11487,-85.49
11499,-63.98
11511,-46.19
11523,-32.68
11535,-23.18
11547,-16.69
11558,-11.37
11569,-4.63
11581,5.65
11593,19.35
11605,33.41
11617,42.79
11629,43.38
11641,34.57
11653,19.96
11665,5.7
11677,-2.7
11689,-2.93
11701,3.61
11713,13.55
11725,23.64
11737,32.3
11748,39.46
11759,45.26
11771,49.05
11783,49.29
11795,44.47
11807,34.47
11819,21.39
11831,9.25
11843,2.37
11855,3.15
11867,10.68
11879,20.89
11891,28.74
11903,31.09
11915,28.24
11927,23.48
11938,20.62
11949,21.12
11961,23.22
11973,23.12
11985,17.57
11997,5.91
12009,-9.82
12021,-26.36
12033,-41.04
12045,-52.63
12057,-61.1
12069,-66.7
12081,-69.3
12093,-68.67
12105,-65.02
12117,-59.33
12128,-53.08
12139,-47.42
12151,-42.7
12163,-38.69
12175,-35.17
12187,-32.29
12199,-30.74
12211,-30.85
12223,-32.0
12235,-32.64
12247,-30.78
12259,-25.0
12271,-15.41
12283,-3.6
12295,7.96
12307,16.6
12318,20.84
12329,20.93
12341,18.84
12353,17.68
12365,20.3
12377,27.79
12389,38.89
12401,50.39
12413,58.29
12425,59.88
12437,55.23
12449,47.05
12461,39.37
12473,35.42
12485,35.83
12497,38.86
12508,41.94
12519,43.53
12531,43.86
12543,44.49
12555,46.3
12567,48.51
12579,48.8
12591,44.88
12603,36.32
12615,25.27
12627,15.62
12639,11.15
12651,13.53
12663,21.53
12675,31.77
12687,40.4
12698,44.95
12709,45.23
12721,42.81
12733,39.86
12745,37.76
12757,36.55
12769,35.15
12781,32.78
12793,29.77
12805,27.78
12817,28.83
12829,33.71
12841,41.07
12853,47.65
12865,50.01
12877,46.17
12888,36.42
12899,22.52
12911,5.91
12923,-13.31
12935,-36.09
12947,-62.78
12959,-91.77
12971,-119.36
12983,-141.21
12995,-154.36
13007,-158.32
13019,-154.77
13031,-145.89
13043,-132.92
13055,-115.87
13067,-94.35
13078,-68.91
13089,-41.47
13101,-14.78
13113,8.91
13125,28.35
13137,43.23
13149,53.63
13161,59.8
13173,62.46
13185,63.71
13197,66.7
13209,74.4
13221,87.92
13233,104.83
13245,119.29
13257,124.11
13268,114.13
13279,88.58
13291,51.79
13303,11.1
13315,-26.57
13327,-57.78
13339,-83.39
13351,-107.09
13363,-132.26
13375,-159.31
13387,-185.12
13399,-204.53
13411,-213.19
13423,-209.69
13435,-196.01
13447,-175.67
13458,-151.48
13469,-124.4
13481,-94.36
13493,-62.16
13505,-31.11
13517,-6.94
13529,4.46
13541,0.05
13553,-18.09
13565,-42.6
13577,-63.42
13589,-71.82
13601,-63.68
13613,-41.08
13625,-10.98
13637,17.79
13648,38.32
13659,47.85
13671,47.83
13683,42.2
13695,34.96
13707,28.38
13719,22.62
13731,16.44
13743,8.25
13755,-2.79
13767,-16.49
13779,-31.84
13791,-47.09
13803,-59.91
13815,-67.62
13827,-68.08
13838,-60.75
13849,-47.39
13861,-31.57
13873,-17.19
13885,-6.77
13897,-0.43
13909,3.93
13921,9.0
13933,16.56
13945,26.56
13957,37.42
13969,46.98
13981,53.62
13993,56.88
14005,57.44
14017,56.77
14028,56.33
14039,57.2
14051,59.96
14063,64.71
14075,71.2
14087,78.72
14099,85.97
14111,91.23
14123,92.74
14135,89.74
14147,83.39
14159,76.93
14171,74.43
14183,78.61
14195,88.93
14207,101.42
14218,110.52
14229,112.1
14241,105.89
14253,95.84
14265,87.85
14277,86.7
14289,93.83
14301,107.49
14313,124.46
14325,142.29
14337,159.86
14349,176.62
14361,191.06
14373,200.07
14385,200.07
14397,189.17
14408,168.66
14419,142.83
14431,116.94
14443,94.75
14455,77.12
14467,62.67
14479,49.63
14491,37.38
14503,26.47
14515,17.36
14527,8.79
14539,-2.46
14551,-20.23
14563,-46.55
14575,-79.81
14587,-114.72
14598,-144.4
14609,-163.3
14621,-169.54
14633,-165.29
14645,-155.31
14657,-144.18
14669,-134.39
14681,-125.68
14693,-116.16
14705,-104.18
14717,-89.8
14729,-74.8
14741,-61.22
14753,-49.56
14765,-37.61
14777,-21.26
14788,3.38
14799,37.3
14811,77.15
14823,115.52
14835,143.03
14847,151.6
14859,137.8
14871,104.6
14883,60.61
14895,17.33
14907,-15.45
14919,-33.05
14931,-37.16
14943,-34.11
14955,-31.26
14967,-33.33
14978,-41.2
14989,-52.98
15001,-66.74
15013,-81.9
15025,-98.61
15037,-115.39
15049,-127.75
15061,-129.19
15073,-114.95
15085,-85.97
15097,-49.91
15109,-18.61
15121,-2.54
15133,-5.9
15145,-24.93
15157,-50.66
15168,-73.82
15179,-89.17
15191,-96.9
15203,-100.83
15215,-105.21
15227,-111.96
15239,-119.72
15251,-124.63
15263,-122.49
15275,-110.6
15287,-89.17
15299,-61.55
15311,-32.77
15323,-7.79
15335,10.19
15347,20.39
15358,23.8
15369,22.01
15381,16.24
15393,7.4
15405,-3.28
15417,-13.47
15429,-20.44
15441,-22.65
15453,-21.39
15465,-20.93
15477,-26.84
15489,-43.38
15501,-71.03
15513,-105.78
15525,-140.31
15537,-166.58
15548,-178.62
15559,-174.38
15571,-156.0
15583,-128.5
15595,-97.86
15607,-69.09
15619,-45.16
15631,-26.91
15643,-13.85
15655,-5.07
15667,0.06
15679,1.62
15691,-0.17
15703,-4.49
15715,-9.63
15727,-13.67
15738,-15.35
15749,-14.61
15761,-12.3
15773,-9.26
15785,-5.83
15797,-1.41
15809,4.68
15821,12.7
15833,21.96
15845,31.13
15857,39.15
15869,45.6
15881,50.83
15893,55.32
15905,59.2
15917,61.88
15928,62.46
15939,60.42
15951,55.87
15963,49.6
15975,42.42
15987,34.69
15999,26.33
16011,17.48
16023,8.94
16035,2.08
16047,-1.37
16059,-0.61
16071,3.78
16083,9.45
16095,13.01
16107,11.15
16118,2.35
16129,-12.52
16141,-30.45
16153,-47.3
16165,-59.45
16177,-64.84
16189,-63.87
16201,-59.05
16213,-54.57
16225,-54.98
16237,-63.52
16249,-80.69
16261,-103.45
16273,-125.93
16285,-141.45
16297,-144.96
16308,-134.8
16319,-112.85
16331,-83.53
16343,-51.69
16355,-21.17
16367,5.94
16379,28.79
16391,47.04
16403,60.57
16415,69.4
16427,74.32
16439,76.64
16451,78.1
16463,79.95
16475,82.38
16487,84.1
16498,82.98
16509,77.07
16521,65.59
16533,49.71
16545,32.27
16557,16.68
16569,5.66
16581,0.21
16593,-0.47
16605,1.73
16617,4.77
16629,7.0
16641,7.47
16653,5.99
16665,2.98
16677,-0.53
16688,-3.53
16699,-5.55
16711,-7.25
16723,-9.7
16735,-13.66
16747,-18.61
16759,-22.75
16771,-24.0
16783,-20.79
16795,-13.17
16807,-2.04
16819,11.38
16831,26.74
16843,44.51
16855,65.17
16867,87.81
16878,109.58
16889,126.66
16901,135.56
16913,135.14
16925,126.6
16937,113.32
16949,99.48
16961,88.27
16973,80.83
16985,76.3
16997,73.37
17009,71.07
17021,69.76
17033,68.93
17045,67.57
17057,64.53
17068,59.42
17079,53.16
17091,47.83
17103,46.32
17115,49.86
17127,57.74
17139,64.36
17151,63.84
17163,53.65
17175,36.4
17187,17.76
17199,2.88
17211,-5.21
17223,-7.91
17235,-7.76
17247,-11.43
17258,-23.44
17269,-44.04
17281,-69.08
17293,-93.84
17305,-116.48
17317,-137.24
17329,-160.47
17341,-189.62
17353,-232.13
17365,-292.66
17377,-370.51
17389,-459.12
17401,-550.06
17413,-637.17
17425,-715.44
17437,-784.29
17448,-804.36
17459,-747.58
17471,-612.94
17483,-431.63
17495,-244.73
17507,-81.05
17519,37.76
17531,124.52
17543,190.55
17555,243.67
17567,282.65
17579,305.18
17591,308.62
17603,295.53
17615,271.25
17627,240.26
17638,207.54
17649,175.04
17661,146.82
17673,124.25
17685,109.09
17697,102.99
17709,107.0
17721,119.17
17733,133.66
17745,144.71
17757,146.09
17769,135.78
17781,112.68
17793,77.66
17805,33.26
17817,-15.96
17828,-64.69
17839,-108.31
17851,-142.42
17863,-165.57
17875,-177.83
17887,-182.05
17899,-182.19
17911,-181.77
17923,-182.36
17935,-183.68
17947,-184.53
17959,-182.92
17971,-177.94
17983,-169.28
17995,-157.74
18007,-144.79
18018,-131.76
18029,-119.29
18041,-107.25
18053,-95.35
18065,-82.97
18077,-70.0
18089,-56.55
18101,-42.87
18113,-29.16
18125,-15.5
18137,-1.79
18149,12.22
18161,26.58
18173,41.17
18185,55.75
18197,70.02
18208,83.9
18219,97.73
18231,112.13
18243,127.61
18255,144.47
18267,162.33
18279,180.35
18291,197.61
18303,213.55
18315,228.22
18327,242.35
18339,256.88
18351,272.58
18363,289.91
18375,308.92
18387,329.49
18398,351.1
18409,372.32
18421,390.35
18433,401.19
18445,400.84
18457,387.18
18469,361.46
18481,328.19
18493,293.37
18505,261.81
18517,234.95
18529,211.12
18541,187.5
18553,162.71
18565,138.38
18577,118.19
18588,105.37
18599,100.35
18611,100.17
18623,99.9
18635,95.77
18647,86.94
18659,75.41
18671,64.38
18683,55.91
18695,49.71
18707,43.89
18719,36.64
18731,27.71
18743,18.62
18755,11.58
18767,7.86
18778,7.02
18789,7.23
18801,6.51
18813,3.93
18825,0.07
18837,-3.52
18849,-5.35
18861,-5.03
18873,-3.43
18885,-2.23
18897,-3.24
18909,-7.54
18921,-15.16
18933,-25.15
18945,-35.9
18957,-45.64
18968,-53.04
18979,-57.42
18991,-58.69
19003,-57.38
19015,-54.32
19027,-50.46
19039,-46.9
19051,-44.61
19063,-44.32
19075,-46.13
19087,-49.41
19099,-52.83
19111,-54.83
19123,-54.1
19135,-50.17
19147,-43.36
19158,-34.81
19169,-26.04
19181,-18.61
19193,-13.86
19205,-12.74
19217,-15.54
19229,-21.54
19241,-29.1
19253,-35.87
19265,-39.66
19277,-39.36
19289,-35.42
19301,-29.68
19313,-24.53
19325,-21.89
19337,-22.31
19348,-25.23
19359,-29.29
19371,-33.0
19383,-35.1
19395,-34.74
19407,-31.67
19419,-26.57
19431,-21.16
19443,-17.67
19455,-17.89
19467,-21.67
19479,-26.57
19491,-28.76
19503,-24.96
19515,-14.5
19527,0.13
19538,14.24
19549,23.15
19561,24.01
19573,16.73
19585,3.75
19597,-11.12
19609,-23.64
19621,-30.27
19633,-29.14
19645,-20.65
19657,-7.74
19669,4.97
19681,12.91
19693,13.73
19705,8.22
19717,0.19
19728,-5.72
19739,-6.37
19751,-1.45
19763,6.58
19775,14.12
19787,18.36
19799,18.41
19811,15.01
19823,9.85
19835,4.51
19847,0.06
19859,-2.74
19871,-3.32
19883,-1.22
19895,3.65
19907,10.81
19918,19.02
19929,26.8
19941,32.85
19953,36.4
19965,37.28
19977,35.8
19989,32.17
20001,26.58
20013,18.95
20025,9.22
20037,-2.14
20049,-14.06
20061,-24.9
20073,-32.67
20085,-35.85
20097,-33.95
20108,-27.97
20119,-20.42
20131,-14.36
20143,-12.33
20155,-15.11
20167,-21.5
20179,-28.6
20191,-33.31
20203,-33.62
20215,-29.39
20227,-22.46
20239,-15.33
20251,-9.94
20263,-6.64
20275,-4.45
20287,-1.9
20298,1.59
20309,5.15
20321,6.96
20333,5.24
20345,-0.54
20357,-9.26
20369,-18.48
20381,-25.45
20393,-27.98
20405,-25.29
20417,-18.2
20429,-8.77
20441,0.39
20453,7.01
20465,9.62
20477,8.14
20488,3.55
20499,-2.55
20511,-8.52
20523,-13.31
20535,-16.52
20547,-18.13
20559,-18.11
20571,-16.53
20583,-13.59
20595,-10.0
20607,-6.98
20619,-5.82
20631,-7.38
20643,-11.59
20655,-17.57
20667,-23.83
20678,-28.99
20689,-32.27
20701,-33.81
20713,-34.55
20725,-35.56
20737,-37.39
20749,-39.46
20761,-40.57
20773,-39.54
20785,-36.49
20797,-33.2
20809,-32.74
20821,-38.28
20833,-51.22
20845,-70.4
20857,-91.81
20868,-110.32
20879,-121.62
20891,-124.15
20903,-119.68
20915,-112.35
20927,-106.65
20939,-105.15
20951,-107.23
20963,-108.71
20975,-103.54
20987,-86.03
20999,-53.38
