seconds,BVP
5,0.48
16,1.66
28,2.48
40,3.11
52,3.72
64,4.34
76,4.87
88,5.15
100,5.1
112,4.78
124,4.37
136,4.06
148,3.95
160,4.03
172,4.21
184,4.41
195,4.57
206,4.63
218,4.57
230,4.35
242,3.96
254,3.47
266,2.96
278,2.53
290,2.21
302,1.94
314,1.62
326,1.17
338,0.6
350,-0.02
362,-0.59
374,-1.06
385,-1.49
396,-1.94
408,-2.47
420,-3.08
432,-3.73
444,-4.4
456,-5.05
468,-5.71
480,-6.32
492,-6.81
504,-7.01
516,-6.77
528,-6.0
540,-4.76
552,-3.17
564,-1.45
575,0.25
586,1.81
598,3.14
610,4.16
622,4.81
634,5.04
646,4.9
658,4.51
670,4.03
682,3.63
694,3.43
706,3.45
718,3.65
730,3.95
742,4.23
754,4.43
765,4.49
776,4.41
788,4.21
800,3.93
812,3.55
824,3.1
836,2.58
848,2.02
860,1.46
872,0.95
884,0.48
896,0.01
908,-0.49
920,-1.05
932,-1.64
944,-2.24
955,-2.82
966,-3.37
978,-3.9
990,-4.41
1002,-4.88
1014,-5.3
1026,-5.68
1038,-6.03
1050,-6.34
1062,-6.55
1074,-6.55
1086,-6.24
1098,-5.56
1110,-4.52
1122,-3.19
1134,-1.64
1145,0.06
1156,1.81
1168,3.47
1180,4.82
1192,5.66
1204,5.88
1216,5.55
1228,4.84
1240,3.99
1252,3.22
1264,2.62
1276,2.23
1288,2.05
1300,2.11
1312,2.42
1324,2.95
1335,3.59
1346,4.17
1358,4.54
1370,4.59
1382,4.33
1394,3.82
1406,3.18
1418,2.46
1430,1.73
1442,1.01
1454,0.3
1466,-0.36
1478,-1.0
1490,-1.61
1502,-2.21
1514,-2.81
1525,-3.4
1536,-3.95
1548,-4.42
1560,-4.78
1572,-5.04
1584,-5.27
1596,-5.54
1608,-5.91
1620,-6.36
1632,-6.74
1644,-6.85
1656,-6.51
1668,-5.63
1680,-4.27
1692,-2.61
1704,-0.84
1715,0.85
1726,2.35
1738,3.55
1750,4.42
1762,4.9
1774,5.0
1786,4.77
1798,4.3
1810,3.72
1822,3.18
1834,2.81
1846,2.67
1858,2.8
1870,3.13
1882,3.53
1894,3.87
1905,4.0
1916,3.89
1928,3.61
1940,3.27
1952,2.94
1964,2.64
1976,2.3
1988,1.82
2000,1.19
2012,0.45
2024,-0.31
2036,-1.03
2048,-1.73
2060,-2.41
2072,-3.08
2084,-3.64
2095,-3.98
2106,-4.02
2118,-3.8
2130,-3.5
2142,-3.4
2154,-3.7
2166,-4.48
2178,-5.59
2190,-6.73
2202,-7.54
2214,-7.73
2226,-7.14
2238,-5.8
2250,-3.89
2262,-1.68
2274,0.53
2285,2.48
2296,3.99
2308,4.92
2320,5.24
2332,4.98
2344,4.3
2356,3.4
2368,2.52
2380,1.86
2392,1.52
2404,1.51
2416,1.75
2428,2.14
2440,2.62
2452,3.15
2464,3.67
2475,4.15
2486,4.46
2498,4.46
2510,4.03
2522,3.14
2534,1.92
2546,0.57
2558,-0.69
2570,-1.71
2582,-2.47
2594,-3.07
2606,-3.59
2618,-4.11
2630,-4.57
2642,-4.86
2654,-4.87
2665,-4.59
2676,-4.11
2688,-3.67
2700,-3.53
2712,-3.9
2724,-4.9
2736,-6.41
2748,-8.17
2760,-9.79
2772,-10.9
2784,-11.23
2796,-10.7
2808,-9.38
2820,-7.41
2832,-4.97
2844,-2.22
2855,0.64
2866,3.37
2878,5.66
2890,7.24
2902,7.97
2914,7.92
2926,7.31
2938,6.45
2950,5.61
2962,4.95
2974,4.57
2986,4.5
2998,4.77
3010,5.39
3022,6.28
3034,7.27
3045,8.15
3056,8.71
3068,8.85
3080,8.6
3092,8.08
3104,7.39
3116,6.62
3128,5.78
3140,4.87
3152,3.92
3164,2.99
3176,2.16
3188,1.52
3200,1.12
3212,0.95
3224,0.88
3235,0.71
3246,0.22
3258,-0.76
3270,-2.24
3282,-4.08
3294,-5.93
3306,-7.44
3318,-8.29
3330,-8.29
3342,-7.5
3354,-6.09
3366,-4.28
3378,-2.3
3390,-0.32
3402,1.52
3414,3.07
3425,4.2
3436,4.8
3448,4.85
3460,4.4
3472,3.58
3484,2.55
3496,1.49
3508,0.55
3520,-0.18
3532,-0.59
3544,-0.65
3556,-0.34
3568,0.28
3580,1.07
3592,1.89
3604,2.61
3615,3.15
3626,3.49
3638,3.64
3650,3.61
3662,3.35
3674,2.81
3686,1.96
3698,0.83
3710,-0.49
3722,-1.84
3734,-3.13
3746,-4.34
3758,-5.58
3770,-6.96
3782,-8.53
3794,-10.2
3805,-11.73
3816,-12.87
3828,-13.4
3840,-13.26
3852,-12.48
3864,-11.18
3876,-9.47
3888,-7.46
3900,-5.28
3912,-3.1
3924,-1.1
3936,0.53
3948,1.66
3960,2.27
3972,2.49
3984,2.5
3995,2.48
4006,2.52
4018,2.64
4030,2.76
4042,2.81
4054,2.73
4066,2.57
4078,2.38
4090,2.16
4102,1.9
4114,1.51
4126,0.97
4138,0.32
4150,-0.35
4162,-0.91
4174,-1.34
4185,-1.7
4196,-2.09
4208,-2.56
4220,-3.07
4232,-3.55
4244,-3.92
4256,-4.23
4268,-4.61
4280,-5.19
4292,-5.99
4304,-6.91
4316,-7.72
4328,-8.19
4340,-8.18
4352,-7.71
4364,-6.88
4375,-5.81
4386,-4.57
4398,-3.12
4410,-1.44
4422,0.42
4434,2.33
4446,4.04
4458,5.29
4470,5.9
4482,5.84
4494,5.21
4506,4.26
4518,3.21
4530,2.23
4542,1.39
4554,0.69
4565,0.09
4576,-0.44
4588,-0.85
4600,-1.11
4612,-1.2
4624,-1.17
4636,-1.12
4648,-1.17
4660,-1.37
4672,-1.7
4684,-2.06
4696,-2.34
4708,-2.49
4720,-2.49
4732,-2.42
4744,-2.35
4755,-2.32
4766,-2.32
4778,-2.31
4790,-2.26
4802,-2.19
4814,-2.14
4826,-2.14
4838,-2.17
4850,-2.12
4862,-1.84
4874,-1.19
4886,-0.15
4898,1.2
4910,2.64
4922,3.95
4934,4.96
4945,5.61
4956,5.92
4968,5.94
4980,5.71
4992,5.32
5004,4.82
5016,4.33
5028,3.95
5040,3.76
5052,3.77
5064,3.94
5076,4.2
5088,4.47
5100,4.67
5112,4.74
5124,4.58
5135,4.14
5146,3.37
5158,2.33
5170,1.17
5182,0.06
5194,-0.84
5206,-1.46
5218,-1.82
5230,-2.02
5242,-2.19
5254,-2.44
5266,-2.83
5278,-3.36
5290,-3.96
5302,-4.5
5314,-4.8
5325,-4.72
5336,-4.15
5348,-3.15
5360,-1.84
5372,-0.44
5384,0.87
5396,2.0
5408,2.91
5420,3.65
5432,4.2
5444,4.49
5456,4.46
5468,4.07
5480,3.37
5492,2.54
5504,1.77
5515,1.2
5526,0.84
5538,0.65
5550,0.52
5562,0.43
5574,0.37
5586,0.36
5598,0.41
5610,0.43
5622,0.32
5634,-0.01
5646,-0.56
5658,-1.27
5670,-2.02
5682,-2.67
5694,-3.15
5705,-3.49
5716,-3.76
5728,-4.1
5740,-4.59
5752,-5.22
5764,-5.89
5776,-6.4
5788,-6.52
5800,-6.11
5812,-5.18
5824,-3.88
5836,-2.47
5848,-1.23
5860,-0.3
5872,0.28
5884,0.64
5895,0.94
5906,1.36
5918,1.98
5930,2.84
5942,3.89
5954,5.07
5966,6.29
5978,7.45
5990,8.45
6002,9.14
6014,9.39
6026,9.11
6038,8.26
6050,6.91
6062,5.24
6074,3.46
6085,1.85
6096,0.62
6108,-0.04
6120,-0.09
6132,0.41
6144,1.27
6156,2.25
6168,3.11
6180,3.71
6192,3.98
6204,3.94
6216,3.55
6228,2.78
6240,1.53
6252,-0.25
6264,-2.48
6275,-4.91
6286,-7.12
6298,-8.74
6310,-9.47
6322,-9.24
6334,-8.17
6346,-6.5
6358,-4.49
6370,-2.41
6382,-0.45
6394,1.22
6406,2.47
6418,3.18
6430,3.25
6442,2.69
6454,1.62
6465,0.29
6476,-0.97
6488,-1.85
6500,-2.14
6512,-1.86
6524,-1.2
6536,-0.43
6548,0.17
6560,0.51
6572,0.59
6584,0.53
6596,0.39
6608,0.21
6620,-0.06
6632,-0.43
6644,-0.92
6655,-1.45
6666,-1.97
6678,-2.45
6690,-2.92
6702,-3.44
6714,-4.07
6726,-4.81
6738,-5.59
6750,-6.24
6762,-6.59
6774,-6.47
6786,-5.79
6798,-4.61
6810,-3.06
6822,-1.36
6834,0.28
6845,1.7
6856,2.85
6868,3.73
6880,4.36
6892,4.76
6904,4.93
6916,4.9
6928,4.69
6940,4.37
6952,4.04
6964,3.75
6976,3.5
6988,3.23
7000,2.86
7012,2.39
7024,1.86
7035,1.37
7046,1.03
7058,0.89
7070,0.89
7082,0.91
7094,0.79
7106,0.39
7118,-0.31
7130,-1.21
7142,-2.18
7154,-3.07
7166,-3.79
7178,-4.34
7190,-4.78
7202,-5.22
7214,-5.73
7225,-6.35
7236,-7.02
7248,-7.63
7260,-7.95
7272,-7.76
7284,-6.88
7296,-5.18
7308,-2.75
7320,0.19
7332,3.26
7344,6.07
7356,8.3
7368,9.79
7380,10.5
7392,10.56
7404,10.12
7415,9.31
7426,8.26
7438,7.1
7450,5.95
7462,4.95
7474,4.26
7486,3.99
7498,4.16
7510,4.71
7522,5.43
7534,6.09
7546,6.44
7558,6.32
7570,5.7
7582,4.72
7594,3.55
7605,2.38
7616,1.28
7628,0.23
7640,-0.84
7652,-1.97
7664,-3.12
7676,-4.19
7688,-5.09
7700,-5.77
7712,-6.24
7724,-6.58
7736,-6.88
7748,-7.2
7760,-7.56
7772,-7.97
7784,-8.39
7795,-8.7
7806,-8.78
7818,-8.46
7830,-7.66
7842,-6.35
7854,-4.68
7866,-2.87
7878,-1.13
7890,0.38
7902,1.62
7914,2.61
7926,3.38
7938,3.94
7950,4.26
7962,4.33
7974,4.21
7985,3.99
7996,3.79
8008,3.71
8020,3.78
8032,3.97
8044,4.19
8056,4.39
8068,4.55
8080,4.63
8092,4.62
8104,4.48
8116,4.18
8128,3.68
8140,2.97
8152,2.09
8164,1.13
8175,0.18
8186,-0.64
8198,-1.27
8210,-1.7
8222,-2.01
8234,-2.33
8246,-2.75
8258,-3.32
8270,-4.01
8282,-4.72
8294,-5.39
8306,-6.01
8318,-6.61
8330,-7.2
8342,-7.71
8354,-8.02
8365,-7.99
8376,-7.49
8388,-6.49
8400,-5.08
8412,-3.4
8424,-1.63
8436,0.09
8448,1.63
8460,2.94
8472,4.02
8484,4.87
8496,5.49
8508,5.88
8520,5.99
8532,5.82
8544,5.43
8555,4.95
8566,4.54
8578,4.35
8590,4.44
8602,4.72
8614,5.02
8626,5.19
8638,5.14
8650,4.91
8662,4.59
8674,4.3
8686,4.05
8698,3.81
8710,3.48
8722,2.96
8734,2.23
8745,1.31
8756,0.3
8768,-0.65
8780,-1.38
8792,-1.79
8804,-1.89
8816,-1.79
8828,-1.69
8840,-1.77
8852,-2.13
8864,-2.8
8876,-3.68
8888,-4.65
8900,-5.6
8912,-6.44
8924,-7.12
8935,-7.53
8946,-7.56
8958,-7.13
8970,-6.22
8982,-4.91
8994,-3.34
9006,-1.71
9018,-0.17
9030,1.19
9042,2.31
9054,3.14
9066,3.65
9078,3.8
9090,3.6
9102,3.12
9114,2.43
9125,1.66
9136,0.9
9148,0.23
9160,-0.29
9172,-0.62
9184,-0.73
9196,-0.67
9208,-0.52
9220,-0.4
9232,-0.39
9244,-0.53
9256,-0.72
9268,-0.84
9280,-0.76
9292,-0.47
9304,-0.01
9315,0.52
9326,1.06
9338,1.61
9350,2.23
9362,2.98
9374,3.86
9386,4.84
9398,5.79
9410,6.6
9422,7.14
9434,7.36
9446,7.26
9458,6.85
9470,6.19
9482,5.3
9494,4.21
9505,2.92
9516,1.45
9528,-0.15
9540,-1.78
9552,-3.26
9564,-4.41
9576,-5.02
9588,-5.01
9600,-4.36
9612,-3.2
9624,-1.76
9636,-0.28
9648,1.07
9660,2.21
9672,3.16
9684,3.96
9695,4.65
9706,5.17
9718,5.43
9730,5.39
9742,5.13
9754,4.81
9766,4.65
9778,4.78
9790,5.22
9802,5.84
9814,6.48
9826,6.97
9838,7.24
9850,7.3
9862,7.18
9874,6.93
9885,6.59
9896,6.17
9908,5.67
9920,5.09
9932,4.44
9944,3.71
9956,2.94
9968,2.17
9980,1.41
9992,0.68
10004,-0.05
10016,-0.81
10028,-1.65
10040,-2.54
10052,-3.5
10064,-4.47
10075,-5.38
10086,-6.16
10098,-6.72
10110,-7.03
10122,-7.14
10134,-7.18
10146,-7.34
10158,-7.76
10170,-8.55
10182,-9.63
10194,-10.86
10206,-11.97
10218,-12.64
10230,-12.61
10242,-11.74
10254,-10.05
10265,-7.75
10276,-5.19
10288,-2.73
10300,-0.62
10312,0.99
10324,2.15
10336,2.96
10348,3.58
10360,4.09
10372,4.54
10384,4.9
10396,5.12
10408,5.16
10420,5.06
10432,4.87
10444,4.71
10455,4.68
10466,4.78
10478,4.95
10490,5.06
10502,5.03
10514,4.87
10526,4.68
10538,4.59
10550,4.64
10562,4.8
10574,4.92
10586,4.86
10598,4.51
10610,3.87
10622,3.0
10634,2.04
10645,1.11
10656,0.34
10668,-0.2
10680,-0.52
10692,-0.71
10704,-0.91
10716,-1.22
10728,-1.69
10740,-2.29
10752,-2.9
10764,-3.44
10776,-3.88
10788,-4.25
10800,-4.59
10812,-4.92
10824,-5.25
10835,-5.59
10846,-5.99
10858,-6.51
10870,-7.2
10882,-8.02
10894,-8.83
10906,-9.39
10918,-9.49
10930,-9.0
10942,-7.89
10954,-6.28
10966,-4.35
10978,-2.32
10990,-0.38
11002,1.36
11014,2.84
11025,4.01
11036,4.86
11048,5.39
11060,5.58
11072,5.49
11084,5.2
11096,4.84
11108,4.58
11120,4.52
11132,4.71
11144,5.08
11156,5.5
11168,5.85
11180,6.08
11192,6.18
11204,6.21
11215,6.21
11226,6.19
11238,6.11
11250,5.94
11262,5.63
11274,5.2
11286,4.69
11298,4.17
11310,3.69
11322,3.24
11334,2.74
11346,2.14
11358,1.38
11370,0.49
11382,-0.43
11394,-1.23
11405,-1.79
11416,-2.06
11428,-2.1
11440,-2.05
11452,-2.07
11464,-2.27
11476,-2.66
11488,-3.23
11500,-3.91
11512,-4.65
11524,-5.39
11536,-6.11
11548,-6.78
11560,-7.4
11572,-7.99
11584,-8.63
11595,-9.34
11606,-10.15
11618,-10.99
11630,-11.7
11642,-12.09
11654,-11.97
11666,-11.22
11678,-9.81
11690,-7.86
11702,-5.6
11714,-3.3
11726,-1.24
11738,0.42
11750,1.61
11762,2.42
11774,2.98
11785,3.45
11796,3.89
11808,4.29
11820,4.58
11832,4.74
11844,4.74
11856,4.63
11868,4.5
11880,4.39
11892,4.29
11904,4.19
11916,4.04
11928,3.86
11940,3.75
11952,3.76
11964,3.93
11975,4.16
11986,4.28
11998,4.15
12010,3.72
12022,3.07
12034,2.4
12046,1.91
12058,1.68
12070,1.7
12082,1.81
12094,1.85
12106,1.69
12118,1.34
12130,0.85
12142,0.34
12154,-0.1
12165,-0.42
12176,-0.62
12188,-0.8
12200,-1.01
12212,-1.3
12224,-1.66
12236,-2.02
12248,-2.34
12260,-2.63
12272,-3.0
12284,-3.52
12296,-4.21
12308,-4.94
12320,-5.47
12332,-5.58
12344,-5.12
12355,-4.13
12366,-2.74
12378,-1.14
12390,0.53
12402,2.18
12414,3.72
12426,4.99
12438,5.82
12450,6.05
12462,5.7
12474,4.91
12486,3.97
12498,3.16
12510,2.64
12522,2.41
12534,2.38
12545,2.45
12556,2.6
12568,2.81
12580,3.1
12592,3.4
12604,3.61
12616,3.6
12628,3.31
12640,2.8
12652,2.18
12664,1.57
12676,1.04
12688,0.55
12700,0.06
12712,-0.5
12724,-1.11
12735,-1.69
12746,-2.15
12758,-2.43
12770,-2.57
12782,-2.67
12794,-2.85
12806,-3.2
12818,-3.72
12830,-4.34
12842,-4.96
12854,-5.51
12866,-5.94
12878,-6.25
12890,-6.46
12902,-6.62
12914,-6.76
12925,-6.92
12936,-7.06
12948,-7.14
12960,-7.02
12972,-6.61
12984,-5.84
12996,-4.69
13008,-3.27
13020,-1.68
13032,-0.08
13044,1.42
13056,2.7
13068,3.67
13080,4.24
13092,4.39
13104,4.16
13115,3.72
13126,3.23
13138,2.86
13150,2.7
13162,2.73
13174,2.91
13186,3.13
13198,3.32
13210,3.41
13222,3.38
13234,3.24
13246,3.03
13258,2.81
13270,2.6
13282,2.38
13294,2.1
13305,1.69
13316,1.14
13328,0.52
13340,-0.03
13352,-0.43
13364,-0.67
13376,-0.83
13388,-1.04
13400,-1.38
13412,-1.82
13424,-2.26
13436,-2.6
13448,-2.8
13460,-2.9
13472,-2.99
13484,-3.18
13495,-3.5
13506,-4.0
13518,-4.63
13530,-5.37
13542,-6.15
13554,-6.87
13566,-7.36
13578,-7.49
13590,-7.15
13602,-6.31
13614,-5.01
13626,-3.38
13638,-1.6
13650,0.13
13662,1.64
13674,2.8
13685,3.52
13696,3.84
13708,3.83
13720,3.61
13732,3.29
13744,2.96
13756,2.65
13768,2.42
13780,2.29
13792,2.31
13804,2.51
13816,2.84
13828,3.24
13840,3.59
13852,3.77
13864,3.76
13875,3.57
13886,3.3
13898,3.03
13910,2.78
13922,2.52
13934,2.18
13946,1.74
13958,1.23
13970,0.76
13982,0.42
13994,0.25
14006,0.18
14018,0.08
14030,-0.19
14042,-0.7
14054,-1.44
14065,-2.3
14076,-3.14
14088,-3.87
14100,-4.44
14112,-4.86
14124,-5.19
14136,-5.47
14148,-5.74
14160,-6.01
14172,-6.27
14184,-6.46
14196,-6.5
14208,-6.27
14220,-5.62
14232,-4.46
14244,-2.81
14255,-0.83
14266,1.24
14278,3.08
14290,4.45
14302,5.19
14314,5.3
14326,4.92
14338,4.25
14350,3.57
14362,3.08
14374,2.93
14386,3.09
14398,3.43
14410,3.74
14422,3.87
14434,3.78
14445,3.56
14456,3.38
14468,3.36
14480,3.5
14492,3.72
14504,3.87
14516,3.85
14528,3.64
14540,3.29
14552,2.84
14564,2.31
14576,1.72
14588,1.1
14600,0.52
14612,0.05
14624,-0.25
14635,-0.38
14646,-0.41
14658,-0.44
14670,-0.57
14682,-0.85
14694,-1.31
14706,-1.91
14718,-2.61
14730,-3.31
14742,-3.91
14754,-4.3
14766,-4.43
14778,-4.29
14790,-3.91
14802,-3.34
14814,-2.59
14825,-1.66
14836,-0.53
14848,0.79
14860,2.21
14872,3.56
14884,4.67
14896,5.35
14908,5.48
14920,5.08
14932,4.27
14944,3.29
14956,2.37
14968,1.73
14980,1.48
14992,1.62
15004,2.04
15015,2.59
15026,3.12
15038,3.5
15050,3.64
15062,3.48
15074,3.02
15086,2.29
15098,1.43
15110,0.62
15122,-0.02
15134,-0.43
15146,-0.68
15158,-0.96
15170,-1.46
15182,-2.25
15194,-3.25
15205,-4.25
15216,-5.04
15228,-5.54
15240,-5.82
15252,-6.04
15264,-6.37
15276,-6.86
15288,-7.47
15300,-8.05
15312,-8.5
15324,-8.74
15336,-8.76
15348,-8.53
15360,-8.03
15372,-7.23
15384,-6.15
15395,-4.88
15406,-3.52
15418,-2.17
15430,-0.91
15442,0.24
15454,1.26
15466,2.12
15478,2.82
15490,3.33
15502,3.65
15514,3.78
15526,3.69
15538,3.36
15550,2.77
15562,1.98
15574,1.12
15585,0.37
15596,-0.11
15608,-0.32
15620,-0.35
15632,-0.38
15644,-0.57
15656,-0.94
15668,-1.4
15680,-1.82
15692,-2.07
15704,-2.1
15716,-1.94
15728,-1.66
15740,-1.36
15752,-1.1
15764,-0.89
15775,-0.79
15786,-0.85
15798,-1.11
15810,-1.63
15822,-2.39
15834,-3.29
15846,-4.16
15858,-4.75
15870,-4.86
15882,-4.36
15894,-3.26
15906,-1.7
15918,0.12
15930,1.98
15942,3.71
15954,5.19
15965,6.32
15976,6.97
15988,7.04
16000,6.46
16012,5.28
16024,3.7
16036,2.04
16048,0.64
16060,-0.24
16072,-0.48
16084,-0.15
16096,0.58
16108,1.5
16120,2.41
16132,3.17
16144,3.72
16155,4.01
16166,4.02
16178,3.77
16190,3.25
16202,2.51
16214,1.63
16226,0.65
16238,-0.35
16250,-1.32
16262,-2.21
16274,-3.0
16286,-3.64
16298,-4.09
16310,-4.34
16322,-4.41
16334,-4.34
16345,-4.2
16356,-4.0
16368,-3.7
16380,-3.26
16392,-2.62
16404,-1.81
16416,-0.89
16428,0.02
16440,0.85
16452,1.57
16464,2.21
16476,2.77
16488,3.17
16500,3.33
16512,3.18
16524,2.73
16535,2.08
16546,1.4
16558,0.81
16570,0.38
16582,0.08
16594,-0.15
16606,-0.33
16618,-0.4
16630,-0.29
16642,0.05
16654,0.53
16666,0.99
16678,1.21
16690,1.09
16702,0.66
16714,0.13
16725,-0.28
16736,-0.45
16748,-0.39
16760,-0.27
16772,-0.26
16784,-0.51
16796,-0.99
16808,-1.58
16820,-2.17
16832,-2.69
16844,-3.15
16856,-3.56
16868,-3.89
16880,-4.02
16892,-3.82
16904,-3.18
16915,-2.1
16926,-0.69
16938,0.84
16950,2.31
16962,3.58
16974,4.59
16986,5.35
16998,5.88
17010,6.16
17022,6.14
17034,5.79
17046,5.14
17058,4.36
17070,3.67
17082,3.26
17094,3.25
17105,3.57
17116,4.05
17128,4.44
17140,4.59
17152,4.44
17164,4.05
17176,3.52
17188,2.93
17200,2.31
17212,1.61
17224,0.81
17236,-0.05
17248,-0.89
17260,-1.57
17272,-2.04
17284,-2.32
17295,-2.56
17306,-2.93
17318,-3.51
17330,-4.27
17342,-5.01
17354,-5.51
17366,-5.56
17378,-5.09
17390,-4.14
17402,-2.84
17414,-1.34
17426,0.18
17438,1.56
17450,2.64
17462,3.3
17474,3.49
17485,3.24
17496,2.68
17508,1.99
17520,1.33
17532,0.85
17544,0.61
17556,0.59
17568,0.74
17580,0.98
17592,1.26
17604,1.52
17616,1.75
17628,1.9
17640,1.99
17652,1.98
17664,1.87
17675,1.65
17686,1.33
17698,0.9
17710,0.33
17722,-0.35
17734,-1.11
17746,-1.86
17758,-2.54
17770,-3.08
17782,-3.54
17794,-3.97
17806,-4.43
17818,-4.9
17830,-5.26
17842,-5.3
17854,-4.87
17865,-3.96
17876,-2.67
17888,-1.18
17900,0.35
17912,1.78
17924,3.03
17936,4.03
17948,4.75
17960,5.15
17972,5.24
17984,5.08
17996,4.76
18008,4.43
18020,4.12
18032,3.86
18044,3.64
18055,3.5
18066,3.51
18078,3.73
18090,4.13
18102,4.63
18114,5.11
18126,5.34
18138,5.14
18150,4.53
18162,3.68
18174,2.92
18186,2.45
18198,2.34
18210,2.58
18222,3.1
18234,3.53
18245,3.46
18256,2.68
18268,1.39
18280,0.09
18292,-0.77
18304,-0.88
18316,-0.2
18328,1.14
18340,2.44
18352,2.96
18364,2.31
18376,0.86
18388,-0.57
18400,-1.29
18412,-1.08
18424,-0.09
18435,1.26
18446,1.88
18458,0.55
18470,-3.79
18482,-11.42
18494,-22.01
18506,-34.96
18518,-49.39
18530,-64.08
18542,-73.93
18554,-74.11
18566,-62.96
18578,-43.71
18590,-21.73
18602,-1.34
18614,15.31
18625,27.62
18636,35.76
18648,40.18
18660,40.89
18672,37.82
18684,31.16
18696,21.85
18708,11.51
18720,1.8
18732,-6.04
18744,-11.29
18756,-13.75
18768,-14.09
18780,-11.81
18792,-8.01
18804,-3.72
18815,0.51
18826,4.38
18838,7.48
18850,9.28
18862,9.25
18874,6.9
18886,1.95
18898,-5.04
18910,-12.48
18922,-18.41
18934,-21.33
18946,-20.8
18958,-17.34
18970,-12.13
18982,-6.62
18994,-1.97
19005,1.21
19016,3.3
19028,5.15
19040,7.52
19052,10.34
19064,13.02
19076,14.84
19088,15.49
19100,15.07
19112,14.21
19124,14.06
19136,15.66
19148,19.26
19160,23.99
19172,28.3
19184,30.55
19195,29.9
19206,26.25
19218,20.48
19230,14.39
19242,9.89
19254,8.19
19266,9.3
19278,12.33
19290,15.7
19302,17.87
19314,16.5
19326,8.87
19338,-6.35
19350,-27.19
19362,-48.52
19374,-63.96
19385,-68.2
19396,-61.71
19408,-45.7
19420,-23.25
19432,1.67
19444,25.89
19456,48.02
19468,68.23
19480,85.96
19492,100.24
19504,109.69
19516,113.35
19528,110.78
19540,103.06
19552,92.93
19564,84.03
19575,79.29
19586,79.67
19598,83.88
19610,88.71
19622,90.17
19634,84.31
19646,68.52
19658,42.48
19670,8.15
19682,-30.92
19694,-70.76
19706,-107.55
19718,-138.13
19730,-159.77
19742,-170.49
19754,-169.3
19765,-156.72
19776,-135.12
19788,-108.4
19800,-80.87
19812,-55.56
19824,-33.54
19836,-13.99
19848,4.29
19860,21.71
19872,37.46
19884,50.06
19896,58.53
19908,63.24
19920,65.86
19932,68.28
19944,71.28
19955,73.78
19966,73.16
19978,66.45
19990,51.63
20002,28.48
20014,-1.39
20026,-34.94
20038,-68.43
20050,-97.89
20062,-119.44
20074,-129.86
20086,-127.34
20098,-112.22
20110,-87.39
20122,-57.72
20134,-28.64
20145,-4.42
20156,12.96
20168,23.98
20180,30.6
20192,34.88
20204,38.13
20216,40.89
20228,43.53
20240,46.91
20252,52.27
20264,60.35
20276,70.32
20288,79.22
20300,82.54
20312,75.79
20324,56.5
20335,25.61
20346,-12.45
20358,-51.17
20370,-84.1
20382,-106.83
20394,-117.89
20406,-118.49
20418,-111.39
20430,-99.69
20442,-85.99
20454,-72.2
20466,-59.58
20478,-48.85
20490,-40.15
20502,-32.95
20514,-26.22
20525,-18.72
20536,-9.49
20548,1.72
20560,14.38
20572,27.37
20584,39.39
20596,49.39
20608,56.75
20620,61.32
20632,63.3
20644,63.05
20656,60.92
20668,57.18
20680,52.09
20692,46.04
20704,39.68
20715,33.91
20726,29.7
20738,27.9
20750,28.96
20762,32.72
20774,38.15
20786,43.29
20798,45.72
20810,43.38
20822,35.56
20834,23.56
20846,10.32
20858,-0.68
20870,-6.96
20882,-8.11
20894,-5.74
20905,-2.46
20916,-0.48
20928,-0.64
20940,-2.38
20952,-4.51
20964,-6.15
20976,-7.13
20988,-7.94
