seconds,BVP
4,2.32
16,1.86
28,0.56
40,-1.64
51,-4.06
62,-5.72
74,-6.01
86,-5.12
98,-3.91
110,-3.3
122,-3.76
134,-5.06
146,-6.62
158,-8.03
170,-9.31
182,-10.68
194,-12.23
206,-13.68
218,-14.52
230,-14.53
241,-14.07
252,-13.98
264,-14.93
276,-16.97
288,-19.33
300,-20.84
312,-20.66
324,-18.74
336,-15.66
348,-12.18
360,-8.76
372,-5.43
384,-2.22
396,0.54
408,2.24
420,2.43
431,1.24
442,-0.42
454,-1.37
466,-0.86
478,0.97
490,3.29
502,5.19
514,6.2
526,6.49
538,6.54
550,6.64
562,6.68
574,6.43
586,5.87
598,5.39
610,5.54
621,6.56
632,8.09
644,9.36
656,9.74
668,9.15
680,8.12
692,7.44
704,7.47
716,7.91
728,8.08
740,7.48
752,6.15
764,4.64
776,3.54
788,2.93
800,2.38
811,1.35
822,-0.3
834,-2.04
846,-3.05
858,-2.83
870,-1.59
882,-0.12
894,0.82
906,0.94
918,0.64
930,0.55
942,0.98
954,1.69
966,2.28
978,2.52
990,2.7
1001,3.29
1012,4.47
1024,5.78
1036,6.38
1048,5.64
1060,3.65
1072,1.24
1084,-0.53
1096,-1.15
1108,-0.97
1120,-0.87
1132,-1.68
1144,-3.67
1156,-6.46
1168,-9.49
1180,-12.42
1191,-15.18
1202,-17.74
1214,-19.75
1226,-20.51
1238,-19.31
1250,-16.0
1262,-11.25
1274,-6.28
1286,-2.28
1298,0.15
1310,1.15
1322,1.29
1334,1.1
1346,0.76
1358,0.31
1370,-0.14
1381,-0.24
1392,0.43
1404,1.94
1416,3.79
1428,5.18
1440,5.53
1452,4.86
1464,3.85
1476,3.36
1488,3.81
1500,4.92
1512,6.09
1524,6.85
1536,7.25
1548,7.71
1560,8.53
1571,9.51
1582,10.01
1594,9.47
1606,7.91
1618,6.02
1630,4.75
1642,4.64
1654,5.48
1666,6.58
1678,7.24
1690,7.2
1702,6.72
1714,6.19
1726,5.72
1738,5.09
1750,4.07
1761,2.7
1772,1.45
1784,0.9
1796,1.22
1808,1.96
1820,2.3
1832,1.67
1844,0.11
1856,-1.65
1868,-2.77
1880,-2.85
1892,-2.25
1904,-1.75
1916,-1.96
1928,-2.93
1940,-4.19
1951,-5.19
1962,-5.83
1974,-6.49
1986,-7.61
1998,-9.26
2010,-10.98
2022,-12.07
2034,-12.16
2046,-11.6
2058,-11.15
2070,-11.52
2082,-12.91
2094,-14.87
2106,-16.71
2118,-17.93
2130,-18.44
2141,-18.3
2152,-17.47
2164,-15.7
2176,-12.77
2188,-8.85
2200,-4.68
2212,-1.22
2224,0.93
2236,1.74
2248,1.83
2260,1.91
2272,2.33
2284,2.92
2296,3.34
2308,3.46
2320,3.58
2331,4.2
2342,5.5
2354,7.09
2366,8.22
2378,8.29
2390,7.38
2402,6.24
2414,5.85
2426,6.68
2438,8.39
2450,10.1
2462,11.04
2474,11.01
2486,10.46
2498,10.01
2510,9.89
2521,9.81
2532,9.26
2544,8.03
2556,6.49
2568,5.39
2580,5.26
2592,6.05
2604,7.15
2616,7.87
2628,7.87
2640,7.36
2652,6.75
2664,6.25
2676,5.72
2688,4.92
2700,3.85
2711,2.88
2722,2.5
2734,2.9
2746,3.64
2758,3.97
2770,3.34
2782,1.79
2794,-0.02
2806,-1.3
2818,-1.73
2830,-1.65
2842,-1.69
2854,-2.35
2866,-3.56
2878,-4.85
2890,-5.76
2901,-6.32
2912,-6.94
2924,-8.09
2936,-9.83
2948,-11.71
2960,-13.07
2972,-13.58
2984,-13.5
2996,-13.48
3008,-14.01
3020,-15.03
3032,-15.94
3044,-16.01
3056,-14.93
3068,-13.0
3080,-10.77
3091,-8.64
3102,-6.58
3114,-4.27
3126,-1.62
3138,0.96
3150,2.74
3162,3.24
3174,2.58
3186,1.51
3198,0.95
3210,1.28
3222,2.19
3234,3.04
3246,3.45
3258,3.61
3270,4.13
3281,5.43
3292,7.29
3304,8.9
3316,9.52
3328,8.91
3340,7.66
3352,6.7
3364,6.62
3376,7.3
3388,8.1
3400,8.35
3412,7.86
3424,6.9
3436,5.93
3448,5.1
3460,4.18
3471,2.89
3482,1.27
3494,-0.19
3506,-0.8
3518,-0.24
3530,1.15
3542,2.53
3554,3.15
3566,2.78
3578,1.82
3590,1.01
3602,0.8
3614,1.07
3626,1.37
3638,1.31
3650,0.88
3661,0.41
3672,0.19
3684,0.05
3696,-0.49
3708,-1.86
3720,-3.99
3732,-6.23
3744,-7.7
3756,-8.02
3768,-7.54
3780,-7.14
3792,-7.64
3804,-9.27
3816,-11.59
3828,-13.83
3840,-15.43
3851,-16.21
3862,-16.25
3874,-15.52
3886,-13.85
3898,-11.07
3910,-7.44
3922,-3.74
3934,-0.96
3946,0.31
3958,0.2
3970,-0.43
3982,-0.6
3994,0.18
4006,1.64
4018,3.12
4030,4.09
4041,4.54
4052,4.96
4064,5.82
4076,7.09
4088,8.25
4100,8.64
4112,8.03
4124,6.88
4136,6.06
4148,6.26
4160,7.51
4172,9.24
4184,10.7
4196,11.41
4208,11.4
4220,10.98
4231,10.33
4242,9.39
4254,8.05
4266,6.44
4278,5.06
4290,4.56
4302,5.18
4314,6.53
4326,7.75
4338,8.1
4350,7.39
4362,6.08
4374,4.87
4386,4.13
4398,3.65
4410,2.98
4421,1.88
4432,0.58
4444,-0.36
4456,-0.59
4468,-0.32
4480,-0.27
4492,-1.1
4504,-2.95
4516,-5.32
4528,-7.34
4540,-8.48
4552,-8.77
4564,-8.73
4576,-8.89
4588,-9.45
4600,-10.22
4611,-10.97
4622,-11.81
4634,-13.13
4646,-15.22
4658,-17.93
4670,-20.46
4682,-21.75
4694,-21.07
4706,-18.5
4718,-14.81
4730,-10.97
4742,-7.66
4754,-5.0
4766,-2.79
4778,-0.91
4790,0.45
4801,1.08
4812,1.05
4824,0.86
4836,1.24
4848,2.52
4860,4.36
4872,5.93
4884,6.52
4896,6.07
4908,5.26
4920,5.05
4932,5.93
4944,7.58
4956,9.24
4968,10.23
4980,10.48
4991,10.48
5002,10.74
5014,11.28
5026,11.65
5038,11.3
5050,10.11
5062,8.56
5074,7.45
5086,7.31
5098,7.99
5110,8.9
5122,9.46
5134,9.41
5146,8.97
5158,8.46
5170,7.97
5181,7.26
5192,6.09
5204,4.56
5216,3.16
5228,2.52
5240,2.86
5252,3.77
5264,4.43
5276,4.16
5288,2.87
5300,1.11
5312,-0.38
5324,-1.19
5336,-1.54
5348,-1.94
5360,-2.76
5371,-3.93
5382,-4.96
5394,-5.52
5406,-5.74
5418,-6.19
5430,-7.39
5442,-9.38
5454,-11.54
5466,-13.05
5478,-13.52
5490,-13.29
5502,-13.18
5514,-13.82
5526,-15.24
5538,-16.78
5550,-17.63
5561,-17.39
5572,-16.25
5584,-14.68
5596,-12.99
5608,-11.08
5620,-8.64
5632,-5.55
5644,-2.23
5656,0.58
5668,2.3
5680,2.83
5692,2.64
5704,2.38
5716,2.41
5728,2.63
5740,2.82
5751,2.9
5762,3.18
5774,4.08
5786,5.73
5798,7.67
5810,9.14
5822,9.54
5834,8.89
5846,7.86
5858,7.35
5870,7.83
5882,9.06
5894,10.35
5906,11.06
5918,11.03
5930,10.59
5941,10.19
5952,9.9
5964,9.42
5976,8.37
5988,6.7
6000,4.88
6012,3.62
6024,3.33
6036,3.81
6048,4.43
6060,4.59
6072,4.07
6084,3.18
6096,2.32
6108,1.65
6120,0.97
6131,0.02
6142,-1.19
6154,-2.27
6166,-2.74
6178,-2.47
6190,-1.89
6202,-1.72
6214,-2.44
6226,-4.01
6238,-5.88
6250,-7.43
6262,-8.48
6274,-9.36
6286,-10.52
6298,-12.14
6310,-13.89
6321,-15.26
6332,-15.93
6344,-16.13
6356,-16.34
6368,-16.86
6380,-17.4
6392,-17.13
6404,-15.24
6416,-11.58
6428,-6.89
6440,-2.44
6452,0.76
6464,2.37
6476,2.83
6488,2.9
6500,3.04
6511,3.21
6522,3.18
6534,2.87
6546,2.65
6558,3.09
6570,4.47
6582,6.49
6594,8.42
6606,9.59
6618,9.8
6630,9.46
6642,9.15
6654,9.2
6666,9.46
6678,9.59
6690,9.45
6701,9.24
6712,9.35
6724,9.91
6736,10.51
6748,10.51
6760,9.53
6772,7.83
6784,6.25
6796,5.7
6808,6.48
6820,8.02
6832,9.35
6844,9.7
6856,8.94
6868,7.6
6880,6.37
6891,5.54
6902,4.9
6914,4.02
6926,2.69
6938,1.21
6950,0.2
6962,0.08
6974,0.73
6986,1.52
6998,1.78
7010,1.12
7022,-0.3
7034,-2.0
7046,-3.62
7058,-5.1
7070,-6.55
7081,-7.98
7092,-9.16
7104,-9.74
7116,-9.66
7128,-9.36
7140,-9.61
7152,-10.98
7164,-13.46
7176,-16.34
7188,-18.62
7200,-19.64
7212,-19.35
7224,-18.08
7236,-16.21
7248,-13.8
7260,-10.75
7271,-7.17
7282,-3.62
7294,-0.94
7306,0.29
7318,0.18
7330,-0.42
7342,-0.46
7354,0.63
7366,2.61
7378,4.7
7390,6.2
7402,6.89
7414,7.13
7426,7.44
7438,7.96
7450,8.44
7461,8.57
7472,8.29
7484,8.0
7496,8.24
7508,9.22
7520,10.6
7532,11.66
7544,11.84
7556,11.08
7568,9.9
7580,8.95
7592,8.54
7604,8.45
7616,8.26
7628,7.76
7640,7.13
7651,6.88
7662,7.26
7674,7.96
7686,8.25
7698,7.55
7710,5.84
7722,3.86
7734,2.61
7746,2.65
7758,3.75
7770,5.06
7782,5.78
7794,5.6
7806,4.87
7818,4.14
7830,3.66
7841,3.23
7852,2.45
7864,1.2
7876,-0.18
7888,-1.07
7900,-1.1
7912,-0.43
7924,0.32
7936,0.59
7948,0.16
7960,-0.76
7972,-1.79
7984,-2.84
7996,-4.12
8008,-5.81
8020,-7.74
8031,-9.38
8042,-10.07
8054,-9.64
8066,-8.64
8078,-8.03
8090,-8.6
8102,-10.46
8114,-12.93
8126,-15.09
8138,-16.36
8150,-16.79
8162,-16.83
8174,-16.79
8186,-16.5
8198,-15.41
8210,-13.09
8221,-9.7
8232,-6.02
8244,-2.95
8256,-0.94
8268,0.21
8280,1.19
8292,2.49
8304,4.05
8316,5.38
8328,6.02
8340,5.92
8352,5.52
8364,5.31
8376,5.39
8388,5.4
8400,4.93
8411,3.94
8422,2.92
8434,2.62
8446,3.39
8458,4.84
8470,6.09
8482,6.46
8494,5.9
8506,5.09
8518,4.93
8530,5.87
8542,7.57
8554,9.29
8566,10.39
8578,10.78
8590,10.87
8601,11.08
8612,11.45
8624,11.58
8636,11.04
8648,9.76
8660,8.23
8672,7.2
8684,7.12
8696,7.8
8708,8.58
8720,8.8
8732,8.24
8744,7.18
8756,6.15
8768,5.47
8780,5.0
8791,4.46
8802,3.74
8814,3.08
8826,2.94
8838,3.47
8850,4.25
8862,4.47
8874,3.48
8886,1.26
8898,-1.44
8910,-3.61
8922,-4.65
8934,-4.79
8946,-4.78
8958,-5.35
8970,-6.75
8981,-8.66
8992,-10.7
9004,-12.78
9016,-15.2
9028,-18.16
9040,-21.38
9052,-23.95
9064,-24.74
9076,-23.11
9088,-19.39
9100,-14.65
9112,-10.12
9124,-6.7
9136,-4.58
9148,-3.56
9160,-3.35
9171,-3.82
9182,-4.75
9194,-5.74
9206,-6.17
9218,-5.46
9230,-3.58
9242,-1.15
9254,0.9
9266,1.88
9278,1.78
9290,1.25
9302,1.07
9314,1.65
9326,2.71
9338,3.67
9350,4.14
9361,4.26
9372,4.54
9384,5.39
9396,6.61
9408,7.55
9420,7.52
9432,6.39
9444,4.75
9456,3.56
9468,3.44
9480,4.26
9492,5.33
9504,5.98
9516,5.98
9528,5.66
9540,5.5
9551,5.62
9562,5.7
9574,5.3
9586,4.3
9598,3.11
9610,2.44
9622,2.66
9634,3.49
9646,4.21
9658,4.14
9670,3.09
9682,1.52
9694,0.09
9706,-0.83
9718,-1.33
9730,-1.76
9741,-2.35
9752,-2.98
9764,-3.32
9776,-3.22
9788,-3.0
9800,-3.24
9812,-4.35
9824,-6.22
9836,-8.14
9848,-9.27
9860,-9.21
9872,-8.32
9884,-7.39
9896,-7.11
9908,-7.68
9920,-8.77
9931,-9.93
9942,-11.06
9954,-12.49
9966,-14.54
9978,-17.11
9990,-19.46
10002,-20.49
10014,-19.51
10026,-16.64
10038,-12.75
10050,-8.86
10062,-5.61
10074,-3.01
10086,-0.7
10098,1.47
10110,3.31
10121,4.44
10132,4.8
10144,4.82
10156,5.2
10168,6.38
10180,8.13
10192,9.69
10204,10.38
10216,10.12
10228,9.55
10240,9.61
10252,10.77
10264,12.71
10276,14.59
10288,15.56
10300,15.34
10311,14.29
10322,12.95
10334,11.54
10346,9.93
10358,7.85
10370,5.3
10382,2.78
10394,0.98
10406,0.32
10418,0.55
10430,0.97
10442,0.89
10454,0.04
10466,-1.3
10478,-2.6
10490,-3.57
10501,-4.32
10512,-5.03
10524,-5.74
10536,-6.11
10548,-5.67
10560,-4.27
10572,-2.4
10584,-0.9
10596,-0.42
10608,-1.02
10620,-2.11
10632,-2.93
10644,-3.15
10656,-3.04
10668,-3.18
10680,-3.87
10691,-4.89
10702,-5.66
10714,-5.79
10726,-5.51
10738,-5.51
10750,-6.43
10762,-8.3
10774,-10.48
10786,-12.02
10798,-12.42
10810,-11.94
10822,-11.32
10834,-11.22
10846,-11.79
10858,-12.65
10870,-13.36
10881,-13.92
10892,-14.78
10904,-16.39
10916,-18.75
10928,-21.08
10940,-22.28
10952,-21.58
10964,-19.1
10976,-15.64
10988,-12.21
11000,-9.37
11012,-7.05
11024,-4.82
11036,-2.46
11048,-0.25
11060,1.29
11071,1.87
11082,1.77
11094,1.74
11106,2.4
11118,3.74
11130,5.12
11142,5.82
11154,5.61
11166,5.05
11178,5.08
11190,6.34
11202,8.61
11214,11.07
11226,12.82
11238,13.51
11250,13.53
11261,13.52
11272,13.8
11284,14.19
11296,14.18
11308,13.55
11320,12.6
11332,11.98
11344,12.09
11356,12.74
11368,13.24
11380,12.96
11392,11.77
11404,10.18
11416,8.89
11428,8.26
11440,8.02
11451,7.63
11462,6.75
11474,5.51
11486,4.49
11498,4.1
11510,4.21
11522,4.25
11534,3.6
11546,2.15
11558,0.39
11570,-0.89
11582,-1.26
11594,-0.95
11606,-0.63
11618,-0.95
11630,-2.08
11641,-3.61
11652,-4.99
11664,-5.97
11676,-6.72
11688,-7.62
11700,-8.89
11712,-10.34
11724,-11.57
11736,-12.34
11748,-12.82
11760,-13.37
11772,-14.19
11784,-15.01
11796,-15.19
11808,-14.14
11820,-11.81
11831,-8.79
11842,-5.87
11854,-3.53
11866,-1.73
11878,-0.06
11890,1.69
11902,3.23
11914,4.0
11926,3.64
11938,2.42
11950,1.23
11962,1.01
11974,2.13
11986,4.12
11998,6.06
12010,7.25
12021,7.58
12032,7.59
12044,7.93
12056,8.76
12068,9.76
12080,10.39
12092,10.37
12104,9.98
12116,9.8
12128,10.27
12140,11.28
12152,12.29
12164,12.76
12176,12.45
12188,11.65
12200,10.82
12211,10.19
12222,9.6
12234,8.73
12246,7.44
12258,5.96
12270,4.83
12282,4.38
12294,4.44
12306,4.41
12318,3.69
12330,1.99
12342,-0.45
12354,-3.12
12366,-5.73
12378,-8.29
12390,-10.97
12401,-13.72
12412,-16.17
12424,-17.81
12436,-18.49
12448,-18.68
12460,-19.28
12472,-20.96
12484,-23.66
12496,-26.46
12508,-28.1
12520,-27.68
12532,-25.19
12544,-21.33
12556,-17.0
12568,-12.82
12580,-8.96
12591,-5.45
12602,-2.47
12614,-0.41
12626,0.48
12638,0.34
12650,-0.17
12662,-0.15
12674,0.89
12686,2.8
12698,4.96
12710,6.69
12722,7.69
12734,8.16
12746,8.45
12758,8.76
12770,8.92
12781,8.72
12792,8.17
12804,7.67
12816,7.77
12828,8.77
12840,10.37
12852,11.88
12864,12.61
12876,12.3
12888,11.26
12900,10.03
12912,8.96
12924,7.99
12936,6.94
12948,5.75
12960,4.72
12971,4.3
12982,4.64
12994,5.34
13006,5.62
13018,4.9
13030,3.25
13042,1.38
13054,0.22
13066,0.18
13078,0.82
13090,1.22
13102,0.55
13114,-1.39
13126,-4.16
13138,-7.09
13150,-9.74
13161,-12.06
13172,-14.04
13184,-15.44
13196,-15.69
13208,-14.27
13220,-11.13
13232,-6.99
13244,-2.96
13256,0.01
13268,1.55
13280,1.96
13292,1.77
13304,1.33
13316,0.63
13328,-0.38
13340,-1.51
13351,-2.22
13362,-1.92
13374,-0.44
13386,1.68
13398,3.48
13410,4.19
13422,3.7
13434,2.58
13446,1.67
13458,1.45
13470,1.75
13482,2.06
13494,2.04
13506,1.75
13518,1.67
13530,2.11
13541,2.87
13552,3.34
13564,3.01
13576,1.9
13588,0.65
13600,0.1
13612,0.63
13624,1.88
13636,3.04
13648,3.43
13660,2.88
13672,1.71
13684,0.28
13696,-1.46
13708,-3.91
13720,-7.42
13731,-11.86
13742,-16.5
13754,-20.36
13766,-22.74
13778,-23.58
13790,-23.24
13802,-22.03
13814,-20.04
13826,-17.07
13838,-13.05
13850,-8.41
13862,-3.97
13874,-0.47
13886,1.81
13898,3.25
13910,4.6
13921,6.29
13932,8.24
13944,9.89
13956,10.77
13968,10.84
13980,10.58
13992,10.63
14004,11.31
14016,12.43
14028,13.57
14040,14.49
14052,15.33
14064,16.5
14076,18.19
14088,20.09
14100,21.51
14111,21.88
14122,21.17
14134,19.95
14146,18.99
14158,18.65
14170,18.61
14182,18.25
14194,17.16
14206,15.5
14218,13.93
14230,12.95
14242,12.53
14254,12.08
14266,10.93
14278,8.85
14290,6.27
14301,3.99
14312,2.54
14324,1.81
14336,1.28
14348,0.39
14360,-1.05
14372,-2.85
14384,-4.76
14396,-6.78
14408,-9.19
14420,-12.08
14432,-15.11
14444,-17.42
14456,-18.14
14468,-16.95
14480,-14.43
14491,-11.65
14502,-9.57
14514,-8.48
14526,-7.93
14538,-7.21
14550,-5.94
14562,-4.38
14574,-3.07
14586,-2.38
14598,-2.17
14610,-1.93
14622,-1.23
14634,-0.22
14646,0.5
14658,0.43
14670,-0.42
14681,-1.3
14692,-1.24
14704,0.3
14716,3.04
14728,6.07
14740,8.51
14752,9.96
14764,10.64
14776,11.02
14788,11.3
14800,11.25
14812,10.61
14824,9.43
14836,8.25
14848,7.78
14860,8.36
14871,9.59
14882,10.58
14894,10.59
14906,9.49
14918,7.89
14930,6.68
14942,6.33
14954,6.64
14966,6.93
14978,6.6
14990,5.48
15002,3.93
15014,2.39
15026,0.99
15038,-0.5
15050,-2.42
15061,-4.75
15072,-7.08
15084,-8.78
15096,-9.61
15108,-9.91
15120,-10.46
15132,-11.89
15144,-14.24
15156,-16.91
15168,-18.96
15180,-19.8
15192,-19.42
15204,-18.17
15216,-16.4
15228,-14.19
15240,-11.39
15251,-8.04
15262,-4.6
15274,-1.78
15286,-0.08
15298,0.57
15310,0.78
15322,1.27
15334,2.34
15346,3.67
15358,4.76
15370,5.36
15382,5.77
15394,6.59
15406,8.11
15418,9.96
15430,11.3
15441,11.45
15452,10.41
15464,9.0
15476,8.3
15488,8.87
15500,10.44
15512,12.18
15524,13.31
15536,13.61
15548,13.42
15560,13.21
15572,13.08
15584,12.71
15596,11.69
15608,9.95
15620,7.97
15631,6.5
15642,6.01
15654,6.35
15666,6.85
15678,6.84
15690,6.04
15702,4.67
15714,3.22
15726,1.99
15738,0.84
15750,-0.5
15762,-2.13
15774,-3.83
15786,-5.15
15798,-5.9
15810,-6.44
15821,-7.45
15832,-9.51
15844,-12.61
15856,-16.0
15868,-18.65
15880,-19.86
15892,-19.58
15904,-18.3
15916,-16.58
15928,-14.69
15940,-12.55
15952,-10.09
15964,-7.56
15976,-5.48
15988,-4.25
16000,-3.77
16011,-3.37
16022,-2.24
16034,-0.03
16046,2.87
16058,5.56
16070,7.32
16082,8.01
16094,8.17
16106,8.55
16118,9.46
16130,10.64
16142,11.55
16154,11.84
16166,11.71
16178,11.71
16190,12.29
16201,13.33
16212,14.24
16224,14.38
16236,13.57
16248,12.26
16260,11.24
16272,11.03
16284,11.49
16296,12.07
16308,12.18
16320,11.64
16332,10.77
16344,10.03
16356,9.57
16368,9.13
16380,8.38
16391,7.23
16402,6.06
16414,5.49
16426,5.8
16438,6.65
16450,7.31
16462,7.16
16474,6.13
16486,4.78
16498,3.81
16510,3.57
16522,3.85
16534,4.13
16546,4.12
16558,3.95
16570,4.07
16581,4.72
16592,5.55
16604,5.84
16616,5.0
16628,3.06
16640,0.78
16652,-0.81
16664,-1.09
16676,-0.24
16688,0.95
16700,1.69
16712,1.61
16724,0.94
16736,0.16
16748,-0.49
16760,-1.1
16771,-1.95
16782,-3.11
16794,-4.28
16806,-5.03
16818,-5.17
16830,-5.04
16842,-5.33
16854,-6.54
16866,-8.64
16878,-10.97
16890,-12.6
16902,-12.96
16914,-12.04
16926,-10.18
16938,-7.66
16950,-4.51
16961,-0.54
16972,4.15
16984,9.01
16996,13.23
17008,16.24
17020,18.2
17032,19.94
17044,22.41
17056,25.87
17068,29.58
17080,32.19
17092,32.56
17104,30.31
17116,25.93
17128,20.19
17140,13.71
17151,6.66
17162,-0.99
17174,-9.12
17186,-17.28
17198,-24.82
17210,-31.48
17222,-37.64
17234,-43.99
17246,-50.8
17258,-57.72
17270,-63.79
17282,-68.12
17294,-70.4
17306,-70.81
17318,-69.88
17330,-68.32
17341,-66.69
17352,-65.17
17364,-64.1
17376,-64.16
17388,-66.11
17400,-70.35
17412,-75.79
17424,-80.39
17436,-82.22
17448,-80.18
17460,-74.0
17472,-64.32
17484,-52.39
17496,-39.61
17508,-27.46
17520,-16.23
17531,-6.0
17542,2.98
17554,10.59
17566,17.63
17578,25.48
17590,35.31
17602,47.48
17614,60.82
17626,74.56
17638,87.75
17650,99.32
17662,104.31
17674,98.89
17686,83.13
17698,61.68
17710,44.08
17721,31.88
17732,24.55
17744,21.17
17756,19.45
17768,18.15
17780,17.16
17792,16.95
17804,17.89
17816,19.76
17828,21.25
17840,21.73
17852,20.81
17864,18.28
17876,14.51
17888,10.69
17900,8.15
17911,7.54
17922,8.57
17934,9.98
17946,11.38
17958,12.95
17970,15.06
17982,18.11
17994,22.29
18006,27.34
18018,32.58
18030,37.22
18042,40.45
18054,42.28
18066,42.92
18078,42.33
18090,40.36
18101,37.12
18112,33.03
18124,28.75
18136,24.76
18148,20.93
18160,16.87
18172,12.09
18184,6.39
18196,0.13
18208,-5.86
18220,-10.84
18232,-14.59
18244,-17.48
18256,-20.13
18268,-22.8
18280,-25.26
18291,-27.05
18302,-27.92
18314,-28.1
18326,-28.17
18338,-28.65
18350,-29.61
18362,-30.67
18374,-31.26
18386,-31.06
18398,-30.25
18410,-29.21
18422,-28.22
18434,-27.25
18446,-25.99
18458,-24.24
18470,-22.18
18481,-20.25
18492,-18.86
18504,-18.07
18516,-17.46
18528,-16.41
18540,-14.52
18552,-11.96
18564,-9.23
18576,-6.88
18588,-5.19
18600,-4.01
18612,-3.04
18624,-2.18
18636,-1.53
18648,-1.28
18660,-1.42
18671,-1.64
18682,-1.46
18694,-0.62
18706,0.76
18718,2.25
18730,3.44
18742,4.16
18754,4.54
18766,4.83
18778,5.04
18790,4.99
18802,4.56
18814,3.89
18826,3.47
18838,3.81
18850,4.98
18861,6.48
18872,7.46
18884,7.27
18896,5.84
18908,3.66
18920,1.39
18932,-0.55
18944,-2.18
18956,-3.61
18968,-4.73
18980,-5.08
18992,-4.12
19004,-1.77
19016,1.35
19028,4.13
19040,5.65
19051,5.59
19062,4.42
19074,2.99
19086,1.87
19098,1.04
19110,0.09
19122,-1.26
19134,-2.95
19146,-4.47
19158,-5.33
19170,-5.47
19182,-5.28
19194,-5.3
19206,-5.76
19218,-6.39
19230,-6.61
19241,-5.96
19252,-4.47
19264,-2.57
19276,-0.81
19288,0.51
19300,1.43
19312,2.14
19324,2.71
19336,2.96
19348,2.72
19360,2.02
19372,1.22
19384,0.79
19396,0.9
19408,1.32
19420,1.53
19431,1.18
19442,0.36
19454,-0.47
19466,-0.83
19478,-0.64
19490,-0.28
19502,-0.22
19514,-0.58
19526,-0.97
19538,-0.78
19550,0.29
19562,1.85
19574,3.0
19586,2.92
19598,1.43
19610,-0.84
19621,-2.79
19632,-3.63
19644,-3.31
19656,-2.44
19668,-1.82
19680,-1.92
19692,-2.67
19704,-3.71
19716,-4.78
19728,-5.91
19740,-7.28
19752,-8.91
19764,-10.49
19776,-11.54
19788,-11.7
19800,-11.17
19811,-10.57
19822,-10.57
19834,-11.5
19846,-13.15
19858,-14.91
19870,-16.22
19882,-16.73
19894,-16.31
19906,-14.91
19918,-12.41
19930,-8.78
19942,-4.33
19954,0.19
19966,3.83
19978,5.93
19990,6.43
20001,5.93
20012,5.29
20024,5.1
20036,5.46
20048,6.11
20060,6.77
20072,7.37
20084,8.12
20096,9.11
20108,10.13
20120,10.72
20132,10.55
20144,9.72
20156,8.76
20168,8.34
20180,8.8
20191,9.93
20202,11.14
20214,11.92
20226,12.13
20238,12.03
20250,11.98
20262,12.06
20274,11.99
20286,11.45
20298,10.34
20310,9.0
20322,7.98
20334,7.64
20346,7.87
20358,8.18
20370,8.02
20381,7.23
20392,6.06
20404,4.96
20416,4.19
20428,3.64
20440,3.0
20452,2.12
20464,1.17
20476,0.59
20488,0.63
20500,1.09
20512,1.44
20524,1.18
20536,0.25
20548,-0.9
20560,-1.6
20571,-1.55
20582,-1.02
20594,-0.62
20606,-0.88
20618,-1.82
20630,-3.02
20642,-3.97
20654,-4.54
20666,-5.07
20678,-6.0
20690,-7.47
20702,-9.11
20714,-10.23
20726,-10.35
20738,-9.58
20750,-8.53
20761,-7.92
20772,-8.15
20784,-9.14
20796,-10.5
20808,-11.94
20820,-13.44
20832,-15.03
20844,-16.56
20856,-17.54
20868,-17.33
20880,-15.56
20892,-12.45
20904,-8.7
20916,-5.13
20928,-2.22
20940,0.07
20951,2.07
20962,4.0
20974,5.71
20986,6.86
20998,7.27
