seconds,BVP
9,-5.22
21,-10.15
33,-13.88
45,-16.44
57,-17.81
69,-17.86
81,-16.33
93,-13.02
105,-7.96
117,-1.5
129,5.73
141,13.09
152,20.1
163,26.59
175,32.61
187,38.21
199,43.25
211,47.38
223,50.14
235,51.3
247,50.91
259,49.32
271,47.03
283,44.5
295,42.01
307,39.67
319,37.53
331,35.64
342,34.03
353,32.72
365,31.65
377,30.72
389,29.79
401,28.67
413,27.2
425,25.15
437,22.43
449,19.01
461,15.03
473,10.7
485,6.25
497,1.76
509,-2.75
521,-7.28
532,-11.74
543,-15.87
555,-19.43
567,-22.15
579,-23.98
591,-24.87
603,-24.72
615,-23.33
627,-20.4
639,-15.87
651,-9.95
663,-3.3
675,3.3
687,9.27
699,14.4
711,19.01
722,23.66
733,28.75
745,34.21
757,39.52
769,43.83
781,46.46
793,47.15
805,46.12
817,43.86
829,40.79
841,37.02
853,32.39
865,26.77
877,20.22
889,13.07
901,5.76
912,-1.39
923,-8.29
935,-15.02
947,-21.56
959,-27.67
971,-32.9
983,-36.76
995,-38.96
1007,-39.65
1019,-39.37
1031,-38.81
1043,-38.49
1055,-38.61
1067,-38.98
1079,-39.15
1091,-38.65
1102,-37.19
1113,-34.69
1125,-31.39
1137,-27.55
1149,-23.34
1161,-18.81
1173,-13.93
1185,-8.77
1197,-3.59
1209,1.12
1221,4.85
1233,7.26
1245,8.32
1257,8.36
1269,7.85
1281,7.22
1292,6.65
1303,6.05
1315,5.21
1327,3.99
1339,2.47
1351,0.91
1363,-0.32
1375,-1.0
1387,-1.06
1399,-0.62
1411,0.12
1423,1.08
1435,2.28
1447,3.77
1459,5.54
1471,7.42
1482,9.06
1493,10.03
1505,9.89
1517,8.33
1529,5.31
1541,1.03
1553,-4.03
1565,-9.22
1577,-13.78
1589,-17.0
1601,-18.47
1613,-18.11
1625,-16.27
1637,-13.45
1649,-10.18
1661,-6.81
1672,-3.45
1683,-0.12
1695,3.19
1707,6.41
1719,9.44
1731,12.14
1743,14.49
1755,16.46
1767,18.1
1779,19.39
1791,20.17
1803,20.32
1815,19.79
1827,18.71
1839,17.33
1851,15.95
1862,14.79
1873,13.91
1885,13.26
1897,12.6
1909,11.65
1921,10.19
1933,8.1
1945,5.47
1957,2.51
1969,-0.46
1981,-3.1
1993,-5.17
2005,-6.6
2017,-7.45
2029,-7.95
2041,-8.38
2052,-9.07
2063,-10.32
2075,-12.43
2087,-15.56
2099,-19.51
2111,-23.78
2123,-27.45
2135,-29.56
2147,-29.46
2159,-27.0
2171,-22.66
2183,-17.27
2195,-11.65
2207,-6.33
2219,-1.44
2231,3.17
2242,7.59
2253,11.77
2265,15.42
2277,18.2
2289,19.89
2301,20.5
2313,20.2
2325,19.22
2337,17.81
2349,16.16
2361,14.4
2373,12.66
2385,10.97
2397,9.35
2409,7.71
2421,5.99
2432,4.15
2443,2.23
2455,0.35
2467,-1.38
2479,-2.85
2491,-4.11
2503,-5.26
2515,-6.46
2527,-7.78
2539,-9.25
2551,-10.8
2563,-12.3
2575,-13.6
2587,-14.59
2599,-15.23
2611,-15.58
2622,-15.8
2633,-16.1
2645,-16.68
2657,-17.63
2669,-18.93
2681,-20.36
2693,-21.53
2705,-22.04
2717,-21.56
2729,-19.92
2741,-17.22
2753,-13.81
2765,-10.14
2777,-6.64
2789,-3.5
2801,-0.63
2812,2.28
2823,5.54
2835,9.19
2847,12.99
2859,16.39
2871,18.86
2883,20.08
2895,20.17
2907,19.58
2919,18.92
2931,18.71
2943,19.13
2955,20.05
2967,21.06
2979,21.74
2991,21.8
3002,21.14
3013,19.88
3025,18.22
3037,16.33
3049,14.3
3061,12.15
3073,9.87
3085,7.51
3097,5.22
3109,3.16
3121,1.45
3133,0.03
3145,-1.28
3157,-2.74
3169,-4.55
3181,-6.75
3192,-9.25
3203,-11.9
3215,-14.53
3227,-17.03
3239,-19.29
3251,-21.21
3263,-22.68
3275,-23.48
3287,-23.47
3299,-22.54
3311,-20.67
3323,-17.9
3335,-14.35
3347,-10.11
3359,-5.37
3371,-0.47
3382,4.17
3393,8.13
3405,11.17
3417,13.28
3429,14.67
3441,15.61
3453,16.27
3465,16.62
3477,16.5
3489,15.76
3501,14.38
3513,12.59
3525,10.7
3537,9.02
3549,7.74
3561,6.86
3572,6.29
3583,5.86
3595,5.43
3607,4.87
3619,4.08
3631,2.97
3643,1.47
3655,-0.44
3667,-2.8
3679,-5.55
3691,-8.65
3703,-11.95
3715,-15.24
3727,-18.16
3739,-20.38
3751,-21.6
3762,-21.68
3773,-20.72
3785,-18.93
3797,-16.6
3809,-13.96
3821,-11.19
3833,-8.39
3845,-5.7
3857,-3.27
3869,-1.24
3881,0.26
3893,1.28
3905,1.95
3917,2.38
3929,2.75
3941,3.13
3952,3.49
3963,3.83
3975,4.12
3987,4.38
3999,4.67
4011,4.97
4023,5.19
4035,5.17
4047,4.73
4059,3.79
4071,2.46
4083,0.93
4095,-0.62
4107,-2.03
4119,-3.32
4131,-4.55
4142,-5.77
4153,-7.01
4165,-8.27
4177,-9.59
4189,-11.1
4201,-12.84
4213,-14.67
4225,-16.27
4237,-17.1
4249,-16.68
4261,-14.82
4273,-11.77
4285,-8.08
4297,-4.46
4309,-1.33
4321,1.17
4332,3.17
4343,4.88
4355,6.42
4367,7.74
4379,8.7
4391,9.19
4403,9.17
4415,8.76
4427,8.15
4439,7.46
4451,6.75
4463,6.05
4475,5.39
4487,4.82
4499,4.43
4511,4.26
4522,4.3
4533,4.48
4545,4.7
4557,4.85
4569,4.83
4581,4.56
4593,3.98
4605,3.03
4617,1.74
4629,0.24
4641,-1.33
4653,-2.84
4665,-4.24
4677,-5.65
4689,-7.28
4701,-9.25
4712,-11.55
4723,-13.91
4735,-15.94
4747,-17.13
4759,-17.22
4771,-16.18
4783,-14.24
4795,-11.76
4807,-9.09
4819,-6.43
4831,-3.9
4843,-1.54
4855,0.66
4867,2.68
4879,4.52
4891,6.22
4902,7.84
4913,9.39
4925,10.85
4937,12.14
4949,13.13
4961,13.81
4973,14.11
4985,14.04
4997,13.59
5009,12.77
5021,11.66
5033,10.41
5045,9.21
5057,8.09
5069,7.03
5081,5.89
5092,4.48
5103,2.76
5115,0.79
5127,-1.2
5139,-2.9
5151,-4.11
5163,-4.8
5175,-5.1
5187,-5.26
5199,-5.57
5211,-6.25
5223,-7.38
5235,-8.91
5247,-10.56
5259,-11.92
5271,-12.54
5282,-12.02
5293,-10.17
5305,-7.13
5317,-3.27
5329,0.79
5341,4.47
5353,7.3
5365,9.08
5377,9.87
5389,9.89
5401,9.44
5413,8.81
5425,8.26
5437,7.94
5449,8.03
5461,8.55
5472,9.38
5483,10.3
5495,10.97
5507,11.09
5519,10.53
5531,9.43
5543,8.06
5555,6.71
5567,5.5
5579,4.36
5591,3.13
5603,1.72
5615,0.16
5627,-1.4
5639,-2.83
5651,-4.05
5662,-5.09
5673,-6.03
5685,-6.96
5697,-7.92
5709,-8.98
5721,-10.26
5733,-11.84
5745,-13.65
5757,-15.45
5769,-16.84
5781,-17.42
5793,-16.97
5805,-15.55
5817,-13.46
5829,-11.1
5841,-8.76
5852,-6.63
5863,-4.75
5875,-3.14
5887,-1.86
5899,-1.05
5911,-0.84
5923,-1.25
5935,-2.14
5947,-3.25
5959,-4.25
5971,-4.87
5983,-4.97
5995,-4.61
6007,-3.98
6019,-3.31
6031,-2.84
6042,-2.67
6053,-2.77
6065,-3.04
6077,-3.32
6089,-3.51
6101,-3.63
6113,-3.81
6125,-4.17
6137,-4.82
6149,-5.81
6161,-7.17
6173,-8.9
6185,-11.0
6197,-13.35
6209,-15.73
6221,-17.79
6232,-19.07
6243,-19.17
6255,-17.96
6267,-15.63
6279,-12.58
6291,-9.31
6303,-6.24
6315,-3.6
6327,-1.39
6339,0.48
6351,2.15
6363,3.64
6375,4.92
6387,5.93
6399,6.61
6411,6.97
6422,7.1
6433,7.09
6445,7.03
6457,6.94
6469,6.73
6481,6.23
6493,5.27
6505,3.74
6517,1.68
6529,-0.77
6541,-3.35
6553,-5.83
6565,-8.02
6577,-9.84
6589,-11.35
6601,-12.69
6612,-14.03
6623,-15.57
6635,-17.43
6647,-19.63
6659,-22.11
6671,-24.57
6683,-26.64
6695,-27.87
6707,-27.88
6719,-26.46
6731,-23.66
6743,-19.74
6755,-15.15
6767,-10.34
6779,-5.68
6791,-1.39
6802,2.48
6813,5.8
6825,8.46
6837,10.24
6849,11.06
6861,10.98
6873,10.31
6885,9.54
6897,9.06
6909,9.05
6921,9.35
6933,9.67
6945,9.65
6957,9.16
6969,8.22
6981,6.97
6992,5.58
7003,4.08
7015,2.44
7027,0.56
7039,-1.65
7051,-4.25
7063,-7.25
7075,-10.59
7087,-14.19
7099,-17.86
7111,-21.36
7123,-24.38
7135,-26.61
7147,-27.7
7159,-27.41
7171,-25.67
7182,-22.59
7193,-18.56
7205,-14.04
7217,-9.56
7229,-5.39
7241,-1.65
7253,1.8
7265,5.08
7277,8.24
7289,11.2
7301,13.73
7313,15.64
7325,16.81
7337,17.29
7349,17.25
7361,16.9
7372,16.43
7383,15.95
7395,15.56
7407,15.33
7419,15.31
7431,15.45
7443,15.68
7455,15.8
7467,15.62
7479,14.95
7491,13.73
7503,12.0
7515,9.94
7527,7.75
7539,5.54
7551,3.41
7562,1.27
7573,-1.07
7585,-3.82
7597,-7.24
7609,-11.42
7621,-16.22
7633,-21.21
7645,-25.7
7657,-28.93
7669,-30.32
7681,-29.61
7693,-26.93
7705,-22.8
7717,-17.89
7729,-12.79
7741,-7.88
7752,-3.33
7763,0.87
7775,4.7
7787,8.16
7799,11.16
7811,13.63
7823,15.65
7835,17.39
7847,19.12
7859,20.98
7871,22.95
7883,24.85
7895,26.39
7907,27.32
7919,27.54
7931,27.19
7942,26.54
7953,25.89
7965,25.44
7977,25.16
7989,24.79
8001,24.04
8013,22.75
8025,20.94
8037,18.89
8049,16.94
8061,15.27
8073,13.88
8085,12.55
8097,10.99
8109,9.06
8121,6.8
8132,4.39
8143,2.08
8155,-0.06
8167,-2.07
8179,-4.09
8191,-6.27
8203,-8.69
8215,-11.39
8227,-14.37
8239,-17.65
8251,-21.21
8263,-24.94
8275,-28.54
8287,-31.58
8299,-33.54
8311,-33.96
8322,-32.71
8333,-29.93
8345,-26.03
8357,-21.45
8369,-16.65
8381,-11.86
8393,-7.18
8405,-2.64
8417,1.75
8429,5.89
8441,9.62
8453,12.75
8465,15.14
8477,16.75
8489,17.7
8501,18.24
8512,18.65
8523,19.18
8535,19.89
8547,20.67
8559,21.38
8571,21.88
8583,22.17
8595,22.43
8607,22.82
8619,23.32
8631,23.78
8643,23.9
8655,23.44
8667,22.34
8679,20.76
8691,19.03
8702,17.43
8713,16.06
8725,14.78
8737,13.3
8749,11.36
8761,8.88
8773,5.98
8785,2.88
8797,-0.14
8809,-2.98
8821,-5.63
8833,-8.24
8845,-10.89
8857,-13.65
8869,-16.53
8881,-19.54
8892,-22.75
8903,-26.27
8915,-30.2
8927,-34.49
8939,-38.84
8951,-42.69
8963,-45.35
8975,-46.17
8987,-44.76
8999,-41.18
9011,-35.89
9023,-29.56
9035,-22.87
9047,-16.27
9059,-9.97
9071,-3.99
9082,1.7
9093,7.06
9105,11.91
9117,16.04
9129,19.25
9141,21.5
9153,22.92
9165,23.73
9177,24.14
9189,24.31
9201,24.33
9213,24.23
9225,24.07
9237,23.84
9249,23.59
9261,23.3
9272,22.95
9283,22.5
9295,21.88
9307,21.09
9319,20.12
9331,19.02
9343,17.81
9355,16.55
9367,15.25
9379,13.93
9391,12.54
9403,11.04
9415,9.4
9427,7.55
9439,5.42
9451,2.97
9462,0.18
9473,-2.91
9485,-6.15
9497,-9.36
9509,-12.35
9521,-15.07
9533,-17.61
9545,-20.19
9557,-23.03
9569,-26.29
9581,-29.94
9593,-33.82
9605,-37.57
9617,-40.82
9629,-43.06
9641,-43.83
9652,-42.77
9663,-39.71
9675,-34.87
9687,-28.79
9699,-22.22
9711,-15.79
9723,-9.96
9735,-4.8
9747,-0.15
9759,4.15
9771,8.16
9783,11.69
9795,14.48
9807,16.42
9819,17.61
9831,18.35
9842,18.93
9853,19.51
9865,19.97
9877,20.14
9889,19.87
9901,19.27
9913,18.62
9925,18.25
9937,18.32
9949,18.7
9961,19.03
9973,18.86
9985,17.98
9997,16.42
10009,14.49
10021,12.67
10032,11.26
10043,10.36
10055,9.71
10067,8.92
10079,7.57
10091,5.42
10103,2.53
10115,-0.86
10127,-4.35
10139,-7.69
10151,-10.8
10163,-13.83
10175,-17.05
10187,-20.73
10199,-24.96
10211,-29.6
10222,-34.28
10233,-38.38
10245,-41.28
10257,-42.45
10269,-41.65
10281,-38.94
10293,-34.66
10305,-29.28
10317,-23.27
10329,-17.08
10341,-10.94
10353,-5.07
10365,0.4
10377,5.35
10389,9.65
10401,13.26
10412,16.2
10423,18.57
10435,20.43
10447,21.79
10459,22.57
10471,22.7
10483,22.18
10495,21.12
10507,19.72
10519,18.23
10531,16.84
10543,15.6
10555,14.47
10567,13.35
10579,12.22
10591,11.12
10602,10.12
10613,9.13
10625,8.06
10637,6.78
10649,5.22
10661,3.43
10673,1.53
10685,-0.34
10697,-2.12
10709,-3.85
10721,-5.69
10733,-7.79
10745,-10.34
10757,-13.42
10769,-17.04
10781,-21.12
10792,-25.43
10803,-29.66
10815,-33.39
10827,-36.25
10839,-37.87
10851,-38.04
10863,-36.65
10875,-33.66
10887,-29.23
10899,-23.65
10911,-17.42
10923,-11.09
10935,-5.19
10947,0.02
10959,4.44
10971,8.21
10982,11.53
10993,14.43
11005,16.82
11017,18.47
11029,19.22
11041,19.12
11053,18.4
11065,17.36
11077,16.32
11089,15.47
11101,14.8
11113,14.28
11125,13.79
11137,13.32
11149,12.88
11161,12.51
11172,12.18
11183,11.75
11195,11.02
11207,9.8
11219,8.05
11231,5.89
11243,3.64
11255,1.56
11267,-0.17
11279,-1.59
11291,-2.96
11303,-4.65
11315,-7.03
11327,-10.3
11339,-14.41
11351,-18.98
11362,-23.46
11373,-27.15
11385,-29.41
11397,-29.9
11409,-28.64
11421,-25.99
11433,-22.52
11445,-18.75
11457,-14.97
11469,-11.18
11481,-7.16
11493,-2.73
11505,2.1
11517,7.06
11529,11.73
11541,15.72
11552,18.82
11563,21.09
11575,22.7
11587,23.91
11599,24.83
11611,25.47
11623,25.81
11635,25.89
11647,25.83
11659,25.77
11671,25.78
11683,25.82
11695,25.74
11707,25.34
11719,24.5
11731,23.24
11742,21.64
11753,19.81
11765,17.77
11777,15.53
11789,13.09
11801,10.49
11813,7.76
11825,4.96
11837,1.99
11849,-1.32
11861,-5.2
11873,-9.78
11885,-15.09
11897,-20.95
11909,-27.01
11921,-32.87
11932,-38.02
11943,-41.9
11955,-44.03
11967,-44.04
11979,-41.79
11991,-37.46
12003,-31.54
12015,-24.67
12027,-17.5
12039,-10.5
12051,-3.9
12063,2.23
12075,7.88
12087,12.96
12099,17.3
12111,20.72
12122,23.16
12133,24.76
12145,25.87
12157,26.87
12169,28.01
12181,29.39
12193,30.82
12205,32.07
12217,32.89
12229,33.17
12241,32.95
12253,32.44
12265,31.85
12277,31.3
12289,30.77
12301,30.13
12312,29.22
12323,27.98
12335,26.45
12347,24.78
12359,23.11
12371,21.55
12383,20.03
12395,18.41
12407,16.48
12419,14.15
12431,11.48
12443,8.57
12455,5.61
12467,2.7
12479,-0.15
12491,-3.0
12502,-5.86
12513,-8.83
12525,-11.88
12537,-15.13
12549,-18.74
12561,-22.84
12573,-27.53
12585,-32.62
12597,-37.64
12609,-41.79
12621,-44.25
12633,-44.4
12645,-42.08
12657,-37.54
12669,-31.36
12681,-24.29
12692,-16.98
12703,-9.94
12715,-3.44
12727,2.38
12739,7.57
12751,12.18
12763,16.27
12775,19.84
12787,22.78
12799,25.0
12811,26.43
12823,27.19
12835,27.54
12847,27.79
12859,28.18
12871,28.7
12882,29.27
12893,29.66
12905,29.82
12917,29.79
12929,29.73
12941,29.73
12953,29.76
12965,29.68
12977,29.33
12989,28.64
13001,27.63
13013,26.46
13025,25.32
13037,24.3
13049,23.42
13061,22.62
13072,21.77
13083,20.77
13095,19.59
13107,18.19
13119,16.58
13131,14.81
13143,12.92
13155,10.94
13167,8.91
13179,6.88
13191,4.85
13203,2.82
13215,0.7
13227,-1.59
13239,-4.1
13251,-6.8
13262,-9.57
13273,-12.22
13285,-14.58
13297,-16.57
13309,-18.24
13321,-19.77
13333,-21.4
13345,-23.38
13357,-25.98
13369,-29.34
13381,-33.44
13393,-38.03
13405,-42.6
13417,-46.5
13429,-49.01
13441,-49.63
13452,-48.16
13463,-44.85
13475,-40.19
13487,-34.82
13499,-29.27
13511,-23.83
13523,-18.48
13535,-13.09
13547,-7.51
13559,-1.71
13571,4.06
13583,9.54
13595,14.42
13607,18.52
13619,21.83
13631,24.53
13642,26.81
13653,28.83
13665,30.61
13677,32.02
13689,32.9
13701,33.15
13713,32.77
13725,31.9
13737,30.73
13749,29.38
13761,27.92
13773,26.37
13785,24.74
13797,23.07
13809,21.45
13821,19.98
13832,18.78
13843,17.93
13855,17.43
13867,17.22
13879,17.16
13891,17.06
13903,16.83
13915,16.44
13927,16.02
13939,15.73
13951,15.6
13963,15.45
13975,14.98
13987,13.9
13999,12.05
14011,9.59
14022,6.8
14033,4.04
14045,1.51
14057,-0.77
14069,-2.98
14081,-5.29
14093,-7.84
14105,-10.67
14117,-13.67
14129,-16.68
14141,-19.45
14153,-21.82
14165,-23.67
14177,-25.09
14189,-26.33
14201,-27.74
14212,-29.62
14223,-32.1
14235,-35.1
14247,-38.36
14259,-41.59
14271,-44.44
14283,-46.56
14295,-47.59
14307,-47.17
14319,-45.09
14331,-41.45
14343,-36.69
14355,-31.48
14367,-26.46
14379,-21.97
14391,-17.9
14402,-13.86
14413,-9.46
14425,-4.58
14437,0.51
14449,5.27
14461,9.23
14473,12.16
14485,14.15
14497,15.52
14509,16.56
14521,17.46
14533,18.17
14545,18.63
14557,18.81
14569,18.86
14581,19.03
14592,19.53
14603,20.42
14615,21.53
14627,22.52
14639,23.04
14651,22.86
14663,22.04
14675,20.83
14687,19.61
14699,18.68
14711,18.11
14723,17.8
14735,17.5
14747,17.03
14759,16.31
14771,15.44
14782,14.52
14793,13.6
14805,12.6
14817,11.4
14829,9.87
14841,7.95
14853,5.75
14865,3.41
14877,1.08
14889,-1.17
14901,-3.31
14913,-5.42
14925,-7.56
14937,-9.71
14949,-11.86
14961,-13.92
14972,-15.83
14983,-17.55
14995,-19.05
15007,-20.33
15019,-21.45
15031,-22.49
15043,-23.59
15055,-25.0
15067,-26.96
15079,-29.68
15091,-33.14
15103,-37.05
15115,-40.78
15127,-43.57
15139,-44.71
15151,-43.78
15162,-40.84
15173,-36.29
15185,-30.82
15197,-25.12
15209,-19.68
15221,-14.72
15233,-10.21
15245,-5.98
15257,-1.88
15269,2.09
15281,5.83
15293,9.1
15305,11.71
15317,13.54
15329,14.66
15341,15.27
15352,15.57
15363,15.73
15375,15.87
15387,16.12
15399,16.64
15411,17.52
15423,18.75
15435,20.18
15447,21.51
15459,22.44
15471,22.79
15483,22.52
15495,21.7
15507,20.44
15519,18.82
15531,16.95
15542,15.02
15553,13.34
15565,12.22
15577,11.79
15589,11.89
15601,12.1
15613,11.93
15625,11.04
15637,9.39
15649,7.23
15661,4.95
15673,2.87
15685,1.13
15697,-0.39
15709,-1.94
15721,-3.73
15732,-5.86
15743,-8.29
15755,-10.94
15767,-13.69
15779,-16.53
15791,-19.44
15803,-22.47
15815,-25.61
15827,-28.85
15839,-32.18
15851,-35.63
15863,-39.22
15875,-42.93
15887,-46.54
15899,-49.69
15911,-51.89
15922,-52.63
15933,-51.59
15945,-48.78
15957,-44.47
15969,-39.19
15981,-33.51
15993,-27.91
16005,-22.63
16017,-17.75
16029,-13.18
16041,-8.82
16053,-4.67
16065,-0.79
16077,2.65
16089,5.53
16101,7.88
16112,9.82
16123,11.58
16135,13.31
16147,15.1
16159,16.82
16171,18.33
16183,19.5
16195,20.34
16207,21.0
16219,21.58
16231,22.17
16243,22.69
16255,23.03
16267,23.09
16279,22.88
16291,22.41
16302,21.79
16313,21.1
16325,20.36
16337,19.65
16349,18.96
16361,18.31
16373,17.68
16385,17.01
16397,16.19
16409,15.12
16421,13.81
16433,12.32
16445,10.76
16457,9.21
16469,7.7
16481,6.16
16492,4.51
16503,2.64
16515,0.47
16527,-2.05
16539,-4.92
16551,-8.0
16563,-11.06
16575,-13.87
16587,-16.12
16599,-17.75
16611,-18.88
16623,-19.86
16635,-21.09
16647,-22.92
16659,-25.48
16671,-28.63
16682,-32.11
16693,-35.47
16705,-38.26
16717,-40.07
16729,-40.56
16741,-39.51
16753,-36.93
16765,-33.04
16777,-28.27
16789,-23.19
16801,-18.24
16813,-13.68
16825,-9.54
16837,-5.65
16849,-1.85
16861,1.91
16872,5.51
16883,8.73
16895,11.37
16907,13.38
16919,14.89
16931,16.1
16943,17.22
16955,18.35
16967,19.51
16979,20.64
16991,21.7
17003,22.72
17015,23.68
17027,24.63
17039,25.5
17051,26.21
17062,26.66
17073,26.73
17085,26.36
17097,25.49
17109,24.09
17121,22.17
17133,19.86
17145,17.27
17157,14.57
17169,11.88
17181,9.27
17193,6.76
17205,4.35
17217,2.05
17229,-0.11
17241,-2.08
17252,-3.82
17263,-5.29
17275,-6.51
17287,-7.64
17299,-8.78
17311,-10.01
17323,-11.33
17335,-12.58
17347,-13.59
17359,-14.32
17371,-14.87
17383,-15.54
17395,-16.69
17407,-18.58
17419,-21.22
17431,-24.41
17442,-27.81
17453,-31.12
17465,-34.15
17477,-36.75
17489,-38.69
17501,-39.68
17513,-39.36
17525,-37.55
17537,-34.33
17549,-30.07
17561,-25.25
17573,-20.37
17585,-15.63
17597,-11.06
17609,-6.54
17621,-1.94
17632,2.71
17643,7.19
17655,11.27
17667,14.65
17679,17.15
17691,18.78
17703,19.65
17715,20.01
17727,20.2
17739,20.53
17751,21.12
17763,22.02
17775,23.15
17787,24.31
17799,25.39
17811,26.28
17822,26.84
17833,27.0
17845,26.65
17857,25.72
17869,24.23
17881,22.26
17893,19.98
17905,17.6
17917,15.24
17929,12.9
17941,10.59
17953,8.15
17965,5.49
17977,2.58
17989,-0.56
18001,-3.77
18012,-6.85
18023,-9.69
18035,-12.25
18047,-14.62
18059,-17.02
18071,-19.68
18083,-22.73
18095,-26.22
18107,-29.94
18119,-33.58
18131,-36.65
18143,-38.66
18155,-39.17
18167,-38.0
18179,-35.22
18191,-31.15
18202,-26.32
18213,-21.29
18225,-16.5
18237,-12.19
18249,-8.38
18261,-4.94
18273,-1.72
18285,1.36
18297,4.3
18309,6.91
18321,9.0
18333,10.43
18345,11.2
18357,11.49
18369,11.62
18381,11.9
18392,12.52
18403,13.53
18415,14.85
18427,16.29
18439,17.67
18451,18.89
18463,19.86
18475,20.46
18487,20.58
18499,20.16
18511,19.22
18523,17.93
18535,16.48
18547,15.08
18559,13.92
18571,13.05
18582,12.43
18593,11.97
18605,11.47
18617,10.74
18629,9.63
18641,7.99
18653,5.82
18665,3.22
18677,0.36
18689,-2.6
18701,-5.48
18713,-8.33
18725,-11.21
18737,-14.35
18749,-17.94
18761,-22.0
18772,-26.31
18783,-30.35
18795,-33.47
18807,-35.05
18819,-34.77
18831,-32.68
18843,-29.15
18855,-24.73
18867,-19.92
18879,-15.06
18891,-10.33
18903,-5.78
18915,-1.46
18927,2.61
18939,6.41
18951,9.92
18962,13.14
18973,16.01
18985,18.45
18997,20.36
19009,21.72
19021,22.58
19033,23.11
19045,23.56
19057,24.14
19069,24.93
19081,25.97
19093,27.15
19105,28.38
19117,29.55
19129,30.61
19141,31.47
19152,32.07
19163,32.36
19175,32.25
19187,31.67
19199,30.55
19211,28.89
19223,26.76
19235,24.31
19247,21.74
19259,19.23
19271,16.96
19283,15.04
19295,13.55
19307,12.51
19319,11.88
19331,11.57
19342,11.4
19353,11.23
19365,10.93
19377,10.51
19389,10.08
19401,9.75
19413,9.59
19425,9.53
19437,9.43
19449,9.07
19461,8.28
19473,6.97
19485,5.15
19497,2.88
19509,0.3
19521,-2.41
19532,-5.12
19543,-7.69
19555,-10.15
19567,-12.54
19579,-14.98
19591,-17.48
19603,-19.97
19615,-22.34
19627,-24.44
19639,-26.22
19651,-27.73
19663,-29.12
19675,-30.61
19687,-32.45
19699,-34.86
19711,-37.89
19722,-41.42
19733,-45.04
19745,-48.15
19757,-50.03
19769,-50.1
19781,-48.11
19793,-44.23
19805,-39.03
19817,-33.25
19829,-27.54
19841,-22.3
19853,-17.55
19865,-13.08
19877,-8.64
19889,-4.04
19901,0.63
19912,5.08
19923,9.05
19935,12.3
19947,14.8
19959,16.66
19971,18.06
19983,19.13
19995,19.93
20007,20.52
20019,20.99
20031,21.5
20043,22.19
20055,23.11
20067,24.12
20079,24.92
20091,25.21
20102,24.8
20113,23.73
20125,22.21
20137,20.58
20149,19.1
20161,18.03
20173,17.55
20185,17.83
20197,18.98
20209,21.03
20221,23.87
20233,27.16
20245,30.43
20257,33.16
20269,35.01
20281,35.87
20292,35.93
20303,35.54
20315,35.15
20327,35.06
20339,35.38
20351,36.09
20363,37.03
20375,38.12
20387,39.36
20399,40.85
20411,42.72
20423,45.0
20435,47.59
20447,50.43
20459,53.63
20471,57.6
20482,62.89
20493,69.89
20505,78.52
20517,88.36
20529,98.86
20541,109.92
20553,121.96
20565,135.61
20577,150.68
20589,165.51
20601,177.03
20613,181.81
20625,177.84
20637,165.5
20649,147.38
20661,126.67
20672,105.23
20683,82.47
20695,55.74
20707,22.07
20719,-20.03
20731,-69.51
20743,-123.01
20755,-175.9
20767,-223.46
20779,-261.48
20791,-286.59
20803,-296.55
20815,-290.79
20827,-270.91
20839,-240.64
20851,-204.99
20862,-169.01
20873,-136.58
20885,-109.83
20897,-89.36
20909,-74.77
20921,-65.19
20933,-59.62
20945,-56.78
20957,-55.23
20969,-53.57
20981,-50.77
20993,-46.56
