seconds,BVP
4,-45.19
16,-39.87
28,-34.24
40,-28.6
52,-23.06
64,-17.65
76,-12.34
87,-7.15
98,-2.01
110,3.19
122,8.62
134,14.43
146,20.64
158,27.08
170,33.47
182,39.53
194,45.11
206,50.25
218,55.03
230,59.45
242,63.37
254,66.51
266,68.63
277,69.65
288,69.68
300,69.01
312,67.93
324,66.63
336,65.13
348,63.38
360,61.29
372,58.88
384,56.21
396,53.38
408,50.42
420,47.31
432,43.9
444,40.03
456,35.61
467,30.63
478,25.34
490,20.17
502,15.71
514,12.57
526,11.21
538,11.86
550,14.38
562,18.41
574,23.37
586,28.7
598,33.9
610,38.62
622,42.65
634,45.83
646,48.06
657,49.3
668,49.63
680,49.21
692,48.34
704,47.29
716,46.24
728,45.25
740,44.29
752,43.33
764,42.39
776,41.47
788,40.61
800,39.73
812,38.7
824,37.38
836,35.61
847,33.32
858,30.51
870,27.24
882,23.7
894,20.06
906,16.53
918,13.27
930,10.28
942,7.49
954,4.77
966,2.06
978,-0.6
990,-3.09
1002,-5.27
1014,-7.15
1026,-8.85
1037,-10.56
1048,-12.49
1060,-14.66
1072,-16.97
1084,-19.12
1096,-20.69
1108,-21.24
1120,-20.41
1132,-17.96
1144,-13.97
1156,-8.77
1168,-2.92
1180,2.94
1192,8.28
1204,12.79
1216,16.43
1227,19.32
1238,21.61
1250,23.4
1262,24.72
1274,25.58
1286,26.08
1298,26.38
1310,26.73
1322,27.33
1334,28.24
1346,29.38
1358,30.53
1370,31.45
1382,31.95
1394,31.95
1406,31.47
1417,30.61
1428,29.44
1440,28.05
1452,26.51
1464,24.95
1476,23.44
1488,22.08
1500,20.88
1512,19.8
1524,18.72
1536,17.53
1548,16.12
1560,14.46
1572,12.54
1584,10.36
1596,7.93
1607,5.24
1618,2.31
1630,-0.74
1642,-3.64
1654,-6.01
1666,-7.45
1678,-7.66
1690,-6.6
1702,-4.44
1714,-1.54
1726,1.7
1738,4.96
1750,8.07
1762,10.91
1774,13.38
1786,15.36
1797,16.78
1808,17.65
1820,18.11
1832,18.37
1844,18.65
1856,19.07
1868,19.63
1880,20.2
1892,20.65
1904,20.87
1916,20.86
1928,20.64
1940,20.29
1952,19.9
1964,19.46
1976,18.96
1987,18.32
1998,17.41
2010,16.17
2022,14.6
2034,12.87
2046,11.22
2058,9.93
2070,9.2
2082,9.06
2094,9.34
2106,9.68
2118,9.67
2130,8.98
2142,7.47
2154,5.3
2166,2.91
2177,0.98
2188,0.2
2200,1.19
2212,4.22
2224,9.25
2236,15.84
2248,23.29
2260,30.82
2272,37.74
2284,43.6
2296,48.24
2308,51.74
2320,54.27
2332,55.94
2344,56.7
2356,56.36
2367,54.68
2378,51.54
2390,47.01
2402,41.34
2414,34.88
2426,27.96
2438,20.88
2450,13.91
2462,7.38
2474,1.53
2486,-3.57
2498,-8.19
2510,-12.9
2522,-18.37
2534,-25.0
2546,-32.6
2557,-40.38
2568,-47.1
2580,-51.54
2592,-52.94
2604,-51.16
2616,-46.68
2628,-40.38
2640,-33.18
2652,-25.82
2664,-18.81
2676,-12.48
2688,-7.06
2700,-2.77
2712,0.17
2724,1.69
2736,1.9
2747,1.07
2758,-0.43
2770,-2.3
2782,-4.4
2794,-6.66
2806,-9.06
2818,-11.47
2830,-13.71
2842,-15.55
2854,-16.91
2866,-17.8
2878,-18.33
2890,-18.56
2902,-18.47
2914,-17.99
2926,-17.16
2937,-16.18
2948,-15.32
2960,-14.86
2972,-14.89
2984,-15.27
2996,-15.72
3008,-15.95
3020,-15.79
3032,-15.24
3044,-14.36
3056,-13.26
3068,-12.0
3080,-10.64
3092,-9.25
3104,-7.97
3116,-6.91
3127,-6.14
3138,-5.61
3150,-5.11
3162,-4.38
3174,-3.1
3186,-1.07
3198,1.78
3210,5.35
3222,9.4
3234,13.57
3246,17.49
3258,20.87
3270,23.52
3282,25.4
3294,26.62
3306,27.39
3317,27.93
3328,28.44
3340,29.01
3352,29.56
3364,30.0
3376,30.22
3388,30.22
3400,30.05
3412,29.86
3424,29.7
3436,29.57
3448,29.37
3460,28.89
3472,28.02
3484,26.7
3496,25.0
3507,23.02
3518,20.76
3530,18.11
3542,14.86
3554,10.77
3566,5.73
3578,-0.24
3590,-6.97
3602,-14.16
3614,-21.43
3626,-28.22
3638,-33.84
3650,-37.44
3662,-38.29
3674,-36.07
3686,-31.1
3697,-24.39
3708,-17.37
3720,-11.42
3732,-7.45
3744,-5.69
3756,-5.73
3768,-6.88
3780,-8.45
3792,-10.0
3804,-11.35
3816,-12.49
3828,-13.46
3840,-14.33
3852,-15.17
3864,-16.06
3876,-17.09
3887,-18.33
3898,-19.71
3910,-21.11
3922,-22.32
3934,-23.15
3946,-23.5
3958,-23.4
3970,-22.94
3982,-22.33
3994,-21.73
4006,-21.26
4018,-20.9
4030,-20.55
4042,-20.01
4054,-19.04
4066,-17.43
4077,-14.99
4088,-11.59
4100,-7.25
4112,-2.15
4124,3.3
4136,8.58
4148,13.18
4160,16.77
4172,19.37
4184,21.16
4196,22.44
4208,23.37
4220,23.99
4232,24.22
4244,24.03
4256,23.5
4267,22.78
4278,22.0
4290,21.17
4302,20.19
4314,18.95
4326,17.45
4338,15.84
4350,14.35
4362,13.18
4374,12.42
4386,11.98
4398,11.7
4410,11.43
4422,11.11
4434,10.79
4446,10.56
4457,10.52
4468,10.74
4480,11.25
4492,12.07
4504,13.27
4516,15.06
4528,17.67
4540,21.33
4552,26.15
4564,32.07
4576,38.84
4588,46.16
4600,53.73
4612,61.37
4624,69.09
4636,77.0
4647,85.3
4658,94.17
4670,103.74
4682,114.01
4694,124.89
4706,136.19
4718,147.62
4730,158.96
4742,170.05
4754,180.88
4766,191.56
4778,202.16
4790,212.49
4802,221.97
4814,229.53
4826,233.72
4837,232.99
4848,226.03
4860,212.12
4872,191.32
4884,164.57
4896,133.49
4908,100.06
4920,66.14
4932,33.02
4944,1.08
4956,-30.24
4968,-62.08
4980,-95.47
4992,-130.67
5004,-166.59
5016,-200.94
5027,-230.8
5038,-253.69
5050,-268.29
5062,-274.92
5074,-275.22
5086,-271.52
5098,-266.07
5110,-260.5
5122,-255.64
5134,-251.65
5146,-248.2
5158,-244.68
5170,-240.36
5182,-234.5
5194,-226.57
5206,-216.4
5217,-204.27
5228,-190.83
5240,-176.92
5252,-163.39
5264,-150.91
5276,-139.83
5288,-130.19
5300,-121.74
5312,-114.01
5324,-106.47
5336,-98.71
5348,-90.54
5360,-82.04
5372,-73.49
5384,-65.2
5396,-57.34
5407,-49.82
5418,-42.32
5430,-34.44
5442,-25.9
5454,-16.68
5466,-7.06
5478,2.47
5490,11.44
5502,19.51
5514,26.6
5526,32.79
5538,38.25
5550,43.12
5562,47.46
5574,51.32
5586,54.71
5597,57.74
5608,60.56
5620,63.36
5632,66.35
5644,69.59
5656,73.02
5668,76.39
5680,79.33
5692,81.49
5704,82.66
5716,82.85
5728,82.32
5740,81.39
5752,80.35
5764,79.28
5776,77.95
5787,75.89
5798,72.51
5810,67.29
5822,59.97
5834,50.69
5846,40.01
5858,28.87
5870,18.29
5882,9.2
5894,2.2
5906,-2.57
5918,-5.42
5930,-7.03
5942,-8.21
5954,-9.74
5966,-12.1
5977,-15.39
5988,-19.33
6000,-23.39
6012,-27.0
6024,-29.71
6036,-31.3
6048,-31.72
6060,-31.06
6072,-29.47
6084,-27.17
6096,-24.46
6108,-21.66
6120,-19.1
6132,-16.97
6144,-15.22
6156,-13.57
6167,-11.66
6178,-9.18
6190,-6.03
6202,-2.36
6214,1.5
6226,5.22
6238,8.53
6250,11.35
6262,13.81
6274,16.08
6286,18.37
6298,20.83
6310,23.51
6322,26.46
6334,29.71
6346,33.25
6357,36.99
6368,40.75
6380,44.28
6392,47.35
6404,49.79
6416,51.54
6428,52.6
6440,52.94
6452,52.48
6464,51.07
6476,48.57
6488,44.94
6500,40.22
6512,34.59
6524,28.27
6536,21.47
6547,14.4
6558,7.25
6570,0.25
6582,-6.37
6594,-12.42
6606,-17.75
6618,-22.38
6630,-26.48
6642,-30.33
6654,-34.21
6666,-38.26
6678,-42.4
6690,-46.27
6702,-49.42
6714,-51.44
6726,-52.24
6737,-52.14
6748,-51.77
6760,-51.85
6772,-52.87
6784,-54.79
6796,-56.99
6808,-58.43
6820,-57.97
6832,-54.67
6844,-48.09
6856,-38.32
6868,-25.99
6880,-12.03
6892,2.53
6904,16.83
6916,30.36
6927,43.05
6938,55.11
6950,66.67
6962,77.38
6974,86.15
6986,91.28
6998,91.09
7010,84.71
7022,72.84
7034,57.83
7046,43.12
7058,32.12
7070,27.16
7082,28.88
7094,36.37
7106,47.82
7117,61.33
7128,75.45
7140,89.4
7152,102.82
7164,115.5
7176,127.2
7188,137.49
7200,145.68
7212,150.84
7224,151.88
7236,147.89
7248,138.59
7260,124.77
7272,108.37
7284,92.09
7296,78.51
7307,69.18
7318,64.16
7330,62.11
7342,61.0
7354,58.94
7366,54.64
7378,47.27
7390,36.01
7402,19.75
7414,-2.7
7426,-31.77
7438,-66.27
7450,-103.13
7462,-138.08
7474,-167.15
7486,-188.21
7497,-201.53
7508,-209.29
7520,-214.0
7532,-217.1
7544,-218.3
7556,-216.16
7568,-209.33
7580,-197.76
7592,-182.95
7604,-167.39
7616,-153.31
7628,-141.76
7640,-132.31
7652,-123.54
7664,-113.91
7676,-102.57
7687,-89.58
7698,-75.72
7710,-61.96
7722,-49.0
7734,-37.06
7746,-25.9
7758,-15.18
7770,-4.66
7782,5.62
7794,15.38
7806,24.26
7818,31.97
7830,38.46
7842,43.83
7854,48.27
7866,51.92
7877,54.89
7888,57.23
7900,59.11
7912,60.87
7924,63.03
7936,66.09
7948,70.37
7960,75.77
7972,81.73
7984,87.34
7996,91.58
8008,93.69
8020,93.37
8032,90.86
8044,86.83
8056,82.06
8067,77.1
8078,72.17
8090,67.13
8102,61.8
8114,56.18
8126,50.67
8138,45.91
8150,42.54
8162,40.89
8174,40.81
8186,41.75
8198,42.92
8210,43.57
8222,43.11
8234,41.1
8246,37.26
8257,31.44
8268,23.76
8280,14.64
8292,4.81
8304,-4.92
8316,-13.94
8328,-22.12
8340,-29.79
8352,-37.52
8364,-45.72
8376,-54.33
8388,-62.71
8400,-69.88
8412,-74.85
8424,-76.97
8436,-76.16
8447,-72.81
8458,-67.64
8470,-61.49
8482,-55.2
8494,-49.5
8506,-44.96
8518,-41.93
8530,-40.41
8542,-40.09
8554,-40.36
8566,-40.55
8578,-40.16
8590,-39.0
8602,-37.24
8614,-35.29
8626,-33.63
8637,-32.66
8648,-32.57
8660,-33.38
8672,-34.95
8684,-37.03
8696,-39.29
8708,-41.33
8720,-42.81
8732,-43.43
8744,-43.1
8756,-41.9
8768,-40.08
8780,-37.95
8792,-35.88
8804,-34.1
8816,-32.78
8827,-31.87
8838,-31.21
8850,-30.51
8862,-29.52
8874,-28.08
8886,-26.18
8898,-23.98
8910,-21.69
8922,-19.46
8934,-17.36
8946,-15.42
8958,-13.71
8970,-12.42
8982,-11.89
8994,-12.43
9006,-14.14
9017,-16.75
9028,-19.6
9040,-21.86
9052,-22.83
9064,-22.21
9076,-20.21
9088,-17.45
9100,-14.65
9112,-12.35
9124,-10.71
9136,-9.56
9148,-8.57
9160,-7.37
9172,-5.72
9184,-3.54
9196,-0.9
9207,2.03
9218,5.0
9230,7.64
9242,9.64
9254,10.72
9266,10.88
9278,10.32
9290,9.5
9302,8.87
9314,8.81
9326,9.44
9338,10.63
9350,12.08
9362,13.43
9374,14.37
9386,14.71
9397,14.38
9408,13.43
9420,11.9
9432,9.89
9444,7.43
9456,4.57
9468,1.37
9480,-1.99
9492,-5.28
9504,-8.16
9516,-10.34
9528,-11.62
9540,-12.02
9552,-11.75
9564,-11.07
9576,-10.23
9587,-9.31
9598,-8.24
9610,-6.89
9622,-5.19
9634,-3.26
9646,-1.31
9658,0.33
9670,1.43
9682,1.96
9694,2.08
9706,2.16
9718,2.63
9730,3.88
9742,6.16
9754,9.53
9766,13.8
9777,18.63
9788,23.57
9800,28.19
9812,32.21
9824,35.46
9836,38.01
9848,39.94
9860,41.4
9872,42.5
9884,43.3
9896,43.9
9908,44.36
9920,44.78
9932,45.23
9944,45.75
9956,46.32
9967,46.94
9978,47.56
9990,48.17
10002,48.7
10014,49.04
10026,49.1
10038,48.79
10050,48.18
10062,47.34
10074,46.42
10086,45.51
10098,44.59
10110,43.58
10122,42.4
10134,41.04
10146,39.58
10157,38.16
10168,36.89
10180,35.9
10192,35.31
10204,35.28
10216,35.98
10228,37.5
10240,39.81
10252,42.68
10264,45.72
10276,48.52
10288,50.79
10300,52.42
10312,53.48
10324,54.13
10336,54.47
10347,54.49
10358,54.02
10370,52.89
10382,50.96
10394,48.28
10406,45.1
10418,41.84
10430,38.96
10442,36.78
10454,35.34
10466,34.41
10478,33.59
10490,32.55
10502,31.12
10514,29.42
10526,27.68
10537,26.11
10548,24.78
10560,23.61
10572,22.5
10584,21.38
10596,20.29
10608,19.33
10620,18.51
10632,17.74
10644,16.84
10656,15.71
10668,14.4
10680,13.24
10692,12.77
10704,13.59
10716,16.16
10727,20.7
10738,27.14
10750,35.21
10762,44.53
10774,54.6
10786,64.75
10798,73.94
10810,80.66
10822,83.06
10834,79.31
10846,68.26
10858,50.14
10870,26.75
10882,1.18
10894,-23.05
10906,-43.13
10917,-57.84
10928,-67.8
10940,-75.08
10952,-82.23
10964,-91.34
10976,-103.41
10988,-118.24
11000,-134.67
11012,-151.06
11024,-165.6
11036,-176.7
11048,-183.13
11060,-184.31
11072,-180.46
11084,-172.65
11096,-162.59
11107,-152.15
11118,-142.85
11130,-135.45
11142,-129.8
11154,-125.04
11166,-120.03
11178,-113.8
11190,-105.83
11202,-96.29
11214,-85.79
11226,-75.24
11238,-65.44
11250,-56.88
11262,-49.65
11274,-43.57
11286,-38.37
11297,-33.94
11308,-30.28
11320,-27.45
11332,-25.41
11344,-23.93
11356,-22.68
11368,-21.35
11380,-19.78
11392,-17.91
11404,-15.76
11416,-13.32
11428,-10.57
11440,-7.57
11452,-4.51
11464,-1.76
11476,0.33
11487,1.51
11498,1.84
11510,1.61
11522,1.25
11534,1.12
11546,1.43
11558,2.11
11570,2.98
11582,3.73
11594,4.13
11606,4.11
11618,3.85
11630,3.71
11642,4.09
11654,5.28
11666,7.27
11677,9.81
11688,12.48
11700,14.89
11712,16.83
11724,18.32
11736,19.61
11748,21.09
11760,23.27
11772,26.64
11784,31.6
11796,38.31
11808,46.62
11820,56.08
11832,66.03
11844,75.89
11856,85.28
11867,94.13
11878,102.62
11890,110.95
11902,119.24
11914,127.5
11926,135.63
11938,143.59
11950,151.5
11962,159.66
11974,168.45
11986,178.16
11998,188.71
12010,199.42
12022,208.95
12034,215.41
12046,216.73
12057,211.14
12068,197.59
12080,176.02
12092,147.42
12104,113.79
12116,77.92
12128,43.12
12140,12.8
12152,-10.12
12164,-23.9
12176,-28.45
12188,-25.57
12200,-18.52
12212,-11.31
12224,-7.74
12236,-10.53
12247,-20.85
12258,-38.21
12270,-60.81
12282,-86.08
12294,-111.26
12306,-133.95
12318,-152.49
12330,-166.14
12342,-175.03
12354,-179.94
12366,-182.05
12378,-182.54
12390,-182.34
12402,-181.91
12414,-181.25
12426,-179.95
12437,-177.42
12448,-173.11
12460,-166.64
12472,-157.9
12484,-147.07
12496,-134.56
12508,-120.97
12520,-106.96
12532,-93.24
12544,-80.38
12556,-68.73
12568,-58.4
12580,-49.28
12592,-41.13
12604,-33.67
12616,-26.73
12627,-20.19
12638,-14.02
12650,-8.15
12662,-2.47
12674,3.19
12686,8.98
12698,14.96
12710,21.02
12722,26.95
12734,32.41
12746,37.09
12758,40.74
12770,43.27
12782,44.79
12794,45.65
12806,46.42
12817,47.76
12828,50.25
12840,54.14
12852,59.19
12864,64.76
12876,70.03
12888,74.3
12900,77.25
12912,78.95
12924,79.69
12936,79.73
12948,79.13
12960,77.67
12972,74.99
12984,70.72
12996,64.65
13007,56.81
13018,47.45
13030,36.96
13042,25.88
13054,14.74
13066,4.04
13078,-5.77
13090,-14.3
13102,-21.28
13114,-26.54
13126,-30.13
13138,-32.38
13150,-33.86
13162,-35.24
13174,-37.03
13186,-39.32
13197,-41.76
13208,-43.68
13220,-44.43
13232,-43.74
13244,-41.9
13256,-39.74
13268,-38.37
13280,-38.83
13292,-41.74
13304,-47.16
13316,-54.5
13328,-62.67
13340,-70.31
13352,-76.1
13364,-79.07
13376,-78.91
13387,-76.04
13398,-71.48
13410,-66.63
13422,-62.79
13434,-60.83
13446,-61.06
13458,-63.2
13470,-66.64
13482,-70.71
13494,-74.82
13506,-78.59
13518,-81.69
13530,-83.82
13542,-84.68
13554,-84.05
13566,-81.95
13577,-78.64
13588,-74.63
13600,-70.37
13612,-66.16
13624,-62.02
13636,-57.89
13648,-53.75
13660,-49.83
13672,-46.47
13684,-43.98
13696,-42.34
13708,-41.17
13720,-39.89
13732,-37.98
13744,-35.23
13756,-31.84
13767,-28.33
13778,-25.22
13790,-22.89
13802,-21.37
13814,-20.39
13826,-19.39
13838,-17.65
13850,-14.46
13862,-9.31
13874,-2.05
13886,6.99
13898,17.05
13910,27.14
13922,36.35
13934,44.08
13946,50.2
13957,54.88
13968,58.45
13980,61.18
13992,63.26
14004,64.81
14016,66.04
14028,67.28
14040,68.9
14052,71.2
14064,74.23
14076,77.79
14088,81.54
14100,85.14
14112,88.41
14124,91.42
14136,94.42
14147,97.64
14158,101.29
14170,105.37
14182,109.76
14194,114.31
14206,118.9
14218,123.56
14230,128.43
14242,133.69
14254,139.49
14266,145.8
14278,152.45
14290,159.11
14302,165.42
14314,171.06
14326,175.81
14337,179.55
14348,182.2
14360,183.7
14372,183.97
14384,182.89
14396,180.31
14408,176.02
14420,169.71
14432,160.99
14444,149.45
14456,134.92
14468,117.69
14480,98.67
14492,79.27
14504,61.04
14516,45.17
14527,32.09
14538,21.41
14550,12.15
14562,3.27
14574,-5.88
14586,-15.36
14598,-24.71
14610,-33.2
14622,-40.06
14634,-44.64
14646,-46.55
14658,-45.69
14670,-42.41
14682,-37.6
14694,-32.58
14706,-28.68
14717,-26.72
14728,-26.6
14740,-27.31
14752,-27.56
14764,-26.79
14776,-25.84
14788,-26.86
14800,-32.36
14812,-44.03
14824,-61.97
14836,-84.95
14848,-111.27
14860,-139.84
14872,-170.29
14884,-202.38
14896,-235.03
14907,-265.85
14918,-291.78
14930,-310.36
14942,-320.82
14954,-324.12
14966,-321.94
14978,-315.28
14990,-303.77
15002,-286.17
15014,-261.67
15026,-231.21
15038,-197.68
15050,-165.0
15062,-136.54
15074,-113.86
15086,-96.38
15097,-82.03
15108,-68.53
15120,-54.32
15132,-39.03
15144,-23.09
15156,-7.22
15168,8.13
15180,22.87
15192,37.07
15204,50.56
15216,62.75
15228,72.62
15240,79.15
15252,81.66
15264,80.19
15276,75.53
15287,68.97
15298,61.9
15310,55.45
15322,50.18
15334,46.11
15346,42.83
15358,39.83
15370,36.73
15382,33.48
15394,30.38
15406,27.88
15418,26.46
15430,26.31
15442,27.31
15454,29.08
15466,31.17
15477,33.24
15488,35.23
15500,37.27
15512,39.6
15524,42.37
15536,45.56
15548,48.92
15560,52.06
15572,54.6
15584,56.35
15596,57.34
15608,57.88
15620,58.45
15632,59.48
15644,61.18
15656,63.54
15667,66.27
15678,69.04
15690,71.62
15702,73.98
15714,76.29
15726,78.77
15738,81.54
15750,84.5
15762,87.39
15774,89.96
15786,92.06
15798,93.78
15810,95.32
15822,96.9
15834,98.61
15846,100.4
15857,102.14
15868,103.7
15880,105.02
15892,106.06
15904,106.74
15916,106.89
15928,106.33
15940,105.04
15952,103.35
15964,101.95
15976,101.8
15988,103.83
16000,108.54
16012,115.76
16024,124.48
16036,133.05
16047,139.34
16058,141.28
16070,137.17
16082,126.04
16094,107.89
16106,83.71
16118,55.22
16130,24.62
16142,-5.8
16154,-34.0
16166,-58.42
16178,-78.05
16190,-92.54
16202,-102.16
16214,-107.74
16226,-110.46
16237,-111.62
16248,-112.21
16260,-112.68
16272,-112.83
16284,-112.05
16296,-109.62
16308,-105.0
16320,-97.97
16332,-88.56
16344,-76.93
16356,-63.24
16368,-47.66
16380,-30.47
16392,-12.22
16404,6.31
16416,24.15
16427,40.16
16438,53.24
16450,62.41
16462,67.0
16474,66.85
16486,62.51
16498,55.21
16510,46.63
16522,38.46
16534,31.82
16546,26.77
16558,22.19
16570,16.08
16582,6.33
16594,-8.44
16606,-28.28
16617,-51.81
16628,-76.79
16640,-100.82
16652,-122.18
16664,-140.07
16676,-154.46
16688,-165.72
16700,-174.24
16712,-180.4
16724,-184.77
16736,-188.3
16748,-192.18
16760,-197.4
16772,-204.18
16784,-211.72
16796,-218.25
16807,-221.55
16818,-219.56
16830,-210.77
16842,-194.43
16854,-170.45
16866,-139.24
16878,-101.56
16890,-58.46
16902,-11.33
16914,38.06
16926,87.44
16938,134.0
16950,174.51
16962,205.68
16974,224.47
16986,228.5
16997,216.25
17008,187.28
17020,142.59
17032,85.22
17044,20.65
17056,-43.37
17068,-98.18
17080,-136.34
17092,-153.83
17104,-151.23
17116,-133.2
17128,-106.4
17140,-77.08
17152,-49.41
17164,-25.27
17176,-5.22
17187,10.36
17198,20.85
17210,25.78
17222,25.66
17234,22.48
17246,19.15
17258,18.51
17270,22.02
17282,29.32
17294,38.52
17306,47.19
17318,53.42
17330,56.27
17342,55.84
17354,52.77
17366,47.84
17377,41.69
17388,34.91
17400,28.15
17412,22.19
17424,17.79
17436,15.52
17448,15.54
17460,17.58
17472,21.05
17484,25.3
17496,29.84
17508,34.41
17520,38.99
17532,43.65
17544,48.36
17556,52.96
17567,57.19
17578,60.7
17590,63.23
17602,64.66
17614,65.02
17626,64.58
17638,63.78
17650,63.28
17662,63.85
17674,66.27
17686,71.02
17698,78.08
17710,86.76
17722,95.89
17734,104.12
17746,110.37
17757,114.31
17768,116.44
17780,117.9
17792,119.88
17804,123.1
17816,127.4
17828,131.76
17840,134.61
17852,134.46
17864,130.45
17876,122.59
17888,111.72
17900,99.16
17912,86.27
17924,74.03
17936,62.66
17947,51.45
17958,39.06
17970,24.09
17982,5.93
17994,-14.67
18006,-35.49
18018,-53.46
18030,-65.79
18042,-71.22
18054,-71.15
18066,-69.31
18078,-70.8
18090,-80.58
18102,-101.81
18114,-134.66
18126,-175.63
18137,-217.98
18148,-253.3
18160,-274.58
18172,-278.09
18184,-264.47
18196,-238.19
18208,-205.68
18220,-173.01
18232,-144.07
18244,-120.08
18256,-100.42
18268,-84.97
18280,-74.12
18292,-68.2
18304,-66.64
18316,-67.33
18327,-67.2
18338,-63.26
18350,-53.64
18362,-38.29
18374,-20.2
18386,-3.4
18398,8.64
18410,13.84
18422,11.71
18434,2.54
18446,-13.2
18458,-35.06
18470,-55.37
18482,-67.02
18494,-65.96
18506,-53.9
18517,-36.18
18528,-17.4
18540,-0.11
18552,14.62
18564,26.39
18576,35.24
18588,40.27
18600,39.81
18612,35.19
18624,28.38
18636,21.72
18648,17.18
18660,15.8
18672,17.56
18684,23.66
18696,31.42
18707,38.02
18718,41.61
18730,41.26
18742,36.82
18754,28.48
18766,16.89
18778,2.97
18790,-11.49
18802,-25.03
18814,-35.91
18826,-42.56
18838,-44.16
18850,-40.65
18862,-32.6
18874,-19.86
18886,-3.62
18897,14.75
18908,33.61
18920,51.86
18932,68.87
18944,84.26
18956,97.73
18968,108.98
18980,117.65
18992,123.15
19004,125.18
19016,123.38
19028,117.69
19040,108.11
19052,94.61
19064,77.28
19076,56.49
19087,33.11
19098,8.45
19110,-15.7
19122,-37.48
19134,-55.33
19146,-68.29
19158,-76.03
19170,-78.65
19182,-76.29
19194,-69.02
19206,-56.88
19218,-39.97
19230,-18.75
19242,5.78
19254,31.93
19266,57.47
19277,79.98
19288,97.39
19300,108.53
19312,113.49
19324,113.64
19336,111.14
19348,108.15
19360,106.17
19372,105.77
19384,106.75
19396,108.61
19408,110.93
19420,113.53
19432,116.22
19444,118.58
19456,119.72
19467,118.5
19478,113.85
19490,105.19
19502,92.61
19514,76.8
19526,58.89
19538,40.24
19550,22.29
19562,6.56
19574,-5.6
19586,-13.14
19598,-15.56
19610,-13.17
19622,-7.14
19634,0.56
19646,7.36
19657,10.45
19668,7.24
19680,-4.05
19692,-23.92
19704,-51.31
19716,-83.64
19728,-117.28
19740,-148.3
19752,-173.36
19764,-190.35
19776,-198.76
19788,-199.64
19800,-195.29
19812,-188.61
19824,-182.28
19836,-177.89
19847,-175.25
19858,-172.17
19870,-164.88
19882,-149.14
19894,-121.84
19906,-82.44
19918,-33.75
19930,18.44
19942,66.91
19954,105.33
19966,130.23
19978,142.14
19990,145.06
20002,144.78
20014,146.62
20026,153.81
20037,166.81
20048,183.78
20060,201.55
20072,216.57
20084,225.42
20096,225.1
20108,213.27
20120,188.57
20132,150.8
20144,101.17
20156,42.4
20168,-21.13
20180,-83.41
20192,-137.41
20204,-176.4
20216,-195.8
20227,-194.74
20238,-176.53
20250,-147.4
20262,-114.19
20274,-81.93
20286,-52.73
20298,-26.42
20310,-2.27
20322,19.38
20334,36.77
20346,47.55
20358,50.36
20370,45.83
20382,36.48
20394,25.65
20406,16.21
20417,9.8
20428,6.68
20440,6.22
20452,7.49
20464,9.71
20476,12.36
20488,15.14
20500,17.87
20512,20.45
20524,22.55
20536,23.91
20548,24.35
20560,23.86
20572,22.58
20584,20.85
20596,19.21
20607,18.15
20618,17.92
20630,18.31
20642,19.02
20654,19.92
20666,20.96
20678,21.76
20690,21.18
20702,17.3
20714,8.07
20726,-7.6
20738,-29.22
20750,-53.96
20762,-77.34
20774,-94.78
20786,-103.27
20797,-102.07
20808,-92.75
20820,-78.7
20832,-64.6
20844,-56.84
20856,-60.74
20868,-78.74
20880,-109.41
20892,-147.74
20904,-186.5
20916,-218.35
20928,-238.16
20940,-244.43
20952,-241.35
20964,-233.64
20976,-224.13
20987,-213.33
20998,-201.0
