seconds,BVP
2,-4.56
14,-4.71
26,-4.67
38,-4.54
50,-4.51
62,-4.76
74,-5.42
85,-6.49
96,-7.87
108,-9.36
120,-10.7
132,-11.65
144,-11.99
156,-11.54
168,-10.24
180,-8.18
192,-5.57
204,-2.73
216,-0.02
228,2.24
240,3.86
252,4.77
264,5.08
275,4.97
286,4.7
298,4.48
310,4.44
322,4.56
334,4.76
346,4.9
358,4.96
370,4.98
382,5.02
394,5.15
406,5.34
418,5.49
430,5.51
442,5.37
454,5.12
465,4.86
476,4.64
488,4.44
500,4.16
512,3.72
524,3.1
536,2.38
548,1.71
560,1.16
572,0.74
584,0.36
596,-0.09
608,-0.68
620,-1.44
632,-2.33
644,-3.28
655,-4.2
666,-5.02
678,-5.73
690,-6.37
702,-7.03
714,-7.76
726,-8.57
738,-9.4
750,-10.1
762,-10.5
774,-10.48
786,-9.95
798,-8.9
810,-7.4
822,-5.58
834,-3.59
845,-1.58
856,0.3
868,1.91
880,3.17
892,4.0
904,4.39
916,4.38
928,4.06
940,3.62
952,3.22
964,3.01
976,3.04
988,3.29
1000,3.68
1012,4.1
1024,4.45
1035,4.7
1046,4.81
1058,4.81
1070,4.73
1082,4.57
1094,4.32
1106,3.97
1118,3.47
1130,2.84
1142,2.15
1154,1.47
1166,0.9
1178,0.45
1190,0.05
1202,-0.39
1214,-0.92
1225,-1.53
1236,-2.12
1248,-2.59
1260,-2.9
1272,-3.07
1284,-3.21
1296,-3.37
1308,-3.6
1320,-3.95
1332,-4.43
1344,-5.09
1356,-5.97
1368,-6.96
1380,-7.86
1392,-8.36
1404,-8.19
1415,-7.23
1426,-5.59
1438,-3.53
1450,-1.37
1462,0.66
1474,2.43
1486,3.94
1498,5.2
1510,6.19
1522,6.84
1534,7.09
1546,6.94
1558,6.52
1570,5.95
1582,5.4
1594,4.97
1605,4.68
1616,4.53
1628,4.54
1640,4.73
1652,5.09
1664,5.59
1676,6.08
1688,6.42
1700,6.46
1712,6.18
1724,5.62
1736,4.91
1748,4.16
1760,3.43
1772,2.75
1784,2.12
1795,1.53
1806,0.98
1818,0.46
1830,-0.04
1842,-0.54
1854,-1.02
1866,-1.47
1878,-1.9
1890,-2.38
1902,-2.96
1914,-3.7
1926,-4.58
1938,-5.54
1950,-6.49
1962,-7.35
1974,-8.02
1985,-8.38
1996,-8.26
2008,-7.5
2020,-6.07
2032,-4.11
2044,-1.92
2056,0.18
2068,1.92
2080,3.23
2092,4.18
2104,4.9
2116,5.45
2128,5.8
2140,5.84
2152,5.48
2164,4.75
2175,3.82
2186,2.95
2198,2.39
2210,2.31
2222,2.69
2234,3.35
2246,4.05
2258,4.56
2270,4.73
2282,4.56
2294,4.11
2306,3.47
2318,2.73
2330,1.93
2342,1.11
2354,0.32
2365,-0.4
2376,-1.04
2388,-1.61
2400,-2.16
2412,-2.76
2424,-3.43
2436,-4.19
2448,-5.02
2460,-5.87
2472,-6.7
2484,-7.48
2496,-8.2
2508,-8.9
2520,-9.6
2532,-10.29
2544,-10.88
2555,-11.16
2566,-10.89
2578,-9.87
2590,-8.06
2602,-5.65
2614,-2.99
2626,-0.48
2638,1.58
2650,3.06
2662,4.05
2674,4.72
2686,5.24
2698,5.68
2710,5.98
2722,6.07
2734,5.91
2745,5.55
2756,5.1
2768,4.73
2780,4.51
2792,4.41
2804,4.37
2816,4.28
2828,4.12
2840,3.96
2852,3.93
2864,4.1
2876,4.41
2888,4.71
2900,4.77
2912,4.42
2924,3.62
2935,2.47
2946,1.16
2958,-0.07
2970,-1.07
2982,-1.79
2994,-2.3
3006,-2.72
3018,-3.19
3030,-3.77
3042,-4.45
3054,-5.15
3066,-5.78
3078,-6.34
3090,-6.88
3102,-7.54
3114,-8.39
3125,-9.39
3136,-10.34
3148,-10.97
3160,-11.0
3172,-10.28
3184,-8.81
3196,-6.72
3208,-4.25
3220,-1.66
3232,0.78
3244,2.83
3256,4.33
3268,5.22
3280,5.58
3292,5.54
3304,5.28
3315,4.97
3326,4.67
3338,4.41
3350,4.21
3362,4.08
3374,4.02
3386,4.06
3398,4.18
3410,4.38
3422,4.6
3434,4.77
3446,4.79
3458,4.59
3470,4.12
3482,3.43
3494,2.65
3505,1.93
3516,1.38
3528,1.05
3540,0.89
3552,0.78
3564,0.6
3576,0.26
3588,-0.3
3600,-1.04
3612,-1.9
3624,-2.78
3636,-3.54
3648,-4.13
3660,-4.54
3672,-4.88
3684,-5.25
3695,-5.73
3706,-6.34
3718,-7.02
3730,-7.72
3742,-8.42
3754,-9.1
3766,-9.68
3778,-9.98
3790,-9.75
3802,-8.79
3814,-7.04
3826,-4.7
3838,-2.11
3850,0.32
3862,2.32
3874,3.79
3885,4.82
3896,5.56
3908,6.08
3920,6.4
3932,6.48
3944,6.32
3956,5.98
3968,5.56
3980,5.19
3992,4.99
4004,4.99
4016,5.2
4028,5.55
4040,5.96
4052,6.33
4064,6.55
4075,6.58
4086,6.43
4098,6.12
4110,5.72
4122,5.26
4134,4.77
4146,4.21
4158,3.6
4170,2.96
4182,2.34
4194,1.78
4206,1.3
4218,0.86
4230,0.41
4242,-0.1
4254,-0.69
4265,-1.34
4276,-2.02
4288,-2.72
4300,-3.43
4312,-4.14
4324,-4.84
4336,-5.49
4348,-6.03
4360,-6.44
4372,-6.65
4384,-6.61
4396,-6.3
4408,-5.65
4420,-4.62
4432,-3.19
4444,-1.4
4455,0.61
4466,2.62
4478,4.38
4490,5.69
4502,6.4
4514,6.47
4526,5.97
4538,5.07
4550,4.03
4562,3.11
4574,2.53
4586,2.36
4598,2.55
4610,2.94
4622,3.34
4634,3.6
4645,3.65
4656,3.5
4668,3.2
4680,2.79
4692,2.33
4704,1.9
4716,1.52
4728,1.23
4740,0.98
4752,0.7
4764,0.28
4776,-0.32
4788,-1.12
4800,-2.06
4812,-3.05
4824,-3.97
4835,-4.72
4846,-5.25
4858,-5.55
4870,-5.68
4882,-5.74
4894,-5.89
4906,-6.26
4918,-6.94
4930,-7.91
4942,-9.04
4954,-10.09
4966,-10.76
4978,-10.77
4990,-9.95
5002,-8.3
5014,-6.02
5025,-3.44
5036,-0.96
5048,1.14
5060,2.69
5072,3.69
5084,4.23
5096,4.45
5108,4.5
5120,4.48
5132,4.46
5144,4.45
5156,4.45
5168,4.42
5180,4.34
5192,4.21
5204,4.08
5215,4.03
5226,4.09
5238,4.27
5250,4.53
5262,4.8
5274,4.97
5286,4.97
5298,4.74
5310,4.24
5322,3.5
5334,2.61
5346,1.71
5358,0.9
5370,0.24
5382,-0.34
5394,-0.96
5405,-1.7
5416,-2.59
5428,-3.5
5440,-4.25
5452,-4.73
5464,-4.96
5476,-5.08
5488,-5.31
5500,-5.8
5512,-6.59
5524,-7.61
5536,-8.73
5548,-9.76
5560,-10.5
5572,-10.74
5584,-10.27
5595,-8.99
5606,-6.97
5618,-4.43
5630,-1.75
5642,0.7
5654,2.64
5666,3.93
5678,4.66
5690,4.95
5702,4.97
5714,4.83
5726,4.6
5738,4.34
5750,4.11
5762,4.01
5774,4.07
5785,4.28
5796,4.59
5808,4.88
5820,5.07
5832,5.1
5844,4.98
5856,4.76
5868,4.51
5880,4.27
5892,4.03
5904,3.76
5916,3.39
5928,2.92
5940,2.35
5952,1.75
5964,1.17
5975,0.67
5986,0.21
5998,-0.25
6010,-0.81
6022,-1.5
6034,-2.3
6046,-3.09
6058,-3.75
6070,-4.23
6082,-4.53
6094,-4.75
6106,-5.06
6118,-5.57
6130,-6.34
6142,-7.3
6154,-8.33
6165,-9.26
6176,-9.91
6188,-10.11
6200,-9.72
6212,-8.67
6224,-6.96
6236,-4.71
6248,-2.14
6260,0.44
6272,2.77
6284,4.66
6296,6.05
6308,6.98
6320,7.54
6332,7.78
6344,7.72
6355,7.39
6366,6.84
6378,6.16
6390,5.54
6402,5.11
6414,4.99
6426,5.21
6438,5.64
6450,6.1
6462,6.41
6474,6.43
6486,6.16
6498,5.7
6510,5.17
6522,4.68
6534,4.27
6545,3.85
6556,3.33
6568,2.66
6580,1.87
6592,1.08
6604,0.4
6616,-0.09
6628,-0.43
6640,-0.74
6652,-1.1
6664,-1.56
6676,-2.06
6688,-2.51
6700,-2.88
6712,-3.25
6724,-3.73
6735,-4.47
6746,-5.45
6758,-6.51
6770,-7.34
6782,-7.68
6794,-7.32
6806,-6.26
6818,-4.66
6830,-2.75
6842,-0.82
6854,0.92
6866,2.34
6878,3.36
6890,4.03
6902,4.39
6914,4.5
6925,4.39
6936,4.09
6948,3.63
6960,3.09
6972,2.61
6984,2.35
6996,2.47
7008,2.96
7020,3.67
7032,4.33
7044,4.67
7056,4.54
7068,3.97
7080,3.17
7092,2.39
7104,1.81
7115,1.44
7126,1.16
7138,0.81
7150,0.29
7162,-0.44
7174,-1.29
7186,-2.17
7198,-3.03
7210,-3.81
7222,-4.5
7234,-5.07
7246,-5.49
7258,-5.8
7270,-6.09
7282,-6.57
7294,-7.34
7305,-8.42
7316,-9.64
7328,-10.68
7340,-11.24
7352,-11.09
7364,-10.19
7376,-8.65
7388,-6.69
7400,-4.52
7412,-2.34
7424,-0.29
7436,1.54
7448,3.07
7460,4.26
7472,5.07
7484,5.52
7495,5.62
7506,5.45
7518,5.05
7530,4.53
7542,4.01
7554,3.6
7566,3.41
7578,3.5
7590,3.85
7602,4.38
7614,5.0
7626,5.59
7638,6.01
7650,6.16
7662,5.94
7674,5.36
7685,4.47
7696,3.45
7708,2.5
7720,1.74
7732,1.21
7744,0.8
7756,0.32
7768,-0.38
7780,-1.31
7792,-2.34
7804,-3.3
7816,-4.06
7828,-4.64
7840,-5.16
7852,-5.77
7864,-6.52
7875,-7.35
7886,-8.14
7898,-8.79
7910,-9.29
7922,-9.66
7934,-9.9
7946,-9.87
7958,-9.35
7970,-8.17
7982,-6.3
7994,-3.96
8006,-1.51
8018,0.7
8030,2.42
8042,3.64
8054,4.44
8065,4.94
8076,5.19
8088,5.22
8100,5.06
8112,4.8
8124,4.58
8136,4.51
8148,4.63
8160,4.88
8172,5.13
8184,5.29
8196,5.34
8208,5.36
8220,5.42
8232,5.54
8244,5.68
8255,5.72
8266,5.57
8278,5.19
8290,4.57
8302,3.77
8314,2.83
8326,1.83
8338,0.83
8350,-0.09
8362,-0.87
8374,-1.51
8386,-2.02
8398,-2.46
8410,-2.86
8422,-3.25
8434,-3.64
8445,-4.03
8456,-4.43
8468,-4.9
8480,-5.5
8492,-6.3
8504,-7.3
8516,-8.49
8528,-9.7
8540,-10.73
8552,-11.31
8564,-11.2
8576,-10.22
8588,-8.37
8600,-5.85
8612,-2.95
8624,-0.04
8635,2.55
8646,4.58
8658,5.93
8670,6.58
8682,6.65
8694,6.29
8706,5.73
8718,5.16
8730,4.69
8742,4.38
8754,4.21
8766,4.19
8778,4.32
8790,4.6
8802,5.04
8814,5.59
8825,6.13
8836,6.51
8848,6.63
8860,6.46
8872,6.08
8884,5.62
8896,5.18
8908,4.82
8920,4.52
8932,4.2
8944,3.77
8956,3.16
8968,2.36
8980,1.42
8992,0.43
9004,-0.52
9015,-1.35
9026,-1.98
9038,-2.44
9050,-2.73
9062,-2.91
9074,-3.05
9086,-3.24
9098,-3.59
9110,-4.19
9122,-5.01
9134,-5.93
9146,-6.75
9158,-7.18
9170,-7.01
9182,-6.15
9194,-4.64
9205,-2.67
9216,-0.5
9228,1.59
9240,3.38
9252,4.72
9264,5.51
9276,5.75
9288,5.54
9300,5.03
9312,4.4
9324,3.81
9336,3.34
9348,3.03
9360,2.87
9372,2.83
9384,2.91
9395,3.08
9406,3.34
9418,3.67
9430,4.01
9442,4.23
9454,4.2
9466,3.83
9478,3.13
9490,2.2
9502,1.23
9514,0.39
9526,-0.25
9538,-0.7
9550,-1.08
9562,-1.53
9574,-2.13
9585,-2.84
9596,-3.55
9608,-4.18
9620,-4.68
9632,-5.11
9644,-5.55
9656,-6.1
9668,-6.79
9680,-7.64
9692,-8.62
9704,-9.66
9716,-10.66
9728,-11.44
9740,-11.79
9752,-11.5
9764,-10.45
9775,-8.67
9786,-6.35
9798,-3.78
9810,-1.26
9822,0.95
9834,2.72
9846,4.04
9858,4.93
9870,5.45
9882,5.67
9894,5.66
9906,5.5
9918,5.26
9930,5.0
9942,4.75
9954,4.57
9965,4.49
9976,4.55
9988,4.73
10000,5.01
10012,5.3
10024,5.49
10036,5.47
10048,5.2
10060,4.7
10072,4.08
10084,3.47
10096,2.96
10108,2.54
10120,2.14
10132,1.67
10144,1.07
10155,0.36
10166,-0.38
10178,-1.05
10190,-1.62
10202,-2.12
10214,-2.61
10226,-3.16
10238,-3.79
10250,-4.43
10262,-5.05
10274,-5.64
10286,-6.32
10298,-7.2
10310,-8.35
10322,-9.64
10334,-10.82
10345,-11.57
10356,-11.57
10368,-10.7
10380,-8.99
10392,-6.66
10404,-4.01
10416,-1.37
10428,0.98
10440,2.87
10452,4.22
10464,5.05
10476,5.44
10488,5.49
10500,5.32
10512,5.04
10524,4.73
10535,4.46
10546,4.32
10558,4.33
10570,4.52
10582,4.83
10594,5.22
10606,5.62
10618,5.97
10630,6.21
10642,6.31
10654,6.22
10666,5.91
10678,5.39
10690,4.68
10702,3.87
10714,3.04
10725,2.26
10736,1.59
10748,1.04
10760,0.57
10772,0.14
10784,-0.3
10796,-0.77
10808,-1.26
10820,-1.74
10832,-2.19
10844,-2.65
10856,-3.18
10868,-3.83
10880,-4.58
10892,-5.39
10904,-6.17
10915,-6.87
10926,-7.48
10938,-8.03
10950,-8.59
10962,-9.2
10974,-9.84
10986,-10.42
10998,-10.74
11010,-10.61
11022,-9.84
11034,-8.31
11046,-6.04
11058,-3.21
11070,-0.11
11082,2.87
11094,5.35
11105,7.05
11116,7.91
11128,8.02
11140,7.64
11152,7.04
11164,6.41
11176,5.87
11188,5.43
11200,5.09
11212,4.86
11224,4.83
11236,5.02
11248,5.43
11260,5.94
11272,6.39
11284,6.63
11295,6.62
11306,6.39
11318,6.0
11330,5.53
11342,4.98
11354,4.35
11366,3.68
11378,3.02
11390,2.47
11402,2.1
11414,1.92
11426,1.85
11438,1.73
11450,1.43
11462,0.89
11474,0.12
11485,-0.72
11496,-1.46
11508,-1.98
11520,-2.25
11532,-2.38
11544,-2.53
11556,-2.9
11568,-3.56
11580,-4.5
11592,-5.55
11604,-6.51
11616,-7.17
11628,-7.35
11640,-6.95
11652,-5.96
11664,-4.45
11675,-2.58
11686,-0.56
11698,1.38
11710,3.04
11722,4.27
11734,5.04
11746,5.38
11758,5.38
11770,5.13
11782,4.77
11794,4.38
11806,4.04
11818,3.81
11830,3.7
11842,3.69
11854,3.73
11865,3.75
11876,3.74
11888,3.73
11900,3.76
11912,3.86
11924,3.99
11936,4.06
11948,3.93
11960,3.51
11972,2.81
11984,1.89
11996,0.89
12008,-0.03
12020,-0.8
12032,-1.38
12044,-1.8
12055,-2.13
12066,-2.41
12078,-2.72
12090,-3.11
12102,-3.61
12114,-4.25
12126,-5.03
12138,-5.92
12150,-6.85
12162,-7.81
12174,-8.76
12186,-9.68
12198,-10.53
12210,-11.16
12222,-11.4
12234,-11.04
12245,-9.94
12256,-8.12
12268,-5.73
12280,-3.04
12292,-0.34
12304,2.07
12316,4.0
12328,5.31
12340,5.96
12352,5.99
12364,5.57
12376,4.93
12388,4.34
12400,3.97
12412,3.87
12424,3.96
12435,4.11
12446,4.23
12458,4.32
12470,4.44
12482,4.62
12494,4.82
12506,4.92
12518,4.81
12530,4.46
12542,3.93
12554,3.36
12566,2.87
12578,2.48
12590,2.09
12602,1.56
12614,0.8
12625,-0.19
12636,-1.32
12648,-2.47
12660,-3.49
12672,-4.29
12684,-4.83
12696,-5.14
12708,-5.3
12720,-5.46
12732,-5.77
12744,-6.32
12756,-7.13
12768,-8.08
12780,-8.96
12792,-9.54
12804,-9.64
12815,-9.18
12826,-8.19
12838,-6.76
12850,-5.0
12862,-3.08
12874,-1.11
12886,0.71
12898,2.26
12910,3.41
12922,4.14
12934,4.53
12946,4.7
12958,4.81
12970,4.94
12982,5.11
12994,5.26
13005,5.3
13016,5.19
13028,4.97
13040,4.74
13052,4.61
13064,4.65
13076,4.84
13088,5.08
13100,5.2
13112,5.08
13124,4.69
13136,4.09
13148,3.37
13160,2.66
13172,1.98
13184,1.33
13195,0.63
13206,-0.14
13218,-0.96
13230,-1.74
13242,-2.4
13254,-2.91
13266,-3.31
13278,-3.65
13290,-3.97
13302,-4.29
13314,-4.55
13326,-4.76
13338,-4.96
13350,-5.29
13362,-5.89
13374,-6.87
13385,-8.19
13396,-9.66
13408,-11.02
13420,-11.91
13432,-12.09
13444,-11.4
13456,-9.84
13468,-7.56
13480,-4.86
13492,-2.06
13504,0.52
13516,2.64
13528,4.19
13540,5.18
13552,5.7
13564,5.87
13575,5.78
13586,5.5
13598,5.11
13610,4.67
13622,4.3
13634,4.08
13646,4.06
13658,4.23
13670,4.52
13682,4.82
13694,5.05
13706,5.17
13718,5.19
13730,5.12
13742,4.96
13754,4.67
13765,4.2
13776,3.56
13788,2.8
13800,2.0
13812,1.29
13824,0.76
13836,0.43
13848,0.28
13860,0.24
13872,0.24
13884,0.19
13896,0.02
13908,-0.33
13920,-0.88
13932,-1.62
13944,-2.46
13955,-3.29
13966,-4.0
13978,-4.53
13990,-4.9
14002,-5.18
14014,-5.46
14026,-5.77
14038,-6.06
14050,-6.13
14062,-5.79
14074,-4.88
14086,-3.39
14098,-1.48
14110,0.6
14122,2.59
14134,4.3
14145,5.6
14156,6.44
14168,6.8
14180,6.67
14192,6.07
14204,5.13
14216,4.06
14228,3.14
14240,2.63
14252,2.65
14264,3.15
14276,3.92
14288,4.66
14300,5.14
14312,5.24
14324,5.0
14335,4.55
14346,4.07
14358,3.66
14370,3.35
14382,3.06
14394,2.72
14406,2.25
14418,1.68
14430,1.07
14442,0.45
14454,-0.15
14466,-0.78
14478,-1.49
14490,-2.29
14502,-3.08
14514,-3.75
14525,-4.19
14536,-4.41
14548,-4.55
14560,-4.82
14572,-5.39
14584,-6.31
14596,-7.45
14608,-8.59
14620,-9.52
14632,-10.09
14644,-10.23
14656,-9.91
14668,-9.08
14680,-7.72
14692,-5.83
14704,-3.56
14715,-1.14
14726,1.13
14738,3.03
14750,4.46
14762,5.46
14774,6.13
14786,6.55
14798,6.72
14810,6.58
14822,6.11
14834,5.39
14846,4.63
14858,4.06
14870,3.85
14882,4.0
14894,4.39
14905,4.82
14916,5.12
14928,5.22
14940,5.09
14952,4.78
14964,4.31
14976,3.72
14988,3.06
15000,2.45
15012,1.98
15024,1.68
15036,1.5
15048,1.32
15060,1.02
15072,0.53
15084,-0.14
15095,-0.94
15106,-1.81
15118,-2.72
15130,-3.62
15142,-4.43
15154,-5.07
15166,-5.46
15178,-5.62
15190,-5.68
15202,-5.86
15214,-6.37
15226,-7.28
15238,-8.48
15250,-9.71
15262,-10.62
15274,-10.94
15285,-10.5
15296,-9.34
15308,-7.57
15320,-5.44
15332,-3.14
15344,-0.87
15356,1.24
15368,3.06
15380,4.49
15392,5.47
15404,5.94
15416,5.92
15428,5.54
15440,4.97
15452,4.43
15464,4.12
15475,4.1
15486,4.32
15498,4.65
15510,4.95
15522,5.13
15534,5.17
15546,5.15
15558,5.15
15570,5.22
15582,5.34
15594,5.41
15606,5.31
15618,4.96
15630,4.35
15642,3.57
15654,2.75
15665,2.02
15676,1.44
15688,0.97
15700,0.54
15712,0.09
15724,-0.43
15736,-1.02
15748,-1.61
15760,-2.18
15772,-2.71
15784,-3.21
15796,-3.7
15808,-4.2
15820,-4.74
15832,-5.37
15844,-6.13
15855,-7.04
15866,-8.06
15878,-9.07
15890,-9.91
15902,-10.44
15914,-10.54
15926,-10.2
15938,-9.41
15950,-8.16
15962,-6.46
15974,-4.33
15986,-1.9
15998,0.6
16010,2.87
16022,4.65
16034,5.8
16045,6.35
16056,6.43
16068,6.23
16080,5.9
16092,5.54
16104,5.18
16116,4.85
16128,4.58
16140,4.43
16152,4.44
16164,4.63
16176,4.96
16188,5.34
16200,5.7
16212,5.94
16224,6.04
16235,5.99
16246,5.87
16258,5.72
16270,5.53
16282,5.22
16294,4.69
16306,3.91
16318,2.94
16330,1.97
16342,1.21
16354,0.77
16366,0.66
16378,0.71
16390,0.73
16402,0.55
16414,0.13
16425,-0.48
16436,-1.14
16448,-1.72
16460,-2.2
16472,-2.63
16484,-3.11
16496,-3.71
16508,-4.44
16520,-5.21
16532,-5.92
16544,-6.44
16556,-6.69
16568,-6.57
16580,-6.04
16592,-5.03
16604,-3.51
16615,-1.58
16626,0.59
16638,2.69
16650,4.47
16662,5.75
16674,6.49
16686,6.77
16698,6.71
16710,6.39
16722,5.87
16734,5.24
16746,4.67
16758,4.32
16770,4.37
16782,4.84
16794,5.61
16805,6.46
16816,7.13
16828,7.44
16840,7.32
16852,6.86
16864,6.2
16876,5.52
16888,4.99
16900,4.69
16912,4.66
16924,4.83
16936,5.06
16948,5.11
16960,4.69
16972,3.56
16984,1.57
16995,-1.17
17006,-4.31
17018,-7.38
17030,-9.88
17042,-11.57
17054,-12.46
17066,-12.78
17078,-12.83
17090,-12.81
17102,-12.79
17114,-12.74
17126,-12.63
17138,-12.49
17150,-12.35
17162,-12.18
17174,-11.83
17185,-11.07
17196,-9.66
17208,-7.57
17220,-4.96
17232,-2.18
17244,0.37
17256,2.4
17268,3.8
17280,4.64
17292,5.09
17304,5.33
17316,5.45
17328,5.47
17340,5.35
17352,5.12
17364,4.83
17375,4.61
17386,4.55
17398,4.67
17410,4.89
17422,5.07
17434,5.08
17446,4.85
17458,4.44
17470,3.97
17482,3.58
17494,3.34
17506,3.2
17518,3.0
17530,2.55
17542,1.75
17554,0.65
17565,-0.55
17576,-1.59
17588,-2.3
17600,-2.7
17612,-2.93
17624,-3.21
17636,-3.69
17648,-4.39
17660,-5.21
17672,-6.03
17684,-6.79
17696,-7.48
17708,-8.15
17720,-8.85
17732,-9.6
17744,-10.42
17755,-11.23
17766,-11.89
17778,-12.19
17790,-11.87
17802,-10.78
17814,-8.94
17826,-6.58
17838,-4.08
17850,-1.78
17862,0.09
17874,1.45
17886,2.38
17898,2.94
17910,3.18
17922,3.11
17934,2.79
17945,2.34
17956,1.97
17968,1.84
17980,2.04
17992,2.53
18004,3.14
18016,3.7
18028,4.05
18040,4.15
18052,4.06
18064,3.89
18076,3.75
18088,3.68
18100,3.64
18112,3.53
18124,3.24
18135,2.73
18146,2.06
18158,1.36
18170,0.74
18182,0.26
18194,-0.11
18206,-0.43
18218,-0.73
18230,-1.01
18242,-1.28
18254,-1.55
18266,-1.86
18278,-2.31
18290,-2.95
18302,-3.77
18314,-4.7
18325,-5.64
18336,-6.49
18348,-7.15
18360,-7.58
18372,-7.75
18384,-7.61
18396,-7.09
18408,-6.13
18420,-4.7
18432,-2.87
18444,-0.79
18456,1.31
18468,3.18
18480,4.61
18492,5.51
18504,5.93
18515,5.98
18526,5.83
18538,5.64
18550,5.47
18562,5.33
18574,5.18
18586,5.02
18598,4.85
18610,4.72
18622,4.65
18634,4.67
18646,4.73
18658,4.8
18670,4.81
18682,4.73
18694,4.55
18705,4.25
18716,3.84
18728,3.33
18740,2.73
18752,2.11
18764,1.47
18776,0.81
18788,0.1
18800,-0.7
18812,-1.56
18824,-2.39
18836,-3.07
18848,-3.52
18860,-3.73
18872,-3.8
18884,-3.86
18895,-4.05
18906,-4.46
18918,-5.09
18930,-5.87
18942,-6.65
18954,-7.28
18966,-7.53
18978,-7.19
18990,-6.13
19002,-4.35
19014,-2.07
19026,0.38
19038,2.62
19050,4.36
19062,5.48
19074,6.02
19085,6.1
19096,5.87
19108,5.4
19120,4.74
19132,3.96
19144,3.17
19156,2.54
19168,2.2
19180,2.23
19192,2.58
19204,3.07
19216,3.53
19228,3.79
19240,3.77
19252,3.49
19264,3.03
19275,2.52
19286,2.04
19298,1.64
19310,1.31
19322,1.0
19334,0.6
19346,0.05
19358,-0.67
19370,-1.51
19382,-2.38
19394,-3.11
19406,-3.64
19418,-3.96
19430,-4.19
19442,-4.52
19454,-5.11
19465,-5.97
19476,-7.0
19488,-7.94
19500,-8.54
19512,-8.64
19524,-8.19
19536,-7.23
19548,-5.84
19560,-4.12
19572,-2.17
19584,-0.08
19596,1.97
19608,3.82
19620,5.26
19632,6.13
19644,6.4
19655,6.1
19666,5.39
19678,4.47
19690,3.58
19702,2.91
19714,2.58
19726,2.59
19738,2.84
19750,3.18
19762,3.48
19774,3.67
19786,3.76
19798,3.77
19810,3.73
19822,3.64
19834,3.44
19845,3.07
19856,2.48
19868,1.69
19880,0.76
19892,-0.23
19904,-1.18
19916,-2.06
19928,-2.83
19940,-3.49
19952,-4.05
19964,-4.55
19976,-5.06
19988,-5.65
20000,-6.41
20012,-7.36
20024,-8.4
20035,-9.32
20046,-9.85
20058,-9.71
20070,-8.73
20082,-6.94
20094,-4.54
20106,-1.89
20118,0.62
20130,2.69
20142,4.17
20154,5.07
20166,5.54
20178,5.75
20190,5.89
20202,6.04
20214,6.25
20225,6.47
20236,6.64
20248,6.69
20260,6.63
20272,6.47
20284,6.28
20296,6.12
20308,6.02
20320,5.95
20332,5.91
20344,5.84
20356,5.7
20368,5.47
20380,5.12
20392,4.58
20404,3.83
20415,2.82
20426,1.61
20438,0.3
20450,-0.95
20462,-1.99
20474,-2.73
20486,-3.2
20498,-3.53
20510,-3.87
20522,-4.36
20534,-5.06
20546,-5.91
20558,-6.8
20570,-7.61
20582,-8.28
20594,-8.77
20605,-9.02
20616,-8.93
20628,-8.35
20640,-7.13
20652,-5.31
20664,-3.07
20676,-0.76
20688,1.29
20700,2.87
20712,3.97
20724,4.72
20736,5.3
20748,5.78
20760,6.15
20772,6.33
20784,6.28
20795,6.06
20806,5.78
20818,5.57
20830,5.49
20842,5.51
20854,5.57
20866,5.64
20878,5.68
20890,5.69
20902,5.62
20914,5.43
20926,5.09
20938,4.62
20950,4.09
20962,3.6
20974,3.21
20985,2.92
20996,2.66
