seconds,BVP
0,-11.04
12,-11.77
24,-11.98
36,-11.42
48,-9.93
60,-7.54
72,-4.49
84,-1.17
96,1.98
108,4.62
120,6.56
132,7.81
144,8.4
155,8.42
166,7.94
178,7.08
190,6.05
202,5.14
214,4.63
226,4.66
238,5.16
250,5.85
262,6.41
274,6.62
286,6.47
298,6.07
310,5.59
322,5.13
334,4.69
345,4.19
356,3.59
368,2.91
380,2.2
392,1.52
404,0.88
416,0.25
428,-0.43
440,-1.22
452,-2.13
464,-3.18
476,-4.36
488,-5.63
500,-6.94
512,-8.17
524,-9.24
535,-10.08
546,-10.67
558,-11.08
570,-11.31
582,-11.35
594,-11.05
606,-10.28
618,-8.9
630,-6.88
642,-4.32
654,-1.47
666,1.41
678,4.01
690,6.05
702,7.35
714,7.8
725,7.46
736,6.51
748,5.23
760,3.97
772,3.0
784,2.49
796,2.47
808,2.84
820,3.5
832,4.27
844,4.98
856,5.5
868,5.72
880,5.61
892,5.2
904,4.59
915,3.86
926,3.07
938,2.2
950,1.2
962,0.06
974,-1.17
986,-2.4
998,-3.53
1010,-4.5
1022,-5.3
1034,-5.95
1046,-6.47
1058,-6.87
1070,-7.21
1082,-7.57
1094,-8.08
1105,-8.86
1116,-9.86
1128,-10.87
1140,-11.52
1152,-11.44
1164,-10.37
1176,-8.35
1188,-5.61
1200,-2.53
1212,0.51
1224,3.23
1236,5.45
1248,7.07
1260,8.01
1272,8.28
1284,7.91
1295,7.07
1306,6.01
1318,4.97
1330,4.18
1342,3.76
1354,3.74
1366,4.01
1378,4.47
1390,4.97
1402,5.42
1414,5.73
1426,5.88
1438,5.83
1450,5.54
1462,5.01
1474,4.29
1485,3.49
1496,2.71
1508,2.03
1520,1.45
1532,0.86
1544,0.16
1556,-0.73
1568,-1.77
1580,-2.82
1592,-3.74
1604,-4.48
1616,-5.09
1628,-5.74
1640,-6.63
1652,-7.87
1664,-9.4
1675,-11.03
1686,-12.42
1698,-13.22
1710,-13.16
1722,-12.11
1734,-10.12
1746,-7.44
1758,-4.43
1770,-1.5
1782,1.02
1794,2.96
1806,4.29
1818,5.11
1830,5.56
1842,5.75
1854,5.76
1865,5.61
1876,5.35
1888,5.06
1900,4.82
1912,4.72
1924,4.77
1936,4.91
1948,5.06
1960,5.1
1972,4.99
1984,4.7
1996,4.29
2008,3.89
2020,3.63
2032,3.61
2044,3.78
2055,3.98
2066,3.96
2078,3.52
2090,2.62
2102,1.42
2114,0.17
2126,-0.92
2138,-1.77
2150,-2.49
2162,-3.23
2174,-4.12
2186,-5.16
2198,-6.26
2210,-7.37
2222,-8.47
2234,-9.63
2245,-10.81
2256,-11.86
2268,-12.41
2280,-12.04
2292,-10.48
2304,-7.73
2316,-4.14
2328,-0.28
2340,3.27
2352,6.12
2364,8.14
2376,9.43
2388,10.17
2400,10.49
2412,10.4
2424,9.9
2435,9.04
2446,7.95
2458,6.89
2470,6.09
2482,5.65
2494,5.49
2506,5.44
2518,5.28
2530,4.96
2542,4.54
2554,4.18
2566,4.04
2578,4.12
2590,4.32
2602,4.41
2614,4.17
2625,3.47
2636,2.34
2648,0.9
2660,-0.69
2672,-2.31
2684,-3.89
2696,-5.4
2708,-6.81
2720,-8.03
2732,-8.91
2744,-9.37
2756,-9.45
2768,-9.34
2780,-9.35
2792,-9.72
2804,-10.48
2815,-11.43
2826,-12.12
2838,-12.12
2850,-11.19
2862,-9.37
2874,-6.95
2886,-4.28
2898,-1.63
2910,0.96
2922,3.54
2934,6.13
2946,8.54
2958,10.41
2970,11.35
2982,11.21
2994,10.17
3005,8.75
3016,7.63
3028,7.32
3040,7.93
3052,9.3
3064,11.09
3076,12.94
3088,14.51
3100,15.52
3112,15.81
3124,15.39
3136,14.5
3148,13.53
3160,13.06
3172,13.73
3184,15.92
3195,19.64
3206,24.51
3218,29.95
3230,35.38
3242,40.4
3254,44.63
3266,48.01
3278,50.83
3290,53.51
3302,56.38
3314,59.5
3326,62.68
3338,65.49
3350,67.46
3362,67.76
3374,66.33
3385,64.07
3396,62.36
3408,62.28
3420,64.42
3432,68.97
3444,75.81
3456,84.66
3468,93.71
3480,101.15
3492,105.37
3504,104.49
3516,96.25
3528,78.67
3540,51.26
3552,15.24
3564,-26.5
3575,-72.17
3586,-118.81
3598,-162.47
3610,-199.42
3622,-227.49
3634,-246.37
3646,-256.89
3658,-261.03
3670,-261.13
3682,-261.8
3694,-265.11
3706,-269.33
3718,-270.27
3730,-263.77
3742,-247.45
3754,-221.21
3765,-187.81
3776,-136.47
3788,-69.74
3800,-1.15
3812,54.64
3824,91.73
3836,112.87
3848,122.23
3860,124.93
3872,122.9
3884,116.84
3896,105.04
3908,87.83
3920,69.36
3932,53.98
3944,44.39
3955,40.89
3966,42.21
3978,45.76
3990,48.7
4002,46.46
4014,36.5
4026,19.3
4038,-2.53
4050,-25.56
4062,-46.6
4074,-62.9
4086,-72.86
4098,-75.9
4110,-73.51
4122,-66.83
4134,-55.97
4145,-40.63
4156,-21.02
4168,1.62
4180,25.34
4192,47.93
4204,67.8
4216,83.76
4228,96.02
4240,105.75
4252,114.01
4264,120.84
4276,125.19
4288,125.72
4300,121.6
4312,113.38
4324,102.73
4335,92.1
4346,83.81
4358,79.11
4370,77.78
4382,78.43
4394,79.27
4406,78.97
4418,77.17
4430,74.4
4442,71.63
4454,69.6
4466,68.47
4478,67.72
4490,66.48
4502,63.74
4514,58.86
4525,51.7
4536,42.48
4548,31.5
4560,18.93
4572,4.87
4584,-10.47
4596,-26.6
4608,-43.01
4620,-58.98
4632,-73.67
4644,-86.47
4656,-97.23
4668,-106.25
4680,-113.94
4692,-120.43
4704,-125.41
4715,-128.8
4726,-130.3
4738,-129.31
4750,-125.37
4762,-118.64
4774,-110.01
4786,-100.61
4798,-91.12
4810,-81.34
4822,-71.18
4834,-59.95
4846,-46.66
4858,-30.86
4870,-13.46
4882,3.28
4894,16.84
4905,25.35
4916,28.24
4928,24.74
4940,15.25
4952,1.45
4964,-14.28
4976,-29.72
4988,-43.57
5000,-55.41
5012,-65.72
5024,-67.13
5036,-56.41
5048,-36.5
5060,-14.25
5072,5.14
5084,20.87
5095,34.46
5106,47.45
5118,60.02
5130,71.35
5142,79.19
5154,82.39
5166,82.21
5178,81.43
5190,83.19
5202,88.37
5214,96.94
5226,106.84
5238,114.94
5250,117.39
5262,112.17
5274,100.34
5285,84.97
5296,69.89
5308,57.73
5320,49.2
5332,43.09
5344,37.45
5356,29.97
5368,19.13
5380,8.08
5392,-1.2
5404,-7.5
5416,-11.01
5428,-12.86
5440,-14.54
5452,-16.98
5464,-20.5
5475,-24.62
5486,-28.55
5498,-32.46
5510,-37.23
5522,-44.31
5534,-54.95
5546,-69.48
5558,-86.93
5570,-105.48
5582,-122.99
5594,-137.71
5606,-149.11
5618,-157.4
5630,-163.27
5642,-167.48
5654,-170.63
5665,-173.12
5676,-175.18
5688,-177.01
5700,-178.65
5712,-180.23
5724,-181.47
5736,-181.75
5748,-180.13
5760,-175.59
5772,-167.27
5784,-154.75
5796,-138.19
5808,-118.36
5820,-96.57
5832,-74.25
5844,-52.65
5855,-32.66
5866,-14.76
5878,0.94
5890,14.58
5902,26.52
5914,37.26
5926,47.37
5938,57.41
5950,67.8
5962,78.66
5974,89.72
5986,100.39
5998,109.96
6010,117.73
6022,123.25
6034,126.36
6045,127.2
6056,126.15
6068,123.69
6080,120.31
6092,116.39
6104,112.19
6116,107.82
6128,103.37
6140,98.88
6152,94.46
6164,90.21
6176,86.24
6188,82.56
6200,79.11
6212,75.73
6224,72.24
6235,68.54
6246,64.61
6258,60.48
6270,56.21
6282,51.79
6294,47.18
6306,42.32
6318,37.24
6330,32.11
6342,27.18
6354,22.71
6366,18.8
6378,15.38
6390,12.18
6402,8.92
6414,5.41
6425,1.75
6436,-1.71
6448,-4.4
6460,-5.83
6472,-5.71
6484,-4.11
6496,-1.39
6508,1.91
6520,5.23
6532,8.15
6544,10.46
6556,12.01
6568,12.75
6580,12.63
6592,11.69
6604,10.08
6615,8.18
6626,6.46
6638,5.39
6650,5.21
6662,5.91
6674,7.19
6686,8.63
6698,9.87
6710,10.67
6722,11.03
6734,11.08
6746,10.99
6758,10.88
6770,10.79
6782,10.68
6794,10.44
6805,10.02
6816,9.41
6828,8.66
6840,7.86
6852,7.07
6864,6.27
6876,5.4
6888,4.38
6900,3.14
6912,1.7
6924,0.19
6936,-1.22
6948,-2.26
6960,-2.64
6972,-2.09
6984,-0.4
6995,2.47
7006,6.32
7018,10.72
7030,15.11
7042,18.96
7054,21.89
7066,23.72
7078,24.43
7090,24.04
7102,22.64
7114,20.4
7126,17.69
7138,15.11
7150,13.38
7162,13.07
7174,14.39
7185,17.03
7196,20.28
7208,23.27
7220,25.33
7232,26.17
7244,25.84
7256,24.71
7268,23.18
7280,21.59
7292,20.14
7304,18.85
7316,17.51
7328,15.65
7340,12.57
7352,7.53
7364,0.02
7375,-10.0
7386,-21.94
7398,-34.82
7410,-47.48
7422,-58.99
7434,-68.79
7446,-76.64
7458,-82.48
7470,-86.26
7482,-87.81
7494,-86.97
7506,-83.68
7518,-78.03
7530,-70.38
7542,-61.23
7554,-51.21
7565,-41.01
7576,-31.26
7588,-22.47
7600,-14.98
7612,-8.88
7624,-4.16
7636,-0.68
7648,1.75
7660,3.34
7672,4.31
7684,4.94
7696,5.48
7708,6.15
7720,7.05
7732,8.13
7744,9.25
7755,10.18
7766,10.72
7778,10.72
7790,10.18
7802,9.23
7814,8.1
7826,7.02
7838,6.11
7850,5.29
7862,4.34
7874,3.06
7886,1.37
7898,-0.62
7910,-2.61
7922,-4.32
7934,-5.57
7945,-6.38
7956,-6.98
7968,-7.68
7980,-8.75
7992,-10.34
8004,-12.39
8016,-14.7
8028,-16.93
8040,-18.71
8052,-19.71
8064,-19.64
8076,-18.36
8088,-15.86
8100,-12.33
8112,-8.08
8124,-3.54
8135,0.9
8146,4.89
8158,8.19
8170,10.66
8182,12.25
8194,12.98
8206,12.9
8218,12.17
8230,11.02
8242,9.79
8254,8.84
8266,8.44
8278,8.68
8290,9.47
8302,10.57
8314,11.72
8325,12.69
8336,13.38
8348,13.78
8360,13.99
8372,14.05
8384,13.98
8396,13.68
8408,13.06
8420,12.05
8432,10.7
8444,9.15
8456,7.64
8468,6.35
8480,5.39
8492,4.76
8504,4.33
8515,3.89
8526,3.26
8538,2.29
8550,0.93
8562,-0.81
8574,-2.88
8586,-5.22
8598,-7.75
8610,-10.32
8622,-12.66
8634,-14.36
8646,-14.98
8658,-14.09
8670,-11.53
8682,-7.42
8694,-2.25
8705,3.3
8716,8.53
8728,12.93
8740,16.28
8752,18.56
8764,19.93
8776,20.52
8788,20.44
8800,19.78
8812,18.67
8824,17.38
8836,16.22
8848,15.52
8860,15.43
8872,15.89
8884,16.68
8895,17.48
8906,18.06
8918,18.33
8930,18.33
8942,18.15
8954,17.83
8966,17.36
8978,16.67
8990,15.73
9002,14.53
9014,13.12
9026,11.52
9038,9.74
9050,7.74
9062,5.54
9074,3.22
9085,0.93
9096,-1.16
9108,-2.94
9120,-4.39
9132,-5.59
9144,-6.68
9156,-7.84
9168,-9.22
9180,-10.9
9192,-12.88
9204,-15.04
9216,-17.15
9228,-18.84
9240,-19.71
9252,-19.39
9264,-17.63
9275,-14.45
9286,-10.12
9298,-5.12
9310,-0.03
9322,4.61
9334,8.41
9346,11.17
9358,12.85
9370,13.56
9382,13.44
9394,12.71
9406,11.52
9418,10.06
9430,8.56
9442,7.21
9454,6.23
9465,5.81
9476,6.01
9488,6.79
9500,7.93
9512,9.09
9524,9.95
9536,10.3
9548,10.08
9560,9.4
9572,8.44
9584,7.35
9596,6.18
9608,4.88
9620,3.36
9632,1.58
9644,-0.41
9655,-2.45
9666,-4.32
9678,-5.83
9690,-6.92
9702,-7.69
9714,-8.38
9726,-9.26
9738,-10.58
9750,-12.36
9762,-14.5
9774,-16.69
9786,-18.55
9798,-19.7
9810,-19.83
9822,-18.69
9834,-16.18
9845,-12.39
9856,-7.59
9868,-2.25
9880,3.03
9892,7.72
9904,11.41
9916,13.96
9928,15.37
9940,15.76
9952,15.29
9964,14.09
9976,12.38
9988,10.43
10000,8.6
10012,7.2
10024,6.46
10035,6.39
10046,6.84
10058,7.58
10070,8.38
10082,9.06
10094,9.5
10106,9.66
10118,9.49
10130,9.0
10142,8.2
10154,7.12
10166,5.77
10178,4.17
10190,2.33
10202,0.31
10214,-1.76
10225,-3.74
10236,-5.47
10248,-6.88
10260,-7.97
10272,-8.87
10284,-9.79
10296,-10.97
10308,-12.59
10320,-14.67
10332,-17.02
10344,-19.25
10356,-20.82
10368,-21.23
10380,-20.19
10392,-17.7
10404,-14.01
10415,-9.55
10426,-4.74
10438,-0.01
10450,4.27
10462,7.74
10474,10.08
10486,11.12
10498,10.91
10510,9.69
10522,7.91
10534,6.0
10546,4.3
10558,3.0
10570,2.19
10582,1.86
10594,2.03
10605,2.67
10616,3.67
10628,4.82
10640,5.87
10652,6.57
10664,6.78
10676,6.5
10688,5.83
10700,4.93
10712,3.91
10724,2.82
10736,1.64
10748,0.36
10760,-0.99
10772,-2.32
10784,-3.54
10795,-4.62
10806,-5.62
10818,-6.64
10830,-7.79
10842,-9.12
10854,-10.62
10866,-12.24
10878,-13.95
10890,-15.71
10902,-17.37
10914,-18.65
10926,-19.17
10938,-18.5
10950,-16.32
10962,-12.6
10974,-7.6
10985,-1.84
10996,4.06
11008,9.45
11020,13.86
11032,16.95
11044,18.62
11056,18.96
11068,18.23
11080,16.82
11092,15.19
11104,13.73
11116,12.7
11128,12.19
11140,12.13
11152,12.36
11164,12.75
11175,13.2
11186,13.65
11198,14.04
11210,14.26
11222,14.21
11234,13.84
11246,13.09
11258,12.01
11270,10.65
11282,9.06
11294,7.29
11306,5.39
11318,3.45
11330,1.64
11342,0.09
11354,-1.1
11365,-1.95
11376,-2.61
11388,-3.27
11400,-4.14
11412,-5.4
11424,-7.15
11436,-9.36
11448,-11.89
11460,-14.43
11472,-16.53
11484,-17.73
11496,-17.63
11508,-16.08
11520,-13.18
11532,-9.3
11544,-4.91
11555,-0.47
11566,3.67
11578,7.28
11590,10.19
11602,12.27
11614,13.39
11626,13.5
11638,12.65
11650,11.08
11662,9.13
11674,7.22
11686,5.66
11698,4.63
11710,4.14
11722,4.11
11734,4.43
11745,5.02
11756,5.82
11768,6.69
11780,7.4
11792,7.7
11804,7.4
11816,6.49
11828,5.13
11840,3.58
11852,2.08
11864,0.72
11876,-0.55
11888,-1.84
11900,-3.21
11912,-4.6
11924,-5.88
11935,-6.99
11946,-7.96
11958,-8.93
11970,-10.04
11982,-11.36
11994,-12.86
12006,-14.44
12018,-15.97
12030,-17.35
12042,-18.43
12054,-19.01
12066,-18.85
12078,-17.69
12090,-15.42
12102,-12.13
12114,-8.2
12125,-4.12
12136,-0.4
12148,2.58
12160,4.65
12172,5.78
12184,6.1
12196,5.78
12208,5.03
12220,4.07
12232,3.15
12244,2.48
12256,2.19
12268,2.32
12280,2.8
12292,3.52
12304,4.35
12315,5.18
12326,5.91
12338,6.4
12350,6.54
12362,6.26
12374,5.54
12386,4.5
12398,3.29
12410,2.05
12422,0.85
12434,-0.29
12446,-1.45
12458,-2.66
12470,-3.93
12482,-5.17
12494,-6.34
12505,-7.44
12516,-8.6
12528,-9.98
12540,-11.73
12552,-13.86
12564,-16.16
12576,-18.22
12588,-19.55
12600,-19.65
12612,-18.26
12624,-15.39
12636,-11.35
12648,-6.71
12660,-2.06
12672,2.05
12684,5.28
12695,7.46
12706,8.54
12718,8.58
12730,7.67
12742,6.01
12754,3.89
12766,1.73
12778,-0.02
12790,-1.0
12802,-1.08
12814,-0.43
12826,0.59
12838,1.53
12850,2.05
12862,2.01
12874,1.53
12885,0.82
12896,0.09
12908,-0.55
12920,-1.18
12932,-1.9
12944,-2.81
12956,-3.89
12968,-5.02
12980,-6.09
12992,-7.02
13004,-7.88
13016,-8.73
13028,-9.64
13040,-10.61
13052,-11.65
13064,-12.76
13075,-14.03
13086,-15.47
13098,-17.0
13110,-18.33
13122,-18.96
13134,-18.39
13146,-16.27
13158,-12.62
13170,-7.8
13182,-2.52
13194,2.5
13206,6.64
13218,9.54
13230,11.15
13242,11.6
13254,11.17
13265,10.14
13276,8.78
13288,7.32
13300,5.99
13312,5.0
13324,4.49
13336,4.51
13348,4.93
13360,5.53
13372,6.08
13384,6.43
13396,6.51
13408,6.37
13420,6.06
13432,5.57
13444,4.83
13455,3.75
13466,2.3
13478,0.54
13490,-1.37
13502,-3.23
13514,-4.9
13526,-6.28
13538,-7.47
13550,-8.59
13562,-9.84
13574,-11.37
13586,-13.26
13598,-15.47
13610,-17.79
13622,-19.92
13634,-21.43
13645,-21.89
13656,-20.96
13668,-18.49
13680,-14.61
13692,-9.77
13704,-4.62
13716,0.16
13728,4.01
13740,6.68
13752,8.19
13764,8.74
13776,8.61
13788,8.03
13800,7.18
13812,6.2
13824,5.28
13835,4.63
13846,4.43
13858,4.77
13870,5.54
13882,6.48
13894,7.31
13906,7.81
13918,7.97
13930,7.92
13942,7.85
13954,7.82
13966,7.76
13978,7.48
13990,6.79
14002,5.7
14014,4.35
14025,2.96
14036,1.72
14048,0.62
14060,-0.43
14072,-1.58
14084,-2.9
14096,-4.35
14108,-5.82
14120,-7.24
14132,-8.6
14144,-9.92
14156,-11.19
14168,-12.23
14180,-12.77
14192,-12.43
14204,-10.93
14215,-8.17
14226,-4.34
14238,0.16
14250,4.78
14262,9.02
14274,12.45
14286,14.85
14298,16.13
14310,16.31
14322,15.5
14334,13.91
14346,11.86
14358,9.78
14370,8.09
14382,7.17
14394,7.15
14405,7.9
14416,9.1
14428,10.31
14440,11.16
14452,11.43
14464,11.1
14476,10.24
14488,8.99
14500,7.43
14512,5.57
14524,3.45
14536,1.15
14548,-1.18
14560,-3.39
14572,-5.33
14584,-6.95
14595,-8.3
14606,-9.47
14618,-10.56
14630,-11.68
14642,-12.89
14654,-14.27
14666,-15.84
14678,-17.52
14690,-19.07
14702,-20.14
14714,-20.33
14726,-19.35
14738,-17.12
14750,-13.82
14762,-9.78
14774,-5.48
14785,-1.33
14796,2.31
14808,5.2
14820,7.16
14832,8.1
14844,8.01
14856,6.99
14868,5.29
14880,3.28
14892,1.36
14904,-0.11
14916,-0.92
14928,-1.07
14940,-0.72
14952,-0.1
14964,0.56
14975,1.12
14986,1.52
14998,1.76
15010,1.81
15022,1.6
15034,1.07
15046,0.17
15058,-1.04
15070,-2.44
15082,-3.88
15094,-5.24
15106,-6.44
15118,-7.46
15130,-8.33
15142,-9.11
15154,-9.89
15165,-10.82
15176,-12.02
15188,-13.59
15200,-15.44
15212,-17.32
15224,-18.74
15236,-19.18
15248,-18.18
15260,-15.56
15272,-11.5
15284,-6.5
15296,-1.18
15308,3.81
15320,7.94
15332,10.91
15344,12.55
15355,12.9
15366,12.15
15378,10.65
15390,8.84
15402,7.17
15414,5.94
15426,5.3
15438,5.17
15450,5.39
15462,5.77
15474,6.19
15486,6.56
15498,6.8
15510,6.87
15522,6.68
15534,6.19
15545,5.4
15556,4.37
15568,3.14
15580,1.74
15592,0.18
15604,-1.55
15616,-3.35
15628,-5.13
15640,-6.76
15652,-8.19
15664,-9.46
15676,-10.71
15688,-12.1
15700,-13.76
15712,-15.63
15724,-17.44
15735,-18.73
15746,-18.95
15758,-17.68
15770,-14.74
15782,-10.35
15794,-5.03
15806,0.52
15818,5.63
15830,9.83
15842,12.83
15854,14.55
15866,15.01
15878,14.33
15890,12.72
15902,10.57
15914,8.35
15925,6.55
15936,5.49
15948,5.24
15960,5.62
15972,6.31
15984,7.02
15996,7.57
16008,7.91
16020,8.05
16032,7.99
16044,7.65
16056,6.95
16068,5.81
16080,4.26
16092,2.44
16104,0.57
16115,-1.13
16126,-2.54
16138,-3.61
16150,-4.44
16162,-5.18
16174,-5.97
16186,-6.98
16198,-8.3
16210,-9.96
16222,-11.97
16234,-14.19
16246,-16.37
16258,-18.07
16270,-18.75
16282,-17.94
16294,-15.44
16305,-11.39
16316,-6.3
16328,-0.9
16340,4.1
16352,8.16
16364,11.01
16376,12.59
16388,12.93
16400,12.18
16412,10.54
16424,8.31
16436,5.92
16448,3.82
16460,2.34
16472,1.66
16484,1.75
16495,2.4
16506,3.37
16518,4.36
16530,5.19
16542,5.71
16554,5.89
16566,5.74
16578,5.33
16590,4.71
16602,3.9
16614,2.9
16626,1.67
16638,0.22
16650,-1.37
16662,-2.96
16674,-4.41
16685,-5.6
16696,-6.51
16708,-7.15
16720,-7.64
16732,-8.11
16744,-8.71
16756,-9.6
16768,-10.87
16780,-12.45
16792,-14.09
16804,-15.36
16816,-15.79
16828,-14.97
16840,-12.71
16852,-9.11
16864,-4.49
16875,0.62
16886,5.65
16898,10.02
16910,13.3
16922,15.28
16934,16.02
16946,15.8
16958,15.02
16970,14.06
16982,13.12
16994,12.3
17006,11.6
17018,11.1
17030,10.97
17042,11.37
17054,12.34
17065,13.69
17076,15.01
17088,15.85
17100,15.89
17112,15.13
17124,13.85
17136,12.43
17148,11.17
17160,10.17
17172,9.28
17184,8.27
17196,6.97
17208,5.37
17220,3.64
17232,2.0
17244,0.64
17255,-0.36
17266,-1.06
17278,-1.59
17290,-2.04
17302,-2.5
17314,-3.02
17326,-3.62
17338,-4.33
17350,-5.21
17362,-6.23
17374,-7.31
17386,-8.17
17398,-8.39
17410,-7.55
17422,-5.31
17434,-1.64
17445,3.12
17456,8.33
17468,13.26
17480,17.25
17492,19.94
17504,21.27
17516,21.39
17528,20.62
17540,19.27
17552,17.63
17564,15.97
17576,14.52
17588,13.47
17600,12.94
17612,12.96
17624,13.4
17635,14.11
17646,14.84
17658,15.35
17670,15.47
17682,15.05
17694,14.09
17706,12.63
17718,10.81
17730,8.83
17742,6.91
17754,5.2
17766,3.75
17778,2.47
17790,1.17
17802,-0.3
17814,-2.0
17825,-3.85
17836,-5.66
17848,-7.22
17860,-8.42
17872,-9.33
17884,-10.09
17896,-10.91
17908,-11.96
17920,-13.34
17932,-15.02
17944,-16.85
17956,-18.54
17968,-19.69
17980,-19.89
17992,-18.86
18004,-16.54
18015,-13.14
18026,-9.13
18038,-5.1
18050,-1.6
18062,0.92
18074,2.26
18086,2.36
18098,1.38
18110,-0.39
18122,-2.53
18134,-4.54
18146,-5.95
18158,-6.41
18170,-5.78
18182,-4.22
18194,-2.14
18205,-0.02
18216,1.66
18228,2.62
18240,2.81
18252,2.32
18264,1.27
18276,-0.29
18288,-2.41
18300,-5.15
18312,-8.43
18324,-11.98
18336,-15.31
18348,-17.89
18360,-19.34
18372,-19.52
18384,-18.61
18395,-16.98
18406,-15.07
18418,-13.27
18430,-11.81
18442,-10.83
18454,-10.4
18466,-10.55
18478,-11.28
18490,-12.53
18502,-14.08
18514,-15.56
18526,-16.41
18538,-16.06
18550,-14.14
18562,-10.57
18574,-5.72
18585,-0.29
18596,4.94
18608,9.3
18620,12.38
18632,14.11
18644,14.61
18656,14.09
18668,12.77
18680,10.88
18692,8.7
18704,6.55
18716,4.78
18728,3.7
18740,3.46
18752,4.06
18764,5.3
18775,6.81
18786,8.2
18798,9.15
18810,9.5
18822,9.29
18834,8.73
18846,8.02
18858,7.29
18870,6.53
18882,5.63
18894,4.51
18906,3.13
18918,1.58
18930,-0.04
18942,-1.59
18954,-3.01
18965,-4.28
18976,-5.44
18988,-6.53
19000,-7.61
19012,-8.76
19024,-10.04
19036,-11.52
19048,-13.24
19060,-15.17
19072,-17.17
19084,-18.9
19096,-19.87
19108,-19.57
19120,-17.61
19132,-13.97
19144,-9.02
19155,-3.4
19166,2.1
19178,6.86
19190,10.51
19202,12.97
19214,14.33
19226,14.74
19238,14.41
19250,13.54
19262,12.38
19274,11.19
19286,10.25
19298,9.77
19310,9.88
19322,10.55
19334,11.69
19345,13.1
19356,14.53
19368,15.72
19380,16.4
19392,16.45
19404,15.85
19416,14.74
19428,13.37
19440,11.99
19452,10.77
19464,9.71
19476,8.69
19488,7.52
19500,6.06
19512,4.32
19524,2.41
19535,0.49
19546,-1.31
19558,-3.02
19570,-4.7
19582,-6.43
19594,-8.22
19606,-9.96
19618,-11.55
19630,-12.94
19642,-14.19
19654,-15.44
19666,-16.72
19678,-17.9
19690,-18.62
19702,-18.38
19714,-16.78
19725,-13.7
19736,-9.41
19748,-4.45
19760,0.45
19772,4.71
19784,7.95
19796,10.06
19808,11.12
19820,11.29
19832,10.79
19844,9.79
19856,8.5
19868,7.15
19880,5.96
19892,5.13
19904,4.78
19915,4.89
19926,5.34
19938,5.91
19950,6.43
19962,6.79
19974,6.96
19986,7.01
19998,7.03
20010,7.02
20022,6.93
20034,6.63
20046,6.03
20058,5.08
20070,3.82
20082,2.33
20094,0.7
20105,-1.0
20116,-2.68
20128,-4.28
20140,-5.74
20152,-6.99
20164,-8.04
20176,-8.95
20188,-9.85
20200,-10.9
20212,-12.22
20224,-13.84
20236,-15.7
20248,-17.63
20260,-19.35
20272,-20.54
20284,-20.83
20295,-19.97
20306,-17.82
20318,-14.5
20330,-10.34
20342,-5.81
20354,-1.41
20366,2.42
20378,5.41
20390,7.42
20402,8.4
20414,8.42
20426,7.64
20438,6.28
20450,4.68
20462,3.17
20474,2.04
20485,1.5
20496,1.56
20508,2.15
20520,3.08
20532,4.14
20544,5.16
20556,6.02
20568,6.66
20580,7.04
20592,7.11
20604,6.79
20616,6.02
20628,4.78
20640,3.17
20652,1.37
20664,-0.38
20675,-1.9
20686,-3.1
20698,-4.03
20710,-4.82
20722,-5.61
20734,-6.48
20746,-7.45
20758,-8.44
20770,-9.37
20782,-10.22
20794,-10.99
20806,-11.83
20818,-12.92
20830,-14.34
20842,-16.06
20854,-17.75
20865,-18.9
20876,-18.97
20888,-17.56
20900,-14.6
20912,-10.42
20924,-5.56
20936,-0.61
20948,3.92
20960,7.72
20972,10.67
20984,12.68
20996,13.73
