seconds,BVP
5,71.43
16,75.62
28,76.66
40,75.19
52,71.96
64,67.59
76,62.62
88,57.61
100,53.17
112,49.75
124,47.26
136,44.91
148,41.44
160,35.67
172,27.17
184,16.59
195,5.39
206,-4.94
218,-13.51
230,-20.34
242,-26.14
254,-31.61
266,-37.1
278,-42.42
290,-47.21
302,-51.2
314,-54.35
326,-56.64
338,-57.81
350,-57.3
362,-54.41
374,-48.74
385,-40.47
396,-30.39
408,-19.63
420,-9.22
432,0.33
444,9.08
456,17.42
468,25.69
480,33.88
492,41.47
504,47.52
516,50.93
528,50.75
540,46.65
552,38.99
564,28.76
575,17.18
586,5.2
598,-6.77
610,-18.85
622,-31.47
634,-44.89
646,-58.85
658,-72.56
670,-84.97
682,-95.14
694,-102.64
706,-107.59
718,-110.46
730,-111.54
742,-110.55
754,-106.69
765,-99.07
776,-87.41
788,-72.54
800,-56.29
812,-40.68
824,-26.94
836,-15.02
848,-3.93
860,7.28
872,18.66
884,29.28
896,38.0
908,44.55
920,49.95
932,55.78
944,62.93
955,70.49
966,75.88
978,76.23
990,70.16
1002,58.68
1014,44.67
1026,31.41
1038,20.98
1050,13.72
1062,8.72
1074,5.01
1086,2.38
1098,1.35
1110,2.52
1122,5.76
1134,10.01
1145,13.75
1156,15.81
1168,15.94
1180,14.84
1192,13.62
1204,13.14
1216,13.64
1228,14.65
1240,15.5
1252,15.69
1264,15.21
1276,14.49
1288,14.17
1300,14.81
1312,16.63
1324,19.59
1335,23.48
1346,28.03
1358,32.88
1370,37.54
1382,41.28
1394,43.3
1406,42.98
1418,40.15
1430,35.41
1442,30.0
1454,25.36
1466,22.53
1478,21.61
1490,21.74
1502,21.51
1514,19.68
1525,15.84
1536,10.64
1548,5.4
1560,1.53
1572,-0.1
1584,0.66
1596,3.41
1608,7.48
1620,12.28
1632,17.23
1644,21.72
1656,24.91
1668,25.93
1680,24.17
1692,19.71
1704,13.39
1715,6.57
1726,0.55
1738,-4.1
1750,-7.84
1762,-11.98
1774,-17.92
1786,-26.25
1798,-36.31
1810,-46.32
1822,-54.11
1834,-58.11
1846,-57.94
1858,-54.45
1870,-49.25
1882,-43.97
1894,-39.7
1905,-36.78
1916,-34.82
1928,-33.07
1940,-30.8
1952,-27.65
1964,-23.87
1976,-20.2
1988,-17.6
2000,-16.78
2012,-17.81
2024,-20.06
2036,-22.55
2048,-24.44
2060,-25.37
2072,-25.6
2084,-25.63
2095,-26.01
2106,-27.1
2118,-29.13
2130,-32.07
2142,-35.65
2154,-39.07
2166,-41.13
2178,-40.55
2190,-36.49
2202,-29.05
2214,-19.33
2226,-9.01
2238,0.4
2250,7.95
2262,13.55
2274,17.47
2285,19.92
2296,20.81
2308,19.9
2320,17.18
2332,13.2
2344,9.12
2356,6.15
2368,5.12
2380,6.06
2392,8.34
2404,11.21
2416,14.22
2428,17.46
2440,21.4
2452,26.63
2464,33.61
2475,42.76
2486,54.46
2498,68.76
2510,84.98
2522,101.19
2534,114.32
2546,120.95
2558,118.6
2570,106.77
2582,87.23
2594,63.26
2606,38.29
2618,14.86
2630,-5.85
2642,-23.73
2654,-39.1
2665,-52.38
2676,-63.83
2688,-73.63
2700,-81.85
2712,-88.27
2724,-92.37
2736,-93.59
2748,-91.92
2760,-88.35
2772,-84.9
2784,-83.83
2796,-86.57
2808,-92.92
2820,-101.16
2832,-108.87
2844,-114.25
2855,-116.67
2866,-116.6
2878,-114.7
2890,-111.07
2902,-105.1
2914,-96.02
2926,-83.63
2938,-68.55
2950,-51.88
2962,-34.48
2974,-16.61
2986,1.82
2998,20.81
3010,39.77
3022,57.58
3034,73.02
3045,85.15
3056,93.58
3068,98.33
3080,99.56
3092,97.51
3104,92.77
3116,86.5
3128,80.44
3140,76.56
3152,76.34
3164,80.21
3176,87.23
3188,95.44
3200,102.59
3212,107.07
3224,108.51
3235,107.87
3246,106.79
3258,106.64
3270,107.71
3282,108.97
3294,108.68
3306,105.09
3318,97.16
3330,84.64
3342,67.83
3354,47.36
3366,24.21
3378,0.24
3390,-21.6
3402,-37.42
3414,-43.5
3425,-37.54
3436,-19.67
3448,7.48
3460,39.64
3472,72.26
3484,101.8
3496,126.35
3508,145.33
3520,158.7
3532,166.21
3544,167.11
3556,160.62
3568,146.8
3580,127.19
3592,104.93
3604,83.98
3615,67.93
3626,58.76
3638,56.39
3650,58.88
3662,63.33
3674,66.82
3686,66.96
3698,61.93
3710,50.46
3722,31.96
3734,6.96
3746,-22.49
3758,-53.03
3770,-80.78
3782,-102.63
3794,-117.27
3805,-125.53
3816,-129.71
3828,-132.4
3840,-135.47
3852,-139.62
3864,-144.71
3876,-150.42
3888,-156.65
3900,-163.68
3912,-171.68
3924,-180.41
3936,-188.92
3948,-195.8
3960,-199.68
3972,-199.72
3984,-195.77
3995,-188.14
4006,-177.15
4018,-162.89
4030,-145.27
4042,-124.59
4054,-101.96
4066,-79.41
4078,-59.3
4090,-43.32
4102,-31.75
4114,-23.44
4126,-16.44
4138,-8.92
4150,0.19
4162,11.43
4174,25.24
4185,42.27
4196,62.95
4208,86.71
4220,111.45
4232,133.8
4244,150.41
4256,159.35
4268,161.1
4280,158.18
4292,153.75
4304,150.12
4316,147.94
4328,146.54
4340,144.89
4352,142.56
4364,140.01
4375,138.24
4386,138.12
4398,140.01
4410,143.64
4422,148.4
4434,153.57
4446,158.32
4458,161.59
4470,162.24
4482,159.34
4494,152.69
4506,143.24
4518,132.94
4530,123.82
4542,117.0
4554,111.86
4565,106.12
4576,96.7
4588,80.91
4600,57.31
4612,25.9
4624,-12.12
4636,-54.81
4648,-99.54
4660,-142.85
4672,-180.5
4684,-208.26
4696,-223.13
4708,-224.39
4720,-214.04
4732,-195.88
4744,-174.25
4755,-152.52
4766,-132.5
4778,-114.41
4790,-97.66
4802,-81.53
4814,-65.56
4826,-49.81
4838,-34.91
4850,-22.02
4862,-12.48
4874,-7.46
4886,-7.46
4898,-12.06
4910,-19.98
4922,-29.43
4934,-38.51
4945,-45.66
4956,-49.86
4968,-50.66
4980,-48.17
4992,-42.81
5004,-35.14
5016,-25.6
5028,-14.64
5040,-2.87
5052,8.52
5064,17.68
5076,22.46
5088,21.11
5100,13.05
5112,-0.77
5124,-18.06
5135,-36.02
5146,-52.18
5158,-65.15
5170,-74.76
5182,-81.84
5194,-87.75
5206,-93.75
5218,-100.43
5230,-107.59
5242,-114.39
5254,-119.88
5266,-123.56
5278,-125.73
5290,-127.24
5302,-129.01
5314,-131.2
5325,-133.03
5336,-133.19
5348,-130.59
5360,-125.05
5372,-117.16
5384,-107.4
5396,-95.25
5408,-79.01
5420,-56.6
5432,-27.08
5444,8.22
5456,45.8
5468,81.39
5480,111.65
5492,135.4
5504,153.24
5515,166.2
5526,174.4
5538,176.63
5550,171.36
5562,158.34
5574,139.48
5586,118.49
5598,99.3
5610,84.32
5622,73.6
5634,65.35
5646,57.33
5658,48.29
5670,38.55
5682,29.37
5694,21.96
5705,16.51
5716,11.98
5728,6.78
5740,-0.27
5752,-9.23
5764,-18.96
5776,-27.66
5788,-33.68
5800,-36.2
5812,-35.45
5824,-32.59
5836,-29.2
5848,-26.74
5860,-26.13
5872,-27.56
5884,-30.63
5895,-34.58
5906,-38.62
5918,-42.15
5930,-44.85
5942,-46.64
5954,-47.57
5966,-47.72
5978,-47.25
5990,-46.42
6002,-45.6
6014,-45.24
6026,-45.61
6038,-46.6
6050,-47.61
6062,-47.7
6074,-45.87
6085,-41.5
6096,-34.57
6108,-25.59
6120,-15.46
6132,-5.07
6144,4.83
6156,13.72
6168,21.15
6180,26.77
6192,30.4
6204,32.13
6216,32.39
6228,31.87
6240,31.17
6252,30.61
6264,30.09
6275,29.26
6286,27.78
6298,25.66
6310,23.24
6322,21.09
6334,19.61
6346,19.0
6358,19.07
6370,19.46
6382,19.79
6394,19.81
6406,19.48
6418,18.92
6430,18.23
6442,17.39
6454,16.25
6465,14.6
6476,12.28
6488,9.27
6500,5.82
6512,2.26
6524,-1.05
6536,-3.91
6548,-6.38
6560,-8.67
6572,-10.96
6584,-13.33
6596,-15.71
6608,-17.88
6620,-19.73
6632,-21.29
6644,-22.76
6655,-24.45
6666,-26.63
6678,-29.42
6690,-32.76
6702,-36.49
6714,-40.37
6726,-44.15
6738,-47.57
6750,-50.16
6762,-51.33
6774,-50.35
6786,-46.59
6798,-39.78
6810,-30.25
6822,-18.96
6834,-7.19
6845,3.77
6856,13.08
6868,20.41
6880,25.9
6892,29.82
6904,32.33
6916,33.46
6928,33.21
6940,31.72
6952,29.39
6964,26.79
6976,24.36
6988,22.27
7000,20.43
7012,18.66
7024,16.94
7035,15.49
7046,14.63
7058,14.59
7070,15.25
7082,16.21
7094,16.95
7106,17.12
7118,16.63
7130,15.7
7142,14.64
7154,13.66
7166,12.8
7178,11.89
7190,10.74
7202,9.18
7214,7.19
7225,4.82
7236,2.24
7248,-0.41
7260,-3.03
7272,-5.55
7284,-7.98
7296,-10.26
7308,-12.28
7320,-13.96
7332,-15.3
7344,-16.47
7356,-17.77
7368,-19.59
7380,-22.11
7392,-25.14
7404,-28.13
7415,-30.22
7426,-30.6
7438,-28.76
7450,-24.65
7462,-18.66
7474,-11.47
7486,-3.77
7498,3.87
7510,11.07
7522,17.64
7534,23.4
7546,28.11
7558,31.51
7570,33.43
7582,33.91
7594,33.21
7605,31.73
7616,29.86
7628,27.87
7640,25.9
7652,24.05
7664,22.44
7676,21.27
7688,20.7
7700,20.77
7712,21.38
7724,22.29
7736,23.28
7748,24.17
7760,24.83
7772,25.14
7784,24.91
7795,24.03
7806,22.56
7818,20.76
7830,19.02
7842,17.66
7854,16.76
7866,16.04
7878,15.09
7890,13.53
7902,11.3
7914,8.64
7926,5.92
7938,3.37
7950,0.86
7962,-2.08
7974,-6.04
7985,-11.42
7996,-18.15
8008,-25.65
8020,-33.07
8032,-39.56
8044,-44.48
8056,-47.49
8068,-48.37
8080,-46.87
8092,-42.69
8104,-35.59
8116,-25.69
8128,-13.62
8140,-0.59
8152,11.9
8164,22.5
8175,30.49
8186,35.96
8198,39.76
8210,43.09
8222,47.04
8234,52.3
8246,58.95
8258,66.65
8270,74.74
8282,82.4
8294,88.68
8306,92.57
8318,93.23
8330,90.27
8342,84.17
8354,76.34
8365,68.71
8376,63.1
8388,60.55
8400,61.18
8412,64.37
8424,69.33
8436,75.42
8448,82.34
8460,89.82
8472,97.4
8484,104.34
8496,109.62
8508,112.33
8520,111.88
8532,108.15
8544,101.5
8555,92.54
8566,81.79
8578,69.19
8590,53.77
8602,33.67
8614,6.82
8626,-28.0
8638,-69.91
8650,-115.44
8662,-159.12
8674,-195.16
8686,-219.46
8698,-230.54
8710,-229.3
8722,-217.34
8734,-195.23
8745,-161.87
8756,-115.73
8768,-57.19
8780,9.46
8792,75.79
8804,131.53
8816,168.38
8828,183.34
8840,179.66
8852,164.86
8864,147.06
8876,131.46
8888,118.97
8900,107.31
8912,93.71
8924,77.32
8935,60.17
8946,46.15
8958,38.88
8970,39.53
8982,46.11
8994,54.27
9006,59.42
9018,58.77
9030,52.37
9042,42.69
9054,33.09
9066,26.01
9078,22.02
9090,19.92
9102,17.75
9114,13.93
9125,8.04
9136,0.77
9148,-6.62
9160,-13.07
9172,-18.06
9184,-21.87
9196,-25.42
9208,-29.97
9220,-36.49
9232,-45.08
9244,-54.51
9256,-62.42
9268,-66.07
9280,-63.45
9292,-54.15
9304,-39.58
9315,-22.37
9326,-5.37
9338,9.17
9350,19.91
9362,26.41
9374,28.73
9386,27.09
9398,21.82
9410,13.45
9422,2.89
9434,-8.6
9446,-19.61
9458,-29.02
9470,-36.21
9482,-41.09
9494,-43.95
9505,-45.22
9516,-45.47
9528,-45.34
9540,-45.64
9552,-47.03
9564,-49.82
9576,-53.76
9588,-58.04
9600,-61.56
9612,-63.29
9624,-62.57
9636,-59.32
9648,-54.12
9660,-48.12
9672,-43.04
9684,-41.05
9695,-44.56
9706,-55.91
9718,-76.74
9730,-107.34
9742,-146.11
9754,-189.45
9766,-232.12
9778,-268.26
9790,-292.74
9802,-302.52
9814,-297.28
9826,-279.3
9838,-252.45
9850,-221.01
9862,-188.76
9874,-158.71
9885,-133.29
9896,-114.62
9908,-104.3
9920,-102.9
9932,-109.55
9944,-122.15
9956,-138.21
9968,-155.8
9980,-174.0
9992,-192.49
10004,-210.5
10016,-225.75
10028,-234.53
10040,-232.89
10052,-218.58
10064,-192.54
10075,-158.9
10086,-123.55
10098,-91.94
10110,-67.39
10122,-50.85
10134,-41.69
10146,-38.81
10158,-40.97
10170,-46.15
10182,-50.71
10194,-49.5
10206,-37.29
10218,-11.08
10230,28.01
10242,74.51
10254,120.53
10265,158.6
10276,184.55
10288,198.55
10300,204.43
10312,207.56
10324,212.61
10336,221.99
10348,235.46
10360,250.67
10372,264.39
10384,273.64
10396,276.54
10408,272.66
10420,262.8
10432,248.52
10444,231.72
10455,214.24
10466,197.78
10478,183.85
10490,173.71
10502,168.14
10514,167.09
10526,169.59
10538,173.7
10550,177.08
10562,177.66
10574,174.17
10586,166.65
10598,156.18
10610,144.54
10622,133.46
10634,124.13
10645,116.68
10656,110.29
10668,103.63
10680,95.62
10692,86.08
10704,75.8
10716,65.95
10728,57.2
10740,49.06
10752,39.67
10764,26.58
10776,7.86
10788,-16.93
10800,-46.21
10812,-76.5
10824,-102.87
10835,-119.9
10846,-123.0
10858,-109.95
10870,-82.24
10882,-45.41
10894,-7.93
10906,21.38
10918,36.3
10930,35.45
10942,22.42
10954,3.78
10966,-13.99
10978,-27.05
10990,-34.9
11002,-39.39
11014,-42.65
11025,-45.64
11036,-48.36
11048,-51.0
11060,-55.26
11072,-64.28
11084,-81.24
11096,-107.15
11108,-139.5
11120,-172.46
11132,-199.09
11144,-214.09
11156,-215.74
11168,-205.89
11180,-188.36
11192,-166.67
11204,-142.74
11215,-117.04
11226,-89.73
11238,-61.84
11250,-35.39
11262,-12.45
11274,5.93
11286,20.23
11298,31.61
11310,40.68
11322,46.56
11334,47.39
11346,41.81
11358,30.46
11370,16.4
11382,3.74
11394,-4.48
11405,-7.87
11416,-8.7
11428,-10.28
11440,-15.0
11452,-23.15
11464,-33.1
11476,-42.35
11488,-48.55
11500,-49.99
11512,-45.52
11524,-34.54
11536,-17.35
11548,4.43
11560,27.85
11572,49.31
11584,65.69
11595,75.32
11606,78.34
11618,76.14
11630,70.6
11642,63.43
11654,55.98
11666,49.28
11678,44.17
11690,41.12
11702,40.08
11714,40.38
11726,41.04
11738,41.04
11750,39.7
11762,36.82
11774,32.57
11785,27.35
11796,21.52
11808,15.32
11820,8.86
11832,2.15
11844,-4.77
11856,-11.71
11868,-18.23
11880,-23.69
11892,-27.36
11904,-28.75
11916,-27.87
11928,-25.35
11940,-22.25
11952,-19.72
11964,-18.49
11975,-18.72
11986,-20.0
11998,-21.6
12010,-22.86
12022,-23.41
12034,-23.27
12046,-22.77
12058,-22.41
12070,-22.62
12082,-23.67
12094,-25.54
12106,-27.89
12118,-30.13
12130,-31.55
12142,-31.42
12154,-29.3
12165,-24.99
12176,-18.7
12188,-10.94
12200,-2.49
12212,5.8
12224,13.18
12236,19.2
12248,23.75
12260,27.06
12272,29.45
12284,31.22
12296,32.48
12308,33.17
12320,33.2
12332,32.65
12344,31.76
12355,30.9
12366,30.36
12378,30.23
12390,30.32
12402,30.32
12414,29.95
12426,29.14
12438,28.12
12450,27.27
12462,26.95
12474,27.24
12486,27.84
12498,28.17
12510,27.69
12522,26.12
12534,23.61
12545,20.67
12556,17.88
12568,15.64
12580,13.92
12592,12.37
12604,10.55
12616,8.29
12628,5.8
12640,3.61
12652,2.17
12664,1.61
12676,1.67
12688,1.84
12700,1.64
12712,0.84
12724,-0.53
12735,-2.28
12746,-4.25
12758,-6.32
12770,-8.37
12782,-10.24
12794,-11.78
12806,-12.95
12818,-13.85
12830,-14.69
12842,-15.67
12854,-16.84
12866,-18.11
12878,-19.3
12890,-20.17
12902,-20.53
12914,-20.1
12925,-18.61
12936,-15.8
12948,-11.65
12960,-6.47
12972,-0.83
12984,4.58
12996,9.26
13008,12.95
13020,15.7
13032,17.62
13044,18.85
13056,19.41
13068,19.26
13080,18.46
13092,17.13
13104,15.55
13115,14.04
13126,12.94
13138,12.42
13150,12.55
13162,13.16
13174,13.97
13186,14.64
13198,14.85
13210,14.51
13222,13.7
13234,12.72
13246,11.83
13258,11.21
13270,10.85
13282,10.6
13294,10.22
13305,9.46
13316,8.2
13328,6.46
13340,4.38
13352,2.23
13364,0.31
13376,-1.17
13388,-2.11
13400,-2.65
13412,-3.13
13424,-3.93
13436,-5.32
13448,-7.31
13460,-9.6
13472,-11.74
13484,-13.31
13495,-14.09
13506,-14.15
13518,-13.83
13530,-13.52
13542,-13.52
13554,-13.97
13566,-14.82
13578,-15.95
13590,-17.21
13602,-18.4
13614,-19.17
13626,-19.07
13638,-17.59
13650,-14.41
13662,-9.66
13674,-3.88
13685,2.01
13696,7.15
13708,10.98
13720,13.5
13732,15.09
13744,16.29
13756,17.47
13768,18.66
13780,19.66
13792,20.15
13804,19.99
13816,19.28
13828,18.26
13840,17.27
13852,16.57
13864,16.24
13875,16.21
13886,16.31
13898,16.35
13910,16.19
13922,15.82
13934,15.28
13946,14.65
13958,14.03
13970,13.43
13982,12.81
13994,12.07
14006,11.1
14018,9.87
14030,8.48
14042,7.09
14054,5.84
14065,4.79
14076,3.88
14088,3.0
14100,2.1
14112,1.19
14124,0.43
14136,-0.07
14148,-0.27
14160,-0.28
14172,-0.29
14184,-0.46
14196,-0.83
14208,-1.36
14220,-1.99
14232,-2.71
14244,-3.55
14255,-4.49
14266,-5.47
14278,-6.42
14290,-7.36
14302,-8.44
14314,-9.88
14326,-11.76
14338,-13.84
14350,-15.64
14362,-16.48
14374,-15.87
14386,-13.67
14398,-10.2
14410,-6.0
14422,-1.69
14434,2.32
14445,5.81
14456,8.73
14468,11.06
14480,12.79
14492,13.8
14504,14.02
14516,13.45
14528,12.27
14540,10.78
14552,9.38
14564,8.38
14576,7.94
14588,7.96
14600,8.19
14612,8.4
14624,8.44
14635,8.37
14646,8.34
14658,8.44
14670,8.62
14682,8.61
14694,8.1
14706,6.88
14718,4.98
14730,2.71
14742,0.45
14754,-1.45
14766,-2.93
14778,-4.14
14790,-5.38
14802,-6.79
14814,-8.3
14825,-9.64
14836,-10.53
14848,-10.92
14860,-11.06
14872,-11.43
14884,-12.44
14896,-14.24
14908,-16.57
14920,-18.92
14932,-20.75
14944,-21.77
14956,-22.11
14968,-22.13
14980,-22.34
14992,-23.14
15004,-24.73
15015,-27.08
15026,-29.97
15038,-33.06
15050,-35.88
15062,-38.02
15074,-39.12
15086,-39.06
15098,-37.96
15110,-36.09
15122,-33.7
15134,-30.78
15146,-26.83
15158,-20.8
15170,-11.37
15182,2.72
15194,22.17
15205,46.75
15216,75.11
15228,104.94
15240,133.47
15252,158.18
15264,177.37
15276,190.37
15288,197.37
15300,198.91
15312,195.59
15324,187.95
15336,176.69
15348,162.88
15360,147.97
15372,133.5
15384,120.65
15395,109.96
15406,101.22
15418,93.71
15430,86.63
15442,79.4
15454,71.87
15466,64.39
15478,57.77
15490,53.22
15502,52.12
15514,55.5
15526,63.64
15538,75.61
15550,89.16
15562,101.13
15574,108.08
15585,107.36
15596,98.04
15608,81.32
15620,60.01
15632,37.32
15644,15.24
15656,-6.49
15668,-30.08
15680,-58.12
15692,-91.54
15704,-128.3
15716,-163.69
15728,-191.97
15740,-208.38
15752,-210.5
15764,-198.33
15775,-173.52
15786,-138.37
15798,-95.56
15810,-48.34
15822,-0.83
15834,42.24
15846,76.62
15858,99.91
15870,112.48
15882,117.24
15894,118.2
15906,118.61
15918,119.59
15930,120.13
15942,118.05
15954,111.53
15965,100.19
15976,85.24
15988,68.8
16000,52.61
16012,37.34
16024,22.65
16036,7.98
16048,-6.59
16060,-19.99
16072,-30.71
16084,-37.83
16096,-41.85
16108,-44.74
16120,-49.06
16132,-56.48
16144,-66.71
16155,-77.5
16166,-85.58
16178,-88.23
16190,-84.6
16202,-76.04
16214,-65.42
16226,-55.8
16238,-49.15
16250,-45.73
16262,-44.56
16274,-44.17
16286,-43.41
16298,-41.92
16310,-39.66
16322,-36.43
16334,-31.52
16345,-23.95
16356,-13.43
16368,-1.09
16380,10.51
16392,18.29
16404,20.03
16416,15.54
16428,6.63
16440,-3.9
16452,-13.72
16464,-21.91
16476,-28.71
16488,-34.45
16500,-38.67
16512,-40.2
16524,-38.08
16535,-32.8
16546,-26.48
16558,-22.0
16570,-21.49
16582,-25.19
16594,-31.43
16606,-37.82
16618,-42.89
16630,-47.13
16642,-53.09
16654,-64.22
16666,-83.1
16678,-110.08
16690,-142.74
16702,-176.59
16714,-206.42
16725,-227.73
16736,-237.57
16748,-234.95
16760,-220.76
16772,-197.51
16784,-168.98
16796,-139.82
16808,-114.94
16820,-98.68
16832,-94.1
16844,-102.2
16856,-121.98
16868,-150.86
16880,-185.7
16892,-223.61
16904,-262.45
16915,-300.95
16926,-338.35
16938,-373.78
16950,-405.58
16962,-430.98
16974,-446.5
16986,-449.14
16998,-437.71
17010,-413.49
17022,-379.66
17034,-339.74
17046,-296.0
17058,-248.82
17070,-197.41
17082,-141.33
17094,-81.9
17105,-22.34
17116,33.41
17128,82.55
17140,124.58
17152,161.28
17164,195.31
17176,228.53
17188,261.02
17200,291.01
17212,315.68
17224,332.2
17236,338.57
17248,334.29
17260,320.57
17272,300.11
17284,276.6
17295,253.82
17306,234.63
17318,220.36
17330,210.72
17342,204.27
17354,199.11
17366,193.37
17378,185.41
17390,173.99
17402,158.36
17414,138.45
17426,115.22
17438,90.56
17450,66.69
17462,45.6
17474,28.59
17485,16.48
17496,10.11
17508,10.88
17520,20.51
17532,40.11
17544,68.98
17556,103.99
17568,140.01
17580,171.36
17592,193.74
17604,205.57
17616,208.03
17628,204.11
17640,196.98
17652,188.67
17664,179.6
17675,168.96
17686,155.42
17698,137.96
17710,116.51
17722,92.57
17734,69.39
17746,51.42
17758,43.01
17770,46.46
17782,60.7
17794,81.21
17806,101.68
17818,116.37
17830,122.14
17842,119.15
17854,109.75
17865,96.81
17876,82.17
17888,66.18
17900,48.19
17912,27.24
17924,2.8
17936,-25.05
17948,-55.65
17960,-87.99
17972,-120.87
17984,-153.17
17996,-184.19
18008,-213.43
18020,-240.31
18032,-263.59
18044,-281.15
18055,-290.37
18066,-289.22
18078,-277.29
18090,-256.26
18102,-229.43
18114,-200.48
18126,-172.3
18138,-146.23
18150,-122.3
18162,-100.15
18174,-79.9
18186,-62.58
18198,-49.71
18210,-42.33
18222,-39.97
18234,-40.41
18245,-40.37
18256,-36.9
18268,-28.71
18280,-16.71
18292,-3.4
18304,8.42
18316,16.97
18328,22.23
18340,25.46
18352,28.19
18364,31.3
18376,34.56
18388,37.05
18400,37.97
18412,37.15
18424,35.16
18435,32.89
18446,30.96
18458,29.38
18470,27.52
18482,24.58
18494,20.09
18506,14.22
18518,7.69
18530,1.34
18542,-4.34
18554,-9.48
18566,-14.67
18578,-20.68
18590,-27.88
18602,-35.95
18614,-43.92
18625,-50.38
18636,-53.99
18648,-53.82
18660,-49.59
18672,-41.72
18684,-31.2
18696,-19.39
18708,-7.63
18720,2.95
18732,11.64
18744,18.22
18756,22.84
18768,25.79
18780,27.38
18792,27.85
18804,27.38
18815,26.22
18826,24.66
18838,23.08
18850,21.78
18862,20.92
18874,20.38
18886,19.97
18898,19.45
18910,18.78
18922,18.14
18934,17.83
18946,18.05
18958,18.79
18970,19.68
18982,20.18
18994,19.83
19005,18.44
19016,16.21
19028,13.59
19040,10.97
19052,8.54
19064,6.26
19076,3.9
19088,1.26
19100,-1.71
19112,-4.92
19124,-8.14
19136,-11.2
19148,-14.06
19160,-16.85
19172,-19.78
19184,-23.07
19195,-26.8
19206,-30.79
19218,-34.6
19230,-37.6
19242,-39.09
19254,-38.53
19266,-35.57
19278,-30.15
19290,-22.58
19302,-13.46
19314,-3.66
19326,5.85
19338,14.24
19350,20.95
19362,25.84
19374,29.0
19385,30.65
19396,31.0
19408,30.26
19420,28.65
19432,26.57
19444,24.58
19456,23.17
19468,22.6
19480,22.7
19492,23.05
19504,23.18
19516,22.84
19528,22.06
19540,21.15
19552,20.37
19564,19.87
19575,19.6
19586,19.4
19598,19.04
19610,18.36
19622,17.24
19634,15.66
19646,13.68
19658,11.43
19670,9.07
19682,6.75
19694,4.59
19706,2.66
19718,0.94
19730,-0.63
19742,-2.14
19754,-3.68
19765,-5.35
19776,-7.23
19788,-9.33
19800,-11.63
19812,-14.03
19824,-16.4
19836,-18.62
19848,-20.55
19860,-22.12
19872,-23.37
19884,-24.53
19896,-25.91
19908,-27.82
19920,-30.33
19932,-33.16
19944,-35.71
19955,-37.3
19966,-37.32
19978,-35.52
19990,-31.96
20002,-26.95
20014,-20.9
20026,-14.21
20038,-7.29
20050,-0.54
20062,5.7
20074,11.15
20086,15.64
20098,19.08
20110,21.44
20122,22.72
20134,22.98
20145,22.36
20156,21.11
20168,19.58
20180,18.1
20192,16.87
20204,15.96
20216,15.34
20228,14.91
20240,14.57
20252,14.29
20264,14.07
20276,13.93
20288,13.89
20300,13.89
20312,13.76
20324,13.32
20335,12.38
20346,10.91
20358,9.06
20370,7.11
20382,5.29
20394,3.71
20406,2.31
20418,0.92
20430,-0.59
20442,-2.22
20454,-3.84
20466,-5.27
20478,-6.38
20490,-7.19
20502,-7.83
20514,-8.53
20525,-9.53
20536,-11.0
20548,-13.02
20560,-15.43
20572,-17.95
20584,-20.22
20596,-21.94
20608,-23.07
20620,-23.84
20632,-24.63
20644,-25.81
20656,-27.52
20668,-29.6
20680,-31.61
20692,-33.04
20704,-33.4
20715,-32.43
20726,-30.02
20738,-26.23
20750,-21.27
20762,-15.42
20774,-9.08
20786,-2.72
20798,3.18
20810,8.23
20822,12.18
20834,14.95
20846,16.63
20858,17.38
20870,17.38
20882,16.85
20894,15.99
20905,15.04
20916,14.23
20928,13.75
20940,13.74
20952,14.18
20964,14.93
20976,15.83
20988,16.64
