seconds,BVP
0,24.07
12,23.59
24,22.59
36,21.09
48,19.15
60,16.85
71,14.34
82,11.72
94,9.08
106,6.44
118,3.79
130,1.07
142,-1.78
154,-4.77
166,-7.86
178,-10.96
190,-13.98
202,-16.87
214,-19.73
226,-22.78
238,-26.23
250,-30.23
261,-34.69
272,-39.19
284,-43.05
296,-45.48
308,-45.71
320,-43.33
332,-38.37
344,-31.32
356,-23.05
368,-14.52
380,-6.58
392,0.24
404,5.7
416,9.82
428,12.74
440,14.62
451,15.66
462,16.1
474,16.18
486,16.15
498,16.18
510,16.32
522,16.55
534,16.81
546,17.08
558,17.42
570,17.85
582,18.35
594,18.81
606,19.04
618,18.82
630,18.06
641,16.75
652,14.99
664,12.95
676,10.79
688,8.59
700,6.37
712,4.08
724,1.69
736,-0.85
748,-3.54
760,-6.32
772,-9.11
784,-11.87
796,-14.56
808,-17.25
820,-20.06
831,-23.22
842,-26.93
854,-31.34
866,-36.33
878,-41.47
890,-45.96
902,-48.85
914,-49.28
926,-46.78
938,-41.42
950,-33.82
962,-24.94
974,-15.71
986,-6.93
998,0.94
1010,7.66
1021,13.14
1032,17.32
1044,20.22
1056,21.93
1068,22.66
1080,22.71
1092,22.42
1104,22.09
1116,21.89
1128,21.86
1140,21.97
1152,22.15
1164,22.37
1176,22.65
1188,23.05
1200,23.6
1211,24.22
1222,24.68
1234,24.71
1246,24.06
1258,22.64
1270,20.54
1282,18.03
1294,15.42
1306,12.93
1318,10.63
1330,8.39
1342,6.04
1354,3.46
1366,0.65
1378,-2.25
1390,-5.1
1401,-7.79
1412,-10.33
1424,-12.87
1436,-15.63
1448,-18.86
1460,-22.79
1472,-27.5
1484,-32.81
1496,-38.24
1508,-42.91
1520,-45.82
1532,-46.06
1544,-43.19
1556,-37.39
1568,-29.4
1580,-20.3
1591,-11.14
1602,-2.64
1614,4.81
1626,11.11
1638,16.28
1650,20.32
1662,23.19
1674,24.92
1686,25.64
1698,25.65
1710,25.35
1722,25.1
1734,25.12
1746,25.4
1758,25.8
1770,26.07
1781,26.11
1792,25.96
1804,25.77
1816,25.72
1828,25.84
1840,25.98
1852,25.82
1864,25.03
1876,23.43
1888,21.05
1900,18.16
1912,15.08
1924,12.08
1936,9.3
1948,6.68
1960,4.11
1971,1.46
1982,-1.32
1994,-4.25
2006,-7.27
2018,-10.33
2030,-13.4
2042,-16.43
2054,-19.43
2066,-22.49
2078,-25.81
2090,-29.68
2102,-34.29
2114,-39.53
2126,-44.86
2138,-49.34
2150,-51.86
2161,-51.51
2172,-47.94
2184,-41.45
2196,-32.94
2208,-23.54
2220,-14.31
2232,-5.98
2244,1.16
2256,7.07
2268,11.92
2280,15.84
2292,18.86
2304,20.95
2316,22.07
2328,22.27
2340,21.8
2351,21.02
2362,20.36
2374,20.16
2386,20.54
2398,21.35
2410,22.32
2422,23.13
2434,23.64
2446,23.81
2458,23.73
2470,23.42
2482,22.78
2494,21.6
2506,19.72
2518,17.18
2530,14.26
2541,11.41
2552,8.96
2564,7.06
2576,5.47
2588,3.81
2600,1.71
2612,-1.01
2624,-4.2
2636,-7.56
2648,-10.74
2660,-13.55
2672,-15.99
2684,-18.23
2696,-20.54
2708,-23.19
2720,-26.45
2731,-30.49
2742,-35.31
2754,-40.55
2766,-45.5
2778,-49.12
2790,-50.38
2802,-48.52
2814,-43.43
2826,-35.62
2838,-26.14
2850,-16.2
2862,-6.81
2874,1.34
2886,7.99
2898,13.13
2910,16.85
2921,19.29
2932,20.6
2944,20.98
2956,20.75
2968,20.27
2980,19.87
2992,19.8
3004,20.12
3016,20.78
3028,21.63
3040,22.51
3052,23.32
3064,24.05
3076,24.68
3088,25.17
3100,25.44
3111,25.36
3122,24.81
3134,23.69
3146,21.98
3158,19.76
3170,17.21
3182,14.52
3194,11.85
3206,9.26
3218,6.7
3230,4.02
3242,1.14
3254,-1.96
3266,-5.14
3278,-8.18
3290,-10.88
3301,-13.14
3312,-15.11
3324,-17.1
3336,-19.52
3348,-22.74
3360,-26.89
3372,-31.86
3384,-37.13
3396,-41.93
3408,-45.35
3420,-46.55
3432,-45.08
3444,-40.95
3456,-34.66
3468,-27.06
3480,-19.05
3491,-11.35
3502,-4.41
3514,1.61
3526,6.6
3538,10.47
3550,13.1
3562,14.41
3574,14.46
3586,13.54
3598,12.06
3610,10.49
3622,9.15
3634,8.19
3646,7.52
3658,6.91
3670,6.13
3681,5.06
3692,3.68
3704,2.12
3716,0.56
3728,-0.92
3740,-2.3
3752,-3.72
3764,-5.37
3776,-7.42
3788,-9.95
3800,-12.88
3812,-16.03
3824,-19.05
3836,-21.49
3848,-22.72
3860,-22.02
3871,-18.67
3882,-12.26
3894,-3.0
3906,8.25
3918,20.05
3930,30.79
3942,39.13
3954,44.27
3966,45.97
3978,44.38
3990,39.87
4002,32.98
4014,24.55
4026,15.81
4038,8.28
4050,3.37
4061,1.94
4072,3.88
4084,8.2
4096,13.38
4108,17.95
4120,20.93
4132,22.0
4144,21.34
4156,19.35
4168,16.38
4180,12.71
4192,8.59
4204,4.33
4216,0.46
4228,-2.47
4240,-3.88
4251,-3.42
4262,-1.06
4274,2.87
4286,7.79
4298,13.03
4310,18.08
4322,22.69
4334,26.84
4346,30.57
4358,33.8
4370,36.26
4382,37.6
4394,37.64
4406,36.52
4418,34.69
4430,32.69
4441,30.87
4452,29.17
4464,27.25
4476,24.74
4488,21.46
4500,17.59
4512,13.52
4524,9.61
4536,6.01
4548,2.62
4560,-0.79
4572,-4.39
4584,-8.26
4596,-12.39
4608,-16.8
4620,-21.56
4631,-26.7
4642,-32.03
4654,-36.98
4666,-40.63
4678,-41.98
4690,-40.28
4702,-35.38
4714,-27.81
4726,-18.66
4738,-9.14
4750,-0.28
4762,7.39
4774,13.81
4786,19.22
4798,23.88
4810,27.91
4821,31.3
4832,33.92
4844,35.76
4856,37.01
4868,38.05
4880,39.31
4892,41.07
4904,43.36
4916,45.88
4928,48.13
4940,49.55
4952,49.76
4964,48.61
4976,46.14
4988,42.48
5000,37.72
5011,31.96
5022,25.27
5034,17.84
5046,9.93
5058,1.76
5070,-6.55
5082,-15.13
5094,-24.28
5106,-34.28
5118,-45.22
5130,-56.91
5142,-68.88
5154,-80.61
5166,-91.67
5178,-101.85
5190,-111.15
5201,-119.61
5212,-127.07
5224,-133.02
5236,-136.57
5248,-136.66
5260,-132.37
5272,-123.39
5284,-110.18
5296,-93.95
5308,-76.28
5320,-58.69
5332,-42.26
5344,-27.57
5356,-14.88
5368,-4.34
5380,3.84
5391,9.51
5402,12.74
5414,14.03
5426,14.21
5438,14.22
5450,14.79
5462,16.23
5474,18.36
5486,20.71
5498,22.78
5510,24.19
5522,24.82
5534,24.76
5546,24.18
5558,23.28
5570,22.23
5581,21.02
5592,19.59
5604,17.8
5616,15.55
5628,12.87
5640,9.89
5652,6.88
5664,4.04
5676,1.45
5688,-1.0
5700,-3.54
5712,-6.42
5724,-9.8
5736,-13.72
5748,-18.14
5760,-23.02
5771,-28.31
5782,-33.86
5794,-39.35
5806,-44.15
5818,-47.41
5830,-48.25
5842,-46.08
5854,-40.85
5866,-33.13
5878,-23.92
5890,-14.35
5902,-5.36
5914,2.53
5926,9.18
5938,14.67
5950,19.11
5961,22.45
5972,24.58
5984,25.44
5996,25.2
6008,24.28
6020,23.22
6032,22.46
6044,22.2
6056,22.32
6068,22.56
6080,22.62
6092,22.39
6104,21.91
6116,21.29
6128,20.65
6140,20.0
6151,19.25
6162,18.31
6174,17.05
6186,15.46
6198,13.49
6210,11.19
6222,8.6
6234,5.77
6246,2.78
6258,-0.29
6270,-3.37
6282,-6.42
6294,-9.47
6306,-12.53
6318,-15.63
6330,-18.85
6341,-22.32
6352,-26.22
6364,-30.72
6376,-35.77
6388,-40.94
6400,-45.43
6412,-48.21
6424,-48.32
6436,-45.2
6448,-38.97
6460,-30.36
6472,-20.53
6484,-10.67
6496,-1.68
6508,6.0
6520,12.37
6531,17.64
6542,22.05
6554,25.67
6566,28.47
6578,30.38
6590,31.47
6602,31.9
6614,31.95
6626,31.85
6638,31.73
6650,31.61
6662,31.47
6674,31.31
6686,31.13
6698,30.93
6710,30.69
6721,30.32
6732,29.72
6744,28.8
6756,27.52
6768,25.86
6780,23.86
6792,21.53
6804,18.93
6816,16.14
6828,13.21
6840,10.2
6852,7.16
6864,4.14
6876,1.13
6888,-1.9
6900,-5.07
6911,-8.59
6922,-12.66
6934,-17.48
6946,-23.0
6958,-28.92
6970,-34.56
6982,-39.04
6994,-41.4
7006,-40.93
7018,-37.37
7030,-31.06
7042,-22.82
7054,-13.72
7066,-4.75
7078,3.39
7090,10.42
7101,16.28
7112,21.04
7124,24.64
7136,26.98
7148,28.0
7160,27.82
7172,26.81
7184,25.49
7196,24.38
7208,23.82
7220,23.87
7232,24.32
7244,24.9
7256,25.34
7268,25.52
7280,25.42
7291,25.13
7302,24.71
7314,24.14
7326,23.27
7338,21.88
7350,19.8
7362,16.97
7374,13.58
7386,9.95
7398,6.52
7410,3.56
7422,1.1
7434,-1.11
7446,-3.46
7458,-6.32
7470,-9.89
7481,-14.15
7492,-18.91
7504,-23.84
7516,-28.47
7528,-32.25
7540,-34.52
7552,-34.7
7564,-32.45
7576,-27.85
7588,-21.38
7600,-13.78
7612,-5.87
7624,1.72
7636,8.56
7648,14.41
7660,19.07
7671,22.4
7682,24.25
7694,24.66
7706,23.82
7718,22.14
7730,20.1
7742,18.14
7754,16.54
7766,15.42
7778,14.79
7790,14.55
7802,14.61
7814,14.85
7826,15.14
7838,15.32
7850,15.21
7861,14.64
7872,13.53
7884,11.89
7896,9.84
7908,7.53
7920,5.07
7932,2.53
7944,-0.08
7956,-2.74
7968,-5.47
7980,-8.33
7992,-11.46
8004,-15.09
8016,-19.35
8028,-24.14
8040,-28.97
8051,-33.0
8062,-35.28
8074,-35.03
8086,-31.97
8098,-26.34
8110,-18.85
8122,-10.41
8134,-1.87
8146,6.11
8158,13.07
8170,18.71
8182,22.87
8194,25.45
8206,26.47
8218,26.14
8230,24.85
8241,23.07
8252,21.26
8264,19.75
8276,18.64
8288,17.85
8300,17.19
8312,16.52
8324,15.83
8336,15.2
8348,14.67
8360,14.14
8372,13.32
8384,11.91
8396,9.67
8408,6.61
8420,3.0
8431,-0.76
8442,-4.3
8454,-7.42
8466,-10.17
8478,-12.83
8490,-15.76
8502,-19.36
8514,-23.87
8526,-29.25
8538,-35.11
8550,-40.62
8562,-44.73
8574,-46.34
8586,-44.75
8598,-39.84
8610,-32.19
8621,-22.84
8632,-12.95
8644,-3.52
8656,4.84
8668,11.92
8680,17.7
8692,22.28
8704,25.72
8716,28.1
8728,29.48
8740,30.05
8752,30.03
8764,29.61
8776,28.94
8788,28.06
8800,26.92
8811,25.51
8822,23.85
8834,22.13
8846,20.53
8858,19.24
8870,18.32
8882,17.6
8894,16.77
8906,15.45
8918,13.38
8930,10.5
8942,6.98
8954,3.13
8966,-0.73
8978,-4.41
8990,-7.91
9001,-11.42
9012,-15.21
9024,-19.59
9036,-24.73
9048,-30.53
9060,-36.56
9072,-41.98
9084,-45.77
9096,-46.96
9108,-44.99
9120,-39.95
9132,-32.53
9144,-23.79
9156,-14.83
9168,-6.4
9180,1.11
9191,7.62
9202,13.19
9214,17.81
9226,21.39
9238,23.87
9250,25.26
9262,25.7
9274,25.44
9286,24.72
9298,23.73
9310,22.55
9322,21.25
9334,19.88
9346,18.53
9358,17.34
9370,16.4
9381,15.71
9392,15.15
9404,14.45
9416,13.33
9428,11.56
9440,9.08
9452,6.03
9464,2.71
9476,-0.62
9488,-3.79
9500,-6.84
9512,-9.99
9524,-13.56
9536,-17.84
9548,-22.91
9560,-28.56
9571,-34.23
9582,-39.05
9594,-42.1
9606,-42.58
9618,-40.11
9630,-34.85
9642,-27.44
9654,-18.85
9666,-10.06
9678,-1.89
9690,5.19
9702,11.0
9714,15.55
9726,19.0
9738,21.48
9750,23.14
9761,24.08
9772,24.39
9784,24.18
9796,23.53
9808,22.6
9820,21.57
9832,20.59
9844,19.74
9856,18.99
9868,18.2
9880,17.18
9892,15.84
9904,14.15
9916,12.19
9928,10.07
9940,7.86
9951,5.61
9962,3.37
9974,1.29
9986,-0.48
9998,-1.84
10010,-2.98
10022,-4.38
10034,-6.71
10046,-10.53
10058,-15.93
10070,-22.36
10082,-28.6
10094,-33.24
10106,-35.08
10118,-33.58
10130,-28.99
10141,-22.17
10152,-14.24
10164,-6.26
10176,1.06
10188,7.34
10200,12.5
10212,16.55
10224,19.56
10236,21.6
10248,22.73
10260,23.02
10272,22.57
10284,21.48
10296,19.84
10308,17.75
10320,15.33
10331,12.75
10342,10.18
10354,7.77
10366,5.6
10378,3.66
10390,1.81
10402,-0.19
10414,-2.6
10426,-5.62
10438,-9.27
10450,-13.35
10462,-17.54
10474,-21.49
10486,-24.92
10498,-27.81
10510,-30.36
10521,-32.92
10532,-35.86
10544,-39.31
10556,-43.06
10568,-46.52
10580,-48.88
10592,-49.31
10604,-47.24
10616,-42.5
10628,-35.4
10640,-26.61
10652,-16.99
10664,-7.4
10676,1.42
10688,8.97
10700,15.03
10711,19.6
10722,22.87
10734,25.14
10746,26.65
10758,27.52
10770,27.68
10782,27.03
10794,25.55
10806,23.43
10818,21.06
10830,18.88
10842,17.27
10854,16.39
10866,16.19
10878,16.44
10890,16.84
10901,17.04
10912,16.8
10924,15.9
10936,14.26
10948,11.98
10960,9.28
10972,6.47
10984,3.77
10996,1.23
11008,-1.33
11020,-4.2
11032,-7.7
11044,-11.92
11056,-16.72
11068,-21.63
11080,-25.95
11091,-28.86
11102,-29.67
11114,-28.0
11126,-23.88
11138,-17.84
11150,-10.66
11162,-3.15
11174,4.03
11186,10.53
11198,16.2
11210,21.05
11222,25.07
11234,28.26
11246,30.57
11258,32.04
11270,32.77
11281,32.86
11292,32.36
11304,31.25
11316,29.49
11328,27.2
11340,24.67
11352,22.37
11364,20.77
11376,20.13
11388,20.39
11400,21.12
11412,21.78
11424,21.85
11436,21.1
11448,19.58
11460,17.53
11471,15.24
11482,12.87
11494,10.47
11506,7.95
11518,5.19
11530,2.08
11542,-1.51
11554,-5.61
11566,-10.13
11578,-14.74
11590,-18.87
11602,-21.72
11614,-22.62
11626,-21.18
11638,-17.55
11650,-12.38
11661,-6.6
11672,-1.13
11684,3.46
11696,6.98
11708,9.59
11720,11.49
11732,12.78
11744,13.35
11756,13.03
11768,11.74
11780,9.66
11792,7.22
11804,4.91
11816,3.1
11828,1.88
11840,1.11
11851,0.6
11862,0.16
11874,-0.19
11886,-0.37
11898,-0.32
11910,-0.16
11922,-0.17
11934,-0.72
11946,-2.02
11958,-4.09
11970,-6.73
11982,-9.58
11994,-12.35
12006,-14.87
12018,-17.18
12030,-19.49
12041,-22.08
12052,-25.17
12064,-28.77
12076,-32.64
12088,-36.26
12100,-38.92
12112,-39.95
12124,-38.89
12136,-35.69
12148,-30.69
12160,-24.57
12172,-18.09
12184,-11.89
12196,-6.38
12208,-1.7
12220,2.16
12231,5.26
12242,7.64
12254,9.29
12266,10.2
12278,10.44
12290,10.18
12302,9.65
12314,9.06
12326,8.55
12338,8.11
12350,7.63
12362,7.01
12374,6.25
12386,5.47
12398,4.86
12410,4.54
12421,4.49
12432,4.53
12444,4.37
12456,3.76
12468,2.57
12480,0.85
12492,-1.24
12504,-3.45
12516,-5.59
12528,-7.5
12540,-9.14
12552,-10.6
12564,-12.03
12576,-13.65
12588,-15.66
12600,-18.21
12611,-21.31
12622,-24.75
12634,-28.07
12646,-30.66
12658,-31.83
12670,-31.06
12682,-28.19
12694,-23.47
12706,-17.58
12718,-11.34
12730,-5.5
12742,-0.53
12754,3.44
12766,6.57
12778,9.09
12790,11.13
12801,12.68
12812,13.63
12824,13.87
12836,13.42
12848,12.44
12860,11.19
12872,9.97
12884,9.01
12896,8.42
12908,8.22
12920,8.3
12932,8.49
12944,8.62
12956,8.55
12968,8.2
12980,7.57
12991,6.7
13002,5.6
13014,4.29
13026,2.73
13038,0.9
13050,-1.15
13062,-3.29
13074,-5.4
13086,-7.33
13098,-9.07
13110,-10.63
13122,-12.11
13134,-13.58
13146,-15.14
13158,-16.88
13170,-18.88
13181,-21.25
13192,-23.97
13204,-26.88
13216,-29.58
13228,-31.47
13240,-31.96
13252,-30.59
13264,-27.27
13276,-22.33
13288,-16.39
13300,-10.18
13312,-4.32
13324,0.87
13336,5.3
13348,9.07
13360,12.25
13371,14.76
13382,16.48
13394,17.27
13406,17.15
13418,16.38
13430,15.33
13442,14.43
13454,13.9
13466,13.76
13478,13.82
13490,13.87
13502,13.75
13514,13.44
13526,13.01
13538,12.53
13550,11.98
13561,11.28
13572,10.35
13584,9.16
13596,7.83
13608,6.49
13620,5.26
13632,4.15
13644,3.03
13656,1.78
13668,0.29
13680,-1.42
13692,-3.23
13704,-4.99
13716,-6.56
13728,-7.89
13740,-9.0
13751,-10.07
13762,-11.29
13774,-12.9
13786,-15.08
13798,-17.85
13810,-21.01
13822,-24.06
13834,-26.35
13846,-27.18
13858,-26.06
13870,-22.9
13882,-18.04
13894,-12.14
13906,-6.0
13918,-0.34
13930,4.38
13941,7.93
13952,10.32
13964,11.65
13976,12.09
13988,11.87
14000,11.23
14012,10.35
14024,9.42
14036,8.53
14048,7.75
14060,7.08
14072,6.55
14084,6.17
14096,5.94
14108,5.85
14120,5.84
14131,5.86
14142,5.83
14154,5.69
14166,5.35
14178,4.73
14190,3.83
14202,2.71
14214,1.52
14226,0.37
14238,-0.68
14250,-1.72
14262,-2.9
14274,-4.34
14286,-6.06
14298,-7.94
14310,-9.82
14321,-11.57
14332,-13.13
14344,-14.57
14356,-15.99
14368,-17.58
14380,-19.46
14392,-21.74
14404,-24.4
14416,-27.23
14428,-29.81
14440,-31.47
14452,-31.52
14464,-29.5
14476,-25.33
14488,-19.46
14500,-12.67
14511,-5.88
14522,0.15
14534,5.01
14546,8.62
14558,11.13
14570,12.75
14582,13.6
14594,13.73
14606,13.16
14618,12.02
14630,10.55
14642,9.08
14654,7.89
14666,7.09
14678,6.64
14690,6.4
14701,6.25
14712,6.14
14724,6.07
14736,6.07
14748,6.08
14760,5.97
14772,5.62
14784,4.95
14796,3.98
14808,2.84
14820,1.68
14832,0.59
14844,-0.39
14856,-1.32
14868,-2.31
14880,-3.45
14891,-4.87
14902,-6.61
14914,-8.65
14926,-10.79
14938,-12.8
14950,-14.44
14962,-15.65
14974,-16.6
14986,-17.64
14998,-19.22
15010,-21.61
15022,-24.78
15034,-28.32
15046,-31.51
15058,-33.54
15070,-33.73
15081,-31.71
15092,-27.58
15104,-21.82
15116,-15.19
15128,-8.51
15140,-2.43
15152,2.66
15164,6.64
15176,9.59
15188,11.66
15200,12.93
15212,13.47
15224,13.36
15236,12.74
15248,11.83
15260,10.86
15271,10.04
15282,9.46
15294,9.18
15306,9.14
15318,9.31
15330,9.66
15342,10.16
15354,10.81
15366,11.57
15378,12.31
15390,12.87
15402,13.04
15414,12.7
15426,11.86
15438,10.7
15450,9.52
15461,8.55
15472,7.9
15484,7.43
15496,6.88
15508,5.98
15520,4.64
15532,2.97
15544,1.21
15556,-0.39
15568,-1.72
15580,-2.81
15592,-3.86
15604,-5.12
15616,-6.82
15628,-9.15
15640,-12.16
15651,-15.77
15662,-19.67
15674,-23.31
15686,-25.97
15698,-26.95
15710,-25.79
15722,-22.45
15734,-17.42
15746,-11.52
15758,-5.73
15770,-0.82
15782,2.77
15794,4.94
15806,5.83
15818,5.59
15830,4.38
15841,2.33
15852,-0.35
15864,-3.29
15876,-6.07
15888,-8.29
15900,-9.76
15912,-10.51
15924,-10.75
15936,-10.74
15948,-10.67
15960,-10.63
15972,-10.6
15984,-10.58
15996,-10.6
16008,-10.74
16020,-11.09
16031,-11.69
16042,-12.54
16054,-13.6
16066,-14.83
16078,-16.19
16090,-17.64
16102,-19.14
16114,-20.68
16126,-22.29
16138,-24.02
16150,-25.91
16162,-27.97
16174,-30.06
16186,-32.01
16198,-33.69
16210,-35.1
16221,-36.42
16232,-38.01
16244,-40.2
16256,-43.21
16268,-46.94
16280,-51.02
16292,-54.89
16304,-57.84
16316,-59.25
16328,-58.7
16340,-56.03
16352,-51.43
16364,-45.39
16376,-38.57
16388,-31.68
16400,-25.26
16411,-19.62
16422,-14.79
16434,-10.67
16446,-7.1
16458,-3.96
16470,-1.15
16482,1.45
16494,3.99
16506,6.68
16518,9.69
16530,13.09
16542,16.77
16554,20.52
16566,24.06
16578,27.2
16590,29.85
16601,32.05
16612,33.92
16624,35.48
16636,36.7
16648,37.43
16660,37.57
16672,37.08
16684,36.09
16696,34.8
16708,33.36
16720,31.81
16732,29.98
16744,27.65
16756,24.66
16768,21.02
16780,16.99
16791,12.88
16802,8.99
16814,5.43
16826,2.12
16838,-1.23
16850,-4.95
16862,-9.34
16874,-14.55
16886,-20.46
16898,-26.64
16910,-32.31
16922,-36.51
16934,-38.29
16946,-37.09
16958,-32.85
16970,-26.13
16981,-17.9
16992,-9.26
17004,-1.13
17016,5.9
17028,11.55
17040,15.79
17052,18.67
17064,20.26
17076,20.74
17088,20.39
17100,19.6
17112,18.81
17124,18.37
17136,18.4
17148,18.87
17160,19.64
17171,20.6
17182,21.7
17194,22.94
17206,24.29
17218,25.58
17230,26.56
17242,26.93
17254,26.47
17266,25.18
17278,23.27
17290,21.04
17302,18.79
17314,16.63
17326,14.48
17338,12.16
17350,9.51
17361,6.51
17372,3.3
17384,0.09
17396,-2.96
17408,-5.81
17420,-8.61
17432,-11.57
17444,-14.95
17456,-18.91
17468,-23.55
17480,-28.78
17492,-34.24
17504,-39.21
17516,-42.73
17528,-43.79
17540,-41.7
17551,-36.33
17562,-28.26
17574,-18.57
17586,-8.51
17598,0.84
17610,8.82
17622,15.19
17634,20.03
17646,23.5
17658,25.74
17670,26.85
17682,26.95
17694,26.26
17706,25.18
17718,24.18
17730,23.72
17741,24.05
17752,25.16
17764,26.79
17776,28.49
17788,29.86
17800,30.66
17812,30.82
17824,30.44
17836,29.65
17848,28.56
17860,27.2
17872,25.56
17884,23.59
17896,21.29
17908,18.76
17920,16.12
17931,13.55
17942,11.14
17954,8.91
17966,6.78
17978,4.59
17990,2.25
18002,-0.23
18014,-2.77
18026,-5.31
18038,-7.93
18050,-10.82
18062,-14.27
18074,-18.32
18086,-22.59
18098,-26.19
18110,-27.91
18121,-26.64
18132,-21.83
18144,-13.64
18156,-3.0
18168,8.79
18180,20.43
18192,30.94
18204,39.74
18216,46.6
18228,51.44
18240,54.26
18252,55.12
18264,54.26
18276,52.1
18288,49.25
18300,46.33
18311,43.81
18322,41.87
18334,40.42
18346,39.19
18358,37.91
18370,36.39
18382,34.54
18394,32.36
18406,29.86
18418,27.1
18430,24.15
18442,21.09
18454,18.06
18466,15.17
18478,12.47
18490,9.94
18501,7.5
18512,5.05
18524,2.53
18536,-0.08
18548,-2.8
18560,-5.58
18572,-8.39
18584,-11.22
18596,-14.13
18608,-17.22
18620,-20.68
18632,-24.7
18644,-29.36
18656,-34.49
18668,-39.58
18680,-43.78
18691,-46.11
18702,-45.73
18714,-42.21
18726,-35.77
18738,-27.17
18750,-17.44
18762,-7.65
18774,1.42
18786,9.27
18798,15.69
18810,20.58
18822,23.89
18834,25.64
18846,25.93
18858,25.06
18870,23.44
18881,21.56
18892,19.84
18904,18.55
18916,17.81
18928,17.54
18940,17.61
18952,17.76
18964,17.82
18976,17.62
18988,17.12
19000,16.3
19012,15.15
19024,13.64
19036,11.69
19048,9.24
19060,6.25
19071,2.79
19082,-0.94
19094,-4.63
19106,-7.96
19118,-10.73
19130,-12.94
19142,-14.81
19154,-16.69
19166,-18.95
19178,-21.86
19190,-25.55
19202,-29.98
19214,-34.88
19226,-39.79
19238,-43.96
19250,-46.52
19261,-46.61
19272,-43.71
19284,-37.8
19296,-29.49
19308,-19.82
19320,-9.95
19332,-0.85
19344,6.92
19356,13.18
19368,17.94
19380,21.28
19392,23.24
19404,23.92
19416,23.54
19428,22.54
19440,21.47
19451,20.85
19462,20.98
19474,21.82
19486,23.01
19498,24.06
19510,24.58
19522,24.44
19534,23.75
19546,22.77
19558,21.71
19570,20.61
19582,19.32
19594,17.56
19606,15.1
19618,11.9
19630,8.13
19641,4.13
19652,0.22
19664,-3.39
19676,-6.74
19688,-10.01
19700,-13.49
19712,-17.46
19724,-22.06
19736,-27.34
19748,-33.14
19760,-39.0
19772,-44.19
19784,-47.76
19796,-48.78
19808,-46.7
19820,-41.5
19831,-33.79
19842,-24.62
19854,-15.08
19866,-6.04
19878,1.99
19890,8.86
19902,14.58
19914,19.16
19926,22.55
19938,24.7
19950,25.6
19962,25.44
19974,24.5
19986,23.22
19998,21.99
20010,21.12
20021,20.72
20032,20.66
20044,20.65
20056,20.33
20068,19.45
20080,17.92
20092,15.86
20104,13.44
20116,10.83
20128,8.03
20140,4.92
20152,1.37
20164,-2.69
20176,-7.2
20188,-11.99
20200,-16.88
20211,-21.7
20222,-26.32
20234,-30.61
20246,-34.4
20258,-37.58
20270,-40.18
20282,-42.38
20294,-44.53
20306,-46.95
20318,-49.77
20330,-52.72
20342,-55.14
20354,-56.1
20366,-54.67
20378,-50.24
20390,-42.69
20401,-32.48
20412,-20.55
20424,-8.01
20436,4.05
20448,14.89
20460,24.14
20472,31.79
20484,38.02
20496,43.07
20508,47.05
20520,50.0
20532,51.96
20544,53.04
20556,53.47
20568,53.51
20580,53.44
20591,53.38
20602,53.34
20614,53.21
20626,52.91
20638,52.43
20650,51.85
20662,51.26
20674,50.63
20686,49.82
20698,48.56
20710,46.66
20722,44.07
20734,40.98
20746,37.72
20758,34.65
20770,31.91
20781,29.44
20792,26.97
20804,24.17
20816,20.84
20828,16.98
20840,12.82
20852,8.67
20864,4.8
20876,1.28
20888,-2.05
20900,-5.58
20912,-9.78
20924,-15.05
20936,-21.53
20948,-28.9
20960,-36.4
20971,-42.91
20982,-47.28
20994,-48.6
