seconds,BVP
9,-61.62
21,-58.32
33,-52.8
45,-45.53
57,-37.26
69,-28.85
81,-21.06
93,-14.43
105,-9.25
117,-5.6
129,-3.43
141,-2.63
152,-3.04
163,-4.56
175,-7.12
187,-10.78
199,-15.73
211,-22.26
223,-30.62
235,-40.77
247,-52.11
259,-63.29
271,-72.35
283,-77.14
295,-76.0
307,-68.23
319,-54.39
331,-36.02
342,-15.24
353,5.94
365,25.89
377,43.57
389,58.38
401,70.04
413,78.46
425,83.74
437,86.28
449,86.73
461,85.94
473,84.72
485,83.67
497,82.98
509,82.51
521,81.88
532,80.75
543,78.94
555,76.54
567,73.78
579,70.87
591,67.81
603,64.37
615,60.23
627,55.15
639,49.09
651,42.32
663,35.22
675,28.15
687,21.23
699,14.34
711,7.13
722,-0.79
733,-9.66
745,-19.41
757,-29.56
769,-39.25
781,-47.41
793,-53.0
805,-55.28
817,-54.01
829,-49.49
841,-42.46
853,-33.88
865,-24.72
877,-15.86
889,-8.02
901,-1.78
912,2.44
923,4.4
935,4.13
947,1.93
959,-1.59
971,-5.7
983,-9.61
995,-12.69
1007,-14.56
1019,-15.05
1031,-14.16
1043,-11.93
1055,-8.42
1067,-3.77
1079,1.73
1091,7.57
1102,13.07
1113,17.6
1125,20.79
1137,22.62
1149,23.43
1161,23.68
1173,23.69
1185,23.53
1197,22.96
1209,21.57
1221,18.86
1233,14.45
1245,8.33
1257,1.01
1269,-6.39
1281,-12.17
1292,-14.44
1303,-11.62
1315,-2.98
1327,11.06
1339,29.07
1351,48.9
1363,68.29
1375,85.28
1387,98.56
1399,107.47
1411,111.92
1423,112.25
1435,109.09
1447,103.3
1459,95.82
1471,87.61
1482,79.52
1493,72.18
1505,65.98
1517,61.02
1529,57.21
1541,54.36
1553,52.22
1565,50.63
1577,49.44
1589,48.54
1601,47.69
1613,46.49
1625,44.42
1637,40.92
1649,35.67
1661,28.69
1672,20.49
1683,11.88
1695,3.72
1707,-3.44
1719,-9.56
1731,-15.06
1743,-20.63
1755,-26.97
1767,-34.43
1779,-42.77
1791,-51.14
1803,-58.13
1815,-62.05
1827,-61.35
1839,-55.21
1851,-43.73
1862,-28.11
1873,-10.24
1885,7.77
1897,24.1
1909,37.57
1921,47.66
1933,54.36
1945,57.87
1957,58.56
1969,56.82
1981,53.19
1993,48.33
2005,42.96
2017,37.73
2029,33.11
2041,29.36
2052,26.49
2063,24.36
2075,22.8
2087,21.64
2099,20.76
2111,20.11
2123,19.62
2135,19.14
2147,18.42
2159,17.15
2171,14.96
2183,11.6
2195,7.04
2207,1.54
2219,-4.47
2231,-10.46
2242,-16.07
2253,-21.26
2265,-26.27
2277,-31.6
2289,-37.74
2301,-44.96
2313,-53.05
2325,-61.23
2337,-68.15
2349,-72.22
2361,-71.97
2373,-66.55
2385,-56.13
2397,-41.88
2409,-25.75
2421,-9.85
2432,4.03
2443,14.89
2455,22.48
2467,27.05
2479,29.08
2491,28.93
2503,26.87
2515,23.16
2527,18.26
2539,12.87
2551,7.85
2563,4.03
2575,1.93
2587,1.67
2599,2.91
2611,5.09
2622,7.6
2633,9.96
2645,11.94
2657,13.43
2669,14.4
2681,14.78
2693,14.34
2705,12.86
2717,10.2
2729,6.38
2741,1.72
2753,-3.3
2765,-8.11
2777,-12.27
2789,-15.57
2801,-18.08
2812,-20.07
2823,-21.97
2835,-24.18
2847,-26.98
2859,-30.46
2871,-34.34
2883,-37.98
2895,-40.36
2907,-40.28
2919,-36.61
2931,-28.69
2943,-16.59
2955,-1.23
2967,15.8
2979,32.63
2991,47.57
3002,59.49
3013,67.87
3025,72.78
3037,74.53
3049,73.57
3061,70.34
3073,65.34
3085,59.15
3097,52.45
3109,45.97
3121,40.26
3133,35.61
3145,31.97
3157,29.13
3169,26.76
3181,24.61
3192,22.56
3203,20.59
3215,18.75
3227,17.04
3239,15.37
3251,13.6
3263,11.51
3275,8.87
3287,5.61
3299,1.78
3311,-2.41
3323,-6.63
3335,-10.59
3347,-14.1
3359,-17.2
3371,-20.13
3382,-23.26
3393,-26.99
3405,-31.62
3417,-37.18
3429,-43.38
3441,-49.59
3453,-54.87
3465,-58.13
3477,-58.36
3489,-54.9
3501,-47.67
3513,-37.29
3525,-24.9
3537,-11.96
3549,0.13
3561,10.33
3572,18.1
3583,23.32
3595,26.09
3607,26.61
3619,25.05
3631,21.73
3643,17.14
3655,12.01
3667,7.16
3679,3.27
3691,0.7
3703,-0.64
3715,-1.08
3727,-1.09
3739,-0.96
3751,-0.79
3762,-0.48
3773,0.11
3785,1.05
3797,2.23
3809,3.28
3821,3.74
3833,3.08
3845,0.99
3857,-2.53
3869,-7.12
3881,-12.17
3893,-17.06
3905,-21.36
3917,-24.93
3929,-27.91
3941,-30.62
3952,-33.32
3963,-36.13
3975,-38.88
3987,-41.11
3999,-42.12
4011,-41.09
4023,-37.3
4035,-30.41
4047,-20.58
4059,-8.56
4071,4.5
4083,17.33
4095,28.8
4107,38.12
4119,44.91
4131,49.14
4142,50.91
4153,50.47
4165,48.16
4177,44.41
4189,39.81
4201,35.05
4213,30.82
4225,27.62
4237,25.66
4249,24.83
4261,24.81
4273,25.17
4285,25.61
4297,25.94
4309,26.13
4321,26.15
4332,25.92
4343,25.25
4355,23.83
4367,21.34
4379,17.58
4391,12.52
4403,6.43
4415,-0.22
4427,-6.9
4439,-13.14
4451,-18.72
4463,-23.71
4475,-28.38
4487,-33.14
4499,-38.32
4511,-44.11
4522,-50.38
4533,-56.64
4545,-62.05
4557,-65.55
4569,-66.05
4581,-62.79
4593,-55.61
4605,-45.05
4617,-32.29
4629,-18.83
4641,-6.14
4653,4.68
4665,13.02
4677,18.78
4689,22.12
4701,23.36
4712,22.81
4723,20.82
4735,17.84
4747,14.41
4759,11.05
4771,8.2
4783,6.07
4795,4.66
4807,3.85
4819,3.58
4831,3.86
4843,4.73
4855,6.13
4867,7.76
4879,9.15
4891,9.73
4902,9.11
4913,7.22
4925,4.49
4937,1.82
4949,0.44
4961,1.54
4973,5.89
4985,13.41
4997,22.94
5009,32.44
5021,39.44
5033,41.77
5045,38.15
5057,28.55
5069,14.17
5081,-2.86
5092,-19.98
5103,-34.57
5115,-44.44
5127,-48.11
5139,-45.13
5151,-36.16
5163,-22.87
5175,-7.54
5187,7.55
5199,20.59
5211,30.56
5223,37.33
5235,41.39
5247,43.53
5259,44.55
5271,45.0
5282,45.15
5293,44.94
5305,44.17
5317,42.56
5329,39.91
5341,36.15
5353,31.35
5365,25.77
5377,19.71
5389,13.57
5401,7.7
5413,2.36
5425,-2.4
5437,-6.75
5449,-11.05
5461,-15.78
5472,-21.36
5483,-27.95
5495,-35.42
5507,-43.28
5519,-50.7
5531,-56.71
5543,-60.35
5555,-60.94
5567,-58.41
5579,-53.41
5591,-47.27
5603,-41.62
5615,-37.85
5627,-36.54
5639,-37.15
5651,-38.19
5662,-37.81
5673,-34.53
5685,-27.81
5697,-18.18
5709,-6.89
5721,4.67
5733,15.42
5745,24.87
5757,32.86
5769,39.31
5781,43.96
5793,46.39
5805,46.22
5817,43.43
5829,38.53
5841,32.42
5852,26.17
5863,20.67
5875,16.37
5887,13.25
5899,10.96
5911,9.0
5923,6.97
5935,4.68
5947,2.17
5959,-0.39
5971,-2.81
5983,-4.96
5995,-6.77
6007,-8.25
6019,-9.37
6031,-10.05
6042,-10.24
6053,-10.03
6065,-9.71
6077,-9.81
6089,-11.02
6101,-14.04
6113,-19.37
6125,-27.18
6137,-37.11
6149,-48.29
6161,-59.36
6173,-68.64
6185,-74.47
6197,-75.59
6209,-71.46
6221,-62.47
6232,-49.85
6243,-35.35
6255,-20.79
6267,-7.67
6279,3.1
6291,11.17
6303,16.61
6315,19.68
6327,20.69
6339,19.98
6351,17.93
6363,15.01
6375,11.76
6387,8.68
6399,6.13
6411,4.23
6422,2.91
6433,2.06
6445,1.59
6457,1.46
6469,1.63
6481,1.94
6493,2.04
6505,1.52
6517,0.04
6529,-2.55
6541,-6.1
6553,-10.31
6565,-14.92
6577,-19.74
6589,-24.77
6601,-30.04
6612,-35.6
6623,-41.54
6635,-47.91
6647,-54.76
6659,-61.9
6671,-68.71
6683,-74.08
6695,-76.53
6707,-74.72
6719,-67.97
6731,-56.63
6743,-42.11
6755,-26.43
6767,-11.64
6779,0.76
6791,10.1
6802,16.44
6813,20.34
6825,22.42
6837,23.23
6849,23.09
6861,22.2
6873,20.66
6885,18.62
6897,16.33
6909,14.04
6921,12.06
6933,10.65
6945,9.96
6957,9.99
6969,10.55
6981,11.25
6992,11.53
7003,10.76
7015,8.45
7027,4.37
7039,-1.34
7051,-8.12
7063,-15.23
7075,-21.96
7087,-27.83
7099,-32.72
7111,-36.85
7123,-40.63
7135,-44.53
7147,-48.84
7159,-53.52
7171,-58.05
7182,-61.41
7193,-62.3
7205,-59.43
7217,-52.07
7229,-40.26
7241,-25.01
7253,-7.97
7265,8.93
7277,23.99
7289,36.05
7301,44.58
7313,49.62
7325,51.58
7337,51.06
7349,48.68
7361,45.06
7372,40.77
7383,36.3
7395,32.14
7407,28.68
7419,26.2
7431,24.81
7443,24.41
7455,24.71
7467,25.34
7479,25.87
7491,25.95
7503,25.37
7515,23.98
7527,21.72
7539,18.57
7551,14.56
7562,9.76
7573,4.35
7585,-1.42
7597,-7.3
7609,-13.11
7621,-18.86
7633,-24.81
7645,-31.29
7657,-38.52
7669,-46.29
7681,-53.79
7693,-59.64
7705,-62.23
7717,-60.16
7729,-52.79
7741,-40.46
7752,-24.47
7763,-6.72
7775,10.81
7787,26.49
7799,39.31
7811,48.85
7823,55.08
7835,58.17
7847,58.38
7859,56.06
7871,51.79
7883,46.38
7895,40.79
7907,35.9
7919,32.33
7931,30.21
7942,29.26
7953,28.94
7965,28.69
7977,28.12
7989,27.08
8001,25.6
8013,23.68
8025,21.29
8037,18.32
8049,14.7
8061,10.53
8073,6.02
8085,1.49
8097,-2.82
8109,-6.81
8121,-10.59
8132,-14.37
8143,-18.4
8155,-22.89
8167,-27.95
8179,-33.64
8191,-39.77
8203,-45.89
8215,-51.13
8227,-54.32
8239,-54.24
8251,-50.08
8263,-41.73
8275,-29.91
8287,-15.99
8299,-1.61
8311,11.75
8322,23.08
8333,31.83
8345,37.86
8357,41.23
8369,42.07
8381,40.58
8393,37.15
8405,32.38
8417,27.11
8429,22.2
8441,18.36
8453,15.93
8465,14.86
8477,14.79
8489,15.33
8501,16.16
8512,17.2
8523,18.42
8535,19.71
8547,20.72
8559,20.91
8571,19.81
8583,17.15
8595,13.13
8607,8.28
8619,3.29
8631,-1.27
8643,-5.18
8655,-8.58
8667,-11.93
8679,-15.84
8691,-20.81
8702,-27.05
8713,-34.25
8725,-41.53
8737,-47.51
8749,-50.6
8761,-49.53
8773,-43.76
8785,-33.74
8797,-20.78
8809,-6.68
8821,6.87
8833,18.66
8845,28.18
8857,35.38
8869,40.41
8881,43.36
8892,44.17
8903,42.76
8915,39.24
8927,34.04
8939,27.85
8951,21.46
8963,15.6
8975,10.7
8987,6.99
8999,4.49
9011,3.17
9023,2.97
9035,3.76
9047,5.22
9059,6.86
9071,8.02
9082,8.08
9093,6.63
9105,3.66
9117,-0.46
9129,-5.06
9141,-9.5
9153,-13.33
9165,-16.45
9177,-19.13
9189,-21.86
9201,-25.17
9213,-29.49
9225,-35.0
9237,-41.51
9249,-48.37
9261,-54.5
9272,-58.51
9283,-58.99
9295,-54.94
9307,-46.13
9319,-33.29
9331,-17.94
9343,-1.99
9355,12.78
9367,25.18
9379,34.73
9391,41.49
9403,45.77
9415,47.87
9427,47.94
9439,46.11
9451,42.65
9462,38.09
9473,33.18
9485,28.68
9497,25.12
9509,22.7
9521,21.2
9533,20.21
9545,19.35
9557,18.38
9569,17.29
9581,16.14
9593,14.98
9605,13.68
9617,11.99
9629,9.61
9641,6.37
9652,2.3
9663,-2.3
9675,-7.04
9687,-11.53
9699,-15.54
9711,-19.09
9723,-22.41
9735,-25.86
9747,-29.82
9759,-34.56
9771,-40.21
9783,-46.58
9795,-53.14
9807,-58.88
9819,-62.47
9831,-62.53
9842,-57.99
9853,-48.58
9865,-34.98
9877,-18.72
9889,-1.79
9901,13.93
9913,27.08
9925,37.03
9937,43.76
9949,47.58
9961,48.82
9973,47.77
9985,44.69
9997,40.04
10009,34.49
10021,28.93
10032,24.2
10043,20.89
10055,19.12
10067,18.67
10079,19.02
10091,19.66
10103,20.2
10115,20.46
10127,20.35
10139,19.84
10151,18.87
10163,17.4
10175,15.48
10187,13.21
10199,10.72
10211,8.08
10222,5.26
10233,2.15
10245,-1.36
10257,-5.3
10269,-9.61
10281,-14.07
10293,-18.47
10305,-22.63
10317,-26.45
10329,-29.89
10341,-33.04
10353,-36.11
10365,-39.44
10377,-43.48
10389,-48.59
10401,-54.78
10412,-61.45
10423,-67.35
10435,-70.8
10447,-70.14
10459,-64.34
10471,-53.38
10483,-38.31
10495,-21.0
10507,-3.57
10519,12.12
10531,24.86
10543,34.14
10555,40.05
10567,43.0
10579,43.49
10591,41.98
10602,38.85
10613,34.54
10625,29.59
10637,24.67
10649,20.43
10661,17.42
10673,15.87
10685,15.7
10697,16.61
10709,18.21
10721,20.13
10733,22.01
10745,23.51
10757,24.25
10769,23.92
10781,22.38
10792,19.74
10803,16.39
10815,12.77
10827,9.22
10839,5.83
10851,2.47
10863,-1.09
10875,-5.02
10887,-9.29
10899,-13.67
10911,-17.83
10923,-21.44
10935,-24.31
10947,-26.43
10959,-28.07
10971,-29.73
10982,-32.02
10993,-35.45
11005,-40.13
11017,-45.5
11029,-50.35
11041,-53.05
11053,-52.07
11065,-46.5
11077,-36.45
11089,-23.0
11101,-7.92
11113,6.9
11125,19.92
11137,30.23
11149,37.57
11161,42.06
11172,44.07
11183,43.95
11195,42.08
11207,38.86
11219,34.76
11231,30.34
11243,26.21
11255,22.9
11267,20.74
11279,19.82
11291,19.95
11303,20.71
11315,21.63
11327,22.26
11339,22.33
11351,21.73
11362,20.54
11373,18.85
11385,16.76
11397,14.3
11409,11.43
11421,8.08
11433,4.22
11445,-0.06
11457,-4.58
11469,-9.06
11481,-13.22
11493,-16.88
11505,-20.0
11517,-22.76
11529,-25.51
11541,-28.68
11552,-32.68
11563,-37.76
11575,-43.81
11587,-50.21
11599,-55.87
11611,-59.37
11623,-59.31
11635,-54.84
11647,-45.94
11659,-33.48
11671,-19.02
11683,-4.28
11695,9.24
11707,20.59
11719,29.39
11731,35.6
11742,39.4
11753,40.99
11765,40.56
11777,38.38
11789,34.83
11801,30.44
11813,25.83
11825,21.63
11837,18.39
11849,16.44
11861,15.85
11873,16.4
11885,17.66
11897,19.15
11909,20.38
11921,21.03
11932,20.92
11943,20.04
11955,18.5
11967,16.4
11979,13.81
11991,10.71
12003,7.03
12015,2.74
12027,-2.12
12039,-7.35
12051,-12.7
12063,-17.85
12075,-22.59
12087,-26.81
12099,-30.53
12111,-33.86
12122,-37.01
12133,-40.27
12145,-43.95
12157,-48.27
12169,-53.09
12181,-57.71
12193,-60.86
12205,-60.94
12217,-56.62
12229,-47.29
12241,-33.51
12253,-16.86
12265,0.46
12277,16.3
12289,29.13
12301,38.24
12312,43.7
12323,46.03
12335,45.89
12347,43.85
12359,40.39
12371,35.99
12383,31.19
12395,26.59
12407,22.74
12419,20.01
12431,18.46
12443,17.92
12455,18.02
12467,18.42
12479,18.87
12491,19.23
12502,19.43
12513,19.38
12525,18.98
12537,18.08
12549,16.53
12561,14.22
12573,11.07
12585,7.03
12597,2.1
12609,-3.59
12621,-9.75
12633,-15.91
12645,-21.55
12657,-26.22
12669,-29.72
12681,-32.25
12692,-34.29
12703,-36.5
12715,-39.48
12727,-43.57
12739,-48.76
12751,-54.59
12763,-60.21
12775,-64.44
12787,-66.02
12799,-63.83
12811,-57.29
12823,-46.59
12835,-32.7
12847,-17.22
12859,-1.92
12871,11.7
12882,22.71
12893,30.75
12905,35.93
12917,38.55
12929,38.94
12941,37.35
12953,34.08
12965,29.56
12977,24.4
12989,19.32
13001,14.99
13013,11.93
13025,10.33
13037,10.08
13049,10.85
13061,12.2
13072,13.78
13083,15.29
13095,16.55
13107,17.44
13119,17.84
13131,17.61
13143,16.6
13155,14.73
13167,12.01
13179,8.63
13191,4.9
13203,1.18
13215,-2.18
13227,-5.02
13239,-7.35
13251,-9.35
13262,-11.3
13273,-13.49
13285,-16.2
13297,-19.63
13309,-23.76
13321,-28.22
13333,-32.24
13345,-34.63
13357,-34.12
13369,-29.72
13381,-21.17
13393,-9.07
13405,5.16
13417,19.8
13429,33.29
13441,44.61
13452,53.39
13463,59.7
13475,63.79
13487,65.86
13499,66.03
13511,64.4
13523,61.34
13535,57.48
13547,53.72
13559,50.98
13571,49.92
13583,50.75
13595,53.24
13607,56.87
13619,61.15
13631,65.78
13642,70.73
13653,76.12
13665,81.98
13677,88.14
13689,94.3
13701,100.17
13713,105.63
13725,110.95
13737,116.66
13749,123.46
13761,131.96
13773,142.53
13785,155.18
13797,169.57
13809,185.0
13821,200.5
13832,214.82
13843,226.61
13855,234.59
13867,237.81
13879,235.85
13891,228.85
13903,217.45
13915,202.48
13927,184.72
13939,164.85
13951,143.31
13963,120.46
13975,96.53
13987,71.67
13999,45.9
14011,19.1
14022,-8.94
14033,-38.46
14045,-69.51
14057,-101.68
14069,-134.04
14081,-165.17
14093,-193.58
14105,-218.3
14117,-239.35
14129,-257.89
14141,-275.79
14153,-294.85
14165,-315.92
14177,-338.4
14189,-360.37
14201,-379.22
14212,-392.39
14223,-398.04
14235,-395.28
14247,-384.28
14259,-366.17
14271,-342.8
14283,-316.17
14295,-287.57
14307,-256.94
14319,-222.87
14331,-183.62
14343,-138.58
14355,-89.61
14367,-41.07
14379,1.44
14391,33.3
14402,52.82
14413,61.78
14425,64.51
14437,65.95
14449,69.79
14461,77.61
14473,89.04
14485,102.54
14497,116.15
14509,127.67
14521,134.66
14533,134.53
14545,125.05
14557,105.1
14569,75.43
14581,38.77
14592,-0.76
14603,-38.66
14615,-71.19
14627,-96.15
14639,-112.99
14651,-122.47
14663,-126.13
14675,-125.7
14687,-122.75
14699,-118.66
14711,-114.53
14723,-111.22
14735,-109.33
14747,-109.14
14759,-110.54
14771,-113.11
14782,-116.17
14793,-118.96
14805,-120.79
14817,-121.17
14829,-119.9
14841,-117.11
14853,-113.28
14865,-109.12
14877,-105.49
14889,-103.14
14901,-102.39
14913,-102.95
14925,-103.69
14937,-102.88
14949,-98.59
14961,-89.22
14972,-74.11
14983,-53.76
14995,-29.73
15007,-4.26
15019,20.42
15031,42.58
15043,61.26
15055,76.17
15067,87.47
15079,95.41
15091,100.22
15103,102.17
15115,101.73
15127,99.63
15139,96.82
15151,94.19
15162,92.33
15173,91.34
15185,90.86
15197,90.38
15209,89.4
15221,87.71
15233,85.36
15245,82.56
15257,79.48
15269,76.12
15281,72.27
15293,67.61
15305,61.86
15317,54.77
15329,46.24
15341,36.25
15352,24.99
15363,12.92
15375,0.9
15387,-9.9
15399,-18.24
15411,-23.21
15423,-24.53
15435,-22.51
15447,-17.88
15459,-11.27
15471,-2.98
15483,7.07
15495,19.01
15507,32.66
15519,47.32
15531,61.87
15542,75.12
15553,86.23
15565,94.8
15577,100.83
15589,104.4
15601,105.41
15613,103.67
15625,99.06
15637,91.86
15649,82.88
15661,73.33
15673,64.44
15685,57.07
15697,51.48
15709,47.38
15721,44.23
15732,41.45
15743,38.69
15755,35.8
15767,32.74
15779,29.5
15791,26.05
15803,22.34
15815,18.35
15827,14.11
15839,9.68
15851,5.09
15863,0.39
15875,-4.41
15887,-9.35
15899,-14.5
15911,-19.96
15922,-25.76
15933,-31.71
15945,-37.3
15957,-41.62
15969,-43.56
15981,-42.07
15993,-36.53
16005,-27.03
16017,-14.39
16029,0.03
16041,14.73
16053,28.48
16065,40.57
16077,50.75
16089,59.13
16101,65.81
16112,70.84
16123,74.13
16135,75.67
16147,75.59
16159,74.27
16171,72.25
16183,70.1
16195,68.33
16207,67.25
16219,67.0
16231,67.56
16243,68.84
16255,70.69
16267,72.95
16279,75.42
16291,77.8
16302,79.67
16313,80.53
16325,79.93
16337,77.58
16349,73.45
16361,67.77
16373,60.95
16385,53.46
16397,45.81
16409,38.43
16421,31.61
16433,25.43
16445,19.73
16457,14.17
16469,8.5
16481,2.75
16492,-2.52
16503,-6.4
16515,-7.92
16527,-6.54
16539,-2.48
16551,3.27
16563,9.32
16575,14.26
16587,17.06
16599,17.24
16611,14.73
16623,9.75
16635,2.66
16647,-6.03
16659,-15.62
16671,-25.23
16682,-33.89
16693,-40.79
16705,-45.42
16717,-47.75
16729,-48.1
16741,-46.97
16753,-44.88
16765,-42.28
16777,-39.54
16789,-37.01
16801,-35.0
16813,-33.78
16825,-33.45
16837,-33.9
16849,-34.89
16861,-36.13
16872,-37.46
16883,-38.94
16895,-40.79
16907,-43.33
16919,-46.78
16931,-51.17
16943,-56.18
16955,-61.22
16967,-65.51
16979,-68.25
16991,-68.78
17003,-66.69
17015,-61.89
17027,-54.6
17039,-45.27
17051,-34.55
17062,-23.19
17073,-11.99
17085,-1.66
17097,7.23
17109,14.4
17121,19.85
17133,23.83
17145,26.71
17157,28.85
17169,30.5
17181,31.75
17193,32.59
17205,33.03
17217,33.12
17229,33.0
17241,32.79
17252,32.5
17263,31.94
17275,30.78
17287,28.64
17299,25.24
17311,20.5
17323,14.64
17335,8.11
17347,1.52
17359,-4.48
17371,-9.42
17383,-13.15
17395,-15.94
17407,-18.39
17419,-21.34
17431,-25.55
17442,-31.42
17453,-38.78
17465,-46.88
17477,-54.45
17489,-60.01
17501,-62.14
17513,-59.92
17525,-53.17
17537,-42.46
17549,-29.06
17561,-14.54
17573,-0.39
17585,12.26
17597,22.8
17609,30.95
17621,36.61
17632,39.7
17643,40.12
17655,37.96
17667,33.57
17679,27.62
17691,21.0
17703,14.56
17715,8.89
17727,4.21
17739,0.43
17751,-2.72
17763,-5.5
17775,-8.14
17787,-10.78
17799,-13.57
17811,-16.71
17822,-20.36
17833,-24.59
17845,-29.29
17857,-34.15
17869,-38.78
17881,-42.81
17893,-46.07
17905,-48.66
17917,-50.94
17929,-53.43
17941,-56.49
17953,-60.18
17965,-64.05
17977,-67.23
17989,-68.73
18001,-67.68
18012,-63.68
18023,-56.81
18035,-47.57
18047,-36.68
18059,-24.84
18071,-12.68
18083,-0.7
18095,10.7
18107,21.2
18119,30.53
18131,38.52
18143,45.06
18155,50.18
18167,53.98
18179,56.69
18191,58.53
18202,59.7
18213,60.24
18225,60.1
18237,59.16
18249,57.43
18261,55.05
18273,52.29
18285,49.42
18297,46.51
18309,43.4
18321,39.74
18333,35.17
18345,29.58
18357,23.12
18369,16.26
18381,9.54
18392,3.33
18403,-2.32
18415,-7.73
18427,-13.49
18439,-20.12
18451,-27.82
18463,-36.28
18475,-44.66
18487,-51.84
18499,-56.67
18511,-58.33
18523,-56.49
18535,-51.4
18547,-43.75
18559,-34.5
18571,-24.68
18582,-15.21
18593,-6.77
18605,0.22
18617,5.64
18629,9.56
18641,12.18
18653,13.77
18665,14.59
18677,14.91
18689,14.96
18701,14.93
18713,14.97
18725,15.13
18737,15.35
18749,15.5
18761,15.51
18772,15.39
18783,15.29
18795,15.4
18807,15.84
18819,16.53
18831,17.15
18843,17.23
18855,16.36
18867,14.36
18879,11.38
18891,7.84
18903,4.24
18915,0.94
18927,-1.99
18939,-4.69
18951,-7.49
18962,-10.71
18973,-14.6
18985,-19.28
18997,-24.71
19009,-30.59
19021,-36.32
19033,-41.04
19045,-43.8
19057,-43.77
19069,-40.65
19081,-34.72
19093,-26.8
19105,-17.97
19117,-9.23
19129,-1.26
19141,5.63
19152,11.37
19163,15.95
19175,19.3
19187,21.33
19199,22.05
19211,21.64
19223,20.43
19235,18.87
19247,17.31
19259,15.95
19271,14.81
19283,13.8
19295,12.83
19307,11.88
19319,11.0
19331,10.26
19342,9.71
19353,9.33
19365,9.01
19377,8.59
19389,7.85
19401,6.61
19413,4.79
19425,2.5
19437,0.01
19449,-2.32
19461,-4.23
19473,-5.69
19485,-6.98
19497,-8.51
19509,-10.64
19521,-13.47
19532,-16.77
19543,-20.14
19555,-23.18
19567,-25.74
19579,-27.93
19591,-30.12
19603,-32.72
19615,-36.07
19627,-40.32
19639,-45.34
19651,-50.76
19663,-55.89
19675,-59.82
19687,-61.57
19699,-60.32
19711,-55.73
19722,-48.03
19733,-38.09
19745,-27.1
19757,-16.33
19769,-6.75
19781,1.06
19793,6.98
19805,11.17
19817,13.9
19829,15.45
19841,16.04
19853,15.84
19865,15.06
19877,13.93
19889,12.76
19901,11.86
19912,11.42
19923,11.5
19935,11.96
19947,12.55
19959,13.02
19971,13.19
19983,13.0
19995,12.44
20007,11.5
20019,10.15
20031,8.31
20043,5.94
20055,3.06
20067,-0.22
20079,-3.72
20091,-7.24
20102,-10.61
20113,-13.74
20125,-16.6
20137,-19.22
20149,-21.72
20161,-24.24
20173,-26.96
20185,-30.08
20197,-33.8
20209,-38.22
20221,-43.23
20233,-48.42
20245,-53.03
20257,-56.02
20269,-56.36
20281,-53.31
20292,-46.72
20303,-37.14
20315,-25.71
20327,-13.78
20339,-2.59
20351,7.08
20363,14.92
20375,21.03
20387,25.66
20399,29.08
20411,31.43
20423,32.81
20435,33.35
20447,33.29
20459,32.99
20471,32.85
20482,33.25
20493,34.45
20505,36.56
20517,39.53
20529,43.16
20541,47.04
20553,50.6
20565,53.15
20577,53.97
20589,52.48
20601,48.39
20613,41.85
20625,33.37
20637,23.76
20649,13.89
20661,4.44
20672,-4.27
20683,-12.24
20695,-19.73
20707,-27.02
20719,-34.26
20731,-41.41
20743,-48.3
20755,-54.79
20767,-60.89
20779,-66.77
20791,-72.65
20803,-78.61
20815,-84.37
20827,-89.22
20839,-92.13
20851,-92.02
20862,-88.19
20873,-80.54
20885,-69.66
20897,-56.6
20909,-42.52
20921,-28.33
20933,-14.53
20945,-1.27
20957,11.46
20969,23.54
20981,34.7
20993,44.59
