seconds,BVP
9,14.93
21,13.8
32,12.36
43,10.7
55,8.97
67,7.3
79,5.81
91,4.6
103,3.67
115,2.97
127,2.36
139,1.71
151,0.93
163,-0.03
175,-1.14
187,-2.37
199,-3.73
211,-5.3
222,-7.2
233,-9.54
245,-12.35
257,-15.56
269,-19.03
281,-22.61
293,-26.12
305,-29.33
317,-31.93
329,-33.49
341,-33.67
353,-32.27
365,-29.39
377,-25.41
389,-20.83
401,-16.11
412,-11.57
423,-7.33
435,-3.39
447,0.26
459,3.61
471,6.61
483,9.21
495,11.4
507,13.2
519,14.6
531,15.55
543,16.03
555,16.06
567,15.79
579,15.47
591,15.32
602,15.5
613,16.06
625,16.88
637,17.81
649,18.69
661,19.37
673,19.74
685,19.72
697,19.25
709,18.31
721,16.96
733,15.29
745,13.45
757,11.46
769,9.3
781,6.87
792,4.1
803,1.09
815,-1.98
827,-4.81
839,-7.21
851,-9.09
863,-10.61
875,-12.12
887,-13.98
899,-16.45
911,-19.57
923,-23.14
935,-26.81
947,-30.15
959,-32.72
971,-34.18
982,-34.35
993,-33.25
1005,-31.02
1017,-27.9
1029,-24.13
1041,-19.94
1053,-15.55
1065,-11.1
1077,-6.76
1089,-2.59
1101,1.38
1113,5.14
1125,8.68
1137,11.84
1149,14.46
1161,16.36
1172,17.5
1183,18.0
1195,18.15
1207,18.25
1219,18.46
1231,18.79
1243,19.08
1255,19.15
1267,18.98
1279,18.65
1291,18.3
1303,18.06
1315,17.89
1327,17.63
1339,17.07
1351,16.07
1362,14.63
1373,12.9
1385,11.06
1397,9.2
1409,7.28
1421,5.16
1433,2.66
1445,-0.21
1457,-3.32
1469,-6.27
1481,-8.75
1493,-10.55
1505,-11.76
1517,-12.68
1529,-13.79
1541,-15.49
1552,-17.94
1563,-20.97
1575,-24.08
1587,-26.58
1599,-27.89
1611,-27.66
1623,-25.93
1635,-23.07
1647,-19.59
1659,-15.88
1671,-12.13
1683,-8.32
1695,-4.31
1707,-0.12
1719,4.06
1731,7.92
1742,11.17
1753,13.71
1765,15.64
1777,17.15
1789,18.44
1801,19.61
1813,20.66
1825,21.55
1837,22.14
1849,22.38
1861,22.27
1873,21.83
1885,21.15
1897,20.36
1909,19.59
1921,18.85
1932,18.1
1943,17.18
1955,15.99
1967,14.52
1979,12.92
1991,11.37
2003,9.97
2015,8.72
2027,7.49
2039,6.15
2051,4.63
2063,3.03
2075,1.41
2087,-0.2
2099,-1.9
2111,-3.83
2122,-6.08
2133,-8.66
2145,-11.46
2157,-14.4
2169,-17.45
2181,-20.6
2193,-23.8
2205,-26.75
2217,-29.05
2229,-30.21
2241,-29.89
2253,-28.02
2265,-24.86
2277,-20.88
2289,-16.52
2301,-12.11
2312,-7.75
2323,-3.52
2335,0.61
2347,4.53
2359,8.11
2371,11.21
2383,13.73
2395,15.75
2407,17.48
2419,19.12
2431,20.82
2443,22.57
2455,24.22
2467,25.58
2479,26.5
2491,26.96
2502,27.05
2513,26.9
2525,26.62
2537,26.21
2549,25.62
2561,24.82
2573,23.83
2585,22.67
2597,21.39
2609,20.02
2621,18.55
2633,16.97
2645,15.33
2657,13.65
2669,11.97
2681,10.24
2692,8.35
2703,6.16
2715,3.56
2727,0.66
2739,-2.42
2751,-5.5
2763,-8.42
2775,-11.13
2787,-13.64
2799,-15.96
2811,-18.12
2823,-20.17
2835,-22.18
2847,-24.3
2859,-26.64
2871,-29.2
2882,-31.75
2893,-33.87
2905,-35.03
2917,-34.81
2929,-33.14
2941,-30.23
2953,-26.6
2965,-22.73
2977,-18.96
2989,-15.34
3001,-11.74
3013,-7.93
3025,-3.83
3037,0.44
3049,4.64
3061,8.46
3072,11.73
3083,14.33
3095,16.26
3107,17.6
3119,18.53
3131,19.23
3143,19.9
3155,20.67
3167,21.51
3179,22.3
3191,22.87
3203,23.12
3215,23.09
3227,22.95
3239,22.83
3251,22.8
3262,22.72
3273,22.44
3285,21.83
3297,20.9
3309,19.78
3321,18.63
3333,17.5
3345,16.34
3357,15.0
3369,13.38
3381,11.46
3393,9.34
3405,7.21
3417,5.2
3429,3.4
3441,1.86
3452,0.56
3463,-0.46
3475,-1.2
3487,-1.72
3499,-2.1
3511,-2.55
3523,-3.26
3535,-4.39
3547,-5.92
3559,-7.73
3571,-9.59
3583,-11.33
3595,-12.92
3607,-14.36
3619,-15.82
3631,-17.41
3642,-19.21
3653,-21.24
3665,-23.51
3677,-25.94
3689,-28.37
3701,-30.52
3713,-32.0
3725,-32.43
3737,-31.57
3749,-29.44
3761,-26.31
3773,-22.68
3785,-19.05
3797,-15.75
3809,-12.9
3821,-10.31
3832,-7.76
3843,-5.06
3855,-2.21
3867,0.61
3879,3.09
3891,4.99
3903,6.25
3915,7.02
3927,7.6
3939,8.31
3951,9.35
3963,10.77
3975,12.46
3987,14.24
3999,15.94
4011,17.41
4022,18.57
4033,19.4
4045,19.88
4057,20.06
4069,19.92
4081,19.42
4093,18.53
4105,17.3
4117,15.89
4129,14.49
4141,13.27
4153,12.29
4165,11.42
4177,10.45
4189,9.17
4201,7.52
4212,5.62
4223,3.63
4235,1.64
4247,-0.38
4259,-2.54
4271,-4.94
4283,-7.53
4295,-10.1
4307,-12.45
4319,-14.43
4331,-16.13
4343,-17.76
4355,-19.59
4367,-21.79
4379,-24.21
4391,-26.57
4402,-28.4
4413,-29.29
4425,-29.03
4437,-27.62
4449,-25.34
4461,-22.51
4473,-19.48
4485,-16.46
4497,-13.57
4509,-10.8
4521,-8.12
4533,-5.47
4545,-2.8
4557,-0.07
4569,2.73
4581,5.49
4592,8.06
4603,10.21
4615,11.79
4627,12.75
4639,13.18
4651,13.34
4663,13.49
4675,13.91
4687,14.67
4699,15.74
4711,16.89
4723,17.84
4735,18.33
4747,18.21
4759,17.49
4771,16.27
4782,14.79
4793,13.26
4805,11.78
4817,10.43
4829,9.18
4841,7.93
4853,6.55
4865,4.94
4877,3.0
4889,0.74
4901,-1.66
4913,-3.99
4925,-5.97
4937,-7.48
4949,-8.61
4961,-9.64
4972,-10.9
4983,-12.69
4995,-15.14
5007,-18.16
5019,-21.54
5031,-24.85
5043,-27.69
5055,-29.62
5067,-30.38
5079,-29.84
5091,-28.12
5103,-25.57
5115,-22.61
5127,-19.64
5139,-16.82
5151,-14.13
5162,-11.43
5173,-8.51
5185,-5.36
5197,-2.06
5209,1.18
5221,4.12
5233,6.6
5245,8.6
5257,10.14
5269,11.25
5281,12.0
5293,12.44
5305,12.72
5317,13.03
5329,13.54
5341,14.33
5352,15.35
5363,16.44
5375,17.33
5387,17.87
5399,17.9
5411,17.37
5423,16.27
5435,14.66
5447,12.61
5459,10.24
5471,7.75
5483,5.27
5495,2.93
5507,0.79
5519,-1.15
5531,-2.93
5542,-4.56
5553,-6.03
5565,-7.34
5577,-8.55
5589,-9.84
5601,-11.46
5613,-13.7
5625,-16.77
5637,-20.67
5649,-25.11
5661,-29.57
5673,-33.33
5685,-35.75
5697,-36.38
5709,-35.13
5721,-32.26
5732,-28.3
5743,-23.81
5755,-19.28
5767,-14.94
5779,-10.86
5791,-6.97
5803,-3.24
5815,0.28
5827,3.47
5839,6.2
5851,8.44
5863,10.21
5875,11.55
5887,12.5
5899,13.03
5911,13.11
5922,12.8
5933,12.19
5945,11.44
5957,10.67
5969,10.02
5981,9.53
5993,9.17
6005,8.85
6017,8.43
6029,7.74
6041,6.63
6053,5.03
6065,3.03
6077,0.8
6089,-1.41
6101,-3.39
6112,-5.08
6123,-6.56
6135,-8.06
6147,-9.81
6159,-12.01
6171,-14.69
6183,-17.76
6195,-20.93
6207,-23.82
6219,-26.03
6231,-27.23
6243,-27.27
6255,-26.1
6267,-23.85
6279,-20.67
6291,-16.85
6302,-12.62
6313,-8.24
6325,-3.9
6337,0.24
6349,4.06
6361,7.46
6373,10.38
6385,12.77
6397,14.59
6409,15.91
6421,16.89
6433,17.69
6445,18.47
6457,19.26
6469,20.01
6481,20.61
6492,20.93
6503,20.96
6515,20.7
6527,20.2
6539,19.45
6551,18.39
6563,16.87
6575,14.76
6587,12.07
6599,8.92
6611,5.58
6623,2.37
6635,-0.41
6647,-2.67
6659,-4.46
6671,-6.04
6682,-7.76
6693,-9.9
6705,-12.65
6717,-16.03
6729,-19.84
6741,-23.72
6753,-27.18
6765,-29.64
6777,-30.64
6789,-29.97
6801,-27.73
6813,-24.28
6825,-20.14
6837,-15.76
6849,-11.47
6861,-7.37
6872,-3.44
6883,0.37
6895,4.04
6907,7.48
6919,10.57
6931,13.24
6943,15.46
6955,17.25
6967,18.68
6979,19.86
6991,20.86
7003,21.68
7015,22.29
7027,22.63
7039,22.6
7051,22.19
7062,21.49
7073,20.71
7085,20.07
7097,19.68
7109,19.44
7121,19.04
7133,18.18
7145,16.66
7157,14.62
7169,12.37
7181,10.29
7193,8.57
7205,7.07
7217,5.44
7229,3.28
7241,0.4
7252,-3.15
7263,-7.09
7275,-11.09
7287,-14.87
7299,-18.18
7311,-20.77
7323,-22.32
7335,-22.65
7347,-21.72
7359,-19.73
7371,-16.93
7383,-13.62
7395,-10.0
7407,-6.11
7419,-1.96
7431,2.4
7442,6.8
7453,10.98
7465,14.62
7477,17.5
7489,19.53
7501,20.73
7513,21.32
7525,21.52
7537,21.61
7549,21.75
7561,22.01
7573,22.36
7585,22.73
7597,23.09
7609,23.45
7621,23.8
7632,24.06
7643,24.13
7655,23.82
7667,22.98
7679,21.56
7691,19.62
7703,17.33
7715,14.88
7727,12.48
7739,10.23
7751,8.18
7763,6.31
7775,4.54
7787,2.81
7799,1.1
7811,-0.52
7822,-1.99
7833,-3.24
7845,-4.33
7857,-5.35
7869,-6.47
7881,-7.86
7893,-9.63
7905,-11.81
7917,-14.36
7929,-17.19
7941,-20.18
7953,-23.18
7965,-25.99
7977,-28.29
7989,-29.73
8001,-29.96
8012,-28.84
8023,-26.41
8035,-22.93
8047,-18.79
8059,-14.39
8071,-10.08
8083,-5.99
8095,-2.11
8107,1.66
8119,5.42
8131,9.15
8143,12.67
8155,15.7
8167,17.98
8179,19.32
8191,19.79
8202,19.57
8213,18.96
8225,18.18
8237,17.42
8249,16.79
8261,16.39
8273,16.35
8285,16.71
8297,17.45
8309,18.39
8321,19.23
8333,19.73
8345,19.74
8357,19.19
8369,18.16
8381,16.74
8392,14.97
8403,12.98
8415,10.88
8427,8.83
8439,7.0
8451,5.44
8463,4.08
8475,2.78
8487,1.42
8499,-0.04
8511,-1.46
8523,-2.67
8535,-3.57
8547,-4.18
8559,-4.71
8571,-5.44
8582,-6.66
8593,-8.51
8605,-11.11
8617,-14.39
8629,-18.18
8641,-22.25
8653,-26.2
8665,-29.54
8677,-31.76
8689,-32.4
8701,-31.32
8713,-28.72
8725,-25.05
8737,-20.86
8749,-16.6
8761,-12.41
8772,-8.29
8783,-4.16
8795,0.02
8807,4.08
8819,7.74
8831,10.76
8843,13.04
8855,14.56
8867,15.52
8879,16.08
8891,16.38
8903,16.48
8915,16.4
8927,16.15
8939,15.82
8951,15.53
8962,15.32
8973,15.31
8985,15.48
8997,15.74
9009,15.99
9021,16.09
9033,16.0
9045,15.75
9057,15.43
9069,15.05
9081,14.54
9093,13.72
9105,12.44
9117,10.73
9129,8.74
9141,6.77
9152,5.09
9163,3.68
9175,2.34
9187,0.76
9199,-1.35
9211,-4.02
9223,-6.98
9235,-9.76
9247,-11.98
9259,-13.4
9271,-14.12
9283,-14.44
9295,-14.75
9307,-15.39
9319,-16.57
9331,-18.3
9342,-20.41
9353,-22.57
9365,-24.34
9377,-25.32
9389,-25.21
9401,-24.01
9413,-21.92
9425,-19.29
9437,-16.45
9449,-13.63
9461,-10.85
9473,-8.0
9485,-5.06
9497,-2.01
9509,1.03
9521,3.9
9532,6.48
9543,8.66
9555,10.34
9567,11.47
9579,12.03
9591,12.06
9603,11.69
9615,11.14
9627,10.59
9639,10.15
9651,9.88
9663,9.72
9675,9.63
9687,9.59
9699,9.62
9711,9.76
9722,9.99
9733,10.27
9745,10.52
9757,10.64
9769,10.5
9781,10.01
9793,9.11
9805,7.83
9817,6.29
9829,4.67
9841,3.13
9853,1.83
9865,0.74
9877,-0.24
9889,-1.23
9901,-2.31
9912,-3.5
9923,-4.73
9935,-5.93
9947,-7.16
9959,-8.47
9971,-9.98
9983,-11.77
9995,-13.83
10007,-16.05
10019,-18.31
10031,-20.41
10043,-22.17
10055,-23.46
10067,-24.17
10079,-24.23
10091,-23.67
10102,-22.55
10113,-21.02
10125,-19.21
10137,-17.21
10149,-15.05
10161,-12.74
10173,-10.27
10185,-7.63
10197,-4.92
10209,-2.23
10221,0.24
10233,2.31
10245,3.86
10257,4.92
10269,5.65
10281,6.31
10292,7.11
10303,8.16
10315,9.39
10327,10.66
10339,11.82
10351,12.83
10363,13.68
10375,14.36
10387,14.79
10399,14.79
10411,14.22
10423,13.11
10435,11.6
10447,9.99
10459,8.57
10471,7.45
10482,6.55
10493,5.7
10505,4.66
10517,3.26
10529,1.49
10541,-0.61
10553,-2.92
10565,-5.31
10577,-7.63
10589,-9.68
10601,-11.32
10613,-12.5
10625,-13.34
10637,-14.05
10649,-14.88
10661,-15.98
10672,-17.34
10683,-18.87
10695,-20.39
10707,-21.82
10719,-23.14
10731,-24.26
10743,-24.99
10755,-25.07
10767,-24.23
10779,-22.39
10791,-19.71
10803,-16.57
10815,-13.38
10827,-10.48
10839,-7.92
10851,-5.51
10862,-3.06
10873,-0.45
10885,2.25
10897,4.77
10909,6.82
10921,8.25
10933,9.1
10945,9.59
10957,9.96
10969,10.31
10981,10.6
10993,10.64
11005,10.32
11017,9.69
11029,8.96
11041,8.36
11052,8.0
11063,7.78
11075,7.46
11087,6.85
11099,5.87
11111,4.63
11123,3.3
11135,2.1
11147,1.15
11159,0.51
11171,0.16
11183,-0.01
11195,-0.15
11207,-0.5
11219,-1.25
11231,-2.52
11242,-4.37
11253,-6.75
11265,-9.67
11277,-13.11
11289,-17.02
11301,-21.14
11313,-25.02
11325,-27.97
11337,-29.35
11349,-28.8
11361,-26.36
11373,-22.58
11385,-18.13
11397,-13.67
11409,-9.59
11421,-5.97
11432,-2.74
11443,0.23
11455,2.88
11467,5.13
11479,6.8
11491,7.92
11503,8.6
11515,9.0
11527,9.32
11539,9.6
11551,9.87
11563,10.05
11575,10.11
11587,10.03
11599,9.79
11611,9.43
11622,8.97
11633,8.53
11645,8.23
11657,8.16
11669,8.3
11681,8.53
11693,8.62
11705,8.34
11717,7.54
11729,6.21
11741,4.45
11753,2.4
11765,0.22
11777,-1.93
11789,-3.97
11801,-5.82
11812,-7.51
11823,-9.06
11835,-10.56
11847,-12.07
11859,-13.72
11871,-15.53
11883,-17.5
11895,-19.57
11907,-21.53
11919,-23.12
11931,-23.99
11943,-23.88
11955,-22.68
11967,-20.54
11979,-17.77
11991,-14.75
12002,-11.77
12013,-8.98
12025,-6.39
12037,-3.93
12049,-1.52
12061,0.82
12073,3.03
12085,5.01
12097,6.69
12109,8.05
12121,9.13
12133,10.02
12145,10.82
12157,11.58
12169,12.34
12181,13.12
12192,13.87
12203,14.56
12215,15.12
12227,15.48
12239,15.55
12251,15.23
12263,14.46
12275,13.33
12287,12.0
12299,10.7
12311,9.65
12323,8.87
12335,8.27
12347,7.71
12359,7.04
12371,6.24
12382,5.39
12393,4.58
12405,3.82
12417,2.98
12429,1.88
12441,0.37
12453,-1.55
12465,-3.71
12477,-5.91
12489,-7.98
12501,-9.95
12513,-12.06
12525,-14.58
12537,-17.65
12549,-21.23
12561,-25.0
12572,-28.49
12583,-31.26
12595,-32.94
12607,-33.41
12619,-32.66
12631,-30.82
12643,-28.07
12655,-24.69
12667,-20.93
12679,-17.0
12691,-13.05
12703,-9.08
12715,-5.07
12727,-1.0
12739,2.99
12751,6.63
12762,9.56
12773,11.62
12785,12.85
12797,13.58
12809,14.2
12821,15.0
12833,15.98
12845,16.94
12857,17.64
12869,17.95
12881,17.98
12893,17.97
12905,18.11
12917,18.49
12929,18.99
12941,19.37
12952,19.41
12963,19.0
12975,18.18
12987,17.04
12999,15.66
13011,14.1
13023,12.35
13035,10.44
13047,8.41
13059,6.38
13071,4.43
13083,2.68
13095,1.14
13107,-0.17
13119,-1.3
13131,-2.26
13142,-3.14
13153,-4.04
13165,-5.06
13177,-6.32
13189,-7.89
13201,-9.77
13213,-11.96
13225,-14.54
13237,-17.61
13249,-21.2
13261,-25.13
13273,-28.96
13285,-32.02
13297,-33.7
13309,-33.66
13321,-32.02
13332,-29.19
13343,-25.75
13355,-22.1
13367,-18.44
13379,-14.75
13391,-10.96
13403,-7.09
13415,-3.33
13427,0.11
13439,3.09
13451,5.55
13463,7.71
13475,9.79
13487,12.06
13499,14.6
13511,17.31
13522,19.98
13533,22.36
13545,24.31
13557,25.77
13569,26.8
13581,27.42
13593,27.62
13605,27.34
13617,26.57
13629,25.39
13641,23.99
13653,22.59
13665,21.29
13677,20.1
13689,18.86
13701,17.52
13712,16.03
13723,14.49
13735,12.99
13747,11.53
13759,10.01
13771,8.21
13783,5.96
13795,3.21
13807,0.11
13819,-3.08
13831,-6.06
13843,-8.67
13855,-10.91
13867,-12.99
13879,-15.18
13891,-17.69
13902,-20.53
13913,-23.5
13925,-26.19
13937,-28.14
13949,-28.98
13961,-28.59
13973,-27.02
13985,-24.49
13997,-21.31
14009,-17.73
14021,-13.97
14033,-10.21
14045,-6.6
14057,-3.2
14069,-0.01
14081,3.09
14092,6.21
14103,9.42
14115,12.68
14127,15.79
14139,18.47
14151,20.5
14163,21.74
14175,22.29
14187,22.42
14199,22.38
14211,22.43
14223,22.65
14235,23.02
14247,23.38
14259,23.65
14271,23.72
14282,23.58
14293,23.18
14305,22.48
14317,21.45
14329,20.09
14341,18.45
14353,16.61
14365,14.71
14377,12.71
14389,10.56
14401,8.24
14413,5.73
14425,3.12
14437,0.5
14449,-2.03
14461,-4.4
14472,-6.54
14483,-8.42
14495,-10.01
14507,-11.33
14519,-12.48
14531,-13.57
14543,-14.68
14555,-15.9
14567,-17.24
14579,-18.77
14591,-20.63
14603,-22.99
14615,-25.86
14627,-29.05
14639,-32.07
14651,-34.25
14662,-35.02
14673,-34.11
14685,-31.61
14697,-27.98
14709,-23.79
14721,-19.55
14733,-15.49
14745,-11.65
14757,-7.9
14769,-4.12
14781,-0.29
14793,3.45
14805,6.87
14817,9.76
14829,12.03
14841,13.77
14852,15.19
14863,16.46
14875,17.68
14887,18.83
14899,19.82
14911,20.57
14923,21.08
14935,21.5
14947,21.96
14959,22.53
14971,23.11
14983,23.52
14995,23.56
15007,23.13
15019,22.26
15031,21.1
15042,19.83
15053,18.6
15065,17.47
15077,16.38
15089,15.24
15101,13.96
15113,12.56
15125,11.16
15137,9.94
15149,8.99
15161,8.24
15173,7.44
15185,6.26
15197,4.5
15209,2.15
15221,-0.54
15232,-3.26
15243,-5.75
15255,-7.91
15267,-9.85
15279,-11.69
15291,-13.6
15303,-15.69
15315,-18.03
15327,-20.64
15339,-23.53
15351,-26.65
15363,-29.78
15375,-32.65
15387,-34.81
15399,-35.92
15411,-35.76
15422,-34.35
15433,-31.9
15445,-28.72
15457,-25.1
15469,-21.24
15481,-17.24
15493,-13.13
15505,-8.93
15517,-4.73
15529,-0.65
15541,3.1
15553,6.37
15565,9.06
15577,11.14
15589,12.66
15601,13.72
15612,14.45
15623,14.97
15635,15.48
15647,16.09
15659,16.92
15671,17.98
15683,19.22
15695,20.52
15707,21.74
15719,22.67
15731,23.14
15743,23.06
15755,22.46
15767,21.4
15779,20.06
15791,18.58
15802,17.04
15813,15.45
15825,13.76
15837,11.9
15849,9.86
15861,7.68
15873,5.36
15885,2.96
15897,0.54
15909,-1.8
15921,-3.89
15933,-5.59
15945,-6.79
15957,-7.57
15969,-8.18
15981,-8.92
15992,-10.09
16003,-11.86
16015,-14.3
16027,-17.35
16039,-20.9
16051,-24.7
16063,-28.41
16075,-31.56
16087,-33.6
16099,-34.1
16111,-32.93
16123,-30.27
16135,-26.56
16147,-22.31
16159,-17.9
16171,-13.47
16182,-9.01
16193,-4.5
16205,-0.01
16217,4.2
16229,7.83
16241,10.72
16253,12.87
16265,14.48
16277,15.8
16289,16.97
16301,18.04
16313,18.92
16325,19.57
16337,19.96
16349,20.15
16361,20.2
16372,20.08
16383,19.72
16395,19.0
16407,17.92
16419,16.54
16431,15.01
16443,13.5
16455,12.09
16467,10.81
16479,9.69
16491,8.8
16503,8.22
16515,7.99
16527,7.99
16539,8.02
16551,7.78
16562,7.02
16573,5.63
16585,3.65
16597,1.2
16609,-1.58
16621,-4.57
16633,-7.71
16645,-10.94
16657,-14.18
16669,-17.38
16681,-20.48
16693,-23.43
16705,-26.21
16717,-28.71
16729,-30.75
16741,-32.05
16752,-32.3
16763,-31.27
16775,-29.01
16787,-25.81
16799,-22.16
16811,-18.56
16823,-15.31
16835,-12.49
16847,-9.92
16859,-7.32
16871,-4.44
16883,-1.23
16895,2.21
16907,5.64
16919,8.8
16931,11.54
16942,13.83
16953,15.73
16965,17.36
16977,18.85
16989,20.26
17001,21.55
17013,22.63
17025,23.35
17037,23.6
17049,23.39
17061,22.77
17073,21.88
17085,20.82
17097,19.65
17109,18.36
17121,16.98
17132,15.5
17143,14.01
17155,12.63
17167,11.48
17179,10.58
17191,9.85
17203,9.11
17215,8.15
17227,6.87
17239,5.24
17251,3.34
17263,1.28
17275,-0.84
17287,-2.95
17299,-4.99
17311,-6.94
17322,-8.75
17333,-10.42
17345,-12.02
17357,-13.72
17369,-15.75
17381,-18.31
17393,-21.41
17405,-24.87
17417,-28.28
17429,-31.1
17441,-32.89
17453,-33.4
17465,-32.7
17477,-31.06
17489,-28.79
17501,-26.1
17512,-23.1
17523,-19.83
17535,-16.35
17547,-12.75
17559,-9.12
17571,-5.53
17583,-1.93
17595,1.76
17607,5.52
17619,9.18
17631,12.43
17643,14.98
17655,16.71
17667,17.71
17679,18.25
17691,18.65
17702,19.09
17713,19.56
17725,19.97
17737,20.19
17749,20.19
17761,20.03
17773,19.85
17785,19.73
17797,19.64
17809,19.44
17821,18.97
17833,18.09
17845,16.85
17857,15.37
17869,13.86
17881,12.47
17892,11.25
17903,10.13
17915,8.9
17927,7.4
17939,5.49
17951,3.2
17963,0.63
17975,-2.01
17987,-4.56
17999,-6.88
18011,-8.94
18023,-10.79
18035,-12.5
18047,-14.17
18059,-15.88
18071,-17.77
18082,-19.96
18093,-22.54
18105,-25.5
18117,-28.61
18129,-31.42
18141,-33.4
18153,-34.04
18165,-33.06
18177,-30.53
18189,-26.86
18201,-22.56
18213,-18.17
18225,-14.04
18237,-10.27
18249,-6.8
18261,-3.46
18272,-0.14
18283,3.19
18295,6.38
18307,9.24
18319,11.54
18331,13.18
18343,14.17
18355,14.67
18367,14.91
18379,15.02
18391,15.09
18403,15.06
18415,14.9
18427,14.65
18439,14.46
18451,14.47
18462,14.78
18473,15.27
18485,15.69
18497,15.76
18509,15.29
18521,14.36
18533,13.22
18545,12.19
18557,11.48
18569,11.08
18581,10.73
18593,10.1
18605,8.91
18617,7.08
18629,4.7
18641,2.04
18652,-0.62
18663,-3.13
18675,-5.5
18687,-7.93
18699,-10.67
18711,-13.95
18723,-17.83
18735,-22.12
18747,-26.44
18759,-30.19
18771,-32.77
18783,-33.73
18795,-32.88
18807,-30.37
18819,-26.64
18831,-22.25
18842,-17.72
18853,-13.4
18865,-9.42
18877,-5.79
18889,-2.47
18901,0.56
18913,3.3
18925,5.75
18937,7.97
18949,10.01
18961,11.93
18973,13.7
18985,15.26
18997,16.59
19009,17.74
19021,18.86
19032,20.13
19043,21.67
19055,23.45
19067,25.29
19079,26.91
19091,28.1
19103,28.71
19115,28.79
19127,28.38
19139,27.54
19151,26.3
19163,24.61
19175,22.53
19187,20.19
19199,17.85
19211,15.79
19222,14.09
19233,12.63
19245,11.1
19257,9.13
19269,6.55
19281,3.39
19293,-0.11
19305,-3.62
19317,-6.87
19329,-9.78
19341,-12.42
19353,-14.96
19365,-17.59
19377,-20.45
19389,-23.59
19401,-26.94
19412,-30.33
19423,-33.41
19435,-35.78
19447,-37.06
19459,-36.98
19471,-35.51
19483,-32.84
19495,-29.23
19507,-24.98
19519,-20.33
19531,-15.33
19543,-10.04
19555,-4.58
19567,0.84
19579,5.85
19591,10.13
19602,13.52
19613,16.03
19625,17.84
19637,19.15
19649,20.09
19661,20.64
19673,20.73
19685,20.36
19697,19.61
19709,18.75
19721,18.05
19733,17.73
19745,17.81
19757,18.14
19769,18.55
19781,18.93
19792,19.33
19803,19.82
19815,20.54
19827,21.46
19839,22.39
19851,23.13
19863,23.48
19875,23.38
19887,22.89
19899,22.15
19911,21.19
19923,20.01
19935,18.53
19947,16.77
19959,14.85
19971,12.98
19982,11.32
19993,9.91
20005,8.61
20017,7.16
20029,5.42
20041,3.34
20053,1.02
20065,-1.33
20077,-3.61
20089,-5.79
20101,-7.96
20113,-10.21
20125,-12.53
20137,-14.84
20149,-17.0
20161,-19.0
20172,-20.98
20183,-23.17
20195,-25.81
20207,-28.97
20219,-32.42
20231,-35.71
20243,-38.24
20255,-39.46
20267,-39.06
20279,-37.03
20291,-33.66
20303,-29.43
20315,-24.88
20327,-20.45
20339,-16.4
20351,-12.72
20362,-9.26
20373,-5.81
20385,-2.2
20397,1.51
20409,5.13
20421,8.45
20433,11.25
20445,13.46
20457,15.13
20469,16.37
20481,17.29
20493,18.01
20505,18.63
20517,19.26
20529,20.01
20541,20.89
20552,21.83
20563,22.62
20575,23.11
20587,23.13
20599,22.76
20611,22.15
20623,21.52
20635,21.03
20647,20.62
20659,20.14
20671,19.34
20683,18.11
20695,16.51
20707,14.76
20719,13.11
20731,11.68
20742,10.46
20753,9.3
20765,8.08
20777,6.71
20789,5.19
20801,3.53
20813,1.74
20825,-0.23
20837,-2.35
20849,-4.56
20861,-6.75
20873,-8.75
20885,-10.47
20897,-11.94
20909,-13.24
20921,-14.54
20932,-15.99
20943,-17.72
20955,-19.72
20967,-21.97
20979,-24.26
20991,-26.31
