seconds,BVP
1,22.37
12,24.76
24,26.72
36,27.93
48,28.14
60,27.31
72,25.54
84,23.09
96,20.31
108,17.5
120,14.81
132,12.25
144,9.68
156,6.94
168,3.96
180,0.76
191,-2.57
202,-5.91
214,-9.23
226,-12.63
238,-16.29
250,-20.47
262,-25.39
274,-31.04
286,-37.16
298,-43.12
310,-48.0
322,-50.78
334,-50.71
346,-47.54
358,-41.62
370,-33.82
381,-25.21
392,-16.73
404,-8.96
416,-2.06
428,4.04
440,9.45
452,14.2
464,18.18
476,21.26
488,23.36
500,24.56
512,25.08
524,25.22
536,25.26
548,25.38
560,25.64
571,26.02
582,26.44
594,26.87
606,27.29
618,27.68
630,27.99
642,28.05
654,27.68
666,26.68
678,24.98
690,22.65
702,19.93
714,17.16
726,14.62
738,12.43
750,10.48
761,8.47
772,6.06
784,3.02
796,-0.6
808,-4.56
820,-8.5
832,-12.12
844,-15.36
856,-18.38
868,-21.52
880,-25.14
892,-29.53
904,-34.75
916,-40.54
928,-46.21
940,-50.8
951,-53.18
962,-52.45
974,-48.26
986,-40.96
998,-31.51
1010,-21.16
1022,-11.06
1034,-1.94
1046,5.97
1058,12.81
1070,18.88
1082,24.39
1094,29.35
1106,33.6
1118,36.83
1130,38.76
1141,39.25
1152,38.36
1164,36.39
1176,33.73
1188,30.8
1200,27.89
1212,25.21
1224,22.84
1236,20.9
1248,19.47
1260,18.59
1272,18.16
1284,17.89
1296,17.42
1308,16.45
1320,14.88
1331,12.9
1342,10.86
1354,9.09
1366,7.75
1378,6.72
1390,5.71
1402,4.34
1414,2.32
1426,-0.43
1438,-3.77
1450,-7.39
1462,-10.9
1474,-14.03
1486,-16.71
1498,-19.11
1510,-21.65
1521,-24.79
1532,-28.9
1544,-34.14
1556,-40.26
1568,-46.63
1580,-52.29
1592,-56.11
1604,-57.1
1616,-54.71
1628,-49.05
1640,-40.88
1652,-31.38
1664,-21.76
1676,-12.89
1688,-5.11
1700,1.67
1711,7.8
1722,13.5
1734,18.8
1746,23.46
1758,27.2
1770,29.86
1782,31.49
1794,32.4
1806,33.0
1818,33.61
1830,34.37
1842,35.19
1854,35.82
1866,36.08
1878,35.95
1890,35.57
1901,35.19
1912,34.95
1924,34.78
1936,34.44
1948,33.6
1960,32.05
1972,29.79
1984,27.04
1996,24.11
2008,21.27
2020,18.67
2032,16.3
2044,14.05
2056,11.74
2068,9.2
2080,6.28
2091,2.96
2102,-0.71
2114,-4.49
2126,-8.14
2138,-11.37
2150,-14.09
2162,-16.41
2174,-18.67
2186,-21.35
2198,-24.89
2210,-29.56
2222,-35.3
2234,-41.65
2246,-47.81
2258,-52.74
2270,-55.41
2281,-55.08
2292,-51.55
2304,-45.24
2316,-37.01
2328,-27.97
2340,-19.09
2352,-10.96
2364,-3.79
2376,2.49
2388,8.05
2400,12.93
2412,17.06
2424,20.32
2436,22.66
2448,24.21
2460,25.22
2471,25.99
2482,26.73
2494,27.51
2506,28.25
2518,28.86
2530,29.28
2542,29.52
2554,29.67
2566,29.79
2578,29.84
2590,29.73
2602,29.33
2614,28.48
2626,27.14
2638,25.35
2650,23.23
2661,20.96
2672,18.67
2684,16.46
2696,14.3
2708,12.08
2720,9.67
2732,7.0
2744,4.07
2756,0.98
2768,-2.1
2780,-5.03
2792,-7.76
2804,-10.28
2816,-12.7
2828,-15.2
2840,-18.0
2851,-21.36
2862,-25.47
2874,-30.35
2886,-35.66
2898,-40.72
2910,-44.62
2922,-46.4
2934,-45.4
2946,-41.5
2958,-35.13
2970,-27.19
2982,-18.72
2994,-10.62
3006,-3.42
3018,2.74
3030,7.92
3041,12.28
3052,15.88
3064,18.68
3076,20.62
3088,21.71
3100,22.09
3112,22.03
3124,21.84
3136,21.76
3148,21.88
3160,22.16
3172,22.46
3184,22.66
3196,22.66
3208,22.41
3220,21.92
3231,21.16
3242,20.09
3254,18.67
3266,16.9
3278,14.86
3290,12.73
3302,10.68
3314,8.82
3326,7.12
3338,5.43
3350,3.53
3362,1.26
3374,-1.41
3386,-4.35
3398,-7.35
3410,-10.2
3421,-12.81
3432,-15.23
3444,-17.62
3456,-20.26
3468,-23.39
3480,-27.2
3492,-31.68
3504,-36.5
3516,-40.98
3528,-44.18
3540,-45.17
3552,-43.29
3564,-38.53
3576,-31.46
3588,-23.13
3600,-14.63
3611,-6.82
3622,-0.06
3634,5.64
3646,10.46
3658,14.51
3670,17.75
3682,20.05
3694,21.34
3706,21.76
3718,21.64
3730,21.4
3742,21.37
3754,21.71
3766,22.33
3778,23.0
3790,23.5
3801,23.72
3812,23.66
3824,23.43
3836,23.12
3848,22.72
3860,22.07
3872,21.04
3884,19.47
3896,17.37
3908,14.83
3920,12.01
3932,9.08
3944,6.12
3956,3.21
3968,0.32
3980,-2.48
3991,-5.15
4002,-7.6
4014,-9.75
4026,-11.6
4038,-13.19
4050,-14.66
4062,-16.19
4074,-18.01
4086,-20.39
4098,-23.55
4110,-27.55
4122,-32.21
4134,-37.05
4146,-41.3
4158,-44.02
4170,-44.39
4181,-41.95
4192,-36.79
4204,-29.52
4216,-21.12
4228,-12.65
4240,-4.94
4252,1.53
4264,6.68
4276,10.64
4288,13.6
4300,15.74
4312,17.13
4324,17.85
4336,18.03
4348,17.85
4360,17.54
4371,17.28
4382,17.21
4394,17.31
4406,17.54
4418,17.79
4430,18.01
4442,18.14
4454,18.2
4466,18.18
4478,18.01
4490,17.6
4502,16.8
4514,15.53
4526,13.75
4538,11.53
4550,8.92
4561,6.02
4572,2.85
4584,-0.54
4596,-4.12
4608,-7.8
4620,-11.46
4632,-15.01
4644,-18.38
4656,-21.63
4668,-24.87
4680,-28.3
4692,-32.14
4704,-36.56
4716,-41.57
4728,-46.91
4740,-51.95
4751,-55.76
4762,-57.35
4774,-56.0
4786,-51.56
4798,-44.54
4810,-35.95
4822,-26.88
4834,-18.27
4846,-10.57
4858,-3.83
4870,2.1
4882,7.36
4894,11.97
4906,15.81
4918,18.76
4930,20.79
4941,21.99
4952,22.59
4964,22.81
4976,22.88
4988,22.96
5000,23.11
5012,23.3
5024,23.47
5036,23.48
5048,23.23
5060,22.66
5072,21.8
5084,20.71
5096,19.46
5108,18.06
5120,16.44
5131,14.51
5142,12.21
5154,9.54
5166,6.58
5178,3.41
5190,0.14
5202,-3.16
5214,-6.39
5226,-9.45
5238,-12.31
5250,-14.99
5262,-17.66
5274,-20.55
5286,-23.93
5298,-28.03
5310,-32.95
5321,-38.54
5332,-44.37
5344,-49.66
5356,-53.39
5368,-54.56
5380,-52.48
5392,-47.14
5404,-39.27
5416,-30.09
5428,-20.92
5440,-12.66
5452,-5.62
5464,0.4
5476,5.81
5488,10.85
5500,15.49
5511,19.48
5522,22.59
5534,24.75
5546,26.1
5558,26.92
5570,27.45
5582,27.83
5594,28.13
5606,28.4
5618,28.71
5630,29.15
5642,29.7
5654,30.22
5666,30.45
5678,30.08
5690,28.92
5701,26.92
5712,24.27
5724,21.25
5736,18.13
5748,15.08
5760,12.08
5772,9.03
5784,5.81
5796,2.37
5808,-1.2
5820,-4.76
5832,-8.15
5844,-11.34
5856,-14.38
5868,-17.44
5880,-20.72
5891,-24.42
5902,-28.7
5914,-33.59
5926,-39.0
5938,-44.55
5950,-49.55
5962,-53.12
5974,-54.34
5986,-52.55
5998,-47.64
6010,-40.15
6022,-31.1
6034,-21.72
6046,-12.98
6058,-5.42
6070,0.97
6081,6.46
6092,11.38
6104,15.88
6116,19.89
6128,23.23
6140,25.78
6152,27.55
6164,28.69
6176,29.42
6188,29.91
6200,30.27
6212,30.54
6224,30.7
6236,30.8
6248,30.84
6260,30.84
6271,30.75
6282,30.46
6294,29.82
6306,28.73
6318,27.17
6330,25.28
6342,23.26
6354,21.31
6366,19.47
6378,17.6
6390,15.44
6402,12.75
6414,9.42
6426,5.62
6438,1.66
6450,-2.1
6461,-5.51
6472,-8.62
6484,-11.69
6496,-15.08
6508,-19.08
6520,-23.88
6532,-29.44
6544,-35.51
6556,-41.52
6568,-46.64
6580,-49.95
6592,-50.61
6604,-48.21
6616,-42.87
6628,-35.31
6640,-26.57
6651,-17.76
6662,-9.64
6674,-2.52
6686,3.71
6698,9.33
6710,14.57
6722,19.42
6734,23.63
6746,26.87
6758,28.89
6770,29.7
6782,29.64
6794,29.22
6806,28.86
6818,28.81
6830,29.04
6841,29.37
6852,29.64
6864,29.82
6876,29.97
6888,30.12
6900,30.19
6912,29.95
6924,29.1
6936,27.47
6948,25.12
6960,22.34
6972,19.53
6984,17.01
6996,14.84
7008,12.87
7020,10.75
7031,8.22
7042,5.17
7054,1.73
7066,-1.78
7078,-5.07
7090,-7.97
7102,-10.51
7114,-12.96
7126,-15.64
7138,-18.86
7150,-22.79
7162,-27.45
7174,-32.64
7186,-37.91
7198,-42.57
7210,-45.71
7221,-46.52
7232,-44.47
7244,-39.59
7256,-32.47
7268,-24.08
7280,-15.47
7292,-7.41
7304,-0.31
7316,5.81
7328,11.03
7340,15.45
7352,19.01
7364,21.63
7376,23.29
7388,24.1
7400,24.31
7411,24.26
7422,24.22
7434,24.35
7446,24.67
7458,25.07
7470,25.41
7482,25.55
7494,25.41
7506,24.99
7518,24.35
7530,23.55
7542,22.6
7554,21.42
7566,19.97
7578,18.22
7590,16.23
7601,14.14
7612,12.07
7624,10.06
7636,8.06
7648,5.96
7660,3.66
7672,1.13
7684,-1.56
7696,-4.34
7708,-7.15
7720,-10.04
7732,-13.08
7744,-16.41
7756,-20.1
7768,-24.12
7780,-28.31
7791,-32.28
7802,-35.43
7814,-37.09
7826,-36.67
7838,-33.93
7850,-29.04
7862,-22.59
7874,-15.37
7886,-8.16
7898,-1.5
7910,4.3
7922,9.16
7934,13.09
7946,16.12
7958,18.29
7970,19.61
7981,20.21
7992,20.23
8004,19.93
8016,19.55
8028,19.29
8040,19.26
8052,19.42
8064,19.62
8076,19.7
8088,19.53
8100,19.08
8112,18.42
8124,17.63
8136,16.76
8148,15.77
8160,14.58
8171,13.16
8182,11.52
8194,9.7
8206,7.71
8218,5.49
8230,2.94
8242,-0.01
8254,-3.3
8266,-6.76
8278,-10.15
8290,-13.24
8302,-15.91
8314,-18.24
8326,-20.44
8338,-22.8
8350,-25.59
8361,-29.02
8372,-33.1
8384,-37.57
8396,-41.9
8408,-45.26
8420,-46.79
8432,-45.78
8444,-42.02
8456,-35.86
8468,-28.15
8480,-19.92
8492,-12.07
8504,-5.11
8516,0.86
8528,5.99
8540,10.44
8551,14.26
8562,17.35
8574,19.58
8586,20.93
8598,21.54
8610,21.69
8622,21.7
8634,21.73
8646,21.82
8658,21.89
8670,21.82
8682,21.59
8694,21.27
8706,20.98
8718,20.79
8730,20.63
8741,20.3
8752,19.55
8764,18.22
8776,16.37
8788,14.24
8800,12.15
8812,10.33
8824,8.83
8836,7.49
8848,6.02
8860,4.17
8872,1.83
8884,-0.92
8896,-3.84
8908,-6.66
8920,-9.17
8931,-11.31
8942,-13.2
8954,-15.1
8966,-17.29
8978,-20.04
8990,-23.49
9002,-27.57
9014,-31.94
9026,-35.99
9038,-38.92
9050,-39.93
9062,-38.51
9074,-34.63
9086,-28.76
9098,-21.8
9110,-14.62
9121,-7.9
9132,-1.94
9144,3.28
9156,7.89
9168,11.95
9180,15.37
9192,18.02
9204,19.81
9216,20.82
9228,21.24
9240,21.35
9252,21.36
9264,21.36
9276,21.33
9288,21.21
9300,21.01
9311,20.74
9322,20.53
9334,20.43
9346,20.47
9358,20.55
9370,20.5
9382,20.15
9394,19.37
9406,18.13
9418,16.5
9430,14.6
9442,12.61
9454,10.67
9466,8.82
9478,7.0
9490,5.1
9501,2.96
9512,0.53
9524,-2.15
9536,-4.88
9548,-7.44
9560,-9.67
9572,-11.55
9584,-13.25
9596,-15.02
9608,-17.11
9620,-19.73
9632,-22.99
9644,-26.86
9656,-31.15
9668,-35.42
9680,-39.0
9691,-41.1
9702,-41.02
9714,-38.45
9726,-33.58
9738,-27.09
9750,-19.9
9762,-12.88
9774,-6.61
9786,-1.26
9798,3.29
9810,7.24
9822,10.72
9834,13.71
9846,16.09
9858,17.76
9870,18.69
9881,18.99
9892,18.85
9904,18.46
9916,17.97
9928,17.5
9940,17.08
9952,16.75
9964,16.52
9976,16.4
9988,16.37
10000,16.33
10012,16.17
10024,15.72
10036,14.85
10048,13.51
10060,11.73
10071,9.69
10082,7.61
10094,5.71
10106,4.09
10118,2.73
10130,1.47
10142,0.06
10154,-1.69
10166,-3.84
10178,-6.23
10190,-8.61
10202,-10.7
10214,-12.32
10226,-13.51
10238,-14.5
10250,-15.58
10261,-17.05
10272,-19.12
10284,-21.89
10296,-25.31
10308,-29.16
10320,-32.99
10332,-36.11
10344,-37.74
10356,-37.28
10368,-34.47
10380,-29.63
10392,-23.46
10404,-16.87
10416,-10.58
10428,-5.01
10440,-0.25
10451,3.77
10462,7.14
10474,9.84
10486,11.8
10498,12.99
10510,13.53
10522,13.65
10534,13.61
10546,13.59
10558,13.64
10570,13.72
10582,13.75
10594,13.71
10606,13.64
10618,13.63
10630,13.71
10641,13.82
10652,13.76
10664,13.32
10676,12.32
10688,10.76
10700,8.82
10712,6.8
10724,4.99
10736,3.51
10748,2.31
10760,1.19
10772,-0.09
10784,-1.66
10796,-3.54
10808,-5.63
10820,-7.77
10831,-9.87
10842,-11.82
10854,-13.55
10866,-15.04
10878,-16.31
10890,-17.5
10902,-18.88
10914,-20.78
10926,-23.45
10938,-26.86
10950,-30.6
10962,-33.89
10974,-35.82
10986,-35.67
10998,-33.14
11010,-28.46
11021,-22.33
11032,-15.6
11044,-9.09
11056,-3.34
11068,1.42
11080,5.22
11092,8.25
11104,10.65
11116,12.49
11128,13.72
11140,14.29
11152,14.19
11164,13.58
11176,12.71
11188,11.91
11200,11.44
11211,11.39
11222,11.71
11234,12.2
11246,12.63
11258,12.84
11270,12.8
11282,12.6
11294,12.32
11306,12.03
11318,11.65
11330,11.04
11342,10.05
11354,8.63
11366,6.94
11378,5.22
11390,3.75
11401,2.63
11412,1.73
11424,0.73
11436,-0.7
11448,-2.75
11460,-5.31
11472,-8.1
11484,-10.77
11496,-13.06
11508,-14.96
11520,-16.64
11532,-18.36
11544,-20.36
11556,-22.79
11568,-25.73
11580,-29.19
11591,-33.13
11602,-37.34
11614,-41.38
11626,-44.54
11638,-45.95
11650,-44.94
11662,-41.27
11674,-35.3
11686,-27.93
11698,-20.22
11710,-13.09
11722,-7.0
11734,-1.98
11746,2.21
11758,5.82
11770,8.95
11781,11.52
11792,13.39
11804,14.54
11816,15.1
11828,15.33
11840,15.48
11852,15.72
11864,16.06
11876,16.39
11888,16.59
11900,16.58
11912,16.38
11924,16.1
11936,15.91
11948,15.88
11960,15.98
11971,16.06
11982,15.89
11994,15.26
12006,14.11
12018,12.52
12030,10.71
12042,8.93
12054,7.32
12066,5.85
12078,4.33
12090,2.52
12102,0.28
12114,-2.36
12126,-5.19
12138,-7.96
12150,-10.45
12161,-12.6
12172,-14.47
12184,-16.27
12196,-18.19
12208,-20.46
12220,-23.27
12232,-26.77
12244,-31.01
12256,-35.84
12268,-40.81
12280,-45.19
12292,-48.09
12304,-48.71
12316,-46.64
12328,-41.95
12340,-35.26
12351,-27.46
12362,-19.49
12374,-12.05
12386,-5.52
12398,0.02
12410,4.64
12422,8.46
12434,11.52
12446,13.84
12458,15.42
12470,16.37
12482,16.9
12494,17.21
12506,17.49
12518,17.8
12530,18.07
12541,18.22
12552,18.18
12564,18.05
12576,18.0
12588,18.23
12600,18.76
12612,19.49
12624,20.1
12636,20.25
12648,19.72
12660,18.47
12672,16.66
12684,14.57
12696,12.46
12708,10.47
12720,8.59
12731,6.69
12742,4.58
12754,2.12
12766,-0.71
12778,-3.77
12790,-6.83
12802,-9.7
12814,-12.29
12826,-14.65
12838,-16.98
12850,-19.5
12862,-22.46
12874,-25.99
12886,-30.04
12898,-34.37
12910,-38.45
12921,-41.53
12932,-42.8
12944,-41.65
12956,-37.84
12968,-31.68
12980,-23.95
12992,-15.67
13004,-7.78
13016,-0.88
13028,4.79
13040,9.31
13052,12.87
13064,15.66
13076,17.75
13088,19.19
13100,20.05
13111,20.47
13122,20.66
13134,20.79
13146,20.95
13158,21.11
13170,21.2
13182,21.17
13194,21.03
13206,20.93
13218,20.94
13230,21.06
13242,21.15
13254,20.95
13266,20.21
13278,18.81
13290,16.88
13301,14.68
13312,12.54
13324,10.68
13336,9.1
13348,7.61
13360,5.95
13372,3.9
13384,1.39
13396,-1.49
13408,-4.56
13420,-7.66
13432,-10.68
13444,-13.64
13456,-16.6
13468,-19.7
13480,-23.14
13491,-27.09
13502,-31.7
13514,-36.95
13526,-42.5
13538,-47.66
13550,-51.47
13562,-52.95
13574,-51.44
13586,-46.86
13598,-39.8
13610,-31.29
13622,-22.49
13634,-14.28
13646,-7.1
13658,-0.96
13670,4.31
13681,8.89
13692,12.72
13704,15.66
13716,17.54
13728,18.41
13740,18.53
13752,18.32
13764,18.19
13776,18.36
13788,18.81
13800,19.39
13812,19.92
13824,20.31
13836,20.6
13848,20.86
13860,21.11
13871,21.22
13882,20.99
13894,20.2
13906,18.75
13918,16.68
13930,14.17
13942,11.49
13954,8.86
13966,6.43
13978,4.24
13990,2.24
14002,0.3
14014,-1.72
14026,-3.95
14038,-6.43
14050,-9.09
14061,-11.78
14072,-14.37
14084,-16.77
14096,-19.03
14108,-21.35
14120,-23.98
14132,-27.23
14144,-31.23
14156,-35.97
14168,-41.12
14180,-46.04
14192,-49.9
14204,-51.82
14216,-51.18
14228,-47.73
14240,-41.78
14251,-33.98
14262,-25.2
14274,-16.24
14286,-7.67
14298,0.18
14310,7.17
14322,13.26
14334,18.44
14346,22.68
14358,26.02
14370,28.53
14382,30.39
14394,31.81
14406,33.04
14418,34.28
14430,35.58
14441,36.84
14452,37.84
14464,38.33
14476,38.19
14488,37.56
14500,36.73
14512,36.05
14524,35.67
14536,35.49
14548,35.15
14560,34.26
14572,32.61
14584,30.29
14596,27.65
14608,25.13
14620,23.03
14631,21.34
14642,19.81
14654,18.05
14666,15.71
14678,12.66
14690,8.97
14702,4.94
14714,0.89
14726,-2.89
14738,-6.29
14750,-9.41
14762,-12.52
14774,-15.95
14786,-20.01
14798,-24.9
14810,-30.59
14821,-36.78
14832,-42.82
14844,-47.85
14856,-50.93
14868,-51.35
14880,-48.8
14892,-43.56
14904,-36.34
14916,-28.09
14928,-19.6
14940,-11.38
14952,-3.56
14964,3.94
14976,11.17
14988,17.99
15000,24.12
15011,29.21
15022,33.08
15034,35.74
15046,37.48
15058,38.63
15070,39.51
15082,40.24
15094,40.77
15106,40.97
15118,40.76
15130,40.2
15142,39.45
15154,38.68
15166,37.95
15178,37.12
15190,35.93
15201,34.08
15212,31.41
15224,28.01
15236,24.14
15248,20.15
15260,16.38
15272,13.0
15284,9.98
15296,7.16
15308,4.28
15320,1.16
15332,-2.24
15344,-5.81
15356,-9.26
15368,-12.35
15380,-14.93
15391,-17.03
15402,-18.88
15414,-20.8
15426,-23.16
15438,-26.2
15450,-30.05
15462,-34.61
15474,-39.56
15486,-44.33
15498,-48.12
15510,-50.1
15522,-49.55
15534,-46.13
15546,-40.0
15558,-31.83
15570,-22.56
15581,-13.2
15592,-4.5
15604,3.09
15616,9.47
15628,14.68
15640,18.82
15652,21.9
15664,23.92
15676,25.01
15688,25.42
15700,25.52
15712,25.68
15724,26.07
15736,26.66
15748,27.27
15760,27.7
15771,27.87
15782,27.82
15794,27.67
15806,27.49
15818,27.23
15830,26.76
15842,25.89
15854,24.52
15866,22.65
15878,20.38
15890,17.88
15902,15.26
15914,12.6
15926,9.93
15938,7.2
15950,4.38
15961,1.45
15972,-1.55
15984,-4.55
15996,-7.5
16008,-10.41
16020,-13.36
16032,-16.6
16044,-20.37
16056,-24.87
16068,-30.06
16080,-35.56
16092,-40.65
16104,-44.36
16116,-45.8
16128,-44.38
16140,-40.08
16151,-33.43
16162,-25.3
16174,-16.67
16186,-8.29
16198,-0.6
16210,6.22
16222,12.15
16234,17.19
16246,21.29
16258,24.37
16270,26.45
16282,27.64
16294,28.2
16306,28.39
16318,28.47
16330,28.57
16341,28.72
16352,28.86
16364,28.89
16376,28.78
16388,28.58
16400,28.36
16412,28.2
16424,28.02
16436,27.62
16448,26.7
16460,25.03
16472,22.53
16484,19.39
16496,16.0
16508,12.75
16520,9.88
16531,7.37
16542,4.98
16554,2.39
16566,-0.63
16578,-4.11
16590,-7.84
16602,-11.52
16614,-14.85
16626,-17.67
16638,-20.01
16650,-22.13
16662,-24.43
16674,-27.35
16686,-31.27
16698,-36.27
16710,-42.06
16721,-47.89
16732,-52.72
16744,-55.44
16756,-55.19
16768,-51.62
16780,-45.03
16792,-36.26
16804,-26.43
16816,-16.66
16828,-7.72
16840,0.04
16852,6.63
16864,12.28
16876,17.22
16888,21.47
16900,24.95
16911,27.51
16922,29.12
16934,29.94
16946,30.32
16958,30.61
16970,31.06
16982,31.72
16994,32.44
17006,33.02
17018,33.32
17030,33.35
17042,33.23
17054,33.09
17066,32.92
17078,32.56
17090,31.79
17101,30.4
17112,28.36
17124,25.83
17136,23.07
17148,20.33
17160,17.76
17172,15.33
17184,12.93
17196,10.39
17208,7.57
17220,4.43
17232,1.03
17244,-2.51
17256,-6.0
17268,-9.26
17280,-12.18
17291,-14.81
17302,-17.4
17314,-20.35
17326,-24.12
17338,-29.03
17350,-35.07
17362,-41.79
17374,-48.33
17386,-53.54
17398,-56.36
17410,-56.08
17422,-52.54
17434,-46.16
17446,-37.8
17458,-28.48
17470,-19.12
17481,-10.38
17492,-2.56
17504,4.24
17516,10.06
17528,14.95
17540,18.92
17552,21.96
17564,24.08
17576,25.37
17588,26.03
17600,26.35
17612,26.61
17624,26.98
17636,27.49
17648,28.06
17660,28.56
17671,28.93
17682,29.22
17694,29.54
17706,29.93
17718,30.31
17730,30.42
17742,29.92
17754,28.55
17766,26.29
17778,23.39
17790,20.28
17802,17.39
17814,14.95
17826,12.91
17838,11.01
17850,8.88
17861,6.23
17872,2.96
17884,-0.78
17896,-4.65
17908,-8.31
17920,-11.52
17932,-14.24
17944,-16.64
17956,-19.08
17968,-21.95
17980,-25.55
17992,-30.07
18004,-35.37
18016,-41.07
18028,-46.44
18040,-50.56
18051,-52.52
18062,-51.68
18074,-47.85
18086,-41.45
18098,-33.32
18110,-24.49
18122,-15.9
18134,-8.15
18146,-1.49
18158,4.08
18170,8.73
18182,12.6
18194,15.77
18206,18.28
18218,20.14
18230,21.38
18241,22.09
18252,22.38
18264,22.41
18276,22.34
18288,22.3
18300,22.38
18312,22.58
18324,22.84
18336,23.09
18348,23.21
18360,23.14
18372,22.81
18384,22.19
18396,21.25
18408,19.97
18420,18.36
18431,16.51
18442,14.53
18454,12.54
18466,10.59
18478,8.62
18490,6.47
18502,3.97
18514,1.07
18526,-2.13
18538,-5.39
18550,-8.45
18562,-11.16
18574,-13.59
18586,-15.98
18598,-18.68
18610,-21.97
18621,-25.97
18632,-30.54
18644,-35.27
18656,-39.54
18668,-42.56
18680,-43.59
18692,-42.11
18704,-38.0
18716,-31.59
18728,-23.63
18740,-15.07
18752,-6.81
18764,0.49
18776,6.51
18788,11.21
18800,14.72
18811,17.2
18822,18.77
18834,19.49
18846,19.47
18858,18.9
18870,18.11
18882,17.44
18894,17.15
18906,17.29
18918,17.72
18930,18.21
18942,18.63
18954,18.99
18966,19.44
18978,20.08
18990,20.82
19001,21.3
19012,21.1
19024,19.92
19036,17.8
19048,15.1
19060,12.34
19072,9.96
19084,8.11
19096,6.6
19108,5.06
19120,3.12
19132,0.54
19144,-2.65
19156,-6.24
19168,-9.88
19180,-13.3
19191,-16.33
19202,-18.95
19214,-21.38
19226,-23.94
19238,-27.02
19250,-30.95
19262,-35.8
19274,-41.35
19286,-46.97
19298,-51.74
19310,-54.64
19322,-54.85
19334,-51.98
19346,-46.27
19358,-38.48
19370,-29.67
19381,-20.88
19392,-12.87
19404,-5.99
19416,-0.23
19428,4.67
19440,8.93
19452,12.69
19464,15.89
19476,18.41
19488,20.17
19500,21.24
19512,21.85
19524,22.29
19536,22.81
19548,23.48
19560,24.22
19571,24.86
19582,25.33
19594,25.61
19606,25.84
19618,26.11
19630,26.38
19642,26.47
19654,26.14
19666,25.18
19678,23.55
19690,21.36
19702,18.8
19714,16.1
19726,13.41
19738,10.78
19750,8.17
19761,5.49
19772,2.66
19784,-0.32
19796,-3.38
19808,-6.44
19820,-9.35
19832,-12.06
19844,-14.59
19856,-17.1
19868,-19.78
19880,-22.9
19892,-26.65
19904,-31.12
19916,-36.16
19928,-41.34
19940,-45.92
19951,-49.0
19962,-49.75
19974,-47.71
19986,-42.94
19998,-36.03
20010,-27.89
20022,-19.46
20034,-11.48
20046,-4.34
20058,1.86
20070,7.17
20082,11.67
20094,15.34
20106,18.15
20118,20.08
20130,21.17
20141,21.63
20152,21.73
20164,21.77
20176,21.99
20188,22.46
20200,23.09
20212,23.65
20224,23.99
20236,24.04
20248,23.9
20260,23.73
20272,23.65
20284,23.57
20296,23.26
20308,22.42
20320,20.81
20331,18.47
20342,15.62
20354,12.65
20366,9.9
20378,7.56
20390,5.59
20402,3.75
20414,1.79
20426,-0.53
20438,-3.25
20450,-6.25
20462,-9.27
20474,-12.06
20486,-14.47
20498,-16.56
20510,-18.52
20521,-20.65
20532,-23.26
20544,-26.57
20556,-30.65
20568,-35.36
20580,-40.33
20592,-44.87
20604,-48.1
20616,-49.16
20628,-47.45
20640,-42.92
20652,-36.09
20664,-27.9
20676,-19.4
20688,-11.44
20700,-4.48
20711,1.4
20722,6.28
20734,10.27
20746,13.37
20758,15.55
20770,16.83
20782,17.39
20794,17.52
20806,17.57
20818,17.81
20830,18.36
20842,19.13
20854,19.98
20866,20.73
20878,21.23
20890,21.45
20901,21.43
20912,21.23
20924,20.87
20936,20.28
20948,19.32
20960,17.91
20972,16.02
20984,13.82
20996,11.57
