seconds,BVP
6,11.3
18,8.55
30,5.99
42,3.69
54,1.63
66,-0.35
78,-2.43
90,-4.72
102,-7.23
114,-9.83
126,-12.31
138,-14.51
150,-16.36
161,-17.98
172,-19.63
184,-21.65
196,-24.28
208,-27.56
220,-31.18
232,-34.54
244,-36.85
256,-37.38
268,-35.63
280,-31.51
292,-25.33
304,-17.77
316,-9.64
328,-1.73
340,5.33
351,11.18
362,15.66
374,18.78
386,20.68
398,21.53
410,21.53
422,20.94
434,20.02
446,19.04
458,18.21
470,17.65
482,17.37
494,17.3
506,17.34
518,17.41
530,17.5
541,17.65
552,17.89
564,18.23
576,18.61
588,18.91
600,18.98
612,18.7
624,17.94
636,16.69
648,14.98
660,12.92
672,10.65
684,8.28
696,5.96
708,3.77
720,1.81
731,0.07
742,-1.49
754,-2.99
766,-4.56
778,-6.31
790,-8.31
802,-10.53
814,-12.87
826,-15.19
838,-17.34
850,-19.23
862,-20.88
874,-22.43
886,-24.11
898,-26.24
910,-29.03
921,-32.48
932,-36.25
944,-39.6
956,-41.64
968,-41.5
980,-38.66
992,-33.08
1004,-25.24
1016,-15.98
1028,-6.34
1040,2.69
1052,10.33
1064,16.09
1076,19.87
1088,21.89
1100,22.55
1111,22.35
1122,21.71
1134,20.89
1146,20.05
1158,19.23
1170,18.5
1182,17.92
1194,17.54
1206,17.37
1218,17.36
1230,17.46
1242,17.62
1254,17.83
1266,18.12
1278,18.49
1290,18.88
1301,19.16
1312,19.19
1324,18.84
1336,18.01
1348,16.73
1360,15.1
1372,13.29
1384,11.47
1396,9.78
1408,8.2
1420,6.65
1432,4.99
1444,3.13
1456,1.13
1468,-0.84
1480,-2.56
1491,-3.94
1502,-5.08
1514,-6.25
1526,-7.75
1538,-9.75
1550,-12.2
1562,-14.82
1574,-17.26
1586,-19.28
1598,-20.8
1610,-21.94
1622,-22.97
1634,-24.18
1646,-25.81
1658,-28.04
1670,-30.87
1681,-34.12
1692,-37.34
1704,-39.82
1716,-40.75
1728,-39.45
1740,-35.66
1752,-29.58
1764,-21.94
1776,-13.68
1788,-5.67
1800,1.45
1812,7.38
1824,12.02
1836,15.42
1848,17.61
1860,18.67
1871,18.71
1882,17.98
1894,16.76
1906,15.38
1918,14.11
1930,13.16
1942,12.66
1954,12.64
1966,13.07
1978,13.84
1990,14.81
2002,15.8
2014,16.68
2026,17.3
2038,17.58
2050,17.42
2061,16.81
2072,15.83
2084,14.62
2096,13.38
2108,12.24
2120,11.26
2132,10.37
2144,9.45
2156,8.4
2168,7.18
2180,5.75
2192,4.13
2204,2.31
2216,0.36
2228,-1.58
2240,-3.35
2251,-4.77
2262,-5.83
2274,-6.64
2286,-7.39
2298,-8.27
2310,-9.36
2322,-10.58
2334,-11.81
2346,-12.97
2358,-14.09
2370,-15.31
2382,-16.81
2394,-18.73
2406,-21.14
2418,-23.92
2430,-26.77
2441,-29.15
2452,-30.4
2464,-29.88
2476,-27.2
2488,-22.4
2500,-16.02
2512,-8.88
2524,-1.87
2536,4.4
2548,9.66
2560,13.93
2572,17.26
2584,19.61
2596,20.74
2608,20.45
2620,18.75
2631,16.04
2642,12.98
2654,10.33
2666,8.64
2678,8.06
2690,8.37
2702,9.2
2714,10.18
2726,11.12
2738,11.96
2750,12.71
2762,13.34
2774,13.76
2786,13.86
2798,13.59
2810,12.97
2821,12.06
2832,10.93
2844,9.6
2856,8.07
2868,6.33
2880,4.41
2892,2.34
2904,0.24
2916,-1.77
2928,-3.56
2940,-5.07
2952,-6.32
2964,-7.45
2976,-8.68
2988,-10.12
3000,-11.77
3011,-13.49
3022,-15.08
3034,-16.4
3046,-17.49
3058,-18.49
3070,-19.64
3082,-21.1
3094,-22.98
3106,-25.26
3118,-27.84
3130,-30.43
3142,-32.54
3154,-33.54
3166,-32.78
3178,-29.85
3190,-24.76
3201,-18.01
3212,-10.41
3224,-2.82
3236,4.03
3248,9.7
3260,14.0
3272,16.96
3284,18.69
3296,19.37
3308,19.16
3320,18.24
3332,16.85
3344,15.23
3356,13.63
3368,12.28
3380,11.33
3391,10.84
3402,10.79
3414,11.08
3426,11.61
3438,12.28
3450,13.04
3462,13.82
3474,14.55
3486,15.13
3498,15.45
3510,15.41
3522,14.92
3534,13.92
3546,12.44
3558,10.59
3570,8.55
3581,6.56
3592,4.77
3604,3.22
3616,1.83
3628,0.48
3640,-0.99
3652,-2.65
3664,-4.52
3676,-6.55
3688,-8.67
3700,-10.84
3712,-13.02
3724,-15.18
3736,-17.22
3748,-19.07
3760,-20.68
3771,-22.09
3782,-23.5
3794,-25.24
3806,-27.6
3818,-30.65
3830,-34.07
3842,-37.11
3854,-38.8
3866,-38.26
3878,-35.03
3890,-29.27
3902,-21.68
3914,-13.24
3926,-4.87
3938,2.74
3950,9.22
3961,14.46
3972,18.41
3984,21.08
3996,22.49
4008,22.72
4020,22.01
4032,20.68
4044,19.16
4056,17.8
4068,16.82
4080,16.25
4092,16.01
4104,15.94
4116,15.98
4128,16.13
4140,16.49
4151,17.07
4162,17.8
4174,18.48
4186,18.84
4198,18.71
4210,18.09
4222,17.17
4234,16.16
4246,15.24
4258,14.42
4270,13.55
4282,12.43
4294,10.92
4306,9.05
4318,6.99
4330,4.99
4341,3.22
4352,1.71
4364,0.3
4376,-1.22
4388,-3.0
4400,-5.09
4412,-7.36
4424,-9.62
4436,-11.71
4448,-13.58
4460,-15.23
4472,-16.76
4484,-18.25
4496,-19.79
4508,-21.52
4520,-23.62
4531,-26.29
4542,-29.62
4554,-33.45
4566,-37.26
4578,-40.23
4590,-41.45
4602,-40.24
4614,-36.35
4626,-30.13
4638,-22.37
4650,-14.01
4662,-5.9
4674,1.39
4686,7.61
4698,12.69
4710,16.59
4721,19.32
4732,20.89
4744,21.41
4756,21.11
4768,20.29
4780,19.24
4792,18.18
4804,17.24
4816,16.46
4828,15.85
4840,15.47
4852,15.35
4864,15.55
4876,16.04
4888,16.76
4900,17.58
4911,18.35
4922,18.9
4934,19.04
4946,18.66
4958,17.74
4970,16.35
4982,14.68
4994,12.93
5006,11.25
5018,9.64
5030,8.03
5042,6.3
5054,4.4
5066,2.39
5078,0.42
5090,-1.35
5101,-2.81
5112,-4.02
5124,-5.12
5136,-6.33
5148,-7.86
5160,-9.81
5172,-12.11
5184,-14.6
5196,-16.99
5208,-19.04
5220,-20.59
5232,-21.68
5244,-22.56
5256,-23.61
5268,-25.25
5280,-27.77
5291,-31.17
5302,-35.11
5314,-38.87
5326,-41.55
5338,-42.3
5350,-40.55
5362,-36.22
5374,-29.72
5386,-21.86
5398,-13.56
5410,-5.59
5422,1.54
5434,7.58
5446,12.46
5458,16.16
5470,18.66
5481,19.95
5492,20.11
5504,19.32
5516,17.94
5528,16.33
5540,14.86
5552,13.74
5564,13.01
5576,12.66
5588,12.65
5600,12.99
5612,13.69
5624,14.72
5636,15.93
5648,17.07
5660,17.9
5671,18.23
5682,18.07
5694,17.51
5706,16.71
5718,15.77
5730,14.73
5742,13.51
5754,12.09
5766,10.45
5778,8.65
5790,6.78
5802,4.91
5814,3.1
5826,1.39
5838,-0.18
5850,-1.62
5861,-2.95
5872,-4.29
5884,-5.77
5896,-7.48
5908,-9.4
5920,-11.42
5932,-13.32
5944,-14.97
5956,-16.36
5968,-17.67
5980,-19.21
5992,-21.23
6004,-23.87
6016,-27.0
6028,-30.28
6040,-33.2
6051,-35.18
6062,-35.65
6074,-34.21
6086,-30.72
6098,-25.38
6110,-18.73
6122,-11.54
6134,-4.58
6146,1.54
6158,6.55
6170,10.45
6182,13.42
6194,15.7
6206,17.42
6218,18.65
6230,19.43
6241,19.77
6252,19.76
6264,19.52
6276,19.17
6288,18.84
6300,18.64
6312,18.61
6324,18.77
6336,19.05
6348,19.32
6360,19.41
6372,19.14
6384,18.44
6396,17.31
6408,15.86
6420,14.21
6431,12.45
6442,10.58
6454,8.54
6466,6.28
6478,3.84
6490,1.31
6502,-1.17
6514,-3.57
6526,-5.92
6538,-8.33
6550,-10.86
6562,-13.41
6574,-15.7
6586,-17.38
6598,-18.14
6610,-17.96
6621,-17.02
6632,-15.74
6644,-14.6
6656,-14.02
6668,-14.28
6680,-15.53
6692,-17.71
6704,-20.59
6716,-23.73
6728,-26.49
6740,-28.13
6752,-28.01
6764,-25.74
6776,-21.31
6788,-15.12
6800,-7.84
6811,-0.26
6822,6.88
6834,13.09
6846,18.1
6858,21.84
6870,24.33
6882,25.62
6894,25.78
6906,24.93
6918,23.23
6930,20.97
6942,18.46
6954,16.03
6966,13.99
6978,12.56
6990,11.89
7001,12.06
7012,13.0
7024,14.56
7036,16.51
7048,18.57
7060,20.46
7072,21.98
7084,22.94
7096,23.26
7108,22.91
7120,21.92
7132,20.39
7144,18.47
7156,16.31
7168,14.05
7180,11.82
7191,9.69
7202,7.67
7214,5.76
7226,3.89
7238,1.95
7250,-0.14
7262,-2.49
7274,-5.12
7286,-7.99
7298,-11.01
7310,-14.08
7322,-17.05
7334,-19.83
7346,-22.35
7358,-24.57
7370,-26.59
7381,-28.57
7392,-30.74
7404,-33.3
7416,-36.25
7428,-39.29
7440,-41.81
7452,-42.97
7464,-42.03
7476,-38.57
7488,-32.7
7500,-25.04
7512,-16.5
7524,-8.03
7536,-0.31
7548,6.29
7560,11.67
7571,15.85
7582,18.83
7594,20.63
7606,21.26
7618,20.89
7630,19.82
7642,18.47
7654,17.21
7666,16.3
7678,15.77
7690,15.51
7702,15.38
7714,15.27
7726,15.25
7738,15.42
7750,15.93
7761,16.77
7772,17.78
7784,18.7
7796,19.19
7808,19.06
7820,18.26
7832,16.95
7844,15.41
7856,13.9
7868,12.58
7880,11.42
7892,10.24
7904,8.84
7916,7.07
7928,4.95
7940,2.67
7951,0.48
7962,-1.46
7974,-3.1
7986,-4.62
7998,-6.23
8010,-8.11
8022,-10.31
8034,-12.69
8046,-15.03
8058,-17.14
8070,-18.9
8082,-20.38
8094,-21.72
8106,-23.18
8118,-25.01
8130,-27.41
8141,-30.46
8152,-34.0
8164,-37.62
8176,-40.65
8188,-42.29
8200,-41.86
8212,-38.97
8224,-33.66
8236,-26.41
8248,-18.0
8260,-9.3
8272,-1.06
8284,6.18
8296,12.12
8308,16.65
8320,19.75
8331,21.53
8342,22.13
8354,21.81
8366,20.85
8378,19.61
8390,18.37
8402,17.36
8414,16.67
8426,16.29
8438,16.19
8450,16.31
8462,16.63
8474,17.14
8486,17.8
8498,18.54
8510,19.25
8521,19.82
8532,20.19
8544,20.32
8556,20.18
8568,19.76
8580,19.04
8592,17.99
8604,16.62
8616,14.98
8628,13.13
8640,11.18
8652,9.2
8664,7.22
8676,5.22
8688,3.24
8700,1.29
8711,-0.55
8722,-2.23
8734,-3.75
8746,-5.13
8758,-6.5
8770,-7.98
8782,-9.67
8794,-11.59
8806,-13.62
8818,-15.63
8830,-17.47
8842,-19.09
8854,-20.58
8866,-22.12
8878,-23.93
8890,-26.26
8901,-29.21
8912,-32.7
8924,-36.34
8936,-39.53
8948,-41.48
8960,-41.44
8972,-38.93
8984,-33.86
8996,-26.6
9008,-17.86
9020,-8.57
9032,0.39
9044,8.32
9056,14.81
9068,19.7
9080,23.06
9091,25.07
9102,25.93
9114,25.83
9126,24.97
9138,23.55
9150,21.85
9162,20.14
9174,18.68
9186,17.64
9198,17.03
9210,16.79
9222,16.83
9234,17.07
9246,17.44
9258,17.84
9270,18.14
9281,18.18
9292,17.86
9304,17.17
9316,16.18
9328,15.04
9340,13.87
9352,12.7
9364,11.52
9376,10.3
9388,9.0
9400,7.61
9412,6.15
9424,4.62
9436,3.04
9448,1.39
9460,-0.29
9471,-1.98
9482,-3.62
9494,-5.18
9506,-6.66
9518,-8.14
9530,-9.7
9542,-11.43
9554,-13.39
9566,-15.49
9578,-17.56
9590,-19.42
9602,-20.97
9614,-22.3
9626,-23.66
9638,-25.44
9650,-27.96
9661,-31.29
9672,-35.12
9684,-38.78
9696,-41.39
9708,-42.14
9720,-40.52
9732,-36.48
9744,-30.4
9756,-22.96
9768,-14.95
9780,-7.07
9792,0.12
9804,6.2
9816,10.92
9828,14.16
9840,15.95
9851,16.5
9862,16.14
9874,15.25
9886,14.25
9898,13.42
9910,12.96
9922,12.91
9934,13.26
9946,13.91
9958,14.79
9970,15.87
9982,17.14
9994,18.6
10006,20.17
10018,21.71
10030,22.97
10041,23.73
10052,23.85
10064,23.33
10076,22.32
10088,21.01
10100,19.58
10112,18.13
10124,16.67
10136,15.07
10148,13.24
10160,11.1
10172,8.71
10184,6.25
10196,3.93
10208,1.9
10220,0.18
10231,-1.4
10242,-3.08
10254,-5.1
10266,-7.53
10278,-10.29
10290,-13.15
10302,-15.85
10314,-18.25
10326,-20.33
10338,-22.22
10350,-24.12
10362,-26.27
10374,-28.87
10386,-32.02
10398,-35.67
10410,-39.5
10421,-42.92
10432,-45.17
10444,-45.48
10456,-43.27
10468,-38.44
10480,-31.34
10492,-22.75
10504,-13.57
10516,-4.64
10528,3.46
10540,10.37
10552,15.92
10564,20.06
10576,22.79
10588,24.21
10600,24.55
10611,24.13
10622,23.28
10634,22.23
10646,21.1
10658,19.96
10670,18.84
10682,17.87
10694,17.19
10706,16.94
10718,17.15
10730,17.73
10742,18.48
10754,19.18
10766,19.61
10778,19.61
10790,19.12
10801,18.16
10812,16.82
10824,15.26
10836,13.69
10848,12.22
10860,10.9
10872,9.61
10884,8.23
10896,6.61
10908,4.73
10920,2.69
10932,0.64
10944,-1.25
10956,-2.9
10968,-4.34
10980,-5.73
10991,-7.18
11002,-8.74
11014,-10.35
11026,-11.84
11038,-13.05
11050,-13.95
11062,-14.66
11074,-15.41
11086,-16.53
11098,-18.31
11110,-21.01
11122,-24.67
11134,-29.12
11146,-33.83
11158,-37.99
11170,-40.65
11181,-40.96
11192,-38.48
11204,-33.34
11216,-26.18
11228,-17.93
11240,-9.55
11252,-1.75
11264,5.02
11276,10.56
11288,14.76
11300,17.56
11312,18.98
11324,19.12
11336,18.28
11348,16.89
11360,15.43
11371,14.27
11382,13.64
11394,13.57
11406,13.98
11418,14.74
11430,15.76
11442,16.98
11454,18.29
11466,19.57
11478,20.61
11490,21.27
11502,21.42
11514,21.12
11526,20.49
11538,19.7
11550,18.91
11561,18.17
11572,17.46
11584,16.7
11596,15.78
11608,14.63
11620,13.28
11632,11.88
11644,10.58
11656,9.49
11668,8.55
11680,7.53
11692,6.1
11704,4.02
11716,1.23
11728,-2.03
11740,-5.38
11751,-8.44
11762,-10.96
11774,-12.95
11786,-14.59
11798,-16.15
11810,-17.9
11822,-20.08
11834,-22.81
11846,-26.03
11858,-29.45
11870,-32.43
11882,-34.19
11894,-33.96
11906,-31.22
11918,-25.95
11930,-18.61
11941,-10.03
11952,-1.25
11964,6.79
11976,13.37
11988,18.07
12000,20.8
12012,21.68
12024,20.98
12036,19.03
12048,16.19
12060,12.84
12072,9.43
12084,6.37
12096,4.04
12108,2.63
12120,2.11
12131,2.22
12142,2.6
12154,2.95
12166,3.13
12178,3.19
12190,3.28
12202,3.52
12214,3.92
12226,4.37
12238,4.64
12250,4.55
12262,4.0
12274,3.01
12286,1.74
12298,0.36
12310,-0.99
12321,-2.27
12332,-3.51
12344,-4.84
12356,-6.32
12368,-7.98
12380,-9.78
12392,-11.61
12404,-13.34
12416,-14.89
12428,-16.18
12440,-17.25
12452,-18.22
12464,-19.25
12476,-20.51
12488,-22.14
12500,-24.18
12511,-26.55
12522,-29.0
12534,-31.13
12546,-32.38
12558,-32.18
12570,-30.11
12582,-26.05
12594,-20.27
12606,-13.35
12618,-6.04
12630,0.94
12642,7.12
12654,12.26
12666,16.24
12678,19.04
12690,20.58
12701,20.85
12712,20.0
12724,18.37
12736,16.46
12748,14.79
12760,13.7
12772,13.3
12784,13.46
12796,13.96
12808,14.6
12820,15.29
12832,15.98
12844,16.6
12856,17.07
12868,17.27
12880,17.13
12891,16.64
12902,15.84
12914,14.76
12926,13.38
12938,11.72
12950,9.79
12962,7.66
12974,5.41
12986,3.1
12998,0.69
13010,-1.9
13022,-4.7
13034,-7.68
13046,-10.66
13058,-13.43
13070,-15.81
13081,-17.78
13092,-19.47
13104,-21.16
13116,-23.14
13128,-25.58
13140,-28.46
13152,-31.44
13164,-33.94
13176,-35.26
13188,-34.76
13200,-32.12
13212,-27.45
13224,-21.25
13236,-14.26
13248,-7.24
13260,-0.71
13271,5.05
13282,10.0
13294,14.21
13306,17.71
13318,20.46
13330,22.35
13342,23.3
13354,23.31
13366,22.57
13378,21.37
13390,20.02
13402,18.8
13414,17.86
13426,17.24
13438,16.91
13450,16.83
13461,17.04
13472,17.56
13484,18.42
13496,19.46
13508,20.42
13520,20.93
13532,20.71
13544,19.65
13556,17.92
13568,15.82
13580,13.71
13592,11.82
13604,10.23
13616,8.86
13628,7.54
13640,6.11
13651,4.42
13662,2.4
13674,-0.0
13686,-2.73
13698,-5.65
13710,-8.57
13722,-11.32
13734,-13.82
13746,-16.09
13758,-18.26
13770,-20.51
13782,-22.93
13794,-25.62
13806,-28.61
13818,-31.88
13830,-35.29
13841,-38.49
13852,-40.88
13864,-41.7
13876,-40.27
13888,-36.25
13900,-29.81
13912,-21.59
13924,-12.53
13936,-3.61
13948,4.43
13960,11.14
13972,16.37
13984,20.15
13996,22.6
14008,23.89
14020,24.2
14031,23.81
14042,23.02
14054,22.2
14066,21.67
14078,21.64
14090,22.1
14102,22.89
14114,23.74
14126,24.36
14138,24.65
14150,24.62
14162,24.44
14174,24.27
14186,24.15
14198,23.95
14210,23.42
14221,22.33
14232,20.62
14244,18.43
14256,16.02
14268,13.69
14280,11.6
14292,9.75
14304,8.05
14316,6.39
14328,4.73
14340,3.04
14352,1.25
14364,-0.77
14376,-3.14
14388,-5.91
14400,-8.98
14411,-12.08
14422,-14.93
14434,-17.38
14446,-19.46
14458,-21.42
14470,-23.52
14482,-26.03
14494,-29.07
14506,-32.65
14518,-36.57
14530,-40.42
14542,-43.56
14554,-45.23
14566,-44.7
14578,-41.58
14590,-35.97
14601,-28.44
14612,-19.84
14624,-11.06
14636,-2.78
14648,4.57
14660,10.79
14672,15.77
14684,19.44
14696,21.79
14708,22.94
14720,23.13
14732,22.77
14744,22.25
14756,21.86
14768,21.7
14780,21.71
14791,21.71
14802,21.54
14814,21.12
14826,20.46
14838,19.63
14850,18.72
14862,17.82
14874,16.95
14886,16.19
14898,15.56
14910,15.07
14922,14.69
14934,14.33
14946,13.86
14958,13.16
14970,12.11
14981,10.63
14992,8.68
15004,6.25
15016,3.41
15028,0.33
15040,-2.75
15052,-5.55
15064,-7.92
15076,-9.87
15088,-11.58
15100,-13.31
15112,-15.32
15124,-17.73
15136,-20.56
15148,-23.62
15160,-26.66
15171,-29.32
15182,-31.28
15194,-32.33
15206,-32.5
15218,-32.11
15230,-31.58
15242,-31.28
15254,-31.29
15266,-31.24
15278,-30.45
15290,-28.24
15302,-24.22
15314,-18.49
15326,-11.6
15338,-4.29
15350,2.74
15361,9.05
15372,14.51
15384,19.11
15396,22.88
15408,25.68
15420,27.35
15432,27.72
15444,26.87
15456,25.1
15468,22.92
15480,20.88
15492,19.36
15504,18.5
15516,18.24
15528,18.37
15540,18.71
15551,19.14
15562,19.58
15574,19.97
15586,20.2
15598,20.13
15610,19.68
15622,18.85
15634,17.78
15646,16.63
15658,15.55
15670,14.59
15682,13.68
15694,12.7
15706,11.53
15718,10.11
15730,8.47
15741,6.68
15752,4.79
15764,2.85
15776,0.82
15788,-1.33
15800,-3.63
15812,-6.05
15824,-8.54
15836,-11.03
15848,-13.44
15860,-15.69
15872,-17.71
15884,-19.46
15896,-20.97
15908,-22.36
15920,-23.91
15931,-25.9
15942,-28.54
15954,-31.76
15966,-35.09
15978,-37.73
15990,-38.79
16002,-37.58
16014,-33.88
16026,-28.03
16038,-20.77
16050,-12.99
16062,-5.47
16074,1.28
16086,6.99
16098,11.52
16110,14.78
16121,16.71
16132,17.33
16144,16.83
16156,15.57
16168,13.99
16180,12.52
16192,11.43
16204,10.79
16216,10.53
16228,10.53
16240,10.65
16252,10.85
16264,11.11
16276,11.42
16288,11.79
16300,12.15
16311,12.41
16322,12.45
16334,12.14
16346,11.36
16358,9.99
16370,7.98
16382,5.39
16394,2.45
16406,-0.5
16418,-3.03
16430,-4.8
16442,-5.65
16454,-5.68
16466,-5.16
16478,-4.45
16490,-3.84
16501,-3.44
16512,-3.24
16524,-3.12
16536,-3.03
16548,-3.03
16560,-3.3
16572,-4.03
16584,-5.33
16596,-7.23
16608,-9.68
16620,-12.6
16632,-15.89
16644,-19.31
16656,-22.45
16668,-24.68
16680,-25.29
16691,-23.77
16702,-19.96
16714,-14.2
16726,-7.23
16738,0.07
16750,6.92
16762,12.84
16774,17.64
16786,21.33
16798,23.99
16810,25.69
16822,26.54
16834,26.7
16846,26.44
16858,26.13
16870,26.11
16881,26.65
16892,27.79
16904,29.39
16916,31.14
16928,32.73
16940,33.85
16952,34.36
16964,34.21
16976,33.47
16988,32.22
17000,30.5
17012,28.33
17024,25.66
17036,22.47
17048,18.8
17060,14.81
17071,10.73
17082,6.87
17094,3.42
17106,0.47
17118,-2.07
17130,-4.4
17142,-6.72
17154,-9.13
17166,-11.61
17178,-14.02
17190,-16.15
17202,-17.79
17214,-18.81
17226,-19.19
17238,-19.05
17250,-18.65
17261,-18.33
17272,-18.52
17284,-19.51
17296,-21.43
17308,-24.1
17320,-27.01
17332,-29.48
17344,-30.79
17356,-30.41
17368,-28.19
17380,-24.31
17392,-19.29
17404,-13.74
17416,-8.27
17428,-3.38
17440,0.6
17451,3.45
17462,5.11
17474,5.62
17486,5.12
17498,3.81
17510,1.96
17522,-0.2
17534,-2.42
17546,-4.47
17558,-6.13
17570,-7.24
17582,-7.71
17594,-7.58
17606,-7.01
17618,-6.25
17630,-5.56
17641,-5.11
17652,-4.97
17664,-5.1
17676,-5.35
17688,-5.54
17700,-5.53
17712,-5.29
17724,-4.86
17736,-4.33
17748,-3.82
17760,-3.38
17772,-3.06
17784,-2.83
17796,-2.69
17808,-2.69
17820,-2.89
17831,-3.34
17842,-4.08
17854,-5.08
17866,-6.29
17878,-7.64
17890,-9.1
17902,-10.67
17914,-12.32
17926,-14.03
17938,-15.78
17950,-17.52
17962,-19.31
17974,-21.33
17986,-23.79
17998,-26.87
18010,-30.44
18021,-34.05
18032,-36.91
18044,-38.12
18056,-36.99
18068,-33.3
18080,-27.33
18092,-19.78
18104,-11.53
18116,-3.36
18128,4.15
18140,10.62
18152,15.82
18164,19.64
18176,22.07
18188,23.25
18200,23.43
18211,22.98
18222,22.22
18234,21.4
18246,20.68
18258,20.11
18270,19.72
18282,19.52
18294,19.56
18306,19.86
18318,20.47
18330,21.36
18342,22.45
18354,23.59
18366,24.59
18378,25.27
18390,25.52
18401,25.32
18412,24.72
18424,23.75
18436,22.5
18448,20.95
18460,19.12
18472,17.03
18484,14.75
18496,12.38
18508,10.02
18520,7.8
18532,5.78
18544,3.99
18556,2.35
18568,0.7
18580,-1.15
18591,-3.32
18602,-5.82
18614,-8.49
18626,-11.12
18638,-13.49
18650,-15.5
18662,-17.19
18674,-18.66
18686,-20.12
18698,-21.79
18710,-23.95
18722,-26.77
18734,-30.24
18746,-34.0
18758,-37.28
18770,-39.13
18781,-38.68
18792,-35.53
18804,-29.86
18816,-22.39
18828,-14.13
18840,-6.02
18852,1.24
18864,7.35
18876,12.21
18888,15.92
18900,18.56
18912,20.18
18924,20.83
18936,20.61
18948,19.69
18960,18.38
18971,17.05
18982,16.05
18994,15.6
19006,15.68
19018,16.08
19030,16.54
19042,16.92
19054,17.22
19066,17.57
19078,18.06
19090,18.58
19102,18.9
19114,18.74
19126,17.95
19138,16.61
19150,14.97
19161,13.33
19172,11.87
19184,10.63
19196,9.49
19208,8.28
19220,6.89
19232,5.25
19244,3.43
19256,1.53
19268,-0.34
19280,-2.08
19292,-3.66
19304,-5.17
19316,-6.75
19328,-8.52
19340,-10.52
19351,-12.66
19362,-14.78
19374,-16.72
19386,-18.42
19398,-19.94
19410,-21.39
19422,-22.94
19434,-24.71
19446,-26.84
19458,-29.36
19470,-32.19
19482,-35.01
19494,-37.24
19506,-38.14
19518,-37.05
19530,-33.63
19541,-28.06
19552,-20.98
19564,-13.23
19576,-5.64
19588,1.21
19600,7.02
19612,11.69
19624,15.16
19636,17.39
19648,18.36
19660,18.12
19672,16.92
19684,15.15
19696,13.24
19708,11.58
19720,10.37
19731,9.68
19742,9.38
19754,9.34
19766,9.45
19778,9.67
19790,10.06
19802,10.65
19814,11.41
19826,12.21
19838,12.88
19850,13.22
19862,13.13
19874,12.6
19886,11.72
19898,10.61
19910,9.37
19921,8.1
19932,6.83
19944,5.55
19956,4.26
19968,2.92
19980,1.54
19992,0.1
20004,-1.39
20016,-2.93
20028,-4.49
20040,-6.04
20052,-7.53
20064,-8.92
20076,-10.15
20088,-11.27
20100,-12.33
20111,-13.51
20122,-14.92
20134,-16.61
20146,-18.48
20158,-20.29
20170,-21.7
20182,-22.41
20194,-22.19
20206,-20.97
20218,-18.81
20230,-15.89
20242,-12.47
20254,-8.84
20266,-5.27
20278,-2.01
20290,0.76
20301,2.9
20312,4.38
20324,5.21
20336,5.5
20348,5.43
20360,5.28
20372,5.29
20384,5.67
20396,6.47
20408,7.56
20420,8.72
20432,9.7
20444,10.32
20456,10.56
20468,10.54
20480,10.43
20491,10.38
20502,10.43
20514,10.53
20526,10.56
20538,10.41
20550,10.01
20562,9.39
20574,8.6
20586,7.69
20598,6.68
20610,5.55
20622,4.26
20634,2.83
20646,1.28
20658,-0.39
20670,-2.17
20681,-4.11
20692,-6.24
20704,-8.54
20716,-10.91
20728,-13.18
20740,-15.22
20752,-16.98
20764,-18.6
20776,-20.39
20788,-22.69
20800,-25.72
20812,-29.36
20824,-33.08
20836,-36.04
20848,-37.29
20860,-36.16
20871,-32.44
20882,-26.52
20894,-19.16
20906,-11.28
20918,-3.59
20930,3.48
20942,9.78
20954,15.23
20966,19.7
20978,22.97
20990,24.83
