seconds,BVP
1,99.58
13,108.27
25,110.77
37,107.34
49,98.8
61,86.99
73,74.6
85,64.57
97,59.03
109,58.58
121,61.94
133,66.48
145,69.42
157,68.95
168,64.89
179,58.49
191,51.5
203,45.14
215,39.48
227,33.58
239,26.17
251,16.52
263,4.97
275,-7.25
287,-18.52
299,-27.76
311,-34.8
323,-40.3
335,-45.16
347,-49.89
358,-54.42
369,-58.34
381,-61.45
393,-64.16
405,-67.36
417,-71.81
429,-77.59
441,-83.91
453,-89.55
465,-93.62
477,-96.24
489,-98.4
501,-101.47
513,-106.42
525,-113.29
537,-121.21
548,-128.47
559,-132.92
571,-132.28
583,-124.61
595,-108.91
607,-85.47
619,-55.95
631,-22.94
643,10.8
655,42.93
667,71.81
679,96.17
691,114.88
703,126.71
715,130.88
727,127.7
738,118.94
749,107.58
761,96.99
773,89.59
785,86.18
797,85.84
809,86.58
821,86.32
833,83.81
845,79.08
857,73.25
869,67.91
881,64.33
893,62.84
905,62.93
917,63.41
928,63.1
939,61.14
951,57.21
963,51.45
975,44.29
987,36.3
999,28.2
1011,20.74
1023,14.77
1035,10.96
1047,9.48
1059,9.75
1071,10.48
1083,10.07
1095,7.16
1107,1.27
1118,-7.11
1129,-16.71
1141,-26.09
1153,-34.43
1165,-41.87
1177,-49.52
1189,-58.78
1201,-70.71
1213,-85.39
1225,-101.69
1237,-117.3
1249,-129.16
1261,-134.33
1273,-130.95
1285,-119.05
1297,-100.76
1308,-79.73
1319,-59.85
1331,-43.98
1343,-33.27
1355,-27.23
1367,-24.69
1379,-24.73
1391,-27.11
1403,-31.93
1415,-38.79
1427,-46.4
1439,-52.65
1451,-55.68
1463,-54.82
1475,-51.26
1487,-47.43
1498,-45.86
1509,-47.75
1521,-52.22
1533,-56.57
1545,-57.54
1557,-52.99
1569,-42.96
1581,-29.87
1593,-17.62
1605,-10.08
1617,-9.59
1629,-16.06
1641,-26.89
1653,-37.87
1665,-44.67
1677,-44.33
1688,-36.55
1699,-23.89
1711,-10.93
1723,-2.36
1735,-0.83
1747,-5.54
1759,-12.32
1771,-15.26
1783,-9.29
1795,7.58
1807,33.27
1819,62.55
1831,89.28
1843,109.13
1855,121.19
1867,128.15
1878,134.69
1889,145.05
1901,160.68
1913,179.27
1925,195.66
1937,203.91
1949,199.96
1961,183.2
1973,156.57
1985,125.42
1997,95.54
2009,71.45
2021,55.43
2033,47.27
2045,44.89
2057,45.78
2068,48.37
2079,52.98
2091,61.16
2103,74.2
2115,91.1
2127,107.55
2139,116.84
2151,112.13
2163,89.12
2175,47.49
2187,-9.23
2199,-75.07
2211,-142.75
2223,-204.3
2235,-251.47
2247,-276.91
2258,-276.28
2269,-250.78
2281,-208.09
2293,-160.68
2305,-122.02
2317,-102.18
2329,-104.86
2341,-126.99
2353,-160.51
2365,-195.06
2377,-220.61
2389,-229.47
2401,-217.73
2413,-186.31
2425,-140.97
2437,-90.94
2448,-46.24
2459,-14.41
2471,1.53
2483,3.59
2495,-2.91
2507,-11.82
2519,-18.56
2531,-21.27
2543,-20.68
2555,-18.82
2567,-17.56
2579,-17.39
2591,-17.0
2603,-13.92
2615,-5.61
2627,9.1
2638,29.4
2649,52.8
2661,76.29
2673,97.85
2685,117.24
2697,135.57
2709,153.88
2721,171.65
2733,186.33
2745,194.32
2757,192.92
2769,181.86
2781,163.54
2793,141.64
2805,119.28
2817,97.57
2828,75.65
2839,51.92
2851,25.63
2863,-2.05
2875,-28.05
2887,-48.28
2899,-59.0
2911,-57.91
2923,-44.85
2935,-21.83
2947,7.44
2959,38.46
2971,67.34
2983,91.88
2995,112.35
3007,131.11
3018,151.45
3029,175.87
3041,204.96
3053,236.98
3065,268.39
3077,294.96
3089,312.83
3101,319.27
3113,313.09
3125,294.63
3137,265.54
3149,228.38
3161,186.03
3173,140.99
3185,95.15
3197,49.77
3208,5.78
3219,-35.87
3231,-74.22
3243,-108.93
3255,-141.13
3267,-173.54
3279,-209.3
3291,-249.87
3303,-292.94
3315,-331.87
3327,-357.37
3339,-360.73
3351,-337.1
3363,-287.01
3375,-215.87
3387,-132.07
3398,-45.17
3409,35.08
3421,99.13
3433,138.54
3445,147.75
3457,126.83
3469,83.17
3481,30.66
3493,-14.22
3505,-38.43
3517,-37.37
3529,-16.65
3541,10.73
3553,29.95
3565,30.52
3577,9.91
3588,-26.53
3599,-68.74
3611,-106.28
3623,-132.04
3635,-143.81
3647,-143.82
3659,-136.65
3671,-126.99
3683,-118.22
3695,-111.88
3707,-108.49
3719,-108.39
3731,-112.59
3743,-122.64
3755,-139.63
3767,-163.2
3778,-191.2
3789,-220.64
3801,-249.12
3813,-276.09
3825,-302.9
3837,-331.32
3849,-361.54
3861,-390.75
3873,-413.35
3885,-422.9
3897,-414.54
3909,-387.17
3921,-344.0
3933,-291.65
3945,-238.05
3957,-190.01
3968,-151.26
3979,-121.69
3991,-97.84
4003,-74.69
4015,-47.77
4027,-15.03
4039,22.53
4051,61.81
4063,99.03
4075,131.69
4087,159.5
4099,184.53
4111,210.36
4123,240.71
4135,278.5
4147,324.66
4158,377.52
4169,432.21
4181,480.92
4193,514.27
4205,523.93
4217,505.81
4229,462.44
4241,402.98
4253,340.43
4265,286.79
4277,248.65
4289,225.3
4301,210.23
4313,195.03
4325,173.57
4337,144.26
4348,109.57
4359,73.72
4371,39.98
4383,9.4
4395,-18.83
4407,-45.94
4419,-72.06
4431,-95.7
4443,-114.57
4455,-126.79
4467,-131.95
4479,-131.64
4491,-129.51
4503,-130.37
4515,-138.6
4527,-155.98
4538,-180.1
4549,-204.39
4561,-220.42
4573,-221.61
4585,-206.51
4597,-179.79
4609,-150.27
4621,-126.83
4633,-114.78
4645,-114.61
4657,-123.19
4669,-136.58
4681,-152.1
4693,-168.66
4705,-185.5
4717,-200.76
4728,-210.99
4739,-211.99
4751,-200.32
4763,-174.4
4775,-135.15
4787,-86.2
4799,-33.86
4811,13.51
4823,47.21
4835,60.81
4847,52.84
4859,28.02
4871,-3.92
4883,-31.85
4895,-47.3
4907,-47.41
4918,-35.11
4929,-16.81
4941,1.04
4953,14.83
4965,24.57
4977,32.84
4989,42.56
5001,55.17
5013,69.91
5025,84.09
5037,94.13
5049,96.52
5061,88.77
5073,70.24
5085,42.65
5097,10.1
5108,-21.61
5119,-46.44
5131,-60.31
5143,-62.88
5155,-57.85
5167,-51.04
5179,-47.42
5191,-48.21
5203,-50.13
5215,-47.23
5227,-34.17
5239,-9.25
5251,25.02
5263,63.52
5275,101.75
5287,138.14
5298,174.31
5309,213.28
5321,257.07
5333,305.43
5345,356.0
5357,405.53
5369,450.85
5381,488.93
5393,516.57
5405,530.32
5417,527.47
5429,507.05
5441,470.61
5453,421.6
5465,363.85
5477,300.38
5488,233.6
5499,166.88
5511,106.32
5523,60.81
5535,39.41
5547,47.17
5559,81.56
5571,131.88
5583,182.67
5595,219.27
5607,232.94
5619,223.07
5631,195.55
5643,158.5
5655,118.25
5667,77.61
5678,36.35
5689,-6.17
5701,-49.38
5713,-91.11
5725,-129.05
5737,-162.41
5749,-192.59
5761,-222.36
5773,-253.94
5785,-287.3
5797,-319.23
5809,-344.25
5821,-356.3
5833,-350.82
5845,-326.19
5857,-283.9
5868,-227.46
5879,-160.78
5891,-87.31
5903,-10.03
5915,67.51
5927,140.27
5939,201.78
5951,245.47
5963,266.51
5975,263.49
5987,238.76
5999,197.94
6011,148.66
6023,99.18
6035,57.36
6047,29.69
6058,19.99
6069,28.34
6081,50.57
6093,79.14
6105,105.19
6117,121.29
6129,123.65
6141,112.89
6153,93.2
6165,70.55
6177,50.34
6189,35.75
6201,27.07
6213,22.2
6225,18.12
6237,12.46
6248,4.39
6259,-5.51
6271,-16.33
6283,-27.99
6295,-41.44
6307,-58.1
6319,-78.73
6331,-102.71
6343,-128.22
6355,-153.19
6367,-176.25
6379,-197.01
6391,-215.75
6403,-232.56
6415,-246.75
6427,-256.72
6438,-260.46
6449,-256.2
6461,-243.35
6473,-222.97
6485,-198.11
6497,-173.51
6509,-154.61
6521,-145.95
6533,-149.41
6545,-163.19
6557,-182.0
6569,-198.92
6581,-207.82
6593,-205.63
6605,-193.22
6617,-174.39
6628,-153.86
6639,-134.95
6651,-118.48
6663,-103.15
6675,-87.1
6687,-69.66
6699,-52.04
6711,-37.1
6723,-27.79
6735,-25.95
6747,-31.51
6759,-42.72
6771,-56.93
6783,-71.25
6795,-82.84
6807,-89.01
6818,-87.4
6829,-76.39
6841,-55.8
6853,-27.12
6865,6.86
6877,42.88
6889,78.07
6901,110.15
6913,137.2
6925,157.0
6937,167.28
6949,166.27
6961,154.06
6973,133.34
6985,108.98
6997,86.66
7008,70.78
7019,63.09
7031,62.36
7043,65.11
7055,66.97
7067,64.03
7079,53.94
7091,36.65
7103,14.65
7115,-7.65
7127,-25.4
7139,-35.24
7151,-36.79
7163,-33.03
7175,-28.64
7187,-27.72
7198,-31.69
7209,-38.8
7221,-45.49
7233,-48.56
7245,-46.98
7257,-42.09
7269,-36.68
7281,-33.28
7293,-32.99
7305,-35.43
7317,-39.27
7329,-42.97
7341,-45.14
7353,-44.62
7365,-40.58
7377,-32.93
7388,-22.83
7399,-12.83
7411,-6.27
7423,-6.36
7435,-15.02
7447,-32.21
7459,-56.17
7471,-83.83
7483,-111.45
7495,-135.22
7507,-151.68
7519,-158.34
7531,-154.1
7543,-139.6
7555,-116.99
7567,-89.21
7578,-59.26
7589,-29.3
7601,-0.43
7613,27.32
7625,54.59
7637,82.09
7649,109.84
7661,136.62
7673,160.01
7685,176.95
7697,184.98
7709,183.06
7721,172.05
7733,154.41
7745,133.34
7757,111.87
7768,92.35
7779,76.49
7791,65.39
7803,59.63
7815,58.83
7827,61.69
7839,66.3
7851,70.84
7863,74.33
7875,76.79
7887,78.79
7899,80.56
7911,81.55
7923,80.62
7935,76.6
7947,69.1
7958,58.7
7969,46.66
7981,34.32
7993,22.5
8005,11.31
8017,0.55
8029,-9.79
8041,-19.25
8053,-27.01
8065,-32.39
8077,-35.27
8089,-36.15
8101,-36.02
8113,-35.94
8125,-36.74
8137,-38.99
8148,-42.76
8159,-47.67
8171,-52.91
8183,-57.36
8195,-59.96
8207,-60.21
8219,-58.48
8231,-56.01
8243,-54.42
8255,-54.98
8267,-57.95
8279,-62.42
8291,-66.55
8303,-68.0
8315,-64.56
8327,-54.8
8338,-38.47
8349,-16.73
8361,7.99
8373,32.55
8385,53.98
8397,70.36
8409,81.24
8421,87.61
8433,91.39
8445,94.67
8457,99.03
8469,105.16
8481,112.68
8493,120.4
8505,126.88
8517,130.98
8528,132.37
8539,131.82
8551,130.72
8563,130.53
8575,132.04
8587,135.17
8599,139.39
8611,144.22
8623,149.5
8635,155.35
8647,161.6
8659,167.44
8671,171.78
8683,173.85
8695,173.95
8707,173.52
8718,174.08
8729,175.9
8741,177.2
8753,174.25
8765,162.9
8777,140.46
8789,107.05
8801,65.66
8813,20.95
8825,-22.57
8837,-62.09
8849,-96.95
8861,-128.34
8873,-158.33
8885,-189.16
8897,-222.94
8908,-261.18
8919,-304.18
8931,-350.09
8943,-394.46
8955,-430.72
8967,-452.23
8979,-454.89
8991,-439.29
9003,-411.09
9015,-378.95
9027,-351.28
9039,-332.95
9051,-323.81
9063,-319.36
9075,-313.16
9087,-299.5
9098,-275.24
9109,-240.39
9121,-197.55
9133,-150.78
9145,-104.42
9157,-62.26
9169,-26.94
9181,0.27
9193,19.35
9205,31.25
9217,37.57
9229,40.24
9241,41.2
9253,42.09
9265,43.77
9277,46.22
9288,48.8
9299,51.12
9311,53.71
9323,57.96
9335,65.21
9347,75.4
9359,86.29
9371,94.09
9383,95.21
9395,88.37
9407,75.76
9419,62.37
9431,53.91
9443,54.2
9455,63.64
9467,79.12
9478,95.56
9489,107.8
9501,112.2
9513,107.33
9525,93.89
9537,74.31
9549,52.05
9561,30.88
9573,14.11
9585,3.65
9597,-0.49
9609,-0.16
9621,1.61
9633,1.88
9645,-1.1
9657,-7.4
9668,-15.48
9679,-22.82
9691,-26.94
9703,-26.3
9715,-20.93
9727,-12.63
9739,-4.45
9751,0.46
9763,-0.05
9775,-6.1
9787,-15.62
9799,-25.17
9811,-31.5
9823,-32.95
9835,-29.97
9847,-24.5
9858,-18.5
9869,-12.89
9881,-7.3
9893,-0.47
9905,8.86
9917,21.36
9929,37.21
9941,56.0
9953,76.81
9965,97.83
9977,116.17
9989,127.88
10001,129.11
10013,117.57
10025,94.31
10037,64.34
10048,35.48
10059,15.81
10071,10.7
10083,20.92
10095,42.47
10107,68.34
10119,91.14
10131,105.61
10143,109.88
10155,105.31
10167,95.33
10179,83.81
10191,73.61
10203,65.84
10215,60.03
10227,54.74
10238,48.67
10249,41.52
10261,34.08
10273,27.69
10285,23.22
10297,20.3
10309,17.62
10321,13.98
10333,9.3
10345,4.91
10357,2.78
10369,4.12
10381,8.55
10393,14.19
10405,18.65
10417,20.27
10428,18.64
10439,14.27
10451,7.92
10463,0.11
10475,-8.93
10487,-18.83
10499,-28.95
10511,-38.46
10523,-46.92
10535,-54.76
10547,-63.31
10559,-74.04
10571,-87.63
10583,-103.08
10595,-117.63
10607,-127.35
10618,-128.48
10629,-118.61
10641,-97.54
10653,-67.18
10665,-31.05
10677,6.61
10689,41.47
10701,69.6
10713,88.03
10725,95.12
10737,91.13
10749,78.19
10761,59.84
10773,40.04
10785,22.15
10797,8.24
10808,-0.82
10819,-4.92
10831,-4.39
10843,0.24
10855,7.97
10867,17.31
10879,26.49
10891,33.98
10903,39.04
10915,41.72
10927,42.47
10939,41.37
10951,38.01
10963,31.58
10975,21.69
10987,8.95
10998,-5.04
11009,-18.21
11021,-28.92
11033,-36.53
11045,-41.48
11057,-44.63
11069,-46.66
11081,-47.62
11093,-47.06
11105,-44.68
11117,-40.86
11129,-36.98
11141,-35.02
11153,-36.85
11165,-43.34
11177,-53.89
11188,-66.51
11199,-78.44
11211,-87.26
11223,-91.69
11235,-92.02
11247,-89.92
11259,-87.78
11271,-87.84
11283,-91.64
11295,-99.45
11307,-110.04
11319,-120.8
11331,-128.15
11343,-128.47
11355,-119.15
11367,-99.42
11378,-70.64
11389,-35.85
11401,1.08
11413,36.34
11425,66.81
11437,90.34
11449,105.87
11461,113.45
11473,114.21
11485,110.0
11497,103.09
11509,95.5
11521,88.69
11533,83.33
11545,79.31
11557,75.77
11568,71.35
11579,64.6
11591,54.63
11603,41.57
11615,26.93
11627,13.0
11639,2.02
11651,-4.68
11663,-7.22
11675,-7.12
11687,-6.54
11699,-7.53
11711,-11.31
11723,-17.86
11735,-26.15
11747,-34.6
11758,-41.82
11769,-47.19
11781,-51.28
11793,-55.6
11805,-61.92
11817,-71.31
11829,-83.55
11841,-97.2
11853,-110.38
11865,-121.81
11877,-131.34
11889,-139.86
11901,-148.48
11913,-157.73
11925,-167.2
11937,-176.02
11948,-183.57
11959,-190.24
11971,-197.41
11983,-206.87
11995,-219.94
12007,-236.78
12019,-256.14
12031,-275.63
12043,-292.08
12055,-302.12
12067,-302.71
12079,-291.8
12091,-269.03
12103,-236.03
12115,-196.11
12127,-153.34
12138,-111.46
12149,-72.82
12161,-38.18
12173,-7.01
12185,21.88
12197,50.0
12209,78.86
12221,109.78
12233,143.51
12245,179.45
12257,215.27
12269,246.96
12281,270.0
12293,280.93
12305,278.95
12317,266.42
12328,248.18
12339,229.85
12351,215.93
12363,208.48
12375,206.77
12387,208.0
12399,208.68
12411,205.9
12423,198.31
12435,186.23
12447,171.39
12459,156.17
12471,142.94
12483,133.35
12495,127.96
12507,126.17
12518,126.14
12529,125.31
12541,120.94
12553,110.99
12565,94.81
12577,73.65
12589,50.25
12601,27.92
12613,9.36
12625,-4.17
12637,-12.98
12649,-18.59
12661,-23.0
12673,-28.09
12685,-35.13
12697,-44.34
12708,-54.76
12719,-64.47
12731,-71.3
12743,-73.54
12755,-70.89
12767,-64.4
12779,-55.86
12791,-46.61
12803,-36.52
12815,-23.74
12827,-5.44
12839,20.77
12851,55.44
12863,96.41
12875,138.6
12887,174.91
12898,197.98
12909,202.34
12921,186.73
12933,155.2
12945,116.28
12957,80.33
12969,55.93
12981,47.04
12993,52.2
13005,65.97
13017,81.72
13029,94.43
13041,102.02
13053,105.11
13065,105.47
13077,104.63
13088,103.01
13099,100.08
13111,94.98
13123,87.29
13135,77.46
13147,66.66
13159,56.41
13171,47.78
13183,40.92
13195,35.0
13207,28.77
13219,21.22
13231,12.11
13243,2.02
13255,-8.36
13267,-18.7
13278,-29.19
13289,-40.2
13301,-51.78
13313,-63.31
13325,-73.89
13337,-83.0
13349,-90.89
13361,-98.46
13373,-106.59
13385,-115.56
13397,-124.98
13409,-134.1
13421,-142.18
13433,-148.42
13445,-151.65
13457,-150.05
13468,-141.45
13479,-124.07
13491,-97.73
13503,-64.48
13515,-28.53
13527,4.82
13539,30.69
13551,46.11
13563,50.87
13575,47.33
13587,39.46
13599,31.34
13611,25.93
13623,24.49
13635,26.74
13647,31.45
13658,37.23
13669,42.78
13681,47.09
13693,49.47
13705,49.76
13717,48.5
13729,46.74
13741,45.55
13753,45.38
13765,45.79
13777,45.72
13789,44.17
13801,40.88
13813,36.32
13825,31.25
13837,25.95
13848,19.9
13859,12.1
13871,1.72
13883,-11.08
13895,-24.96
13907,-37.94
13919,-48.38
13931,-55.86
13943,-61.42
13955,-66.9
13967,-73.84
13979,-82.68
13991,-92.52
14003,-101.83
14015,-109.43
14027,-115.36
14038,-120.66
14049,-126.74
14061,-134.57
14073,-144.25
14085,-155.26
14097,-166.64
14109,-177.2
14121,-185.34
14133,-188.74
14145,-184.74
14157,-171.23
14169,-147.82
14181,-116.37
14193,-80.81
14205,-45.8
14217,-15.31
14228,8.38
14239,24.83
14251,34.85
14263,39.97
14275,42.08
14287,43.47
14299,46.51
14311,53.19
14323,64.03
14335,77.59
14347,90.78
14359,99.99
14371,102.81
14383,99.12
14395,91.1
14407,81.92
14418,74.08
14429,68.17
14441,63.03
14453,56.73
14465,47.97
14477,36.82
14489,24.63
14501,13.17
14513,3.86
14525,-2.49
14537,-5.59
14549,-5.58
14561,-2.93
14573,1.19
14585,4.88
14597,5.78
14608,2.1
14619,-6.49
14631,-18.51
14643,-31.4
14655,-42.74
14667,-51.45
14679,-58.01
14691,-63.78
14703,-69.88
14715,-76.37
14727,-82.38
14739,-86.83
14751,-89.44
14763,-91.02
14775,-93.01
14787,-96.4
14798,-100.65
14809,-103.56
14821,-101.86
14833,-92.82
14845,-75.55
14857,-51.62
14869,-24.39
14881,2.64
14893,27.17
14905,48.88
14917,68.62
14929,86.92
14941,102.73
14953,113.55
14965,116.71
14977,111.31
14988,99.25
14999,84.82
15011,72.86
15023,66.59
15035,66.47
15047,70.17
15059,73.99
15071,74.4
15083,69.45
15095,59.48
15107,46.94
15119,35.62
15131,29.44
15143,31.12
15155,41.1
15167,57.13
15178,75.08
15189,90.32
15201,99.45
15213,101.27
15225,96.82
15237,88.29
15249,77.8
15261,66.65
15273,55.24
15285,43.63
15297,32.2
15309,21.83
15321,13.46
15333,7.69
15345,4.33
15357,2.36
15368,0.34
15379,-3.04
15391,-8.37
15403,-15.41
15415,-23.34
15427,-31.33
15439,-38.97
15451,-46.71
15463,-55.75
15475,-67.32
15487,-81.83
15499,-98.11
15511,-113.61
15523,-125.28
15535,-130.64
15547,-128.53
15558,-118.99
15569,-102.66
15581,-80.21
15593,-52.59
15605,-21.76
15617,8.73
15629,33.89
15641,48.72
15653,50.31
15665,39.45
15677,20.75
15689,0.97
15701,-13.83
15713,-20.78
15725,-20.91
15737,-18.07
15748,-16.68
15759,-19.52
15771,-26.63
15783,-35.43
15795,-41.92
15807,-42.16
15819,-33.59
15831,-15.79
15843,9.44
15855,38.61
15867,67.42
15879,91.86
15891,109.0
15903,117.51
15915,117.73
15927,111.15
15938,99.86
15949,86.02
15961,71.4
15973,57.12
15985,43.62
15997,30.95
16009,19.09
16021,8.53
16033,0.34
16045,-4.15
16057,-4.04
16069,0.35
16081,7.23
16093,13.68
16105,16.58
16117,13.68
16128,4.24
16139,-10.83
16151,-29.59
16163,-49.56
16175,-68.2
16187,-82.94
16199,-91.19
16211,-90.62
16223,-79.71
16235,-58.64
16247,-29.72
16259,2.85
16271,34.08
16283,59.63
16295,77.13
16307,86.48
16318,89.28
16329,87.75
16341,83.75
16353,78.56
16365,73.09
16377,68.36
16389,65.38
16401,64.78
16413,66.23
16425,68.24
16437,68.63
16449,65.58
16461,58.69
16473,49.48
16485,40.75
16497,35.2
16508,33.97
16519,36.0
16531,38.47
16543,38.24
16555,33.41
16567,24.06
16579,11.97
16591,-0.43
16603,-11.18
16615,-19.54
16627,-25.78
16639,-30.78
16651,-35.35
16663,-39.9
16675,-44.46
16687,-48.96
16698,-53.37
16709,-57.76
16721,-62.21
16733,-66.69
16745,-71.1
16757,-75.37
16769,-79.59
16781,-84.04
16793,-89.08
16805,-95.03
16817,-102.05
16829,-110.19
16841,-119.35
16853,-129.03
16865,-137.97
16877,-143.97
16888,-144.12
16899,-135.65
16911,-117.01
16923,-88.81
16935,-53.83
16947,-16.25
16959,19.58
16971,50.31
16983,74.04
16995,90.17
17007,98.97
17019,101.07
17031,97.32
17043,89.06
17055,78.2
17067,67.28
17078,59.1
17089,55.75
17101,57.8
17113,63.85
17125,71.01
17137,76.16
17149,77.59
17161,75.96
17173,73.95
17185,74.38
17197,78.13
17209,83.19
17221,85.37
17233,80.57
17245,66.89
17257,45.48
17268,19.82
17279,-5.87
17291,-28.17
17303,-45.04
17315,-55.78
17327,-60.91
17339,-61.93
17351,-61.32
17363,-61.99
17375,-66.25
17387,-74.5
17399,-84.79
17411,-93.61
17423,-97.72
17435,-96.21
17447,-91.21
17458,-86.89
17469,-87.27
17481,-94.26
17493,-106.83
17505,-121.9
17517,-136.07
17529,-147.25
17541,-154.97
17553,-159.48
17565,-160.3
17577,-155.34
17589,-141.3
17601,-115.23
17613,-76.34
17625,-27.04
17637,27.51
17648,81.14
17659,128.53
17671,166.27
17683,192.7
17695,207.11
17707,208.98
17719,198.2
17731,175.91
17743,145.35
17755,111.71
17767,80.91
17779,57.74
17791,44.18
17803,39.22
17815,39.85
17827,42.91
17838,46.64
17849,51.09
17861,57.35
17873,66.16
17885,76.84
17897,87.24
17909,94.54
17921,96.41
17933,92.12
17945,82.78
17957,70.96
17969,59.77
17981,51.72
17993,47.94
18005,47.82
18017,49.42
18028,50.19
18039,47.91
18051,41.44
18063,30.97
18075,17.93
18087,4.38
18099,-7.83
18111,-17.63
18123,-25.09
18135,-31.44
18147,-38.73
18159,-49.12
18171,-64.1
18183,-83.83
18195,-106.57
18207,-128.93
18218,-146.64
18229,-155.88
18241,-154.54
18253,-142.87
18265,-123.44
18277,-100.29
18289,-77.5
18301,-58.14
18313,-43.36
18325,-32.48
18337,-23.57
18349,-14.6
18361,-4.37
18373,6.77
18385,17.02
18397,23.99
18408,25.94
18419,22.84
18431,16.67
18443,10.71
18455,8.31
18467,11.37
18479,19.49
18491,30.01
18503,39.23
18515,43.89
18527,42.51
18539,35.72
18551,25.49
18563,13.82
18575,1.86
18587,-10.16
18598,-22.22
18609,-33.74
18621,-43.43
18633,-49.86
18645,-52.5
18657,-52.19
18669,-50.71
18681,-49.84
18693,-50.43
18705,-52.24
18717,-54.6
18729,-57.34
18741,-60.91
18753,-65.68
18765,-71.01
18777,-74.56
18788,-73.09
18799,-64.08
18811,-47.47
18823,-26.46
18835,-6.59
18847,6.33
18859,8.66
18871,0.58
18883,-13.72
18895,-27.62
18907,-34.39
18919,-29.61
18931,-12.42
18943,14.66
18955,47.27
18967,81.02
18978,112.78
18989,141.21
19001,166.0
19013,186.95
19025,203.22
19037,213.28
19049,215.45
19061,208.87
19073,194.27
19085,174.35
19097,153.36
19109,135.77
19121,124.64
19133,120.29
19145,119.82
19157,118.39
19168,111.35
19179,96.46
19191,74.73
19203,49.61
19215,24.91
19227,2.84
19239,-16.51
19251,-34.37
19263,-51.66
19275,-67.82
19287,-80.87
19299,-88.57
19311,-89.72
19323,-85.17
19335,-77.52
19347,-70.22
19358,-66.22
19369,-66.93
19381,-71.8
19393,-78.81
19405,-85.51
19417,-90.2
19429,-92.77
19441,-94.61
19453,-97.75
19465,-103.63
19477,-112.2
19489,-121.94
19501,-130.77
19513,-137.14
19525,-140.74
19537,-142.32
19548,-142.81
19559,-142.45
19571,-140.35
19583,-134.89
19595,-124.28
19607,-107.46
19619,-84.53
19631,-56.82
19643,-26.77
19655,2.43
19667,27.46
19679,45.66
19691,55.69
19703,57.79
19715,53.46
19727,44.72
19738,33.36
19749,20.57
19761,7.13
19773,-6.25
19785,-18.6
19797,-28.86
19809,-36.45
19821,-41.49
19833,-44.71
19845,-46.63
19857,-46.99
19869,-44.75
19881,-38.99
19893,-29.96
19905,-19.66
19917,-11.06
19928,-6.6
19939,-6.87
19951,-10.17
19963,-13.64
19975,-14.8
19987,-13.04
19999,-9.85
20011,-7.97
20023,-9.82
20035,-16.28
20047,-26.17
20059,-36.76
20071,-45.01
20083,-48.99
20095,-48.64
20107,-45.8
20118,-43.38
20129,-43.94
20141,-48.61
20153,-56.76
20165,-66.62
20177,-76.38
20189,-85.09
20201,-92.79
20213,-99.92
20225,-106.36
20237,-111.03
20249,-112.15
20261,-107.97
20273,-97.48
20285,-80.63
20297,-58.19
20308,-31.34
20319,-1.62
20331,29.18
20343,59.03
20355,86.19
20367,109.59
20379,129.19
20391,145.62
20403,159.48
20415,170.53
20427,177.57
20439,179.2
20451,174.91
20463,166.05
20475,155.57
20487,146.95
20498,142.54
20509,142.4
20521,144.33
20533,145.05
20545,142.05
20557,134.71
20569,124.64
20581,114.76
20593,107.88
20605,105.51
20617,107.36
20629,111.64
20641,115.98
20653,118.35
20665,117.64
20677,113.91
20688,108.09
20699,101.38
20711,94.73
20723,88.39
20735,81.98
20747,74.96
20759,66.97
20771,58.14
20783,48.86
20795,39.37
20807,29.5
20819,18.79
20831,6.88
20843,-5.85
20855,-18.09
20867,-28.07
20878,-34.33
20889,-36.61
20901,-36.41
20913,-36.52
20925,-39.66
20937,-47.18
20949,-58.25
20961,-70.25
20973,-80.27
20985,-86.68
20997,-89.78
