seconds,BVP
2,-57.14
14,-56.76
26,-52.36
38,-44.43
50,-34.28
62,-23.63
74,-13.94
86,-5.96
98,0.33
110,5.43
122,9.94
134,14.25
146,18.4
157,22.26
168,25.7
180,28.75
192,31.53
204,34.16
216,36.62
228,38.69
240,40.15
252,40.81
264,40.72
276,40.11
288,39.3
300,38.54
312,37.94
324,37.49
336,37.14
347,36.88
358,36.66
370,36.43
382,36.04
394,35.27
406,33.98
418,32.21
430,30.18
442,28.16
454,26.36
466,24.75
478,23.17
490,21.37
502,19.17
514,16.56
526,13.67
537,10.66
548,7.66
560,4.68
572,1.62
584,-1.68
596,-5.42
608,-9.83
620,-15.17
632,-21.65
644,-29.24
656,-37.52
668,-45.64
680,-52.42
692,-56.72
704,-57.8
716,-55.65
727,-50.95
738,-44.77
750,-38.29
762,-32.35
774,-27.41
786,-23.5
798,-20.42
810,-17.81
822,-15.32
834,-12.62
846,-9.49
858,-5.9
870,-2.03
882,1.82
894,5.3
906,8.14
917,10.21
928,11.53
940,12.21
952,12.48
964,12.57
976,12.76
988,13.24
1000,14.0
1012,14.82
1024,15.3
1036,15.04
1048,13.84
1060,11.78
1072,9.24
1084,6.64
1096,4.28
1107,2.18
1118,0.11
1130,-2.24
1142,-5.06
1154,-8.34
1166,-11.82
1178,-15.23
1190,-18.32
1202,-21.08
1214,-23.66
1226,-26.36
1238,-29.51
1250,-33.35
1262,-38.01
1274,-43.33
1286,-48.79
1297,-53.55
1308,-56.57
1320,-56.94
1332,-54.11
1344,-48.15
1356,-39.79
1368,-30.15
1380,-20.52
1392,-11.98
1404,-5.2
1416,-0.36
1428,2.78
1440,4.7
1452,5.98
1464,7.11
1476,8.37
1487,9.93
1498,11.77
1510,13.79
1522,15.9
1534,17.98
1546,19.96
1558,21.79
1570,23.39
1582,24.71
1594,25.76
1606,26.61
1618,27.26
1630,27.61
1642,27.46
1654,26.54
1666,24.68
1677,21.93
1688,18.59
1700,15.1
1712,11.83
1724,8.93
1736,6.28
1748,3.62
1760,0.71
1772,-2.48
1784,-5.83
1796,-9.09
1808,-12.12
1820,-14.88
1832,-17.54
1844,-20.36
1856,-23.66
1867,-27.64
1878,-32.39
1890,-37.7
1902,-43.02
1914,-47.51
1926,-50.13
1938,-50.01
1950,-46.65
1962,-40.22
1974,-31.49
1986,-21.66
1998,-12.03
2010,-3.64
2022,2.95
2034,7.69
2046,10.95
2057,13.29
2068,15.18
2080,16.93
2092,18.64
2104,20.29
2116,21.91
2128,23.56
2140,25.35
2152,27.32
2164,29.35
2176,31.22
2188,32.69
2200,33.6
2212,33.94
2224,33.85
2236,33.48
2247,32.93
2258,32.22
2270,31.22
2282,29.84
2294,27.99
2306,25.64
2318,22.84
2330,19.63
2342,16.04
2354,12.11
2366,7.86
2378,3.37
2390,-1.2
2402,-5.6
2414,-9.63
2426,-13.2
2437,-16.43
2448,-19.64
2460,-23.28
2472,-27.7
2484,-33.01
2496,-38.91
2508,-44.62
2520,-49.07
2532,-51.05
2544,-49.65
2556,-44.56
2568,-36.24
2580,-25.84
2592,-14.85
2604,-4.69
2616,3.75
2627,10.14
2638,14.66
2650,17.75
2662,19.89
2674,21.47
2686,22.84
2698,24.3
2710,26.06
2722,28.23
2734,30.74
2746,33.34
2758,35.63
2770,37.27
2782,38.06
2794,38.03
2806,37.41
2817,36.55
2828,35.77
2840,35.22
2852,34.82
2864,34.27
2876,33.25
2888,31.47
2900,28.89
2912,25.72
2924,22.35
2936,19.17
2948,16.41
2960,14.04
2972,11.84
2984,9.41
2996,6.46
3007,2.86
3018,-1.29
3030,-5.71
3042,-10.03
3054,-13.97
3066,-17.35
3078,-20.16
3090,-22.56
3102,-24.89
3114,-27.56
3126,-31.01
3138,-35.53
3150,-41.09
3162,-47.22
3174,-52.92
3186,-56.99
3197,-58.21
3208,-55.83
3220,-49.7
3232,-40.52
3244,-29.56
3256,-18.37
3268,-8.34
3280,-0.31
3292,5.55
3304,9.65
3316,12.7
3328,15.37
3340,18.05
3352,20.83
3364,23.54
3376,25.96
3387,27.94
3398,29.45
3410,30.55
3422,31.3
3434,31.79
3446,32.06
3458,32.15
3470,32.11
3482,31.94
3494,31.71
3506,31.51
3518,31.44
3530,31.53
3542,31.69
3554,31.63
3566,30.97
3577,29.44
3588,27.03
3600,24.07
3612,21.05
3624,18.43
3636,16.38
3648,14.67
3660,12.86
3672,10.54
3684,7.53
3696,3.94
3708,0.1
3720,-3.68
3732,-7.24
3744,-10.58
3756,-13.82
3767,-17.1
3778,-20.54
3790,-24.29
3802,-28.49
3814,-33.3
3826,-38.73
3838,-44.46
3850,-49.78
3862,-53.65
3874,-54.99
3886,-53.03
3898,-47.61
3910,-39.36
3922,-29.45
3934,-19.33
3946,-10.22
3957,-2.87
3968,2.58
3980,6.44
3992,9.28
4004,11.65
4016,13.95
4028,16.34
4040,18.76
4052,21.11
4064,23.27
4076,25.17
4088,26.79
4100,28.16
4112,29.26
4124,30.1
4136,30.69
4147,31.08
4158,31.34
4170,31.52
4182,31.58
4194,31.45
4206,30.97
4218,30.01
4230,28.57
4242,26.73
4254,24.68
4266,22.62
4278,20.72
4290,19.02
4302,17.44
4314,15.85
4326,14.15
4337,12.25
4348,10.2
4360,8.1
4372,6.01
4384,3.87
4396,1.56
4408,-1.09
4420,-4.21
4432,-7.72
4444,-11.49
4456,-15.32
4468,-19.07
4480,-22.75
4492,-26.47
4504,-30.43
4516,-34.85
4527,-39.89
4538,-45.52
4550,-51.48
4562,-57.14
4574,-61.57
4586,-63.73
4598,-62.76
4610,-58.34
4622,-50.83
4634,-41.19
4646,-30.69
4658,-20.54
4670,-11.63
4682,-4.38
4694,1.25
4706,5.58
4717,9.01
4728,11.91
4740,14.51
4752,16.96
4764,19.27
4776,21.46
4788,23.51
4800,25.36
4812,26.99
4824,28.25
4836,29.07
4848,29.39
4860,29.28
4872,28.96
4884,28.72
4896,28.75
4907,29.02
4918,29.26
4930,29.05
4942,27.97
4954,25.82
4966,22.71
4978,19.06
4990,15.45
5002,12.44
5014,10.37
5026,9.24
5038,8.73
5050,8.31
5062,7.49
5074,5.99
5086,3.93
5097,1.62
5108,-0.53
5120,-2.35
5132,-3.93
5144,-5.61
5156,-7.78
5168,-10.57
5180,-13.85
5192,-17.17
5204,-20.06
5216,-22.19
5228,-23.51
5240,-24.23
5252,-24.75
5264,-25.55
5276,-27.12
5287,-29.91
5298,-34.2
5310,-39.94
5322,-46.5
5334,-52.65
5346,-56.77
5358,-57.28
5370,-53.18
5382,-44.54
5394,-32.45
5406,-18.72
5418,-5.24
5430,6.63
5442,16.23
5454,23.56
5466,28.89
5477,32.52
5488,34.57
5500,35.12
5512,34.31
5524,32.53
5536,30.4
5548,28.63
5560,27.78
5572,28.16
5584,29.77
5596,32.39
5608,35.78
5620,39.78
5632,44.38
5644,49.62
5656,55.45
5667,61.55
5678,67.28
5690,71.83
5702,74.42
5714,74.61
5726,72.45
5738,68.59
5750,64.06
5762,60.05
5774,57.58
5786,57.28
5798,59.18
5810,62.9
5822,67.89
5834,73.62
5846,79.83
5857,86.53
5868,93.78
5880,101.47
5892,109.21
5904,116.29
5916,121.9
5928,125.37
5940,126.26
5952,124.39
5964,119.78
5976,112.63
5988,103.4
6000,92.91
6012,82.19
6024,72.23
6036,63.5
6047,55.72
6058,47.83
6070,38.4
6082,26.17
6094,10.47
6106,-8.76
6118,-31.11
6130,-56.01
6142,-82.82
6154,-110.79
6166,-138.71
6178,-164.96
6190,-187.55
6202,-204.6
6214,-214.81
6226,-217.83
6237,-214.35
6248,-205.81
6260,-194.04
6272,-180.71
6284,-167.03
6296,-153.65
6308,-140.77
6320,-128.42
6332,-116.63
6344,-105.58
6356,-95.45
6368,-86.38
6380,-78.34
6392,-71.29
6404,-65.2
6416,-60.18
6427,-56.35
6438,-53.78
6450,-52.33
6462,-51.71
6474,-51.59
6486,-51.75
6498,-52.15
6510,-52.86
6522,-53.86
6534,-54.94
6546,-55.54
6558,-54.94
6570,-52.39
6582,-47.42
6594,-40.04
6606,-30.68
6617,-20.22
6628,-9.71
6640,-0.14
6652,7.82
6664,13.98
6676,18.54
6688,21.99
6700,24.86
6712,27.55
6724,30.23
6736,32.88
6748,35.42
6760,37.75
6772,39.83
6784,41.56
6796,42.75
6807,43.21
6818,42.73
6830,41.32
6842,39.24
6854,36.98
6866,35.04
6878,33.77
6890,33.23
6902,33.12
6914,32.99
6926,32.38
6938,31.01
6950,28.89
6962,26.27
6974,23.45
6986,20.69
6997,17.97
7008,15.03
7020,11.41
7032,6.61
7044,0.34
7056,-7.34
7068,-15.87
7080,-24.27
7092,-31.28
7104,-35.68
7116,-36.62
7128,-33.87
7140,-27.85
7152,-19.51
7164,-10.13
7176,-0.94
7187,6.95
7198,12.77
7210,16.17
7222,17.23
7234,16.42
7246,14.51
7258,12.34
7270,10.56
7282,9.54
7294,9.2
7306,9.23
7318,9.3
7330,9.12
7342,8.62
7354,7.84
7366,6.86
7377,5.75
7388,4.61
7400,3.52
7412,2.58
7424,1.83
7436,1.12
7448,0.18
7460,-1.3
7472,-3.55
7484,-6.56
7496,-10.07
7508,-13.71
7520,-17.19
7532,-20.41
7544,-23.64
7556,-27.31
7567,-31.85
7578,-37.43
7590,-43.78
7602,-50.12
7614,-55.28
7626,-58.02
7638,-57.38
7650,-53.0
7662,-45.24
7674,-35.08
7686,-23.92
7698,-13.12
7710,-3.76
7722,3.63
7734,9.0
7746,12.64
7757,14.97
7768,16.39
7780,17.19
7792,17.52
7804,17.57
7816,17.52
7828,17.54
7840,17.7
7852,17.93
7864,18.05
7876,17.82
7888,17.16
7900,16.17
7912,15.09
7924,14.14
7936,13.31
7947,12.38
7958,10.92
7970,8.61
7982,5.34
7994,1.37
8006,-2.89
8018,-6.95
8030,-10.55
8042,-13.68
8054,-16.64
8066,-19.88
8078,-23.89
8090,-28.89
8102,-34.72
8114,-40.73
8126,-45.87
8137,-48.91
8148,-48.86
8160,-45.2
8172,-38.17
8184,-28.64
8196,-17.89
8208,-7.2
8220,2.43
8232,10.48
8244,16.87
8256,21.87
8268,25.88
8280,29.23
8292,32.1
8304,34.59
8316,36.7
8327,38.46
8338,40.01
8350,41.5
8362,43.03
8374,44.59
8386,45.96
8398,46.85
8410,46.98
8422,46.2
8434,44.6
8446,42.44
8458,39.97
8470,37.3
8482,34.4
8494,31.08
8506,27.16
8517,22.65
8528,17.65
8540,12.45
8552,7.39
8564,2.73
8576,-1.34
8588,-4.79
8600,-7.76
8612,-10.51
8624,-13.39
8636,-16.86
8648,-21.29
8660,-26.9
8672,-33.6
8684,-40.92
8696,-47.98
8707,-53.69
8718,-56.85
8730,-56.56
8742,-52.48
8754,-44.95
8766,-35.01
8778,-24.08
8790,-13.56
8802,-4.43
8814,3.01
8826,9.08
8838,14.44
8850,19.68
8862,25.03
8874,30.32
8886,35.06
8897,38.78
8908,41.26
8920,42.6
8932,43.18
8944,43.44
8956,43.77
8968,44.4
8980,45.5
8992,47.17
9004,49.46
9016,52.25
9028,55.29
9040,58.07
9052,60.0
9064,60.58
9076,59.56
9087,57.09
9098,53.68
9110,49.97
9122,46.52
9134,43.62
9146,41.25
9158,39.18
9170,37.12
9182,34.92
9194,32.51
9206,29.91
9218,27.06
9230,23.84
9242,20.15
9254,16.03
9266,11.73
9277,7.67
9288,4.26
9300,1.65
9312,-0.34
9324,-2.06
9336,-3.92
9348,-6.14
9360,-8.69
9372,-11.35
9384,-13.92
9396,-16.4
9408,-18.98
9420,-22.05
9432,-26.06
9444,-31.44
9456,-38.43
9467,-46.97
9478,-56.57
9490,-66.22
9502,-74.57
9514,-80.23
9526,-82.19
9538,-80.16
9550,-74.71
9562,-67.04
9574,-58.61
9586,-50.58
9598,-43.57
9610,-37.52
9622,-31.95
9634,-26.3
9646,-20.15
9657,-13.47
9668,-6.51
9680,0.36
9692,6.84
9704,12.79
9716,18.24
9728,23.28
9740,27.91
9752,32.03
9764,35.49
9776,38.21
9788,40.26
9800,41.84
9812,43.18
9824,44.37
9836,45.3
9847,45.75
9858,45.45
9870,44.33
9882,42.51
9894,40.35
9906,38.24
9918,36.44
9930,35.03
9942,33.86
9954,32.62
9966,31.03
9978,28.87
9990,26.11
10002,22.9
10014,19.49
10026,16.17
10037,13.1
10048,10.26
10060,7.49
10072,4.51
10084,1.16
10096,-2.65
10108,-6.79
10120,-11.08
10132,-15.28
10144,-19.25
10156,-22.85
10168,-26.06
10180,-28.97
10192,-31.81
10204,-34.94
10216,-38.79
10227,-43.69
10238,-49.66
10250,-56.2
10262,-62.29
10274,-66.61
10286,-67.94
10298,-65.56
10310,-59.61
10322,-50.97
10334,-41.05
10346,-31.17
10358,-22.23
10370,-14.47
10382,-7.6
10394,-1.18
10406,5.11
10417,11.25
10428,16.93
10440,21.84
10452,25.8
10464,28.89
10476,31.32
10488,33.27
10500,34.74
10512,35.62
10524,35.76
10536,35.22
10548,34.25
10560,33.27
10572,32.63
10584,32.45
10596,32.54
10607,32.54
10618,32.1
10630,31.13
10642,29.77
10654,28.33
10666,27.07
10678,26.08
10690,25.26
10702,24.42
10714,23.45
10726,22.32
10738,21.06
10750,19.7
10762,18.21
10774,16.53
10786,14.57
10797,12.31
10808,9.81
10820,7.19
10832,4.65
10844,2.29
10856,0.14
10868,-1.91
10880,-4.03
10892,-6.42
10904,-9.12
10916,-12.01
10928,-14.86
10940,-17.46
10952,-19.72
10964,-21.7
10976,-23.66
10987,-25.83
10998,-28.43
11010,-31.57
11022,-35.32
11034,-39.67
11046,-44.59
11058,-49.82
11070,-54.81
11082,-58.7
11094,-60.41
11106,-59.09
11118,-54.43
11130,-46.85
11142,-37.43
11154,-27.58
11166,-18.52
11177,-10.96
11188,-5.01
11200,-0.32
11212,3.6
11224,7.11
11236,10.34
11248,13.28
11260,15.95
11272,18.41
11284,20.76
11296,23.03
11308,25.16
11320,26.99
11332,28.36
11344,29.22
11356,29.63
11367,29.77
11378,29.84
11390,29.97
11402,30.14
11414,30.27
11426,30.22
11438,29.87
11450,29.18
11462,28.13
11474,26.74
11486,25.08
11498,23.25
11510,21.32
11522,19.38
11534,17.46
11546,15.56
11557,13.61
11568,11.57
11580,9.42
11592,7.22
11604,5.04
11616,2.93
11628,0.86
11640,-1.19
11652,-3.33
11664,-5.63
11676,-8.12
11688,-10.81
11700,-13.59
11712,-16.35
11724,-19.01
11736,-21.49
11747,-23.78
11758,-25.93
11770,-28.06
11782,-30.36
11794,-33.09
11806,-36.48
11818,-40.6
11830,-45.21
11842,-49.73
11854,-53.27
11866,-54.87
11878,-53.81
11890,-49.89
11902,-43.52
11914,-35.63
11926,-27.36
11937,-19.78
11948,-13.54
11960,-8.86
11972,-5.42
11984,-2.69
11996,-0.04
12008,2.89
12020,6.2
12032,9.71
12044,13.14
12056,16.21
12068,18.77
12080,20.72
12092,22.03
12104,22.64
12116,22.6
12127,22.05
12138,21.35
12150,20.91
12162,21.02
12174,21.71
12186,22.67
12198,23.48
12210,23.73
12222,23.26
12234,22.25
12246,21.06
12258,20.04
12270,19.36
12282,18.91
12294,18.41
12306,17.58
12317,16.26
12328,14.54
12340,12.62
12352,10.74
12364,9.02
12376,7.42
12388,5.78
12400,3.94
12412,1.85
12424,-0.39
12436,-2.61
12448,-4.7
12460,-6.66
12472,-8.65
12484,-10.84
12496,-13.27
12507,-15.86
12518,-18.41
12530,-20.68
12542,-22.61
12554,-24.27
12566,-25.86
12578,-27.65
12590,-29.92
12602,-32.92
12614,-36.76
12626,-41.29
12638,-46.01
12650,-50.12
12662,-52.67
12674,-52.84
12686,-50.29
12697,-45.21
12708,-38.26
12720,-30.36
12732,-22.37
12744,-15.01
12756,-8.75
12768,-3.86
12780,-0.29
12792,2.19
12804,4.04
12816,5.74
12828,7.65
12840,9.85
12852,12.23
12864,14.52
12876,16.55
12887,18.27
12898,19.73
12910,21.01
12922,22.13
12934,23.04
12946,23.63
12958,23.92
12970,23.94
12982,23.8
12994,23.61
13006,23.4
13018,23.16
13030,22.84
13042,22.36
13054,21.69
13066,20.81
13077,19.76
13088,18.61
13100,17.4
13112,16.18
13124,14.92
13136,13.6
13148,12.18
13160,10.67
13172,9.13
13184,7.59
13196,6.08
13208,4.49
13220,2.72
13232,0.71
13244,-1.53
13256,-3.86
13267,-6.18
13278,-8.38
13290,-10.53
13302,-12.74
13314,-15.13
13326,-17.69
13338,-20.33
13350,-22.9
13362,-25.29
13374,-27.54
13386,-29.82
13398,-32.4
13410,-35.52
13422,-39.3
13434,-43.62
13446,-48.02
13457,-51.72
13468,-53.75
13480,-53.31
13492,-50.01
13504,-44.07
13516,-36.34
13528,-27.9
13540,-19.81
13552,-12.77
13564,-7.04
13576,-2.5
13588,1.1
13600,3.97
13612,6.31
13624,8.19
13636,9.79
13647,11.25
13658,12.7
13670,14.15
13682,15.51
13694,16.66
13706,17.42
13718,17.75
13730,17.67
13742,17.3
13754,16.8
13766,16.35
13778,16.06
13790,15.99
13802,16.09
13814,16.29
13826,16.45
13837,16.43
13848,16.14
13860,15.61
13872,14.87
13884,14.01
13896,13.06
13908,12.05
13920,11.0
13932,9.96
13944,8.97
13956,8.08
13968,7.23
13980,6.35
13992,5.4
14004,4.32
14016,3.12
14027,1.8
14038,0.34
14050,-1.35
14062,-3.33
14074,-5.57
14086,-7.95
14098,-10.29
14110,-12.44
14122,-14.41
14134,-16.37
14146,-18.54
14158,-21.2
14170,-24.51
14182,-28.5
14194,-33.05
14206,-37.79
14217,-42.15
14228,-45.38
14240,-46.74
14252,-45.62
14264,-41.88
14276,-35.83
14288,-28.25
14300,-20.11
14312,-12.3
14324,-5.5
14336,-0.02
14348,4.11
14360,7.05
14372,9.04
14384,10.38
14396,11.3
14407,11.97
14418,12.5
14430,12.94
14442,13.34
14454,13.79
14466,14.36
14478,15.09
14490,15.91
14502,16.68
14514,17.2
14526,17.42
14538,17.39
14550,17.24
14562,17.12
14574,17.06
14586,16.93
14597,16.53
14608,15.68
14620,14.29
14632,12.45
14644,10.36
14656,8.26
14668,6.35
14680,4.7
14692,3.32
14704,2.1
14716,0.93
14728,-0.31
14740,-1.69
14752,-3.28
14764,-5.1
14776,-7.13
14787,-9.35
14798,-11.68
14810,-14.05
14822,-16.49
14834,-19.17
14846,-22.34
14858,-26.29
14870,-31.19
14882,-36.83
14894,-42.51
14906,-47.22
14918,-49.8
14930,-49.37
14942,-45.66
14954,-39.07
14966,-30.62
14977,-21.58
14988,-13.13
15000,-6.07
15012,-0.72
15024,3.1
15036,5.8
15048,7.93
15060,9.88
15072,11.88
15084,13.96
15096,16.02
15108,17.95
15120,19.67
15132,21.18
15144,22.47
15156,23.52
15167,24.2
15178,24.38
15190,24.03
15202,23.29
15214,22.46
15226,21.82
15238,21.5
15250,21.38
15262,21.09
15274,20.29
15286,18.85
15298,16.97
15310,15.05
15322,13.51
15334,12.5
15346,11.76
15357,10.82
15368,9.18
15380,6.57
15392,3.02
15404,-1.15
15416,-5.51
15428,-9.71
15440,-13.58
15452,-17.2
15464,-20.8
15476,-24.68
15488,-29.08
15500,-34.02
15512,-39.23
15524,-44.04
15536,-47.53
15547,-48.72
15558,-46.89
15570,-41.86
15582,-34.09
15594,-24.65
15606,-14.83
15618,-5.83
15630,1.57
15642,7.15
15654,11.12
15666,13.94
15678,16.0
15690,17.58
15702,18.77
15714,19.58
15726,20.04
15737,20.26
15748,20.39
15760,20.67
15772,21.28
15784,22.36
15796,23.83
15808,25.43
15820,26.76
15832,27.42
15844,27.22
15856,26.25
15868,24.81
15880,23.26
15892,21.8
15904,20.34
15916,18.59
15927,16.24
15938,13.08
15950,9.23
15962,4.99
15974,0.68
15986,-3.41
15998,-7.19
16010,-10.74
16022,-14.15
16034,-17.52
16046,-20.93
16058,-24.53
16070,-28.45
16082,-32.75
16094,-37.23
16106,-41.32
16117,-44.12
16128,-44.63
16140,-42.18
16152,-36.78
16164,-29.16
16176,-20.55
16188,-12.28
16200,-5.25
16212,0.26
16224,4.45
16236,7.73
16248,10.36
16260,12.38
16272,13.68
16284,14.3
16296,14.47
16307,14.63
16318,15.14
16330,16.11
16342,17.25
16354,18.07
16366,18.12
16378,17.32
16390,15.99
16402,14.7
16414,13.94
16426,13.86
16438,14.17
16450,14.24
16462,13.42
16474,11.3
16486,7.92
16497,3.65
16508,-0.94
16520,-5.36
16532,-9.3
16544,-12.72
16556,-15.8
16568,-18.9
16580,-22.49
16592,-26.98
16604,-32.56
16616,-38.99
16628,-45.54
16640,-50.99
16652,-54.04
16664,-53.66
16676,-49.51
16687,-42.11
16698,-32.64
16710,-22.58
16722,-13.23
16734,-5.42
16746,0.64
16758,5.14
16770,8.5
16782,11.09
16794,13.14
16806,14.76
16818,16.01
16830,17.02
16842,17.98
16854,19.02
16866,20.11
16877,21.08
16888,21.66
16900,21.7
16912,21.2
16924,20.36
16936,19.46
16948,18.68
16960,17.95
16972,17.06
16984,15.65
16996,13.41
17008,10.13
17020,5.83
17032,0.74
17044,-4.72
17056,-10.02
17067,-14.69
17078,-18.5
17090,-21.62
17102,-24.54
17114,-27.95
17126,-32.5
17138,-38.38
17150,-45.27
17162,-52.19
17174,-57.81
17186,-60.73
17198,-59.96
17210,-55.2
17222,-47.01
17234,-36.63
17246,-25.55
17257,-15.16
17268,-6.32
17280,0.74
17292,6.27
17304,10.81
17316,14.83
17328,18.63
17340,22.29
17352,25.71
17364,28.73
17376,31.2
17388,33.04
17400,34.27
17412,34.96
17424,35.27
17436,35.3
17447,35.13
17458,34.78
17470,34.2
17482,33.37
17494,32.41
17506,31.44
17518,30.62
17530,29.98
17542,29.4
17554,28.6
17566,27.23
17578,24.96
17590,21.67
17602,17.47
17614,12.59
17626,7.24
17637,1.58
17648,-4.39
17660,-10.65
17672,-17.09
17684,-23.52
17696,-29.76
17708,-35.81
17720,-41.82
17732,-47.92
17744,-53.92
17756,-59.18
17768,-62.6
17780,-62.97
17792,-59.57
17804,-52.5
17816,-42.79
17827,-32.07
17838,-21.92
17850,-13.36
17862,-6.59
17874,-1.01
17886,4.31
17898,10.18
17910,16.99
17922,24.67
17934,32.76
17946,40.76
17958,48.21
17970,54.8
17982,60.33
17994,64.66
18006,67.63
18017,69.1
18028,69.01
18040,67.42
18052,64.56
18064,60.83
18076,56.7
18088,52.66
18100,49.02
18112,45.91
18124,43.24
18136,40.85
18148,38.55
18160,36.35
18172,34.3
18184,32.5
18196,30.9
18207,29.22
18218,27.05
18230,23.94
18242,19.7
18254,14.37
18266,8.28
18278,1.86
18290,-4.59
18302,-10.93
18314,-17.18
18326,-23.46
18338,-29.83
18350,-36.28
18362,-42.68
18374,-48.75
18386,-53.95
18397,-57.45
18408,-58.23
18420,-55.43
18432,-48.69
18444,-38.55
18456,-26.38
18468,-13.97
18480,-2.97
18492,5.71
18504,12.0
18516,16.52
18528,20.05
18540,23.25
18552,26.35
18564,29.36
18576,32.18
18587,34.8
18598,37.33
18610,39.85
18622,42.39
18634,44.83
18646,47.02
18658,48.79
18670,50.08
18682,50.9
18694,51.31
18706,51.32
18718,50.83
18730,49.61
18742,47.37
18754,43.92
18766,39.24
18777,33.66
18788,27.78
18800,22.3
18812,17.82
18824,14.57
18836,12.37
18848,10.73
18860,9.09
18872,7.08
18884,4.66
18896,2.07
18908,-0.47
18920,-2.99
18932,-5.82
18944,-9.53
18956,-14.69
18967,-21.54
18978,-29.89
18990,-39.05
19002,-47.95
19014,-55.3
19026,-59.77
19038,-60.25
19050,-56.18
19062,-47.76
19074,-36.05
19086,-22.73
19098,-9.68
19110,1.5
19122,9.93
19134,15.53
19146,18.85
19157,20.75
19168,22.02
19180,23.16
19192,24.38
19204,25.68
19216,26.99
19228,28.31
19240,29.7
19252,31.29
19264,33.13
19276,35.17
19288,37.28
19300,39.24
19312,40.9
19324,42.2
19336,43.16
19347,43.77
19358,43.92
19370,43.33
19382,41.68
19394,38.74
19406,34.51
19418,29.29
19430,23.59
19442,17.98
19454,12.9
19466,8.58
19478,5.1
19490,2.42
19502,0.46
19514,-0.85
19526,-1.63
19537,-2.09
19548,-2.59
19560,-3.58
19572,-5.56
19584,-8.99
19596,-14.21
19608,-21.28
19620,-29.81
19632,-38.86
19644,-46.98
19656,-52.5
19668,-54.07
19680,-51.05
19692,-43.85
19704,-33.78
19716,-22.67
19727,-12.25
19738,-3.67
19750,2.7
19762,7.18
19774,10.39
19786,12.94
19798,15.12
19810,16.94
19822,18.3
19834,19.16
19846,19.7
19858,20.19
19870,20.93
19882,22.0
19894,23.28
19906,24.44
19917,25.2
19928,25.4
19940,25.03
19952,24.24
19964,23.19
19976,21.95
19988,20.47
20000,18.66
20012,16.33
20024,13.39
20036,9.8
20048,5.68
20060,1.29
20072,-3.03
20084,-6.94
20096,-10.27
20107,-13.08
20118,-15.67
20130,-18.44
20142,-21.78
20154,-25.95
20166,-30.99
20178,-36.72
20190,-42.67
20202,-48.13
20214,-52.17
20226,-53.9
20238,-52.66
20250,-48.28
20262,-41.2
20274,-32.39
20286,-23.09
20297,-14.4
20308,-6.98
20320,-0.94
20332,3.97
20344,8.16
20356,11.84
20368,14.99
20380,17.4
20392,18.89
20404,19.54
20416,19.68
20428,19.79
20440,20.24
20452,21.17
20464,22.36
20476,23.42
20487,23.97
20498,23.83
20510,23.14
20522,22.11
20534,21.04
20546,20.01
20558,18.88
20570,17.44
20582,15.4
20594,12.61
20606,9.07
20618,4.92
20630,0.42
20642,-4.14
20654,-8.49
20666,-12.46
20677,-16.01
20688,-19.33
20700,-22.73
20712,-26.59
20724,-31.27
20736,-36.91
20748,-43.43
20760,-50.4
20772,-57.06
20784,-62.35
20796,-65.09
20808,-64.3
20820,-59.54
20832,-51.2
20844,-40.4
20856,-28.78
20867,-17.87
20878,-8.73
20890,-1.62
20902,3.81
20914,8.25
20926,12.34
20938,16.39
20950,20.43
20962,24.25
20974,27.62
20986,30.32
20998,32.23
