seconds,BVP
9,46.43
21,44.72
33,42.41
45,39.85
57,37.25
69,34.74
81,32.47
93,30.6
105,29.38
117,28.98
128,29.44
139,30.63
151,32.29
163,34.09
175,35.72
187,36.91
199,37.44
211,37.13
223,35.89
235,33.7
247,30.69
259,27.14
271,23.41
283,19.87
295,16.77
307,14.11
318,11.71
329,9.26
341,6.44
353,3.13
365,-0.53
377,-4.24
389,-7.62
401,-10.42
413,-12.67
425,-14.67
437,-16.87
449,-19.66
461,-23.22
473,-27.4
485,-31.82
497,-36.01
508,-39.62
519,-42.53
531,-44.93
543,-47.28
555,-50.17
567,-54.19
579,-59.63
591,-66.38
603,-73.71
615,-80.31
627,-84.49
639,-84.6
651,-79.51
663,-69.0
675,-53.93
687,-36.06
698,-17.54
709,-0.36
721,14.12
733,25.32
745,33.34
757,38.65
769,41.82
781,43.37
793,43.69
805,43.12
817,41.95
829,40.47
841,38.93
853,37.5
865,36.31
877,35.45
888,35.01
899,35.07
911,35.68
923,36.78
935,38.17
947,39.53
959,40.51
971,40.78
983,40.21
995,38.78
1007,36.62
1019,33.91
1031,30.84
1043,27.62
1055,24.4
1067,21.34
1078,18.58
1089,16.15
1101,13.97
1113,11.88
1125,9.67
1137,7.24
1149,4.62
1161,1.96
1173,-0.53
1185,-2.74
1197,-4.66
1209,-6.41
1221,-8.11
1233,-9.92
1245,-11.96
1257,-14.29
1268,-16.99
1279,-20.12
1291,-23.6
1303,-27.26
1315,-30.82
1327,-34.05
1339,-36.85
1351,-39.42
1363,-42.14
1375,-45.55
1387,-50.12
1399,-55.98
1411,-62.72
1423,-69.29
1435,-74.16
1447,-75.66
1458,-72.51
1469,-64.3
1481,-51.7
1493,-36.25
1505,-19.93
1517,-4.61
1529,8.44
1541,18.58
1553,25.78
1565,30.3
1577,32.56
1589,32.98
1601,32.0
1613,30.08
1625,27.65
1637,25.09
1648,22.75
1659,20.86
1671,19.6
1683,19.04
1695,19.2
1707,20.01
1719,21.41
1731,23.26
1743,25.46
1755,27.81
1767,30.01
1779,31.69
1791,32.44
1803,32.0
1815,30.33
1827,27.66
1838,24.37
1849,20.82
1861,17.25
1873,13.69
1885,10.08
1897,6.39
1909,2.69
1921,-0.83
1933,-3.96
1945,-6.63
1957,-8.95
1969,-11.22
1981,-13.74
1993,-16.66
2005,-19.88
2017,-23.09
2028,-25.89
2039,-28.08
2051,-29.73
2063,-31.2
2075,-33.04
2087,-35.77
2099,-39.77
2111,-45.06
2123,-51.21
2135,-57.3
2147,-61.99
2159,-63.8
2171,-61.53
2183,-54.62
2195,-43.45
2207,-29.23
2218,-13.66
2229,1.49
2241,14.83
2253,25.53
2265,33.34
2277,38.41
2289,41.11
2301,41.86
2313,41.05
2325,39.06
2337,36.25
2349,32.98
2361,29.67
2373,26.69
2385,24.42
2397,23.08
2408,22.78
2419,23.41
2431,24.78
2443,26.59
2455,28.55
2467,30.38
2479,31.8
2491,32.59
2503,32.56
2515,31.59
2527,29.68
2539,26.93
2551,23.52
2563,19.69
2575,15.69
2587,11.72
2598,7.87
2609,4.11
2621,0.26
2633,-3.9
2645,-8.51
2657,-13.61
2669,-19.0
2681,-24.34
2693,-29.26
2705,-33.47
2717,-36.9
2729,-39.72
2741,-42.25
2753,-44.92
2765,-48.19
2777,-52.42
2788,-57.78
2799,-64.08
2811,-70.67
2823,-76.34
2835,-79.52
2847,-78.68
2859,-72.8
2871,-61.8
2883,-46.61
2895,-28.97
2907,-10.94
2919,5.63
2931,19.46
2943,30.02
2955,37.4
2967,42.05
2978,44.58
2989,45.59
3001,45.55
3013,44.82
3025,43.63
3037,42.11
3049,40.35
3061,38.5
3073,36.73
3085,35.31
3097,34.47
3109,34.41
3121,35.15
3133,36.6
3145,38.45
3157,40.32
3168,41.75
3179,42.33
3191,41.8
3203,40.03
3215,37.07
3227,33.15
3239,28.69
3251,24.17
3263,20.08
3275,16.65
3287,13.85
3299,11.34
3311,8.65
3323,5.39
3335,1.49
3347,-2.86
3358,-7.22
3369,-11.19
3381,-14.61
3393,-17.6
3405,-20.46
3417,-23.51
3429,-26.98
3441,-30.87
3453,-35.06
3465,-39.27
3477,-43.27
3489,-46.9
3501,-50.18
3513,-53.32
3525,-56.73
3537,-60.89
3548,-66.18
3559,-72.66
3571,-79.82
3583,-86.49
3595,-91.01
3607,-91.62
3619,-87.0
3631,-76.75
3643,-61.59
3655,-43.22
3667,-23.84
3679,-5.46
3691,10.48
3703,23.32
3715,33.15
3727,40.36
3738,45.46
3749,48.78
3761,50.55
3773,50.94
3785,50.22
3797,48.74
3809,46.89
3821,45.0
3833,43.23
3845,41.67
3857,40.27
3869,39.11
3881,38.31
3893,38.08
3905,38.56
3917,39.68
3928,41.2
3939,42.67
3951,43.7
3963,43.95
3975,43.32
3987,41.87
3999,39.78
4011,37.28
4023,34.56
4035,31.7
4047,28.79
4059,25.89
4071,23.05
4083,20.33
4095,17.76
4107,15.31
4118,12.94
4129,10.61
4141,8.32
4153,6.07
4165,3.93
4177,1.89
4189,-0.13
4201,-2.3
4213,-4.79
4225,-7.75
4237,-11.2
4249,-15.1
4261,-19.26
4273,-23.5
4285,-27.63
4297,-31.48
4308,-35.02
4319,-38.34
4331,-41.68
4343,-45.41
4355,-49.93
4367,-55.51
4379,-62.07
4391,-69.02
4403,-75.17
4415,-78.98
4427,-78.96
4439,-74.08
4451,-64.19
4463,-50.1
4475,-33.37
4487,-15.9
4498,0.56
4509,14.75
4521,26.06
4533,34.38
4545,39.99
4557,43.27
4569,44.66
4581,44.58
4593,43.45
4605,41.72
4617,39.81
4629,38.1
4641,36.82
4653,36.09
4665,35.85
4677,35.95
4688,36.27
4699,36.69
4711,37.16
4723,37.67
4735,38.17
4747,38.58
4759,38.72
4771,38.33
4783,37.16
4795,35.05
4807,32.02
4819,28.33
4831,24.36
4843,20.49
4855,16.86
4867,13.41
4878,9.83
4889,5.83
4901,1.29
4913,-3.59
4925,-8.42
4937,-12.76
4949,-16.38
4961,-19.35
4973,-21.98
4985,-24.68
4997,-27.76
5009,-31.29
5021,-35.13
5033,-39.01
5045,-42.63
5057,-45.84
5068,-48.62
5079,-51.12
5091,-53.64
5103,-56.59
5115,-60.36
5127,-65.17
5139,-70.86
5151,-76.66
5163,-81.28
5175,-83.15
5187,-80.93
5199,-73.91
5211,-62.31
5223,-47.23
5235,-30.31
5247,-13.35
5258,2.21
5269,15.35
5281,25.66
5293,33.12
5305,38.08
5317,41.03
5329,42.48
5341,42.9
5353,42.6
5365,41.77
5377,40.56
5389,39.11
5401,37.63
5413,36.36
5425,35.5
5437,35.21
5448,35.53
5459,36.4
5471,37.75
5483,39.47
5495,41.44
5507,43.5
5519,45.42
5531,47.05
5543,48.21
5555,48.86
5567,49.04
5579,48.81
5591,48.21
5603,47.21
5615,45.71
5627,43.64
5638,40.96
5649,37.73
5661,34.07
5673,30.16
5685,26.16
5697,22.31
5709,18.86
5721,16.05
5733,14.03
5745,12.74
5757,11.9
5769,11.11
5781,10.02
5793,8.49
5805,6.55
5817,4.42
5828,2.31
5839,0.25
5851,-1.9
5863,-4.46
5875,-7.71
5887,-11.8
5899,-16.6
5911,-21.81
5923,-26.99
5935,-31.68
5947,-35.65
5959,-38.88
5971,-41.68
5983,-44.56
5995,-48.09
6007,-52.67
6018,-58.31
6029,-64.41
6041,-69.78
6053,-72.89
6065,-72.28
6077,-67.04
6089,-57.16
6101,-43.57
6113,-27.88
6125,-11.88
6137,2.84
6149,15.21
6161,24.75
6173,31.41
6185,35.44
6197,37.27
6208,37.39
6219,36.39
6231,34.83
6243,33.13
6255,31.55
6267,30.23
6279,29.24
6291,28.75
6303,28.94
6315,30.06
6327,32.2
6339,35.24
6351,38.85
6363,42.55
6375,45.88
6387,48.49
6398,50.17
6409,50.82
6421,50.36
6433,48.74
6445,45.98
6457,42.22
6469,37.78
6481,33.07
6493,28.49
6505,24.33
6517,20.64
6529,17.25
6541,13.9
6553,10.35
6565,6.56
6577,2.62
6588,-1.23
6599,-4.77
6611,-7.91
6623,-10.66
6635,-13.17
6647,-15.6
6659,-18.1
6671,-20.8
6683,-23.78
6695,-27.06
6707,-30.63
6719,-34.37
6731,-38.08
6743,-41.55
6755,-44.6
6767,-47.21
6778,-49.51
6789,-51.77
6801,-54.29
6813,-57.35
6825,-61.19
6837,-65.84
6849,-71.03
6861,-76.05
6873,-79.79
6885,-80.9
6897,-78.26
6909,-71.34
6921,-60.51
6933,-46.97
6945,-32.39
6957,-18.42
6968,-6.27
6979,3.42
6991,10.54
7003,15.33
7015,18.17
7027,19.44
7039,19.57
7051,18.92
7063,17.83
7075,16.52
7087,15.14
7099,13.72
7111,12.36
7123,11.17
7135,10.41
7147,10.35
7158,11.15
7169,12.81
7181,15.13
7193,17.83
7205,20.6
7217,23.23
7229,25.55
7241,27.41
7253,28.58
7265,28.84
7277,27.98
7289,26.03
7301,23.25
7313,20.1
7325,17.0
7337,14.26
7348,11.92
7359,9.8
7371,7.77
7383,5.78
7395,3.96
7407,2.51
7419,1.51
7431,0.84
7443,0.23
7455,-0.67
7467,-2.06
7479,-3.98
7491,-6.38
7503,-9.21
7515,-12.51
7527,-16.35
7538,-20.7
7549,-25.32
7561,-29.83
7573,-33.82
7585,-37.1
7597,-39.77
7609,-42.23
7621,-44.98
7633,-48.49
7645,-53.01
7657,-58.46
7669,-64.34
7681,-69.75
7693,-73.43
7705,-74.04
7717,-70.52
7728,-62.5
7739,-50.47
7751,-35.69
7763,-19.92
7775,-4.87
7787,8.15
7799,18.47
7811,26.01
7823,31.15
7835,34.44
7847,36.39
7859,37.4
7871,37.69
7883,37.39
7895,36.59
7907,35.46
7918,34.19
7929,33.0
7941,32.07
7953,31.5
7965,31.38
7977,31.74
7989,32.65
8001,34.1
8013,36.0
8025,38.1
8037,40.05
8049,41.46
8061,42.02
8073,41.57
8085,40.1
8097,37.72
8108,34.64
8119,31.12
8131,27.41
8143,23.72
8155,20.18
8167,16.74
8179,13.32
8191,9.77
8203,6.04
8215,2.22
8227,-1.48
8239,-4.82
8251,-7.59
8263,-9.72
8275,-11.32
8287,-12.66
8298,-14.04
8309,-15.77
8321,-18.06
8333,-20.97
8345,-24.42
8357,-28.2
8369,-32.1
8381,-35.93
8393,-39.63
8405,-43.25
8417,-47.0
8429,-51.16
8441,-56.05
8453,-61.75
8465,-67.97
8477,-73.85
8488,-78.1
8499,-79.25
8511,-76.18
8523,-68.53
8535,-56.86
8547,-42.51
8559,-27.21
8571,-12.54
8583,0.33
8595,10.85
8607,18.92
8619,24.75
8631,28.68
8643,31.02
8655,32.04
8667,32.02
8678,31.18
8689,29.85
8701,28.35
8713,26.97
8725,25.95
8737,25.42
8749,25.37
8761,25.76
8773,26.55
8785,27.75
8797,29.38
8809,31.38
8821,33.57
8833,35.56
8845,36.93
8857,37.28
8868,36.41
8879,34.39
8891,31.56
8903,28.37
8915,25.26
8927,22.48
8939,20.02
8951,17.7
8963,15.22
8975,12.4
8987,9.17
8999,5.68
9011,2.22
9023,-0.91
9035,-3.49
9047,-5.5
9058,-7.11
9069,-8.66
9081,-10.48
9093,-12.83
9105,-15.76
9117,-19.11
9129,-22.58
9141,-25.85
9153,-28.76
9165,-31.33
9177,-33.82
9189,-36.61
9201,-40.11
9213,-44.64
9225,-50.26
9237,-56.65
9248,-62.94
9259,-67.9
9271,-70.07
9283,-68.25
9295,-61.89
9307,-51.3
9319,-37.61
9331,-22.46
9343,-7.52
9355,5.84
9367,16.79
9379,25.02
9391,30.57
9403,33.72
9415,34.84
9427,34.29
9438,32.48
9449,29.76
9461,26.51
9473,23.1
9485,19.98
9497,17.54
9509,16.08
9521,15.73
9533,16.42
9545,17.93
9557,19.99
9569,22.35
9581,24.79
9593,27.09
9605,29.02
9617,30.26
9628,30.58
9639,29.78
9651,27.86
9663,24.97
9675,21.4
9687,17.5
9699,13.58
9711,9.86
9723,6.42
9735,3.2
9747,0.06
9759,-3.19
9771,-6.66
9783,-10.39
9795,-14.28
9807,-18.17
9818,-21.9
9829,-25.34
9841,-28.42
9853,-31.2
9865,-33.78
9877,-36.36
9889,-39.3
9901,-42.99
9913,-47.69
9925,-53.35
9937,-59.32
9949,-64.39
9961,-66.98
9973,-65.62
9985,-59.47
9997,-48.68
10008,-34.32
10019,-18.1
10031,-1.86
10043,12.94
10055,25.39
10067,35.13
10079,42.19
10091,46.8
10103,49.26
10115,49.91
10127,49.19
10139,47.51
10151,45.27
10163,42.77
10175,40.21
10187,37.68
10198,35.36
10209,33.43
10221,32.21
10233,31.95
10245,32.75
10257,34.44
10269,36.61
10281,38.65
10293,39.98
10305,40.23
10317,39.35
10329,37.6
10341,35.34
10353,32.83
10365,30.16
10377,27.16
10388,23.58
10399,19.25
10411,14.2
10423,8.75
10435,3.38
10447,-1.28
10459,-4.72
10471,-6.64
10483,-7.01
10495,-6.18
10507,-4.72
10519,-3.36
10531,-2.75
10543,-3.36
10555,-5.4
10567,-8.9
10578,-13.88
10589,-20.39
10601,-28.58
10613,-38.42
10625,-49.49
10637,-60.81
10649,-70.84
10661,-77.79
10673,-80.15
10685,-77.18
10697,-69.15
10709,-57.31
10721,-43.54
10733,-29.81
10745,-17.75
10757,-8.38
10768,-1.99
10779,1.67
10791,3.23
10803,3.49
10815,3.12
10827,2.62
10839,2.2
10851,1.89
10863,1.68
10875,1.5
10887,1.3
10899,1.06
10911,0.7
10923,0.25
10935,-0.25
10947,-0.62
10958,-0.63
10969,-0.03
10981,1.3
10993,3.38
11005,6.03
11017,8.98
11029,11.94
11041,14.66
11053,17.04
11065,19.12
11077,21.09
11089,23.11
11101,25.3
11113,27.64
11125,30.0
11137,32.19
11148,34.08
11159,35.57
11171,36.55
11183,36.93
11195,36.58
11207,35.44
11219,33.62
11231,31.35
11243,28.95
11255,26.62
11267,24.35
11279,21.87
11291,18.7
11303,14.3
11315,8.25
11327,0.43
11338,-8.77
11349,-18.35
11361,-26.78
11373,-32.31
11385,-33.41
11397,-29.32
11409,-20.34
11421,-7.77
11433,6.45
11445,20.29
11457,32.21
11469,41.3
11481,47.34
11493,50.53
11505,51.21
11517,49.77
11528,46.62
11539,42.24
11551,37.19
11563,31.97
11575,26.97
11587,22.46
11599,18.52
11611,15.19
11623,12.53
11635,10.61
11647,9.49
11659,9.17
11671,9.52
11683,10.29
11695,11.14
11707,11.72
11718,11.69
11729,10.82
11741,9.04
11753,6.43
11765,3.22
11777,-0.26
11789,-3.71
11801,-6.88
11813,-9.66
11825,-12.11
11837,-14.41
11849,-16.79
11861,-19.46
11873,-22.47
11885,-25.68
11897,-28.84
11908,-31.69
11919,-34.13
11931,-36.22
11943,-38.16
11955,-40.22
11967,-42.65
11979,-45.65
11991,-49.38
12003,-53.92
12015,-59.08
12027,-64.2
12039,-68.17
12051,-69.58
12063,-67.15
12075,-60.27
12087,-49.25
12098,-35.31
12109,-20.16
12121,-5.55
12133,7.23
12145,17.42
12157,24.85
12169,29.69
12181,32.25
12193,32.89
12205,32.01
12217,29.95
12229,27.11
12241,23.87
12253,20.64
12265,17.76
12277,15.51
12288,14.08
12299,13.51
12311,13.75
12323,14.69
12335,16.12
12347,17.89
12359,19.73
12371,21.33
12383,22.36
12395,22.52
12407,21.6
12419,19.6
12431,16.7
12443,13.21
12455,9.54
12467,6.01
12478,2.77
12489,-0.21
12501,-3.15
12513,-6.32
12525,-9.86
12537,-13.74
12549,-17.72
12561,-21.43
12573,-24.61
12585,-27.19
12597,-29.41
12609,-31.65
12621,-34.37
12633,-37.88
12645,-42.24
12657,-47.21
12668,-52.15
12679,-56.1
12691,-57.89
12703,-56.4
12715,-50.96
12727,-41.67
12739,-29.39
12751,-15.63
12763,-2.01
12775,10.1
12787,19.94
12799,27.3
12811,32.36
12823,35.38
12835,36.66
12847,36.43
12858,34.94
12869,32.59
12881,29.84
12893,27.14
12905,24.83
12917,23.08
12929,21.97
12941,21.49
12953,21.64
12965,22.44
12977,23.87
12989,25.77
13001,27.8
13013,29.52
13025,30.48
13037,30.39
13048,29.21
13059,27.17
13071,24.57
13083,21.68
13095,18.65
13107,15.5
13119,12.21
13131,8.8
13143,5.41
13155,2.15
13167,-0.83
13179,-3.48
13191,-5.84
13203,-7.98
13215,-10.02
13227,-12.13
13238,-14.46
13249,-17.19
13261,-20.38
13273,-23.94
13285,-27.65
13297,-31.19
13309,-34.31
13321,-37.0
13333,-39.47
13345,-42.19
13357,-45.66
13369,-50.13
13381,-55.39
13393,-60.64
13405,-64.55
13417,-65.63
13428,-62.68
13439,-55.22
13451,-43.72
13463,-29.47
13475,-14.2
13487,0.45
13499,13.24
13511,23.53
13523,31.14
13535,36.23
13547,39.09
13559,40.08
13571,39.65
13583,38.28
13595,36.43
13607,34.44
13618,32.53
13629,30.78
13641,29.22
13653,27.9
13665,26.93
13677,26.46
13689,26.63
13701,27.53
13713,29.08
13725,31.08
13737,33.2
13749,35.03
13761,36.19
13773,36.44
13785,35.69
13797,34.07
13808,31.84
13819,29.27
13831,26.61
13843,23.98
13855,21.46
13867,19.1
13879,16.99
13891,15.19
13903,13.73
13915,12.55
13927,11.49
13939,10.37
13951,9.09
13963,7.63
13975,6.1
13987,4.63
13998,3.27
14009,1.98
14021,0.64
14033,-0.93
14045,-2.8
14057,-4.94
14069,-7.22
14081,-9.48
14093,-11.59
14105,-13.49
14117,-15.25
14129,-17.01
14141,-19.0
14153,-21.39
14165,-24.32
14177,-27.77
14188,-31.57
14199,-35.44
14211,-39.07
14223,-42.24
14235,-44.87
14247,-47.09
14259,-49.14
14271,-51.47
14283,-54.51
14295,-58.56
14307,-63.59
14319,-69.07
14331,-73.89
14343,-76.56
14355,-75.67
14367,-70.26
14378,-60.26
14389,-46.56
14401,-30.76
14413,-14.74
14425,-0.15
14437,11.91
14449,20.96
14461,27.06
14473,30.61
14485,32.12
14497,32.13
14509,31.11
14521,29.45
14533,27.48
14545,25.49
14557,23.73
14568,22.38
14579,21.54
14591,21.22
14603,21.36
14615,21.87
14627,22.7
14639,23.82
14651,25.22
14663,26.78
14675,28.27
14687,29.4
14699,29.84
14711,29.44
14723,28.26
14735,26.59
14747,24.81
14758,23.18
14769,21.8
14781,20.5
14793,19.04
14805,17.16
14817,14.77
14829,11.98
14841,9.09
14853,6.47
14865,4.35
14877,2.78
14889,1.56
14901,0.4
14913,-1.0
14925,-2.76
14937,-4.79
14948,-6.9
14959,-8.89
14971,-10.69
14983,-12.39
14995,-14.2
15007,-16.28
15019,-18.72
15031,-21.48
15043,-24.41
15055,-27.39
15067,-30.32
15079,-33.1
15091,-35.66
15103,-37.95
15115,-39.93
15127,-41.76
15138,-43.79
15149,-46.5
15161,-50.3
15173,-55.19
15185,-60.55
15197,-65.12
15209,-67.31
15221,-65.71
15233,-59.55
15245,-49.04
15257,-35.27
15269,-19.92
15281,-4.77
15293,8.7
15305,19.57
15317,27.49
15328,32.58
15339,35.22
15351,35.92
15363,35.18
15375,33.42
15387,31.03
15399,28.36
15411,25.71
15423,23.37
15435,21.55
15447,20.34
15459,19.82
15471,20.03
15483,21.0
15495,22.75
15507,25.21
15518,28.13
15529,31.1
15541,33.6
15553,35.2
15565,35.68
15577,35.11
15589,33.74
15601,31.96
15613,30.01
15625,28.0
15637,25.87
15649,23.52
15661,20.91
15673,18.11
15685,15.29
15697,12.62
15708,10.17
15719,7.93
15731,5.79
15743,3.61
15755,1.28
15767,-1.2
15779,-3.75
15791,-6.21
15803,-8.47
15815,-10.54
15827,-12.59
15839,-14.9
15851,-17.72
15863,-21.16
15875,-25.07
15887,-29.12
15898,-32.95
15909,-36.34
15921,-39.31
15933,-42.16
15945,-45.31
15957,-49.16
15969,-53.99
15981,-59.82
15993,-66.27
16005,-72.55
16017,-77.45
16029,-79.54
16041,-77.57
16053,-70.85
16065,-59.51
16077,-44.57
16088,-27.66
16099,-10.6
16111,5.0
16123,18.02
16135,27.88
16147,34.51
16159,38.2
16171,39.45
16183,38.94
16195,37.36
16207,35.34
16219,33.29
16231,31.43
16243,29.74
16255,28.12
16267,26.52
16278,25.03
16289,23.88
16301,23.39
16313,23.81
16325,25.23
16337,27.48
16349,30.15
16361,32.71
16373,34.6
16385,35.44
16397,35.1
16409,33.71
16421,31.57
16433,29.03
16445,26.37
16457,23.72
16468,21.12
16479,18.52
16491,15.88
16503,13.21
16515,10.58
16527,8.09
16539,5.81
16551,3.75
16563,1.86
16575,0.03
16587,-1.86
16599,-3.9
16611,-6.12
16623,-8.42
16635,-10.72
16647,-12.91
16658,-15.0
16669,-17.16
16681,-19.58
16693,-22.44
16705,-25.8
16717,-29.54
16729,-33.43
16741,-37.28
16753,-40.95
16765,-44.48
16777,-48.02
16789,-51.78
16801,-55.96
16813,-60.78
16825,-66.37
16837,-72.72
16848,-79.43
16859,-85.61
16871,-89.85
16883,-90.59
16895,-86.61
16907,-77.44
16919,-63.67
16931,-46.75
16943,-28.54
16955,-10.85
16967,4.98
16979,18.19
16991,28.51
17003,36.02
17015,41.0
17027,43.87
17038,45.12
17049,45.25
17061,44.63
17073,43.51
17085,41.99
17097,40.18
17109,38.21
17121,36.37
17133,34.99
17145,34.37
17157,34.67
17169,35.83
17181,37.64
17193,39.76
17205,41.87
17217,43.61
17228,44.71
17239,44.97
17251,44.3
17263,42.76
17275,40.53
17287,37.85
17299,34.99
17311,32.1
17323,29.27
17335,26.5
17347,23.78
17359,21.14
17371,18.67
17383,16.45
17395,14.5
17407,12.73
17418,10.95
17429,9.0
17441,6.71
17453,4.02
17465,0.97
17477,-2.33
17489,-5.7
17501,-8.99
17513,-12.1
17525,-15.05
17537,-17.94
17549,-20.97
17561,-24.28
17573,-27.85
17585,-31.54
17597,-35.11
17608,-38.37
17619,-41.3
17631,-44.08
17643,-47.04
17655,-50.57
17667,-55.02
17679,-60.5
17691,-66.79
17703,-73.1
17715,-78.18
17727,-80.5
17739,-78.65
17751,-71.83
17763,-60.14
17775,-44.64
17787,-27.1
17798,-9.49
17809,6.48
17821,19.66
17833,29.61
17845,36.41
17857,40.41
17869,42.07
17881,41.86
17893,40.23
17905,37.64
17917,34.56
17929,31.41
17941,28.54
17953,26.14
17965,24.33
17977,23.19
17988,22.82
17999,23.33
18011,24.74
18023,26.9
18035,29.51
18047,32.08
18059,34.2
18071,35.53
18083,35.92
18095,35.41
18107,34.11
18119,32.16
18131,29.7
18143,26.88
18155,23.86
18167,20.84
18178,18.0
18189,15.48
18201,13.33
18213,11.47
18225,9.77
18237,8.09
18249,6.31
18261,4.39
18273,2.4
18285,0.45
18297,-1.32
18309,-2.81
18321,-4.06
18333,-5.16
18345,-6.33
18357,-7.77
18368,-9.71
18379,-12.21
18391,-15.26
18403,-18.63
18415,-22.02
18427,-25.14
18439,-27.8
18451,-30.09
18463,-32.32
18475,-35.05
18487,-38.8
18499,-43.8
18511,-49.75
18523,-55.63
18535,-59.89
18547,-60.82
18558,-57.06
18569,-48.1
18581,-34.52
18593,-17.81
18605,0.02
18617,17.02
18629,31.73
18641,43.32
18653,51.6
18665,56.79
18677,59.34
18689,59.78
18701,58.6
18713,56.26
18725,53.12
18737,49.53
18748,45.78
18759,42.15
18771,38.87
18783,36.11
18795,33.99
18807,32.54
18819,31.75
18831,31.61
18843,32.04
18855,32.91
18867,33.96
18879,34.81
18891,35.06
18903,34.4
18915,32.75
18927,30.31
18938,27.47
18949,24.7
18961,22.35
18973,20.48
18985,18.95
18997,17.47
19009,15.76
19021,13.78
19033,11.63
19045,9.6
19057,7.92
19069,6.66
19081,5.73
19093,4.9
19105,3.93
19117,2.65
19128,1.01
19139,-0.96
19151,-3.17
19163,-5.51
19175,-7.91
19187,-10.37
19199,-12.98
19211,-15.9
19223,-19.35
19235,-23.48
19247,-28.26
19259,-33.48
19271,-38.74
19283,-43.68
19295,-48.0
19307,-51.71
19318,-55.04
19329,-58.49
19341,-62.55
19353,-67.51
19365,-73.23
19377,-78.93
19389,-83.3
19401,-84.78
19413,-82.01
19425,-74.26
19437,-61.77
19449,-45.67
19461,-27.73
19473,-9.83
19485,6.4
19497,19.88
19508,30.15
19519,37.25
19531,41.61
19543,43.88
19555,44.77
19567,44.92
19579,44.76
19591,44.5
19603,44.19
19615,43.78
19627,43.25
19639,42.66
19651,42.13
19663,41.86
19675,42.04
19687,42.78
19698,44.04
19709,45.61
19721,47.17
19733,48.32
19745,48.73
19757,48.22
19769,46.83
19781,44.7
19793,42.05
19805,39.06
19817,35.84
19829,32.43
19841,28.81
19853,25.04
19865,21.16
19877,17.31
19888,13.58
19899,10.1
19911,6.93
19923,4.04
19935,1.32
19947,-1.37
19959,-4.15
19971,-7.02
19983,-9.9
19995,-12.66
20007,-15.21
20019,-17.57
20031,-19.9
20043,-22.37
20055,-25.08
20067,-28.05
20078,-31.14
20089,-34.23
20101,-37.19
20113,-39.96
20125,-42.49
20137,-44.78
20149,-46.86
20161,-48.93
20173,-51.28
20185,-54.32
20197,-58.36
20209,-63.37
20221,-68.74
20233,-73.32
20245,-75.57
20257,-74.05
20268,-67.88
20279,-57.06
20291,-42.6
20303,-26.14
20315,-9.54
20327,5.61
20339,18.32
20351,28.14
20363,35.11
20375,39.41
20387,41.28
20399,41.0
20411,38.94
20423,35.63
20435,31.7
20447,27.79
20458,24.38
20469,21.72
20481,19.87
20493,18.75
20505,18.26
20517,18.36
20529,19.02
20541,20.11
20553,21.42
20565,22.62
20577,23.35
20589,23.28
20601,22.23
20613,20.16
20625,17.19
20637,13.54
20648,9.5
20659,5.41
20671,1.52
20683,-2.01
20695,-5.15
20707,-7.97
20719,-10.56
20731,-12.95
20743,-15.04
20755,-16.67
20767,-17.68
20779,-18.02
20791,-17.86
20803,-17.51
20815,-17.33
20827,-17.58
20838,-18.31
20849,-19.32
20861,-20.28
20873,-20.93
20885,-21.21
20897,-21.34
20909,-21.76
20921,-22.97
20933,-25.36
20945,-29.05
20957,-33.79
20969,-38.88
20981,-43.26
20993,-45.65
