seconds,BVP
0,2.1
12,6.2
24,9.28
36,11.24
48,12.14
60,12.12
72,11.39
84,10.19
95,8.8
106,7.44
118,6.33
130,5.63
142,5.4
154,5.66
166,6.32
178,7.18
190,7.98
202,8.48
214,8.52
226,8.11
238,7.35
250,6.42
262,5.44
274,4.47
285,3.49
296,2.53
308,1.59
320,0.74
332,-0.01
344,-0.67
356,-1.35
368,-2.17
380,-3.21
392,-4.51
404,-5.96
416,-7.4
428,-8.66
440,-9.65
452,-10.41
464,-11.09
475,-11.89
486,-12.97
498,-14.34
510,-15.87
522,-17.31
534,-18.32
546,-18.52
558,-17.6
570,-15.39
582,-11.94
594,-7.57
606,-2.83
618,1.64
630,5.32
642,7.92
654,9.47
665,10.16
676,10.24
688,9.86
700,9.1
712,8.02
724,6.77
736,5.59
748,4.78
760,4.54
772,4.93
784,5.83
796,7.0
808,8.18
820,9.12
832,9.73
844,9.94
855,9.78
866,9.3
878,8.57
890,7.65
902,6.56
914,5.33
926,3.95
938,2.46
950,0.95
962,-0.48
974,-1.74
986,-2.84
998,-3.89
1010,-4.98
1022,-6.19
1034,-7.43
1045,-8.57
1056,-9.52
1068,-10.32
1080,-11.17
1092,-12.32
1104,-13.88
1116,-15.74
1128,-17.42
1140,-18.33
1152,-17.92
1164,-15.95
1176,-12.6
1188,-8.32
1200,-3.78
1212,0.46
1224,4.0
1235,6.64
1246,8.36
1258,9.22
1270,9.32
1282,8.81
1294,7.86
1306,6.75
1318,5.78
1330,5.22
1342,5.21
1354,5.73
1366,6.61
1378,7.6
1390,8.43
1402,8.89
1414,8.92
1425,8.58
1436,8.03
1448,7.43
1460,6.88
1472,6.37
1484,5.84
1496,5.18
1508,4.37
1520,3.41
1532,2.36
1544,1.26
1556,0.13
1568,-1.04
1580,-2.27
1592,-3.51
1604,-4.68
1615,-5.69
1626,-6.54
1638,-7.24
1650,-7.95
1662,-8.82
1674,-10.01
1686,-11.6
1698,-13.53
1710,-15.6
1722,-17.38
1734,-18.37
1746,-18.09
1758,-16.27
1770,-12.96
1782,-8.61
1794,-3.89
1805,0.49
1816,4.02
1828,6.5
1840,8.01
1852,8.74
1864,8.86
1876,8.44
1888,7.55
1900,6.32
1912,4.97
1924,3.81
1936,3.09
1948,2.92
1960,3.24
1972,3.88
1984,4.62
1995,5.34
2006,5.96
2018,6.45
2030,6.79
2042,6.94
2054,6.81
2066,6.34
2078,5.52
2090,4.38
2102,3.04
2114,1.67
2126,0.45
2138,-0.53
2150,-1.28
2162,-1.94
2174,-2.65
2185,-3.56
2196,-4.64
2208,-5.78
2220,-6.84
2232,-7.75
2244,-8.55
2256,-9.38
2268,-10.42
2280,-11.79
2292,-13.43
2304,-15.1
2316,-16.37
2328,-16.79
2340,-15.95
2352,-13.73
2364,-10.29
2375,-6.09
2386,-1.75
2398,2.16
2410,5.24
2422,7.35
2434,8.57
2446,9.08
2458,9.0
2470,8.43
2482,7.41
2494,6.08
2506,4.69
2518,3.57
2530,3.05
2542,3.25
2554,4.11
2565,5.29
2576,6.47
2588,7.38
2600,7.97
2612,8.28
2624,8.41
2636,8.37
2648,8.09
2660,7.44
2672,6.38
2684,4.96
2696,3.32
2708,1.64
2720,0.05
2732,-1.34
2744,-2.48
2755,-3.36
2766,-4.03
2778,-4.57
2790,-5.09
2802,-5.69
2814,-6.43
2826,-7.31
2838,-8.36
2850,-9.58
2862,-10.97
2874,-12.44
2886,-13.8
2898,-14.74
2910,-14.89
2922,-13.96
2934,-11.83
2945,-8.64
2956,-4.72
2968,-0.53
2980,3.47
2992,6.87
3004,9.4
3016,10.94
3028,11.47
3040,11.08
3052,9.99
3064,8.49
3076,6.94
3088,5.72
3100,5.09
3112,5.15
3124,5.78
3135,6.7
3146,7.62
3158,8.35
3170,8.78
3182,8.92
3194,8.83
3206,8.52
3218,8.0
3230,7.29
3242,6.39
3254,5.34
3266,4.18
3278,2.92
3290,1.53
3302,-0.0
3314,-1.63
3325,-3.28
3336,-4.79
3348,-6.06
3360,-7.0
3372,-7.67
3384,-8.22
3396,-8.9
3408,-9.94
3420,-11.46
3432,-13.31
3444,-15.16
3456,-16.49
3468,-16.84
3480,-15.91
3492,-13.65
3504,-10.29
3515,-6.21
3526,-1.84
3538,2.39
3550,6.11
3562,9.05
3574,11.01
3586,11.9
3598,11.78
3610,10.85
3622,9.38
3634,7.71
3646,6.13
3658,4.91
3670,4.25
3682,4.19
3694,4.69
3705,5.6
3716,6.67
3728,7.62
3740,8.26
3752,8.47
3764,8.24
3776,7.62
3788,6.69
3800,5.5
3812,4.1
3824,2.58
3836,1.08
3848,-0.27
3860,-1.37
3872,-2.22
3884,-2.92
3895,-3.63
3906,-4.48
3918,-5.6
3930,-7.06
3942,-8.89
3954,-11.08
3966,-13.53
3978,-15.96
3990,-18.0
4002,-19.21
4014,-19.22
4026,-17.82
4038,-15.02
4050,-11.08
4062,-6.45
4074,-1.68
4085,2.64
4096,6.05
4108,8.34
4120,9.57
4132,9.99
4144,9.94
4156,9.64
4168,9.22
4180,8.7
4192,8.16
4204,7.71
4216,7.55
4228,7.77
4240,8.34
4252,9.07
4264,9.71
4275,10.05
4286,10.03
4298,9.73
4310,9.26
4322,8.71
4334,8.11
4346,7.45
4358,6.72
4370,5.89
4382,4.96
4394,3.93
4406,2.79
4418,1.55
4430,0.24
4442,-1.16
4454,-2.62
4465,-4.13
4476,-5.62
4488,-7.04
4500,-8.33
4512,-9.54
4524,-10.72
4536,-12.0
4548,-13.45
4560,-15.01
4572,-16.42
4584,-17.34
4596,-17.39
4608,-16.35
4620,-14.23
4632,-11.24
4644,-7.73
4655,-4.08
4666,-0.64
4678,2.34
4690,4.66
4702,6.22
4714,7.02
4726,7.17
4738,6.89
4750,6.48
4762,6.23
4774,6.33
4786,6.89
4798,7.86
4810,9.17
4822,10.72
4834,12.4
4845,14.08
4856,15.62
4868,16.85
4880,17.64
4892,17.93
4904,17.77
4916,17.35
4928,16.95
4940,16.77
4952,16.92
4964,17.35
4976,17.92
4988,18.51
5000,19.09
5012,19.81
5024,20.85
5035,22.38
5046,24.43
5058,26.89
5070,29.58
5082,32.36
5094,35.22
5106,38.29
5118,41.74
5130,45.69
5142,50.19
5154,55.16
5166,60.59
5178,66.57
5190,73.4
5202,81.52
5214,91.33
5225,102.98
5236,116.28
5248,130.68
5260,145.46
5272,159.94
5284,173.67
5296,186.54
5308,198.74
5320,210.68
5332,222.86
5344,235.85
5356,250.2
5368,266.26
5380,283.85
5392,301.86
5404,318.12
5415,329.68
5426,333.58
5438,327.87
5450,312.38
5462,288.83
5474,260.31
5486,230.24
5498,201.39
5510,175.36
5522,152.51
5534,132.37
5546,114.1
5558,96.84
5570,79.82
5582,62.46
5594,44.39
5605,25.56
5616,6.21
5628,-13.32
5640,-32.85
5652,-52.61
5664,-73.19
5676,-95.39
5688,-119.75
5700,-146.3
5712,-174.47
5724,-203.26
5736,-231.64
5748,-258.94
5760,-285.11
5772,-310.97
5784,-338.19
5795,-368.95
5806,-405.15
5818,-447.13
5830,-492.5
5842,-535.76
5854,-569.24
5866,-585.27
5878,-578.84
5890,-549.44
5902,-501.33
5914,-441.93
5926,-379.33
5938,-320.01
5950,-267.52
5962,-222.67
5974,-184.35
5985,-150.68
5996,-119.7
6008,-89.74
6020,-59.68
6032,-29.1
6044,1.42
6056,30.34
6068,55.4
6080,74.2
6092,84.78
6104,86.1
6116,78.19
6128,61.99
6140,39.07
6152,11.33
6164,-19.18
6175,-50.35
6186,-80.09
6198,-106.46
6210,-127.93
6222,-143.63
6234,-153.52
6246,-158.24
6258,-158.8
6270,-156.27
6282,-151.48
6294,-145.0
6306,-137.13
6318,-127.9
6330,-117.09
6342,-104.31
6354,-89.12
6365,-71.52
6376,-52.22
6388,-32.88
6400,-15.89
6412,-3.71
6424,1.95
6436,0.79
6448,-5.83
6460,-15.32
6472,-24.6
6484,-30.96
6496,-32.66
6508,-29.14
6520,-20.88
6532,-9.0
6544,5.08
6555,20.01
6566,34.74
6578,48.5
6590,60.95
6602,72.02
6614,81.88
6626,90.67
6638,98.46
6650,105.12
6662,110.47
6674,114.45
6686,117.2
6698,119.24
6710,121.23
6722,123.8
6734,127.28
6745,131.53
6756,136.11
6768,140.43
6780,144.07
6792,146.91
6804,149.26
6816,151.74
6828,155.14
6840,160.25
6852,167.69
6864,177.81
6876,190.58
6888,205.49
6900,221.55
6912,237.53
6924,252.3
6935,265.39
6946,277.11
6958,288.29
6970,299.41
6982,309.68
6994,316.62
7006,316.55
7018,305.86
7030,282.6
7042,247.3
7054,202.96
7066,153.86
7078,104.15
7090,56.64
7102,12.6
7114,-27.86
7125,-65.16
7136,-99.79
7148,-132.51
7160,-164.71
7172,-198.69
7184,-237.12
7196,-281.62
7208,-331.07
7220,-380.79
7232,-423.22
7244,-450.36
7256,-456.82
7268,-442.13
7280,-410.97
7292,-371.27
7304,-331.1
7315,-296.05
7326,-268.21
7338,-246.91
7350,-230.39
7362,-217.15
7374,-206.32
7386,-197.17
7398,-188.54
7410,-178.79
7422,-166.4
7434,-150.81
7446,-132.77
7458,-114.07
7470,-96.83
7482,-82.37
7494,-70.59
7505,-60.01
7516,-48.48
7528,-34.21
7540,-16.58
7552,3.54
7564,24.17
7576,43.11
7588,58.8
7600,70.82
7612,79.77
7624,86.75
7636,92.68
7648,97.86
7660,102.0
7672,104.45
7684,104.81
7695,103.1
7706,99.82
7718,95.75
7730,91.52
7742,87.42
7754,83.31
7766,78.86
7778,73.79
7790,68.09
7802,62.08
7814,56.22
7826,50.89
7838,46.13
7850,41.7
7862,37.17
7874,32.3
7885,27.11
7896,21.98
7908,17.39
7920,13.66
7932,10.73
7944,8.28
7956,5.92
7968,3.47
7980,1.21
7992,-0.22
8004,-0.09
8016,2.12
8028,6.4
8040,12.18
8052,18.59
8064,24.76
8075,30.16
8086,34.63
8098,38.31
8110,41.36
8122,43.79
8134,45.46
8146,46.19
8158,46.0
8170,45.17
8182,44.15
8194,43.39
8206,43.12
8218,43.32
8230,43.77
8242,44.2
8254,44.42
8265,44.33
8276,43.91
8288,43.13
8300,41.99
8312,40.53
8324,38.83
8336,37.02
8348,35.19
8360,33.36
8372,31.44
8384,29.27
8396,26.73
8408,23.83
8420,20.76
8432,17.79
8444,15.2
8455,13.14
8466,11.52
8478,10.09
8490,8.48
8502,6.41
8514,3.77
8526,0.75
8538,-2.29
8550,-4.82
8562,-6.37
8574,-6.57
8586,-5.28
8598,-2.56
8610,1.32
8622,5.93
8634,10.81
8645,15.47
8656,19.55
8668,22.77
8680,24.97
8692,26.05
8704,26.01
8716,24.98
8728,23.19
8740,21.01
8752,18.88
8764,17.23
8776,16.39
8788,16.48
8800,17.37
8812,18.7
8824,20.01
8835,20.86
8846,21.04
8858,20.52
8870,19.5
8882,18.25
8894,16.95
8906,15.66
8918,14.25
8930,12.55
8942,10.47
8954,8.02
8966,5.42
8978,2.97
8990,0.94
9002,-0.58
9014,-1.71
9025,-2.73
9036,-3.97
9048,-5.67
9060,-7.85
9072,-10.35
9084,-12.85
9096,-14.99
9108,-16.36
9120,-16.61
9132,-15.43
9144,-12.65
9156,-8.34
9168,-2.87
9180,3.13
9192,8.92
9204,13.81
9215,17.35
9226,19.46
9238,20.3
9250,20.2
9262,19.48
9274,18.41
9286,17.17
9298,15.95
9310,14.97
9322,14.44
9334,14.47
9346,15.04
9358,15.9
9370,16.7
9382,17.09
9394,16.92
9405,16.26
9416,15.34
9428,14.39
9440,13.49
9452,12.51
9464,11.25
9476,9.56
9488,7.47
9500,5.16
9512,2.9
9524,0.85
9536,-0.99
9548,-2.71
9560,-4.46
9572,-6.31
9584,-8.26
9595,-10.3
9606,-12.43
9618,-14.64
9630,-16.87
9642,-18.9
9654,-20.34
9666,-20.72
9678,-19.64
9690,-16.94
9702,-12.74
9714,-7.48
9726,-1.76
9738,3.81
9750,8.7
9762,12.62
9774,15.4
9785,17.06
9796,17.69
9808,17.48
9820,16.64
9832,15.45
9844,14.17
9856,13.03
9868,12.26
9880,11.96
9892,12.16
9904,12.74
9916,13.47
9928,14.05
9940,14.2
9952,13.8
9964,12.91
9975,11.74
9986,10.52
9998,9.4
10010,8.36
10022,7.2
10034,5.72
10046,3.83
10058,1.61
10070,-0.73
10082,-2.92
10094,-4.79
10106,-6.32
10118,-7.62
10130,-8.9
10142,-10.32
10154,-12.0
10165,-13.97
10176,-16.23
10188,-18.68
10200,-21.06
10212,-22.95
10224,-23.79
10236,-22.99
10248,-20.22
10260,-15.58
10272,-9.65
10284,-3.32
10296,2.51
10308,7.21
10320,10.56
10332,12.67
10344,13.81
10355,14.19
10366,13.95
10378,13.19
10390,12.06
10402,10.81
10414,9.78
10426,9.27
10438,9.43
10450,10.22
10462,11.47
10474,12.95
10486,14.46
10498,15.84
10510,16.95
10522,17.71
10534,18.02
10545,17.83
10556,17.14
10568,16.01
10580,14.53
10592,12.84
10604,11.03
10616,9.21
10628,7.44
10640,5.77
10652,4.21
10664,2.73
10676,1.18
10688,-0.56
10700,-2.67
10712,-5.25
10724,-8.29
10735,-11.64
10746,-15.05
10758,-18.14
10770,-20.49
10782,-21.73
10794,-21.6
10806,-19.97
10818,-16.99
10830,-12.99
10842,-8.49
10854,-4.03
10866,-0.1
10878,3.02
10890,5.15
10902,6.25
10914,6.33
10925,5.46
10936,3.82
10948,1.75
10960,-0.31
10972,-1.91
10984,-2.7
10996,-2.61
11008,-1.78
11020,-0.57
11032,0.66
11044,1.63
11056,2.21
11068,2.37
11080,2.15
11092,1.62
11104,0.88
11115,0.03
11126,-0.88
11138,-1.79
11150,-2.7
11162,-3.66
11174,-4.67
11186,-5.7
11198,-6.66
11210,-7.43
11222,-7.92
11234,-8.2
11246,-8.47
11258,-8.99
11270,-10.02
11282,-11.62
11294,-13.56
11305,-15.37
11316,-16.42
11328,-16.2
11340,-14.44
11352,-11.28
11364,-7.16
11376,-2.7
11388,1.56
11400,5.26
11412,8.24
11424,10.44
11436,11.77
11448,12.17
11460,11.64
11472,10.35
11484,8.7
11495,7.2
11506,6.27
11518,6.09
11530,6.51
11542,7.21
11554,7.84
11566,8.23
11578,8.41
11590,8.5
11602,8.56
11614,8.56
11626,8.34
11638,7.76
11650,6.72
11662,5.28
11674,3.55
11685,1.7
11696,-0.11
11708,-1.75
11720,-3.13
11732,-4.22
11744,-5.05
11756,-5.75
11768,-6.52
11780,-7.56
11792,-9.02
11804,-10.89
11816,-13.01
11828,-15.02
11840,-16.46
11852,-16.89
11864,-15.96
11875,-13.54
11886,-9.75
11898,-4.99
11910,0.22
11922,5.29
11934,9.7
11946,13.12
11958,15.37
11970,16.46
11982,16.51
11994,15.72
12006,14.31
12018,12.53
12030,10.66
12042,9.01
12054,7.81
12065,7.23
12076,7.26
12088,7.76
12100,8.47
12112,9.11
12124,9.46
12136,9.45
12148,9.09
12160,8.46
12172,7.62
12184,6.56
12196,5.2
12208,3.5
12220,1.43
12232,-0.89
12244,-3.21
12255,-5.24
12266,-6.74
12278,-7.66
12290,-8.16
12302,-8.6
12314,-9.42
12326,-10.89
12338,-13.03
12350,-15.55
12362,-17.92
12374,-19.55
12386,-19.92
12398,-18.8
12410,-16.18
12422,-12.37
12434,-7.79
12445,-2.91
12456,1.82
12468,6.06
12480,9.54
12492,12.06
12504,13.54
12516,13.98
12528,13.56
12540,12.58
12552,11.38
12564,10.28
12576,9.47
12588,9.05
12600,9.03
12612,9.34
12624,9.93
12635,10.66
12646,11.31
12658,11.66
12670,11.53
12682,10.91
12694,9.91
12706,8.78
12718,7.69
12730,6.67
12742,5.59
12754,4.3
12766,2.74
12778,0.97
12790,-0.82
12802,-2.47
12814,-3.91
12825,-5.21
12836,-6.47
12848,-7.79
12860,-9.23
12872,-10.78
12884,-12.49
12896,-14.36
12908,-16.36
12920,-18.26
12932,-19.7
12944,-20.23
12956,-19.46
12968,-17.25
12980,-13.78
12992,-9.48
13004,-4.84
13015,-0.33
13026,3.7
13038,7.06
13050,9.62
13062,11.32
13074,12.13
13086,12.07
13098,11.31
13110,10.11
13122,8.86
13134,7.91
13146,7.56
13158,7.9
13170,8.85
13182,10.18
13194,11.58
13205,12.8
13216,13.69
13228,14.17
13240,14.32
13252,14.2
13264,13.92
13276,13.58
13288,13.22
13300,12.89
13312,12.58
13324,12.28
13336,12.0
13348,11.79
13360,11.8
13372,12.12
13384,12.78
13395,13.67
13406,14.57
13418,15.28
13430,15.76
13442,16.17
13454,16.9
13466,18.34
13478,20.78
13490,24.25
13502,28.63
13514,33.75
13526,39.51
13538,46.02
13550,53.49
13562,62.14
13574,72.05
13585,83.11
13596,94.96
13608,107.02
13620,118.55
13632,128.79
13644,137.18
13656,143.66
13668,149.0
13680,154.88
13692,163.66
13704,177.72
13716,198.34
13728,224.67
13740,253.31
13752,278.85
13764,295.45
13775,298.89
13786,288.08
13798,265.4
13810,235.52
13822,203.43
13834,172.6
13846,144.07
13858,116.87
13870,89.09
13882,59.07
13894,25.81
13906,-11.11
13918,-51.66
13930,-95.08
13942,-139.39
13954,-181.1
13965,-215.82
13976,-239.69
13988,-250.95
14000,-250.74
14012,-242.72
14024,-231.57
14036,-221.17
14048,-213.47
14060,-208.47
14072,-205.07
14084,-202.11
14096,-199.12
14108,-196.13
14120,-193.22
14132,-189.98
14144,-185.49
14155,-178.72
14166,-169.17
14178,-157.3
14190,-144.39
14202,-131.96
14214,-120.81
14226,-110.37
14238,-98.51
14250,-82.2
14262,-58.84
14274,-27.67
14286,9.47
14298,48.3
14310,83.44
14322,110.14
14334,125.7
14345,130.01
14356,124.95
14368,113.22
14380,97.18
14392,78.28
14404,57.3
14416,35.09
14428,12.97
14440,-7.36
14452,-24.52
14464,-38.2
14476,-49.45
14488,-60.18
14500,-72.22
14512,-86.3
14524,-101.76
14535,-116.91
14546,-129.91
14558,-139.63
14570,-145.94
14582,-149.4
14594,-150.55
14606,-149.51
14618,-145.96
14630,-139.72
14642,-131.25
14654,-121.82
14666,-113.01
14678,-105.98
14690,-100.79
14702,-96.29
14714,-90.47
14725,-81.27
14736,-67.22
14748,-47.82
14760,-23.62
14772,3.99
14784,33.07
14796,61.5
14808,87.36
14820,109.32
14832,126.91
14844,140.69
14856,152.1
14868,162.99
14880,174.93
14892,188.33
14904,201.87
14915,212.48
14926,215.99
14938,208.55
14950,187.93
14962,154.43
14974,110.72
14986,60.7
14998,8.0
15010,-45.14
15022,-98.1
15034,-151.17
15046,-204.55
15058,-257.55
15070,-308.39
15082,-354.45
15094,-392.8
15105,-420.58
15116,-435.3
15128,-435.22
15140,-419.66
15152,-389.46
15164,-347.03
15176,-296.06
15188,-240.86
15200,-185.6
15212,-133.72
15224,-87.67
15236,-48.89
15248,-17.95
15260,5.45
15272,22.32
15284,34.24
15295,42.93
15306,49.92
15318,56.19
15330,62.11
15342,67.56
15354,72.24
15366,75.91
15378,78.58
15390,80.47
15402,81.92
15414,83.2
15426,84.41
15438,85.4
15450,85.85
15462,85.37
15474,83.71
15485,80.86
15496,77.01
15508,72.54
15520,67.83
15532,63.13
15544,58.53
15556,54.04
15568,49.6
15580,45.23
15592,40.91
15604,36.64
15616,32.3
15628,27.79
15640,23.02
15652,18.17
15664,13.65
15675,10.11
15686,8.2
15698,8.4
15710,10.77
15722,14.89
15734,19.94
15746,24.96
15758,29.1
15770,31.88
15782,33.22
15794,33.37
15806,32.64
15818,31.3
15830,29.46
15842,27.2
15854,24.65
15865,22.07
15876,19.79
15888,18.1
15900,17.12
15912,16.82
15924,17.07
15936,17.69
15948,18.5
15960,19.29
15972,19.78
15984,19.64
15996,18.62
16008,16.69
16020,14.09
16032,11.28
16044,8.66
16055,6.42
16066,4.43
16078,2.33
16090,-0.2
16102,-3.33
16114,-6.98
16126,-10.85
16138,-14.59
16150,-17.85
16162,-20.26
16174,-21.4
16186,-20.77
16198,-17.88
16210,-12.48
16222,-4.74
16234,4.68
16245,14.79
16256,24.5
16268,33.02
16280,39.88
16292,44.99
16304,48.45
16316,50.36
16328,50.78
16340,49.79
16352,47.57
16364,44.49
16376,41.03
16388,37.73
16400,34.98
16412,32.96
16424,31.6
16435,30.66
16446,29.84
16458,28.87
16470,27.57
16482,25.8
16494,23.54
16506,20.73
16518,17.43
16530,13.76
16542,9.96
16554,6.31
16566,3.07
16578,0.36
16590,-1.87
16602,-3.81
16614,-5.79
16625,-8.07
16636,-10.8
16648,-13.92
16660,-17.1
16672,-19.79
16684,-21.28
16696,-20.94
16708,-18.3
16720,-13.32
16732,-6.36
16744,1.84
16756,10.44
16768,18.66
16780,25.97
16792,32.1
16804,36.99
16815,40.75
16826,43.57
16838,45.68
16850,47.35
16862,48.83
16874,50.32
16886,51.94
16898,53.71
16910,55.59
16922,57.49
16934,59.31
16946,60.94
16958,62.23
16970,63.09
16982,63.44
16994,63.31
17005,62.81
17016,62.13
17028,61.56
17040,61.38
17052,61.85
17064,63.09
17076,65.08
17088,67.59
17100,70.33
17112,73.0
17124,75.46
17136,77.79
17148,80.3
17160,83.43
17172,87.69
17184,93.44
17195,100.84
17206,109.76
17218,119.86
17230,130.7
17242,141.97
17254,153.46
17266,165.04
17278,176.39
17290,186.85
17302,195.5
17314,201.49
17326,204.4
17338,204.26
17350,201.25
17362,195.09
17374,184.68
17385,168.27
17396,144.22
17408,111.95
17420,72.54
17432,28.61
17444,-16.56
17456,-60.08
17468,-100.32
17480,-137.14
17492,-171.44
17504,-204.63
17516,-238.2
17528,-273.67
17540,-312.58
17552,-356.03
17564,-403.7
17575,-452.93
17586,-498.37
17598,-532.92
17610,-549.9
17622,-545.45
17634,-520.04
17646,-478.26
17658,-426.91
17670,-372.43
17682,-319.06
17694,-268.43
17706,-220.57
17718,-175.36
17730,-133.48
17742,-96.27
17754,-64.97
17765,-39.92
17776,-20.37
17788,-4.96
17800,7.68
17812,18.53
17824,28.22
17836,37.54
17848,47.87
17860,61.27
17872,79.99
17884,105.74
17896,138.93
17908,178.2
17920,220.66
17932,262.58
17944,300.57
17955,332.58
17966,358.51
17978,380.04
17990,399.7
18002,419.6
18014,440.34
18026,460.54
18038,477.23
18050,486.88
18062,486.59
18074,474.89
18086,452.03
18098,419.58
18110,379.87
18122,335.38
18134,288.47
18145,241.25
18156,195.51
18168,152.69
18180,113.56
18192,78.11
18204,45.48
18216,14.12
18228,-17.89
18240,-52.43
18252,-90.88
18264,-133.38
18276,-178.39
18288,-222.48
18300,-260.95
18312,-289.13
18324,-303.96
18335,-305.21
18346,-295.53
18358,-279.48
18370,-261.81
18382,-245.97
18394,-233.55
18406,-224.64
18418,-218.83
18430,-216.06
18442,-216.76
18454,-221.43
18466,-229.97
18478,-241.3
18490,-253.51
18502,-264.36
18514,-271.95
18525,-275.12
18536,-273.69
18548,-268.22
18560,-259.74
18572,-249.28
18584,-237.68
18596,-225.41
18608,-212.85
18620,-200.45
18632,-188.94
18644,-179.23
18656,-172.04
18668,-167.45
18680,-164.66
18692,-162.05
18704,-157.67
18715,-149.9
18726,-137.91
18738,-121.79
18750,-102.27
18762,-80.33
18774,-56.9
18786,-32.84
18798,-9.07
18810,13.36
18822,33.31
18834,49.83
18846,62.44
18858,71.23
18870,76.8
18882,80.03
18894,81.8
18905,82.78
18916,83.38
18928,83.76
18940,83.89
18952,83.67
18964,82.99
18976,81.77
18988,79.98
19000,77.6
19012,74.61
19024,70.98
19036,66.68
19048,61.73
19060,56.25
19072,50.4
19084,44.31
19095,38.08
19106,31.72
19118,25.26
19130,18.81
19142,12.58
19154,6.83
19166,1.82
19178,-2.24
19190,-5.25
19202,-7.19
19214,-8.12
19226,-8.06
19238,-6.99
19250,-4.78
19262,-1.24
19274,3.78
19285,10.34
19296,18.28
19308,27.18
19320,36.48
19332,45.55
19344,53.83
19356,60.97
19368,66.8
19380,71.34
19392,74.7
19404,77.04
19416,78.57
19428,79.57
19440,80.37
19452,81.33
19464,82.72
19475,84.65
19486,87.05
19498,89.71
19510,92.45
19522,95.2
19534,98.07
19546,101.29
19558,104.99
19570,109.14
19582,113.47
19594,117.6
19606,121.29
19618,124.62
19630,128.04
19642,132.19
19654,137.56
19665,144.28
19676,151.96
19688,159.9
19700,167.42
19712,174.15
19724,180.2
19736,186.16
19748,192.87
19760,201.24
19772,212.05
19784,225.78
19796,242.4
19808,261.11
19820,280.25
19832,297.45
19844,310.12
19855,316.2
19866,314.84
19878,306.67
19890,293.5
19902,277.49
19914,260.31
19926,242.64
19938,224.24
19950,204.53
19962,183.26
19974,160.8
19986,137.98
19998,115.55
20010,93.72
20022,72.08
20034,49.89
20045,26.62
20056,2.28
20068,-22.55
20080,-47.14
20092,-71.05
20104,-94.43
20116,-118.01
20128,-142.81
20140,-169.87
20152,-199.94
20164,-233.13
20176,-268.63
20188,-304.47
20200,-337.74
20212,-365.19
20224,-384.17
20235,-393.34
20246,-392.99
20258,-384.54
20270,-369.75
20282,-350.0
20294,-326.04
20306,-298.28
20318,-267.35
20330,-234.43
20342,-201.12
20354,-168.92
20366,-138.82
20378,-111.07
20390,-85.49
20402,-61.89
20414,-40.41
20425,-21.52
20436,-5.83
20448,6.24
20460,14.69
20472,19.89
20484,22.45
20496,22.9
20508,21.56
20520,18.55
20532,13.93
20544,7.88
20556,0.7
20568,-7.21
20580,-15.56
20592,-24.2
20604,-33.13
20615,-42.42
20626,-52.15
20638,-62.31
20650,-72.87
20662,-83.75
20674,-94.74
20686,-105.51
20698,-115.63
20710,-124.73
20722,-132.82
20734,-140.37
20746,-148.28
20758,-157.51
20770,-168.58
20782,-181.31
20794,-194.82
20805,-207.91
20816,-219.45
20828,-228.76
20840,-235.67
20852,-240.36
20864,-243.29
20876,-245.04
20888,-246.28
20900,-247.59
20912,-249.03
20924,-249.82
20936,-248.08
20948,-241.39
20960,-227.55
20972,-205.56
20984,-176.13
20995,-141.37
