seconds,BVP
2,-11.66
14,-14.63
26,-17.4
38,-20.08
50,-22.87
62,-25.91
74,-29.23
86,-32.7
98,-36.13
110,-39.29
122,-42.08
134,-44.58
146,-46.98
158,-49.59
170,-52.7
181,-56.52
192,-61.06
204,-66.04
216,-70.82
228,-74.47
240,-75.88
252,-74.12
264,-68.71
276,-59.86
288,-48.45
300,-35.81
312,-23.38
324,-12.31
336,-3.26
348,3.68
360,8.86
371,12.82
382,16.06
394,18.91
406,21.51
418,23.85
430,25.89
442,27.62
454,29.08
466,30.28
478,31.22
490,31.84
502,32.13
514,32.16
526,32.08
538,32.1
550,32.33
561,32.71
572,33.03
584,32.95
596,32.19
608,30.61
620,28.29
632,25.46
644,22.48
656,19.65
668,17.2
680,15.14
692,13.33
704,11.48
716,9.28
728,6.49
740,3.05
751,-0.92
762,-5.16
774,-9.4
786,-13.39
798,-17.04
810,-20.37
822,-23.55
834,-26.86
846,-30.59
858,-35.05
870,-40.34
882,-46.28
894,-52.27
906,-57.32
918,-60.26
930,-60.07
941,-56.24
952,-48.98
964,-39.19
976,-28.21
988,-17.31
1000,-7.46
1012,0.92
1024,7.84
1036,13.52
1048,18.2
1060,21.97
1072,24.8
1084,26.64
1096,27.61
1108,27.93
1120,27.95
1131,27.99
1142,28.26
1154,28.82
1166,29.58
1178,30.42
1190,31.24
1202,31.97
1214,32.58
1226,33.0
1238,33.14
1250,32.82
1262,31.93
1274,30.43
1286,28.43
1298,26.09
1310,23.57
1321,20.96
1332,18.19
1344,15.2
1356,11.92
1368,8.4
1380,4.8
1392,1.27
1404,-2.07
1416,-5.2
1428,-8.23
1440,-11.36
1452,-14.87
1464,-19.1
1476,-24.28
1488,-30.4
1500,-37.02
1511,-43.23
1522,-47.77
1534,-49.43
1546,-47.46
1558,-41.89
1570,-33.5
1582,-23.57
1594,-13.41
1606,-4.01
1618,4.13
1630,10.98
1642,16.67
1654,21.4
1666,25.23
1678,28.17
1690,30.24
1701,31.5
1712,32.12
1724,32.27
1736,32.14
1748,31.85
1760,31.55
1772,31.38
1784,31.48
1796,31.95
1808,32.79
1820,33.82
1832,34.75
1844,35.24
1856,35.0
1868,33.9
1880,31.96
1891,29.32
1902,26.21
1914,22.87
1926,19.47
1938,16.13
1950,12.81
1962,9.4
1974,5.75
1986,1.77
1998,-2.47
2010,-6.78
2022,-10.95
2034,-14.87
2046,-18.61
2058,-22.46
2070,-26.79
2081,-31.92
2092,-38.02
2104,-44.95
2116,-52.18
2128,-58.77
2140,-63.57
2152,-65.45
2164,-63.65
2176,-58.08
2188,-49.36
2200,-38.64
2212,-27.23
2224,-16.21
2236,-6.24
2248,2.48
2260,10.0
2271,16.43
2282,21.87
2294,26.33
2306,29.84
2318,32.46
2330,34.3
2342,35.54
2354,36.34
2366,36.86
2378,37.22
2390,37.52
2402,37.81
2414,38.07
2426,38.26
2438,38.31
2450,38.14
2461,37.65
2472,36.76
2484,35.41
2496,33.52
2508,31.11
2520,28.24
2532,25.06
2544,21.75
2556,18.43
2568,15.13
2580,11.76
2592,8.16
2604,4.18
2616,-0.16
2628,-4.73
2640,-9.25
2651,-13.47
2662,-17.33
2674,-20.98
2686,-24.78
2698,-29.19
2710,-34.53
2722,-40.91
2734,-48.07
2746,-55.34
2758,-61.71
2770,-66.0
2782,-67.14
2794,-64.49
2806,-58.11
2818,-48.72
2830,-37.55
2841,-25.9
2852,-14.86
2864,-5.02
2876,3.45
2888,10.63
2900,16.65
2912,21.63
2924,25.6
2936,28.65
2948,30.88
2960,32.46
2972,33.53
2984,34.23
2996,34.71
3008,35.08
3020,35.44
3031,35.88
3042,36.39
3054,36.91
3066,37.31
3078,37.48
3090,37.37
3102,36.93
3114,36.1
3126,34.79
3138,32.94
3150,30.51
3162,27.59
3174,24.41
3186,21.23
3198,18.21
3210,15.34
3221,12.36
3232,8.98
3244,5.02
3256,0.54
3268,-4.13
3280,-8.58
3292,-12.55
3304,-16.07
3316,-19.49
3328,-23.35
3340,-28.15
3352,-34.07
3364,-40.88
3376,-47.82
3388,-53.85
3400,-57.77
3411,-58.65
3422,-55.99
3434,-49.91
3446,-41.12
3458,-30.71
3470,-19.83
3482,-9.43
3494,-0.11
3506,7.92
3518,14.66
3530,20.21
3542,24.65
3554,28.01
3566,30.32
3578,31.69
3590,32.33
3601,32.53
3612,32.58
3624,32.69
3636,32.95
3648,33.37
3660,33.91
3672,34.47
3684,34.97
3696,35.31
3708,35.36
3720,34.99
3732,34.09
3744,32.59
3756,30.48
3768,27.81
3780,24.73
3791,21.38
3802,17.93
3814,14.49
3826,11.09
3838,7.7
3850,4.28
3862,0.85
3874,-2.59
3886,-5.98
3898,-9.33
3910,-12.75
3922,-16.43
3934,-20.64
3946,-25.61
3958,-31.36
3970,-37.61
3981,-43.68
3992,-48.53
4004,-51.03
4016,-50.24
4028,-45.8
4040,-38.08
4052,-28.13
4064,-17.29
4076,-6.79
4088,2.55
4100,10.43
4112,16.93
4124,22.14
4136,26.1
4148,28.76
4160,30.08
4171,30.24
4182,29.65
4194,28.86
4206,28.33
4218,28.3
4230,28.71
4242,29.34
4254,29.9
4266,30.21
4278,30.19
4290,29.83
4302,29.14
4314,28.08
4326,26.61
4338,24.68
4350,22.33
4361,19.58
4372,16.5
4384,13.1
4396,9.38
4408,5.39
4420,1.21
4432,-3.0
4444,-7.06
4456,-10.9
4468,-14.56
4480,-18.22
4492,-22.07
4504,-26.3
4516,-30.97
4528,-36.05
4540,-41.35
4551,-46.52
4562,-51.02
4574,-54.17
4586,-55.21
4598,-53.49
4610,-48.77
4622,-41.28
4634,-31.78
4646,-21.3
4658,-10.89
4670,-1.32
4682,7.01
4694,14.03
4706,19.85
4718,24.56
4730,28.21
4741,30.78
4752,32.32
4764,33.02
4776,33.19
4788,33.14
4800,33.11
4812,33.18
4824,33.26
4836,33.25
4848,33.05
4860,32.68
4872,32.16
4884,31.51
4896,30.66
4908,29.42
4920,27.58
4931,25.02
4942,21.76
4954,17.99
4966,14.0
4978,10.08
4990,6.36
5002,2.76
5014,-1.01
5026,-5.22
5038,-10.03
5050,-15.32
5062,-20.72
5074,-25.74
5086,-29.99
5098,-33.35
5110,-35.98
5121,-38.26
5132,-40.68
5144,-43.64
5156,-47.32
5168,-51.53
5180,-55.64
5192,-58.67
5204,-59.5
5216,-57.17
5228,-51.32
5240,-42.27
5252,-31.0
5264,-18.85
5276,-7.02
5288,3.65
5300,12.83
5311,20.6
5322,27.2
5334,32.82
5346,37.52
5358,41.27
5370,44.01
5382,45.75
5394,46.58
5406,46.71
5418,46.35
5430,45.74
5442,45.03
5454,44.31
5466,43.59
5478,42.83
5490,42.0
5501,41.08
5512,40.02
5524,38.79
5536,37.25
5548,35.26
5560,32.7
5572,29.59
5584,26.08
5596,22.48
5608,19.1
5620,16.12
5632,13.49
5644,10.96
5656,8.18
5668,4.89
5680,1.03
5691,-3.2
5702,-7.42
5714,-11.22
5726,-14.41
5738,-17.06
5750,-19.54
5762,-22.4
5774,-26.14
5786,-31.01
5798,-36.88
5810,-43.14
5822,-48.87
5834,-52.95
5846,-54.43
5858,-52.73
5870,-47.82
5881,-40.26
5892,-30.99
5904,-21.1
5916,-11.55
5928,-2.95
5940,4.48
5952,10.77
5964,16.09
5976,20.57
5988,24.24
6000,27.06
6012,28.99
6024,30.09
6036,30.52
6048,30.51
6060,30.31
6071,30.03
6082,29.74
6094,29.39
6106,28.96
6118,28.51
6130,28.1
6142,27.78
6154,27.51
6166,27.16
6178,26.51
6190,25.39
6202,23.72
6214,21.59
6226,19.2
6238,16.81
6250,14.63
6261,12.72
6272,10.98
6284,9.16
6296,6.95
6308,4.12
6320,0.65
6332,-3.3
6344,-7.42
6356,-11.36
6368,-14.87
6380,-17.86
6392,-20.43
6404,-22.81
6416,-25.29
6428,-28.2
6440,-31.86
6451,-36.42
6462,-41.82
6474,-47.61
6486,-53.04
6498,-57.1
6510,-58.87
6522,-57.74
6534,-53.63
6546,-46.97
6558,-38.57
6570,-29.36
6582,-20.18
6594,-11.66
6606,-4.13
6618,2.25
6630,7.48
6641,11.62
6652,14.76
6664,17.03
6676,18.51
6688,19.33
6700,19.67
6712,19.71
6724,19.7
6736,19.8
6748,20.08
6760,20.5
6772,20.94
6784,21.3
6796,21.52
6808,21.64
6820,21.71
6831,21.72
6842,21.57
6854,21.1
6866,20.18
6878,18.74
6890,16.88
6902,14.78
6914,12.67
6926,10.72
6938,9.0
6950,7.42
6962,5.78
6974,3.85
6986,1.48
6998,-1.29
7010,-4.27
7021,-7.18
7032,-9.78
7044,-12.04
7056,-14.07
7068,-16.13
7080,-18.49
7092,-21.38
7104,-24.92
7116,-29.13
7128,-33.84
7140,-38.65
7152,-42.86
7164,-45.57
7176,-45.93
7188,-43.44
7200,-38.22
7211,-31.01
7222,-22.86
7234,-14.8
7246,-7.5
7258,-1.19
7270,4.19
7282,8.81
7294,12.68
7306,15.7
7318,17.77
7330,18.9
7342,19.3
7354,19.3
7366,19.2
7378,19.16
7390,19.22
7401,19.3
7412,19.34
7424,19.36
7436,19.44
7448,19.64
7460,19.97
7472,20.32
7484,20.45
7496,20.13
7508,19.17
7520,17.54
7532,15.34
7544,12.79
7556,10.14
7568,7.61
7580,5.27
7591,3.09
7602,0.92
7614,-1.39
7626,-3.94
7638,-6.74
7650,-9.69
7662,-12.63
7674,-15.35
7686,-17.75
7698,-19.83
7710,-21.74
7722,-23.79
7734,-26.33
7746,-29.61
7758,-33.66
7770,-38.17
7781,-42.5
7792,-45.77
7804,-47.11
7816,-45.87
7828,-41.88
7840,-35.53
7852,-27.61
7864,-19.13
7876,-10.95
7888,-3.67
7900,2.49
7912,7.56
7924,11.65
7936,14.81
7948,17.0
7960,18.24
7971,18.6
7982,18.32
7994,17.71
8006,17.09
8018,16.69
8030,16.56
8042,16.65
8054,16.84
8066,16.99
8078,17.02
8090,16.92
8102,16.74
8114,16.52
8126,16.3
8138,16.01
8150,15.5
8161,14.59
8172,13.14
8184,11.12
8196,8.71
8208,6.15
8220,3.71
8232,1.56
8244,-0.34
8256,-2.14
8268,-4.11
8280,-6.43
8292,-9.13
8304,-12.09
8316,-15.04
8328,-17.72
8340,-20.04
8351,-22.04
8362,-23.98
8374,-26.18
8386,-28.98
8398,-32.58
8410,-36.93
8422,-41.69
8434,-46.18
8446,-49.52
8458,-50.82
8470,-49.47
8482,-45.29
8494,-38.67
8506,-30.45
8518,-21.62
8530,-13.09
8541,-5.43
8552,1.11
8564,6.53
8576,10.95
8588,14.46
8600,17.1
8612,18.91
8624,19.95
8636,20.34
8648,20.24
8660,19.82
8672,19.26
8684,18.71
8696,18.28
8708,18.02
8720,17.92
8731,17.92
8742,17.94
8754,17.99
8766,18.09
8778,18.25
8790,18.39
8802,18.29
8814,17.68
8826,16.35
8838,14.28
8850,11.71
8862,8.99
8874,6.47
8886,4.32
8898,2.47
8910,0.71
8921,-1.22
8932,-3.47
8944,-6.04
8956,-8.85
8968,-11.72
8980,-14.52
8992,-17.15
9004,-19.57
9016,-21.83
9028,-24.06
9040,-26.53
9052,-29.54
9064,-33.31
9076,-37.8
9088,-42.54
9100,-46.7
9111,-49.24
9122,-49.29
9134,-46.39
9146,-40.72
9158,-33.05
9170,-24.4
9182,-15.83
9194,-8.06
9206,-1.42
9218,4.06
9230,8.51
9242,12.03
9254,14.61
9266,16.22
9278,16.92
9290,16.88
9301,16.45
9312,16.03
9324,15.9
9336,16.2
9348,16.85
9360,17.66
9372,18.42
9384,19.04
9396,19.47
9408,19.7
9420,19.76
9432,19.59
9444,19.12
9456,18.28
9468,17.03
9480,15.41
9491,13.56
9502,11.61
9514,9.64
9526,7.66
9538,5.57
9550,3.26
9562,0.64
9574,-2.24
9586,-5.26
9598,-8.21
9610,-10.96
9622,-13.42
9634,-15.65
9646,-17.82
9658,-20.18
9670,-22.99
9681,-26.44
9692,-30.53
9704,-34.98
9716,-39.24
9728,-42.49
9740,-43.88
9752,-42.78
9764,-38.99
9776,-32.86
9788,-25.19
9800,-16.96
9812,-9.07
9824,-2.11
9836,3.68
9848,8.34
9860,11.96
9871,14.65
9882,16.44
9894,17.33
9906,17.38
9918,16.78
9930,15.81
9942,14.79
9954,14.03
9966,13.68
9978,13.75
9990,14.13
10002,14.64
10014,15.13
10026,15.48
10038,15.62
10050,15.5
10061,15.04
10072,14.13
10084,12.75
10096,10.97
10108,8.95
10120,6.89
10132,4.88
10144,2.9
10156,0.75
10168,-1.73
10180,-4.62
10192,-7.81
10204,-11.08
10216,-14.17
10228,-16.97
10240,-19.55
10251,-22.17
10262,-25.18
10274,-28.88
10286,-33.31
10298,-38.27
10310,-43.16
10322,-47.18
10334,-49.45
10346,-49.26
10358,-46.31
10370,-40.8
10382,-33.38
10394,-24.96
10406,-16.4
10418,-8.35
10430,-1.18
10441,5.01
10452,10.22
10464,14.44
10476,17.64
10488,19.82
10500,21.03
10512,21.42
10524,21.28
10536,20.86
10548,20.4
10560,20.05
10572,19.88
10584,19.9
10596,20.14
10608,20.58
10620,21.15
10631,21.69
10642,22.0
10654,21.86
10666,21.12
10678,19.77
10690,17.9
10702,15.67
10714,13.23
10726,10.68
10738,8.1
10750,5.49
10762,2.83
10774,0.05
10786,-2.89
10798,-6.02
10810,-9.36
10821,-12.83
10832,-16.32
10844,-19.72
10856,-22.98
10868,-26.22
10880,-29.69
10892,-33.69
10904,-38.4
10916,-43.66
10928,-48.86
10940,-53.02
10952,-55.0
10964,-53.96
10976,-49.59
10988,-42.34
11000,-33.24
11011,-23.54
11022,-14.28
11034,-6.1
11046,0.86
11058,6.74
11070,11.73
11082,15.93
11094,19.32
11106,21.84
11118,23.48
11130,24.39
11142,24.8
11154,24.96
11166,25.07
11178,25.25
11190,25.56
11201,26.02
11212,26.59
11224,27.25
11236,27.89
11248,28.35
11260,28.43
11272,27.99
11284,26.96
11296,25.4
11308,23.49
11320,21.38
11332,19.19
11344,16.91
11356,14.48
11368,11.84
11380,8.96
11391,5.91
11402,2.79
11414,-0.28
11426,-3.28
11438,-6.21
11450,-9.18
11462,-12.3
11474,-15.74
11486,-19.71
11498,-24.38
11510,-29.78
11522,-35.7
11534,-41.58
11546,-46.54
11558,-49.59
11570,-49.88
11581,-47.05
11592,-41.3
11604,-33.38
11616,-24.34
11628,-15.23
11640,-6.81
11652,0.52
11664,6.68
11676,11.81
11688,16.04
11700,19.48
11712,22.12
11724,23.94
11736,24.96
11748,25.29
11760,25.18
11771,24.92
11782,24.8
11794,25.03
11806,25.65
11818,26.59
11830,27.66
11842,28.64
11854,29.29
11866,29.44
11878,28.97
11890,27.86
11902,26.23
11914,24.21
11926,22.04
11938,19.86
11950,17.76
11961,15.66
11972,13.41
11984,10.82
11996,7.86
12008,4.63
12020,1.36
12032,-1.67
12044,-4.34
12056,-6.71
12068,-9.0
12080,-11.57
12092,-14.71
12104,-18.59
12116,-23.08
12128,-27.76
12140,-31.88
12151,-34.62
12162,-35.23
12174,-33.31
12186,-28.99
12198,-22.87
12210,-15.81
12222,-8.69
12234,-2.16
12246,3.47
12258,8.12
12270,11.77
12282,14.39
12294,15.93
12306,16.4
12318,15.95
12330,14.89
12341,13.64
12352,12.58
12364,12.0
12376,12.0
12388,12.56
12400,13.51
12412,14.65
12424,15.8
12436,16.81
12448,17.58
12460,18.06
12472,18.25
12484,18.17
12496,17.82
12508,17.14
12520,15.97
12531,14.12
12542,11.42
12554,7.88
12566,3.68
12578,-0.82
12590,-5.21
12602,-9.17
12614,-12.64
12626,-15.74
12638,-18.81
12650,-22.19
12662,-26.16
12674,-30.85
12686,-36.14
12698,-41.69
12710,-46.85
12721,-50.78
12732,-52.58
12744,-51.54
12756,-47.42
12768,-40.53
12780,-31.66
12792,-21.87
12804,-12.19
12816,-3.31
12828,4.45
12840,11.08
12852,16.7
12864,21.37
12876,25.05
12888,27.63
12900,29.07
12911,29.45
12922,29.08
12934,28.34
12946,27.62
12958,27.19
12970,27.08
12982,27.21
12994,27.41
13006,27.6
13018,27.72
13030,27.77
13042,27.67
13054,27.26
13066,26.31
13078,24.68
13090,22.39
13101,19.66
13112,16.8
13124,14.07
13136,11.58
13148,9.23
13160,6.81
13172,4.13
13184,1.08
13196,-2.31
13208,-5.91
13220,-9.57
13232,-13.17
13244,-16.67
13256,-20.17
13268,-23.84
13280,-27.94
13291,-32.71
13302,-38.18
13314,-44.04
13326,-49.55
13338,-53.67
13350,-55.32
13362,-53.72
13374,-48.71
13386,-40.81
13398,-31.08
13410,-20.75
13422,-10.87
13434,-2.0
13446,5.73
13458,12.45
13470,18.35
13481,23.44
13492,27.56
13504,30.52
13516,32.26
13528,32.96
13540,33.0
13552,32.86
13564,32.87
13576,33.13
13588,33.57
13600,34.01
13612,34.33
13624,34.54
13636,34.7
13648,34.87
13660,34.95
13671,34.77
13682,34.1
13694,32.81
13706,30.96
13718,28.77
13730,26.53
13742,24.52
13754,22.89
13766,21.62
13778,20.56
13790,19.47
13802,18.1
13814,16.3
13826,14.07
13838,11.61
13850,9.24
13861,7.28
13872,5.92
13884,5.16
13896,4.81
13908,4.52
13920,3.94
13932,2.77
13944,0.83
13956,-1.79
13968,-4.75
13980,-7.38
13992,-8.87
14004,-8.42
14016,-5.58
14028,-0.45
14040,6.33
14051,13.71
14062,20.6
14074,26.21
14086,30.23
14098,32.78
14110,34.22
14122,34.87
14134,34.87
14146,34.15
14158,32.53
14170,29.97
14182,26.64
14194,22.95
14206,19.43
14218,16.54
14230,14.51
14241,13.37
14252,12.96
14264,13.06
14276,13.49
14288,14.12
14300,14.77
14312,15.22
14324,15.18
14336,14.36
14348,12.59
14360,9.91
14372,6.6
14384,3.08
14396,-0.26
14408,-3.14
14420,-5.55
14431,-7.7
14442,-9.88
14454,-12.4
14466,-15.4
14478,-18.81
14490,-22.4
14502,-25.91
14514,-29.12
14526,-31.98
14538,-34.58
14550,-37.16
14562,-39.96
14574,-43.2
14586,-47.01
14598,-51.32
14610,-55.88
14621,-60.19
14632,-63.53
14644,-65.07
14656,-64.12
14668,-60.28
14680,-53.66
14692,-44.84
14704,-34.74
14716,-24.35
14728,-14.53
14740,-5.84
14752,1.5
14764,7.53
14776,12.35
14788,16.09
14800,18.82
14811,20.55
14822,21.35
14834,21.38
14846,20.95
14858,20.43
14870,20.2
14882,20.49
14894,21.33
14906,22.54
14918,23.84
14930,24.98
14942,25.8
14954,26.26
14966,26.35
14978,26.07
14990,25.35
15001,24.12
15012,22.35
15024,20.1
15036,17.57
15048,15.02
15060,12.7
15072,10.76
15084,9.18
15096,7.75
15108,6.18
15120,4.19
15132,1.59
15144,-1.57
15156,-5.09
15168,-8.64
15180,-11.89
15191,-14.69
15202,-17.08
15214,-19.36
15226,-21.89
15238,-25.09
15250,-29.16
15262,-34.09
15274,-39.53
15286,-44.84
15298,-49.19
15310,-51.72
15322,-51.71
15334,-48.86
15346,-43.32
15358,-35.7
15370,-26.91
15381,-17.89
15392,-9.4
15404,-1.87
15416,4.62
15428,10.16
15440,14.89
15452,18.83
15464,21.91
15476,24.03
15488,25.18
15500,25.57
15512,25.52
15524,25.4
15536,25.47
15548,25.84
15560,26.43
15571,27.12
15582,27.83
15594,28.51
15606,29.17
15618,29.75
15630,30.15
15642,30.29
15654,30.11
15666,29.72
15678,29.28
15690,28.99
15702,29.0
15714,29.37
15726,30.08
15738,31.12
15750,32.48
15761,34.1
15772,35.83
15784,37.47
15796,38.71
15808,39.38
15820,39.46
15832,39.18
15844,38.94
15856,39.07
15868,39.69
15880,40.55
15892,41.11
15904,40.68
15916,38.74
15928,35.03
15940,29.63
15951,22.81
15962,14.8
15974,5.84
15986,-3.82
15998,-13.68
16010,-22.87
16022,-30.31
16034,-34.99
16046,-36.38
16058,-34.73
16070,-31.01
16082,-26.53
16094,-22.47
16106,-19.48
16118,-17.61
16130,-16.45
16141,-15.5
16152,-14.49
16164,-13.43
16176,-12.6
16188,-12.29
16200,-12.65
16212,-13.58
16224,-14.8
16236,-15.99
16248,-16.95
16260,-17.65
16272,-18.24
16284,-18.97
16296,-20.09
16308,-21.74
16320,-23.93
16331,-26.55
16342,-29.43
16354,-32.44
16366,-35.51
16378,-38.65
16390,-41.82
16402,-44.99
16414,-47.94
16426,-50.34
16438,-51.78
16450,-51.87
16462,-50.32
16474,-47.04
16486,-42.16
16498,-35.98
16510,-28.97
16521,-21.75
16532,-14.91
16544,-8.96
16556,-4.17
16568,-0.49
16580,2.39
16592,4.92
16604,7.57
16616,10.65
16628,14.27
16640,18.29
16652,22.37
16664,26.01
16676,28.71
16688,30.11
16700,30.16
16711,29.2
16722,27.93
16734,27.15
16746,27.54
16758,29.38
16770,32.44
16782,36.1
16794,39.56
16806,42.15
16818,43.43
16830,43.31
16842,41.96
16854,39.64
16866,36.61
16878,33.09
16890,29.23
16901,25.1
16912,20.78
16924,16.26
16936,11.55
16948,6.69
16960,1.81
16972,-2.86
16984,-7.01
16996,-10.44
17008,-13.08
17020,-15.07
17032,-16.7
17044,-18.18
17056,-19.59
17068,-20.81
17080,-21.72
17091,-22.31
17102,-22.78
17114,-23.53
17126,-24.98
17138,-27.35
17150,-30.51
17162,-34.04
17174,-37.35
17186,-39.95
17198,-41.62
17210,-42.42
17222,-42.67
17234,-42.73
17246,-42.89
17258,-43.26
17270,-43.83
17281,-44.54
17292,-45.35
17304,-46.24
17316,-47.11
17328,-47.71
17340,-47.63
17352,-46.3
17364,-43.27
17376,-38.37
17388,-31.88
17400,-24.48
17412,-17.03
17424,-10.31
17436,-4.79
17448,-0.53
17460,2.68
17471,5.12
17482,6.99
17494,8.29
17506,8.96
17518,9.0
17530,8.59
17542,8.02
17554,7.63
17566,7.58
17578,7.9
17590,8.42
17602,8.95
17614,9.39
17626,9.68
17638,9.82
17650,9.79
17661,9.51
17672,8.92
17684,8.0
17696,6.81
17708,5.46
17720,4.09
17732,2.8
17744,1.6
17756,0.48
17768,-0.65
17780,-1.89
17792,-3.36
17804,-5.1
17816,-7.05
17828,-9.03
17840,-10.77
17851,-12.07
17862,-12.87
17874,-13.34
17886,-13.8
17898,-14.65
17910,-16.16
17922,-18.43
17934,-21.32
17946,-24.43
17958,-27.21
17970,-28.97
17982,-29.11
17994,-27.18
18006,-23.07
18018,-17.07
18030,-9.79
18041,-2.07
18052,5.26
18064,11.57
18076,16.5
18088,19.99
18100,22.16
18112,23.23
18124,23.41
18136,22.92
18148,21.95
18160,20.71
18172,19.36
18184,18.09
18196,16.98
18208,16.05
18220,15.25
18231,14.52
18242,13.82
18254,13.18
18266,12.74
18278,12.6
18290,12.83
18302,13.3
18314,13.76
18326,13.85
18338,13.3
18350,12.06
18362,10.35
18374,8.61
18386,7.25
18398,6.46
18410,6.08
18421,5.72
18432,4.92
18444,3.43
18456,1.29
18468,-1.23
18480,-3.74
18492,-5.95
18504,-7.75
18516,-9.2
18528,-10.51
18540,-11.96
18552,-13.89
18564,-16.67
18576,-20.59
18588,-25.68
18600,-31.55
18611,-37.35
18622,-41.89
18634,-44.02
18646,-43.0
18658,-38.81
18670,-32.18
18682,-24.33
18694,-16.56
18706,-9.83
18718,-4.6
18730,-0.8
18742,1.91
18754,3.88
18766,5.34
18778,6.36
18790,6.94
18801,7.15
18812,7.17
18824,7.17
18836,7.29
18848,7.46
18860,7.54
18872,7.35
18884,6.81
18896,6.04
18908,5.3
18920,4.89
18932,4.98
18944,5.55
18956,6.38
18968,7.08
18980,7.29
18991,6.78
19002,5.54
19014,3.75
19026,1.73
19038,-0.22
19050,-1.94
19062,-3.46
19074,-4.95
19086,-6.63
19098,-8.68
19110,-11.11
19122,-13.81
19134,-16.52
19146,-18.97
19158,-20.96
19170,-22.44
19181,-23.6
19192,-24.77
19204,-26.41
19216,-28.87
19228,-32.3
19240,-36.5
19252,-40.89
19264,-44.63
19276,-46.76
19288,-46.47
19300,-43.35
19312,-37.53
19324,-29.67
19336,-20.76
19348,-11.89
19360,-3.89
19371,2.82
19382,8.15
19394,12.29
19406,15.45
19418,17.76
19430,19.19
19442,19.76
19454,19.51
19466,18.7
19478,17.67
19490,16.78
19502,16.25
19514,16.12
19526,16.31
19538,16.64
19550,16.98
19561,17.26
19572,17.48
19584,17.58
19596,17.47
19608,16.99
19620,16.01
19632,14.49
19644,12.54
19656,10.35
19668,8.09
19680,5.85
19692,3.6
19704,1.24
19716,-1.32
19728,-4.04
19740,-6.84
19751,-9.55
19762,-12.08
19774,-14.45
19786,-16.8
19798,-19.29
19810,-22.07
19822,-25.21
19834,-28.68
19846,-32.35
19858,-35.92
19870,-38.88
19882,-40.6
19894,-40.38
19906,-37.78
19918,-32.74
19930,-25.67
19941,-17.35
19952,-8.7
19964,-0.49
19976,6.74
19988,12.73
20000,17.4
20012,20.75
20024,22.8
20036,23.65
20048,23.47
20060,22.59
20072,21.4
20084,20.28
20096,19.52
20108,19.25
20120,19.42
20131,19.89
20142,20.47
20154,20.95
20166,21.2
20178,21.12
20190,20.7
20202,19.98
20214,18.99
20226,17.73
20238,16.18
20250,14.3
20262,12.11
20274,9.7
20286,7.19
20298,4.67
20310,2.13
20321,-0.55
20332,-3.5
20344,-6.74
20356,-10.16
20368,-13.53
20380,-16.67
20392,-19.53
20404,-22.29
20416,-25.2
20428,-28.53
20440,-32.45
20452,-36.99
20464,-41.95
20476,-46.97
20488,-51.4
20500,-54.42
20511,-55.17
20522,-53.0
20534,-47.74
20546,-39.8
20558,-30.12
20570,-19.83
20582,-9.94
20594,-1.14
20606,6.3
20618,12.4
20630,17.29
20642,21.12
20654,23.97
20666,25.87
20678,26.95
20690,27.39
20701,27.46
20712,27.38
20724,27.36
20736,27.43
20748,27.52
20760,27.56
20772,27.53
20784,27.49
20796,27.58
20808,27.88
20820,28.3
20832,28.6
20844,28.39
20856,27.3
20868,25.17
20880,22.08
20891,18.36
20902,14.41
20914,10.59
20926,7.05
20938,3.77
20950,0.55
20962,-2.81
20974,-6.42
20986,-10.3
20998,-14.29
