seconds,BVP
4,7.3
15,5.6
26,3.66
38,1.69
50,-0.09
62,-1.57
74,-2.77
86,-3.9
98,-5.17
110,-6.74
122,-8.64
134,-10.79
146,-13.1
158,-15.5
170,-18.02
182,-20.65
194,-23.34
205,-25.93
216,-28.17
228,-29.82
240,-30.73
252,-30.89
264,-30.38
276,-29.28
288,-27.66
300,-25.49
312,-22.72
324,-19.35
336,-15.38
348,-10.84
360,-5.77
372,-0.14
384,6.02
395,12.56
406,19.22
418,25.63
430,31.4
442,36.21
454,39.84
466,42.2
478,43.29
490,43.21
502,42.09
514,40.17
526,37.74
538,35.07
550,32.35
562,29.61
574,26.82
585,23.95
596,20.99
608,18.0
620,15.14
632,12.52
644,10.16
656,8.0
668,5.99
680,4.05
692,2.14
704,0.24
716,-1.65
728,-3.6
740,-5.75
752,-8.26
764,-11.2
775,-14.55
786,-18.13
798,-21.74
810,-25.11
822,-28.06
834,-30.46
846,-32.29
858,-33.53
870,-34.1
882,-33.85
894,-32.67
906,-30.4
918,-27.03
930,-22.64
942,-17.38
954,-11.55
965,-5.43
976,0.68
988,6.57
1000,12.03
1012,16.99
1024,21.32
1036,24.85
1048,27.43
1060,28.87
1072,29.12
1084,28.22
1096,26.44
1108,24.12
1120,21.58
1132,19.02
1144,16.49
1155,13.98
1166,11.4
1178,8.79
1190,6.15
1202,3.56
1214,1.11
1226,-1.18
1238,-3.38
1250,-5.57
1262,-7.84
1274,-10.39
1286,-13.47
1298,-17.35
1310,-22.17
1322,-27.78
1334,-33.66
1345,-38.94
1356,-42.65
1368,-43.96
1380,-42.53
1392,-38.53
1404,-32.6
1416,-25.59
1428,-18.28
1440,-11.27
1452,-4.9
1464,0.66
1476,5.28
1488,8.89
1500,11.51
1512,13.24
1524,14.28
1535,14.84
1546,15.13
1558,15.35
1570,15.58
1582,15.76
1594,15.83
1606,15.73
1618,15.44
1630,15.0
1642,14.46
1654,13.92
1666,13.38
1678,12.77
1690,11.97
1702,10.9
1714,9.47
1725,7.66
1736,5.5
1748,3.1
1760,0.61
1772,-1.85
1784,-4.15
1796,-6.2
1808,-7.99
1820,-9.62
1832,-11.2
1844,-12.82
1856,-14.47
1868,-16.09
1880,-17.56
1892,-18.72
1904,-19.4
1915,-19.49
1926,-18.96
1938,-17.82
1950,-16.22
1962,-14.32
1974,-12.33
1986,-10.43
1998,-8.59
2010,-6.76
2022,-4.89
2034,-2.96
2046,-1.03
2058,0.78
2070,2.38
2082,3.79
2094,5.07
2105,6.31
2116,7.46
2128,8.39
2140,8.92
2152,9.0
2164,8.72
2176,8.37
2188,8.2
2200,8.3
2212,8.52
2224,8.53
2236,8.03
2248,6.9
2260,5.28
2272,3.44
2284,1.68
2295,0.16
2306,-1.13
2318,-2.33
2330,-3.54
2342,-4.79
2354,-6.0
2366,-7.02
2378,-7.65
2390,-7.69
2402,-6.99
2414,-5.54
2426,-3.4
2438,-0.79
2450,2.0
2462,4.64
2474,6.84
2485,8.4
2496,9.23
2508,9.41
2520,9.12
2532,8.55
2544,7.9
2556,7.34
2568,6.9
2580,6.55
2592,6.14
2604,5.56
2616,4.74
2628,3.71
2640,2.57
2652,1.47
2664,0.58
2675,-0.06
2686,-0.4
2698,-0.57
2710,-0.73
2722,-1.03
2734,-1.58
2746,-2.4
2758,-3.37
2770,-4.35
2782,-5.2
2794,-5.85
2806,-6.31
2818,-6.64
2830,-6.92
2842,-7.2
2854,-7.48
2865,-7.78
2876,-8.03
2888,-8.15
2900,-7.94
2912,-7.13
2924,-5.56
2936,-3.19
2948,-0.26
2960,2.78
2972,5.49
2984,7.54
2996,8.82
3008,9.49
3020,9.71
3032,9.66
3044,9.37
3055,8.83
3066,8.08
3078,7.21
3090,6.41
3102,5.77
3114,5.33
3126,4.96
3138,4.53
3150,3.98
3162,3.3
3174,2.57
3186,1.86
3198,1.18
3210,0.48
3222,-0.28
3234,-1.16
3245,-2.13
3256,-3.19
3268,-4.3
3280,-5.41
3292,-6.51
3304,-7.56
3316,-8.48
3328,-9.25
3340,-9.87
3352,-10.39
3364,-10.86
3376,-11.26
3388,-11.51
3400,-11.42
3412,-10.8
3424,-9.51
3435,-7.59
3446,-5.25
3458,-2.75
3470,-0.36
3482,1.76
3494,3.58
3506,5.11
3518,6.4
3530,7.46
3542,8.3
3554,8.9
3566,9.27
3578,9.42
3590,9.39
3602,9.18
3614,8.86
3625,8.48
3636,8.14
3648,7.84
3660,7.5
3672,6.94
3684,6.01
3696,4.65
3708,3.01
3720,1.34
3732,-0.16
3744,-1.38
3756,-2.38
3768,-3.36
3780,-4.46
3792,-5.68
3804,-6.95
3815,-8.03
3826,-8.74
3838,-9.03
3850,-8.98
3862,-8.79
3874,-8.68
3886,-8.83
3898,-9.32
3910,-10.14
3922,-11.09
3934,-11.84
3946,-12.02
3958,-11.32
3970,-9.59
3982,-6.88
3994,-3.53
4005,-0.01
4016,3.17
4028,5.74
4040,7.61
4052,8.95
4064,9.96
4076,10.83
4088,11.63
4100,12.34
4112,12.92
4124,13.29
4136,13.46
4148,13.4
4160,13.12
4172,12.66
4184,12.09
4195,11.54
4206,11.13
4218,10.88
4230,10.7
4242,10.4
4254,9.8
4266,8.82
4278,7.53
4290,6.07
4302,4.64
4314,3.25
4326,1.92
4338,0.53
4350,-0.96
4362,-2.52
4374,-4.05
4385,-5.45
4396,-6.62
4408,-7.57
4420,-8.39
4432,-9.17
4444,-10.05
4456,-11.07
4468,-12.3
4480,-13.64
4492,-14.99
4504,-16.19
4516,-17.08
4528,-17.53
4540,-17.45
4552,-16.89
4564,-15.96
4575,-14.84
4586,-13.71
4598,-12.7
4610,-11.84
4622,-11.07
4634,-10.27
4646,-9.31
4658,-8.23
4670,-7.04
4682,-5.84
4694,-4.65
4706,-3.48
4718,-2.29
4730,-1.09
4742,0.06
4754,1.1
4765,1.95
4776,2.68
4788,3.41
4800,4.32
4812,5.46
4824,6.76
4836,7.96
4848,8.69
4860,8.74
4872,8.11
4884,7.04
4896,5.91
4908,5.06
4920,4.66
4932,4.66
4944,4.88
4955,5.21
4966,5.63
4978,6.29
4990,7.29
5002,8.62
5014,10.08
5026,11.38
5038,12.2
5050,12.39
5062,11.98
5074,11.1
5086,9.93
5098,8.63
5110,7.28
5122,5.97
5134,4.87
5145,4.27
5156,4.42
5168,5.5
5180,7.38
5192,9.68
5204,11.91
5216,13.67
5228,14.75
5240,15.29
5252,15.58
5264,15.83
5276,16.11
5288,16.26
5300,16.08
5312,15.45
5324,14.5
5335,13.41
5346,12.43
5358,11.65
5370,10.95
5382,10.23
5394,9.35
5406,8.34
5418,7.32
5430,6.42
5442,5.7
5454,5.12
5466,4.55
5478,3.81
5490,2.78
5502,1.44
5514,-0.09
5525,-1.66
5536,-3.12
5548,-4.41
5560,-5.57
5572,-6.74
5584,-8.11
5596,-9.74
5608,-11.6
5620,-13.58
5632,-15.54
5644,-17.46
5656,-19.42
5668,-21.5
5680,-23.74
5692,-26.11
5704,-28.43
5715,-30.52
5726,-32.21
5738,-33.36
5750,-33.78
5762,-33.34
5774,-31.91
5786,-29.5
5798,-26.28
5810,-22.49
5822,-18.49
5834,-14.56
5846,-10.89
5858,-7.58
5870,-4.72
5882,-2.33
5894,-0.46
5905,0.91
5916,1.85
5928,2.45
5940,2.8
5952,2.96
5964,2.93
5976,2.75
5988,2.39
6000,1.86
6012,1.24
6024,0.64
6036,0.17
6048,-0.07
6060,-0.03
6072,0.19
6084,0.51
6095,0.82
6106,1.08
6118,1.3
6130,1.53
6142,1.78
6154,2.12
6166,2.54
6178,2.96
6190,3.31
6202,3.51
6214,3.46
6226,3.11
6238,2.43
6250,1.53
6262,0.56
6274,-0.36
6285,-1.11
6296,-1.64
6308,-1.93
6320,-2.01
6332,-1.88
6344,-1.48
6356,-0.71
6368,0.61
6380,2.66
6392,5.49
6404,8.92
6416,12.58
6428,15.86
6440,18.26
6452,19.44
6464,19.39
6475,18.42
6486,16.99
6498,15.53
6510,14.26
6522,13.25
6534,12.44
6546,11.8
6558,11.35
6570,11.21
6582,11.48
6594,12.16
6606,13.14
6618,14.17
6630,14.95
6642,15.31
6654,15.24
6665,14.84
6676,14.3
6688,13.73
6700,13.11
6712,12.3
6724,11.11
6736,9.48
6748,7.46
6760,5.28
6772,3.21
6784,1.38
6796,-0.19
6808,-1.62
6820,-3.14
6832,-4.9
6844,-6.93
6855,-9.12
6866,-11.22
6878,-12.88
6890,-13.82
6902,-13.88
6914,-13.01
6926,-11.32
6938,-9.08
6950,-6.57
6962,-4.11
6974,-1.94
6986,-0.14
6998,1.22
7010,2.15
7022,2.73
7034,3.03
7045,3.09
7056,2.9
7068,2.43
7080,1.68
7092,0.73
7104,-0.27
7116,-1.12
7128,-1.66
7140,-1.83
7152,-1.66
7164,-1.33
7176,-1.07
7188,-1.02
7200,-1.23
7212,-1.73
7224,-2.43
7235,-3.24
7246,-4.13
7258,-5.05
7270,-5.96
7282,-6.88
7294,-7.77
7306,-8.62
7318,-9.45
7330,-10.26
7342,-11.04
7354,-11.89
7366,-12.86
7378,-13.98
7390,-15.16
7402,-16.14
7414,-16.53
7425,-15.95
7436,-14.16
7448,-11.2
7460,-7.39
7472,-3.26
7484,0.64
7496,3.92
7508,6.44
7520,8.26
7532,9.53
7544,10.41
7556,10.97
7568,11.24
7580,11.2
7592,10.86
7604,10.24
7615,9.41
7626,8.44
7638,7.41
7650,6.4
7662,5.45
7674,4.63
7686,3.91
7698,3.24
7710,2.57
7722,1.86
7734,1.07
7746,0.21
7758,-0.73
7770,-1.74
7782,-2.82
7794,-3.89
7805,-4.88
7816,-5.72
7828,-6.39
7840,-6.95
7852,-7.52
7864,-8.2
7876,-9.05
7888,-10.0
7900,-10.89
7912,-11.54
7924,-11.76
7936,-11.44
7948,-10.52
7960,-8.97
7972,-6.85
7984,-4.28
7995,-1.45
8006,1.39
8018,4.03
8030,6.27
8042,8.05
8054,9.38
8066,10.33
8078,10.98
8090,11.3
8102,11.26
8114,10.79
8126,9.88
8138,8.63
8150,7.24
8162,5.94
8174,4.95
8185,4.37
8196,4.12
8208,4.07
8220,4.01
8232,3.79
8244,3.36
8256,2.73
8268,2.01
8280,1.25
8292,0.52
8304,-0.24
8316,-1.08
8328,-2.03
8340,-3.12
8352,-4.25
8364,-5.36
8375,-6.36
8386,-7.22
8398,-7.96
8410,-8.69
8422,-9.5
8434,-10.51
8446,-11.74
8458,-13.1
8470,-14.36
8482,-15.26
8494,-15.48
8506,-14.79
8518,-13.08
8530,-10.46
8542,-7.16
8554,-3.54
8565,0.02
8576,3.21
8588,5.87
8600,7.98
8612,9.6
8624,10.83
8636,11.71
8648,12.23
8660,12.32
8672,11.99
8684,11.33
8696,10.46
8708,9.53
8720,8.63
8732,7.8
8744,7.02
8755,6.29
8766,5.63
8778,5.1
8790,4.72
8802,4.41
8814,4.08
8826,3.55
8838,2.68
8850,1.42
8862,-0.13
8874,-1.81
8886,-3.41
8898,-4.74
8910,-5.7
8922,-6.29
8934,-6.57
8945,-6.69
8956,-6.79
8968,-6.99
8980,-7.35
8992,-7.95
9004,-8.74
9016,-9.71
9028,-10.76
9040,-11.77
9052,-12.56
9064,-12.88
9076,-12.45
9088,-11.09
9100,-8.79
9112,-5.76
9124,-2.4
9135,0.83
9146,3.52
9158,5.53
9170,6.9
9182,7.91
9194,8.79
9206,9.67
9218,10.52
9230,11.23
9242,11.63
9254,11.69
9266,11.45
9278,11.01
9290,10.5
9302,9.9
9314,9.15
9325,8.25
9336,7.23
9348,6.21
9360,5.34
9372,4.71
9384,4.23
9396,3.77
9408,3.14
9420,2.21
9432,1.02
9444,-0.36
9456,-1.81
9468,-3.22
9480,-4.58
9492,-5.83
9504,-6.98
9515,-7.96
9526,-8.78
9538,-9.42
9550,-9.93
9562,-10.35
9574,-10.74
9586,-11.15
9598,-11.62
9610,-12.13
9622,-12.58
9634,-12.8
9646,-12.51
9658,-11.48
9670,-9.58
9682,-6.82
9694,-3.51
9705,-0.05
9716,3.13
9728,5.71
9740,7.54
9752,8.72
9764,9.43
9776,9.91
9788,10.34
9800,10.76
9812,11.14
9824,11.36
9836,11.3
9848,10.9
9860,10.2
9872,9.35
9884,8.56
9895,8.04
9906,7.86
9918,7.96
9930,8.16
9942,8.26
9954,8.16
9966,7.86
9978,7.44
9990,6.98
10002,6.48
10014,5.79
10026,4.79
10038,3.33
10050,1.45
10062,-0.68
10074,-2.81
10085,-4.75
10096,-6.41
10108,-7.8
10120,-9.07
10132,-10.31
10144,-11.55
10156,-12.77
10168,-13.85
10180,-14.77
10192,-15.46
10204,-15.87
10216,-15.89
10228,-15.39
10240,-14.25
10252,-12.47
10264,-10.21
10275,-7.74
10286,-5.41
10298,-3.44
10310,-1.98
10322,-0.99
10334,-0.32
10346,0.13
10358,0.51
10370,0.83
10382,1.13
10394,1.48
10406,1.9
10418,2.44
10430,3.09
10442,3.8
10454,4.49
10465,5.02
10476,5.27
10488,5.2
10500,4.89
10512,4.4
10524,3.85
10536,3.26
10548,2.63
10560,1.86
10572,0.85
10584,-0.5
10596,-2.27
10608,-4.41
10620,-6.85
10632,-9.36
10644,-11.76
10655,-13.84
10666,-15.59
10678,-17.01
10690,-18.2
10702,-19.21
10714,-19.91
10726,-20.15
10738,-19.72
10750,-18.55
10762,-16.59
10774,-13.88
10786,-10.41
10798,-6.21
10810,-1.34
10822,4.0
10834,9.44
10845,14.58
10856,19.09
10868,22.83
10880,25.88
10892,28.43
10904,30.61
10916,32.43
10928,33.83
10940,34.72
10952,35.09
10964,35.02
10976,34.64
10988,34.06
11000,33.3
11012,32.26
11024,30.87
11035,29.07
11046,26.96
11058,24.66
11070,22.37
11082,20.13
11094,17.93
11106,15.65
11118,13.19
11130,10.5
11142,7.62
11154,4.67
11166,1.68
11178,-1.36
11190,-4.54
11202,-7.93
11214,-11.61
11225,-15.59
11236,-19.88
11248,-24.51
11260,-29.54
11272,-34.98
11284,-40.65
11296,-46.23
11308,-51.21
11320,-55.04
11332,-57.2
11344,-57.39
11356,-55.49
11368,-51.69
11380,-46.34
11392,-40.0
11404,-33.26
11415,-26.64
11426,-20.47
11438,-14.85
11450,-9.77
11462,-5.18
11474,-1.05
11486,2.6
11498,5.71
11510,8.33
11522,10.61
11534,12.77
11546,14.94
11558,17.12
11570,19.22
11582,21.05
11594,22.5
11605,23.5
11616,24.09
11628,24.29
11640,24.04
11652,23.19
11664,21.63
11676,19.32
11688,16.36
11700,12.97
11712,9.37
11724,5.8
11736,2.38
11748,-0.79
11760,-3.67
11772,-6.18
11784,-8.26
11795,-9.91
11806,-11.13
11818,-12.08
11830,-12.83
11842,-13.37
11854,-13.52
11866,-12.97
11878,-11.4
11890,-8.68
11902,-4.98
11914,-0.73
11926,3.43
11938,7.01
11950,9.81
11962,11.94
11974,13.68
11985,15.28
11996,16.76
12008,17.95
12020,18.66
12032,18.8
12044,18.54
12056,18.16
12068,17.94
12080,17.96
12092,18.06
12104,17.88
12116,17.14
12128,15.78
12140,13.99
12152,12.12
12164,10.48
12175,9.17
12186,8.1
12198,7.01
12210,5.65
12222,3.89
12234,1.79
12246,-0.52
12258,-2.88
12270,-5.18
12282,-7.35
12294,-9.35
12306,-11.21
12318,-12.94
12330,-14.55
12342,-16.01
12354,-17.3
12365,-18.33
12376,-18.98
12388,-19.13
12400,-18.62
12412,-17.42
12424,-15.57
12436,-13.17
12448,-10.43
12460,-7.58
12472,-4.86
12484,-2.51
12496,-0.66
12508,0.59
12520,1.28
12532,1.51
12544,1.45
12555,1.24
12566,1.03
12578,0.87
12590,0.76
12602,0.63
12614,0.46
12626,0.25
12638,0.03
12650,-0.11
12662,-0.15
12674,-0.07
12686,0.01
12698,-0.02
12710,-0.3
12722,-0.83
12734,-1.49
12745,-2.05
12756,-2.24
12768,-1.89
12780,-1.01
12792,0.29
12804,1.85
12816,3.62
12828,5.57
12840,7.72
12852,9.92
12864,11.92
12876,13.36
12888,13.91
12900,13.5
12912,12.25
12924,10.47
12935,8.52
12946,6.75
12958,5.37
12970,4.6
12982,4.57
12994,5.37
13006,7.01
13018,9.27
13030,11.83
13042,14.29
13054,16.27
13066,17.5
13078,17.96
13090,17.69
13102,16.89
13114,15.76
13125,14.38
13136,12.71
13148,10.68
13160,8.15
13172,5.03
13184,1.32
13196,-2.92
13208,-7.62
13220,-12.64
13232,-17.9
13244,-23.3
13256,-28.61
13268,-33.56
13280,-37.82
13292,-41.09
13304,-43.2
13315,-44.16
13326,-44.06
13338,-43.11
13350,-41.43
13362,-39.13
13374,-36.22
13386,-32.75
13398,-28.86
13410,-24.77
13422,-20.79
13434,-17.13
13446,-13.86
13458,-10.95
13470,-8.22
13482,-5.43
13494,-2.45
13505,0.83
13516,4.38
13528,8.13
13540,11.89
13552,15.51
13564,18.73
13576,21.38
13588,23.29
13600,24.41
13612,24.76
13624,24.41
13636,23.5
13648,22.13
13660,20.41
13672,18.51
13684,16.6
13695,14.84
13706,13.37
13718,12.22
13730,11.37
13742,10.72
13754,10.18
13766,9.72
13778,9.27
13790,8.85
13802,8.36
13814,7.73
13826,6.88
13838,5.8
13850,4.54
13862,3.14
13874,1.58
13885,-0.18
13896,-2.17
13908,-4.34
13920,-6.52
13932,-8.47
13944,-10.0
13956,-11.08
13968,-11.72
13980,-12.09
13992,-12.33
14004,-12.56
14016,-12.83
14028,-13.1
14040,-13.28
14052,-13.2
14064,-12.66
14075,-11.49
14086,-9.58
14098,-6.98
14110,-3.9
14122,-0.67
14134,2.37
14146,4.92
14158,6.78
14170,7.87
14182,8.29
14194,8.25
14206,8.04
14218,7.89
14230,7.94
14242,8.17
14254,8.44
14265,8.6
14276,8.56
14288,8.31
14300,7.94
14312,7.53
14324,7.13
14336,6.7
14348,6.24
14360,5.71
14372,5.13
14384,4.57
14396,4.0
14408,3.41
14420,2.64
14432,1.56
14444,0.12
14455,-1.58
14466,-3.36
14478,-5.01
14490,-6.38
14502,-7.47
14514,-8.31
14526,-9.03
14538,-9.64
14550,-10.04
14562,-10.02
14574,-9.39
14586,-8.0
14598,-5.89
14610,-3.21
14622,-0.23
14634,2.74
14645,5.38
14656,7.48
14668,8.91
14680,9.7
14692,9.98
14704,9.92
14716,9.68
14728,9.36
14740,9.02
14752,8.66
14764,8.33
14776,8.01
14788,7.71
14800,7.39
14812,7.0
14824,6.56
14835,6.09
14846,5.74
14858,5.61
14870,5.8
14882,6.17
14894,6.54
14906,6.64
14918,6.33
14930,5.62
14942,4.68
14954,3.74
14966,2.96
14978,2.37
14990,1.82
15002,1.14
15014,0.18
15025,-1.05
15036,-2.45
15048,-3.8
15060,-4.82
15072,-5.28
15084,-5.02
15096,-4.03
15108,-2.41
15120,-0.41
15132,1.69
15144,3.62
15156,5.16
15168,6.18
15180,6.6
15192,6.35
15204,5.43
15215,3.92
15226,1.96
15238,-0.2
15250,-2.34
15262,-4.31
15274,-6.16
15286,-8.02
15298,-10.02
15310,-12.17
15322,-14.31
15334,-16.21
15346,-17.59
15358,-18.31
15370,-18.45
15382,-18.19
15394,-17.74
15405,-17.2
15416,-16.59
15428,-15.78
15440,-14.77
15452,-13.62
15464,-12.45
15476,-11.52
15488,-10.93
15500,-10.65
15512,-10.53
15524,-10.36
15536,-9.85
15548,-8.79
15560,-7.02
15572,-4.46
15584,-1.13
15595,2.78
15606,6.91
15618,10.83
15630,14.01
15642,16.16
15654,17.11
15666,16.97
15678,16.06
15690,14.71
15702,13.25
15714,11.93
15726,10.86
15738,10.05
15750,9.51
15762,9.18
15774,9.06
15785,9.17
15796,9.56
15808,10.25
15820,11.19
15832,12.23
15844,13.06
15856,13.4
15868,12.99
15880,11.74
15892,9.78
15904,7.33
15916,4.65
15928,1.85
15940,-1.04
15952,-4.11
15964,-7.43
15975,-10.95
15986,-14.5
15998,-17.83
16010,-20.73
16022,-23.04
16034,-24.72
16046,-25.63
16058,-25.6
16070,-24.38
16082,-21.95
16094,-18.44
16106,-14.29
16118,-10.1
16130,-6.4
16142,-3.45
16154,-1.18
16165,0.71
16176,2.54
16188,4.48
16200,6.42
16212,8.15
16224,9.46
16236,10.24
16248,10.5
16260,10.31
16272,9.74
16284,8.86
16296,7.75
16308,6.55
16320,5.47
16332,4.7
16344,4.33
16355,4.23
16366,4.19
16378,3.9
16390,3.15
16402,1.89
16414,0.23
16426,-1.56
16438,-3.2
16450,-4.47
16462,-5.31
16474,-5.82
16486,-6.21
16498,-6.73
16510,-7.52
16522,-8.55
16534,-9.61
16545,-10.35
16556,-10.49
16568,-9.78
16580,-8.18
16592,-5.8
16604,-2.94
16616,0.09
16628,2.95
16640,5.37
16652,7.22
16664,8.52
16676,9.39
16688,9.96
16700,10.31
16712,10.47
16724,10.44
16735,10.29
16746,10.13
16758,10.07
16770,10.15
16782,10.36
16794,10.55
16806,10.56
16818,10.3
16830,9.73
16842,8.87
16854,7.78
16866,6.48
16878,5.05
16890,3.61
16902,2.24
16914,1.06
16925,0.02
16936,-0.98
16948,-2.12
16960,-3.42
16972,-4.85
16984,-6.22
16996,-7.36
17008,-8.19
17020,-8.8
17032,-9.34
17044,-10.01
17056,-10.87
17068,-11.9
17080,-12.99
17092,-13.94
17104,-14.58
17115,-14.74
17126,-14.18
17138,-12.81
17150,-10.63
17162,-7.78
17174,-4.53
17186,-1.25
17198,1.76
17210,4.27
17222,6.21
17234,7.66
17246,8.77
17258,9.67
17270,10.51
17282,11.3
17294,11.98
17305,12.41
17316,12.47
17328,12.12
17340,11.4
17352,10.44
17364,9.38
17376,8.33
17388,7.36
17400,6.53
17412,5.85
17424,5.33
17436,4.93
17448,4.58
17460,4.21
17472,3.75
17484,3.17
17495,2.43
17506,1.53
17518,0.42
17530,-0.95
17542,-2.61
17554,-4.44
17566,-6.29
17578,-7.94
17590,-9.25
17602,-10.15
17614,-10.74
17626,-11.12
17638,-11.43
17650,-11.78
17662,-12.24
17674,-12.86
17685,-13.62
17696,-14.44
17708,-15.11
17720,-15.26
17732,-14.51
17744,-12.58
17756,-9.41
17768,-5.29
17780,-0.67
17792,3.9
17804,8.05
17816,11.57
17828,14.49
17840,16.96
17852,19.07
17864,20.86
17875,22.31
17886,23.34
17898,23.93
17910,24.08
17922,23.8
17934,23.12
17946,22.08
17958,20.78
17970,19.38
17982,18.04
17994,16.85
18006,15.83
18018,14.88
18030,13.85
18042,12.57
18054,10.95
18065,8.95
18076,6.57
18088,3.79
18100,0.6
18112,-2.96
18124,-6.82
18136,-10.83
18148,-14.86
18160,-18.74
18172,-22.29
18184,-25.32
18196,-27.62
18208,-29.02
18220,-29.44
18232,-29.0
18244,-27.93
18255,-26.65
18266,-25.43
18278,-24.39
18290,-23.47
18302,-22.46
18314,-21.1
18326,-19.25
18338,-16.84
18350,-13.92
18362,-10.59
18374,-6.97
18386,-3.2
18398,0.54
18410,4.07
18422,7.16
18434,9.63
18445,11.41
18456,12.51
18468,13.09
18480,13.31
18492,13.35
18504,13.3
18516,13.18
18528,13.0
18540,12.75
18552,12.49
18564,12.3
18576,12.25
18588,12.42
18600,12.81
18612,13.33
18624,13.9
18635,14.39
18646,14.63
18658,14.53
18670,13.95
18682,12.85
18694,11.23
18706,9.22
18718,6.96
18730,4.62
18742,2.31
18754,0.1
18766,-1.86
18778,-3.41
18790,-4.37
18802,-4.61
18814,-4.15
18825,-3.14
18836,-1.86
18848,-0.61
18860,0.41
18872,1.16
18884,1.67
18896,2.0
18908,2.22
18920,2.33
18932,2.41
18944,2.59
18956,3.08
18968,4.07
18980,5.68
18992,7.84
19004,10.43
19015,13.19
19026,15.97
19038,18.75
19050,21.7
19062,25.04
19074,28.95
19086,33.43
19098,38.32
19110,43.29
19122,47.69
19134,51.01
19146,53.55
19158,55.62
19170,57.33
19182,58.85
19194,60.35
19205,61.92
19216,63.59
19228,65.11
19240,66.28
19252,67.66
19264,69.69
19276,72.54
19288,76.4
19300,81.39
19312,87.52
19324,94.6
19336,101.59
19348,107.57
19360,113.37
19372,119.6
19384,126.24
19395,133.37
19406,141.0
19418,148.89
19430,156.62
19442,161.68
19454,161.98
19466,160.04
19478,157.51
19490,154.02
19502,149.52
19514,144.32
19526,138.97
19538,134.04
19550,125.81
19562,110.9
19574,94.57
19585,79.8
19596,65.32
19608,50.67
19620,36.25
19632,22.82
19644,11.03
19656,-5.59
19668,-32.93
19680,-63.3
19692,-92.62
19704,-123.88
19716,-158.89
19728,-198.07
19740,-240.65
19752,-285.19
19764,-338.7
19775,-406.92
19786,-477.78
19798,-543.89
19810,-607.07
19822,-667.64
19834,-724.42
19846,-775.12
19858,-764.07
19870,-657.79
19882,-539.71
19894,-447.63
19906,-364.84
19918,-288.67
19930,-217.71
19942,-151.54
19954,-90.54
19965,-35.84
19976,2.79
19988,18.08
20000,22.79
20012,26.95
20024,32.03
20036,39.79
20048,51.03
20060,65.31
20072,81.3
20084,91.44
20096,90.67
20108,89.41
20120,95.19
20132,107.48
20144,124.8
20155,144.65
20166,164.3
20178,181.65
20190,191.63
20202,191.01
20214,185.88
20226,180.12
20238,172.77
20250,163.22
20262,151.55
20274,138.58
20286,125.64
20298,112.04
20310,97.05
20322,83.64
20334,73.46
20345,65.93
20356,61.03
20368,59.24
20380,61.19
20392,67.09
20404,75.7
20416,85.2
20428,94.79
20440,103.44
20452,109.78
20464,113.22
20476,113.84
20488,112.09
20500,108.48
20512,103.36
20524,96.96
20535,89.44
20546,81.09
20558,72.24
20570,63.27
20582,54.47
20594,45.93
20606,37.71
20618,29.8
20630,22.3
20642,15.36
20654,9.16
20666,3.73
20678,-1.0
20690,-5.19
20702,-8.87
20714,-11.91
20725,-14.01
20736,-14.9
20748,-14.45
20760,-12.79
20772,-10.31
20784,-7.47
20796,-4.69
20808,-2.16
20820,0.09
20832,2.11
20844,3.94
20856,5.56
20868,6.88
20880,7.79
20892,8.22
20904,8.2
20915,7.81
20926,7.12
20938,6.17
20950,4.97
20962,3.54
20974,1.94
20986,0.37
20998,-0.94
