seconds,BVP
10,-29.91
22,-30.66
34,-28.36
46,-22.47
58,-13.33
70,-2.1
82,9.6
94,20.18
106,28.43
117,33.59
128,35.33
140,33.66
152,28.99
164,22.18
176,14.52
188,7.54
200,2.58
212,0.34
224,0.66
236,2.64
248,4.94
260,6.41
272,6.49
284,5.25
296,3.29
307,1.21
318,-0.59
330,-2.19
342,-3.88
354,-5.98
366,-8.58
378,-11.48
390,-14.3
402,-16.74
414,-18.74
426,-20.48
438,-22.3
450,-24.47
462,-26.97
474,-29.39
486,-31.04
497,-31.25
508,-29.66
520,-26.44
532,-22.3
544,-18.2
556,-15.07
568,-13.53
580,-13.84
592,-15.94
604,-19.48
616,-23.83
628,-28.01
640,-30.75
652,-30.83
664,-27.49
676,-20.82
687,-11.85
698,-2.15
710,6.72
722,13.78
734,18.82
746,22.24
758,24.61
770,26.31
782,27.4
794,27.79
806,27.51
818,26.86
830,26.36
842,26.5
854,27.5
866,29.21
877,31.22
888,33.03
900,34.37
912,35.29
924,36.14
936,37.34
948,39.17
960,41.64
972,44.49
984,47.35
996,49.86
1008,51.81
1020,53.12
1032,53.72
1044,53.48
1056,52.14
1067,49.52
1078,45.56
1090,40.51
1102,34.9
1114,29.35
1126,24.42
1138,20.38
1150,17.12
1162,14.29
1174,11.41
1186,8.06
1198,4.0
1210,-0.74
1222,-5.92
1234,-11.1
1246,-15.69
1257,-19.07
1268,-20.7
1280,-20.21
1292,-17.63
1304,-13.31
1316,-7.95
1328,-2.37
1340,2.72
1352,6.89
1364,10.12
1376,12.69
1388,15.06
1400,17.56
1412,20.33
1424,23.24
1436,25.92
1447,28.01
1458,29.23
1470,29.59
1482,29.37
1494,29.04
1506,29.03
1518,29.58
1530,30.57
1542,31.63
1554,32.29
1566,32.22
1578,31.26
1590,29.42
1602,26.71
1614,23.04
1626,18.2
1637,12.02
1648,4.6
1660,-3.55
1672,-11.5
1684,-18.16
1696,-22.53
1708,-24.04
1720,-22.72
1732,-19.21
1744,-14.6
1756,-10.22
1768,-7.28
1780,-6.52
1792,-7.96
1804,-10.84
1816,-13.81
1827,-15.23
1838,-13.74
1850,-8.6
1862,-0.06
1874,10.7
1886,21.9
1898,31.71
1910,38.94
1922,43.39
1934,45.92
1946,47.91
1958,50.53
1970,54.19
1982,58.33
1994,61.75
2006,63.24
2017,62.17
2028,58.57
2040,52.9
2052,45.71
2064,37.29
2076,27.85
2088,17.7
2100,7.48
2112,-1.92
2124,-9.64
2136,-15.3
2148,-19.16
2160,-22.03
2172,-24.89
2184,-28.42
2196,-32.8
2207,-37.57
2218,-41.96
2230,-45.08
2242,-46.27
2254,-45.36
2266,-42.55
2278,-38.36
2290,-33.35
2302,-27.97
2314,-22.57
2326,-17.48
2338,-13.14
2350,-10.04
2362,-8.5
2374,-8.35
2386,-8.94
2397,-9.26
2408,-8.43
2420,-6.2
2432,-3.19
2444,-0.59
2456,0.34
2468,-1.17
2480,-5.02
2492,-10.38
2504,-16.07
2516,-21.04
2528,-24.64
2540,-26.67
2552,-27.26
2564,-26.69
2576,-25.27
2587,-23.32
2598,-21.26
2610,-19.51
2622,-18.46
2634,-18.27
2646,-18.84
2658,-19.78
2670,-20.56
2682,-20.76
2694,-20.16
2706,-18.83
2718,-16.97
2730,-14.77
2742,-12.3
2754,-9.56
2766,-6.65
2777,-3.89
2788,-1.8
2800,-0.88
2812,-1.31
2824,-2.78
2836,-4.58
2848,-5.87
2860,-6.01
2872,-4.85
2884,-2.62
2896,0.25
2908,3.39
2920,6.61
2932,9.9
2944,13.28
2956,16.78
2967,20.45
2978,24.48
2990,29.04
3002,34.14
3014,39.38
3026,43.89
3038,46.56
3050,46.5
3062,43.53
3074,38.44
3086,32.79
3098,28.34
3110,26.37
3122,27.2
3134,30.14
3146,33.91
3157,37.23
3168,39.46
3180,40.69
3192,41.56
3204,42.78
3216,44.62
3228,46.78
3240,48.48
3252,48.94
3264,47.73
3276,45.03
3288,41.38
3300,37.4
3312,33.43
3324,29.26
3336,24.43
3347,18.58
3358,11.83
3370,4.88
3382,-1.23
3394,-5.57
3406,-7.77
3418,-8.07
3430,-7.21
3442,-6.0
3454,-4.98
3466,-4.32
3478,-3.98
3490,-3.81
3502,-3.77
3514,-3.98
3526,-4.54
3537,-5.59
3548,-7.24
3560,-9.42
3572,-11.7
3584,-13.3
3596,-13.31
3608,-10.8
3620,-5.19
3632,3.38
3644,13.95
3656,24.9
3668,34.49
3680,41.67
3692,46.47
3704,50.12
3716,54.84
3727,63.1
3738,76.6
3750,95.37
3762,117.26
3774,138.52
3786,155.26
3798,164.36
3810,164.25
3822,155.56
3834,140.85
3846,123.98
3858,109.16
3870,99.49
3882,96.38
3894,99.92
3906,107.57
3917,114.68
3928,116.66
3940,110.83
3952,97.5
3964,79.74
3976,60.86
3988,43.5
4000,30.3
4012,21.3
4024,13.95
4036,5.76
4048,-4.72
4060,-17.54
4072,-31.92
4084,-48.57
4096,-68.35
4107,-88.8
4118,-107.86
4130,-125.14
4142,-140.2
4154,-152.96
4166,-163.91
4178,-174.12
4190,-187.01
4202,-205.52
4214,-227.14
4226,-248.88
4238,-269.42
4250,-287.21
4262,-300.9
4274,-309.69
4286,-299.94
4297,-261.93
4308,-215.27
4320,-172.1
4332,-130.34
4344,-90.72
4356,-54.23
4368,-22.26
4380,3.43
4392,20.87
4404,26.28
4416,17.13
4428,-2.84
4440,-28.5
4452,-55.84
4464,-80.58
4476,-99.24
4487,-109.75
4498,-111.47
4510,-106.34
4522,-96.59
4534,-81.01
4546,-58.93
4558,-31.9
4570,-2.12
4582,27.65
4594,54.2
4606,74.25
4618,83.85
4630,80.26
4642,64.99
4654,42.1
4666,17.24
4677,-2.35
4688,-10.09
4700,-2.37
4712,20.13
4724,52.27
4736,86.81
4748,118.08
4760,142.55
4772,158.93
4784,167.86
4796,170.59
4808,168.08
4820,161.03
4832,150.31
4844,137.72
4856,126.35
4867,119.23
4878,117.95
4890,121.95
4902,128.49
4914,133.66
4926,133.89
4938,127.26
4950,114.09
4962,96.72
4974,78.29
4986,61.52
4998,47.77
5010,36.83
5022,27.27
5034,17.16
5046,4.77
5057,-11.09
5068,-30.85
5080,-54.14
5092,-79.85
5104,-106.12
5116,-130.57
5128,-150.76
5140,-164.79
5152,-171.83
5164,-172.43
5176,-168.35
5188,-162.1
5200,-156.24
5212,-152.76
5224,-152.63
5236,-155.72
5247,-161.07
5258,-167.37
5270,-173.43
5282,-178.47
5294,-182.19
5306,-184.5
5318,-185.3
5330,-184.3
5342,-180.99
5354,-174.8
5366,-165.31
5378,-152.44
5390,-136.62
5402,-118.81
5414,-100.5
5426,-83.43
5437,-69.21
5448,-58.87
5460,-52.35
5472,-48.56
5484,-45.64
5496,-41.82
5508,-36.17
5520,-29.05
5532,-21.87
5544,-16.38
5556,-13.73
5568,-13.85
5580,-15.59
5592,-17.31
5604,-17.79
5616,-16.77
5627,-14.88
5638,-13.14
5650,-12.16
5662,-11.84
5674,-11.39
5686,-9.91
5698,-6.99
5710,-3.03
5722,0.84
5734,3.32
5746,3.5
5758,1.32
5770,-2.37
5782,-6.26
5794,-9.13
5806,-10.32
5817,-10.0
5828,-8.91
5840,-7.89
5852,-7.36
5864,-6.89
5876,-5.1
5888,0.0
5900,10.32
5912,26.83
5924,48.82
5936,73.82
5948,98.29
5960,118.87
5972,133.77
5984,143.52
5996,150.74
6007,158.88
6018,170.73
6030,187.21
6042,207.37
6054,229.12
6066,250.4
6078,269.93
6090,287.25
6102,302.2
6114,314.42
6126,323.26
6138,328.19
6150,329.27
6162,327.48
6174,324.31
6186,321.24
6197,319.0
6208,317.27
6220,314.86
6232,310.27
6244,302.28
6256,290.42
6268,275.03
6280,257.12
6292,238.02
6304,219.0
6316,200.96
6328,184.29
6340,168.99
6352,154.83
6364,141.66
6376,129.52
6387,118.64
6398,109.24
6410,101.3
6422,94.51
6434,88.22
6446,81.73
6458,74.43
6470,66.06
6482,56.69
6494,46.61
6506,36.08
6518,25.14
6530,13.47
6542,0.5
6554,-14.32
6566,-31.31
6577,-50.34
6588,-70.87
6600,-92.19
6612,-113.63
6624,-134.82
6636,-155.79
6648,-176.93
6660,-198.9
6672,-222.51
6684,-248.54
6696,-277.39
6708,-308.47
6720,-339.92
6732,-368.62
6744,-390.99
6756,-404.1
6767,-406.87
6778,-400.5
6790,-388.06
6802,-373.35
6814,-359.45
6826,-347.97
6838,-338.98
6850,-331.58
6862,-324.75
6874,-317.88
6886,-310.86
6898,-303.75
6910,-296.5
6922,-288.86
6934,-280.48
6946,-271.11
6957,-260.73
6968,-249.52
6980,-237.78
6992,-225.78
7004,-213.72
7016,-201.75
7028,-190.05
7040,-178.88
7052,-168.48
7064,-159.0
7076,-150.26
7088,-141.56
7100,-131.72
7112,-119.25
7124,-102.86
7136,-81.9
7147,-56.77
7158,-28.94
7170,-0.57
7182,26.14
7194,49.51
7206,68.73
7218,83.73
7230,94.91
7242,102.73
7254,107.59
7266,109.87
7278,110.02
7290,108.65
7302,106.36
7314,103.65
7326,100.72
7337,97.58
7348,94.18
7360,90.59
7372,86.94
7384,83.38
7396,79.77
7408,75.58
7420,70.09
7432,62.63
7444,53.01
7456,41.63
7468,29.39
7480,17.2
7492,5.56
7504,-5.76
7516,-17.44
7527,-30.18
7538,-44.18
7550,-58.88
7562,-73.09
7574,-85.54
7586,-95.37
7598,-102.48
7610,-107.53
7622,-111.69
7634,-116.37
7646,-122.96
7658,-132.64
7670,-145.94
7682,-162.34
7694,-179.98
7706,-195.79
7717,-206.27
7728,-208.59
7740,-201.56
7752,-185.98
7764,-164.28
7776,-139.51
7788,-114.39
7800,-90.71
7812,-69.32
7824,-50.47
7836,-34.19
7848,-20.48
7860,-9.16
7872,0.31
7884,8.96
7896,18.11
7907,29.12
7918,42.8
7930,59.01
7942,76.43
7954,92.85
7966,105.84
7978,113.68
7990,115.91
8002,113.58
8014,108.69
8026,103.31
8038,98.76
8050,95.21
8062,91.92
8074,87.89
8086,82.58
8097,76.18
8108,69.51
8120,63.49
8132,58.6
8144,54.65
8156,50.96
8168,46.78
8180,41.81
8192,36.38
8204,31.29
8216,27.32
8228,24.76
8240,23.17
8252,21.57
8264,18.92
8276,14.54
8287,8.31
8298,0.55
8310,-8.29
8322,-17.81
8334,-27.65
8346,-37.21
8358,-45.48
8370,-51.19
8382,-53.32
8394,-51.49
8406,-46.22
8418,-38.6
8430,-29.61
8442,-19.56
8454,-8.01
8466,5.87
8477,22.65
8488,42.12
8500,63.31
8512,84.79
8524,105.13
8536,123.05
8548,137.55
8560,147.87
8572,153.49
8584,154.34
8596,150.9
8608,144.11
8620,135.22
8632,125.69
8644,117.18
8656,111.6
8667,110.73
8678,115.56
8690,125.63
8702,138.83
8714,151.92
8726,161.92
8738,167.21
8750,168.1
8762,166.25
8774,163.39
8786,160.25
8798,156.37
8810,150.84
8822,143.33
8834,134.81
8846,127.2
8857,122.39
8868,121.21
8880,122.96
8892,125.89
8904,128.04
8916,128.09
8928,125.7
8940,121.38
8952,116.1
8964,110.85
8976,106.41
8988,103.21
9000,101.22
9012,99.89
9024,98.26
9036,95.15
9047,89.52
9058,80.96
9070,69.93
9082,57.79
9094,46.4
9106,37.45
9118,31.82
9130,29.15
9142,27.86
9154,25.75
9166,20.86
9178,12.09
9190,-0.51
9202,-16.08
9214,-33.45
9226,-51.56
9237,-69.38
9248,-85.72
9260,-98.89
9272,-106.97
9284,-108.49
9296,-103.06
9308,-91.76
9320,-76.85
9332,-61.04
9344,-46.66
9356,-35.16
9368,-26.97
9380,-21.81
9392,-19.02
9404,-17.82
9416,-17.5
9427,-17.49
9438,-17.4
9450,-16.92
9462,-15.81
9474,-13.69
9486,-10.04
9498,-4.31
9510,3.83
9522,14.09
9534,25.44
9546,36.16
9558,44.34
9570,48.54
9582,48.34
9594,44.58
9606,39.01
9617,33.67
9628,30.1
9640,28.73
9652,28.9
9664,29.26
9676,28.5
9688,25.93
9700,21.55
9712,15.78
9724,9.08
9736,1.57
9748,-6.68
9760,-15.39
9772,-23.73
9784,-30.48
9796,-34.41
9807,-34.89
9818,-32.22
9830,-27.37
9842,-21.56
9854,-15.62
9866,-9.63
9878,-3.12
9890,4.6
9902,13.86
9914,24.4
9926,35.45
9938,46.05
9950,55.43
9962,63.22
9974,69.44
9986,74.24
9997,77.72
10008,79.72
10020,79.88
10032,77.93
10044,73.81
10056,67.91
10068,60.89
10080,53.4
10092,45.89
10104,38.37
10116,30.63
10128,22.37
10140,13.49
10152,4.14
10164,-5.35
10176,-14.72
10187,-23.91
10198,-32.94
10210,-41.66
10222,-49.54
10234,-55.82
10246,-59.94
10258,-61.76
10270,-61.64
10282,-59.96
10294,-56.75
10306,-51.66
10318,-44.52
10330,-36.05
10342,-28.26
10354,-24.07
10366,-26.16
10377,-35.9
10388,-52.77
10400,-74.67
10412,-98.94
10424,-123.28
10436,-146.08
10448,-166.01
10460,-181.57
10472,-190.73
10484,-191.37
10496,-182.06
10508,-162.85
10520,-135.5
10532,-103.17
10544,-69.35
10556,-36.88
10567,-7.21
10578,19.76
10590,44.93
10602,69.17
10614,92.48
10626,113.71
10638,130.89
10650,142.05
10662,146.03
10674,143.18
10686,135.44
10698,125.71
10710,116.75
10722,110.13
10734,105.56
10746,101.09
10757,94.18
10768,83.09
10780,67.87
10792,50.51
10804,34.07
10816,21.29
10828,13.5
10840,10.26
10852,9.92
10864,10.7
10876,11.47
10888,12.0
10900,12.55
10912,13.25
10924,13.5
10936,12.05
10947,7.56
10958,-0.53
10970,-11.48
10982,-23.16
10994,-32.76
11006,-37.46
11018,-34.89
11030,-23.43
11042,-2.24
11054,28.29
11066,65.99
11078,106.71
11090,144.86
11102,175.0
11114,193.64
11126,200.51
11137,198.41
11148,191.66
11160,183.96
11172,176.85
11184,169.21
11196,158.04
11208,139.93
11220,112.6
11232,76.06
11244,32.89
11256,-12.21
11268,-53.68
11280,-86.8
11292,-108.93
11304,-119.89
11316,-121.36
11327,-115.74
11338,-105.34
11350,-92.4
11362,-79.38
11374,-69.16
11386,-64.31
11398,-65.88
11410,-72.46
11422,-80.56
11434,-86.15
11446,-86.73
11458,-82.5
11470,-76.0
11482,-70.52
11494,-68.47
11506,-70.59
11517,-76.27
11528,-84.36
11540,-93.66
11552,-102.69
11564,-109.46
11576,-111.53
11588,-107.08
11600,-95.91
11612,-79.97
11624,-62.51
11636,-46.51
11648,-33.13
11660,-21.49
11672,-9.73
11684,3.42
11696,17.4
11707,29.91
11718,38.13
11730,40.1
11742,35.59
11754,26.02
11766,13.61
11778,0.59
11790,-11.4
11802,-21.5
11814,-29.66
11826,-36.49
11838,-43.03
11850,-50.33
11862,-58.96
11874,-68.66
11886,-78.43
11897,-86.91
11908,-92.94
11920,-95.95
11932,-95.9
11944,-93.11
11956,-88.08
11968,-81.58
11980,-74.84
11992,-69.61
12004,-67.8
12016,-70.79
12028,-78.83
12040,-90.78
12052,-104.52
12064,-117.76
12076,-128.72
12087,-136.43
12098,-140.33
12110,-139.92
12122,-134.56
12134,-123.72
12146,-107.57
12158,-87.43
12170,-65.65
12182,-44.85
12194,-27.02
12206,-12.98
12218,-2.37
12230,5.7
12242,12.1
12254,17.39
12266,21.86
12277,25.88
12288,29.91
12300,34.17
12312,38.24
12324,40.89
12336,40.54
12348,36.04
12360,27.39
12372,16.0
12384,4.05
12396,-6.35
12408,-14.06
12420,-19.17
12432,-22.64
12444,-25.65
12456,-29.02
12467,-32.96
12478,-37.19
12490,-41.41
12502,-45.53
12514,-49.75
12526,-54.42
12538,-59.65
12550,-65.16
12562,-70.26
12574,-74.26
12586,-76.73
12598,-77.99
12610,-78.98
12622,-80.93
12634,-84.68
12646,-90.11
12657,-96.03
12668,-100.52
12680,-101.66
12692,-98.18
12704,-89.97
12716,-77.97
12728,-63.63
12740,-48.49
12752,-33.61
12764,-19.64
12776,-6.95
12788,4.1
12800,12.93
12812,18.91
12824,21.58
12836,20.94
12847,17.56
12858,12.55
12870,7.24
12882,2.82
12894,-0.0
12906,-1.25
12918,-1.59
12930,-2.09
12942,-3.64
12954,-6.44
12966,-9.58
12978,-11.18
12990,-9.0
13002,-1.33
13014,12.11
13026,29.86
13037,49.12
13048,66.73
13060,80.1
13072,88.03
13084,90.65
13096,89.04
13108,84.68
13120,79.09
13132,73.54
13144,69.08
13156,66.29
13168,65.04
13180,64.45
13192,63.16
13204,59.97
13216,54.52
13227,47.78
13238,41.85
13250,39.51
13262,43.24
13274,54.5
13286,73.14
13298,97.34
13310,123.95
13322,149.21
13334,169.58
13346,182.43
13358,186.36
13370,181.15
13382,167.63
13394,147.46
13406,123.05
13417,97.34
13428,73.52
13440,54.33
13452,41.37
13464,34.7
13476,32.92
13488,34.0
13500,36.05
13512,37.99
13524,39.5
13536,40.56
13548,40.95
13560,39.93
13572,36.52
13584,29.89
13596,19.83
13607,6.98
13618,-7.06
13630,-20.06
13642,-29.6
13654,-33.85
13666,-32.25
13678,-26.02
13690,-17.99
13702,-11.8
13714,-10.57
13726,-15.86
13738,-27.14
13750,-42.29
13762,-58.52
13774,-73.31
13786,-84.89
13797,-92.05
13808,-94.01
13820,-90.25
13832,-80.83
13844,-66.75
13856,-49.98
13868,-33.15
13880,-18.75
13892,-8.31
13904,-2.07
13916,1.01
13928,2.66
13940,4.82
13952,9.15
13964,16.73
13976,27.94
13987,42.33
13998,58.67
14010,75.03
14022,89.21
14034,99.15
14046,103.5
14058,101.96
14070,95.46
14082,85.98
14094,75.92
14106,67.42
14118,61.77
14130,58.95
14142,57.91
14154,56.99
14166,54.7
14177,50.29
14188,43.96
14200,36.71
14212,29.7
14224,23.75
14236,18.85
14248,14.21
14260,8.51
14272,0.48
14284,-10.54
14296,-24.2
14308,-39.11
14320,-53.11
14332,-63.8
14344,-69.03
14356,-67.55
14367,-59.05
14378,-44.27
14390,-24.81
14402,-2.84
14414,19.34
14426,39.77
14438,57.18
14450,70.99
14462,80.99
14474,87.04
14486,89.0
14498,86.99
14510,81.78
14522,74.97
14534,68.7
14546,64.85
14557,64.25
14568,65.78
14580,67.07
14592,65.28
14604,58.25
14616,45.36
14628,27.73
14640,7.68
14652,-12.17
14664,-29.36
14676,-43.56
14688,-55.6
14700,-67.51
14712,-81.85
14724,-100.46
14736,-123.56
14747,-149.16
14758,-173.54
14770,-191.5
14782,-200.3
14794,-198.17
14806,-185.5
14818,-164.51
14830,-138.56
14842,-111.53
14854,-87.33
14866,-69.63
14878,-59.97
14890,-60.91
14902,-71.38
14914,-87.8
14926,-104.62
14937,-115.62
14948,-115.53
14960,-101.4
14972,-73.12
14984,-31.55
14996,17.23
15008,67.97
15020,115.44
15032,155.23
15044,184.5
15056,202.59
15068,211.03
15080,202.43
15092,193.15
15104,183.88
15116,174.78
15127,163.43
15138,146.12
15150,120.08
15162,85.83
15174,47.96
15186,14.02
15198,-6.96
15210,-12.83
15222,-5.19
15234,9.61
15246,23.31
15258,29.33
15270,25.22
15282,12.86
15294,-3.57
15306,-18.94
15317,-32.82
15328,-45.5
15340,-58.0
15352,-70.64
15364,-82.49
15376,-92.14
15388,-98.85
15400,-103.35
15412,-106.84
15424,-112.23
15436,-120.21
15448,-129.4
15460,-136.75
15472,-138.89
15484,-133.83
15496,-122.14
15507,-106.92
15518,-92.33
15530,-83.0
15542,-81.22
15554,-86.55
15566,-96.16
15578,-105.87
15590,-111.68
15602,-110.94
15614,-102.89
15626,-88.41
15638,-69.77
15650,-49.32
15662,-29.01
15674,-10.04
15686,7.03
15697,22.08
15708,35.13
15720,46.36
15732,56.06
15744,64.68
15756,72.7
15768,80.35
15780,87.5
15792,93.65
15804,98.22
15816,100.89
15828,101.83
15840,101.73
15852,101.5
15864,102.05
15876,103.95
15887,107.38
15898,112.01
15910,117.22
15922,122.18
15934,126.14
15946,128.66
15958,129.57
15970,129.01
15982,127.13
15994,123.92
16006,119.14
16018,112.5
16030,103.97
16042,93.84
16054,82.82
16066,71.75
16077,61.38
16088,52.16
16100,44.15
16112,37.05
16124,30.16
16136,22.55
16148,13.16
16160,1.1
16172,-13.99
16184,-31.65
16196,-50.49
16208,-68.4
16220,-83.07
16232,-92.61
16244,-96.06
16256,-93.51
16267,-85.94
16278,-74.75
16290,-61.3
16302,-46.63
16314,-31.42
16326,-16.09
16338,-1.01
16350,13.33
16362,26.31
16374,37.32
16386,45.84
16398,51.6
16410,54.67
16422,55.43
16434,54.61
16446,53.06
16457,51.5
16468,50.28
16480,49.16
16492,47.26
16504,43.38
16516,36.52
16528,26.42
16540,13.87
16552,0.72
16564,-10.83
16576,-18.98
16588,-23.18
16600,-24.42
16612,-24.96
16624,-27.51
16636,-34.32
16647,-46.29
16658,-62.7
16670,-81.5
16682,-100.09
16694,-116.35
16706,-129.38
16718,-139.81
16730,-149.31
16742,-159.73
16754,-172.01
16766,-185.44
16778,-197.6
16790,-205.04
16802,-204.48
16814,-194.11
16826,-174.42
16837,-148.31
16848,-120.39
16860,-95.66
16872,-78.08
16884,-69.63
16896,-69.94
16908,-76.83
16920,-87.1
16932,-97.55
16944,-105.59
16956,-109.49
16968,-108.4
16980,-102.14
16992,-91.16
17004,-76.45
17016,-59.5
17027,-42.01
17038,-25.63
17050,-11.49
17062,0.06
17074,9.42
17086,17.48
17098,25.18
17110,33.1
17122,41.22
17134,49.06
17146,56.02
17158,61.63
17170,65.93
17182,69.33
17194,72.52
17206,76.18
17217,80.75
17228,86.32
17240,92.54
17252,98.71
17264,103.9
17276,107.22
17288,108.09
17300,106.48
17312,102.94
17324,98.43
17336,93.93
17348,90.11
17360,87.06
17372,84.41
17384,81.58
17396,78.13
17407,73.96
17418,69.28
17430,64.42
17442,59.58
17454,54.62
17466,49.08
17478,42.4
17490,34.13
17502,24.17
17514,12.85
17526,0.93
17538,-10.59
17550,-20.67
17562,-28.41
17574,-33.25
17586,-35.05
17597,-34.09
17608,-30.94
17620,-26.32
17632,-20.93
17644,-15.3
17656,-9.83
17668,-4.79
17680,-0.41
17692,3.04
17704,5.21
17716,5.79
17728,4.58
17740,1.64
17752,-2.59
17764,-7.32
17776,-11.65
17787,-14.77
17798,-16.34
17810,-16.5
17822,-15.77
17834,-14.82
17846,-14.12
17858,-13.82
17870,-13.8
17882,-13.78
17894,-13.56
17906,-13.02
17918,-12.16
17930,-11.0
17942,-9.57
17954,-7.93
17966,-6.24
17977,-4.75
17988,-3.79
18000,-3.7
18012,-4.71
18024,-6.9
18036,-10.21
18048,-14.41
18060,-19.14
18072,-24.03
18084,-28.78
18096,-33.2
18108,-37.3
18120,-41.12
18132,-44.64
18144,-47.67
18156,-49.8
18167,-50.56
18178,-49.64
18190,-46.96
18202,-42.73
18214,-37.35
18226,-31.26
18238,-24.94
18250,-19.06
18262,-14.49
18274,-12.3
18286,-13.42
18298,-18.28
18310,-26.36
18322,-36.19
18334,-45.48
18346,-51.84
18357,-53.45
18368,-49.63
18380,-41.0
18392,-29.24
18404,-16.53
18416,-4.94
18428,4.13
18440,10.2
18452,13.61
18464,15.29
18476,16.31
18488,17.58
18500,19.58
18512,22.39
18524,25.81
18536,29.57
18547,33.36
18558,37.02
18570,40.38
18582,43.27
18594,45.4
18606,46.49
18618,46.27
18630,44.63
18642,41.63
18654,37.48
18666,32.55
18678,27.33
18690,22.45
18702,18.62
18714,16.49
18726,16.53
18737,18.82
18748,23.03
18760,28.59
18772,34.88
18784,41.45
18796,48.05
18808,54.63
18820,61.1
18832,67.24
18844,72.61
18856,76.77
18868,79.37
18880,80.43
18892,80.33
18904,79.69
18916,79.16
18927,79.13
18938,79.54
18950,79.86
18962,79.38
18974,77.44
18986,73.8
18998,68.69
19010,62.69
19022,56.37
19034,50.08
19046,43.69
19058,36.85
19070,29.23
19082,20.92
19094,12.64
19106,5.69
19117,1.57
19128,1.5
19140,5.97
19152,14.41
19164,25.05
19176,35.28
19188,42.22
19200,43.57
19212,38.57
19224,28.38
19236,15.98
19248,5.35
19260,0.2
19272,2.74
19284,12.96
19296,28.53
19307,45.53
19318,59.6
19330,67.07
19342,65.9
19354,56.0
19366,38.97
19378,17.51
19390,-5.34
19402,-26.89
19414,-45.09
19426,-58.64
19438,-66.73
19450,-68.9
19462,-64.99
19474,-55.25
19486,-40.51
19497,-22.26
19508,-2.63
19520,15.99
19532,31.27
19544,41.59
19556,46.58
19568,47.51
19580,47.14
19592,49.08
19604,56.54
19616,71.08
19628,91.92
19640,116.02
19652,139.2
19664,157.76
19676,169.98
19687,176.47
19698,179.61
19710,182.24
19722,186.09
19734,191.05
19746,195.27
19758,195.75
19770,189.05
19782,171.89
19794,141.95
19806,99.0
19818,46.01
19830,-10.59
19842,-62.07
19854,-100.2
19866,-120.32
19877,-123.31
19888,-115.19
19900,-104.39
19912,-98.25
19924,-100.49
19936,-110.83
19948,-126.48
19960,-144.31
19972,-162.24
19984,-179.22
19996,-194.42
20008,-206.52
20020,-213.8
20032,-214.96
20044,-210.09
20056,-200.89
20067,-190.18
20078,-180.89
20090,-174.75
20102,-171.77
20114,-170.35
20126,-168.11
20138,-162.93
20150,-153.85
20162,-141.35
20174,-127.01
20186,-112.78
20198,-100.18
20210,-89.88
20222,-81.64
20234,-74.69
20246,-68.36
20257,-62.38
20268,-57.13
20280,-53.35
20292,-51.83
20304,-52.91
20316,-56.37
20328,-61.4
20340,-66.86
20352,-71.7
20364,-75.18
20376,-76.93
20388,-76.77
20400,-74.49
20412,-69.71
20424,-61.98
20436,-50.97
20447,-36.71
20458,-19.61
20470,-0.33
20482,20.34
20494,41.58
20506,62.33
20518,81.21
20530,96.58
20542,107.01
20554,111.97
20566,112.34
20578,110.24
20590,108.27
20602,108.27
20614,110.55
20626,113.75
20637,115.72
20648,114.69
20660,110.11
20672,102.78
20684,94.14
20696,85.48
20708,77.2
20720,68.94
20732,60.04
20744,50.17
20756,39.6
20768,29.03
20780,19.29
20792,10.83
20804,3.65
20816,-2.61
20827,-8.41
20838,-13.99
20850,-19.16
20862,-23.43
20874,-26.26
20886,-27.34
20898,-26.8
20910,-25.04
20922,-22.5
20934,-19.38
20946,-15.48
20958,-10.38
20970,-3.72
20982,4.47
20994,13.73
