seconds,BVP
10,-39.91
22,-22.06
34,-3.42
46,14.81
58,31.75
70,46.81
81,59.56
92,69.45
104,75.74
116,77.7
128,75.06
140,68.47
152,59.59
164,50.7
176,43.86
188,40.05
200,38.72
212,38.04
224,35.75
236,30.23
248,21.27
260,10.08
271,-1.29
282,-10.86
294,-17.42
306,-20.75
318,-21.42
330,-20.2
342,-17.64
354,-13.87
366,-8.71
378,-1.97
390,6.29
402,15.64
414,25.41
426,34.92
438,43.67
450,51.36
461,57.77
472,62.55
484,65.11
496,64.74
508,60.75
520,52.78
532,40.89
544,25.57
556,7.61
568,-12.06
580,-32.39
592,-52.29
604,-70.52
616,-85.79
628,-96.85
640,-102.64
651,-102.51
662,-96.36
674,-84.76
686,-68.89
698,-50.49
710,-31.44
722,-13.5
734,2.05
746,14.55
758,23.97
770,30.71
782,35.3
794,38.2
806,39.71
818,39.93
830,38.86
841,36.51
852,33.02
864,28.69
876,23.93
888,19.23
900,14.99
912,11.45
924,8.63
936,6.4
948,4.52
960,2.79
972,1.04
984,-0.87
996,-3.01
1008,-5.4
1020,-7.98
1031,-10.59
1042,-13.03
1054,-15.1
1066,-16.73
1078,-18.07
1090,-19.47
1102,-21.3
1114,-23.75
1126,-26.64
1138,-29.27
1150,-30.68
1162,-29.9
1174,-26.3
1186,-19.88
1198,-11.2
1210,-1.17
1221,9.18
1232,19.03
1244,27.87
1256,35.39
1268,41.43
1280,45.88
1292,48.65
1304,49.75
1316,49.38
1328,47.88
1340,45.73
1352,43.41
1364,41.33
1376,39.71
1388,38.59
1400,37.8
1411,37.06
1422,36.11
1434,34.76
1446,33.04
1458,31.1
1470,29.21
1482,27.53
1494,26.13
1506,24.86
1518,23.45
1530,21.58
1542,18.97
1554,15.56
1566,11.44
1578,6.99
1590,2.77
1601,-0.53
1612,-2.24
1624,-1.85
1636,0.78
1648,5.38
1660,11.29
1672,17.65
1684,23.66
1696,28.74
1708,32.64
1720,35.31
1732,36.83
1744,37.23
1756,36.47
1768,34.51
1780,31.4
1791,27.4
1802,22.95
1814,18.55
1826,14.64
1838,11.4
1850,8.79
1862,6.56
1874,4.4
1886,2.08
1898,-0.44
1910,-2.98
1922,-5.24
1934,-6.94
1946,-8.02
1958,-8.69
1970,-9.44
1981,-10.83
1992,-13.28
2004,-16.75
2016,-20.65
2028,-23.9
2040,-25.22
2052,-23.56
2064,-18.48
2076,-10.3
2088,-0.07
2100,10.8
2112,20.97
2124,29.54
2136,36.22
2148,41.21
2160,44.95
2171,47.84
2182,50.07
2194,51.58
2206,52.23
2218,51.88
2230,50.59
2242,48.66
2254,46.55
2266,44.79
2278,43.88
2290,44.17
2302,45.8
2314,48.67
2326,52.51
2338,56.99
2350,61.83
2361,66.84
2372,71.99
2384,77.29
2396,82.73
2408,88.2
2420,93.52
2432,98.54
2444,103.37
2456,108.52
2468,114.99
2480,124.17
2492,137.67
2504,156.85
2516,182.19
2528,212.57
2540,244.79
2551,273.85
2562,294.15
2574,301.24
2586,293.52
2598,272.83
2610,243.73
2622,211.56
2634,180.38
2646,151.72
2658,124.74
2670,97.62
2682,69.04
2694,39.07
2706,8.84
2718,-20.36
2730,-48.11
2741,-75.27
2752,-103.56
2764,-134.82
2776,-170.56
2788,-211.79
2800,-258.7
2812,-310.29
2824,-363.6
2836,-413.35
2848,-452.62
2860,-474.58
2872,-474.89
2884,-453.5
2896,-414.88
2908,-366.46
2920,-316.11
2931,-269.79
2942,-230.48
2954,-198.61
2966,-173.18
2978,-152.95
2990,-136.84
3002,-123.86
3014,-112.81
3026,-102.25
3038,-90.87
3050,-78.0
3062,-63.86
3074,-49.4
3086,-36.08
3098,-25.12
3110,-17.03
3121,-11.48
3132,-7.41
3144,-3.45
3156,1.52
3168,7.93
3180,15.47
3192,23.21
3204,30.11
3216,35.4
3228,38.79
3240,40.41
3252,40.6
3264,39.63
3276,37.5
3288,33.98
3300,28.78
3311,21.92
3322,13.86
3334,5.65
3346,-1.35
3358,-5.75
3370,-6.6
3382,-3.56
3394,2.93
3406,11.88
3418,22.05
3430,32.36
3442,42.11
3454,51.06
3466,59.32
3478,67.11
3490,74.59
3501,81.72
3512,88.38
3524,94.45
3536,99.96
3548,105.05
3560,110.01
3572,115.12
3584,120.6
3596,126.57
3608,132.98
3620,139.7
3632,146.53
3644,153.44
3656,160.56
3668,168.35
3680,177.42
3691,188.38
3702,201.52
3714,216.63
3726,232.98
3738,249.34
3750,264.09
3762,275.4
3774,281.37
3786,280.37
3798,271.49
3810,255.05
3822,232.85
3834,208.02
3846,184.27
3858,165.0
3870,152.46
3881,147.26
3892,148.43
3904,153.93
3916,161.19
3928,167.78
3940,171.71
3952,171.73
3964,167.27
3976,158.53
3988,146.29
4000,131.77
4012,116.3
4024,101.1
4036,86.98
4048,74.28
4060,62.9
4071,52.42
4082,42.39
4094,32.46
4106,22.57
4118,12.84
4130,3.5
4142,-5.27
4154,-13.44
4166,-21.19
4178,-28.8
4190,-36.5
4202,-44.43
4214,-52.54
4226,-60.65
4238,-68.55
4250,-76.19
4261,-83.64
4272,-91.2
4284,-99.18
4296,-107.81
4308,-117.1
4320,-126.93
4332,-137.03
4344,-147.18
4356,-157.27
4368,-167.37
4380,-177.67
4392,-188.52
4404,-200.35
4416,-213.62
4428,-228.56
4440,-244.86
4451,-261.38
4462,-276.19
4474,-287.08
4486,-292.21
4498,-290.84
4510,-283.47
4522,-271.67
4534,-257.33
4546,-242.14
4558,-227.18
4570,-213.07
4582,-200.11
4594,-188.55
4606,-178.55
4618,-170.02
4630,-162.57
4641,-155.54
4652,-148.29
4664,-140.48
4676,-132.17
4688,-123.72
4700,-115.59
4712,-108.14
4724,-101.47
4736,-95.48
4748,-89.91
4760,-84.51
4772,-79.15
4784,-73.81
4796,-68.67
4808,-63.94
4820,-59.86
4831,-56.57
4842,-53.98
4854,-51.89
4866,-49.95
4878,-47.85
4890,-45.35
4902,-42.35
4914,-38.86
4926,-34.98
4938,-30.82
4950,-26.55
4962,-22.32
4974,-18.36
4986,-14.9
4998,-12.04
5010,-9.78
5021,-7.99
5032,-6.5
5044,-5.24
5056,-4.22
5068,-3.53
5080,-3.24
5092,-3.34
5104,-3.75
5116,-4.42
5128,-5.33
5140,-6.48
5152,-7.81
5164,-9.16
5176,-10.3
5188,-11.08
5200,-11.62
5211,-12.33
5222,-13.87
5234,-16.86
5246,-21.6
5258,-27.94
5270,-35.31
5282,-42.93
5294,-49.96
5306,-55.84
5318,-60.21
5330,-63.05
5342,-64.42
5354,-64.53
5366,-63.52
5378,-61.56
5390,-58.79
5401,-55.39
5412,-51.68
5424,-48.02
5436,-44.84
5448,-42.51
5460,-41.28
5472,-41.19
5484,-42.18
5496,-44.01
5508,-46.41
5520,-49.11
5532,-51.85
5544,-54.48
5556,-56.81
5568,-58.65
5580,-59.75
5591,-59.83
5602,-58.74
5614,-56.52
5626,-53.53
5638,-50.31
5650,-47.41
5662,-45.1
5674,-43.28
5686,-41.55
5698,-39.48
5710,-36.96
5722,-34.32
5734,-32.22
5746,-31.34
5758,-32.07
5770,-34.32
5781,-37.71
5792,-41.88
5804,-46.79
5816,-52.87
5828,-60.86
5840,-71.43
5852,-84.91
5864,-101.01
5876,-118.85
5888,-137.12
5900,-154.38
5912,-169.18
5924,-180.29
5936,-186.78
5948,-188.08
5960,-184.03
5971,-175.0
5982,-161.71
5994,-145.23
6006,-126.72
6018,-107.25
6030,-87.59
6042,-68.06
6054,-48.69
6066,-29.39
6078,-10.19
6090,8.65
6102,26.57
6114,42.91
6126,57.16
6138,69.09
6150,78.79
6161,86.47
6172,92.29
6184,96.17
6196,97.83
6208,96.96
6220,93.45
6232,87.53
6244,79.75
6256,70.81
6268,61.26
6280,51.36
6292,41.03
6304,30.0
6316,17.96
6328,4.75
6340,-9.54
6351,-24.52
6362,-39.29
6374,-52.38
6386,-61.72
6398,-64.98
6410,-60.13
6422,-46.09
6434,-23.21
6446,6.77
6458,41.21
6470,77.3
6482,112.54
6494,145.06
6506,173.48
6518,196.83
6530,214.52
6541,226.47
6552,233.27
6564,236.01
6576,235.98
6588,234.21
6600,231.35
6612,227.67
6624,223.41
6636,218.92
6648,214.65
6660,210.86
6672,207.43
6684,203.76
6696,198.97
6708,192.3
6720,183.36
6731,172.28
6742,159.52
6754,145.67
6766,131.3
6778,116.94
6790,102.97
6802,89.61
6814,76.88
6826,64.53
6838,52.18
6850,39.55
6862,26.73
6874,14.34
6886,3.42
6898,-4.88
6910,-9.74
6921,-10.95
6932,-9.01
6944,-4.98
6956,-0.12
6968,4.44
6980,7.92
6992,9.87
7004,10.08
7016,8.47
7028,4.93
7040,-0.57
7052,-7.93
7064,-16.76
7076,-26.43
7088,-36.12
7100,-45.18
7111,-53.26
7122,-60.46
7134,-67.2
7146,-74.15
7158,-81.97
7170,-91.18
7182,-102.05
7194,-114.6
7206,-128.58
7218,-143.64
7230,-159.47
7242,-175.9
7254,-192.98
7266,-210.83
7278,-229.44
7290,-248.52
7301,-267.48
7312,-285.62
7324,-302.3
7336,-317.09
7348,-329.66
7360,-339.57
7372,-346.14
7384,-348.39
7396,-345.26
7408,-335.95
7420,-320.27
7432,-298.74
7444,-272.63
7456,-243.63
7468,-213.57
7480,-184.09
7491,-156.36
7502,-131.08
7514,-108.29
7526,-87.63
7538,-68.41
7550,-50.02
7562,-32.26
7574,-15.52
7586,-0.66
7598,11.39
7610,20.24
7622,26.39
7634,31.18
7646,36.32
7658,43.06
7670,51.66
7681,61.18
7692,69.85
7704,75.83
7716,77.94
7728,76.09
7740,71.32
7752,65.29
7764,59.69
7776,55.59
7788,53.19
7800,51.85
7812,50.52
7824,48.17
7836,44.3
7848,39.2
7860,33.85
7871,29.73
7882,28.37
7894,31.03
7906,38.38
7918,50.5
7930,66.78
7942,86.15
7954,107.23
7966,128.5
7978,148.56
7990,166.24
8002,180.82
8014,191.95
8026,199.74
8038,204.36
8050,206.05
8061,204.91
8072,201.08
8084,194.9
8096,187.06
8108,178.53
8120,170.21
8132,162.53
8144,155.2
8156,147.31
8168,137.85
8180,126.39
8192,113.72
8204,101.82
8216,93.45
8228,91.09
8240,96.04
8251,107.63
8262,123.16
8274,138.63
8286,149.89
8298,154.01
8310,150.17
8322,139.94
8334,126.54
8346,113.62
8358,103.81
8370,97.87
8382,94.49
8394,90.83
8406,83.83
8418,71.36
8430,53.33
8441,31.96
8452,11.36
8464,-3.71
8476,-9.41
8488,-4.11
8500,11.02
8512,32.45
8524,55.59
8536,76.19
8548,91.42
8560,100.17
8572,102.73
8584,100.11
8596,93.66
8608,84.88
8620,75.21
8631,65.91
8642,57.58
8654,49.83
8666,41.39
8678,30.53
8690,15.82
8702,-3.19
8714,-25.75
8726,-50.12
8738,-74.12
8750,-95.76
8762,-113.63
8774,-127.21
8786,-136.72
8798,-143.11
8810,-147.64
8821,-151.48
8832,-155.23
8844,-158.61
8856,-160.52
8868,-159.47
8880,-154.29
8892,-144.7
8904,-131.56
8916,-116.54
8928,-101.52
8940,-87.89
8952,-76.21
8964,-66.2
8976,-57.12
8988,-48.14
9000,-38.67
9011,-28.54
9022,-17.81
9034,-6.71
9046,4.54
9058,15.81
9070,27.04
9082,38.24
9094,49.29
9106,59.95
9118,69.78
9130,78.29
9142,85.08
9154,90.02
9166,93.33
9178,95.37
9190,96.45
9201,96.52
9212,95.2
9224,91.92
9236,86.32
9248,78.43
9260,68.83
9272,58.55
9284,48.74
9296,40.51
9308,34.71
9320,31.82
9332,31.93
9344,34.7
9356,39.44
9368,45.2
9380,51.03
9391,56.1
9402,59.87
9414,62.16
9426,63.05
9438,62.82
9450,61.75
9462,60.1
9474,58.09
9486,55.86
9498,53.52
9510,51.12
9522,48.64
9534,45.98
9546,42.98
9558,39.41
9570,35.21
9581,30.41
9592,25.24
9604,19.98
9616,14.88
9628,9.95
9640,4.99
9652,-0.41
9664,-6.6
9676,-13.72
9688,-21.5
9700,-29.15
9712,-35.58
9724,-39.61
9736,-40.29
9748,-37.21
9760,-30.56
9771,-21.07
9782,-9.7
9794,2.53
9806,14.84
9818,26.66
9830,37.6
9842,47.32
9854,55.54
9866,62.06
9878,66.89
9890,70.25
9902,72.53
9914,74.11
9926,75.15
9938,75.57
9950,75.15
9961,73.75
9972,71.51
9984,68.9
9996,66.53
10008,64.83
10020,63.82
10032,62.98
10044,61.4
10056,58.13
10068,52.5
10080,44.45
10092,34.52
10104,23.7
10116,13.13
10128,3.87
10140,-3.35
10151,-8.07
10162,-10.18
10174,-9.82
10186,-7.31
10198,-3.19
10210,1.83
10222,6.86
10234,11.01
10246,13.58
10258,14.27
10270,13.25
10282,11.19
10294,8.89
10306,7.02
10318,5.86
10330,5.22
10341,4.68
10352,3.73
10364,2.08
10376,-0.39
10388,-3.7
10400,-7.89
10412,-13.04
10424,-19.14
10436,-26.05
10448,-33.44
10460,-41.0
10472,-48.56
10484,-56.26
10496,-64.42
10508,-73.21
10520,-82.41
10531,-91.29
10542,-98.81
10554,-103.96
10566,-106.15
10578,-105.39
10590,-102.27
10602,-97.79
10614,-92.96
10626,-88.67
10638,-85.44
10650,-83.51
10662,-82.78
10674,-82.99
10686,-83.76
10698,-84.71
10710,-85.56
10721,-86.12
10732,-86.32
10744,-86.08
10756,-85.24
10768,-83.57
10780,-80.82
10792,-76.87
10804,-71.8
10816,-65.95
10828,-59.76
10840,-53.64
10852,-47.86
10864,-42.45
10876,-37.4
10888,-32.74
10900,-28.57
10911,-25.1
10922,-22.42
10934,-20.41
10946,-18.75
10958,-16.87
10970,-14.23
10982,-10.38
10994,-5.06
11006,1.72
11018,9.69
11030,18.37
11042,27.06
11054,35.02
11066,41.65
11078,46.59
11090,49.74
11101,51.26
11112,51.34
11124,50.11
11136,47.68
11148,44.21
11160,39.96
11172,35.35
11184,30.76
11196,26.42
11208,22.27
11220,18.07
11232,13.54
11244,8.58
11256,3.31
11268,-1.97
11280,-6.96
11291,-11.54
11302,-15.85
11314,-20.22
11326,-25.05
11338,-30.65
11350,-37.17
11362,-44.56
11374,-52.56
11386,-60.72
11398,-68.36
11410,-74.71
11422,-78.88
11434,-80.15
11446,-78.01
11458,-72.34
11470,-63.46
11481,-51.99
11492,-38.78
11504,-24.66
11516,-10.29
11528,3.95
11540,17.9
11552,31.5
11564,44.69
11576,57.31
11588,69.07
11600,79.59
11612,88.48
11624,95.33
11636,99.78
11648,101.59
11660,100.73
11671,97.48
11682,92.52
11694,86.85
11706,81.55
11718,77.49
11730,75.1
11742,74.23
11754,74.22
11766,74.16
11778,73.0
11790,69.93
11802,64.51
11814,56.78
11826,47.27
11838,36.92
11850,26.8
11861,17.92
11872,11.04
11884,6.53
11896,4.4
11908,4.27
11920,5.4
11932,6.84
11944,7.52
11956,6.55
11968,3.44
11980,-1.85
11992,-8.93
12004,-17.18
12016,-26.0
12028,-34.96
12040,-43.73
12051,-52.01
12062,-59.45
12074,-65.57
12086,-70.0
12098,-72.63
12110,-73.66
12122,-73.63
12134,-73.24
12146,-73.07
12158,-73.57
12170,-74.94
12182,-77.25
12194,-80.31
12206,-83.77
12218,-87.01
12230,-89.26
12241,-89.79
12252,-88.13
12264,-84.32
12276,-78.96
12288,-73.09
12300,-67.88
12312,-64.25
12324,-62.54
12336,-62.26
12348,-62.29
12360,-61.11
12372,-57.33
12384,-50.22
12396,-39.95
12408,-27.54
12420,-14.44
12431,-1.99
12442,8.95
12454,18.1
12466,25.6
12478,31.71
12490,36.58
12502,40.28
12514,42.81
12526,44.26
12538,44.72
12550,44.34
12562,43.11
12574,40.9
12586,37.44
12598,32.45
12610,25.76
12621,17.45
12632,7.99
12644,-1.83
12656,-11.03
12668,-18.8
12680,-24.73
12692,-29.08
12704,-32.5
12716,-35.7
12728,-39.05
12740,-42.4
12752,-45.31
12764,-47.51
12776,-49.11
12788,-50.6
12800,-52.42
12811,-54.57
12822,-56.45
12834,-57.28
12846,-56.58
12858,-54.56
12870,-51.96
12882,-49.53
12894,-47.42
12906,-45.02
12918,-41.3
12930,-35.54
12942,-27.8
12954,-19.04
12966,-10.53
12978,-3.21
12990,2.75
13001,7.88
13012,12.91
13024,18.36
13036,24.24
13048,30.23
13060,36.07
13072,41.73
13084,47.45
13096,53.49
13108,59.8
13120,65.99
13132,71.43
13144,75.56
13156,78.2
13168,79.64
13180,80.44
13191,81.24
13202,82.39
13214,83.9
13226,85.48
13238,86.79
13250,87.6
13262,87.89
13274,87.78
13286,87.42
13298,87.01
13310,86.75
13322,86.95
13334,87.93
13346,89.94
13358,92.95
13370,96.64
13381,100.41
13392,103.64
13404,105.89
13416,106.99
13428,106.92
13440,105.64
13452,102.9
13464,98.37
13476,91.78
13488,83.28
13500,73.35
13512,62.81
13524,52.45
13536,42.81
13548,34.17
13560,26.45
13571,19.45
13582,12.87
13594,6.38
13606,-0.27
13618,-7.27
13630,-14.68
13642,-22.34
13654,-29.98
13666,-37.25
13678,-43.84
13690,-49.57
13702,-54.47
13714,-58.72
13726,-62.53
13738,-66.09
13750,-69.49
13761,-72.62
13772,-75.24
13784,-77.07
13796,-77.83
13808,-77.46
13820,-76.12
13832,-74.12
13844,-71.86
13856,-69.66
13868,-67.78
13880,-66.37
13892,-65.48
13904,-65.08
13916,-65.03
13928,-65.04
13940,-64.8
13951,-64.06
13962,-62.77
13974,-61.06
13986,-59.19
13998,-57.39
14010,-55.81
14022,-54.39
14034,-53.01
14046,-51.56
14058,-50.07
14070,-48.66
14082,-47.49
14094,-46.57
14106,-45.71
14118,-44.59
14130,-43.01
14141,-40.94
14152,-38.64
14164,-36.44
14176,-34.55
14188,-32.93
14200,-31.35
14212,-29.51
14224,-27.27
14236,-24.66
14248,-21.77
14260,-18.67
14272,-15.3
14284,-11.53
14296,-7.37
14308,-3.06
14320,1.03
14331,4.51
14342,7.24
14354,9.34
14366,11.1
14378,12.79
14390,14.42
14402,15.77
14414,16.48
14426,16.27
14438,15.05
14450,12.99
14462,10.51
14474,8.06
14486,6.07
14498,4.78
14510,4.13
14521,3.85
14532,3.55
14544,2.94
14556,1.89
14568,0.59
14580,-0.72
14592,-1.88
14604,-2.98
14616,-4.28
14628,-5.99
14640,-8.13
14652,-10.43
14664,-12.52
14676,-14.08
14688,-15.09
14700,-15.67
14711,-15.93
14722,-15.76
14734,-14.86
14746,-12.95
14758,-9.96
14770,-6.2
14782,-2.2
14794,1.48
14806,4.54
14818,6.99
14830,8.95
14842,10.61
14854,12.01
14866,13.1
14878,13.81
14890,14.15
14901,14.21
14912,14.1
14924,13.98
14936,13.91
14948,13.96
14960,14.09
14972,14.15
14984,13.94
14996,13.29
15008,12.07
15020,10.39
15032,8.48
15044,6.59
15056,4.85
15068,3.32
15080,1.9
15091,0.54
15102,-0.78
15114,-1.99
15126,-3.07
15138,-4.03
15150,-4.95
15162,-5.87
15174,-6.73
15186,-7.33
15198,-7.45
15210,-6.91
15222,-5.69
15234,-3.92
15246,-1.81
15258,0.46
15270,2.74
15281,4.94
15292,6.97
15304,8.69
15316,9.92
15328,10.53
15340,10.49
15352,9.92
15364,9.08
15376,8.2
15388,7.49
15400,7.03
15412,6.79
15424,6.68
15436,6.55
15448,6.26
15460,5.64
15471,4.59
15482,3.14
15494,1.52
15506,0.09
15518,-0.79
15530,-1.02
15542,-0.8
15554,-0.58
15566,-0.85
15578,-1.88
15590,-3.64
15602,-5.74
15614,-7.69
15626,-9.08
15638,-9.7
15650,-9.56
15661,-8.79
15672,-7.55
15684,-5.98
15696,-4.14
15708,-2.13
15720,-0.11
15732,1.78
15744,3.41
15756,4.76
15768,5.85
15780,6.8
15792,7.66
15804,8.42
15816,8.99
15828,9.26
15840,9.17
15851,8.7
15862,7.89
15874,6.86
15886,5.72
15898,4.57
15910,3.46
15922,2.32
15934,1.02
15946,-0.56
15958,-2.47
15970,-4.64
15982,-6.91
15994,-9.11
16006,-11.15
16018,-13.0
16030,-14.7
16041,-16.26
16052,-17.59
16064,-18.59
16076,-19.12
16088,-19.08
16100,-18.41
16112,-17.06
16124,-15.04
16136,-12.44
16148,-9.41
16160,-6.14
16172,-2.79
16184,0.5
16196,3.66
16208,6.54
16220,8.95
16231,10.58
16242,11.19
16254,10.73
16266,9.51
16278,8.08
16290,7.04
16302,6.75
16314,7.14
16326,7.72
16338,7.82
16350,6.91
16362,4.92
16374,2.36
16386,0.1
16398,-0.89
16410,0.03
16421,2.98
16432,7.59
16444,13.15
16456,18.8
16468,23.51
16480,26.29
16492,26.25
16504,23.0
16516,17.0
16528,9.66
16540,3.06
16552,-0.76
16564,-0.54
16576,3.63
16588,10.53
16600,18.42
16611,25.8
16622,31.76
16634,36.0
16646,38.39
16658,38.64
16670,36.36
16682,31.34
16694,23.94
16706,15.13
16718,6.18
16730,-2.04
16742,-9.44
16754,-16.67
16766,-24.67
16778,-33.96
16790,-44.24
16801,-54.54
16812,-63.73
16824,-71.19
16836,-77.11
16848,-82.35
16860,-87.9
16872,-94.3
16884,-101.37
16896,-108.36
16908,-114.38
16920,-118.89
16932,-121.84
16944,-123.56
16956,-124.43
16968,-124.52
16980,-123.57
16991,-121.01
17002,-116.3
17014,-109.18
17026,-99.81
17038,-88.79
17050,-77.05
17062,-65.83
17074,-56.34
17086,-49.62
17098,-46.31
17110,-46.43
17122,-49.49
17134,-54.71
17146,-61.53
17158,-69.93
17170,-80.68
17181,-95.26
17192,-115.31
17204,-141.81
17216,-174.01
17228,-208.9
17240,-241.5
17252,-266.04
17264,-277.87
17276,-275.03
17288,-258.84
17300,-233.12
17312,-202.37
17324,-170.01
17336,-137.51
17348,-104.58
17360,-70.47
17371,-35.06
17382,0.52
17394,34.42
17406,64.96
17418,91.37
17430,114.1
17442,134.24
17454,152.95
17466,171.08
17478,189.03
17490,206.78
17502,223.75
17514,238.6
17526,248.97
17538,251.91
17550,244.86
17561,226.78
17572,199.04
17584,165.16
17596,129.71
17608,96.67
17620,68.28
17632,44.77
17644,25.04
17656,7.73
17668,-7.97
17680,-22.14
17692,-34.52
17704,-44.91
17716,-53.44
17728,-60.51
17740,-66.62
17751,-72.2
17762,-77.61
17774,-83.13
17786,-88.89
17798,-94.79
17810,-100.22
17822,-104.03
17834,-104.73
17846,-100.92
17858,-91.79
17870,-77.6
17882,-59.82
17894,-40.68
17906,-22.62
17918,-7.52
17930,3.67
17941,10.9
17952,14.69
17964,15.67
17976,14.36
17988,11.23
18000,6.89
18012,2.19
18024,-1.99
18036,-5.11
18048,-7.3
18060,-9.34
18072,-12.27
18084,-16.82
18096,-22.93
18108,-29.85
18120,-36.54
18131,-42.3
18142,-47.17
18154,-51.92
18166,-57.63
18178,-65.31
18190,-75.62
18202,-88.92
18214,-105.35
18226,-124.74
18238,-146.33
18250,-168.39
18262,-188.33
18274,-203.32
18286,-211.15
18298,-211.18
18310,-204.53
18321,-193.59
18332,-181.06
18344,-168.9
18356,-157.91
18368,-147.86
18380,-138.07
18392,-127.92
18404,-117.1
18416,-105.46
18428,-92.81
18440,-78.84
18452,-63.29
18464,-46.26
18476,-28.33
18488,-10.41
18500,6.62
18511,22.27
18522,36.65
18534,50.24
18546,63.59
18558,76.99
18570,90.34
18582,103.29
18594,115.45
18606,126.57
18618,136.54
18630,145.3
18642,152.77
18654,158.78
18666,163.25
18678,166.2
18690,167.9
18701,168.7
18712,169.02
18724,169.13
18736,169.14
18748,168.97
18760,168.44
18772,167.4
18784,165.88
18796,164.14
18808,162.65
18820,161.93
18832,162.37
18844,164.07
18856,166.82
18868,170.22
18880,173.88
18891,177.56
18902,181.32
18914,185.44
18926,190.36
18938,196.67
18950,205.08
18962,216.21
18974,230.32
18986,246.72
18998,263.52
19010,277.81
19022,286.42
19034,287.03
19046,279.0
19058,263.68
19070,243.75
19081,222.2
19092,201.33
19104,182.2
19116,164.88
19128,148.97
19140,134.09
19152,120.11
19164,106.97
19176,94.57
19188,82.76
19200,71.64
19212,61.87
19224,54.66
19236,51.34
19248,52.93
19260,59.51
19271,70.04
19282,82.72
19294,95.49
19306,106.65
19318,115.27
19330,121.16
19342,124.65
19354,126.27
19366,126.5
19378,125.68
19390,123.97
19402,121.52
19414,118.47
19426,114.95
19438,111.13
19450,107.14
19461,103.13
19472,99.14
19484,95.16
19496,91.17
19508,87.06
19520,82.81
19532,78.38
19544,73.81
19556,69.14
19568,64.31
19580,59.2
19592,53.55
19604,47.19
19616,40.05
19628,32.29
19640,24.19
19651,16.02
19662,7.86
19674,-0.37
19686,-8.76
19698,-17.08
19710,-24.62
19722,-30.29
19734,-32.92
19746,-31.76
19758,-26.76
19770,-18.71
19782,-8.95
19794,1.04
19806,10.02
19818,17.2
19830,22.26
19841,25.22
19852,26.25
19864,25.53
19876,23.24
19888,19.62
19900,15.09
19912,10.23
19924,5.71
19936,2.14
19948,-0.17
19960,-1.26
19972,-1.52
19984,-1.43
19996,-1.38
20008,-1.56
20020,-1.93
20031,-2.41
20042,-3.02
20054,-3.93
20066,-5.45
20078,-7.85
20090,-11.36
20102,-16.04
20114,-21.83
20126,-28.55
20138,-35.83
20150,-43.1
20162,-49.51
20174,-54.07
20186,-55.73
20198,-53.78
20210,-47.95
20221,-38.69
20232,-27.02
20244,-14.34
20256,-2.09
20268,8.6
20280,17.07
20292,23.09
20304,26.68
20316,27.97
20328,27.08
20340,24.22
20352,19.8
20364,14.51
20376,9.26
20388,4.93
20400,2.09
20411,0.76
20422,0.47
20434,0.48
20446,0.13
20458,-0.84
20470,-2.3
20482,-3.79
20494,-4.85
20506,-5.28
20518,-5.2
20530,-5.03
20542,-5.34
20554,-6.74
20566,-9.7
20578,-14.51
20590,-21.14
20601,-29.12
20612,-37.46
20624,-44.72
20636,-49.36
20648,-50.21
20660,-46.73
20672,-39.23
20684,-28.71
20696,-16.45
20708,-3.67
20720,8.7
20732,20.09
20744,30.19
20756,38.74
20768,45.46
20780,50.05
20791,52.25
20802,52.07
20814,49.87
20826,46.38
20838,42.58
20850,39.38
20862,37.24
20874,36.06
20886,35.13
20898,33.44
20910,30.17
20922,24.93
20934,17.88
20946,9.59
20958,0.65
20970,-8.63
20981,-18.27
20992,-28.52
