seconds,BVP
6,6.49
18,6.18
30,5.85
42,5.56
54,5.39
66,5.38
78,5.54
90,5.82
102,6.17
114,6.52
126,6.84
138,7.09
150,7.21
161,7.09
172,6.67
184,5.91
196,4.92
208,3.87
220,2.98
232,2.41
244,2.18
256,2.16
268,2.18
280,2.09
292,1.83
304,1.46
316,1.08
328,0.75
340,0.44
351,0.02
362,-0.64
374,-1.6
386,-2.83
398,-4.16
410,-5.38
422,-6.33
434,-6.99
446,-7.44
458,-7.86
470,-8.43
482,-9.28
494,-10.42
506,-11.79
518,-13.2
530,-14.44
541,-15.26
552,-15.45
564,-14.85
576,-13.43
588,-11.31
600,-8.72
612,-6.0
624,-3.44
636,-1.25
648,0.51
660,1.88
672,3.0
684,4.01
696,4.96
708,5.84
720,6.54
731,6.95
742,6.99
754,6.66
766,6.12
778,5.53
790,5.12
802,5.02
814,5.26
826,5.8
838,6.53
850,7.33
862,8.09
874,8.72
886,9.17
898,9.42
910,9.48
921,9.43
932,9.32
944,9.2
956,9.08
968,8.9
980,8.6
992,8.09
1004,7.32
1016,6.29
1028,5.09
1040,3.79
1052,2.54
1064,1.44
1076,0.56
1088,-0.1
1100,-0.56
1111,-0.89
1122,-1.16
1134,-1.41
1146,-1.69
1158,-2.02
1170,-2.43
1182,-2.95
1194,-3.59
1206,-4.34
1218,-5.16
1230,-6.03
1242,-6.88
1254,-7.72
1266,-8.5
1278,-9.17
1290,-9.7
1301,-10.12
1312,-10.48
1324,-10.87
1336,-11.32
1348,-11.67
1360,-11.65
1372,-10.95
1384,-9.41
1396,-7.06
1408,-4.19
1420,-1.2
1432,1.52
1444,3.76
1456,5.5
1468,6.82
1480,7.84
1491,8.58
1502,9.05
1514,9.23
1526,9.18
1538,9.01
1550,8.82
1562,8.7
1574,8.64
1586,8.56
1598,8.42
1610,8.21
1622,8.03
1634,7.96
1646,8.07
1658,8.31
1670,8.56
1681,8.66
1692,8.49
1704,8.03
1716,7.34
1728,6.53
1740,5.72
1752,4.98
1764,4.36
1776,3.85
1788,3.43
1800,3.06
1812,2.72
1824,2.38
1836,1.97
1848,1.47
1860,0.84
1871,0.1
1882,-0.66
1894,-1.36
1906,-1.91
1918,-2.32
1930,-2.65
1942,-3.05
1954,-3.68
1966,-4.61
1978,-5.81
1990,-7.12
2002,-8.35
2014,-9.33
2026,-10.04
2038,-10.56
2050,-10.99
2061,-11.43
2072,-11.93
2084,-12.47
2096,-13.05
2108,-13.68
2120,-14.3
2132,-14.85
2144,-15.13
2156,-14.92
2168,-14.02
2180,-12.38
2192,-10.18
2204,-7.73
2216,-5.42
2228,-3.5
2240,-2.05
2251,-1.0
2262,-0.15
2274,0.6
2286,1.29
2298,1.83
2310,2.12
2322,2.13
2334,1.93
2346,1.66
2358,1.47
2370,1.44
2382,1.52
2394,1.6
2406,1.58
2418,1.41
2430,1.14
2441,0.89
2452,0.84
2464,1.07
2476,1.59
2488,2.22
2500,2.75
2512,2.93
2524,2.64
2536,1.93
2548,1.01
2560,0.13
2572,-0.56
2584,-0.99
2596,-1.27
2608,-1.5
2620,-1.77
2631,-2.05
2642,-2.28
2654,-2.41
2666,-2.49
2678,-2.63
2690,-2.96
2702,-3.52
2714,-4.22
2726,-4.91
2738,-5.41
2750,-5.66
2762,-5.73
2774,-5.79
2786,-5.98
2798,-6.42
2810,-7.11
2821,-8.02
2832,-9.09
2844,-10.21
2856,-11.24
2868,-11.93
2880,-11.98
2892,-11.19
2904,-9.52
2916,-7.16
2928,-4.45
2940,-1.77
2952,0.59
2964,2.48
2976,3.93
2988,5.03
3000,5.87
3011,6.5
3022,6.96
3034,7.27
3046,7.46
3058,7.56
3070,7.59
3082,7.53
3094,7.41
3106,7.28
3118,7.21
3130,7.24
3142,7.37
3154,7.57
3166,7.78
3178,7.93
3190,8.0
3201,7.99
3212,7.94
3224,7.86
3236,7.72
3248,7.51
3260,7.15
3272,6.62
3284,5.89
3296,5.01
3308,4.08
3320,3.22
3332,2.53
3344,2.05
3356,1.76
3368,1.57
3380,1.37
3391,1.12
3402,0.79
3414,0.42
3426,0.02
3438,-0.38
3450,-0.79
3462,-1.22
3474,-1.63
3486,-2.02
3498,-2.37
3510,-2.69
3522,-3.03
3534,-3.42
3546,-3.91
3558,-4.53
3570,-5.27
3581,-6.11
3592,-6.99
3604,-7.85
3616,-8.68
3628,-9.45
3640,-10.14
3652,-10.67
3664,-10.89
3676,-10.64
3688,-9.74
3700,-8.14
3712,-5.92
3724,-3.29
3736,-0.53
3748,2.07
3760,4.3
3771,6.08
3782,7.4
3794,8.33
3806,8.97
3818,9.4
3830,9.69
3842,9.91
3854,10.06
3866,10.15
3878,10.13
3890,9.97
3902,9.66
3914,9.25
3926,8.86
3938,8.62
3950,8.62
3961,8.87
3972,9.26
3984,9.67
3996,9.93
4008,9.96
4020,9.73
4032,9.29
4044,8.72
4056,8.07
4068,7.38
4080,6.66
4092,5.88
4104,5.01
4116,4.06
4128,3.1
4140,2.25
4151,1.62
4162,1.28
4174,1.23
4186,1.42
4198,1.71
4210,1.96
4222,2.02
4234,1.83
4246,1.37
4258,0.72
4270,0.0
4282,-0.72
4294,-1.41
4306,-2.08
4318,-2.81
4330,-3.6
4341,-4.45
4352,-5.28
4364,-6.03
4376,-6.64
4388,-7.16
4400,-7.66
4412,-8.24
4424,-8.99
4436,-9.89
4448,-10.84
4460,-11.7
4472,-12.26
4484,-12.33
4496,-11.76
4508,-10.51
4520,-8.64
4531,-6.34
4542,-3.82
4554,-1.32
4566,1.0
4578,2.98
4590,4.52
4602,5.57
4614,6.09
4626,6.11
4638,5.75
4650,5.18
4662,4.64
4674,4.32
4686,4.3
4698,4.55
4710,4.91
4721,5.17
4732,5.16
4744,4.84
4756,4.3
4768,3.76
4780,3.42
4792,3.43
4804,3.78
4816,4.31
4828,4.81
4840,5.09
4852,5.04
4864,4.67
4876,4.07
4888,3.36
4900,2.66
4911,2.07
4922,1.62
4934,1.3
4946,1.07
4958,0.85
4970,0.56
4982,0.14
4994,-0.37
5006,-0.93
5018,-1.46
5030,-1.91
5042,-2.3
5054,-2.66
5066,-3.05
5078,-3.51
5090,-4.04
5101,-4.58
5112,-5.09
5124,-5.53
5136,-5.93
5148,-6.34
5160,-6.83
5172,-7.47
5184,-8.27
5196,-9.23
5208,-10.27
5220,-11.24
5232,-11.9
5244,-11.98
5256,-11.27
5268,-9.65
5280,-7.24
5291,-4.33
5302,-1.3
5314,1.5
5326,3.83
5338,5.6
5350,6.82
5362,7.55
5374,7.86
5386,7.84
5398,7.61
5410,7.33
5422,7.17
5434,7.19
5446,7.36
5458,7.58
5470,7.75
5481,7.8
5492,7.74
5504,7.62
5516,7.51
5528,7.43
5540,7.37
5552,7.33
5564,7.3
5576,7.26
5588,7.15
5600,6.91
5612,6.48
5624,5.85
5636,5.08
5648,4.29
5660,3.61
5671,3.11
5682,2.81
5694,2.65
5706,2.53
5718,2.32
5730,1.91
5742,1.23
5754,0.27
5766,-0.86
5778,-1.99
5790,-2.94
5802,-3.59
5814,-3.97
5826,-4.17
5838,-4.33
5850,-4.57
5861,-4.9
5872,-5.33
5884,-5.8
5896,-6.3
5908,-6.78
5920,-7.21
5932,-7.53
5944,-7.75
5956,-7.96
5968,-8.35
5980,-9.08
5992,-10.21
6004,-11.59
6016,-12.88
6028,-13.59
6040,-13.35
6051,-11.97
6062,-9.56
6074,-6.45
6086,-3.09
6098,0.1
6110,2.86
6122,5.05
6134,6.7
6146,7.92
6158,8.79
6170,9.34
6182,9.59
6194,9.55
6206,9.3
6218,8.94
6230,8.58
6241,8.29
6252,8.06
6264,7.85
6276,7.6
6288,7.28
6300,6.91
6312,6.57
6324,6.3
6336,6.12
6348,5.99
6360,5.87
6372,5.71
6384,5.5
6396,5.22
6408,4.85
6420,4.43
6431,3.96
6442,3.52
6454,3.16
6466,2.93
6478,2.8
6490,2.7
6502,2.48
6514,2.02
6526,1.29
6538,0.37
6550,-0.61
6562,-1.51
6574,-2.24
6586,-2.8
6598,-3.3
6610,-3.83
6621,-4.5
6632,-5.36
6644,-6.34
6656,-7.35
6668,-8.26
6680,-8.99
6692,-9.48
6704,-9.74
6716,-9.83
6728,-9.86
6740,-9.96
6752,-10.26
6764,-10.85
6776,-11.73
6788,-12.76
6800,-13.65
6811,-14.06
6822,-13.69
6834,-12.45
6846,-10.43
6858,-7.91
6870,-5.2
6882,-2.55
6894,-0.11
6906,2.05
6918,3.9
6930,5.38
6942,6.43
6954,7.07
6966,7.33
6978,7.34
6990,7.19
7001,6.96
7012,6.69
7024,6.42
7036,6.18
7048,6.05
7060,6.1
7072,6.33
7084,6.68
7096,7.02
7108,7.27
7120,7.39
7132,7.43
7144,7.47
7156,7.51
7168,7.53
7180,7.4
7191,7.03
7202,6.39
7214,5.56
7226,4.68
7238,3.88
7250,3.2
7262,2.55
7274,1.83
7286,0.92
7298,-0.15
7310,-1.3
7322,-2.36
7334,-3.22
7346,-3.87
7358,-4.35
7370,-4.81
7381,-5.34
7392,-5.96
7404,-6.61
7416,-7.16
7428,-7.56
7440,-7.77
7452,-7.86
7464,-7.93
7476,-8.05
7488,-8.26
7500,-8.55
7512,-8.94
7524,-9.47
7536,-10.18
7548,-11.08
7560,-12.02
7571,-12.72
7582,-12.8
7594,-11.94
7606,-10.06
7618,-7.34
7630,-4.2
7642,-1.09
7654,1.63
7666,3.84
7678,5.57
7690,6.95
7702,8.02
7714,8.8
7726,9.22
7738,9.3
7750,9.1
7761,8.75
7772,8.37
7784,8.01
7796,7.68
7808,7.35
7820,7.06
7832,6.84
7844,6.75
7856,6.79
7868,6.92
7880,7.06
7892,7.15
7904,7.09
7916,6.84
7928,6.34
7940,5.6
7951,4.67
7962,3.67
7974,2.73
7986,1.97
7998,1.41
8010,1.0
8022,0.64
8034,0.23
8046,-0.27
8058,-0.88
8070,-1.53
8082,-2.2
8094,-2.81
8106,-3.28
8118,-3.55
8130,-3.59
8141,-3.4
8152,-3.06
8164,-2.69
8176,-2.44
8188,-2.46
8200,-2.82
8212,-3.48
8224,-4.36
8236,-5.29
8248,-6.12
8260,-6.79
8272,-7.29
8284,-7.7
8296,-8.15
8308,-8.77
8320,-9.61
8331,-10.66
8342,-11.79
8354,-12.77
8366,-13.3
8378,-13.09
8390,-11.93
8402,-9.83
8414,-7.03
8426,-3.89
8438,-0.82
8450,1.88
8462,4.04
8474,5.67
8486,6.83
8498,7.58
8510,7.97
8521,8.06
8532,7.91
8544,7.6
8556,7.23
8568,6.87
8580,6.55
8592,6.3
8604,6.15
8616,6.14
8628,6.26
8640,6.48
8652,6.72
8664,6.9
8676,6.96
8688,6.86
8700,6.64
8711,6.33
8722,5.94
8734,5.46
8746,4.82
8758,4.02
8770,3.08
8782,2.12
8794,1.23
8806,0.5
8818,-0.05
8830,-0.49
8842,-0.91
8854,-1.35
8866,-1.84
8878,-2.34
8890,-2.83
8901,-3.34
8912,-3.96
8924,-4.76
8936,-5.73
8948,-6.77
8960,-7.7
8972,-8.37
8984,-8.69
8996,-8.71
9008,-8.55
9020,-8.34
9032,-8.2
9044,-8.18
9056,-8.3
9068,-8.61
9080,-9.16
9091,-9.98
9102,-11.03
9114,-12.14
9126,-13.06
9138,-13.52
9150,-13.29
9162,-12.29
9174,-10.59
9186,-8.39
9198,-5.94
9210,-3.45
9222,-1.08
9234,1.1
9246,3.02
9258,4.69
9270,6.09
9281,7.22
9292,8.04
9304,8.51
9316,8.58
9328,8.27
9340,7.68
9352,6.97
9364,6.32
9376,5.87
9388,5.63
9400,5.55
9412,5.53
9424,5.52
9436,5.56
9448,5.7
9460,5.98
9471,6.34
9482,6.62
9494,6.65
9506,6.33
9518,5.69
9530,4.85
9542,3.99
9554,3.26
9566,2.71
9578,2.31
9590,1.95
9602,1.51
9614,0.91
9626,0.14
9638,-0.73
9650,-1.55
9661,-2.22
9672,-2.65
9684,-2.88
9696,-2.98
9708,-3.07
9720,-3.26
9732,-3.6
9744,-4.11
9756,-4.76
9768,-5.51
9780,-6.3
9792,-7.08
9804,-7.82
9816,-8.48
9828,-9.16
9840,-9.94
9851,-10.91
9862,-12.02
9874,-13.08
9886,-13.74
9898,-13.66
9910,-12.62
9922,-10.66
9934,-8.04
9946,-5.14
9958,-2.3
9970,0.29
9982,2.59
9994,4.61
10006,6.36
10018,7.77
10030,8.74
10041,9.19
10052,9.15
10064,8.74
10076,8.17
10088,7.6
10100,7.18
10112,6.93
10124,6.86
10136,6.91
10148,7.05
10160,7.27
10172,7.51
10184,7.75
10196,7.95
10208,8.07
10220,8.06
10231,7.88
10242,7.48
10254,6.86
10266,6.1
10278,5.3
10290,4.56
10302,3.99
10314,3.59
10326,3.3
10338,3.03
10350,2.67
10362,2.14
10374,1.42
10386,0.58
10398,-0.3
10410,-1.13
10421,-1.81
10432,-2.35
10444,-2.78
10456,-3.19
10468,-3.69
10480,-4.33
10492,-5.1
10504,-5.87
10516,-6.53
10528,-6.96
10540,-7.14
10552,-7.16
10564,-7.18
10576,-7.36
10588,-7.78
10600,-8.45
10611,-9.28
10622,-10.15
10634,-10.98
10646,-11.74
10658,-12.38
10670,-12.79
10682,-12.77
10694,-12.12
10706,-10.71
10718,-8.58
10730,-5.98
10742,-3.23
10754,-0.65
10766,1.6
10778,3.5
10790,5.14
10801,6.6
10812,7.89
10824,8.92
10836,9.57
10848,9.78
10860,9.58
10872,9.1
10884,8.52
10896,7.98
10908,7.58
10920,7.34
10932,7.22
10944,7.21
10956,7.3
10968,7.51
10980,7.8
10991,8.09
11002,8.23
11014,8.13
11026,7.71
11038,7.04
11050,6.27
11062,5.55
11074,4.98
11086,4.57
11098,4.24
11110,3.87
11122,3.4
11134,2.83
11146,2.21
11158,1.63
11170,1.13
11181,0.68
11192,0.23
11204,-0.34
11216,-1.08
11228,-1.98
11240,-2.99
11252,-4.03
11264,-5.02
11276,-5.93
11288,-6.76
11300,-7.52
11312,-8.23
11324,-8.88
11336,-9.47
11348,-9.99
11360,-10.48
11371,-10.99
11382,-11.63
11394,-12.47
11406,-13.49
11418,-14.58
11430,-15.44
11442,-15.72
11454,-15.13
11466,-13.58
11478,-11.2
11490,-8.35
11502,-5.4
11514,-2.68
11526,-0.31
11538,1.72
11550,3.48
11561,4.99
11572,6.23
11584,7.16
11596,7.79
11608,8.22
11620,8.52
11632,8.75
11644,8.91
11656,8.93
11668,8.79
11680,8.52
11692,8.23
11704,8.05
11716,8.06
11728,8.3
11740,8.69
11751,9.15
11762,9.61
11774,9.96
11786,10.15
11798,10.14
11810,9.88
11822,9.39
11834,8.72
11846,7.96
11858,7.21
11870,6.53
11882,5.89
11894,5.24
11906,4.53
11918,3.75
11930,2.95
11941,2.17
11952,1.45
11964,0.77
11976,0.04
11988,-0.81
12000,-1.74
12012,-2.66
12024,-3.46
12036,-4.1
12048,-4.62
12060,-5.2
12072,-5.97
12084,-6.99
12096,-8.16
12108,-9.34
12120,-10.39
12131,-11.33
12142,-12.22
12154,-13.1
12166,-13.91
12178,-14.45
12190,-14.41
12202,-13.53
12214,-11.74
12226,-9.19
12238,-6.2
12250,-3.09
12262,-0.15
12274,2.48
12286,4.73
12298,6.61
12310,8.06
12321,9.04
12332,9.53
12344,9.55
12356,9.23
12368,8.72
12380,8.19
12392,7.69
12404,7.26
12416,6.86
12428,6.5
12440,6.19
12452,5.97
12464,5.84
12476,5.77
12488,5.71
12500,5.59
12511,5.42
12522,5.2
12534,4.94
12546,4.66
12558,4.37
12570,4.08
12582,3.84
12594,3.68
12606,3.56
12618,3.42
12630,3.16
12642,2.66
12654,1.9
12666,0.94
12678,-0.1
12690,-1.11
12701,-2.02
12712,-2.77
12724,-3.34
12736,-3.7
12748,-3.9
12760,-3.97
12772,-4.06
12784,-4.3
12796,-4.75
12808,-5.37
12820,-6.0
12832,-6.47
12844,-6.68
12856,-6.69
12868,-6.67
12880,-6.86
12891,-7.45
12902,-8.51
12914,-9.93
12926,-11.48
12938,-12.8
12950,-13.48
12962,-13.22
12974,-11.85
12986,-9.45
12998,-6.32
13010,-2.91
13022,0.3
13034,3.0
13046,5.05
13058,6.51
13070,7.54
13081,8.29
13092,8.83
13104,9.18
13116,9.35
13128,9.4
13140,9.38
13152,9.34
13164,9.24
13176,8.99
13188,8.53
13200,7.87
13212,7.15
13224,6.58
13236,6.36
13248,6.49
13260,6.87
13271,7.26
13282,7.44
13294,7.33
13306,6.96
13318,6.42
13330,5.81
13342,5.17
13354,4.42
13366,3.55
13378,2.57
13390,1.54
13402,0.56
13414,-0.28
13426,-0.96
13438,-1.5
13450,-1.94
13461,-2.31
13472,-2.67
13484,-3.11
13496,-3.72
13508,-4.59
13520,-5.69
13532,-6.92
13544,-8.12
13556,-9.1
13568,-9.79
13580,-10.21
13592,-10.49
13604,-10.8
13616,-11.24
13628,-11.86
13640,-12.62
13651,-13.41
13662,-14.07
13674,-14.4
13686,-14.23
13698,-13.41
13710,-11.9
13722,-9.76
13734,-7.18
13746,-4.44
13758,-1.79
13770,0.57
13782,2.57
13794,4.22
13806,5.6
13818,6.79
13830,7.78
13841,8.53
13852,8.97
13864,9.08
13876,8.9
13888,8.54
13900,8.15
13912,7.8
13924,7.55
13936,7.4
13948,7.38
13960,7.48
13972,7.68
13984,7.94
13996,8.12
14008,8.15
14020,7.96
14031,7.52
14042,6.9
14054,6.2
14066,5.49
14078,4.83
14090,4.23
14102,3.65
14114,3.05
14126,2.4
14138,1.72
14150,1.07
14162,0.51
14174,0.05
14186,-0.38
14198,-0.93
14210,-1.73
14221,-2.85
14232,-4.24
14244,-5.74
14256,-7.15
14268,-8.3
14280,-9.15
14292,-9.71
14304,-10.09
14316,-10.38
14328,-10.7
14340,-11.12
14352,-11.66
14364,-12.19
14376,-12.49
14388,-12.27
14400,-11.28
14411,-9.43
14422,-6.83
14434,-3.8
14446,-0.73
14458,2.03
14470,4.27
14482,5.95
14494,7.16
14506,7.99
14518,8.53
14530,8.82
14542,8.86
14554,8.69
14566,8.36
14578,7.96
14590,7.56
14601,7.22
14612,6.95
14624,6.73
14636,6.52
14648,6.25
14660,5.93
14672,5.61
14684,5.33
14696,5.19
14708,5.19
14720,5.31
14732,5.47
14744,5.6
14756,5.61
14768,5.48
14780,5.16
14791,4.66
14802,4.01
14814,3.27
14826,2.56
14838,1.94
14850,1.45
14862,1.06
14874,0.68
14886,0.17
14898,-0.52
14910,-1.37
14922,-2.3
14934,-3.16
14946,-3.87
14958,-4.39
14970,-4.81
14981,-5.23
14992,-5.75
15004,-6.42
15016,-7.16
15028,-7.83
15040,-8.31
15052,-8.57
15064,-8.69
15076,-8.82
15088,-9.15
15100,-9.78
15112,-10.66
15124,-11.52
15136,-12.02
15148,-11.81
15160,-10.67
15171,-8.65
15182,-6.02
15194,-3.19
15206,-0.54
15218,1.71
15230,3.55
15242,5.07
15254,6.38
15266,7.49
15278,8.33
15290,8.8
15302,8.85
15314,8.58
15326,8.18
15338,7.84
15350,7.68
15361,7.71
15372,7.83
15384,7.94
15396,8.0
15408,8.02
15420,8.05
15432,8.12
15444,8.15
15456,8.1
15468,7.87
15480,7.51
15492,7.09
15504,6.69
15516,6.35
15528,6.01
15540,5.54
15551,4.87
15562,4.04
15574,3.15
15586,2.32
15598,1.63
15610,1.04
15622,0.45
15634,-0.23
15646,-1.03
15658,-1.9
15670,-2.74
15682,-3.49
15694,-4.09
15706,-4.58
15718,-4.97
15730,-5.29
15741,-5.56
15752,-5.78
15764,-6.03
15776,-6.36
15788,-6.84
15800,-7.52
15812,-8.37
15824,-9.34
15836,-10.32
15848,-11.24
15860,-12.04
15872,-12.69
15884,-13.14
15896,-13.31
15908,-13.1
15920,-12.38
15931,-11.12
15942,-9.35
15954,-7.19
15966,-4.79
15978,-2.32
15990,0.06
16002,2.19
16014,3.96
16026,5.28
16038,6.13
16050,6.58
16062,6.8
16074,6.92
16086,7.04
16098,7.13
16110,7.12
16121,6.92
16132,6.48
16144,5.86
16156,5.2
16168,4.6
16180,4.13
16192,3.82
16204,3.63
16216,3.56
16228,3.61
16240,3.78
16252,4.06
16264,4.41
16276,4.76
16288,5.04
16300,5.21
16311,5.19
16322,4.95
16334,4.5
16346,3.88
16358,3.15
16370,2.4
16382,1.68
16394,1.01
16406,0.37
16418,-0.27
16430,-0.98
16442,-1.74
16454,-2.55
16466,-3.36
16478,-4.1
16490,-4.65
16501,-4.95
16512,-4.97
16524,-4.79
16536,-4.54
16548,-4.37
16560,-4.35
16572,-4.44
16584,-4.57
16596,-4.63
16608,-4.64
16620,-4.72
16632,-5.05
16644,-5.77
16656,-6.88
16668,-8.27
16680,-9.68
16691,-10.79
16702,-11.32
16714,-11.04
16726,-9.84
16738,-7.77
16750,-5.05
16762,-2.07
16774,0.74
16786,3.01
16798,4.51
16810,5.26
16822,5.42
16834,5.26
16846,4.94
16858,4.54
16870,4.0
16881,3.33
16892,2.62
16904,2.05
16916,1.84
16928,2.09
16940,2.77
16952,3.64
16964,4.45
16976,5.0
16988,5.23
17000,5.21
17012,5.05
17024,4.83
17036,4.56
17048,4.21
17060,3.76
17071,3.27
17082,2.82
17094,2.5
17106,2.3
17118,2.16
17130,1.94
17142,1.5
17154,0.82
17166,-0.08
17178,-1.1
17190,-2.1
17202,-2.99
17214,-3.68
17226,-4.15
17238,-4.4
17250,-4.46
17261,-4.37
17272,-4.21
17284,-4.05
17296,-3.97
17308,-4.0
17320,-4.14
17332,-4.36
17344,-4.63
17356,-4.91
17368,-5.18
17380,-5.49
17392,-5.86
17404,-6.38
17416,-7.05
17428,-7.82
17440,-8.54
17451,-8.97
17462,-8.87
17474,-8.06
17486,-6.52
17498,-4.39
17510,-1.9
17522,0.66
17534,3.05
17546,5.1
17558,6.73
17570,7.96
17582,8.8
17594,9.33
17606,9.58
17618,9.57
17630,9.33
17641,8.89
17652,8.32
17664,7.69
17676,7.06
17688,6.47
17700,5.94
17712,5.48
17724,5.17
17736,5.08
17748,5.28
17760,5.78
17772,6.46
17784,7.13
17796,7.57
17808,7.64
17820,7.28
17831,6.57
17842,5.66
17854,4.7
17866,3.82
17878,3.07
17890,2.43
17902,1.85
17914,1.24
17926,0.59
17938,-0.05
17950,-0.57
17962,-0.87
17974,-0.91
17986,-0.79
17998,-0.69
18010,-0.79
18021,-1.21
18032,-1.91
18044,-2.75
18056,-3.57
18068,-4.25
18080,-4.77
18092,-5.2
18104,-5.61
18116,-6.05
18128,-6.49
18140,-6.88
18152,-7.17
18164,-7.33
18176,-7.44
18188,-7.55
18200,-7.76
18211,-8.14
18222,-8.77
18234,-9.65
18246,-10.73
18258,-11.86
18270,-12.78
18282,-13.17
18294,-12.73
18306,-11.3
18318,-8.93
18330,-5.92
18342,-2.7
18354,0.27
18366,2.7
18378,4.47
18390,5.71
18401,6.61
18412,7.38
18424,8.11
18436,8.81
18448,9.39
18460,9.78
18472,9.88
18484,9.65
18496,9.13
18508,8.44
18520,7.73
18532,7.15
18544,6.78
18556,6.68
18568,6.78
18580,6.95
18591,7.08
18602,7.07
18614,6.9
18626,6.59
18638,6.21
18650,5.81
18662,5.45
18674,5.15
18686,4.91
18698,4.68
18710,4.41
18722,4.09
18734,3.68
18746,3.23
18758,2.77
18770,2.31
18781,1.88
18792,1.51
18804,1.2
18816,0.95
18828,0.69
18840,0.33
18852,-0.21
18864,-0.92
18876,-1.72
18888,-2.42
18900,-2.89
18912,-3.09
18924,-3.16
18936,-3.31
18948,-3.73
18960,-4.51
18971,-5.51
18982,-6.55
18994,-7.42
19006,-8.04
19018,-8.47
19030,-8.86
19042,-9.35
19054,-10.0
19066,-10.79
19078,-11.65
19090,-12.51
19102,-13.23
19114,-13.65
19126,-13.58
19138,-12.78
19150,-11.15
19161,-8.74
19172,-5.76
19184,-2.59
19196,0.37
19208,2.83
19220,4.64
19232,5.78
19244,6.35
19256,6.44
19268,6.21
19280,5.79
19292,5.32
19304,4.89
19316,4.56
19328,4.34
19340,4.2
19351,4.16
19362,4.2
19374,4.36
19386,4.67
19398,5.09
19410,5.58
19422,6.06
19434,6.45
19446,6.71
19458,6.78
19470,6.65
19482,6.28
19494,5.68
19506,4.87
19518,3.94
19530,2.99
19541,2.14
19552,1.47
19564,1.03
19576,0.77
19588,0.6
19600,0.42
19612,0.14
19624,-0.29
19636,-0.84
19648,-1.44
19660,-1.98
19672,-2.41
19684,-2.74
19696,-3.0
19708,-3.24
19720,-3.51
19731,-3.82
19742,-4.14
19754,-4.47
19766,-4.81
19778,-5.17
19790,-5.57
19802,-6.01
19814,-6.49
19826,-7.02
19838,-7.65
19850,-8.4
19862,-9.2
19874,-9.89
19886,-10.23
19898,-9.94
19910,-8.84
19921,-6.94
19932,-4.43
19944,-1.69
19956,0.89
19968,3.0
19980,4.5
19992,5.39
20004,5.83
20016,6.0
20028,6.11
20040,6.25
20052,6.46
20064,6.64
20076,6.7
20088,6.56
20100,6.22
20111,5.78
20122,5.39
20134,5.22
20146,5.31
20158,5.61
20170,5.99
20182,6.33
20194,6.56
20206,6.68
20218,6.66
20230,6.44
20242,5.95
20254,5.14
20266,4.03
20278,2.82
20290,1.73
20301,0.96
20312,0.55
20324,0.38
20336,0.24
20348,-0.06
20360,-0.59
20372,-1.25
20384,-1.9
20396,-2.39
20408,-2.68
20420,-2.83
20432,-2.97
20444,-3.19
20456,-3.53
20468,-3.96
20480,-4.39
20491,-4.77
20502,-5.07
20514,-5.27
20526,-5.4
20538,-5.47
20550,-5.53
20562,-5.63
20574,-5.78
20586,-5.99
20598,-6.23
20610,-6.48
20622,-6.72
20634,-7.03
20646,-7.48
20658,-8.14
20670,-8.93
20681,-9.66
20692,-10.03
20704,-9.75
20716,-8.68
20728,-6.91
20740,-4.7
20752,-2.4
20764,-0.31
20776,1.39
20788,2.67
20800,3.59
20812,4.28
20824,4.85
20836,5.37
20848,5.89
20860,6.4
20871,6.82
20882,7.05
20894,7.0
20906,6.62
20918,6.02
20930,5.38
20942,4.94
20954,4.83
20966,5.1
20978,5.61
20990,6.2
