seconds,BVP
10,-8.73
22,-2.25
34,4.54
46,10.68
58,15.52
70,18.84
82,20.78
94,21.53
106,21.23
118,19.96
130,17.83
142,15.18
153,12.53
164,10.43
176,9.23
188,8.93
200,9.19
212,9.48
224,9.43
236,8.99
248,8.34
260,7.75
272,7.4
284,7.24
296,6.96
308,6.2
320,4.64
332,2.2
343,-0.88
354,-4.18
366,-7.24
378,-9.72
390,-11.47
402,-12.61
414,-13.46
426,-14.41
438,-15.75
450,-17.68
462,-20.15
474,-22.91
486,-25.54
498,-27.42
510,-27.91
522,-26.56
533,-23.24
544,-18.27
556,-12.25
568,-5.94
580,0.04
592,5.24
604,9.41
616,12.37
628,13.96
640,14.11
652,12.88
664,10.62
676,7.92
688,5.48
700,3.84
712,3.21
723,3.47
734,4.19
746,4.99
758,5.55
770,5.83
782,5.93
794,6.01
806,6.14
818,6.22
830,5.98
842,5.15
854,3.61
866,1.5
878,-0.84
890,-2.99
902,-4.69
913,-5.93
924,-6.96
936,-8.09
948,-9.58
960,-11.49
972,-13.76
984,-16.29
996,-19.0
1008,-21.81
1020,-24.47
1032,-26.45
1044,-26.97
1056,-25.37
1068,-21.36
1080,-15.26
1092,-8.02
1103,-0.8
1114,5.37
1126,9.94
1138,12.88
1150,14.53
1162,15.2
1174,15.03
1186,13.93
1198,11.83
1210,8.91
1222,5.65
1234,2.79
1246,0.96
1258,0.52
1270,1.32
1282,2.9
1293,4.64
1304,6.04
1316,6.91
1328,7.28
1340,7.28
1352,7.04
1364,6.61
1376,5.93
1388,4.92
1400,3.54
1412,1.81
1424,-0.08
1436,-1.96
1448,-3.71
1460,-5.32
1472,-6.94
1483,-8.82
1494,-11.13
1506,-13.88
1518,-16.91
1530,-19.92
1542,-22.52
1554,-24.33
1566,-24.97
1578,-24.1
1590,-21.53
1602,-17.32
1614,-11.76
1626,-5.46
1638,0.91
1650,6.69
1662,11.48
1673,15.06
1684,17.33
1696,18.26
1708,17.89
1720,16.39
1732,13.99
1744,11.11
1756,8.22
1768,5.7
1780,3.84
1792,2.75
1804,2.38
1816,2.6
1828,3.25
1840,4.13
1852,5.12
1863,6.04
1874,6.72
1886,7.03
1898,6.83
1910,6.05
1922,4.68
1934,2.8
1946,0.54
1958,-1.84
1970,-4.1
1982,-6.07
1994,-7.69
2006,-9.05
2018,-10.32
2030,-11.72
2042,-13.44
2053,-15.54
2064,-17.82
2076,-19.88
2088,-21.15
2100,-21.01
2112,-19.07
2124,-15.3
2136,-10.03
2148,-3.99
2160,1.96
2172,7.12
2184,11.1
2196,13.82
2208,15.37
2220,15.83
2232,15.23
2243,13.56
2254,10.95
2266,7.75
2278,4.56
2290,2.0
2302,0.52
2314,0.24
2326,0.89
2338,2.06
2350,3.35
2362,4.56
2374,5.68
2386,6.77
2398,7.83
2410,8.66
2422,8.98
2433,8.53
2444,7.28
2456,5.41
2468,3.29
2480,1.26
2492,-0.5
2504,-2.01
2516,-3.41
2528,-4.9
2540,-6.59
2552,-8.53
2564,-10.73
2576,-13.15
2588,-15.63
2600,-17.91
2612,-19.53
2623,-19.96
2634,-18.76
2646,-15.77
2658,-11.2
2670,-5.63
2682,0.19
2694,5.49
2706,9.75
2718,12.68
2730,14.24
2742,14.56
2754,13.85
2766,12.29
2778,10.16
2790,7.78
2802,5.54
2813,3.81
2824,2.82
2836,2.63
2848,3.05
2860,3.84
2872,4.72
2884,5.51
2896,6.14
2908,6.55
2920,6.59
2932,6.08
2944,4.85
2956,2.94
2968,0.56
2980,-1.93
2992,-4.17
3003,-5.95
3014,-7.26
3026,-8.26
3038,-9.12
3050,-9.96
3062,-10.83
3074,-11.79
3086,-12.97
3098,-14.48
3110,-16.31
3122,-18.28
3134,-19.84
3146,-20.34
3158,-19.22
3170,-16.27
3182,-11.8
3193,-6.45
3204,-1.06
3216,3.75
3228,7.62
3240,10.55
3252,12.67
3264,14.07
3276,14.65
3288,14.22
3300,12.71
3312,10.29
3324,7.5
3336,4.99
3348,3.36
3360,2.9
3372,3.47
3383,4.61
3394,5.8
3406,6.69
3418,7.24
3430,7.67
3442,8.16
3454,8.71
3466,9.05
3478,8.78
3490,7.64
3502,5.61
3514,3.05
3526,0.44
3538,-1.8
3550,-3.49
3562,-4.81
3573,-6.16
3584,-7.91
3596,-10.3
3608,-13.31
3620,-16.66
3632,-19.92
3644,-22.5
3656,-23.82
3668,-23.42
3680,-21.09
3692,-16.96
3704,-11.46
3716,-5.23
3728,1.06
3740,6.78
3752,11.53
3763,15.06
3774,17.22
3786,17.98
3798,17.36
3810,15.52
3822,12.86
3834,10.0
3846,7.57
3858,6.06
3870,5.66
3882,6.14
3894,7.04
3906,7.88
3918,8.35
3930,8.39
3942,8.18
3953,7.88
3964,7.57
3976,7.22
3988,6.63
4000,5.64
4012,4.2
4024,2.35
4036,0.19
4048,-2.04
4060,-4.09
4072,-5.77
4084,-6.98
4096,-7.83
4108,-8.57
4120,-9.5
4132,-10.88
4143,-12.81
4154,-15.14
4166,-17.44
4178,-19.11
4190,-19.54
4202,-18.29
4214,-15.23
4226,-10.6
4238,-4.91
4250,1.2
4262,7.12
4274,12.4
4286,16.74
4298,19.91
4310,21.71
4322,21.93
4333,20.56
4344,17.82
4356,14.29
4368,10.77
4380,8.04
4392,6.57
4404,6.45
4416,7.39
4428,8.83
4440,10.21
4452,11.16
4464,11.58
4476,11.56
4488,11.27
4500,10.85
4512,10.31
4523,9.51
4534,8.18
4546,6.13
4558,3.32
4570,-0.03
4582,-3.49
4594,-6.58
4606,-8.98
4618,-10.62
4630,-11.76
4642,-12.83
4654,-14.21
4666,-16.05
4678,-18.22
4690,-20.38
4702,-22.03
4713,-22.7
4724,-22.0
4736,-19.67
4748,-15.73
4760,-10.43
4772,-4.28
4784,2.1
4796,8.06
4808,13.1
4820,16.87
4832,19.23
4844,20.21
4856,19.86
4868,18.31
4880,15.77
4892,12.63
4903,9.46
4914,6.86
4926,5.24
4938,4.78
4950,5.29
4962,6.34
4974,7.47
4986,8.38
4998,9.02
5010,9.44
5022,9.76
5034,9.89
5046,9.67
5058,8.78
5070,7.04
5082,4.47
5093,1.32
5104,-1.99
5116,-5.01
5128,-7.46
5140,-9.27
5152,-10.64
5164,-11.83
5176,-13.17
5188,-14.86
5200,-16.93
5212,-19.24
5224,-21.41
5236,-22.89
5248,-23.03
5260,-21.34
5272,-17.62
5283,-12.13
5294,-5.5
5306,1.41
5318,7.81
5330,13.18
5342,17.33
5354,20.27
5366,22.04
5378,22.68
5390,22.2
5402,20.67
5414,18.31
5426,15.57
5438,12.96
5450,10.93
5462,9.7
5473,9.16
5484,8.98
5496,8.73
5508,8.14
5520,7.19
5532,6.1
5544,5.18
5556,4.61
5568,4.32
5580,4.01
5592,3.3
5604,1.97
5616,0.04
5628,-2.27
5640,-4.58
5652,-6.71
5663,-8.56
5674,-10.22
5686,-11.87
5698,-13.67
5710,-15.78
5722,-18.26
5734,-21.11
5746,-24.06
5758,-26.61
5770,-28.0
5782,-27.42
5794,-24.37
5806,-18.91
5818,-11.71
5830,-3.85
5842,3.51
5853,9.54
5864,13.87
5876,16.52
5888,17.71
5900,17.61
5912,16.35
5924,14.07
5936,11.12
5948,8.09
5960,5.65
5972,4.37
5984,4.42
5996,5.58
6008,7.27
6020,8.87
6032,9.86
6043,10.06
6054,9.59
6066,8.68
6078,7.6
6090,6.44
6102,5.2
6114,3.77
6126,2.04
6138,0.04
6150,-2.18
6162,-4.42
6174,-6.49
6186,-8.26
6198,-9.68
6210,-10.81
6222,-11.85
6233,-12.99
6244,-14.48
6256,-16.43
6268,-18.8
6280,-21.29
6292,-23.33
6304,-24.24
6316,-23.41
6328,-20.53
6340,-15.74
6352,-9.58
6364,-2.8
6376,3.8
6388,9.59
6400,14.2
6412,17.44
6423,19.24
6434,19.55
6446,18.45
6458,16.16
6470,13.11
6482,9.95
6494,7.36
6506,5.85
6518,5.58
6530,6.36
6542,7.69
6554,9.05
6566,10.0
6578,10.4
6590,10.33
6602,9.95
6613,9.43
6624,8.77
6636,7.83
6648,6.43
6660,4.45
6672,1.91
6684,-0.98
6696,-3.91
6708,-6.57
6720,-8.73
6732,-10.28
6744,-11.28
6756,-11.87
6768,-12.25
6780,-12.66
6792,-13.38
6803,-14.64
6814,-16.58
6826,-19.02
6838,-21.41
6850,-22.88
6862,-22.55
6874,-19.95
6886,-15.16
6898,-8.91
6910,-2.31
6922,3.66
6934,8.38
6946,11.73
6958,13.97
6970,15.43
6982,16.27
6993,16.47
7004,15.99
7016,14.82
7028,13.2
7040,11.55
7052,10.31
7064,9.75
7076,9.87
7088,10.42
7100,10.99
7112,11.28
7124,11.16
7136,10.69
7148,10.06
7160,9.35
7172,8.5
7183,7.27
7194,5.5
7206,3.19
7218,0.55
7230,-2.06
7242,-4.32
7254,-6.08
7266,-7.41
7278,-8.5
7290,-9.55
7302,-10.63
7314,-11.7
7326,-12.75
7338,-13.86
7350,-15.2
7362,-16.87
7373,-18.82
7384,-20.6
7396,-21.6
7408,-21.14
7420,-18.84
7432,-14.71
7444,-9.13
7456,-2.8
7468,3.57
7480,9.36
7492,14.14
7504,17.64
7516,19.75
7528,20.45
7540,19.82
7552,18.1
7563,15.59
7574,12.69
7586,9.83
7598,7.45
7610,5.87
7622,5.27
7634,5.64
7646,6.75
7658,8.2
7670,9.56
7682,10.53
7694,10.94
7706,10.81
7718,10.22
7730,9.2
7742,7.74
7753,5.8
7764,3.4
7776,0.66
7788,-2.14
7800,-4.72
7812,-6.9
7824,-8.6
7836,-9.94
7848,-11.11
7860,-12.29
7872,-13.56
7884,-14.96
7896,-16.44
7908,-17.96
7920,-19.45
7932,-20.62
7943,-21.08
7954,-20.26
7966,-17.78
7978,-13.51
7990,-7.77
8002,-1.26
8014,5.17
8026,10.83
8038,15.39
8050,18.81
8062,21.2
8074,22.6
8086,22.95
8098,22.08
8110,20.0
8122,17.02
8133,13.72
8144,10.8
8156,8.74
8168,7.73
8180,7.5
8192,7.62
8204,7.64
8216,7.38
8228,6.94
8240,6.52
8252,6.27
8264,6.09
8276,5.73
8288,4.88
8300,3.32
8312,1.11
8323,-1.53
8334,-4.27
8346,-6.85
8358,-9.09
8370,-10.99
8382,-12.62
8394,-14.12
8406,-15.61
8418,-17.18
8430,-18.94
8442,-20.95
8454,-23.2
8466,-25.44
8478,-27.27
8490,-28.05
8502,-27.16
8513,-24.25
8524,-19.33
8536,-12.91
8548,-5.8
8560,1.11
8572,7.18
8584,12.06
8596,15.7
8608,18.06
8620,19.04
8632,18.52
8644,16.5
8656,13.25
8668,9.39
8680,5.7
8692,2.89
8703,1.4
8714,1.22
8726,2.04
8738,3.39
8750,4.9
8762,6.36
8774,7.63
8786,8.61
8798,9.19
8810,9.25
8822,8.68
8834,7.42
8846,5.52
8858,3.05
8870,0.18
8882,-2.87
8893,-5.8
8904,-8.36
8916,-10.46
8928,-12.19
8940,-13.87
8952,-15.8
8964,-18.16
8976,-20.84
8988,-23.51
9000,-25.77
9012,-27.32
9024,-27.92
9036,-27.38
9048,-25.45
9060,-21.83
9072,-16.43
9083,-9.48
9094,-1.68
9106,5.98
9118,12.47
9130,17.15
9142,19.89
9154,20.92
9166,20.64
9178,19.37
9190,17.32
9202,14.64
9214,11.6
9226,8.64
9238,6.28
9250,4.93
9262,4.72
9273,5.47
9284,6.77
9296,8.21
9308,9.46
9320,10.36
9332,10.9
9344,11.09
9356,10.96
9368,10.44
9380,9.49
9392,8.0
9404,5.92
9416,3.35
9428,0.5
9440,-2.3
9452,-4.78
9463,-6.86
9474,-8.72
9486,-10.59
9498,-12.72
9510,-15.13
9522,-17.65
9534,-20.02
9546,-22.02
9558,-23.59
9570,-24.61
9582,-24.84
9594,-23.87
9606,-21.24
9618,-16.73
9630,-10.56
9642,-3.51
9653,3.42
9664,9.28
9676,13.57
9688,16.25
9700,17.61
9712,17.91
9724,17.28
9736,15.66
9748,13.06
9760,9.8
9772,6.53
9784,4.1
9796,3.1
9808,3.7
9820,5.44
9832,7.58
9843,9.32
9854,10.24
9866,10.34
9878,9.88
9890,9.22
9902,8.54
9914,7.76
9926,6.67
9938,5.08
9950,2.95
9962,0.44
9974,-2.13
9986,-4.46
9998,-6.32
10010,-7.75
10022,-8.92
10033,-10.05
10044,-11.31
10056,-12.75
10068,-14.34
10080,-15.99
10092,-17.61
10104,-19.09
10116,-20.28
10128,-20.92
10140,-20.57
10152,-18.86
10164,-15.58
10176,-10.91
10188,-5.37
10200,0.31
10212,5.42
10223,9.47
10234,12.27
10246,13.85
10258,14.33
10270,13.87
10282,12.65
10294,10.94
10306,9.15
10318,7.71
10330,6.96
10342,6.99
10354,7.66
10366,8.63
10378,9.54
10390,10.12
10402,10.29
10413,10.05
10424,9.5
10436,8.74
10448,7.87
10460,6.96
10472,6.03
10484,5.07
10496,4.01
10508,2.76
10520,1.35
10532,-0.2
10544,-1.83
10556,-3.52
10568,-5.28
10580,-7.18
10592,-9.25
10603,-11.5
10614,-13.83
10626,-16.15
10638,-18.36
10650,-20.32
10662,-21.83
10674,-22.6
10686,-22.26
10698,-20.51
10710,-17.24
10722,-12.66
10734,-7.24
10746,-1.56
10758,3.86
10770,8.59
10782,12.38
10793,15.05
10804,16.4
10816,16.32
10828,14.87
10840,12.39
10852,9.54
10864,7.09
10876,5.64
10888,5.45
10900,6.32
10912,7.75
10924,9.18
10936,10.25
10948,10.86
10960,11.2
10972,11.5
10983,11.82
10994,11.99
11006,11.72
11018,10.75
11030,9.0
11042,6.64
11054,3.97
11066,1.3
11078,-1.16
11090,-3.38
11102,-5.44
11114,-7.51
11126,-9.7
11138,-12.12
11150,-14.81
11162,-17.78
11173,-20.91
11184,-23.91
11196,-26.22
11208,-27.2
11220,-26.25
11232,-23.07
11244,-17.87
11256,-11.33
11268,-4.44
11280,1.91
11292,7.06
11304,10.82
11316,13.28
11328,14.56
11340,14.72
11352,13.67
11363,11.44
11374,8.32
11386,4.98
11398,2.2
11410,0.62
11422,0.45
11434,1.42
11446,3.03
11458,4.74
11470,6.24
11482,7.42
11494,8.31
11506,8.92
11518,9.13
11530,8.78
11542,7.77
11553,6.13
11564,4.04
11576,1.76
11588,-0.54
11600,-2.73
11612,-4.75
11624,-6.58
11636,-8.23
11648,-9.81
11660,-11.52
11672,-13.55
11684,-16.01
11696,-18.85
11708,-21.79
11720,-24.35
11732,-25.98
11743,-26.17
11754,-24.61
11766,-21.25
11778,-16.33
11790,-10.34
11802,-3.88
11814,2.38
11826,7.91
11838,12.37
11850,15.58
11862,17.5
11874,18.16
11886,17.6
11898,16.0
11910,13.7
11922,11.24
11933,9.2
11944,8.08
11956,8.09
11968,9.05
11980,10.5
11992,11.9
12004,12.83
12016,13.14
12028,12.87
12040,12.21
12052,11.28
12064,10.12
12076,8.63
12088,6.71
12100,4.29
12112,1.48
12123,-1.46
12134,-4.25
12146,-6.66
12158,-8.58
12170,-10.02
12182,-11.1
12194,-11.99
12206,-12.96
12218,-14.26
12230,-16.09
12242,-18.52
12254,-21.32
12266,-23.93
12278,-25.6
12290,-25.53
12302,-23.24
12313,-18.73
12324,-12.5
12336,-5.36
12348,1.81
12360,8.24
12372,13.53
12384,17.44
12396,19.91
12408,20.88
12420,20.4
12432,18.55
12444,15.63
12456,12.16
12468,8.75
12480,6.05
12492,4.5
12503,4.23
12514,5.03
12526,6.46
12538,7.98
12550,9.17
12562,9.88
12574,10.15
12586,10.11
12598,9.84
12610,9.3
12622,8.29
12634,6.64
12646,4.4
12658,1.76
12670,-0.82
12682,-2.98
12693,-4.52
12704,-5.55
12716,-6.33
12728,-7.12
12740,-8.11
12752,-9.31
12764,-10.73
12776,-12.43
12788,-14.57
12800,-17.25
12812,-20.25
12824,-23.02
12836,-24.69
12848,-24.45
12860,-21.89
12872,-17.22
12883,-11.1
12894,-4.44
12906,1.97
12918,7.68
12930,12.49
12942,16.31
12954,19.01
12966,20.27
12978,19.86
12990,17.88
13002,14.8
13014,11.46
13026,8.73
13038,7.25
13050,7.15
13062,8.14
13073,9.59
13084,10.85
13096,11.48
13108,11.34
13120,10.58
13132,9.45
13144,8.18
13156,6.91
13168,5.71
13180,4.56
13192,3.48
13204,2.45
13216,1.48
13228,0.57
13240,-0.33
13252,-1.3
13263,-2.43
13274,-3.82
13286,-5.45
13298,-7.28
13310,-9.22
13322,-11.3
13334,-13.59
13346,-16.19
13358,-19.09
13370,-21.98
13382,-24.24
13394,-25.09
13406,-23.78
13418,-20.01
13430,-14.08
13442,-6.78
13453,0.82
13464,7.73
13476,13.28
13488,17.21
13500,19.54
13512,20.39
13524,19.89
13536,18.16
13548,15.44
13560,12.17
13572,8.91
13584,6.25
13596,4.6
13608,4.12
13620,4.62
13632,5.65
13643,6.8
13654,7.7
13666,8.27
13678,8.58
13690,8.83
13702,9.16
13714,9.55
13726,9.71
13738,9.31
13750,8.0
13762,5.69
13774,2.55
13786,-0.93
13798,-4.24
13810,-6.92
13822,-8.78
13833,-9.87
13844,-10.42
13856,-10.68
13868,-10.89
13880,-11.31
13892,-12.13
13904,-13.51
13916,-15.39
13928,-17.44
13940,-19.02
13952,-19.43
13964,-18.08
13976,-14.79
13988,-9.84
14000,-3.87
14012,2.34
14023,8.2
14034,13.3
14046,17.45
14058,20.43
14070,21.99
14082,21.89
14094,20.13
14106,17.03
14118,13.32
14130,9.88
14142,7.46
14154,6.41
14166,6.59
14178,7.5
14190,8.53
14202,9.21
14213,9.33
14224,8.94
14236,8.19
14248,7.19
14260,6.0
14272,4.58
14284,2.88
14296,0.85
14308,-1.46
14320,-3.91
14332,-6.3
14344,-8.43
14356,-10.16
14368,-11.46
14380,-12.43
14392,-13.34
14403,-14.48
14414,-16.08
14426,-18.23
14438,-20.86
14450,-23.65
14462,-26.2
14474,-27.99
14486,-28.5
14498,-27.26
14510,-24.0
14522,-18.79
14534,-12.0
14546,-4.39
14558,3.22
14570,10.11
14582,15.78
14593,20.0
14604,22.68
14616,23.79
14628,23.29
14640,21.29
14652,18.1
14664,14.35
14676,10.79
14688,8.13
14700,6.82
14712,6.89
14724,8.01
14736,9.63
14748,11.25
14760,12.43
14772,13.04
14783,12.98
14794,12.26
14806,10.91
14818,8.93
14830,6.39
14842,3.42
14854,0.28
14866,-2.77
14878,-5.39
14890,-7.42
14902,-8.8
14914,-9.68
14926,-10.31
14938,-10.97
14950,-11.81
14962,-12.89
14973,-14.33
14984,-16.2
14996,-18.58
15008,-21.33
15020,-23.94
15032,-25.6
15044,-25.4
15056,-22.73
15068,-17.63
15080,-10.87
15092,-3.57
15104,3.23
15116,8.94
15128,13.47
15140,16.93
15152,19.36
15163,20.55
15174,20.25
15186,18.4
15198,15.39
15210,12.03
15222,9.24
15234,7.61
15246,7.21
15258,7.69
15270,8.49
15282,9.2
15294,9.67
15306,9.91
15318,10.02
15330,9.97
15342,9.66
15353,8.93
15364,7.73
15376,6.08
15388,4.1
15400,1.94
15412,-0.29
15424,-2.46
15436,-4.43
15448,-6.1
15460,-7.43
15472,-8.48
15484,-9.46
15496,-10.54
15508,-11.95
15520,-13.83
15532,-16.21
15543,-18.91
15554,-21.49
15566,-23.4
15578,-23.98
15590,-22.8
15602,-19.7
15614,-14.91
15626,-8.95
15638,-2.49
15650,3.86
15662,9.59
15674,14.38
15686,18.0
15698,20.24
15710,21.0
15722,20.35
15733,18.59
15744,16.24
15756,13.93
15768,12.19
15780,11.21
15792,10.92
15804,10.91
15816,10.78
15828,10.24
15840,9.28
15852,8.1
15864,6.97
15876,6.13
15888,5.59
15900,5.25
15912,4.88
15923,4.27
15934,3.31
15946,1.94
15958,0.21
15970,-1.73
15982,-3.69
15994,-5.52
16006,-7.12
16018,-8.54
16030,-9.89
16042,-11.34
16054,-13.05
16066,-15.17
16078,-17.66
16090,-20.3
16102,-22.65
16113,-24.11
16124,-24.11
16136,-22.29
16148,-18.61
16160,-13.46
16172,-7.41
16184,-1.18
16196,4.6
16208,9.5
16220,13.2
16232,15.52
16244,16.31
16256,15.66
16268,13.78
16280,11.15
16292,8.32
16303,5.83
16314,4.0
16326,2.92
16338,2.45
16350,2.4
16362,2.59
16374,2.91
16386,3.25
16398,3.5
16410,3.54
16422,3.27
16434,2.71
16446,1.92
16458,1.0
16470,0.04
16482,-0.91
16493,-1.85
16504,-2.75
16516,-3.61
16528,-4.35
16540,-5.04
16552,-5.81
16564,-6.79
16576,-8.18
16588,-10.1
16600,-12.5
16612,-15.08
16624,-17.34
16636,-18.58
16648,-18.19
16660,-15.8
16672,-11.45
16683,-5.65
16694,0.86
16706,7.31
16718,13.15
16730,18.09
16742,21.94
16754,24.55
16766,25.75
16778,25.42
16790,23.57
16802,20.56
16814,16.94
16826,13.46
16838,10.71
16850,9.02
16862,8.29
16873,8.21
16884,8.29
16896,8.19
16908,7.87
16920,7.45
16932,7.13
16944,6.87
16956,6.38
16968,5.24
16980,3.12
16992,0.11
17004,-3.35
17016,-6.58
17028,-9.15
17040,-10.99
17052,-12.48
17063,-14.13
17074,-16.35
17086,-19.24
17098,-22.5
17110,-25.64
17122,-28.05
17134,-29.21
17146,-28.7
17158,-26.29
17170,-22.01
17182,-16.23
17194,-9.58
17206,-2.86
17218,3.26
17230,8.43
17242,12.53
17253,15.61
17264,17.72
17276,18.82
17288,18.87
17300,17.88
17312,16.09
17324,13.89
17336,11.8
17348,10.22
17360,9.33
17372,9.15
17384,9.44
17396,9.94
17408,10.39
17420,10.55
17432,10.3
17443,9.59
17454,8.47
17466,6.91
17478,5.0
17490,2.77
17502,0.33
17514,-2.18
17526,-4.61
17538,-6.86
17550,-8.95
17562,-10.94
17574,-13.01
17586,-15.28
17598,-17.94
17610,-20.93
17622,-24.11
17633,-27.08
17644,-29.23
17656,-29.86
17668,-28.35
17680,-24.44
17692,-18.38
17704,-10.94
17716,-3.14
17728,4.03
17740,9.87
17752,14.1
17764,16.66
17776,17.64
17788,17.14
17800,15.36
17812,12.61
17823,9.45
17834,6.5
17846,4.35
17858,3.35
17870,3.5
17882,4.55
17894,6.05
17906,7.63
17918,9.01
17930,9.97
17942,10.39
17954,10.16
17966,9.24
17978,7.59
17990,5.28
18002,2.41
18013,-0.81
18024,-4.17
18036,-7.49
18048,-10.57
18060,-13.32
18072,-15.68
18084,-17.69
18096,-19.48
18108,-21.27
18120,-23.28
18132,-25.57
18144,-27.86
18156,-29.61
18168,-30.07
18180,-28.54
18192,-24.69
18203,-18.7
18214,-11.21
18226,-3.22
18238,4.36
18250,10.77
18262,15.6
18274,18.64
18286,19.91
18298,19.51
18310,17.77
18322,15.17
18334,12.27
18346,9.77
18358,8.11
18370,7.53
18382,7.98
18393,9.17
18404,10.74
18416,12.35
18428,13.82
18440,14.98
18452,15.87
18464,16.42
18476,16.51
18488,16.01
18500,14.77
18512,12.8
18524,10.24
18536,7.4
18548,4.57
18560,2.01
18572,-0.24
18583,-2.26
18594,-4.2
18606,-6.3
18618,-8.68
18630,-11.47
18642,-14.66
18654,-18.1
18666,-21.36
18678,-23.82
18690,-24.74
18702,-23.54
18714,-20.08
18726,-14.69
18738,-8.14
18750,-1.38
18762,4.85
18773,10.08
18784,14.13
18796,16.96
18808,18.45
18820,18.41
18832,16.73
18844,13.62
18856,9.63
18868,5.65
18880,2.53
18892,0.83
18904,0.62
18916,1.52
18928,2.9
18940,4.28
18952,5.35
18963,5.99
18974,6.23
18986,6.0
18998,5.21
19010,3.81
19022,1.9
19034,-0.24
19046,-2.23
19058,-3.83
19070,-4.98
19082,-5.85
19094,-6.7
19106,-7.71
19118,-8.93
19130,-10.31
19142,-11.87
19153,-13.69
19164,-15.95
19176,-18.74
19188,-21.88
19200,-24.87
19212,-27.04
19224,-27.68
19236,-26.36
19248,-23.05
19260,-18.03
19272,-11.91
19284,-5.33
19296,1.06
19308,6.71
19320,11.2
19332,14.17
19343,15.45
19354,15.04
19366,13.22
19378,10.49
19390,7.51
19402,4.95
19414,3.32
19426,2.79
19438,3.24
19450,4.31
19462,5.57
19474,6.76
19486,7.79
19498,8.67
19510,9.45
19522,10.03
19533,10.25
19544,9.94
19556,9.15
19568,8.09
19580,7.09
19592,6.4
19604,6.09
19616,6.04
19628,6.08
19640,6.1
19652,6.04
19664,5.83
19676,5.27
19688,4.19
19700,2.55
19712,0.68
19723,-0.69
19734,-0.69
19746,1.36
19758,5.56
19770,11.39
19782,17.94
19794,24.27
19806,29.71
19818,33.96
19830,36.88
19842,38.39
19854,38.33
19866,36.5
19878,32.9
19890,27.9
19902,22.18
19913,16.56
19924,11.72
19936,7.95
19948,5.15
19960,2.91
19972,0.82
19984,-1.39
19996,-3.76
20008,-6.2
20020,-8.65
20032,-11.13
20044,-13.75
20056,-16.58
20068,-19.49
20080,-22.27
20092,-24.69
20103,-26.64
20114,-28.24
20126,-29.76
20138,-31.33
20150,-33.09
20162,-35.0
20174,-36.99
20186,-39.01
20198,-41.01
20210,-42.66
20222,-43.4
20234,-42.44
20246,-39.08
20258,-33.14
20270,-25.01
20282,-15.58
20293,-5.99
20304,2.74
20316,9.99
20328,15.52
20340,19.39
20352,21.85
20364,23.12
20376,23.5
20388,23.34
20400,22.99
20412,22.77
20424,22.85
20436,23.19
20448,23.64
20460,24.14
20472,24.78
20483,25.9
20494,27.96
20506,31.26
20518,35.7
20530,40.57
20542,44.65
20554,46.46
20566,44.92
20578,39.46
20590,30.36
20602,18.49
20614,5.03
20626,-8.87
20638,-22.29
20650,-34.65
20662,-45.65
20673,-55.13
20684,-63.18
20696,-69.88
20708,-75.3
20720,-79.39
20732,-81.98
20744,-82.67
20756,-81.1
20768,-77.09
20780,-70.59
20792,-61.94
20804,-51.67
20816,-40.49
20828,-29.17
20840,-18.54
20852,-9.35
20863,-2.28
20874,2.32
20886,4.53
20898,4.83
20910,4.06
20922,3.12
20934,2.74
20946,3.28
20958,4.77
20970,6.94
20982,9.35
20994,11.69
