seconds,BVP
4,16.27
16,16.19
28,15.83
40,15.13
52,14.1
64,12.84
76,11.46
88,10.04
99,8.6
110,7.05
122,5.3
134,3.28
146,1.0
158,-1.42
170,-3.84
182,-6.15
194,-8.33
206,-10.46
218,-12.65
230,-15.0
242,-17.54
254,-20.24
266,-23.0
278,-25.68
289,-28.04
300,-29.74
312,-30.3
324,-29.3
336,-26.53
348,-22.09
360,-16.45
372,-10.25
384,-4.11
396,1.55
408,6.51
420,10.69
432,13.97
444,16.18
456,17.15
468,16.84
479,15.51
490,13.63
502,11.75
514,10.35
526,9.66
538,9.68
550,10.28
562,11.29
574,12.55
586,13.94
598,15.25
610,16.25
622,16.71
634,16.49
646,15.62
658,14.3
669,12.78
680,11.29
692,9.93
704,8.64
716,7.29
728,5.76
740,3.97
752,1.97
764,-0.15
776,-2.26
788,-4.29
800,-6.21
812,-8.06
824,-9.93
836,-11.95
848,-14.25
859,-16.84
870,-19.6
882,-22.13
894,-23.92
906,-24.42
918,-23.21
930,-20.19
942,-15.59
954,-9.92
966,-3.78
978,2.21
990,7.61
1002,12.11
1014,15.57
1026,17.94
1038,19.24
1049,19.58
1060,19.12
1072,18.08
1084,16.76
1096,15.46
1108,14.42
1120,13.8
1132,13.62
1144,13.77
1156,14.1
1168,14.48
1180,14.82
1192,15.07
1204,15.18
1216,15.06
1228,14.6
1239,13.75
1250,12.49
1262,10.89
1274,9.06
1286,7.09
1298,4.99
1310,2.74
1322,0.35
1334,-2.16
1346,-4.68
1358,-7.09
1370,-9.38
1382,-11.65
1394,-14.04
1406,-16.74
1418,-19.83
1429,-23.28
1440,-26.9
1452,-30.39
1464,-33.31
1476,-35.18
1488,-35.52
1500,-34.02
1512,-30.6
1524,-25.52
1536,-19.28
1548,-12.54
1560,-5.9
1572,0.15
1584,5.35
1596,9.55
1608,12.7
1619,14.83
1630,16.01
1642,16.39
1654,16.2
1666,15.71
1678,15.14
1690,14.68
1702,14.43
1714,14.37
1726,14.49
1738,14.74
1750,15.08
1762,15.47
1774,15.86
1786,16.18
1798,16.39
1809,16.43
1820,16.24
1832,15.76
1844,14.93
1856,13.71
1868,12.13
1880,10.27
1892,8.28
1904,6.28
1916,4.33
1928,2.38
1940,0.35
1952,-1.85
1964,-4.23
1976,-6.72
1988,-9.16
1999,-11.45
2010,-13.56
2022,-15.57
2034,-17.62
2046,-19.89
2058,-22.51
2070,-25.54
2082,-28.91
2094,-32.45
2106,-35.75
2118,-38.3
2130,-39.48
2142,-38.81
2154,-36.04
2166,-31.31
2178,-25.09
2189,-18.03
2200,-10.77
2212,-3.81
2224,2.51
2236,8.01
2248,12.52
2260,15.95
2272,18.24
2284,19.49
2296,19.93
2308,19.84
2320,19.5
2332,19.12
2344,18.82
2356,18.68
2368,18.79
2379,19.19
2390,19.86
2402,20.68
2414,21.5
2426,22.15
2438,22.52
2450,22.63
2462,22.49
2474,22.17
2486,21.63
2498,20.78
2510,19.55
2522,17.9
2534,15.92
2546,13.78
2558,11.67
2569,9.72
2580,7.98
2592,6.38
2604,4.79
2616,3.05
2628,1.09
2640,-1.09
2652,-3.37
2664,-5.6
2676,-7.67
2688,-9.53
2700,-11.23
2712,-12.9
2724,-14.66
2736,-16.63
2748,-18.92
2759,-21.58
2770,-24.58
2782,-27.68
2794,-30.5
2806,-32.46
2818,-32.95
2830,-31.52
2842,-28.07
2854,-22.88
2866,-16.55
2878,-9.78
2890,-3.18
2902,2.8
2914,7.92
2926,11.99
2938,14.93
2949,16.69
2960,17.36
2972,17.16
2984,16.45
2996,15.62
3008,14.96
3020,14.6
3032,14.56
3044,14.77
3056,15.14
3068,15.63
3080,16.23
3092,16.95
3104,17.77
3116,18.62
3128,19.38
3139,19.89
3150,20.0
3162,19.6
3174,18.68
3186,17.3
3198,15.57
3210,13.65
3222,11.64
3234,9.67
3246,7.8
3258,6.06
3270,4.45
3282,2.9
3294,1.32
3306,-0.37
3318,-2.22
3329,-4.18
3340,-6.2
3352,-8.24
3364,-10.33
3376,-12.61
3388,-15.23
3400,-18.24
3412,-21.54
3424,-24.8
3436,-27.55
3448,-29.25
3460,-29.49
3472,-28.05
3484,-24.99
3496,-20.59
3508,-15.32
3519,-9.7
3530,-4.22
3542,0.74
3554,4.93
3566,8.2
3578,10.46
3590,11.7
3602,11.98
3614,11.48
3626,10.48
3638,9.29
3650,8.2
3662,7.37
3674,6.84
3686,6.54
3698,6.44
3709,6.5
3720,6.77
3732,7.3
3744,8.04
3756,8.88
3768,9.63
3780,10.12
3792,10.2
3804,9.81
3816,8.9
3828,7.52
3840,5.8
3852,3.87
3864,1.93
3876,0.07
3888,-1.69
3899,-3.48
3910,-5.45
3922,-7.66
3934,-10.08
3946,-12.53
3958,-14.78
3970,-16.68
3982,-18.19
3994,-19.38
4006,-20.38
4018,-21.3
4030,-22.26
4042,-23.37
4054,-24.8
4066,-26.63
4078,-28.84
4089,-31.21
4100,-33.26
4112,-34.37
4124,-33.98
4136,-31.78
4148,-27.78
4160,-22.39
4172,-16.25
4184,-10.04
4196,-4.3
4208,0.68
4220,4.8
4232,8.12
4244,10.69
4256,12.5
4268,13.48
4279,13.63
4290,13.03
4302,11.94
4314,10.71
4326,9.72
4338,9.26
4350,9.41
4362,10.12
4374,11.2
4386,12.45
4398,13.69
4410,14.79
4422,15.66
4434,16.2
4446,16.32
4458,16.0
4469,15.25
4480,14.19
4492,12.93
4504,11.58
4516,10.16
4528,8.67
4540,7.06
4552,5.34
4564,3.53
4576,1.69
4588,-0.14
4600,-1.97
4612,-3.84
4624,-5.76
4636,-7.72
4648,-9.64
4659,-11.43
4670,-13.02
4682,-14.47
4694,-15.94
4706,-17.68
4718,-19.91
4730,-22.7
4742,-25.82
4754,-28.83
4766,-31.15
4778,-32.27
4790,-31.88
4802,-29.96
4814,-26.67
4826,-22.31
4838,-17.16
4849,-11.59
4860,-5.96
4872,-0.69
4884,3.86
4896,7.46
4908,10.08
4920,11.81
4932,12.85
4944,13.31
4956,13.27
4968,12.78
4980,12.02
4992,11.24
5004,10.77
5016,10.85
5028,11.52
5039,12.61
5050,13.84
5062,14.97
5074,15.88
5086,16.56
5098,17.04
5110,17.31
5122,17.28
5134,16.87
5146,16.08
5158,14.95
5170,13.58
5182,12.08
5194,10.49
5206,8.82
5218,7.06
5229,5.2
5240,3.24
5252,1.22
5264,-0.82
5276,-2.84
5288,-4.78
5300,-6.6
5312,-8.3
5324,-9.9
5336,-11.45
5348,-13.05
5360,-14.8
5372,-16.84
5384,-19.24
5396,-22.02
5408,-25.03
5419,-27.96
5430,-30.29
5442,-31.49
5454,-31.13
5466,-28.99
5478,-25.18
5490,-20.11
5502,-14.34
5514,-8.45
5526,-2.93
5538,1.92
5550,5.96
5562,9.15
5574,11.49
5586,12.96
5598,13.57
5609,13.39
5620,12.58
5632,11.45
5644,10.33
5656,9.51
5668,9.15
5680,9.26
5692,9.77
5704,10.6
5716,11.63
5728,12.74
5740,13.77
5752,14.56
5764,14.94
5776,14.82
5788,14.21
5799,13.19
5810,11.89
5822,10.4
5834,8.8
5846,7.14
5858,5.46
5870,3.81
5882,2.18
5894,0.54
5906,-1.16
5918,-2.96
5930,-4.88
5942,-6.9
5954,-8.98
5966,-11.14
5978,-13.43
5989,-15.91
6000,-18.59
6012,-21.31
6024,-23.77
6036,-25.5
6048,-25.99
6060,-24.88
6072,-22.05
6084,-17.69
6096,-12.26
6108,-6.38
6120,-0.66
6132,4.41
6144,8.53
6156,11.58
6168,13.56
6179,14.56
6190,14.74
6202,14.25
6214,13.28
6226,12.01
6238,10.63
6250,9.34
6262,8.32
6274,7.71
6286,7.53
6298,7.72
6310,8.1
6322,8.46
6334,8.65
6346,8.63
6358,8.42
6369,8.06
6380,7.55
6392,6.83
6404,5.85
6416,4.61
6428,3.15
6440,1.53
6452,-0.21
6464,-2.06
6476,-4.06
6488,-6.18
6500,-8.38
6512,-10.54
6524,-12.6
6536,-14.55
6548,-16.46
6559,-18.52
6570,-20.87
6582,-23.61
6594,-26.64
6606,-29.66
6618,-32.17
6630,-33.57
6642,-33.33
6654,-31.2
6666,-27.26
6678,-21.94
6690,-15.83
6702,-9.55
6714,-3.58
6726,1.78
6738,6.38
6749,10.1
6760,12.85
6772,14.58
6784,15.32
6796,15.21
6808,14.49
6820,13.48
6832,12.52
6844,11.83
6856,11.54
6868,11.64
6880,12.05
6892,12.64
6904,13.31
6916,13.93
6928,14.38
6939,14.54
6950,14.29
6962,13.59
6974,12.48
6986,11.04
6998,9.42
7010,7.71
7022,5.95
7034,4.12
7046,2.19
7058,0.13
7070,-2.03
7082,-4.17
7094,-6.16
7106,-7.95
7118,-9.53
7129,-11.02
7140,-12.61
7152,-14.49
7164,-16.82
7176,-19.56
7188,-22.51
7200,-25.24
7212,-27.23
7224,-27.91
7236,-26.87
7248,-23.98
7260,-19.38
7272,-13.56
7284,-7.2
7296,-0.96
7308,4.6
7319,9.2
7330,12.78
7342,15.4
7354,17.16
7366,18.13
7378,18.32
7390,17.85
7402,16.9
7414,15.8
7426,14.88
7438,14.39
7450,14.41
7462,14.86
7474,15.58
7486,16.38
7498,17.17
7509,17.9
7520,18.53
7532,18.96
7544,19.08
7556,18.73
7568,17.87
7580,16.57
7592,15.0
7604,13.34
7616,11.74
7628,10.22
7640,8.68
7652,7.0
7664,5.08
7676,2.95
7688,0.7
7699,-1.47
7710,-3.4
7722,-5.01
7734,-6.33
7746,-7.51
7758,-8.81
7770,-10.49
7782,-12.72
7794,-15.51
7806,-18.64
7818,-21.69
7830,-24.13
7842,-25.43
7854,-25.2
7866,-23.26
7878,-19.71
7889,-14.89
7900,-9.27
7912,-3.41
7924,2.19
7936,7.15
7948,11.18
7960,14.15
7972,16.0
7984,16.76
7996,16.58
8008,15.72
8020,14.55
8032,13.42
8044,12.67
8056,12.44
8068,12.76
8079,13.46
8090,14.34
8102,15.2
8114,15.9
8126,16.4
8138,16.67
8150,16.72
8162,16.55
8174,16.13
8186,15.4
8198,14.34
8210,12.94
8222,11.28
8234,9.44
8246,7.5
8258,5.5
8269,3.41
8280,1.21
8292,-1.11
8304,-3.47
8316,-5.71
8328,-7.7
8340,-9.36
8352,-10.74
8364,-12.04
8376,-13.5
8388,-15.33
8400,-17.61
8412,-20.2
8424,-22.79
8436,-24.89
8448,-25.98
8459,-25.59
8470,-23.46
8482,-19.65
8494,-14.52
8506,-8.67
8518,-2.79
8530,2.54
8542,6.95
8554,10.26
8566,12.49
8578,13.74
8590,14.13
8602,13.82
8614,13.04
8626,12.04
8638,11.11
8649,10.5
8660,10.37
8672,10.75
8684,11.51
8696,12.44
8708,13.28
8720,13.83
8732,13.99
8744,13.81
8756,13.43
8768,12.99
8780,12.58
8792,12.13
8804,11.49
8816,10.52
8828,9.18
8839,7.55
8850,5.82
8862,4.14
8874,2.6
8886,1.17
8898,-0.24
8910,-1.76
8922,-3.43
8934,-5.26
8946,-7.18
8958,-9.09
8970,-10.95
8982,-12.69
8994,-14.31
9006,-15.84
9018,-17.32
9029,-18.87
9040,-20.61
9052,-22.64
9064,-24.99
9076,-27.49
9088,-29.78
9100,-31.37
9112,-31.73
9124,-30.48
9136,-27.5
9148,-22.98
9160,-17.4
9172,-11.37
9184,-5.51
9196,-0.29
9208,4.1
9219,7.61
9230,10.34
9242,12.34
9254,13.61
9266,14.12
9278,13.89
9290,13.12
9302,12.16
9314,11.43
9326,11.27
9338,11.78
9350,12.81
9362,14.09
9374,15.31
9386,16.28
9398,16.94
9409,17.31
9420,17.43
9432,17.32
9444,16.95
9456,16.29
9468,15.32
9480,14.04
9492,12.52
9504,10.8
9516,8.97
9528,7.06
9540,5.12
9552,3.17
9564,1.23
9576,-0.66
9588,-2.5
9599,-4.27
9610,-5.96
9622,-7.56
9634,-9.05
9646,-10.44
9658,-11.7
9670,-12.83
9682,-13.87
9694,-14.9
9706,-16.06
9718,-17.51
9730,-19.42
9742,-21.84
9754,-24.68
9766,-27.66
9778,-30.35
9789,-32.19
9800,-32.64
9812,-31.33
9824,-28.16
9836,-23.36
9848,-17.45
9860,-11.13
9872,-5.01
9884,0.44
9896,4.98
9908,8.57
9920,11.25
9932,13.08
9944,14.1
9956,14.38
9968,14.03
9979,13.24
9990,12.24
10002,11.25
10014,10.43
10026,9.91
10038,9.72
10050,9.92
10062,10.48
10074,11.37
10086,12.45
10098,13.54
10110,14.41
10122,14.87
10134,14.8
10146,14.18
10158,13.11
10169,11.76
10180,10.29
10192,8.83
10204,7.43
10216,6.03
10228,4.58
10240,3.04
10252,1.43
10264,-0.19
10276,-1.74
10288,-3.22
10300,-4.66
10312,-6.09
10324,-7.5
10336,-8.85
10348,-10.06
10359,-11.08
10370,-12.01
10382,-13.08
10394,-14.54
10406,-16.61
10418,-19.31
10430,-22.39
10442,-25.41
10454,-27.83
10466,-29.09
10478,-28.77
10490,-26.66
10502,-22.82
10514,-17.62
10526,-11.61
10538,-5.47
10549,0.21
10560,5.04
10572,8.84
10584,11.62
10596,13.44
10608,14.35
10620,14.36
10632,13.56
10644,12.18
10656,10.6
10668,9.28
10680,8.55
10692,8.51
10704,8.99
10716,9.67
10728,10.26
10739,10.63
10750,10.85
10762,11.04
10774,11.28
10786,11.5
10798,11.51
10810,11.11
10822,10.24
10834,9.0
10846,7.57
10858,6.11
10870,4.68
10882,3.2
10894,1.57
10906,-0.29
10918,-2.37
10929,-4.58
10940,-6.83
10952,-9.04
10964,-11.17
10976,-13.26
10988,-15.34
11000,-17.49
11012,-19.79
11024,-22.3
11036,-25.07
11048,-28.05
11060,-31.1
11072,-33.93
11084,-36.09
11096,-37.06
11108,-36.4
11119,-33.89
11130,-29.6
11142,-23.93
11154,-17.48
11166,-10.9
11178,-4.72
11190,0.73
11202,5.3
11214,8.94
11226,11.65
11238,13.41
11250,14.23
11262,14.19
11274,13.48
11286,12.39
11298,11.28
11309,10.48
11320,10.22
11332,10.56
11344,11.45
11356,12.64
11368,13.85
11380,14.84
11392,15.48
11404,15.78
11416,15.85
11428,15.83
11440,15.76
11452,15.52
11464,14.91
11476,13.76
11488,12.01
11499,9.81
11510,7.39
11522,5.0
11534,2.8
11546,0.8
11558,-1.1
11570,-3.0
11582,-4.97
11594,-7.0
11606,-8.99
11618,-10.89
11630,-12.66
11642,-14.37
11654,-16.13
11666,-18.08
11678,-20.32
11689,-22.97
11700,-26.03
11712,-29.41
11724,-32.88
11736,-36.02
11748,-38.28
11760,-39.06
11772,-37.86
11784,-34.46
11796,-29.03
11808,-22.13
11820,-14.51
11832,-6.96
11844,-0.09
11856,5.75
11868,10.43
11879,13.99
11890,16.49
11902,18.03
11914,18.73
11926,18.7
11938,18.15
11950,17.31
11962,16.45
11974,15.85
11986,15.7
11998,16.06
12010,16.88
12022,17.98
12034,19.12
12046,20.11
12058,20.84
12069,21.31
12080,21.56
12092,21.6
12104,21.31
12116,20.52
12128,19.08
12140,17.01
12152,14.51
12164,11.91
12176,9.51
12188,7.45
12200,5.66
12212,3.9
12224,1.99
12236,-0.16
12248,-2.45
12259,-4.73
12270,-6.83
12282,-8.7
12294,-10.38
12306,-11.98
12318,-13.62
12330,-15.38
12342,-17.37
12354,-19.68
12366,-22.4
12378,-25.5
12390,-28.78
12402,-31.81
12414,-34.0
12426,-34.71
12438,-33.49
12449,-30.19
12460,-25.0
12472,-18.46
12484,-11.24
12496,-4.0
12508,2.76
12520,8.68
12532,13.58
12544,17.31
12556,19.8
12568,21.03
12580,21.13
12592,20.36
12604,19.12
12616,17.77
12628,16.66
12639,16.0
12650,15.89
12662,16.3
12674,17.2
12686,18.45
12698,19.95
12710,21.51
12722,22.96
12734,24.1
12746,24.78
12758,24.84
12770,24.21
12782,22.91
12794,21.04
12806,18.81
12818,16.45
12829,14.14
12840,11.97
12852,9.93
12864,7.94
12876,5.89
12888,3.72
12900,1.39
12912,-1.06
12924,-3.53
12936,-5.9
12948,-8.05
12960,-9.89
12972,-11.48
12984,-13.0
12996,-14.75
13008,-17.03
13019,-19.98
13030,-23.46
13042,-27.02
13054,-30.0
13066,-31.69
13078,-31.53
13090,-29.26
13102,-24.96
13114,-19.04
13126,-12.15
13138,-5.01
13150,1.69
13162,7.4
13174,11.84
13186,14.92
13198,16.76
13209,17.6
13220,17.67
13232,17.19
13244,16.32
13256,15.23
13268,14.11
13280,13.22
13292,12.78
13304,12.92
13316,13.64
13328,14.82
13340,16.21
13352,17.59
13364,18.74
13376,19.51
13388,19.78
13399,19.43
13410,18.44
13422,16.81
13434,14.69
13446,12.25
13458,9.74
13470,7.33
13482,5.09
13494,3.01
13506,0.98
13518,-1.12
13530,-3.37
13542,-5.83
13554,-8.46
13566,-11.21
13578,-14.02
13589,-16.91
13600,-19.89
13612,-22.93
13624,-25.86
13636,-28.32
13648,-29.81
13660,-29.85
13672,-28.14
13684,-24.71
13696,-19.9
13708,-14.25
13720,-8.32
13732,-2.6
13744,2.56
13756,6.96
13768,10.43
13779,12.87
13790,14.23
13802,14.57
13814,14.05
13826,12.92
13838,11.49
13850,10.06
13862,8.92
13874,8.3
13886,8.28
13898,8.83
13910,9.78
13922,10.86
13934,11.77
13946,12.32
13958,12.43
13969,12.13
13980,11.55
13992,10.77
14004,9.83
14016,8.65
14028,7.15
14040,5.22
14052,2.85
14064,0.11
14076,-2.82
14088,-5.7
14100,-8.34
14112,-10.61
14124,-12.53
14136,-14.27
14148,-16.11
14159,-18.34
14170,-21.17
14182,-24.6
14194,-28.37
14206,-32.04
14218,-34.96
14230,-36.56
14242,-36.38
14254,-34.22
14266,-30.16
14278,-24.53
14290,-17.85
14302,-10.75
14314,-3.87
14326,2.29
14338,7.38
14349,11.32
14360,14.17
14372,16.08
14384,17.22
14396,17.67
14408,17.53
14420,16.93
14432,16.08
14444,15.28
14456,14.81
14468,14.84
14480,15.36
14492,16.23
14504,17.21
14516,18.13
14528,18.86
14539,19.36
14550,19.6
14562,19.48
14574,18.93
14586,17.87
14598,16.31
14610,14.38
14622,12.27
14634,10.12
14646,8.0
14658,5.86
14670,3.57
14682,1.03
14694,-1.78
14706,-4.75
14718,-7.69
14729,-10.44
14740,-12.9
14752,-15.14
14764,-17.32
14776,-19.66
14788,-22.32
14800,-25.28
14812,-28.36
14824,-31.11
14836,-33.02
14848,-33.58
14860,-32.43
14872,-29.46
14884,-24.83
14896,-18.93
14908,-12.26
14919,-5.39
14930,1.15
14942,6.94
14954,11.67
14966,15.16
14978,17.37
14990,18.4
15002,18.52
15014,18.08
15026,17.46
15038,16.98
15050,16.81
15062,16.99
15074,17.42
15086,17.99
15098,18.63
15109,19.32
15120,20.07
15132,20.87
15144,21.68
15156,22.35
15168,22.72
15180,22.6
15192,21.88
15204,20.57
15216,18.8
15228,16.77
15240,14.68
15252,12.65
15264,10.68
15276,8.64
15288,6.48
15299,4.18
15310,1.84
15322,-0.42
15334,-2.51
15346,-4.43
15358,-6.21
15370,-7.9
15382,-9.47
15394,-10.9
15406,-12.22
15418,-13.61
15430,-15.33
15442,-17.57
15454,-20.33
15466,-23.27
15478,-25.8
15489,-27.24
15500,-27.0
15512,-24.83
15524,-20.82
15536,-15.35
15548,-9.03
15560,-2.52
15572,3.55
15584,8.74
15596,12.8
15608,15.66
15620,17.38
15632,18.09
15644,17.93
15656,17.08
15668,15.73
15679,14.2
15690,12.81
15702,11.86
15714,11.5
15726,11.72
15738,12.36
15750,13.16
15762,13.91
15774,14.49
15786,14.9
15798,15.17
15810,15.32
15822,15.32
15834,15.06
15846,14.43
15858,13.4
15869,12.05
15880,10.55
15892,9.07
15904,7.65
15916,6.23
15928,4.66
15940,2.85
15952,0.82
15964,-1.25
15976,-3.17
15988,-4.83
16000,-6.24
16012,-7.6
16024,-9.13
16036,-10.98
16048,-13.25
16059,-15.9
16070,-18.79
16082,-21.72
16094,-24.35
16106,-26.3
16118,-27.09
16130,-26.39
16142,-24.03
16154,-20.14
16166,-15.11
16178,-9.51
16190,-3.91
16202,1.22
16214,5.57
16226,8.92
16238,11.22
16249,12.47
16260,12.77
16272,12.28
16284,11.25
16296,9.96
16308,8.66
16320,7.6
16332,6.94
16344,6.79
16356,7.16
16368,8.01
16380,9.15
16392,10.35
16404,11.33
16416,11.91
16428,12.03
16439,11.77
16450,11.24
16462,10.5
16474,9.54
16486,8.27
16498,6.67
16510,4.79
16522,2.81
16534,0.96
16546,-0.65
16558,-2.03
16570,-3.34
16582,-4.79
16594,-6.5
16606,-8.47
16618,-10.53
16629,-12.5
16640,-14.25
16652,-15.77
16664,-17.16
16676,-18.56
16688,-20.15
16700,-22.07
16712,-24.38
16724,-27.05
16736,-29.84
16748,-32.34
16760,-33.98
16772,-34.18
16784,-32.57
16796,-29.13
16808,-24.23
16819,-18.49
16830,-12.58
16842,-6.97
16854,-1.9
16866,2.59
16878,6.47
16890,9.65
16902,11.94
16914,13.19
16926,13.43
16938,12.89
16950,12.0
16962,11.22
16974,10.87
16986,11.07
16998,11.7
17009,12.54
17020,13.34
17032,13.97
17044,14.42
17056,14.73
17068,14.95
17080,15.05
17092,14.98
17104,14.65
17116,14.06
17128,13.22
17140,12.2
17152,11.02
17164,9.65
17176,8.05
17188,6.21
17199,4.24
17210,2.27
17222,0.47
17234,-1.13
17246,-2.59
17258,-4.09
17270,-5.79
17282,-7.73
17294,-9.81
17306,-11.81
17318,-13.55
17330,-14.95
17342,-16.1
17354,-17.2
17366,-18.52
17378,-20.21
17389,-22.36
17400,-24.86
17412,-27.45
17424,-29.73
17436,-31.23
17448,-31.45
17460,-30.03
17472,-26.88
17484,-22.2
17496,-16.48
17508,-10.36
17520,-4.49
17532,0.65
17544,4.81
17556,7.92
17568,10.08
17579,11.42
17590,12.08
17602,12.17
17614,11.82
17626,11.17
17638,10.4
17650,9.76
17662,9.5
17674,9.79
17686,10.67
17698,11.98
17710,13.45
17722,14.76
17734,15.68
17746,16.12
17758,16.14
17769,15.86
17780,15.43
17792,14.9
17804,14.24
17816,13.34
17828,12.12
17840,10.57
17852,8.75
17864,6.83
17876,4.97
17888,3.3
17900,1.8
17912,0.41
17924,-1.0
17936,-2.52
17948,-4.16
17959,-5.86
17970,-7.52
17982,-9.04
17994,-10.37
18006,-11.53
18018,-12.64
18030,-13.87
18042,-15.46
18054,-17.57
18066,-20.25
18078,-23.3
18090,-26.31
18102,-28.72
18114,-29.96
18126,-29.63
18138,-27.55
18149,-23.83
18160,-18.81
18172,-12.95
18184,-6.79
18196,-0.85
18208,4.41
18220,8.66
18232,11.72
18244,13.57
18256,14.35
18268,14.26
18280,13.56
18292,12.51
18304,11.32
18316,10.18
18328,9.29
18339,8.77
18350,8.73
18362,9.19
18374,10.05
18386,11.13
18398,12.24
18410,13.2
18422,13.84
18434,14.08
18446,13.84
18458,13.12
18470,11.93
18482,10.38
18494,8.58
18506,6.65
18518,4.67
18529,2.65
18540,0.61
18552,-1.44
18564,-3.43
18576,-5.28
18588,-7.0
18600,-8.64
18612,-10.34
18624,-12.22
18636,-14.38
18648,-16.81
18660,-19.49
18672,-22.4
18684,-25.44
18696,-28.4
18708,-30.89
18719,-32.36
18730,-32.27
18742,-30.31
18754,-26.51
18766,-21.25
18778,-15.13
18790,-8.79
18802,-2.75
18814,2.62
18826,7.07
18838,10.43
18850,12.59
18862,13.56
18874,13.44
18886,12.5
18898,11.06
18909,9.5
18920,8.15
18932,7.23
18944,6.87
18956,7.05
18968,7.65
18980,8.49
18992,9.37
19004,10.11
19016,10.58
19028,10.67
19040,10.32
19052,9.54
19064,8.39
19076,6.98
19088,5.45
19099,3.84
19110,2.15
19122,0.29
19134,-1.86
19146,-4.3
19158,-6.96
19170,-9.64
19182,-12.16
19194,-14.38
19206,-16.32
19218,-18.12
19230,-20.05
19242,-22.34
19254,-25.13
19266,-28.34
19278,-31.63
19289,-34.5
19300,-36.35
19312,-36.66
19324,-35.11
19336,-31.68
19348,-26.61
19360,-20.38
19372,-13.53
19384,-6.61
19396,-0.07
19408,5.74
19420,10.58
19432,14.26
19444,16.69
19456,17.86
19468,17.9
19479,17.06
19490,15.68
19502,14.14
19514,12.76
19526,11.76
19538,11.26
19550,11.26
19562,11.76
19574,12.66
19586,13.84
19598,15.12
19610,16.25
19622,16.99
19634,17.18
19646,16.77
19658,15.81
19669,14.4
19680,12.63
19692,10.59
19704,8.3
19716,5.79
19728,3.15
19740,0.45
19752,-2.21
19764,-4.75
19776,-7.15
19788,-9.44
19800,-11.71
19812,-14.06
19824,-16.62
19836,-19.47
19848,-22.63
19859,-25.99
19870,-29.24
19882,-31.89
19894,-33.32
19906,-32.98
19918,-30.47
19930,-25.75
19942,-19.15
19954,-11.35
19966,-3.18
19978,4.55
19990,11.2
20002,16.44
20014,20.2
20026,22.58
20038,23.79
20049,24.05
20060,23.56
20072,22.53
20084,21.2
20096,19.81
20108,18.63
20120,17.86
20132,17.63
20144,17.94
20156,18.69
20168,19.68
20180,20.7
20192,21.53
20204,22.02
20216,22.1
20228,21.78
20239,21.09
20250,20.07
20262,18.75
20274,17.16
20286,15.31
20298,13.24
20310,11.0
20322,8.65
20334,6.26
20346,3.89
20358,1.6
20370,-0.58
20382,-2.65
20394,-4.64
20406,-6.67
20418,-8.85
20429,-11.34
20440,-14.21
20452,-17.43
20464,-20.8
20476,-23.93
20488,-26.33
20500,-27.44
20512,-26.85
20524,-24.38
20536,-20.11
20548,-14.45
20560,-7.95
20572,-1.23
20584,5.15
20596,10.72
20608,15.19
20619,18.44
20630,20.46
20642,21.39
20654,21.45
20666,20.85
20678,19.83
20690,18.64
20702,17.5
20714,16.66
20726,16.29
20738,16.49
20750,17.22
20762,18.31
20774,19.47
20786,20.41
20798,20.95
20809,21.04
20820,20.77
20832,20.22
20844,19.48
20856,18.53
20868,17.31
20880,15.77
20892,13.92
20904,11.84
20916,9.59
20928,7.2
20940,4.69
20952,2.1
20964,-0.48
20976,-2.92
20988,-5.15
20999,-7.19
