seconds,BVP
10,5.9
22,6.31
34,6.23
46,5.37
58,3.61
70,1.08
82,-1.89
94,-4.91
106,-7.69
118,-10.16
130,-12.46
141,-14.85
152,-17.66
164,-21.09
176,-25.14
188,-29.5
200,-33.56
212,-36.47
224,-37.32
236,-35.39
248,-30.37
260,-22.57
272,-12.8
284,-2.23
296,7.93
308,16.65
320,23.25
331,27.42
342,29.2
354,28.88
366,26.9
378,23.83
390,20.23
402,16.59
414,13.28
426,10.51
438,8.37
450,6.84
462,5.84
474,5.3
486,5.14
498,5.27
510,5.52
521,5.71
532,5.58
544,4.92
556,3.54
568,1.4
580,-1.4
592,-4.67
604,-8.14
616,-11.55
628,-14.72
640,-17.63
652,-20.4
664,-23.29
676,-26.5
688,-30.07
700,-33.7
711,-36.71
722,-38.21
734,-37.32
746,-33.5
758,-26.81
770,-17.88
782,-7.76
794,2.35
806,11.43
818,18.79
830,24.06
842,27.23
854,28.4
866,27.8
878,25.72
890,22.55
901,18.73
912,14.76
924,11.13
936,8.18
948,6.12
960,4.91
972,4.39
984,4.28
996,4.32
1008,4.31
1020,4.14
1032,3.77
1044,3.1
1056,2.01
1068,0.29
1080,-2.15
1091,-5.31
1102,-8.98
1114,-12.8
1126,-16.39
1138,-19.51
1150,-22.13
1162,-24.51
1174,-27.08
1186,-30.2
1198,-33.96
1210,-37.97
1222,-41.33
1234,-42.88
1246,-41.48
1258,-36.52
1270,-28.11
1281,-17.16
1292,-5.06
1304,6.74
1316,17.08
1328,25.28
1340,31.11
1352,34.65
1364,36.12
1376,35.79
1388,33.98
1400,31.08
1412,27.54
1424,23.79
1436,20.2
1448,17.03
1460,14.38
1471,12.26
1482,10.6
1494,9.29
1506,8.23
1518,7.27
1530,6.24
1542,4.97
1554,3.23
1566,0.83
1578,-2.32
1590,-6.18
1602,-10.52
1614,-14.96
1626,-19.13
1638,-22.79
1650,-25.92
1661,-28.71
1672,-31.52
1684,-34.71
1696,-38.5
1708,-42.8
1720,-47.13
1732,-50.65
1744,-52.33
1756,-51.23
1768,-46.81
1780,-39.15
1792,-28.99
1804,-17.47
1816,-5.84
1828,4.84
1840,13.89
1851,20.96
1862,25.94
1874,28.83
1886,29.71
1898,28.81
1910,26.53
1922,23.46
1934,20.29
1946,17.57
1958,15.63
1970,14.49
1982,13.9
1994,13.52
2006,13.1
2018,12.54
2030,11.88
2041,11.22
2052,10.56
2064,9.76
2076,8.58
2088,6.78
2100,4.22
2112,0.96
2124,-2.77
2136,-6.62
2148,-10.22
2160,-13.3
2172,-15.8
2184,-17.83
2196,-19.68
2208,-21.69
2220,-24.14
2231,-27.07
2242,-30.17
2254,-32.76
2266,-33.92
2278,-32.7
2290,-28.46
2302,-21.15
2314,-11.37
2326,-0.28
2338,10.72
2350,20.36
2362,27.82
2374,32.77
2386,35.28
2398,35.66
2410,34.23
2421,31.34
2432,27.38
2444,22.83
2456,18.28
2468,14.31
2480,11.34
2492,9.52
2504,8.7
2516,8.55
2528,8.69
2540,8.82
2552,8.83
2564,8.69
2576,8.45
2588,8.01
2600,7.17
2611,5.6
2622,3.06
2634,-0.51
2646,-4.85
2658,-9.42
2670,-13.68
2682,-17.21
2694,-19.87
2706,-21.82
2718,-23.44
2730,-25.12
2742,-27.19
2754,-29.82
2766,-32.94
2778,-36.19
2790,-38.89
2801,-40.13
2812,-39.01
2824,-34.92
2836,-27.78
2848,-18.23
2860,-7.38
2872,3.45
2884,13.14
2896,20.99
2908,26.8
2920,30.64
2932,32.72
2944,33.21
2956,32.31
2968,30.28
2980,27.56
2991,24.8
3002,22.64
3014,21.54
3026,21.65
3038,22.71
3050,24.23
3062,25.67
3074,26.61
3086,26.8
3098,26.14
3110,24.63
3122,22.25
3134,18.96
3146,14.67
3158,9.33
3170,2.98
3181,-4.14
3192,-11.62
3204,-18.91
3216,-25.48
3228,-31.0
3240,-35.49
3252,-39.25
3264,-42.81
3276,-46.67
3288,-51.07
3300,-55.88
3312,-60.57
3324,-64.34
3336,-66.23
3348,-65.41
3360,-61.3
3371,-53.89
3382,-43.69
3394,-31.78
3406,-19.45
3418,-7.96
3430,1.79
3442,9.37
3454,14.73
3466,18.01
3478,19.41
3490,19.14
3502,17.54
3514,15.11
3526,12.52
3538,10.46
3550,9.38
3561,9.36
3572,10.19
3584,11.4
3596,12.57
3608,13.46
3620,14.03
3632,14.36
3644,14.54
3656,14.56
3668,14.25
3680,13.38
3692,11.71
3704,9.19
3716,5.99
3728,2.51
3740,-0.77
3751,-3.49
3762,-5.53
3774,-7.07
3786,-8.47
3798,-10.14
3810,-12.38
3822,-15.29
3834,-18.81
3846,-22.65
3858,-26.26
3870,-28.86
3882,-29.56
3894,-27.55
3906,-22.45
3918,-14.47
3930,-4.45
3941,6.34
3952,16.62
3964,25.34
3976,31.92
3988,36.21
4000,38.38
4012,38.66
4024,37.34
4036,34.66
4048,30.93
4060,26.6
4072,22.22
4084,18.44
4096,15.76
4108,14.49
4120,14.53
4131,15.48
4142,16.77
4154,17.87
4166,18.48
4178,18.56
4190,18.24
4202,17.64
4214,16.71
4226,15.21
4238,12.79
4250,9.29
4262,4.81
4274,-0.19
4286,-5.06
4298,-9.26
4310,-12.53
4321,-14.99
4332,-17.09
4344,-19.35
4356,-22.16
4368,-25.65
4380,-29.67
4392,-33.72
4404,-37.13
4416,-39.06
4428,-38.7
4440,-35.5
4452,-29.34
4464,-20.66
4476,-10.4
4488,0.19
4500,9.94
4511,17.94
4522,23.71
4534,27.12
4546,28.34
4558,27.64
4570,25.38
4582,22.0
4594,18.02
4606,14.05
4618,10.62
4630,8.13
4642,6.75
4654,6.46
4666,7.07
4678,8.3
4690,9.92
4701,11.64
4712,13.2
4724,14.34
4736,14.78
4748,14.38
4760,13.08
4772,10.97
4784,8.24
4796,5.13
4808,1.92
4820,-1.15
4832,-3.87
4844,-6.17
4856,-8.1
4868,-9.86
4880,-11.71
4891,-13.95
4902,-16.76
4914,-20.07
4926,-23.5
4938,-26.3
4950,-27.56
4962,-26.4
4974,-22.27
4986,-15.22
4998,-5.88
5010,4.65
5022,15.16
5034,24.59
5046,32.29
5058,37.97
5070,41.6
5081,43.23
5092,42.92
5104,40.81
5116,37.21
5128,32.67
5140,27.88
5152,23.54
5164,20.13
5176,17.85
5188,16.57
5200,15.99
5212,15.71
5224,15.43
5236,14.9
5248,13.93
5260,12.38
5271,10.11
5282,7.05
5294,3.25
5306,-1.14
5318,-5.87
5330,-10.71
5342,-15.45
5354,-19.99
5366,-24.35
5378,-28.62
5390,-32.9
5402,-37.28
5414,-41.82
5426,-46.47
5438,-51.02
5450,-54.97
5461,-57.54
5472,-57.77
5484,-54.84
5496,-48.37
5508,-38.66
5520,-26.71
5532,-13.95
5544,-1.84
5556,8.46
5568,16.29
5580,21.54
5592,24.36
5604,25.11
5616,24.12
5628,21.79
5640,18.59
5651,15.12
5662,12.08
5674,10.05
5686,9.43
5698,10.22
5710,12.11
5722,14.59
5734,17.14
5746,19.46
5758,21.43
5770,23.05
5782,24.26
5794,24.85
5806,24.51
5818,22.96
5830,20.2
5841,16.5
5852,12.42
5864,8.55
5876,5.27
5888,2.6
5900,0.24
5912,-2.34
5924,-5.64
5936,-9.96
5948,-15.2
5960,-20.83
5972,-25.93
5984,-29.36
5996,-30.12
6008,-27.54
6020,-21.64
6031,-13.07
6042,-3.08
6054,6.9
6066,15.51
6078,21.8
6090,25.31
6102,26.08
6114,24.44
6126,20.94
6138,16.17
6150,10.75
6162,5.26
6174,0.23
6186,-3.96
6198,-7.1
6210,-9.16
6221,-10.24
6232,-10.53
6244,-10.13
6256,-9.12
6268,-7.56
6280,-5.55
6292,-3.38
6304,-1.4
6316,-0.0
6328,0.6
6340,0.42
6352,-0.28
6364,-1.12
6376,-1.72
6388,-1.88
6400,-1.65
6411,-1.36
6422,-1.46
6434,-2.43
6446,-4.61
6458,-8.0
6470,-12.19
6482,-16.35
6494,-19.39
6506,-20.22
6518,-18.11
6530,-12.95
6542,-5.34
6554,3.53
6566,12.28
6578,19.66
6590,24.96
6601,28.01
6612,29.03
6624,28.24
6636,25.63
6648,20.84
6660,13.37
6672,3.0
6684,-9.92
6696,-24.31
6708,-38.53
6720,-50.84
6732,-59.86
6744,-64.92
6756,-66.1
6768,-63.98
6780,-59.4
6791,-53.18
6802,-46.09
6814,-38.82
6826,-32.09
6838,-26.57
6850,-22.74
6862,-20.72
6874,-20.25
6886,-20.78
6898,-21.7
6910,-22.57
6922,-23.22
6934,-23.8
6946,-24.62
6958,-26.07
6970,-28.45
6981,-31.87
6992,-36.12
7004,-40.7
7016,-44.75
7028,-47.3
7040,-47.53
7052,-45.04
7064,-40.0
7076,-33.13
7088,-25.41
7100,-17.78
7112,-10.89
7124,-5.07
7136,-0.42
7148,3.09
7160,5.55
7171,7.17
7182,8.39
7194,9.9
7206,12.55
7218,17.05
7230,23.76
7242,32.52
7254,42.71
7266,53.44
7278,63.83
7290,73.1
7302,80.72
7314,86.28
7326,89.47
7338,90.07
7350,88.02
7361,83.53
7372,77.08
7384,69.4
7396,61.2
7408,53.1
7420,45.39
7432,38.11
7444,31.05
7456,23.92
7468,16.51
7480,8.77
7492,0.91
7504,-6.56
7516,-12.82
7528,-16.94
7540,-17.98
7551,-15.23
7562,-8.41
7574,2.19
7586,15.77
7598,31.06
7610,46.62
7622,61.1
7634,73.42
7646,82.97
7658,89.52
7670,93.15
7682,94.13
7694,92.91
7706,90.09
7718,86.46
7730,82.82
7741,79.83
7752,77.7
7764,76.19
7776,74.74
7788,72.8
7800,70.07
7812,66.65
7824,62.87
7836,59.18
7848,55.96
7860,53.55
7872,52.28
7884,52.25
7896,53.05
7908,53.53
7920,51.89
7931,46.19
7942,35.13
7954,18.61
7966,-2.26
7978,-25.68
7990,-49.92
8002,-73.72
8014,-96.32
8026,-116.93
8038,-134.42
8050,-147.17
8062,-153.63
8074,-152.94
8086,-145.43
8098,-132.59
8110,-116.56
8121,-99.48
8132,-82.97
8144,-67.98
8156,-54.94
8168,-44.02
8180,-35.33
8192,-28.94
8204,-24.84
8216,-22.79
8228,-22.34
8240,-22.9
8252,-23.96
8264,-25.19
8276,-26.59
8288,-28.37
8300,-30.74
8311,-33.68
8322,-36.78
8334,-39.3
8346,-40.44
8358,-39.68
8370,-37.1
8382,-33.34
8394,-29.43
8406,-26.27
8418,-24.36
8430,-23.57
8442,-23.38
8454,-23.15
8466,-22.47
8478,-21.3
8490,-19.9
8501,-18.7
8512,-17.98
8524,-17.79
8536,-17.7
8548,-16.88
8560,-14.16
8572,-8.24
8584,1.87
8596,16.49
8608,35.1
8620,56.39
8632,78.6
8644,99.94
8656,118.94
8668,134.64
8680,146.58
8691,154.67
8702,159.15
8714,160.59
8726,159.83
8738,157.92
8750,155.97
8762,154.82
8774,154.86
8786,155.98
8798,157.73
8810,159.62
8822,161.35
8834,162.95
8846,164.71
8858,166.97
8870,169.91
8881,173.36
8892,176.78
8904,179.3
8916,179.98
8928,177.99
8940,172.93
8952,165.03
8964,155.19
8976,144.76
8988,135.21
9000,127.62
9012,122.35
9024,119.0
9036,116.7
9048,114.56
9060,112.1
9071,109.45
9082,107.22
9094,106.24
9106,107.3
9118,110.86
9130,117.0
9142,125.37
9154,135.17
9166,145.12
9178,153.58
9190,158.86
9202,159.58
9214,155.13
9226,145.86
9238,132.92
9250,117.89
9261,102.27
9272,87.12
9284,72.97
9296,59.98
9308,48.12
9320,37.33
9332,27.52
9344,18.45
9356,9.68
9368,0.66
9380,-9.11
9392,-19.84
9404,-31.32
9416,-43.09
9428,-54.58
9440,-65.5
9451,-75.99
9462,-86.64
9474,-98.26
9486,-111.51
9498,-126.62
9510,-143.26
9522,-160.71
9534,-178.16
9546,-195.04
9558,-211.34
9570,-227.5
9582,-244.29
9594,-262.63
9606,-283.35
9618,-306.96
9630,-333.29
9641,-361.07
9652,-387.77
9664,-409.88
9676,-423.69
9688,-426.45
9700,-417.25
9712,-397.26
9724,-369.12
9736,-335.82
9748,-299.65
9760,-261.77
9772,-222.43
9784,-181.62
9796,-139.71
9808,-97.54
9820,-56.13
9831,-16.3
9842,21.67
9854,57.99
9866,93.09
9878,127.3
9890,160.75
9902,193.18
9914,223.95
9926,251.93
9938,275.47
9950,292.44
9962,300.81
9974,299.2
9986,287.56
9998,267.37
10010,241.38
10021,212.72
10032,184.05
10044,156.92
10056,131.63
10068,107.64
10080,84.04
10092,59.84
10104,33.98
10116,5.41
10128,-26.33
10140,-60.18
10152,-92.76
10164,-118.8
10176,-132.86
10188,-131.91
10200,-117.37
10211,-95.25
10222,-74.1
10234,-61.63
10246,-61.82
10258,-73.94
10270,-93.79
10282,-116.49
10294,-138.73
10306,-159.71
10318,-180.53
10330,-202.72
10342,-227.26
10354,-254.61
10366,-285.43
10378,-321.0
10390,-362.73
10401,-410.77
10412,-462.58
10424,-512.71
10436,-554.02
10448,-580.12
10460,-587.72
10472,-577.58
10484,-553.75
10496,-521.55
10508,-485.43
10520,-447.88
10532,-409.72
10544,-371.12
10556,-332.72
10568,-295.85
10580,-262.13
10591,-232.68
10602,-207.76
10614,-186.84
10626,-169.05
10638,-153.66
10650,-140.15
10662,-128.27
10674,-117.77
10686,-108.16
10698,-98.74
10710,-88.7
10722,-77.39
10734,-64.51
10746,-50.2
10758,-35.0
10770,-19.71
10781,-5.07
10792,8.37
10804,20.38
10816,31.04
10828,40.57
10840,49.14
10852,56.7
10864,62.98
10876,67.5
10888,69.87
10900,69.89
10912,67.7
10924,63.79
10936,58.9
10948,53.92
10960,49.75
10971,47.22
10982,46.98
10994,49.39
11006,54.47
11018,61.91
11030,71.15
11042,81.43
11054,91.98
11066,102.06
11078,111.0
11090,118.28
11102,123.55
11114,126.69
11126,127.7
11138,126.74
11150,124.06
11161,120.09
11172,115.42
11184,110.72
11196,106.62
11208,103.47
11220,101.17
11232,99.22
11244,96.98
11256,93.97
11268,90.1
11280,85.66
11292,81.08
11304,76.7
11316,72.58
11328,68.5
11340,64.13
11351,59.2
11362,53.49
11374,46.89
11386,39.44
11398,31.33
11410,23.08
11422,15.52
11434,9.67
11446,6.49
11458,6.62
11470,10.13
11482,16.51
11494,24.91
11506,34.35
11518,43.99
11530,53.28
11541,61.89
11552,69.61
11564,76.19
11576,81.3
11588,84.67
11600,86.16
11612,85.9
11624,84.31
11636,81.97
11648,79.38
11660,76.89
11672,74.61
11684,72.53
11696,70.63
11708,68.91
11720,67.37
11731,65.89
11742,64.27
11754,62.26
11766,59.71
11778,56.58
11790,53.01
11802,49.16
11814,45.14
11826,40.93
11838,36.38
11850,31.29
11862,25.57
11874,19.31
11886,12.94
11898,7.14
11910,2.75
11921,0.62
11932,1.38
11944,5.21
11956,11.81
11968,20.41
11980,29.95
11992,39.33
12004,47.63
12016,54.28
12028,59.07
12040,62.11
12052,63.66
12064,64.01
12076,63.36
12088,61.89
12100,59.75
12111,57.19
12122,54.57
12134,52.28
12146,50.59
12158,49.58
12170,49.08
12182,48.7
12194,48.02
12206,46.7
12218,44.57
12230,41.72
12242,38.37
12254,34.85
12266,31.39
12278,28.16
12290,25.12
12301,22.05
12312,18.64
12324,14.54
12336,9.59
12348,3.85
12360,-2.23
12372,-7.96
12384,-12.46
12396,-14.89
12408,-14.62
12420,-11.39
12432,-5.35
12444,2.93
12456,12.54
12468,22.43
12480,31.6
12491,39.3
12502,45.19
12514,49.3
12526,51.97
12538,53.62
12550,54.57
12562,54.97
12574,54.81
12586,54.01
12598,52.62
12610,50.78
12622,48.76
12634,46.86
12646,45.27
12658,44.02
12670,42.99
12681,41.96
12692,40.73
12704,39.19
12716,37.27
12728,35.0
12740,32.41
12752,29.52
12764,26.33
12776,22.87
12788,19.15
12800,15.17
12812,10.87
12824,6.18
12836,1.05
12848,-4.43
12860,-9.91
12871,-14.79
12882,-18.33
12894,-19.84
12906,-18.88
12918,-15.42
12930,-9.74
12942,-2.43
12954,5.81
12966,14.26
12978,22.26
12990,29.29
13002,34.96
13014,39.07
13026,41.65
13038,42.87
13050,43.01
13061,42.4
13072,41.31
13084,39.96
13096,38.53
13108,37.14
13120,35.87
13132,34.73
13144,33.7
13156,32.71
13168,31.72
13180,30.64
13192,29.4
13204,27.87
13216,25.93
13228,23.51
13240,20.62
13251,17.39
13262,14.05
13274,10.82
13286,7.88
13298,5.21
13310,2.63
13322,-0.13
13334,-3.38
13346,-7.3
13358,-11.93
13370,-17.07
13382,-22.31
13394,-27.01
13406,-30.45
13418,-31.93
13430,-30.97
13441,-27.47
13452,-21.77
13464,-14.53
13476,-6.64
13488,1.11
13500,8.09
13512,13.97
13524,18.63
13536,22.07
13548,24.34
13560,25.51
13572,25.67
13584,24.99
13596,23.76
13608,22.31
13620,20.98
13631,19.96
13642,19.31
13654,18.94
13666,18.7
13678,18.44
13690,18.14
13702,17.79
13714,17.42
13726,16.96
13738,16.27
13750,15.18
13762,13.54
13774,11.32
13786,8.64
13798,5.68
13810,2.66
13821,-0.27
13832,-3.07
13844,-5.8
13856,-8.57
13868,-11.56
13880,-14.94
13892,-18.75
13904,-22.87
13916,-26.89
13928,-30.16
13940,-31.91
13952,-31.51
13964,-28.72
13976,-23.74
13988,-17.22
14000,-10.02
14011,-2.99
14022,3.24
14034,8.38
14046,12.36
14058,15.25
14070,17.13
14082,18.08
14094,18.19
14106,17.63
14118,16.6
14130,15.39
14142,14.23
14154,13.27
14166,12.49
14178,11.78
14190,11.04
14201,10.21
14212,9.38
14224,8.64
14236,8.06
14248,7.56
14260,6.98
14272,6.08
14284,4.73
14296,2.88
14308,0.67
14320,-1.73
14332,-4.13
14344,-6.43
14356,-8.67
14368,-10.98
14380,-13.52
14391,-16.41
14402,-19.7
14414,-23.26
14426,-26.81
14438,-29.92
14450,-32.1
14462,-32.81
14474,-31.63
14486,-28.37
14498,-23.15
14510,-16.45
14522,-8.99
14534,-1.61
14546,4.98
14558,10.33
14570,14.28
14581,16.92
14592,18.45
14604,19.04
14616,18.85
14628,18.04
14640,16.8
14652,15.36
14664,13.99
14676,12.84
14688,11.94
14700,11.22
14712,10.59
14724,10.05
14736,9.67
14748,9.51
14760,9.52
14771,9.49
14782,9.1
14794,8.06
14806,6.28
14818,3.89
14830,1.19
14842,-1.47
14854,-3.91
14866,-6.12
14878,-8.27
14890,-10.62
14902,-13.35
14914,-16.6
14926,-20.35
14938,-24.4
14950,-28.39
14961,-31.77
14972,-33.92
14984,-34.3
14996,-32.61
15008,-28.88
15020,-23.49
15032,-17.02
15044,-10.12
15056,-3.35
15068,2.86
15080,8.22
15092,12.56
15104,15.77
15116,17.87
15128,18.91
15140,19.04
15151,18.43
15162,17.28
15174,15.83
15186,14.32
15198,12.99
15210,11.99
15222,11.36
15234,11.01
15246,10.82
15258,10.62
15270,10.36
15282,10.03
15294,9.59
15306,8.96
15318,8.02
15330,6.67
15341,4.93
15352,2.94
15364,0.93
15376,-0.95
15388,-2.67
15400,-4.4
15412,-6.4
15424,-8.88
15436,-11.97
15448,-15.65
15460,-19.75
15472,-23.97
15484,-27.89
15496,-30.94
15508,-32.56
15520,-32.27
15531,-29.89
15542,-25.54
15554,-19.69
15566,-12.98
15578,-6.07
15590,0.42
15602,6.06
15614,10.55
15626,13.77
15638,15.74
15650,16.64
15662,16.74
15674,16.3
15686,15.54
15698,14.63
15710,13.67
15721,12.72
15732,11.82
15744,10.96
15756,10.15
15768,9.41
15780,8.79
15792,8.36
15804,8.1
15816,7.88
15828,7.44
15840,6.5
15852,4.89
15864,2.67
15876,0.06
15888,-2.6
15900,-5.09
15911,-7.33
15922,-9.42
15934,-11.55
15946,-13.91
15958,-16.65
15970,-19.86
15982,-23.51
15994,-27.43
16006,-31.19
16018,-34.23
16030,-35.85
16042,-35.52
16054,-33.0
16066,-28.42
16078,-22.25
16090,-15.13
16101,-7.73
16112,-0.68
16124,5.5
16136,10.41
16148,13.8
16160,15.64
16172,16.07
16184,15.46
16196,14.25
16208,12.84
16220,11.47
16232,10.23
16244,9.11
16256,8.09
16268,7.19
16280,6.49
16291,6.06
16302,5.92
16314,5.97
16326,6.06
16338,5.98
16350,5.58
16362,4.78
16374,3.57
16386,1.99
16398,0.09
16410,-2.09
16422,-4.52
16434,-7.16
16446,-9.95
16458,-12.82
16470,-15.73
16481,-18.75
16492,-22.0
16504,-25.54
16516,-29.2
16528,-32.47
16540,-34.6
16552,-34.8
16564,-32.65
16576,-28.21
16588,-22.04
16600,-15.01
16612,-7.91
16624,-1.3
16636,4.51
16648,9.36
16660,13.11
16671,15.6
16682,16.78
16694,16.74
16706,15.76
16718,14.25
16730,12.59
16742,11.06
16754,9.81
16766,8.9
16778,8.27
16790,7.86
16802,7.53
16814,7.18
16826,6.72
16838,6.11
16850,5.34
16861,4.41
16872,3.25
16884,1.77
16896,-0.13
16908,-2.44
16920,-5.08
16932,-7.88
16944,-10.64
16956,-13.26
16968,-15.78
16980,-18.38
16992,-21.32
17004,-24.7
17016,-28.39
17028,-31.92
17040,-34.59
17051,-35.64
17062,-34.57
17074,-31.25
17086,-25.99
17098,-19.4
17110,-12.16
17122,-4.9
17134,1.92
17146,7.95
17158,12.89
17170,16.48
17182,18.62
17194,19.38
17206,19.05
17218,18.05
17230,16.8
17241,15.57
17252,14.47
17264,13.5
17276,12.65
17288,11.94
17300,11.46
17312,11.23
17324,11.17
17336,11.1
17348,10.8
17360,10.09
17372,8.93
17384,7.37
17396,5.56
17408,3.62
17420,1.58
17431,-0.54
17442,-2.8
17454,-5.24
17466,-7.94
17478,-10.95
17490,-14.35
17502,-18.18
17514,-22.31
17526,-26.44
17538,-30.07
17550,-32.56
17562,-33.3
17574,-31.91
17586,-28.36
17598,-22.99
17610,-16.49
17621,-9.63
17632,-3.12
17644,2.55
17656,7.15
17668,10.64
17680,13.08
17692,14.58
17704,15.23
17716,15.14
17728,14.42
17740,13.24
17752,11.77
17764,10.19
17776,8.68
17788,7.42
17800,6.55
17811,6.17
17822,6.25
17834,6.62
17846,6.98
17858,7.03
17870,6.57
17882,5.56
17894,4.12
17906,2.49
17918,0.93
17930,-0.4
17942,-1.44
17954,-2.28
17966,-3.08
17978,-4.08
17990,-5.5
18001,-7.49
18012,-10.08
18024,-13.13
18036,-16.27
18048,-18.94
18060,-20.51
18072,-20.41
18084,-18.35
18096,-14.41
18108,-9.02
18120,-2.87
18132,3.32
18144,8.97
18156,13.7
18168,17.38
18180,20.02
18191,21.66
18202,22.38
18214,22.27
18226,21.47
18238,20.17
18250,18.59
18262,16.96
18274,15.48
18286,14.26
18298,13.37
18310,12.79
18322,12.42
18334,12.14
18346,11.76
18358,11.13
18370,10.12
18381,8.7
18392,6.92
18404,4.89
18416,2.78
18428,0.71
18440,-1.26
18452,-3.17
18464,-5.11
18476,-7.24
18488,-9.7
18500,-12.64
18512,-16.14
18524,-20.11
18536,-24.25
18548,-28.0
18560,-30.68
18571,-31.65
18582,-30.57
18594,-27.48
18606,-22.85
18618,-17.39
18630,-11.81
18642,-6.66
18654,-2.26
18666,1.3
18678,3.99
18690,5.82
18702,6.81
18714,6.97
18726,6.41
18738,5.32
18750,3.99
18761,2.75
18772,1.89
18784,1.64
18796,2.07
18808,3.12
18820,4.63
18832,6.37
18844,8.1
18856,9.62
18868,10.83
18880,11.68
18892,12.23
18904,12.58
18916,12.8
18928,12.97
18940,13.05
18951,12.95
18962,12.51
18974,11.59
18986,10.08
18998,7.98
19010,5.37
19022,2.47
19034,-0.42
19046,-2.88
19058,-4.48
19070,-4.81
19082,-3.58
19094,-0.74
19106,3.58
19118,9.01
19130,15.03
19141,21.05
19152,26.47
19164,30.74
19176,33.49
19188,34.57
19200,34.13
19212,32.57
19224,30.42
19236,28.17
19248,26.1
19260,24.26
19272,22.51
19284,20.67
19296,18.64
19308,16.45
19320,14.21
19331,12.02
19342,9.84
19354,7.58
19366,5.05
19378,2.13
19390,-1.24
19402,-5.0
19414,-9.02
19426,-13.16
19438,-17.24
19450,-21.14
19462,-24.74
19474,-27.97
19486,-30.82
19498,-33.32
19510,-35.59
19521,-37.69
19532,-39.6
19544,-41.05
19556,-41.61
19568,-40.74
19580,-37.99
19592,-33.2
19604,-26.61
19616,-18.79
19628,-10.54
19640,-2.64
19652,4.24
19664,9.7
19676,13.58
19688,15.86
19700,16.64
19711,16.12
19722,14.51
19734,12.08
19746,9.11
19758,5.81
19770,2.4
19782,-1.01
19794,-4.32
19806,-7.49
19818,-10.46
19830,-13.22
19842,-15.77
19854,-18.18
19866,-20.55
19878,-23.06
19890,-25.86
19901,-29.06
19912,-32.69
19924,-36.67
19936,-40.83
19948,-45.0
19960,-49.1
19972,-53.15
19984,-57.3
19996,-61.65
20008,-66.12
20020,-70.31
20032,-73.56
20044,-75.09
20056,-74.28
20068,-70.89
20080,-65.12
20091,-57.56
20102,-48.97
20114,-40.03
20126,-31.22
20138,-22.8
20150,-14.85
20162,-7.44
20174,-0.64
20186,5.42
20198,10.7
20210,15.26
20222,19.35
20234,23.33
20246,27.58
20258,32.34
20270,37.62
20281,43.2
20292,48.7
20304,53.66
20316,57.74
20328,60.73
20340,62.65
20352,63.63
20364,63.87
20376,63.5
20388,62.51
20400,60.77
20412,58.11
20424,54.38
20436,49.56
20448,43.72
20460,37.08
20471,29.99
20482,22.95
20494,16.6
20506,11.65
20518,8.7
20530,8.1
20542,9.8
20554,13.37
20566,18.16
20578,23.49
20590,28.8
20602,33.67
20614,37.78
20626,40.87
20638,42.66
20650,42.96
20661,41.76
20672,39.24
20684,35.82
20696,32.07
20708,28.5
20720,25.48
20732,23.1
20744,21.23
20756,19.64
20768,18.09
20780,16.42
20792,14.61
20804,12.69
20816,10.68
20828,8.51
20840,6.11
20851,3.35
20862,0.17
20874,-3.41
20886,-7.35
20898,-11.57
20910,-16.04
20922,-20.66
20934,-25.24
20946,-29.44
20958,-32.76
20970,-34.69
20982,-34.8
20994,-32.93
