seconds,BVP
4,3.63
16,0.66
28,-2.52
40,-5.69
51,-8.67
62,-11.34
74,-13.73
86,-15.92
98,-18.07
110,-20.37
122,-22.99
134,-26.0
146,-29.3
158,-32.57
170,-35.27
182,-36.74
194,-36.38
206,-33.89
218,-29.38
230,-23.34
241,-16.43
252,-9.3
264,-2.33
276,4.32
288,10.67
300,16.68
312,22.08
324,26.37
336,29.02
348,29.65
360,28.26
372,25.28
384,21.46
396,17.59
408,14.26
420,11.74
431,10.05
442,9.03
454,8.56
466,8.57
478,8.93
490,9.47
502,9.86
514,9.84
526,9.27
538,8.21
550,6.95
562,5.76
574,4.75
586,3.86
598,2.9
610,1.72
621,0.28
632,-1.29
644,-2.83
656,-4.27
668,-5.66
680,-7.17
692,-8.98
704,-11.24
716,-13.96
728,-17.04
740,-20.28
752,-23.32
764,-25.65
776,-26.71
788,-26.02
800,-23.32
811,-18.73
822,-12.73
834,-6.0
846,0.75
858,6.95
870,12.24
882,16.46
894,19.54
906,21.46
918,22.27
930,22.1
942,21.24
954,20.0
966,18.73
978,17.63
990,16.81
1001,16.23
1012,15.81
1024,15.41
1036,14.95
1048,14.38
1060,13.68
1072,12.87
1084,11.94
1096,10.89
1108,9.67
1120,8.25
1132,6.63
1144,4.87
1156,3.08
1168,1.38
1180,-0.2
1191,-1.71
1202,-3.25
1214,-4.92
1226,-6.76
1238,-8.72
1250,-10.67
1262,-12.54
1274,-14.3
1286,-16.02
1298,-17.82
1310,-19.82
1322,-22.1
1334,-24.71
1346,-27.6
1358,-30.58
1370,-33.29
1381,-35.17
1392,-35.62
1404,-34.17
1416,-30.66
1428,-25.34
1440,-18.82
1452,-11.86
1464,-5.2
1476,0.63
1488,5.33
1500,8.83
1512,11.1
1524,12.22
1536,12.25
1548,11.39
1560,9.94
1571,8.27
1582,6.8
1594,5.79
1606,5.34
1618,5.36
1630,5.61
1642,5.87
1654,6.01
1666,6.03
1678,6.01
1690,6.0
1702,5.99
1714,5.89
1726,5.57
1738,4.96
1750,4.02
1761,2.77
1772,1.25
1784,-0.52
1796,-2.47
1808,-4.48
1820,-6.43
1832,-8.2
1844,-9.76
1856,-11.17
1868,-12.58
1880,-14.17
1892,-16.12
1904,-18.52
1916,-21.4
1928,-24.62
1940,-27.88
1951,-30.72
1962,-32.53
1974,-32.75
1986,-31.03
1998,-27.33
2010,-22.05
2022,-15.78
2034,-9.23
2046,-3.0
2058,2.49
2070,6.98
2082,10.33
2094,12.47
2106,13.43
2118,13.37
2130,12.58
2141,11.45
2152,10.3
2164,9.37
2176,8.76
2188,8.46
2200,8.4
2212,8.51
2224,8.67
2236,8.78
2248,8.72
2260,8.39
2272,7.77
2284,6.91
2296,5.88
2308,4.76
2320,3.59
2331,2.33
2342,0.96
2354,-0.54
2366,-2.17
2378,-3.9
2390,-5.71
2402,-7.57
2414,-9.47
2426,-11.38
2438,-13.26
2450,-15.15
2462,-17.11
2474,-19.25
2486,-21.75
2498,-24.73
2510,-28.23
2521,-32.06
2532,-35.77
2544,-38.73
2556,-40.17
2568,-39.48
2580,-36.4
2592,-31.15
2604,-24.32
2616,-16.75
2628,-9.21
2640,-2.27
2652,3.79
2664,8.83
2676,12.77
2688,15.5
2700,16.95
2711,17.17
2722,16.39
2734,15.03
2746,13.55
2758,12.31
2770,11.52
2782,11.21
2794,11.31
2806,11.7
2818,12.29
2830,12.97
2842,13.6
2854,14.01
2866,13.99
2878,13.41
2890,12.24
2901,10.56
2912,8.6
2924,6.58
2936,4.68
2948,2.94
2960,1.3
2972,-0.39
2984,-2.26
2996,-4.39
3008,-6.77
3020,-9.27
3032,-11.73
3044,-14.05
3056,-16.18
3068,-18.18
3080,-20.2
3091,-22.47
3102,-25.19
3114,-28.52
3126,-32.39
3138,-36.5
3150,-40.25
3162,-42.84
3174,-43.47
3186,-41.59
3198,-37.09
3210,-30.38
3222,-22.25
3234,-13.68
3246,-5.51
3258,1.64
3270,7.49
3281,11.92
3292,15.01
3304,16.85
3316,17.65
3328,17.67
3340,17.21
3352,16.55
3364,15.9
3376,15.33
3388,14.84
3400,14.42
3412,14.09
3424,13.93
3436,14.07
3448,14.55
3460,15.31
3471,16.12
3482,16.68
3494,16.68
3506,15.98
3518,14.58
3530,12.71
3542,10.62
3554,8.56
3566,6.64
3578,4.85
3590,3.05
3602,1.05
3614,-1.28
3626,-3.99
3638,-6.99
3650,-10.07
3661,-13.03
3672,-15.7
3684,-18.12
3696,-20.51
3708,-23.22
3720,-26.65
3732,-31.11
3744,-36.66
3756,-42.95
3768,-49.23
3780,-54.4
3792,-57.27
3804,-56.92
3816,-53.04
3828,-45.97
3840,-36.71
3851,-26.49
3862,-16.48
3874,-7.52
3886,0.01
3898,6.02
3910,10.56
3922,13.77
3934,15.76
3946,16.74
3958,16.99
3970,16.85
3982,16.61
3994,16.46
4006,16.5
4018,16.69
4030,16.97
4041,17.32
4052,17.74
4064,18.28
4076,18.97
4088,19.78
4100,20.62
4112,21.28
4124,21.53
4136,21.24
4148,20.37
4160,19.12
4172,17.82
4184,16.82
4196,16.35
4208,16.4
4220,16.74
4231,17.0
4242,16.88
4254,16.25
4266,15.13
4278,13.71
4290,12.15
4302,10.53
4314,8.79
4326,6.75
4338,4.19
4350,0.93
4362,-3.04
4374,-7.49
4386,-11.93
4398,-15.69
4410,-18.07
4421,-18.58
4432,-17.13
4444,-13.98
4456,-9.7
4468,-4.88
4480,-0.01
4492,4.6
4504,8.8
4516,12.49
4528,15.52
4540,17.75
4552,19.0
4564,19.24
4576,18.6
4588,17.36
4600,15.96
4611,14.78
4622,14.12
4634,14.13
4646,14.75
4658,15.82
4670,17.13
4682,18.49
4694,19.76
4706,20.77
4718,21.35
4730,21.37
4742,20.66
4754,19.22
4766,17.11
4778,14.48
4790,11.48
4801,8.21
4812,4.66
4824,0.79
4836,-3.39
4848,-7.82
4860,-12.32
4872,-16.7
4884,-20.76
4896,-24.45
4908,-27.81
4920,-31.03
4932,-34.33
4944,-37.97
4956,-42.14
4968,-46.88
4980,-51.98
4991,-56.95
5002,-61.02
5014,-63.29
5026,-62.97
5038,-59.59
5050,-53.25
5062,-44.52
5074,-34.33
5086,-23.73
5098,-13.61
5110,-4.59
5122,3.09
5134,9.39
5146,14.45
5158,18.34
5170,21.13
5181,22.84
5192,23.59
5204,23.65
5216,23.42
5228,23.31
5240,23.61
5252,24.41
5264,25.57
5276,26.9
5288,28.23
5300,29.46
5312,30.55
5324,31.41
5336,31.84
5348,31.65
5360,30.69
5371,28.99
5382,26.74
5394,24.23
5406,21.7
5418,19.23
5430,16.74
5442,14.07
5454,11.06
5466,7.66
5478,3.96
5490,0.19
5502,-3.45
5514,-6.86
5526,-10.11
5538,-13.4
5550,-17.04
5561,-21.26
5572,-26.17
5584,-31.64
5596,-37.29
5608,-42.47
5620,-46.36
5632,-48.11
5644,-47.06
5656,-42.93
5668,-36.02
5680,-27.09
5692,-17.22
5704,-7.5
5716,1.3
5728,8.76
5740,14.85
5751,19.66
5762,23.31
5774,25.82
5786,27.22
5798,27.66
5810,27.41
5822,26.86
5834,26.43
5846,26.32
5858,26.59
5870,27.1
5882,27.67
5894,28.18
5906,28.55
5918,28.76
5930,28.8
5941,28.61
5952,28.07
5964,27.08
5976,25.6
5988,23.66
6000,21.41
6012,19.02
6024,16.61
6036,14.2
6048,11.7
6060,9.02
6072,6.09
6084,2.96
6096,-0.27
6108,-3.47
6120,-6.55
6131,-9.5
6142,-12.37
6154,-15.32
6166,-18.51
6178,-22.16
6190,-26.41
6202,-31.15
6214,-35.99
6226,-40.16
6238,-42.71
6250,-42.77
6262,-39.91
6274,-34.22
6286,-26.39
6298,-17.34
6310,-8.02
6321,0.85
6332,8.83
6344,15.64
6356,21.13
6368,25.12
6380,27.56
6392,28.5
6404,28.27
6416,27.33
6428,26.25
6440,25.48
6452,25.19
6464,25.34
6476,25.69
6488,26.04
6500,26.28
6511,26.45
6522,26.65
6534,26.92
6546,27.19
6558,27.28
6570,26.96
6582,26.06
6594,24.51
6606,22.36
6618,19.74
6630,16.86
6642,13.9
6654,11.01
6666,8.24
6678,5.59
6690,2.92
6701,0.09
6712,-3.0
6724,-6.37
6736,-9.9
6748,-13.42
6760,-16.7
6772,-19.6
6784,-22.1
6796,-24.37
6808,-26.76
6820,-29.65
6832,-33.27
6844,-37.56
6856,-42.0
6868,-45.73
6880,-47.74
6891,-47.19
6902,-43.71
6914,-37.41
6926,-28.91
6938,-19.07
6950,-8.79
6962,1.22
6974,10.44
6986,18.55
6998,25.39
7010,30.91
7022,35.14
7034,38.22
7046,40.34
7058,41.74
7070,42.69
7081,43.42
7092,44.13
7104,44.97
7116,45.99
7128,47.12
7140,48.17
7152,48.89
7164,49.04
7176,48.52
7188,47.34
7200,45.62
7212,43.48
7224,40.94
7236,37.96
7248,34.46
7260,30.46
7271,26.17
7282,21.92
7294,18.02
7306,14.67
7318,11.78
7330,9.13
7342,6.4
7354,3.36
7366,-0.03
7378,-3.65
7390,-7.25
7402,-10.6
7414,-13.53
7426,-16.08
7438,-18.41
7450,-20.81
7461,-23.61
7472,-27.05
7484,-31.26
7496,-36.18
7508,-41.49
7520,-46.69
7532,-51.1
7544,-54.0
7556,-54.71
7568,-52.84
7580,-48.35
7592,-41.67
7604,-33.56
7616,-24.93
7628,-16.56
7640,-8.95
7651,-2.28
7662,3.49
7674,8.44
7686,12.54
7698,15.69
7710,17.83
7722,19.03
7734,19.56
7746,19.78
7758,20.03
7770,20.49
7782,21.21
7794,22.13
7806,23.18
7818,24.3
7830,25.44
7841,26.49
7852,27.31
7864,27.76
7876,27.77
7888,27.36
7900,26.64
7912,25.71
7924,24.62
7936,23.32
7948,21.74
7960,19.86
7972,17.68
7984,15.34
7996,12.95
8008,10.61
8020,8.35
8031,6.08
8042,3.7
8054,1.09
8066,-1.81
8078,-4.95
8090,-8.17
8102,-11.31
8114,-14.26
8126,-17.03
8138,-19.78
8150,-22.76
8162,-26.27
8174,-30.5
8186,-35.44
8198,-40.86
8210,-46.21
8221,-50.74
8232,-53.56
8244,-53.89
8256,-51.27
8268,-45.74
8280,-37.84
8292,-28.47
8304,-18.66
8316,-9.3
8328,-0.98
8340,6.03
8352,11.75
8364,16.3
8376,19.87
8388,22.59
8400,24.55
8411,25.83
8422,26.52
8434,26.72
8446,26.63
8458,26.46
8470,26.41
8482,26.61
8494,27.09
8506,27.79
8518,28.61
8530,29.39
8542,30.02
8554,30.38
8566,30.38
8578,29.95
8590,29.08
8601,27.84
8612,26.29
8624,24.56
8636,22.72
8648,20.81
8660,18.84
8672,16.83
8684,14.82
8696,12.84
8708,10.94
8720,9.16
8732,7.56
8744,6.1
8756,4.72
8768,3.37
8780,1.96
8791,0.47
8802,-1.08
8814,-2.65
8826,-4.22
8838,-5.8
8850,-7.49
8862,-9.37
8874,-11.51
8886,-13.93
8898,-16.55
8910,-19.19
8922,-21.63
8934,-23.56
8946,-24.69
8958,-24.76
8970,-23.64
8981,-21.44
8992,-18.51
9004,-15.34
9016,-12.45
9028,-10.17
9040,-8.57
9052,-7.5
9064,-6.7
9076,-5.94
9088,-5.16
9100,-4.41
9112,-3.75
9124,-3.13
9136,-2.36
9148,-1.2
9160,0.5
9171,2.68
9182,5.07
9194,7.26
9206,8.89
9218,9.8
9230,10.03
9242,9.77
9254,9.2
9266,8.46
9278,7.53
9290,6.36
9302,4.88
9314,3.1
9326,1.16
9338,-0.7
9350,-2.21
9361,-3.18
9372,-3.56
9384,-3.5
9396,-3.29
9408,-3.29
9420,-3.79
9432,-4.91
9444,-6.57
9456,-8.51
9468,-10.43
9480,-12.11
9492,-13.5
9504,-14.71
9516,-15.96
9528,-17.52
9540,-19.53
9551,-22.08
9562,-25.06
9574,-28.21
9586,-31.02
9598,-32.78
9610,-32.68
9622,-30.07
9634,-24.7
9646,-16.83
9658,-7.27
9670,2.97
9682,12.9
9694,21.86
9706,29.6
9718,36.12
9730,41.53
9741,45.9
9752,49.24
9764,51.57
9776,53.05
9788,53.94
9800,54.62
9812,55.4
9824,56.42
9836,57.57
9848,58.51
9860,58.83
9872,58.12
9884,56.1
9896,52.67
9908,47.86
9920,41.8
9931,34.66
9942,26.6
9954,17.77
9966,8.36
9978,-1.45
9990,-11.42
10002,-21.26
10014,-30.65
10026,-39.27
10038,-46.84
10050,-53.24
10062,-58.5
10074,-62.75
10086,-66.21
10098,-69.02
10110,-71.25
10121,-72.85
10132,-73.69
10144,-73.67
10156,-72.79
10168,-71.15
10180,-68.92
10192,-66.4
10204,-63.88
10216,-61.69
10228,-60.12
10240,-59.31
10252,-59.2
10264,-59.37
10276,-59.08
10288,-57.41
10300,-53.56
10311,-47.12
10322,-38.28
10334,-27.81
10346,-16.78
10358,-6.24
10370,3.09
10382,10.9
10394,17.17
10406,21.99
10418,25.48
10430,27.67
10442,28.69
10454,28.72
10466,28.08
10478,27.1
10490,26.02
10501,24.94
10512,23.84
10524,22.68
10536,21.45
10548,20.24
10560,19.15
10572,18.29
10584,17.73
10596,17.48
10608,17.45
10620,17.48
10632,17.34
10644,16.74
10656,15.49
10668,13.54
10680,11.04
10691,8.24
10702,5.48
10714,2.95
10726,0.7
10738,-1.4
10750,-3.54
10762,-5.87
10774,-8.4
10786,-11.02
10798,-13.55
10810,-15.79
10822,-17.71
10834,-19.41
10846,-21.19
10858,-23.38
10870,-26.26
10881,-29.92
10892,-34.19
10904,-38.61
10916,-42.5
10928,-45.09
10940,-45.68
10952,-43.83
10964,-39.43
10976,-32.87
10988,-24.85
11000,-16.28
11012,-8.05
11024,-0.8
11036,5.07
11048,9.47
11060,12.52
11071,14.4
11082,15.35
11094,15.62
11106,15.46
11118,15.16
11130,14.98
11142,15.13
11154,15.69
11166,16.58
11178,17.59
11190,18.48
11202,19.08
11214,19.35
11226,19.35
11238,19.22
11250,19.0
11261,18.64
11272,17.98
11284,16.9
11296,15.37
11308,13.51
11320,11.54
11332,9.64
11344,7.87
11356,6.16
11368,4.33
11380,2.26
11392,-0.06
11404,-2.52
11416,-4.95
11428,-7.26
11440,-9.47
11451,-11.73
11462,-14.25
11474,-17.21
11486,-20.69
11498,-24.64
11510,-28.9
11522,-33.1
11534,-36.71
11546,-39.04
11558,-39.42
11570,-37.35
11582,-32.75
11594,-26.07
11606,-18.15
11618,-10.05
11630,-2.67
11641,3.45
11652,8.14
11664,11.61
11676,14.14
11688,16.01
11700,17.41
11712,18.47
11724,19.35
11736,20.25
11748,21.36
11760,22.81
11772,24.57
11784,26.41
11796,28.05
11808,29.22
11820,29.78
11831,29.75
11842,29.21
11854,28.21
11866,26.69
11878,24.54
11890,21.59
11902,17.84
11914,13.44
11926,8.74
11938,4.15
11950,-0.05
11962,-3.76
11974,-7.15
11986,-10.56
11998,-14.26
12010,-18.33
12021,-22.58
12032,-26.62
12044,-30.03
12056,-32.55
12068,-34.23
12080,-35.44
12092,-36.73
12104,-38.67
12116,-41.66
12128,-45.73
12140,-50.47
12152,-55.04
12164,-58.37
12176,-59.4
12188,-57.38
12200,-52.13
12211,-44.12
12222,-34.34
12234,-23.97
12246,-14.11
12258,-5.45
12270,1.69
12282,7.38
12294,11.85
12306,15.32
12318,17.96
12330,19.84
12342,21.06
12354,21.79
12366,22.23
12378,22.6
12390,23.05
12401,23.63
12412,24.28
12424,24.96
12436,25.62
12448,26.25
12460,26.79
12472,27.17
12484,27.19
12496,26.66
12508,25.48
12520,23.69
12532,21.48
12544,19.11
12556,16.78
12568,14.54
12580,12.32
12591,9.97
12602,7.36
12614,4.46
12626,1.38
12638,-1.73
12650,-4.72
12662,-7.56
12674,-10.27
12686,-12.94
12698,-15.74
12710,-18.86
12722,-22.52
12734,-26.89
12746,-31.95
12758,-37.29
12770,-42.12
12781,-45.43
12792,-46.25
12804,-44.09
12816,-39.07
12828,-31.93
12840,-23.71
12852,-15.42
12864,-7.79
12876,-1.17
12888,4.38
12900,8.95
12912,12.66
12924,15.61
12936,17.81
12948,19.27
12960,20.0
12971,20.08
12982,19.65
12994,18.9
13006,18.03
13018,17.2
13030,16.49
13042,15.93
13054,15.5
13066,15.17
13078,14.92
13090,14.67
13102,14.28
13114,13.62
13126,12.6
13138,11.32
13150,10.01
13161,8.96
13172,8.36
13184,8.23
13196,8.38
13208,8.54
13220,8.52
13232,8.31
13244,8.16
13256,8.42
13268,9.47
13280,11.59
13292,14.85
13304,19.02
13316,23.55
13328,27.6
13340,30.28
13351,31.09
13362,30.13
13374,28.28
13386,26.87
13398,27.12
13410,29.6
13422,33.99
13434,39.3
13446,44.29
13458,48.08
13470,50.36
13482,51.29
13494,51.22
13506,50.3
13518,48.45
13530,45.5
13541,41.45
13552,36.65
13564,31.72
13576,27.37
13588,24.13
13600,22.1
13612,21.06
13624,20.57
13636,20.25
13648,19.86
13660,19.36
13672,18.79
13684,18.2
13696,17.54
13708,16.73
13720,15.64
13731,14.16
13742,12.18
13754,9.64
13766,6.55
13778,3.0
13790,-0.81
13802,-4.71
13814,-8.63
13826,-12.63
13838,-16.81
13850,-21.19
13862,-25.6
13874,-29.74
13886,-33.31
13898,-36.2
13910,-38.63
13921,-41.1
13932,-44.19
13944,-48.4
13956,-53.89
13968,-60.42
13980,-67.31
13992,-73.59
14004,-78.2
14016,-80.27
14028,-79.4
14040,-75.74
14052,-70.02
14064,-63.28
14076,-56.55
14088,-50.55
14100,-45.56
14111,-41.47
14122,-37.96
14134,-34.79
14146,-31.89
14158,-29.4
14170,-27.46
14182,-26.13
14194,-25.24
14206,-24.44
14218,-23.39
14230,-21.83
14242,-19.73
14254,-17.2
14266,-14.49
14278,-11.82
14290,-9.36
14301,-7.18
14312,-5.29
14324,-3.65
14336,-2.24
14348,-1.06
14360,-0.14
14372,0.48
14384,0.75
14396,0.67
14408,0.26
14420,-0.39
14432,-1.16
14444,-1.98
14456,-2.82
14468,-3.72
14480,-4.8
14491,-6.21
14502,-8.11
14514,-10.64
14526,-13.85
14538,-17.75
14550,-22.1
14562,-26.51
14574,-30.37
14586,-32.95
14598,-33.63
14610,-32.01
14622,-28.06
14634,-22.09
14646,-14.68
14658,-6.48
14670,1.91
14681,9.96
14692,17.25
14704,23.42
14716,28.21
14728,31.47
14740,33.25
14752,33.77
14764,33.4
14776,32.56
14788,31.62
14800,30.88
14812,30.47
14824,30.44
14836,30.75
14848,31.27
14860,31.84
14871,32.27
14882,32.37
14894,32.02
14906,31.22
14918,30.04
14930,28.6
14942,26.99
14954,25.18
14966,23.09
14978,20.61
14990,17.7
15002,14.45
15014,11.02
15026,7.63
15038,4.37
15050,1.28
15061,-1.7
15072,-4.66
15084,-7.72
15096,-10.96
15108,-14.57
15120,-18.71
15132,-23.47
15144,-28.68
15156,-33.82
15168,-38.05
15180,-40.42
15192,-40.19
15204,-37.08
15216,-31.4
15228,-23.89
15240,-15.43
15251,-6.81
15262,1.48
15274,9.2
15286,16.24
15298,22.47
15310,27.72
15322,31.78
15334,34.51
15346,35.96
15358,36.35
15370,36.04
15382,35.4
15394,34.76
15406,34.31
15418,34.13
15430,34.15
15441,34.3
15452,34.48
15464,34.64
15476,34.75
15488,34.72
15500,34.51
15512,34.01
15524,33.1
15536,31.7
15548,29.77
15560,27.35
15572,24.55
15584,21.58
15596,18.66
15608,15.98
15620,13.61
15631,11.46
15642,9.31
15654,6.9
15666,4.06
15678,0.81
15690,-2.66
15702,-6.08
15714,-9.25
15726,-12.15
15738,-14.95
15750,-17.96
15762,-21.51
15774,-25.84
15786,-31.0
15798,-36.79
15810,-42.73
15821,-48.05
15832,-51.87
15844,-53.3
15856,-51.79
15868,-47.2
15880,-39.95
15892,-30.87
15904,-20.99
15916,-11.25
15928,-2.31
15940,5.55
15952,12.32
15964,18.17
15976,23.2
15988,27.38
16000,30.58
16011,32.67
16022,33.72
16034,34.0
16046,33.98
16058,34.07
16070,34.5
16082,35.22
16094,35.99
16106,36.56
16118,36.84
16130,36.87
16142,36.79
16154,36.66
16166,36.43
16178,35.97
16190,35.16
16201,33.97
16212,32.49
16224,30.88
16236,29.22
16248,27.52
16260,25.68
16272,23.6
16284,21.24
16296,18.69
16308,16.1
16320,13.61
16332,11.32
16344,9.19
16356,7.12
16368,4.99
16380,2.67
16391,0.12
16402,-2.67
16414,-5.71
16426,-8.93
16438,-12.29
16450,-15.72
16462,-19.23
16474,-22.94
16486,-27.16
16498,-32.21
16510,-38.24
16522,-44.96
16534,-51.56
16546,-56.81
16558,-59.53
16570,-59.0
16581,-55.24
16592,-49.02
16604,-41.5
16616,-33.84
16628,-26.74
16640,-20.42
16652,-14.77
16664,-9.55
16676,-4.68
16688,-0.19
16700,3.76
16712,7.07
16724,9.74
16736,11.87
16748,13.6
16760,15.06
16771,16.37
16782,17.57
16794,18.74
16806,19.91
16818,21.12
16830,22.34
16842,23.52
16854,24.56
16866,25.32
16878,25.71
16890,25.65
16902,25.11
16914,24.13
16926,22.77
16938,21.08
16950,19.15
16961,17.07
16972,14.89
16984,12.7
16996,10.53
17008,8.43
17020,6.44
17032,4.57
17044,2.8
17056,1.05
17068,-0.79
17080,-2.77
17092,-4.92
17104,-7.17
17116,-9.41
17128,-11.53
17140,-13.49
17151,-15.37
17162,-17.31
17174,-19.52
17186,-22.15
17198,-25.26
17210,-28.82
17222,-32.66
17234,-36.49
17246,-39.85
17258,-42.15
17270,-42.77
17282,-41.22
17294,-37.35
17306,-31.41
17318,-24.0
17330,-15.9
17341,-7.88
17352,-0.44
17364,6.15
17376,11.84
17388,16.65
17400,20.6
17412,23.65
17424,25.78
17436,27.04
17448,27.6
17460,27.7
17472,27.62
17484,27.57
17496,27.62
17508,27.71
17520,27.69
17531,27.43
17542,26.89
17554,26.09
17566,25.14
17578,24.08
17590,22.86
17602,21.39
17614,19.58
17626,17.45
17638,15.14
17650,12.88
17662,10.85
17674,9.08
17686,7.42
17698,5.69
17710,3.71
17721,1.51
17732,-0.72
17744,-2.79
17756,-4.55
17768,-6.02
17780,-7.37
17792,-8.8
17804,-10.4
17816,-12.19
17828,-14.05
17840,-15.85
17852,-17.5
17864,-18.98
17876,-20.36
17888,-21.72
17900,-23.23
17911,-25.05
17922,-27.34
17934,-30.15
17946,-33.33
17958,-36.44
17970,-38.78
17982,-39.59
17994,-38.23
18006,-34.47
18018,-28.52
18030,-21.05
18042,-12.92
18054,-4.95
18066,2.27
18078,8.48
18090,13.64
18101,17.83
18112,21.1
18124,23.45
18136,24.86
18148,25.38
18160,25.17
18172,24.54
18184,23.86
18196,23.43
18208,23.4
18220,23.74
18232,24.22
18244,24.53
18256,24.45
18268,23.89
18280,22.99
18291,21.96
18302,21.07
18314,20.4
18326,19.9
18338,19.38
18350,18.69
18362,17.8
18374,16.83
18386,16.01
18398,15.55
18410,15.46
18422,15.56
18434,15.55
18446,15.12
18458,14.08
18470,12.47
18481,10.4
18492,8.02
18504,5.4
18516,2.51
18528,-0.79
18540,-4.58
18552,-8.93
18564,-13.83
18576,-19.24
18588,-25.06
18600,-31.11
18612,-37.07
18624,-42.39
18636,-46.36
18648,-48.27
18660,-47.62
18671,-44.4
18682,-39.12
18694,-32.71
18706,-26.19
18718,-20.43
18730,-15.91
18742,-12.77
18754,-10.93
18766,-10.25
18778,-10.59
18790,-11.77
18802,-13.49
18814,-15.31
18826,-16.7
18838,-17.24
18850,-16.77
18861,-15.43
18872,-13.55
18884,-11.54
18896,-9.7
18908,-8.16
18920,-6.89
18932,-5.8
18944,-4.81
18956,-3.92
18968,-3.16
18980,-2.6
18992,-2.27
19004,-2.17
19016,-2.23
19028,-2.37
19040,-2.46
19051,-2.45
19062,-2.28
19074,-1.99
19086,-1.68
19098,-1.48
19110,-1.56
19122,-2.02
19134,-2.88
19146,-4.08
19158,-5.47
19170,-6.95
19182,-8.43
19194,-9.92
19206,-11.45
19218,-13.12
19230,-15.04
19241,-17.39
19252,-20.31
19264,-23.83
19276,-27.76
19288,-31.58
19300,-34.49
19312,-35.67
19324,-34.51
19336,-30.87
19348,-25.18
19360,-18.26
19372,-11.11
19384,-4.57
19396,0.86
19408,5.07
19420,8.24
19431,10.69
19442,12.72
19454,14.5
19466,16.02
19478,17.24
19490,18.09
19502,18.6
19514,18.92
19526,19.21
19538,19.56
19550,19.94
19562,20.29
19574,20.49
19586,20.52
19598,20.43
19610,20.27
19621,20.04
19632,19.67
19644,19.04
19656,18.04
19668,16.63
19680,14.87
19692,12.9
19704,10.85
19716,8.88
19728,7.09
19740,5.57
19752,4.32
19764,3.27
19776,2.27
19788,1.14
19800,-0.28
19811,-2.05
19822,-4.12
19834,-6.37
19846,-8.63
19858,-10.78
19870,-12.76
19882,-14.63
19894,-16.53
19906,-18.66
19918,-21.24
19930,-24.41
19942,-28.15
19954,-32.2
19966,-36.03
19978,-38.89
19990,-40.02
20001,-38.88
20012,-35.36
20024,-29.85
20036,-23.13
20048,-16.1
20060,-9.49
20072,-3.74
20084,1.05
20096,5.0
20108,8.22
20120,10.74
20132,12.54
20144,13.6
20156,13.99
20168,13.92
20180,13.66
20191,13.48
20202,13.5
20214,13.74
20226,14.1
20238,14.44
20250,14.69
20262,14.81
20274,14.82
20286,14.74
20298,14.51
20310,14.01
20322,13.07
20334,11.6
20346,9.54
20358,7.03
20370,4.31
20381,1.64
20392,-0.76
20404,-2.82
20416,-4.58
20428,-6.23
20440,-7.96
20452,-9.96
20464,-12.31
20476,-14.99
20488,-17.86
20500,-20.79
20512,-23.58
20524,-26.12
20536,-28.33
20548,-30.27
20560,-32.07
20571,-33.91
20582,-35.98
20594,-38.41
20606,-41.23
20618,-44.3
20630,-47.29
20642,-49.63
20654,-50.65
20666,-49.67
20678,-46.27
20690,-40.39
20702,-32.44
20714,-23.12
20726,-13.21
20738,-3.39
20750,6.02
20761,14.93
20772,23.39
20784,31.39
20796,38.8
20808,45.38
20820,50.96
20832,55.56
20844,59.34
20856,62.54
20868,65.33
20880,67.74
20892,69.69
20904,71.04
20916,71.73
20928,71.78
20940,71.3
20951,70.38
20962,69.09
20974,67.4
20986,65.22
20998,62.44
