seconds,BVP
5,-154.76
17,-157.58
29,-162.85
41,-171.88
53,-183.53
65,-194.93
77,-202.53
89,-203.39
101,-195.39
113,-177.2
125,-147.68
137,-106.18
148,-52.99
159,9.49
171,75.93
183,138.61
195,188.57
207,218.05
219,222.99
231,204.5
243,168.59
255,124.02
267,79.36
279,40.14
291,7.83
303,-19.49
315,-45.02
327,-70.94
338,-97.38
349,-122.66
361,-144.59
373,-161.65
385,-173.84
397,-182.55
409,-190.17
421,-199.34
433,-211.97
445,-228.38
457,-246.63
469,-262.47
481,-270.16
493,-264.27
505,-241.88
517,-204.25
528,-157.16
539,-109.48
551,-70.55
563,-47.08
575,-41.16
587,-49.98
599,-67.17
611,-85.15
623,-97.38
635,-99.67
647,-90.39
659,-69.99
671,-40.18
683,-3.22
695,38.1
707,80.76
718,121.6
729,158.05
741,188.68
753,213.57
765,233.93
777,251.26
789,266.61
801,279.93
813,290.22
825,295.96
837,295.83
849,289.38
861,277.18
873,260.81
885,242.21
897,223.29
908,205.41
919,189.25
931,174.88
943,162.0
955,150.19
967,139.21
979,129.32
991,121.13
1003,115.55
1015,113.38
1027,114.88
1039,119.62
1051,126.42
1063,133.74
1075,139.99
1087,144.09
1098,145.57
1109,144.64
1121,141.94
1133,138.23
1145,134.02
1157,129.29
1169,123.34
1181,115.12
1193,103.69
1205,88.68
1217,70.6
1229,50.52
1241,29.7
1253,9.14
1265,-10.62
1277,-29.35
1288,-46.9
1299,-63.02
1311,-77.42
1323,-89.88
1335,-100.47
1347,-109.56
1359,-117.53
1371,-124.64
1383,-130.92
1395,-136.03
1407,-139.4
1419,-140.34
1431,-138.34
1443,-133.16
1455,-125.11
1467,-114.93
1478,-103.57
1489,-91.85
1501,-80.26
1513,-68.92
1525,-57.79
1537,-46.95
1549,-36.64
1561,-27.21
1573,-18.86
1585,-11.64
1597,-5.47
1609,-0.36
1621,3.49
1633,5.83
1645,6.72
1657,6.66
1668,6.55
1679,7.39
1691,9.77
1703,13.68
1715,18.6
1727,23.77
1739,28.68
1751,33.5
1763,38.87
1775,45.55
1787,53.98
1799,64.04
1811,75.17
1823,86.65
1835,97.96
1847,108.97
1858,119.77
1869,130.36
1881,140.34
1893,149.05
1905,155.83
1917,160.55
1929,163.97
1941,167.56
1953,172.9
1965,180.68
1977,189.94
1989,197.97
2001,201.05
2013,195.75
2025,180.23
2037,154.97
2048,122.45
2059,86.08
2071,49.05
2083,13.44
2095,-20.16
2107,-52.5
2119,-85.24
2131,-119.96
2143,-156.93
2155,-193.97
2167,-225.95
2179,-245.5
2191,-244.9
2203,-218.88
2215,-166.83
2227,-93.73
2238,-9.32
2249,74.42
2261,145.95
2273,196.69
2285,222.1
2297,222.22
2309,200.78
2321,164.09
2333,119.32
2345,72.77
2357,28.49
2369,-12.24
2381,-50.34
2393,-87.47
2405,-124.43
2417,-160.32
2428,-192.9
2439,-219.86
2451,-240.16
2463,-254.41
2475,-264.48
2487,-272.2
2499,-278.59
2511,-283.59
2523,-286.72
2535,-287.62
2547,-286.44
2559,-283.6
2571,-279.08
2583,-272.37
2595,-262.29
2607,-247.82
2618,-228.35
2629,-204.29
2641,-177.16
2653,-149.36
2665,-123.99
2677,-103.76
2689,-90.41
2701,-83.72
2713,-81.75
2725,-81.71
2737,-81.26
2749,-79.35
2761,-76.1
2773,-72.04
2785,-66.7
2797,-58.37
2808,-44.52
2819,-23.23
2831,5.56
2843,39.51
2855,74.66
2867,106.81
2879,132.76
2891,151.31
2903,162.74
2915,168.32
2927,169.18
2939,165.65
2951,157.22
2963,143.19
2975,123.68
2987,100.26
2998,76.26
3009,55.86
3021,42.71
3033,38.43
3045,41.87
3057,49.58
3069,57.28
3081,61.69
3093,61.83
3105,59.24
3117,56.63
3129,56.26
3141,58.73
3153,62.7
3165,65.79
3177,66.07
3188,62.93
3199,57.26
3211,50.9
3223,45.19
3235,40.52
3247,36.34
3259,31.49
3271,25.2
3283,17.42
3295,8.67
3307,-0.36
3319,-9.02
3331,-16.96
3343,-23.69
3355,-28.39
3367,-30.21
3378,-28.61
3389,-24.09
3401,-18.51
3413,-14.77
3425,-15.79
3437,-23.47
3449,-37.9
3461,-56.87
3473,-76.54
3485,-92.01
3497,-98.79
3509,-94.35
3521,-78.95
3533,-55.73
3545,-29.77
3557,-6.29
3568,11.09
3579,21.25
3591,25.67
3603,27.14
3615,28.17
3627,30.01
3639,32.16
3651,33.13
3663,31.59
3675,27.31
3687,21.36
3699,15.81
3711,12.66
3723,12.87
3735,15.88
3747,19.84
3758,22.62
3769,22.87
3781,20.73
3793,17.44
3805,14.53
3817,12.74
3829,11.58
3841,9.67
3853,5.68
3865,-0.59
3877,-7.99
3889,-14.58
3901,-18.75
3913,-20.27
3925,-20.44
3937,-21.45
3948,-25.12
3959,-31.89
3971,-40.58
3983,-49.0
3995,-55.14
4007,-58.3
4019,-59.29
4031,-59.93
4043,-61.86
4055,-65.58
4067,-70.24
4079,-74.07
4091,-75.61
4103,-74.49
4115,-71.86
4127,-69.91
4138,-70.91
4149,-75.81
4161,-83.29
4173,-89.72
4185,-90.05
4197,-79.61
4209,-55.96
4221,-20.11
4233,23.63
4245,69.03
4257,109.99
4269,142.4
4281,164.76
4293,177.69
4305,182.89
4317,182.0
4328,176.39
4339,167.19
4351,155.66
4363,143.03
4375,130.39
4387,118.18
4399,106.49
4411,95.39
4423,85.27
4435,76.9
4447,70.98
4459,67.74
4471,66.65
4483,66.89
4495,67.87
4507,69.55
4518,72.12
4529,75.2
4541,77.51
4553,77.18
4565,72.52
4577,63.22
4589,50.6
4601,37.03
4613,24.73
4625,14.93
4637,7.65
4649,2.57
4661,-0.22
4673,-0.03
4685,3.97
4697,11.75
4708,21.93
4719,31.99
4731,39.35
4743,42.24
4755,40.43
4767,34.92
4779,27.34
4791,19.45
4803,12.85
4815,8.86
4827,8.13
4839,10.33
4851,13.89
4863,16.27
4875,14.94
4887,8.63
4898,-1.72
4909,-13.02
4921,-20.99
4933,-21.71
4945,-13.24
4957,3.87
4969,26.66
4981,50.85
4993,72.11
5005,87.28
5017,94.75
5029,94.52
5041,87.75
5053,76.13
5065,61.5
5077,45.45
5088,29.18
5099,13.48
5111,-1.17
5123,-14.63
5135,-26.95
5147,-38.04
5159,-47.73
5171,-55.65
5183,-61.63
5195,-65.86
5207,-68.95
5219,-71.75
5231,-74.88
5243,-78.68
5255,-83.14
5267,-88.32
5278,-94.35
5289,-101.39
5301,-109.35
5313,-117.55
5325,-125.12
5337,-131.4
5349,-136.41
5361,-140.86
5373,-145.7
5385,-151.3
5397,-157.15
5409,-162.14
5421,-165.28
5433,-166.44
5445,-166.55
5457,-166.98
5468,-168.49
5479,-170.72
5491,-172.24
5503,-171.24
5515,-166.74
5527,-158.98
5539,-149.49
5551,-140.32
5563,-133.16
5575,-128.69
5587,-126.5
5599,-125.52
5611,-124.55
5623,-122.68
5635,-119.21
5647,-113.32
5658,-103.88
5669,-89.55
5681,-69.42
5693,-43.61
5705,-13.53
5717,18.19
5729,48.62
5741,75.3
5753,96.89
5765,113.09
5777,124.11
5789,130.0
5801,130.31
5813,124.62
5825,113.15
5837,97.49
5848,80.69
5859,66.37
5871,57.52
5883,55.26
5895,58.46
5907,64.31
5919,69.81
5931,72.93
5943,73.29
5955,71.79
5967,69.68
5979,67.82
5991,66.3
6003,64.9
6015,63.48
6027,62.41
6038,62.07
6049,62.58
6061,63.12
6073,62.03
6085,57.61
6097,49.1
6109,37.37
6121,24.67
6133,13.65
6145,5.87
6157,1.1
6169,-2.52
6181,-7.48
6193,-15.33
6205,-26.0
6217,-37.95
6228,-49.19
6239,-58.25
6251,-64.76
6263,-69.27
6275,-72.73
6287,-76.43
6299,-81.69
6311,-89.8
6323,-101.38
6335,-115.44
6347,-128.56
6359,-135.19
6371,-129.44
6383,-107.53
6395,-70.06
6407,-22.19
6418,27.89
6429,72.0
6441,104.72
6453,124.58
6465,133.35
6477,134.15
6489,129.76
6501,121.65
6513,110.59
6525,97.29
6537,83.06
6549,69.7
6561,58.71
6573,50.84
6585,45.79
6597,42.63
6608,40.26
6619,38.06
6631,35.87
6643,33.96
6655,32.79
6667,32.61
6679,33.36
6691,34.42
6703,34.77
6715,33.31
6727,29.53
6739,23.82
6751,17.59
6763,12.51
6775,9.62
6787,8.66
6798,8.07
6809,6.0
6821,1.35
6833,-5.39
6845,-12.26
6857,-16.94
6869,-18.06
6881,-16.11
6893,-13.19
6905,-12.05
6917,-14.39
6929,-20.16
6941,-27.68
6953,-34.37
6965,-38.07
6977,-37.88
6988,-34.33
6999,-29.15
7011,-24.73
7023,-23.16
7035,-25.87
7047,-33.19
7059,-44.06
7071,-56.26
7083,-66.79
7095,-72.45
7107,-70.78
7119,-60.82
7131,-43.25
7143,-20.35
7155,4.72
7167,28.83
7178,49.52
7189,65.6
7201,77.09
7213,84.9
7225,90.07
7237,93.31
7249,94.47
7261,92.87
7273,87.9
7285,79.6
7297,69.13
7309,58.62
7321,50.44
7333,46.29
7345,46.6
7357,50.29
7368,55.49
7379,60.52
7391,64.56
7403,67.81
7415,70.93
7427,74.31
7439,77.57
7451,79.78
7463,79.91
7475,77.6
7487,73.48
7499,68.9
7511,65.27
7523,63.18
7535,62.05
7547,60.46
7558,56.82
7569,50.42
7581,41.72
7593,32.18
7605,23.51
7617,16.58
7629,10.99
7641,5.16
7653,-2.64
7665,-13.31
7677,-26.0
7689,-38.57
7701,-48.53
7713,-54.26
7725,-55.87
7737,-55.04
7748,-54.16
7759,-55.32
7771,-59.55
7783,-66.6
7795,-75.31
7807,-83.99
7819,-90.61
7831,-92.97
7843,-89.06
7855,-77.41
7867,-57.86
7879,-31.85
7891,-2.29
7903,27.06
7915,52.63
7927,71.99
7938,84.26
7949,90.14
7961,91.31
7973,89.49
7985,85.72
7997,80.09
8009,72.06
8021,61.36
8033,48.67
8045,35.66
8057,24.47
8069,16.72
8081,12.59
8093,10.8
8105,9.41
8117,6.8
8128,2.56
8139,-2.36
8151,-6.58
8163,-9.05
8175,-9.87
8187,-10.25
8199,-11.88
8211,-16.05
8223,-23.1
8235,-32.25
8247,-42.02
8259,-51.09
8271,-58.72
8283,-65.33
8295,-71.96
8307,-79.61
8318,-88.59
8329,-98.25
8341,-107.28
8353,-114.49
8365,-119.56
8377,-123.0
8389,-125.93
8401,-129.34
8413,-133.49
8425,-137.94
8437,-142.02
8449,-145.21
8461,-147.59
8473,-149.91
8485,-152.93
8497,-157.07
8508,-162.2
8519,-167.55
8531,-172.03
8543,-174.4
8555,-173.16
8567,-166.73
8579,-153.65
8591,-133.16
8603,-105.64
8615,-72.94
8627,-37.91
8639,-3.86
8651,26.32
8663,50.83
8675,68.97
8687,80.77
8698,86.5
8709,86.27
8721,80.32
8733,69.58
8745,56.04
8757,42.64
8769,32.47
8781,27.64
8793,28.53
8805,33.91
8817,41.35
8829,48.51
8841,53.97
8853,57.31
8865,58.88
8877,59.26
8888,58.78
8899,57.59
8911,55.84
8923,53.74
8935,51.62
8947,49.71
8959,47.91
8971,45.91
8983,43.37
8995,39.9
9007,35.23
9019,29.33
9031,22.35
9043,14.9
9055,7.95
9067,2.42
9078,-1.2
9089,-3.31
9101,-5.14
9113,-8.15
9125,-13.11
9137,-19.73
9149,-26.54
9161,-31.71
9173,-33.99
9185,-33.31
9197,-31.17
9209,-30.02
9221,-32.34
9233,-39.59
9245,-51.5
9257,-65.78
9268,-78.67
9279,-85.97
9291,-84.35
9303,-72.51
9315,-51.65
9327,-24.84
9339,3.79
9351,30.32
9363,52.13
9375,68.09
9387,78.48
9399,84.55
9411,87.79
9423,89.21
9435,89.15
9447,87.18
9458,82.44
9469,74.52
9481,64.01
9493,52.56
9505,42.55
9517,35.95
9529,33.61
9541,34.94
9553,38.41
9565,42.42
9577,46.08
9589,49.34
9601,52.54
9613,55.72
9625,58.12
9637,58.46
9648,55.62
9659,49.37
9671,40.62
9683,31.2
9695,22.77
9707,16.19
9719,11.22
9731,6.66
9743,1.36
9755,-5.08
9767,-11.95
9779,-17.71
9791,-20.75
9803,-20.5
9815,-17.9
9827,-15.0
9838,-14.28
9849,-17.34
9861,-24.16
9873,-33.22
9885,-42.06
9897,-48.48
9909,-51.36
9921,-51.04
9933,-48.89
9945,-46.71
9957,-46.08
9969,-48.05
9981,-53.0
9993,-60.44
10005,-69.14
10017,-76.98
10028,-81.17
10039,-78.96
10051,-68.49
10063,-49.57
10075,-24.04
10087,4.64
10099,32.49
10111,56.06
10123,73.35
10135,84.28
10147,90.21
10159,93.06
10171,94.41
10183,94.9
10195,94.11
10207,91.38
10218,86.53
10229,80.42
10241,74.81
10253,71.42
10265,71.08
10277,73.14
10289,75.86
10301,77.36
10313,76.81
10325,74.79
10337,72.96
10349,72.85
10361,74.76
10373,77.67
10385,79.75
10397,79.46
10408,76.51
10419,71.98
10431,67.63
10443,64.93
10455,64.34
10467,65.0
10479,65.3
10491,63.74
10503,59.39
10515,52.43
10527,43.84
10539,34.82
10551,26.45
10563,19.19
10575,12.9
10587,6.92
10598,0.54
10609,-6.94
10621,-15.72
10633,-25.57
10645,-35.86
10657,-45.49
10669,-53.26
10681,-58.12
10693,-59.69
10705,-58.57
10717,-56.55
10729,-56.15
10741,-59.82
10753,-68.99
10765,-83.16
10777,-99.73
10788,-114.49
10799,-122.79
10811,-120.99
10823,-107.72
10835,-84.08
10847,-53.31
10859,-19.71
10871,12.54
10883,40.2
10895,61.29
10907,75.21
10919,82.32
10931,83.65
10943,80.55
10955,74.32
10967,65.9
10978,55.99
10989,45.13
11001,34.05
11013,23.85
11025,15.64
11037,10.14
11049,7.03
11061,5.06
11073,2.51
11085,-1.66
11097,-7.27
11109,-13.03
11121,-17.35
11133,-19.51
11145,-20.27
11157,-21.53
11168,-25.22
11179,-32.33
11191,-42.2
11203,-53.03
11215,-62.85
11227,-70.42
11239,-75.77
11251,-79.94
11263,-84.27
11275,-89.75
11287,-96.79
11299,-105.16
11311,-114.37
11323,-123.73
11335,-132.4
11347,-139.43
11358,-143.76
11369,-144.45
11381,-141.2
11393,-134.68
11405,-126.56
11417,-118.99
11429,-113.8
11441,-111.52
11453,-111.12
11465,-110.44
11477,-107.14
11489,-100.22
11501,-90.58
11513,-80.75
11525,-73.78
11537,-71.81
11548,-74.94
11559,-81.31
11571,-87.67
11583,-90.52
11595,-87.15
11607,-76.04
11619,-57.17
11631,-31.87
11643,-2.6
11655,27.53
11667,55.34
11679,78.39
11691,95.48
11703,106.86
11715,113.89
11727,118.19
11738,120.79
11749,121.56
11761,119.6
11773,113.8
11785,104.04
11797,91.54
11809,78.67
11821,68.08
11833,61.62
11845,59.68
11857,61.36
11869,65.04
11881,69.11
11893,72.48
11905,74.52
11917,74.84
11928,73.26
11939,69.72
11951,64.54
11963,58.49
11975,52.51
11987,47.24
11999,42.77
12011,38.64
12023,34.25
12035,29.43
12047,24.56
12059,20.36
12071,17.43
12083,15.82
12095,14.92
12107,13.79
12118,11.83
12129,9.3
12141,7.55
12153,8.35
12165,12.92
12177,21.06
12189,30.64
12201,38.24
12213,40.24
12225,34.55
12237,21.51
12249,3.95
12261,-13.79
12273,-27.5
12285,-34.66
12297,-35.35
12308,-32.12
12319,-29.01
12331,-30.01
12343,-37.6
12355,-51.78
12367,-69.73
12379,-86.54
12391,-96.58
12403,-95.37
12415,-80.92
12427,-54.38
12439,-19.43
12451,18.91
12463,55.79
12475,87.66
12487,112.68
12498,130.62
12509,142.32
12521,149.32
12533,153.05
12545,154.41
12557,153.31
12569,148.78
12581,139.65
12593,125.33
12605,106.64
12617,85.93
12629,66.24
12641,50.02
12653,38.02
12665,29.08
12677,20.89
12688,11.35
12699,-0.42
12711,-13.8
12723,-27.08
12735,-38.57
12747,-47.24
12759,-53.06
12771,-56.48
12783,-58.0
12795,-57.66
12807,-55.19
12819,-50.57
12831,-44.24
12843,-37.39
12855,-31.44
12867,-27.47
12878,-25.61
12889,-25.31
12901,-25.5
12913,-25.31
12925,-24.45
12937,-23.28
12949,-22.46
12961,-22.49
12973,-23.33
12985,-24.38
12997,-24.85
13009,-24.23
13021,-22.61
13033,-20.65
13045,-19.14
13057,-18.46
13068,-18.23
13079,-17.54
13091,-15.76
13103,-13.35
13115,-12.19
13127,-14.9
13139,-23.44
13151,-37.58
13163,-54.38
13175,-68.86
13187,-75.83
13199,-71.92
13211,-56.82
13223,-33.16
13235,-5.12
13247,23.34
13258,49.66
13269,72.71
13281,92.24
13293,108.05
13305,119.72
13317,127.03
13329,130.13
13341,129.62
13353,126.19
13365,120.24
13377,111.91
13389,101.49
13401,90.07
13413,79.51
13425,71.86
13437,68.41
13448,68.9
13459,71.65
13471,74.59
13483,76.22
13495,76.27
13507,75.05
13519,72.95
13531,70.09
13543,66.39
13555,61.86
13567,57.05
13579,52.92
13591,50.26
13603,48.99
13615,47.71
13627,44.71
13638,39.01
13649,31.09
13661,22.57
13673,15.07
13685,9.27
13697,4.41
13709,-1.02
13721,-8.56
13733,-18.07
13745,-27.56
13757,-34.23
13769,-36.7
13781,-36.0
13793,-35.12
13805,-37.48
13817,-45.03
13828,-58.82
13839,-77.33
13851,-97.12
13863,-114.83
13875,-129.14
13887,-141.42
13899,-154.5
13911,-170.8
13923,-191.07
13935,-217.1
13947,-248.11
13959,-280.47
13971,-308.95
13983,-329.05
13995,-338.06
14007,-334.36
14018,-316.44
14029,-283.31
14041,-239.84
14053,-191.55
14065,-143.22
14077,-99.52
14089,-66.92
14101,-52.93
14113,-63.02
14125,-97.73
14137,-153.22
14149,-229.03
14161,-322.13
14173,-425.44
14185,-528.63
14197,-621.15
14208,-693.9
14219,-739.89
14231,-755.05
14243,-701.58
14255,-570.5
14267,-389.17
14279,-207.04
14291,-62.59
14303,32.68
14315,87.19
14327,113.23
14339,125.98
14351,132.58
14363,129.45
14375,114.39
14387,91.47
14398,70.2
14409,57.97
14421,58.07
14433,69.36
14445,88.4
14457,110.59
14469,127.73
14481,135.36
14493,134.95
14505,132.34
14517,133.07
14529,139.67
14541,151.38
14553,166.04
14565,180.82
14577,191.01
14588,194.62
14599,193.44
14611,191.86
14623,193.72
14635,200.57
14647,211.56
14659,224.91
14671,238.5
14683,249.68
14695,257.48
14707,263.07
14719,269.03
14731,277.91
14743,291.38
14755,309.88
14767,332.6
14778,357.11
14789,379.13
14801,393.94
14813,397.84
14825,389.28
14837,369.33
14849,341.14
14861,308.68
14873,275.49
14885,243.66
14897,213.92
14909,186.14
14921,160.25
14933,136.59
14945,115.69
14957,97.89
14968,82.85
14979,69.65
14991,57.41
15003,45.54
15015,34.05
15027,23.43
15039,14.43
15051,7.53
15063,2.74
15075,-0.55
15087,-3.32
15099,-6.43
15111,-10.4
15123,-15.27
15135,-20.62
15147,-25.53
15158,-29.33
15169,-31.68
15181,-32.76
15193,-32.99
15205,-32.72
15217,-32.22
15229,-31.58
15241,-30.75
15253,-29.01
15265,-25.98
15277,-21.54
15289,-16.01
15301,-9.88
15313,-3.48
15325,2.7
15337,8.23
15348,12.85
15359,17.67
15371,23.38
15383,30.0
15395,36.89
15407,43.18
15419,48.84
15431,54.12
15443,59.56
15455,65.82
15467,75.15
15479,88.58
15491,105.87
15503,126.24
15515,149.08
15527,175.18
15538,204.76
15549,236.46
15561,266.63
15573,292.04
15585,307.74
15597,308.72
15609,292.03
15621,258.04
15633,211.58
15645,158.85
15657,105.63
15669,43.83
15681,-25.07
15693,-92.44
15705,-147.36
15717,-181.01
15728,-198.42
15739,-206.12
15751,-210.44
15763,-215.19
15775,-223.25
15787,-233.84
15799,-245.36
15811,-255.66
15823,-262.38
15835,-264.09
15847,-260.11
15859,-252.12
15871,-243.58
15883,-238.32
15895,-237.2
15907,-239.85
15918,-245.26
15929,-251.92
15941,-258.48
15953,-263.21
15965,-264.23
15977,-259.62
15989,-247.8
16001,-227.24
16013,-198.66
16025,-165.18
16037,-131.07
16049,-100.67
16061,-77.35
16073,-62.5
16085,-55.54
16097,-54.27
16108,-55.53
16119,-56.63
16131,-56.16
16143,-53.67
16155,-44.12
16167,-25.58
16179,-0.23
16191,26.83
16203,51.2
16215,71.5
16227,88.64
16239,102.94
16251,116.16
16263,128.67
16275,139.3
16287,147.04
16298,151.79
16309,154.37
16321,155.08
16333,154.17
16345,151.68
16357,147.73
16369,142.23
16381,134.58
16393,124.51
16405,112.29
16417,98.69
16429,84.43
16441,70.1
16453,55.96
16465,42.26
16477,29.07
16488,16.2
16499,3.74
16511,-7.83
16523,-17.77
16535,-25.61
16547,-31.17
16559,-34.64
16571,-36.34
16583,-36.77
16595,-36.55
16607,-36.24
16619,-36.26
16631,-36.92
16643,-38.38
16655,-40.54
16667,-43.06
16678,-45.35
16689,-46.88
16701,-47.33
16713,-46.7
16725,-45.12
16737,-42.87
16749,-40.24
16761,-37.26
16773,-33.85
16785,-29.84
16797,-25.09
16809,-19.56
16821,-13.47
16833,-7.21
16845,-1.33
16857,3.48
16868,6.7
16879,7.96
16891,7.22
16903,4.79
16915,1.39
16927,-2.15
16939,-5.12
16951,-7.04
16963,-7.88
16975,-7.92
16987,-7.61
16999,-7.24
17011,-7.07
17023,-7.13
17035,-7.35
17047,-7.63
17058,-7.84
17069,-7.8
17081,-7.31
17093,-6.24
17105,-4.46
17117,-2.06
17129,0.75
17141,3.77
17153,6.83
17165,9.84
17177,12.77
17189,15.58
17201,18.22
17213,20.7
17225,23.13
17237,25.74
17248,28.97
17259,33.42
17271,39.71
17283,48.18
17295,58.6
17307,70.07
17319,80.97
17331,89.44
17343,93.93
17355,93.69
17367,88.92
17379,80.66
17391,70.3
17403,59.18
17415,48.28
17427,38.26
17438,29.52
17449,22.38
17461,17.0
17473,13.12
17485,10.09
17497,6.99
17509,2.9
17521,-2.87
17533,-10.47
17545,-19.52
17557,-29.29
17569,-38.9
17581,-47.77
17593,-55.53
17605,-62.05
17617,-67.41
17628,-71.73
17639,-75.17
17651,-77.83
17663,-79.77
17675,-81.0
17687,-81.48
17699,-81.24
17711,-80.15
17723,-78.13
17735,-75.06
17747,-70.89
17759,-65.71
17771,-59.75
17783,-53.29
17795,-46.59
17807,-39.9
17818,-33.45
17829,-27.53
17841,-22.54
17853,-18.87
17865,-16.79
17877,-16.15
17889,-16.28
17901,-16.23
17913,-15.05
17925,-12.26
17937,-8.08
17949,-3.33
17961,0.77
17973,3.05
17985,2.96
17997,0.74
18008,-2.51
18019,-5.13
18031,-5.49
18043,-2.89
18055,1.72
18067,5.59
18079,4.47
18091,-5.85
18103,-28.11
18115,-62.2
18127,-104.71
18139,-149.53
18151,-189.21
18163,-217.03
18175,-228.51
18187,-222.5
18198,-201.22
18209,-169.62
18221,-133.89
18233,-99.72
18245,-70.81
18257,-48.2
18269,-30.64
18281,-15.52
18293,0.12
18305,18.46
18317,40.32
18329,65.07
18341,91.15
18353,117.0
18365,142.11
18377,167.12
18388,193.83
18399,223.97
18411,257.39
18423,290.66
18435,317.5
18447,331.14
18459,327.1
18471,305.22
18483,268.51
18495,222.59
18507,173.92
18519,127.67
18531,85.93
18543,47.89
18555,11.52
18567,-24.48
18578,-59.51
18589,-93.54
18601,-124.82
18613,-149.48
18625,-162.87
18637,-162.65
18649,-150.55
18661,-131.45
18673,-111.2
18685,-94.48
18697,-87.88
18709,-94.72
18721,-112.51
18733,-133.42
18745,-148.47
18757,-151.45
18768,-140.33
18779,-117.45
18791,-88.77
18803,-68.11
18815,-68.52
18827,-96.16
18839,-148.18
18851,-216.66
18863,-293.04
18875,-370.2
18887,-442.89
18899,-473.19
18911,-436.23
18923,-336.5
18935,-206.17
18947,-78.64
18958,28.47
18969,111.32
18981,172.45
18993,216.39
19005,248.13
19017,266.81
19029,271.9
19041,266.51
19053,257.27
19065,250.17
19077,247.5
19089,248.5
19101,251.54
19113,255.21
19125,254.84
19137,247.29
19148,233.0
19159,215.76
19171,199.32
19183,184.99
19195,172.14
19207,159.95
19219,148.42
19231,135.11
19243,118.7
19255,99.79
19267,80.42
19279,61.82
19291,43.08
19303,21.49
19315,-6.42
19327,-36.94
19338,-69.76
19349,-104.31
19361,-139.61
19373,-174.44
19385,-208.25
19397,-241.6
19409,-276.02
19421,-313.34
19433,-355.06
19445,-402.63
19457,-454.52
19469,-505.52
19481,-547.37
19493,-571.42
19505,-572.11
19517,-549.16
19528,-507.65
19539,-455.99
19551,-403.23
19563,-355.28
19575,-314.22
19587,-279.0
19599,-247.72
19611,-219.22
19623,-193.34
19635,-170.22
19647,-149.43
19659,-130.05
19671,-110.56
19683,-89.94
19695,-68.16
19707,-46.27
19718,-26.04
19729,-8.92
19741,4.67
19753,15.34
19765,24.31
19777,33.05
19789,42.53
19801,53.01
19813,64.0
19825,74.57
19837,83.88
19849,91.63
19861,98.06
19873,103.81
19885,109.79
19897,116.63
19908,124.81
19919,134.44
19931,145.33
19943,157.24
19955,169.92
19967,183.18
19979,197.05
19991,211.6
20003,226.92
20015,243.05
20027,259.81
20039,276.99
20051,294.62
20063,313.2
20075,333.33
20087,355.27
20098,378.21
20109,399.89
20121,416.85
20133,425.19
20145,421.63
20157,404.37
20169,373.23
20181,329.62
20193,276.35
20205,217.47
20217,157.65
20229,101.48
20241,52.45
20253,12.31
20265,-19.06
20277,-43.21
20288,-62.39
20299,-78.81
20311,-94.26
20323,-109.97
20335,-126.23
20347,-142.17
20359,-155.49
20371,-163.17
20383,-162.65
20395,-153.1
20407,-135.95
20419,-114.28
20431,-91.61
20443,-70.28
20455,-51.12
20467,-33.93
20478,-18.58
20489,-5.58
20501,3.99
20513,9.32
20525,10.61
20537,9.39
20549,8.01
20561,8.5
20573,11.71
20585,17.0
20597,22.47
20609,25.95
20621,25.91
20633,22.17
20645,16.1
20657,10.46
20668,8.64
20679,13.5
20691,26.31
20703,45.8
20715,68.41
20727,89.45
20739,104.93
20751,113.34
20763,116.31
20775,117.72
20787,121.81
20799,131.19
20811,145.73
20823,163.14
20835,180.29
20847,194.8
20858,205.45
20869,211.89
20881,213.7
20893,210.04
20905,200.15
20917,184.28
20929,164.47
20941,144.37
20953,128.08
20965,118.45
20977,115.88
20989,118.06
