seconds,BVP
11,4.76
23,5.26
35,5.73
47,6.07
59,6.33
71,6.65
83,7.17
95,7.91
107,8.67
118,9.09
129,8.85
141,7.88
153,6.47
165,5.17
177,4.47
189,4.51
201,4.99
213,5.32
225,4.99
237,3.89
249,2.32
261,0.83
273,-0.21
285,-0.77
297,-1.17
308,-1.83
319,-3.06
331,-4.85
343,-6.96
355,-9.09
367,-11.05
379,-12.79
391,-14.31
403,-15.57
415,-16.46
427,-16.91
439,-16.97
451,-16.96
463,-17.3
475,-18.34
487,-20.1
498,-22.17
509,-23.8
521,-24.19
533,-22.86
545,-19.79
557,-15.45
569,-10.59
581,-5.85
593,-1.57
605,2.23
617,5.74
629,9.14
641,12.44
653,15.41
665,17.74
677,19.11
688,19.42
699,18.73
711,17.17
723,15.04
735,12.64
747,10.37
759,8.67
771,7.94
783,8.41
795,10.06
807,12.54
819,15.3
831,17.8
843,19.68
855,20.85
867,21.43
878,21.55
889,21.29
901,20.58
913,19.3
925,17.37
937,14.82
949,11.77
961,8.4
973,4.9
985,1.4
997,-1.93
1009,-4.97
1021,-7.55
1033,-9.5
1045,-10.68
1057,-11.0
1068,-10.5
1079,-9.41
1091,-8.16
1103,-7.33
1115,-7.4
1127,-8.57
1139,-10.63
1151,-12.96
1163,-14.83
1175,-15.68
1187,-15.39
1199,-14.29
1211,-13.03
1223,-12.27
1235,-12.52
1247,-13.87
1258,-16.13
1269,-18.75
1281,-21.0
1293,-22.17
1305,-21.73
1317,-19.5
1329,-15.69
1341,-10.91
1353,-5.9
1365,-1.35
1377,2.37
1389,5.35
1401,8.0
1413,10.87
1425,14.29
1437,18.1
1448,21.64
1459,23.97
1471,24.24
1483,22.11
1495,17.98
1507,12.86
1519,8.06
1531,4.68
1543,3.2
1555,3.39
1567,4.43
1579,5.3
1591,5.17
1603,3.71
1615,1.15
1627,-1.84
1638,-4.5
1649,-6.27
1661,-6.9
1673,-6.6
1685,-5.8
1697,-5.05
1709,-4.8
1721,-5.34
1733,-6.66
1745,-8.52
1757,-10.61
1769,-12.59
1781,-14.25
1793,-15.59
1805,-16.72
1817,-17.77
1828,-18.76
1839,-19.55
1851,-19.93
1863,-19.74
1875,-18.95
1887,-17.71
1899,-16.2
1911,-14.59
1923,-12.92
1935,-11.19
1947,-9.42
1959,-7.74
1971,-6.45
1983,-5.92
1995,-6.48
2007,-8.25
2018,-10.99
2029,-14.12
2041,-16.96
2053,-18.88
2065,-19.5
2077,-18.74
2089,-16.68
2101,-13.41
2113,-8.96
2125,-3.37
2137,3.09
2149,9.78
2161,15.74
2173,20.04
2185,22.12
2197,22.06
2208,20.49
2219,18.34
2231,16.32
2243,14.71
2255,13.33
2267,11.82
2279,9.95
2291,7.82
2303,5.86
2315,4.49
2327,3.95
2339,4.13
2351,4.72
2363,5.38
2375,5.91
2387,6.26
2398,6.51
2409,6.72
2421,6.93
2433,7.23
2445,7.73
2457,8.58
2469,9.83
2481,11.37
2493,12.96
2505,14.25
2517,15.0
2529,15.12
2541,14.68
2553,13.85
2565,12.75
2577,11.4
2588,9.74
2599,7.77
2611,5.57
2623,3.38
2635,1.58
2647,0.54
2659,0.56
2671,1.73
2683,3.83
2695,6.42
2707,8.86
2719,10.49
2731,10.78
2743,9.52
2755,6.84
2767,3.23
2778,-0.65
2789,-4.1
2801,-6.56
2813,-7.72
2825,-7.46
2837,-5.76
2849,-2.74
2861,1.36
2873,6.06
2885,10.74
2897,14.72
2909,17.45
2921,18.74
2933,18.66
2945,17.54
2957,15.67
2968,13.21
2979,10.18
2991,6.67
3003,2.98
3015,-0.33
3027,-2.63
3039,-3.5
3051,-2.99
3063,-1.6
3075,-0.05
3087,1.1
3099,1.74
3111,2.17
3123,2.93
3135,4.34
3147,6.23
3158,8.02
3169,9.0
3181,8.72
3193,7.24
3205,5.04
3217,2.8
3229,0.96
3241,-0.42
3253,-1.59
3265,-2.9
3277,-4.56
3289,-6.57
3301,-8.75
3313,-10.92
3325,-12.98
3337,-14.89
3348,-16.61
3359,-17.94
3371,-18.61
3383,-18.36
3395,-17.13
3407,-15.3
3419,-13.58
3431,-12.85
3443,-13.77
3455,-16.5
3467,-20.61
3479,-25.15
3491,-29.02
3503,-31.24
3515,-31.2
3527,-28.72
3538,-23.99
3549,-17.51
3561,-9.97
3573,-2.16
3585,5.18
3597,11.46
3609,16.39
3621,19.9
3633,22.17
3645,23.38
3657,23.68
3669,23.14
3681,21.83
3693,19.93
3705,17.73
3717,15.59
3728,13.76
3739,12.37
3751,11.39
3763,10.75
3775,10.44
3787,10.53
3799,11.17
3811,12.38
3823,13.99
3835,15.66
3847,16.9
3859,17.4
3871,17.03
3883,15.95
3895,14.47
3907,12.81
3918,11.04
3929,9.0
3941,6.54
3953,3.62
3965,0.42
3977,-2.67
3989,-5.19
4001,-6.89
4013,-7.79
4025,-8.2
4037,-8.53
4049,-9.1
4061,-10.06
4073,-11.3
4085,-12.61
4097,-13.73
4108,-14.51
4119,-14.97
4131,-15.23
4143,-15.53
4155,-16.15
4167,-17.38
4179,-19.42
4191,-22.28
4203,-25.72
4215,-29.23
4227,-32.16
4239,-33.84
4251,-33.77
4263,-31.75
4275,-27.85
4287,-22.36
4298,-15.72
4309,-8.45
4321,-1.14
4333,5.61
4345,11.26
4357,15.48
4369,18.2
4381,19.61
4393,20.06
4405,19.81
4417,19.02
4429,17.71
4441,15.95
4453,13.97
4465,12.16
4477,10.97
4488,10.71
4499,11.35
4511,12.54
4523,13.68
4535,14.25
4547,13.98
4559,12.96
4571,11.62
4583,10.46
4595,9.9
4607,10.04
4619,10.63
4631,11.21
4643,11.27
4655,10.52
4667,8.98
4678,6.99
4689,4.95
4701,3.13
4713,1.56
4725,-0.06
4737,-2.01
4749,-4.47
4761,-7.26
4773,-9.94
4785,-11.98
4797,-13.07
4809,-13.27
4821,-13.02
4833,-12.92
4845,-13.45
4857,-14.74
4868,-16.56
4879,-18.38
4891,-19.71
4903,-20.25
4915,-20.07
4927,-19.6
4939,-19.42
4951,-20.04
4963,-21.68
4975,-24.21
4987,-27.18
4999,-29.95
5011,-31.92
5023,-32.6
5035,-31.71
5047,-29.2
5058,-25.21
5069,-20.03
5081,-14.12
5093,-8.0
5105,-2.19
5117,2.91
5129,7.04
5141,10.13
5153,12.15
5165,13.11
5177,12.97
5189,11.71
5201,9.4
5213,6.34
5225,3.04
5237,0.14
5248,-1.78
5259,-2.46
5271,-2.04
5283,-0.93
5295,0.38
5307,1.59
5319,2.74
5331,4.12
5343,6.05
5355,8.67
5367,11.77
5379,14.89
5391,17.49
5403,19.18
5415,19.82
5427,19.54
5438,18.65
5449,17.48
5461,16.26
5473,15.08
5485,13.89
5497,12.59
5509,11.08
5521,9.45
5533,7.9
5545,6.7
5557,6.06
5569,6.01
5581,6.27
5593,6.45
5605,6.15
5617,5.21
5628,3.75
5639,2.13
5651,0.68
5663,-0.4
5675,-1.18
5687,-1.95
5699,-3.07
5711,-4.82
5723,-7.21
5735,-10.07
5747,-12.98
5759,-15.52
5771,-17.35
5783,-18.36
5795,-18.63
5807,-18.35
5818,-17.7
5829,-16.68
5841,-15.12
5853,-12.71
5865,-9.17
5877,-4.37
5889,1.52
5901,8.11
5913,14.79
5925,20.92
5937,25.86
5949,29.12
5961,30.42
5973,29.75
5985,27.37
5997,23.82
6008,19.79
6019,16.0
6031,13.01
6043,11.14
6055,10.33
6067,10.22
6079,10.26
6091,9.96
6103,9.05
6115,7.59
6127,5.9
6139,4.41
6151,3.44
6163,3.03
6175,2.99
6187,3.0
6198,2.73
6209,1.97
6221,0.66
6233,-1.19
6245,-3.5
6257,-6.13
6269,-8.92
6281,-11.66
6293,-14.16
6305,-16.26
6317,-17.94
6329,-19.22
6341,-20.16
6353,-20.78
6365,-20.99
6377,-20.64
6388,-19.58
6399,-17.68
6411,-14.96
6423,-11.58
6435,-7.89
6447,-4.38
6459,-1.66
6471,-0.29
6483,-0.68
6495,-2.81
6507,-6.24
6519,-10.16
6531,-13.68
6543,-16.06
6555,-16.97
6567,-16.48
6578,-14.88
6589,-12.51
6601,-9.57
6613,-6.07
6625,-2.0
6637,2.69
6649,7.95
6661,13.69
6673,19.67
6685,25.55
6697,30.8
6709,34.76
6721,36.84
6733,36.67
6745,34.33
6757,30.32
6768,25.44
6779,20.55
6791,16.34
6803,13.21
6815,11.23
6827,10.15
6839,9.5
6851,8.74
6863,7.51
6875,5.84
6887,4.3
6899,3.87
6911,5.57
6923,9.95
6935,16.81
6947,25.04
6958,33.01
6969,39.17
6981,42.56
6993,43.13
7005,41.55
7017,38.75
7029,35.43
7041,31.76
7053,27.44
7065,22.11
7077,15.74
7089,8.84
7101,2.39
7113,-2.61
7125,-5.53
7137,-6.42
7148,-5.96
7159,-5.15
7171,-4.88
7183,-5.62
7195,-7.36
7207,-9.8
7219,-12.52
7231,-15.22
7243,-17.82
7255,-20.35
7267,-22.95
7279,-25.71
7291,-28.72
7303,-32.06
7315,-35.75
7327,-39.66
7338,-43.46
7349,-46.59
7361,-48.42
7373,-48.42
7385,-46.31
7397,-42.14
7409,-36.23
7421,-29.18
7433,-21.69
7445,-14.6
7457,-8.74
7469,-4.76
7481,-2.89
7493,-2.88
7505,-3.92
7517,-4.92
7528,-4.83
7539,-3.01
7551,0.51
7563,5.1
7575,9.73
7587,13.37
7599,15.31
7611,15.37
7623,13.9
7635,11.48
7647,8.69
7659,5.84
7671,3.02
7683,0.19
7695,-2.58
7707,-4.99
7718,-6.62
7729,-7.14
7741,-6.5
7753,-5.07
7765,-3.45
7777,-2.24
7789,-1.8
7801,-2.16
7813,-3.04
7825,-4.18
7837,-5.47
7849,-7.09
7861,-9.4
7873,-12.66
7885,-16.86
7897,-21.63
7908,-26.4
7919,-30.61
7931,-33.98
7943,-36.6
7955,-38.78
7967,-40.85
7979,-42.87
7991,-44.72
8003,-46.14
8015,-47.02
8027,-47.55
8039,-48.22
8051,-49.58
8063,-52.0
8075,-55.5
8087,-59.68
8098,-63.93
8109,-67.55
8121,-69.92
8133,-70.56
8145,-69.08
8157,-65.14
8169,-58.51
8181,-49.08
8193,-37.03
8205,-22.91
8217,-7.64
8229,7.6
8241,21.58
8253,33.3
8265,42.18
8277,48.11
8288,51.29
8299,52.04
8311,50.61
8323,47.18
8335,42.02
8347,35.66
8359,28.94
8371,22.81
8383,18.05
8395,14.99
8407,13.41
8419,12.72
8431,12.18
8443,11.2
8455,9.44
8467,6.92
8478,4.0
8489,1.38
8501,-0.05
8513,0.5
8525,3.47
8537,8.72
8549,15.64
8561,23.34
8573,31.05
8585,38.35
8597,45.09
8609,51.25
8621,56.71
8633,61.1
8645,64.0
8657,65.03
8668,64.07
8679,61.32
8691,57.28
8703,52.6
8715,47.96
8727,43.91
8739,40.73
8751,38.38
8763,36.57
8775,34.85
8787,32.83
8799,30.32
8811,27.32
8823,23.99
8835,20.55
8847,17.25
8858,14.32
8869,11.97
8881,10.33
8893,9.32
8905,8.66
8917,7.91
8929,6.68
8941,4.9
8953,2.92
8965,1.36
8977,0.77
8989,1.3
9001,2.48
9013,3.51
9025,3.62
9037,2.67
9048,1.31
9059,0.71
9071,1.98
9083,5.52
9095,10.69
9107,16.03
9119,19.95
9131,21.42
9143,20.44
9155,17.96
9167,15.26
9179,13.38
9191,12.55
9203,12.29
9215,11.67
9227,9.89
9238,6.69
9249,2.4
9261,-2.16
9273,-6.09
9285,-8.76
9297,-9.96
9309,-9.96
9321,-9.37
9333,-8.88
9345,-9.13
9357,-10.47
9369,-12.91
9381,-16.18
9393,-19.76
9405,-22.98
9417,-25.19
9428,-25.84
9439,-24.7
9451,-21.99
9463,-18.44
9475,-15.1
9487,-13.14
9499,-13.43
9511,-16.18
9523,-20.86
9535,-26.26
9547,-30.91
9559,-33.46
9571,-33.14
9583,-29.91
9595,-24.4
9607,-17.68
9618,-10.79
9629,-4.44
9641,1.16
9653,6.23
9665,11.13
9677,16.1
9689,20.97
9701,25.19
9713,27.97
9725,28.66
9737,27.03
9749,23.43
9761,18.73
9773,14.06
9785,10.38
9797,8.26
9808,7.68
9819,8.17
9831,9.01
9843,9.52
9855,9.2
9867,7.87
9879,5.58
9891,2.65
9903,-0.47
9915,-3.26
9927,-5.23
9939,-6.1
9951,-5.86
9963,-4.78
9975,-3.25
9987,-1.66
9998,-0.26
10009,0.83
10021,1.54
10033,1.73
10045,1.23
10057,-0.16
10069,-2.42
10081,-5.28
10093,-8.23
10105,-10.7
10117,-12.3
10129,-12.97
10141,-13.02
10153,-12.97
10165,-13.37
10177,-14.5
10188,-16.37
10199,-18.74
10211,-21.21
10223,-23.41
10235,-25.01
10247,-25.78
10259,-25.57
10271,-24.27
10283,-21.86
10295,-18.43
10307,-14.24
10319,-9.62
10331,-5.02
10343,-0.83
10355,2.73
10367,5.61
10378,7.92
10389,9.83
10401,11.45
10413,12.75
10425,13.6
10437,13.9
10449,13.64
10461,12.94
10473,12.05
10485,11.16
10497,10.39
10509,9.76
10521,9.28
10533,9.01
10545,9.09
10557,9.67
10568,10.72
10579,12.03
10591,13.19
10603,13.76
10615,13.45
10627,12.21
10639,10.27
10651,8.03
10663,5.93
10675,4.29
10687,3.25
10699,2.75
10711,2.54
10723,2.35
10735,1.95
10747,1.2
10758,0.14
10769,-1.07
10781,-2.21
10793,-3.1
10805,-3.63
10817,-3.77
10829,-3.63
10841,-3.38
10853,-3.35
10865,-4.03
10877,-5.97
10889,-9.62
10901,-15.07
10913,-21.88
10925,-29.17
10937,-35.82
10948,-40.95
10959,-44.07
10971,-45.2
10983,-44.61
10995,-42.55
11007,-39.15
11019,-34.47
11031,-28.74
11043,-22.47
11055,-16.38
11067,-11.15
11079,-7.16
11091,-4.43
11103,-2.62
11115,-1.36
11127,-0.42
11138,0.3
11149,0.81
11161,1.18
11173,1.66
11185,2.57
11197,4.14
11209,6.4
11221,9.01
11233,11.41
11245,12.98
11257,13.35
11269,12.54
11281,10.97
11293,9.27
11305,8.04
11317,7.64
11328,8.13
11339,9.33
11351,10.93
11363,12.56
11375,13.86
11387,14.48
11399,14.12
11411,12.62
11423,9.97
11435,6.41
11447,2.33
11459,-1.75
11471,-5.4
11483,-8.3
11495,-10.36
11507,-11.72
11518,-12.63
11529,-13.35
11541,-13.96
11553,-14.4
11565,-14.39
11577,-13.69
11589,-12.17
11601,-9.87
11613,-6.97
11625,-3.69
11637,-0.26
11649,3.06
11661,5.89
11673,7.8
11685,8.47
11697,7.87
11708,6.38
11719,4.8
11731,3.97
11743,4.61
11755,6.97
11767,10.87
11779,15.75
11791,20.89
11803,25.6
11815,29.28
11827,31.49
11839,31.97
11851,30.71
11863,27.98
11875,24.29
11887,20.22
11898,16.34
11909,13.03
11921,10.46
11933,8.69
11945,7.68
11957,7.35
11969,7.59
11981,8.22
11993,9.06
12005,9.93
12017,10.71
12029,11.31
12041,11.63
12053,11.54
12065,10.88
12077,9.66
12088,8.03
12099,6.33
12111,4.88
12123,3.9
12135,3.3
12147,2.81
12159,2.06
12171,0.74
12183,-1.25
12195,-3.85
12207,-6.86
12219,-10.03
12231,-13.05
12243,-15.6
12255,-17.38
12267,-18.19
12278,-17.99
12289,-16.97
12301,-15.45
12313,-13.82
12325,-12.49
12337,-11.79
12349,-11.93
12361,-12.95
12373,-14.75
12385,-16.99
12397,-19.19
12409,-20.75
12421,-21.13
12433,-19.99
12445,-17.35
12457,-13.61
12468,-9.42
12479,-5.4
12491,-1.94
12503,0.98
12515,3.7
12527,6.62
12539,9.88
12551,13.24
12563,16.08
12575,17.75
12587,17.89
12599,16.68
12611,14.76
12623,13.02
12635,12.19
12647,12.57
12658,13.92
12669,15.68
12681,17.22
12693,18.11
12705,18.24
12717,17.79
12729,17.02
12741,16.16
12753,15.29
12765,14.32
12777,13.11
12789,11.6
12801,9.89
12813,8.22
12825,6.82
12837,5.76
12848,4.86
12859,3.74
12871,2.02
12883,-0.41
12895,-3.32
12907,-6.16
12919,-8.3
12931,-9.35
12943,-9.39
12955,-8.95
12967,-8.76
12979,-9.42
12991,-11.13
13003,-13.59
13015,-16.11
13027,-17.99
13038,-18.71
13049,-18.17
13061,-16.69
13073,-14.86
13085,-13.42
13097,-13.01
13109,-14.02
13121,-16.47
13133,-19.91
13145,-23.51
13157,-26.23
13169,-27.1
13181,-25.55
13193,-21.61
13205,-15.87
13217,-9.27
13228,-2.71
13239,3.17
13251,8.18
13263,12.45
13275,16.19
13287,19.51
13299,22.29
13311,24.26
13323,25.15
13335,24.86
13347,23.54
13359,21.57
13371,19.37
13383,17.35
13395,15.77
13407,14.72
13418,14.2
13429,14.18
13441,14.61
13453,15.39
13465,16.36
13477,17.24
13489,17.71
13501,17.43
13513,16.22
13525,14.06
13537,11.12
13549,7.68
13561,4.07
13573,0.66
13585,-2.26
13597,-4.51
13608,-6.13
13619,-7.42
13631,-8.92
13643,-11.19
13655,-14.52
13667,-18.72
13679,-23.12
13691,-26.8
13703,-29.09
13715,-29.88
13727,-29.68
13739,-29.35
13751,-29.6
13763,-30.58
13775,-31.84
13787,-32.54
13798,-32.0
13809,-30.04
13821,-27.15
13833,-24.24
13845,-22.23
13857,-21.59
13869,-22.26
13881,-23.69
13893,-25.12
13905,-25.89
13917,-25.6
13929,-24.14
13941,-21.61
13953,-18.19
13965,-14.03
13977,-9.26
13988,-4.01
13999,1.54
14011,7.12
14023,12.32
14035,16.73
14047,19.92
14059,21.61
14071,21.66
14083,20.11
14095,17.25
14107,13.55
14119,9.7
14131,6.42
14143,4.36
14155,3.84
14167,4.75
14178,6.52
14189,8.36
14201,9.59
14213,9.93
14225,9.58
14237,9.08
14249,9.01
14261,9.65
14273,10.93
14285,12.42
14297,13.63
14309,14.22
14321,14.13
14333,13.49
14345,12.49
14357,11.27
14368,9.83
14379,8.11
14391,6.06
14403,3.76
14415,1.37
14427,-0.88
14439,-2.88
14451,-4.59
14463,-6.1
14475,-7.52
14487,-8.86
14499,-10.0
14511,-10.74
14523,-10.93
14535,-10.6
14547,-9.97
14558,-9.32
14569,-8.84
14581,-8.62
14593,-8.62
14605,-8.82
14617,-9.24
14629,-9.85
14641,-10.52
14653,-10.82
14665,-10.25
14677,-8.38
14689,-5.18
14701,-1.04
14713,3.36
14725,7.45
14737,11.0
14748,14.22
14759,17.52
14771,21.15
14783,24.93
14795,28.2
14807,30.08
14819,29.81
14831,27.12
14843,22.42
14855,16.7
14867,11.24
14879,7.19
14891,5.14
14903,4.97
14915,6.0
14927,7.29
14938,8.14
14949,8.24
14961,7.81
14973,7.24
14985,6.89
14997,6.91
15009,7.17
15021,7.46
15033,7.66
15045,7.78
15057,7.91
15069,8.08
15081,8.19
15093,8.02
15105,7.35
15117,6.11
15128,4.44
15139,2.66
15151,1.15
15163,0.11
15175,-0.51
15187,-0.99
15199,-1.7
15211,-2.89
15223,-4.59
15235,-6.57
15247,-8.48
15259,-10.03
15271,-11.06
15283,-11.59
15295,-11.73
15307,-11.7
15318,-11.69
15329,-11.89
15341,-12.45
15353,-13.41
15365,-14.7
15377,-16.12
15389,-17.35
15401,-18.08
15413,-18.03
15425,-17.04
15437,-15.07
15449,-12.17
15461,-8.45
15473,-4.09
15485,0.62
15497,5.37
15508,9.79
15519,13.58
15531,16.48
15543,18.32
15555,19.0
15567,18.56
15579,17.13
15591,15.02
15603,12.64
15615,10.43
15627,8.77
15639,7.83
15651,7.58
15663,7.78
15675,8.15
15687,8.4
15698,8.41
15709,8.17
15721,7.76
15733,7.27
15745,6.81
15757,6.43
15769,6.16
15781,5.93
15793,5.66
15805,5.29
15817,4.81
15829,4.27
15841,3.75
15853,3.27
15865,2.72
15877,1.93
15888,0.73
15899,-0.81
15911,-2.45
15923,-3.81
15935,-4.62
15947,-4.85
15959,-4.75
15971,-4.72
15983,-5.04
15995,-5.82
16007,-6.91
16019,-8.05
16031,-9.02
16043,-9.76
16055,-10.32
16067,-10.87
16078,-11.58
16089,-12.6
16101,-14.02
16113,-15.86
16125,-18.01
16137,-20.27
16149,-22.22
16161,-23.34
16173,-23.13
16185,-21.24
16197,-17.67
16209,-12.77
16221,-7.13
16233,-1.4
16245,3.95
16257,8.7
16268,12.88
16279,16.54
16291,19.62
16303,21.89
16315,23.0
16327,22.73
16339,21.1
16351,18.52
16363,15.63
16375,13.13
16387,11.5
16399,10.86
16411,10.9
16423,11.17
16435,11.21
16447,10.88
16458,10.32
16469,9.86
16481,9.77
16493,10.09
16505,10.57
16517,10.77
16529,10.33
16541,9.14
16553,7.37
16565,5.44
16577,3.77
16589,2.63
16601,1.99
16613,1.58
16625,0.98
16637,-0.21
16648,-2.21
16659,-4.96
16671,-8.19
16683,-11.44
16695,-14.18
16707,-16.03
16719,-16.85
16731,-16.82
16743,-16.39
16755,-16.12
16767,-16.43
16779,-17.45
16791,-18.98
16803,-20.57
16815,-21.74
16827,-22.19
16838,-21.88
16849,-21.09
16861,-20.31
16873,-20.07
16885,-20.82
16897,-22.65
16909,-25.34
16921,-28.26
16933,-30.63
16945,-31.68
16957,-30.99
16969,-28.48
16981,-24.45
16993,-19.38
17005,-13.81
17017,-8.18
17028,-2.91
17039,1.74
17051,5.56
17063,8.49
17075,10.61
17087,12.06
17099,12.96
17111,13.3
17123,12.94
17135,11.76
17147,9.83
17159,7.51
17171,5.3
17183,3.69
17195,2.87
17207,2.68
17218,2.75
17229,2.77
17241,2.65
17253,2.63
17265,3.01
17277,3.95
17289,5.34
17301,6.85
17313,8.18
17325,9.2
17337,10.0
17349,10.74
17361,11.48
17373,12.07
17385,12.21
17397,11.66
17408,10.38
17419,8.58
17431,6.55
17443,4.48
17455,2.39
17467,0.19
17479,-2.2
17491,-4.64
17503,-6.87
17515,-8.52
17527,-9.33
17539,-9.18
17551,-8.18
17563,-6.52
17575,-4.42
17587,-2.08
17598,0.3
17609,2.55
17621,4.4
17633,5.6
17645,5.87
17657,5.03
17669,3.13
17681,0.4
17693,-2.72
17705,-5.68
17717,-7.98
17729,-9.32
17741,-9.64
17753,-9.15
17765,-8.17
17777,-6.9
17788,-5.37
17799,-3.37
17811,-0.56
17823,3.3
17835,8.08
17847,13.32
17859,18.16
17871,21.69
17883,23.22
17895,22.47
17907,19.71
17919,15.62
17931,11.11
17943,7.07
17955,4.22
17967,2.9
17978,3.09
17989,4.41
18001,6.29
18013,8.17
18025,9.68
18037,10.75
18049,11.54
18061,12.31
18073,13.2
18085,14.23
18097,15.24
18109,16.05
18121,16.51
18133,16.55
18145,16.09
18157,15.0
18168,13.03
18179,9.95
18191,5.75
18203,0.74
18215,-4.4
18227,-8.81
18239,-11.72
18251,-12.75
18263,-12.05
18275,-10.24
18287,-8.19
18299,-6.75
18311,-6.41
18323,-7.32
18335,-9.21
18347,-11.61
18358,-14.01
18369,-16.02
18381,-17.45
18393,-18.37
18405,-19.03
18417,-19.72
18429,-20.71
18441,-22.06
18453,-23.59
18465,-24.95
18477,-25.69
18489,-25.36
18501,-23.69
18513,-20.61
18525,-16.31
18537,-11.25
18548,-6.01
18559,-1.19
18571,2.82
18583,5.95
18595,8.42
18607,10.58
18619,12.7
18631,14.75
18643,16.37
18655,17.11
18667,16.61
18679,14.87
18691,12.28
18703,9.47
18715,7.05
18727,5.42
18738,4.68
18749,4.68
18761,5.17
18773,5.82
18785,6.35
18797,6.53
18809,6.19
18821,5.3
18833,3.95
18845,2.34
18857,0.72
18869,-0.67
18881,-1.63
18893,-2.03
18905,-1.75
18917,-0.75
18928,0.86
18939,2.85
18951,4.8
18963,6.21
18975,6.7
18987,6.09
18999,4.5
19011,2.26
19023,-0.22
19035,-2.52
19047,-4.39
19059,-5.76
19071,-6.73
19083,-7.51
19095,-8.32
19107,-9.32
19118,-10.51
19129,-11.75
19141,-12.84
19153,-13.58
19165,-13.95
19177,-14.09
19189,-14.34
19201,-15.06
19213,-16.51
19225,-18.73
19237,-21.49
19249,-24.32
19261,-26.62
19273,-27.84
19285,-27.57
19297,-25.68
19308,-22.32
19319,-17.82
19331,-12.58
19343,-6.97
19355,-1.29
19367,4.28
19379,9.56
19391,14.39
19403,18.55
19415,21.84
19427,24.03
19439,24.89
19451,24.26
19463,22.08
19475,18.55
19487,14.13
19498,9.56
19509,5.66
19521,3.08
19533,2.04
19545,2.34
19557,3.43
19569,4.72
19581,5.76
19593,6.45
19605,6.89
19617,7.25
19629,7.58
19641,7.76
19653,7.59
19665,7.0
19677,6.08
19688,5.14
19699,4.49
19711,4.29
19723,4.41
19735,4.44
19747,3.91
19759,2.56
19771,0.48
19783,-1.91
19795,-4.03
19807,-5.44
19819,-6.07
19831,-6.2
19843,-6.29
19855,-6.72
19867,-7.61
19878,-8.79
19889,-9.98
19901,-10.92
19913,-11.51
19925,-11.82
19937,-11.98
19949,-12.1
19961,-12.32
19973,-12.77
19985,-13.6
19997,-14.9
20009,-16.53
20021,-18.13
20033,-19.23
20045,-19.43
20057,-18.62
20068,-16.99
20079,-14.89
20091,-12.55
20103,-9.98
20115,-6.93
20127,-3.14
20139,1.5
20151,6.78
20163,12.26
20175,17.38
20187,21.65
20199,24.65
20211,26.11
20223,25.88
20235,24.01
20247,20.81
20258,16.88
20269,13.02
20281,10.02
20293,8.46
20305,8.49
20317,9.86
20329,12.01
20341,14.3
20353,16.28
20365,17.77
20377,18.85
20389,19.72
20401,20.53
20413,21.29
20425,21.84
20437,21.92
20448,21.3
20459,19.86
20471,17.67
20483,15.02
20495,12.28
20507,9.79
20519,7.72
20531,5.92
20543,4.13
20555,2.04
20567,-0.39
20579,-2.94
20591,-5.17
20603,-6.67
20615,-7.31
20627,-7.35
20638,-7.29
20649,-7.58
20661,-8.39
20673,-9.58
20685,-10.85
20697,-11.98
20709,-13.0
20721,-14.17
20733,-15.74
20745,-17.77
20757,-20.0
20769,-21.94
20781,-23.1
20793,-23.12
20805,-21.94
20817,-19.69
20828,-16.56
20839,-12.78
20851,-8.5
20863,-3.87
20875,0.96
20887,5.82
20899,10.6
20911,15.17
20923,19.41
20935,23.13
20947,26.07
20959,27.88
20971,28.27
20983,27.09
20995,24.47
