seconds,BVP
7,18.96
19,18.22
31,16.59
43,13.93
55,10.35
67,6.14
79,1.69
91,-2.59
102,-6.47
113,-9.96
125,-13.34
137,-17.05
149,-21.55
161,-27.05
173,-33.32
185,-39.58
197,-44.55
209,-46.74
221,-44.87
233,-38.34
245,-27.5
257,-13.6
269,1.51
281,15.93
292,28.17
303,37.45
315,43.68
327,47.2
339,48.54
351,48.16
363,46.39
375,43.53
387,39.89
399,35.92
411,32.12
423,28.94
435,26.66
447,25.32
459,24.76
471,24.73
482,24.98
493,25.34
505,25.64
517,25.74
529,25.46
541,24.64
553,23.17
565,21.06
577,18.41
589,15.33
601,11.87
613,8.05
625,3.91
637,-0.46
649,-4.84
661,-8.97
672,-12.6
683,-15.66
695,-18.27
707,-20.7
719,-23.32
731,-26.45
743,-30.27
755,-34.71
767,-39.38
779,-43.53
791,-46.12
803,-46.06
815,-42.48
827,-35.1
839,-24.41
851,-11.58
862,1.73
873,13.95
885,23.91
897,31.09
909,35.57
921,37.8
933,38.31
945,37.49
957,35.63
969,32.92
981,29.65
993,26.25
1005,23.22
1017,21.01
1029,19.89
1041,19.85
1052,20.61
1063,21.72
1075,22.76
1087,23.43
1099,23.64
1111,23.48
1123,23.09
1135,22.55
1147,21.82
1159,20.76
1171,19.22
1183,17.12
1195,14.51
1207,11.55
1219,8.41
1231,5.23
1242,2.09
1253,-1.01
1265,-4.09
1277,-7.23
1289,-10.5
1301,-13.94
1313,-17.49
1325,-21.01
1337,-24.23
1349,-26.97
1361,-29.12
1373,-30.85
1385,-32.48
1397,-34.46
1409,-37.19
1421,-40.89
1432,-45.44
1443,-50.28
1455,-54.46
1467,-56.79
1479,-56.15
1491,-51.85
1503,-43.89
1515,-33.08
1527,-20.75
1539,-8.45
1551,2.52
1563,11.35
1575,17.75
1587,21.77
1599,23.58
1611,23.38
1622,21.39
1633,17.94
1645,13.54
1657,8.88
1669,4.63
1681,1.34
1693,-0.75
1705,-1.69
1717,-1.73
1729,-1.19
1741,-0.36
1753,0.55
1765,1.46
1777,2.29
1789,2.94
1801,3.28
1812,3.14
1823,2.37
1835,0.97
1847,-0.84
1859,-2.75
1871,-4.33
1883,-5.34
1895,-5.77
1907,-5.89
1919,-6.1
1931,-6.77
1943,-8.04
1955,-9.79
1967,-11.75
1979,-13.59
1991,-15.09
2002,-16.17
2013,-16.9
2025,-17.44
2037,-18.07
2049,-19.1
2061,-20.84
2073,-23.48
2085,-26.81
2097,-30.21
2109,-32.65
2121,-32.96
2133,-30.21
2145,-24.0
2157,-14.68
2169,-3.24
2181,8.97
2192,20.51
2203,30.25
2215,37.48
2227,42.02
2239,44.15
2251,44.42
2263,43.54
2275,42.2
2287,40.86
2299,39.81
2311,39.03
2323,38.42
2335,37.81
2347,37.12
2359,36.4
2371,35.79
2382,35.48
2393,35.62
2405,36.24
2417,37.22
2429,38.34
2441,39.31
2453,39.89
2465,39.98
2477,39.64
2489,39.11
2501,38.61
2513,38.32
2525,38.24
2537,38.23
2549,38.05
2561,37.42
2572,36.07
2583,33.76
2595,30.32
2607,25.76
2619,20.24
2631,14.07
2643,7.59
2655,1.05
2667,-5.37
2679,-11.45
2691,-16.68
2703,-20.12
2715,-20.56
2727,-16.93
2739,-8.87
2751,2.96
2762,16.99
2773,31.17
2785,43.69
2797,53.37
2809,59.72
2821,62.65
2833,62.07
2845,57.79
2857,49.66
2869,38.02
2881,24.01
2893,9.45
2905,-3.62
2917,-13.71
2929,-20.4
2941,-24.38
2952,-27.07
2963,-29.84
2975,-33.48
2987,-37.96
2999,-42.72
3011,-47.25
3023,-51.44
3035,-55.69
3047,-60.62
3059,-66.54
3071,-73.18
3083,-79.65
3095,-84.87
3107,-88.0
3119,-88.85
3131,-87.83
3142,-85.75
3153,-83.43
3165,-81.43
3177,-79.96
3189,-79.03
3201,-78.64
3213,-78.8
3225,-79.47
3237,-80.36
3249,-80.78
3261,-79.75
3273,-76.27
3285,-69.71
3297,-60.15
3309,-48.36
3321,-35.62
3332,-23.31
3343,-12.49
3355,-3.72
3367,2.89
3379,7.47
3391,10.17
3403,11.06
3415,10.11
3427,7.34
3439,3.01
3451,-2.39
3463,-8.16
3475,-13.6
3487,-18.13
3499,-21.45
3511,-23.47
3522,-24.26
3533,-23.94
3545,-22.64
3557,-20.55
3569,-18.06
3581,-15.75
3593,-14.25
3605,-14.07
3617,-15.33
3629,-17.73
3641,-20.73
3653,-23.78
3665,-26.6
3677,-29.31
3689,-32.26
3701,-35.84
3712,-40.31
3723,-45.62
3735,-51.5
3747,-57.43
3759,-62.67
3771,-66.26
3783,-67.11
3795,-64.25
3807,-57.12
3819,-45.89
3831,-31.48
3843,-15.32
3855,1.02
3867,16.22
3879,29.47
3891,40.46
3902,49.16
3913,55.65
3925,60.02
3937,62.38
3949,62.93
3961,62.07
3973,60.37
3985,58.45
3997,56.83
4009,55.79
4021,55.37
4033,55.43
4045,55.76
4057,56.12
4069,56.32
4081,56.16
4092,55.41
4103,53.84
4115,51.23
4127,47.47
4139,42.62
4151,36.84
4163,30.38
4175,23.5
4187,16.43
4199,9.34
4211,2.3
4223,-4.76
4235,-11.98
4247,-19.46
4259,-27.03
4271,-34.08
4282,-39.53
4293,-42.12
4305,-40.78
4317,-35.09
4329,-25.5
4341,-13.24
4353,0.05
4365,12.75
4377,23.73
4389,32.42
4401,38.76
4413,43.03
4425,45.6
4437,46.82
4449,46.91
4461,46.01
4472,44.21
4483,41.75
4495,39.1
4507,37.16
4519,37.09
4531,40.05
4543,46.8
4555,57.36
4567,71.01
4579,86.48
4591,102.47
4603,118.08
4615,133.05
4627,147.77
4639,163.0
4651,179.44
4662,197.48
4673,216.92
4685,236.9
4697,255.89
4709,271.84
4721,282.49
4733,285.87
4745,280.82
4757,267.3
4769,246.37
4781,219.9
4793,189.91
4805,158.07
4817,125.47
4829,92.65
4841,59.84
4852,27.21
4863,-5.04
4875,-36.84
4887,-68.38
4899,-100.22
4911,-133.31
4923,-168.84
4935,-207.89
4947,-250.9
4959,-297.02
4971,-343.72
4983,-386.87
4995,-421.68
5007,-443.99
5019,-451.57
5031,-444.81
5042,-426.36
5053,-400.08
5065,-369.7
5077,-337.99
5089,-306.53
5101,-276.09
5113,-247.07
5125,-219.82
5137,-194.5
5149,-170.99
5161,-148.87
5173,-127.63
5185,-107.03
5197,-87.29
5209,-69.06
5221,-53.24
5232,-40.53
5243,-31.08
5255,-24.43
5267,-19.54
5279,-15.17
5291,-10.16
5303,-3.78
5315,4.17
5327,13.45
5339,23.51
5351,33.72
5363,43.51
5375,52.37
5387,59.89
5399,65.79
5411,69.87
5422,72.1
5433,72.56
5445,71.45
5457,69.08
5469,65.79
5481,61.97
5493,58.03
5505,54.36
5517,51.31
5529,49.06
5541,47.57
5553,46.57
5565,45.63
5577,44.33
5589,42.37
5601,39.72
5612,36.56
5623,33.22
5635,29.92
5647,26.68
5659,23.21
5671,19.04
5683,13.7
5695,6.95
5707,-1.08
5719,-9.8
5731,-18.31
5743,-25.48
5755,-30.12
5767,-31.15
5779,-27.77
5791,-19.66
5802,-7.22
5813,8.41
5825,25.48
5837,41.94
5849,55.87
5861,65.89
5873,71.36
5885,72.31
5897,69.28
5909,63.08
5921,54.75
5933,45.54
5945,36.9
5957,30.26
5969,26.67
5981,26.47
5992,29.14
6003,33.42
6015,37.76
6027,40.87
6039,42.11
6051,41.53
6063,39.71
6075,37.4
6087,35.19
6099,33.33
6111,31.75
6123,30.17
6135,28.3
6147,25.91
6159,22.99
6171,19.71
6182,16.35
6193,13.26
6205,10.78
6217,9.19
6229,8.71
6241,9.47
6253,11.5
6265,14.65
6277,18.66
6289,23.17
6301,27.81
6313,32.29
6325,36.45
6337,40.21
6349,43.54
6361,46.4
6372,48.79
6383,50.82
6395,52.75
6407,54.97
6419,57.85
6431,61.6
6443,66.17
6455,71.26
6467,76.47
6479,81.53
6491,86.5
6503,91.89
6515,98.5
6527,107.23
6539,118.69
6551,133.0
6562,149.59
6573,167.23
6585,184.18
6597,198.41
6609,207.89
6621,210.85
6633,206.14
6645,193.48
6657,173.52
6669,147.61
6681,117.39
6693,84.19
6705,48.76
6717,11.27
6729,-28.24
6741,-69.26
6752,-110.37
6763,-149.26
6775,-183.24
6787,-210.05
6799,-228.52
6811,-238.8
6823,-242.1
6835,-240.11
6847,-234.45
6859,-226.41
6871,-216.98
6883,-206.98
6895,-197.16
6907,-187.98
6919,-179.34
6931,-170.48
6942,-160.14
6953,-147.09
6965,-130.7
6977,-111.35
6989,-90.3
7001,-69.23
7013,-49.65
7025,-32.51
7037,-18.15
7049,-6.55
7061,2.35
7073,8.49
7085,11.79
7097,12.35
7109,10.62
7121,7.37
7132,3.45
7143,-0.48
7155,-4.18
7167,-7.76
7179,-11.5
7191,-15.59
7203,-20.08
7215,-24.85
7227,-29.79
7239,-34.84
7251,-39.94
7263,-44.88
7275,-49.26
7287,-52.47
7299,-53.9
7311,-53.22
7322,-50.52
7333,-46.33
7345,-41.37
7357,-36.34
7369,-31.69
7381,-27.57
7393,-23.93
7405,-20.68
7417,-17.74
7429,-15.13
7441,-12.85
7453,-10.74
7465,-8.41
7477,-5.19
7489,-0.22
7501,7.37
7512,18.33
7523,33.12
7535,51.84
7547,73.95
7559,98.08
7571,121.8
7583,141.84
7595,154.76
7607,157.82
7619,149.94
7631,131.96
7643,106.32
7655,76.1
7667,44.0
7679,11.7
7691,-20.0
7702,-50.67
7713,-79.64
7725,-105.77
7737,-127.66
7749,-144.2
7761,-154.94
7773,-160.15
7785,-160.54
7797,-156.82
7809,-149.34
7821,-138.12
7833,-123.07
7845,-104.42
7857,-83.04
7869,-60.46
7881,-38.56
7892,-19.06
7903,-3.03
7915,9.41
7927,18.92
7939,26.61
7951,33.55
7963,40.44
7975,47.43
7987,54.28
7999,60.57
8011,65.97
8023,70.41
8035,74.16
8047,77.7
8059,81.57
8071,86.16
8082,91.54
8093,97.45
8105,103.57
8117,109.71
8129,116.07
8141,123.23
8153,132.01
8165,143.22
8177,157.49
8189,175.25
8201,196.51
8213,220.59
8225,245.63
8237,268.4
8249,284.75
8261,290.6
8272,283.45
8283,263.34
8295,232.84
8307,195.95
8319,156.38
8331,116.2
8343,75.44
8355,32.98
8367,-12.14
8379,-59.7
8391,-108.06
8403,-154.75
8415,-197.45
8427,-234.51
8439,-265.11
8451,-288.9
8462,-305.67
8473,-315.2
8485,-317.36
8497,-312.38
8509,-300.98
8521,-284.39
8533,-264.29
8545,-242.62
8557,-221.34
8569,-202.21
8581,-186.37
8593,-174.05
8605,-164.52
8617,-156.23
8629,-147.3
8641,-136.08
8652,-121.61
8663,-103.79
8675,-83.36
8687,-61.58
8699,-39.86
8711,-19.4
8723,-1.01
8735,14.96
8747,28.41
8759,39.33
8771,47.65
8783,53.31
8795,56.52
8807,57.97
8819,58.9
8831,60.84
8842,65.14
8853,72.45
8865,82.51
8877,94.29
8889,106.46
8901,117.94
8913,128.29
8925,137.72
8937,146.91
8949,156.53
8961,166.91
8973,177.85
8985,188.49
8997,197.46
9009,203.01
9021,203.21
9032,196.3
9043,181.18
9055,157.83
9067,127.44
9079,92.23
9091,54.86
9103,17.69
9115,-17.7
9127,-50.59
9139,-80.87
9151,-108.57
9163,-133.51
9175,-155.33
9187,-173.66
9199,-188.32
9211,-199.33
9222,-206.7
9233,-210.12
9245,-208.95
9257,-202.37
9269,-189.9
9281,-171.83
9293,-149.46
9305,-124.9
9317,-100.56
9329,-78.55
9341,-60.09
9353,-45.4
9365,-33.84
9377,-24.43
9389,-16.28
9401,-8.96
9412,-2.43
9423,3.15
9435,7.81
9447,11.91
9459,16.1
9471,21.07
9483,27.22
9495,34.56
9507,42.76
9519,51.4
9531,60.25
9543,69.35
9555,78.92
9567,89.1
9579,99.72
9591,110.22
9602,119.7
9613,127.3
9625,132.41
9637,135.01
9649,135.72
9661,135.65
9673,136.14
9685,138.39
9697,143.05
9709,149.92
9721,157.73
9733,164.3
9745,166.94
9757,163.15
9769,151.33
9781,131.35
9792,104.63
9803,73.84
9815,42.07
9827,11.88
9839,-15.34
9851,-39.6
9863,-61.8
9875,-83.04
9887,-103.8
9899,-123.59
9911,-141.01
9923,-154.36
9935,-162.22
9947,-163.94
9959,-159.79
9971,-150.74
9982,-138.13
9993,-123.36
10005,-107.75
10017,-92.48
10029,-78.58
10041,-66.81
10053,-57.49
10065,-50.39
10077,-44.71
10089,-39.29
10101,-32.87
10113,-24.54
10125,-14.01
10137,-1.62
10149,11.72
10161,24.94
10172,37.14
10183,47.83
10195,56.92
10207,64.68
10219,71.47
10231,77.56
10243,83.04
10255,87.89
10267,91.99
10279,95.27
10291,97.77
10303,99.63
10315,101.05
10327,102.3
10339,103.62
10351,105.28
10362,107.49
10373,110.41
10385,114.05
10397,118.27
10409,122.7
10421,126.82
10433,130.17
10445,132.58
10457,134.32
10469,136.18
10481,139.16
10493,144.02
10505,150.74
10517,158.19
10529,164.21
10541,166.0
10552,160.76
10563,146.3
10575,121.45
10587,86.33
10599,42.33
10611,-7.96
10623,-61.04
10635,-112.85
10647,-159.45
10659,-197.69
10671,-225.72
10683,-243.23
10695,-251.17
10707,-251.12
10719,-244.76
10731,-233.48
10742,-218.26
10753,-199.96
10765,-179.43
10777,-157.69
10789,-135.75
10801,-114.48
10813,-94.48
10825,-76.02
10837,-59.13
10849,-43.68
10861,-29.42
10873,-16.01
10885,-3.04
10897,9.88
10909,22.94
10921,36.14
10932,49.29
10943,62.21
10955,74.89
10967,87.57
10979,100.68
10991,114.61
11003,129.54
11015,145.35
11027,161.65
11039,178.04
11051,194.22
11063,210.18
11075,226.17
11087,242.75
11099,260.67
11111,280.73
11122,303.43
11133,328.48
11145,354.36
11157,378.18
11169,396.18
11181,404.7
11193,401.33
11205,385.82
11217,360.08
11229,327.49
11241,291.8
11253,256.07
11265,222.2
11277,190.99
11289,162.46
11301,136.16
11312,111.35
11323,87.09
11335,62.35
11347,36.4
11359,9.1
11371,-18.94
11383,-46.69
11395,-73.21
11407,-98.29
11419,-122.66
11431,-147.72
11443,-174.97
11455,-205.23
11467,-238.26
11479,-272.96
11491,-307.86
11502,-341.87
11513,-374.79
11525,-407.33
11537,-440.99
11549,-477.72
11561,-519.6
11573,-568.05
11585,-622.73
11597,-680.39
11609,-734.45
11621,-776.16
11633,-797.02
11645,-791.85
11657,-760.65
11669,-708.58
11681,-643.71
11692,-573.96
11703,-504.73
11715,-438.2
11727,-374.41
11739,-312.8
11751,-253.38
11763,-196.63
11775,-142.81
11787,-91.16
11799,-39.94
11811,12.92
11823,68.89
11835,128.1
11847,189.13
11859,249.24
11871,305.23
11882,354.43
11893,395.54
11905,429.11
11917,457.22
11929,482.47
11941,506.6
11953,529.39
11965,548.53
11977,560.57
11989,562.55
12001,553.3
12013,533.92
12025,506.97
12037,475.15
12049,440.04
12061,401.77
12072,359.47
12083,312.32
12095,260.4
12107,204.92
12119,147.83
12131,91.09
12143,36.0
12155,-17.03
12167,-68.39
12179,-118.87
12191,-169.29
12203,-220.41
12215,-273.09
12227,-328.51
12239,-387.97
12251,-452.01
12262,-519.1
12273,-584.72
12285,-641.48
12297,-681.02
12309,-696.75
12321,-686.33
12333,-652.62
12345,-602.45
12357,-543.87
12369,-483.45
12381,-424.82
12393,-369.08
12405,-316.24
12417,-266.64
12429,-221.15
12441,-180.47
12452,-144.03
12463,-109.75
12475,-74.9
12487,-37.54
12499,2.2
12511,41.99
12523,78.25
12535,107.88
12547,129.5
12559,143.86
12571,153.18
12583,159.91
12595,165.72
12607,171.09
12619,175.61
12631,178.61
12642,179.75
12653,179.19
12665,177.56
12677,175.56
12689,173.7
12701,172.22
12713,171.1
12725,170.27
12737,169.83
12749,170.17
12761,171.86
12773,175.47
12785,181.34
12797,189.34
12809,198.94
12821,209.29
12832,219.36
12843,227.99
12855,233.84
12867,235.36
12879,230.95
12891,219.27
12903,199.74
12915,172.89
12927,140.4
12939,104.72
12951,68.54
12963,34.06
12975,2.67
12987,-25.11
12999,-49.38
13011,-70.46
13022,-88.61
13033,-103.91
13045,-116.28
13057,-125.62
13069,-131.8
13081,-134.69
13093,-134.14
13105,-130.02
13117,-122.31
13129,-111.24
13141,-97.31
13153,-81.27
13165,-63.98
13177,-46.25
13189,-28.73
13201,-11.87
13212,4.0
13223,18.68
13235,32.08
13247,44.29
13259,55.54
13271,66.25
13283,76.81
13295,87.6
13307,98.94
13319,111.13
13331,124.51
13343,139.43
13355,156.15
13367,174.68
13379,194.61
13391,215.18
13402,235.44
13413,254.55
13425,272.09
13437,288.28
13449,303.97
13461,320.42
13473,338.9
13485,360.12
13497,383.76
13509,408.11
13521,430.15
13533,446.18
13545,452.77
13557,447.87
13569,431.45
13581,405.49
13592,373.16
13603,337.73
13615,301.52
13627,265.54
13639,229.79
13651,193.99
13663,158.32
13675,123.49
13687,90.48
13699,59.79
13711,30.95
13723,2.55
13735,-27.24
13747,-59.83
13759,-95.49
13771,-133.19
13782,-171.14
13793,-207.56
13805,-241.51
13817,-273.26
13829,-304.04
13841,-335.47
13853,-369.12
13865,-406.37
13877,-448.26
13889,-495.07
13901,-545.3
13913,-594.79
13925,-636.57
13937,-662.36
13949,-665.08
13961,-641.52
13972,-593.66
13983,-527.75
13995,-451.7
14007,-372.17
14019,-292.96
14031,-215.42
14043,-140.09
14055,-68.32
14067,-2.59
14079,54.54
14091,102.04
14103,141.31
14115,175.71
14127,208.85
14139,242.96
14151,277.88
14162,311.29
14173,340.07
14185,361.84
14197,375.91
14209,383.36
14221,386.16
14233,386.01
14245,383.31
14257,376.96
14269,364.76
14281,344.52
14293,315.07
14305,276.88
14317,232.03
14329,183.56
14341,134.44
14352,86.82
14363,41.63
14375,-1.27
14387,-42.69
14399,-83.52
14411,-124.68
14423,-167.15
14435,-212.01
14447,-260.02
14459,-310.79
14471,-361.82
14483,-408.16
14495,-443.16
14507,-460.25
14519,-455.17
14531,-427.51
14542,-380.93
14553,-321.86
14565,-257.36
14577,-193.04
14589,-131.97
14601,-74.83
14613,-20.85
14625,31.09
14637,81.66
14649,131.02
14661,178.92
14673,224.89
14685,268.01
14697,306.69
14709,338.34
14721,359.65
14732,367.51
14743,360.21
14755,338.38
14767,304.93
14779,264.15
14791,220.16
14803,175.66
14815,131.41
14827,86.9
14839,41.45
14851,-5.01
14863,-51.6
14875,-97.09
14887,-140.74
14899,-182.85
14911,-224.82
14922,-268.91
14933,-317.67
14945,-373.25
14957,-436.29
14969,-504.71
14981,-573.04
14993,-632.94
15005,-675.28
15017,-693.07
15029,-684.0
15041,-651.26
15053,-602.1
15065,-544.88
15077,-486.24
15089,-429.58
15101,-375.5
15112,-323.29
15123,-272.52
15135,-223.54
15147,-177.11
15159,-133.57
15171,-92.39
15183,-52.63
15195,-13.75
15207,23.54
15219,57.27
15231,84.65
15243,103.32
15255,112.47
15267,113.42
15279,109.36
15291,104.3
15302,101.83
15313,104.03
15325,111.12
15337,121.82
15349,134.14
15361,146.23
15373,156.82
15385,165.43
15397,172.06
15409,176.96
15421,180.37
15433,182.32
15445,182.66
15457,181.14
15469,177.74
15481,172.71
15492,166.72
15503,160.62
15515,155.2
15527,150.93
15539,147.81
15551,145.53
15563,143.62
15575,141.74
15587,139.76
15599,137.72
15611,135.75
15623,133.93
15635,132.28
15647,130.73
15659,129.19
15671,127.62
15682,126.07
15693,124.69
15705,123.65
15717,123.09
15729,123.01
15741,123.25
15753,123.47
15765,123.36
15777,122.71
15789,121.56
15801,120.25
15813,119.25
15825,118.99
15837,119.64
15849,121.06
15861,122.86
15872,124.59
15883,125.99
15895,127.12
15907,128.34
15919,130.24
15931,133.33
15943,137.91
15955,143.96
15967,150.98
15979,157.93
15991,163.07
16003,164.02
16015,158.04
16027,142.75
16039,116.88
16051,81.02
16062,37.71
16073,-9.06
16085,-54.89
16097,-95.94
16109,-129.6
16121,-154.59
16133,-170.58
16145,-177.77
16157,-176.73
16169,-168.47
16181,-154.61
16193,-137.3
16205,-118.91
16217,-101.5
16229,-86.43
16241,-74.29
16252,-65.11
16263,-58.77
16275,-55.28
16287,-54.84
16299,-57.68
16311,-63.77
16323,-72.76
16335,-83.97
16347,-96.58
16359,-109.75
16371,-122.71
16383,-134.82
16395,-145.52
16407,-154.37
16419,-161.14
16431,-165.84
16442,-168.63
16453,-169.77
16465,-169.47
16477,-167.77
16489,-164.62
16501,-159.98
16513,-153.81
16525,-146.14
16537,-136.99
16549,-126.36
16561,-114.24
16573,-100.67
16585,-85.93
16597,-70.52
16609,-55.11
16621,-40.4
16632,-26.97
16643,-15.21
16655,-5.26
16667,2.89
16679,9.28
16691,13.95
16703,16.95
16715,18.33
16727,18.25
16739,16.92
16751,14.63
16763,11.65
16775,8.17
16787,4.24
16799,-0.2
16811,-5.25
16822,-10.99
16833,-17.38
16845,-24.21
16857,-31.12
16869,-37.55
16881,-42.86
16893,-46.44
16905,-47.87
16917,-47.01
16929,-44.14
16941,-39.89
16953,-35.06
16965,-30.39
16977,-26.4
16989,-23.37
17001,-21.3
17012,-20.14
17023,-19.73
17035,-19.96
17047,-20.62
17059,-21.5
17071,-22.31
17083,-22.8
17095,-22.75
17107,-21.99
17119,-20.43
17131,-18.01
17143,-14.73
17155,-10.64
17167,-5.85
17179,-0.56
17191,5.0
17202,10.59
17213,16.02
17225,21.24
17237,26.37
17249,31.69
17261,37.55
17273,44.18
17285,51.6
17297,59.52
17309,67.36
17321,74.39
17333,79.96
17345,83.61
17357,85.16
17369,84.72
17381,82.7
17392,79.7
17403,76.44
17415,73.63
17427,71.83
17439,71.32
17451,72.04
17463,73.63
17475,75.57
17487,77.32
17499,78.61
17511,79.43
17523,80.08
17535,80.94
17547,82.25
17559,84.0
17571,85.85
17582,87.31
17593,87.97
17605,87.59
17617,86.27
17629,84.26
17641,81.94
17653,79.58
17665,77.3
17677,75.09
17689,72.87
17701,70.49
17713,67.82
17725,64.7
17737,60.97
17749,56.44
17761,51.01
17772,44.74
17783,37.98
17795,31.31
17807,25.41
17819,20.86
17831,17.81
17843,15.99
17855,14.78
17867,13.61
17879,12.22
17891,10.87
17903,10.21
17915,10.93
17927,13.39
17939,17.37
17951,22.17
17962,26.89
17973,30.78
17985,33.5
17997,35.07
18009,35.76
18021,35.8
18033,35.25
18045,34.03
18057,32.11
18069,29.63
18081,27.06
18093,25.07
18105,24.26
18117,24.92
18129,26.88
18141,29.52
18152,32.1
18163,33.96
18175,34.81
18187,34.69
18199,33.87
18211,32.7
18223,31.39
18235,30.07
18247,28.79
18259,27.66
18271,26.82
18283,26.44
18295,26.6
18307,27.16
18319,27.83
18331,28.15
18342,27.71
18353,26.22
18365,23.62
18377,20.12
18389,16.15
18401,12.23
18413,8.9
18425,6.57
18437,5.51
18449,5.8
18461,7.41
18473,10.21
18485,14.04
18497,18.66
18509,23.72
18521,28.78
18532,33.36
18543,37.04
18555,39.65
18567,41.23
18579,41.98
18591,42.1
18603,41.7
18615,40.77
18627,39.32
18639,37.42
18651,35.31
18663,33.3
18675,31.68
18687,30.57
18699,29.98
18711,29.79
18722,29.87
18733,30.11
18745,30.46
18757,30.86
18769,31.26
18781,31.6
18793,31.84
18805,31.93
18817,31.83
18829,31.44
18841,30.67
18853,29.44
18865,27.65
18877,25.3
18889,22.42
18901,19.1
18912,15.53
18923,11.99
18935,8.84
18947,6.46
18959,5.18
18971,5.11
18983,6.16
18995,7.92
19007,9.88
19019,11.48
19031,12.34
19043,12.33
19055,11.58
19067,10.38
19079,9.07
19091,7.94
19102,7.2
19113,6.98
19125,7.46
19137,8.86
19149,11.39
19161,15.25
19173,20.46
19185,26.89
19197,34.19
19209,41.89
19221,49.46
19233,56.41
19245,62.42
19257,67.47
19269,71.85
19281,76.1
19292,80.78
19303,86.23
19315,92.32
19327,98.4
19339,103.41
19351,106.14
19363,105.55
19375,101.12
19387,93.15
19399,82.88
19411,72.35
19423,64.01
19435,60.01
19447,61.58
19459,68.54
19471,79.23
19482,91.01
19493,100.98
19505,106.75
19517,107.02
19529,101.72
19541,91.96
19553,79.58
19565,66.62
19577,54.73
19589,44.6
19601,35.79
19613,26.92
19625,16.2
19637,2.1
19649,-16.37
19661,-39.62
19672,-67.67
19683,-100.11
19695,-135.78
19707,-172.29
19719,-205.94
19731,-232.32
19743,-247.69
19755,-250.44
19767,-241.93
19779,-226.16
19791,-208.32
19803,-193.03
19815,-182.92
19827,-178.35
19839,-178.02
19851,-180.02
19862,-182.77
19873,-185.35
19885,-187.25
19897,-188.05
19909,-187.22
19921,-184.35
19933,-179.49
19945,-173.32
19957,-166.89
19969,-161.0
19981,-155.57
19993,-149.51
20005,-141.33
20017,-130.18
20029,-116.71
20041,-103.15
20052,-92.35
20063,-86.39
20075,-85.29
20087,-86.77
20099,-87.15
20111,-82.89
20123,-71.99
20135,-54.58
20147,-32.47
20159,-8.13
20171,16.12
20183,38.63
20195,58.24
20207,74.02
20219,85.1
20231,90.89
20242,91.49
20253,87.91
20265,81.97
20277,75.8
20289,71.24
20301,69.22
20313,69.63
20325,71.4
20337,72.94
20349,72.79
20361,70.03
20373,64.65
20385,57.4
20397,49.45
20409,41.77
20421,34.83
20432,28.5
20443,22.39
20455,16.33
20467,10.62
20479,6.05
20491,3.44
20503,3.28
20515,5.42
20527,9.14
20539,13.49
20551,17.59
20563,20.94
20575,23.37
20587,24.96
20599,25.81
20611,25.98
20622,25.44
20633,24.17
20645,22.22
20657,19.72
20669,16.88
20681,13.98
20693,11.3
20705,9.01
20717,7.21
20729,5.88
20741,4.86
20753,4.04
20765,3.24
20777,2.4
20789,1.44
20801,0.29
20812,-1.14
20823,-3.0
20835,-5.43
20847,-8.49
20859,-12.14
20871,-16.25
20883,-20.68
20895,-25.37
20907,-30.38
20919,-35.87
20931,-41.97
20943,-48.69
20955,-55.78
20967,-62.71
20979,-68.71
20991,-72.93
