seconds,BVP
5,-24.93
17,-36.72
29,-48.99
41,-60.64
52,-70.09
63,-75.59
75,-75.68
87,-69.65
99,-57.81
111,-41.46
123,-22.56
135,-3.17
147,15.01
159,30.88
171,43.9
183,53.92
195,61.0
207,65.31
219,67.11
231,66.91
242,65.48
253,63.72
265,62.45
277,62.13
289,62.78
301,63.99
313,65.22
325,66.03
337,66.24
349,65.97
361,65.43
373,64.72
385,63.74
397,62.22
409,59.84
421,56.42
432,51.97
443,46.69
455,40.84
467,34.73
479,28.52
491,22.31
503,15.99
515,9.34
527,2.04
539,-6.19
551,-15.4
563,-25.3
575,-35.07
587,-43.45
599,-48.9
611,-50.03
622,-45.99
633,-36.79
645,-23.37
657,-7.35
669,9.43
681,25.3
693,39.09
705,50.22
717,58.46
729,63.83
741,66.39
753,66.34
765,64.04
777,60.14
789,55.55
801,51.18
812,47.72
823,45.44
835,44.1
847,43.19
859,42.21
871,40.94
883,39.48
895,38.1
907,36.98
919,35.96
931,34.59
943,32.28
955,28.58
967,23.45
979,17.26
991,10.64
1002,4.18
1013,-1.8
1025,-7.36
1037,-12.83
1049,-18.74
1061,-25.56
1073,-33.51
1085,-42.4
1097,-51.47
1109,-59.4
1121,-64.53
1133,-65.28
1145,-60.68
1157,-50.71
1169,-36.42
1181,-19.6
1192,-2.25
1203,14.0
1215,28.15
1227,39.8
1239,48.9
1251,55.41
1263,59.23
1275,60.33
1287,58.98
1299,55.83
1311,51.83
1323,47.91
1335,44.68
1347,42.27
1359,40.4
1371,38.66
1382,36.82
1393,34.96
1405,33.34
1417,32.19
1429,31.49
1441,30.85
1453,29.62
1465,27.21
1477,23.3
1489,18.03
1501,11.87
1513,5.46
1525,-0.67
1537,-6.28
1549,-11.41
1561,-16.33
1572,-21.49
1583,-27.34
1595,-34.28
1607,-42.35
1619,-51.09
1631,-59.41
1643,-65.67
1655,-68.15
1667,-65.56
1679,-57.56
1691,-44.87
1703,-29.11
1715,-12.19
1727,4.18
1739,18.83
1751,31.22
1762,41.12
1773,48.49
1785,53.29
1797,55.55
1809,55.52
1821,53.71
1833,50.83
1845,47.61
1857,44.62
1869,42.14
1881,40.18
1893,38.56
1905,37.06
1917,35.5
1929,33.84
1941,32.14
1952,30.5
1963,28.95
1975,27.37
1987,25.5
1999,22.98
2011,19.48
2023,14.9
2035,9.44
2047,3.55
2059,-2.26
2071,-7.61
2083,-12.41
2095,-16.87
2107,-21.37
2119,-26.32
2131,-32.05
2142,-38.71
2153,-46.21
2165,-54.02
2177,-61.11
2189,-66.04
2201,-67.26
2213,-63.64
2225,-54.92
2237,-41.93
2249,-26.33
2261,-10.1
2273,5.06
2285,18.13
2297,28.79
2309,37.08
2321,43.14
2332,47.01
2343,48.73
2355,48.43
2367,46.54
2379,43.71
2391,40.62
2403,37.8
2415,35.53
2427,33.76
2439,32.33
2451,31.03
2463,29.75
2475,28.45
2487,27.16
2499,25.87
2511,24.55
2522,23.08
2533,21.35
2545,19.19
2557,16.46
2569,13.03
2581,8.88
2593,4.1
2605,-1.07
2617,-6.3
2629,-11.3
2641,-15.89
2653,-20.08
2665,-24.02
2677,-27.97
2689,-32.19
2701,-36.89
2712,-42.24
2723,-48.19
2735,-54.35
2747,-59.87
2759,-63.48
2771,-63.8
2783,-59.8
2795,-51.27
2807,-39.01
2819,-24.6
2831,-9.93
2843,3.43
2855,14.59
2867,23.37
2879,30.0
2891,34.8
2902,37.89
2913,39.26
2925,38.94
2937,37.15
2949,34.39
2961,31.34
2973,28.56
2985,26.4
2997,24.84
3009,23.69
3021,22.66
3033,21.58
3045,20.41
3057,19.23
3069,18.1
3081,16.97
3092,15.69
3103,14.08
3115,11.97
3127,9.3
3139,6.1
3151,2.46
3163,-1.55
3175,-5.87
3187,-10.45
3199,-15.19
3211,-19.94
3223,-24.56
3235,-28.91
3247,-33.0
3259,-36.95
3271,-40.99
3282,-45.36
3293,-50.29
3305,-55.76
3317,-61.47
3329,-66.72
3341,-70.5
3353,-71.68
3365,-69.41
3377,-63.42
3389,-54.22
3401,-42.96
3413,-31.16
3425,-20.21
3437,-11.14
3449,-4.45
3461,-0.26
3472,1.55
3483,1.24
3495,-0.9
3507,-4.44
3519,-8.88
3531,-13.7
3543,-18.46
3555,-22.95
3567,-27.22
3579,-31.47
3591,-35.91
3603,-40.55
3615,-45.13
3627,-49.13
3639,-51.99
3651,-53.31
3662,-53.02
3673,-51.33
3685,-48.66
3697,-45.43
3709,-41.92
3721,-38.21
3733,-34.17
3745,-29.6
3757,-24.38
3769,-18.58
3781,-12.59
3793,-7.03
3805,-2.6
3817,0.26
3829,1.58
3841,2.0
3852,2.66
3863,5.05
3875,10.64
3887,20.52
3899,35.14
3911,54.13
3923,76.37
3935,100.25
3947,124.07
3959,146.42
3971,166.47
3983,183.99
3995,199.17
4007,212.33
4019,223.69
4031,233.34
4042,241.19
4053,247.14
4065,251.07
4077,252.79
4089,252.02
4101,248.44
4113,241.79
4125,232.06
4137,219.51
4149,204.63
4161,187.97
4173,170.03
4185,151.03
4197,131.03
4209,109.89
4221,87.46
4232,63.71
4243,38.8
4255,13.16
4267,-12.53
4279,-37.37
4291,-60.35
4303,-80.58
4315,-97.43
4327,-110.69
4339,-120.58
4351,-127.64
4363,-132.55
4375,-135.94
4387,-138.26
4399,-139.76
4411,-140.45
4422,-140.25
4433,-138.97
4445,-136.51
4457,-132.88
4469,-128.21
4481,-122.8
4493,-116.98
4505,-111.16
4517,-105.67
4529,-100.8
4541,-96.73
4553,-93.53
4565,-91.12
4577,-89.31
4589,-87.76
4601,-86.1
4612,-83.96
4623,-81.1
4635,-77.41
4647,-72.97
4659,-68.01
4671,-62.8
4683,-57.59
4695,-52.6
4707,-47.94
4719,-43.66
4731,-39.74
4743,-36.15
4755,-32.86
4767,-29.85
4779,-27.11
4791,-24.63
4802,-22.35
4813,-20.22
4825,-18.17
4837,-16.22
4849,-14.41
4861,-12.89
4873,-11.78
4885,-11.13
4897,-10.86
4909,-10.78
4921,-10.61
4933,-10.1
4945,-9.04
4957,-7.39
4969,-5.25
4981,-2.87
4992,-0.56
5003,1.38
5015,2.76
5027,3.49
5039,3.64
5051,3.31
5063,2.65
5075,1.78
5087,0.78
5099,-0.34
5111,-1.6
5123,-3.01
5135,-4.61
5147,-6.37
5159,-8.28
5171,-10.3
5182,-12.44
5193,-14.72
5205,-17.16
5217,-19.79
5229,-22.63
5241,-25.82
5253,-29.54
5265,-34.08
5277,-39.72
5289,-46.6
5301,-54.64
5313,-63.53
5325,-72.81
5337,-81.99
5349,-90.69
5361,-98.64
5372,-105.66
5383,-111.55
5395,-116.07
5407,-119.01
5419,-120.17
5431,-119.49
5443,-117.07
5455,-113.16
5467,-108.09
5479,-102.2
5491,-95.75
5503,-88.97
5515,-82.05
5527,-75.25
5539,-68.71
5551,-62.37
5562,-56.03
5573,-49.31
5585,-41.63
5597,-32.34
5609,-20.96
5621,-7.29
5633,8.32
5645,25.08
5657,41.92
5669,57.56
5681,70.9
5693,81.39
5705,89.05
5717,94.31
5729,97.77
5741,99.76
5752,100.4
5763,99.74
5775,97.26
5787,92.52
5799,85.69
5811,77.62
5823,69.55
5835,62.89
5847,58.12
5859,55.23
5871,53.85
5883,52.23
5895,48.52
5907,41.92
5919,33.04
5931,23.42
5942,15.25
5953,9.19
5965,5.23
5977,2.96
5989,-0.07
6001,-6.51
6013,-17.23
6025,-30.86
6037,-44.69
6049,-55.2
6061,-61.56
6073,-64.01
6085,-63.3
6097,-62.7
6109,-65.75
6121,-74.15
6132,-87.47
6143,-104.5
6155,-123.38
6167,-145.1
6179,-170.5
6191,-184.6
6203,-175.33
6215,-140.88
6227,-91.7
6239,-42.36
6251,-11.01
6263,5.73
6275,13.68
6287,18.11
6299,22.56
6311,30.28
6322,39.76
6333,48.61
6345,55.43
6357,60.22
6369,65.2
6381,71.03
6393,78.47
6405,88.13
6417,98.13
6429,105.36
6441,107.96
6453,106.26
6465,102.14
6477,98.55
6489,96.17
6501,94.76
6512,93.86
6523,91.86
6535,86.99
6547,78.9
6559,68.69
6571,58.18
6583,49.53
6595,43.18
6607,38.98
6619,36.6
6631,35.13
6643,33.44
6655,30.95
6667,27.77
6679,24.44
6691,21.83
6702,20.07
6713,19.05
6725,18.44
6737,17.7
6749,16.17
6761,13.65
6773,10.45
6785,7.13
6797,4.34
6809,2.26
6821,0.78
6833,-0.36
6845,-1.42
6857,-2.58
6869,-3.9
6881,-5.39
6892,-7.19
6903,-9.64
6915,-13.27
6927,-18.64
6939,-26.08
6951,-35.43
6963,-45.96
6975,-56.52
6987,-65.83
6999,-73.0
7011,-77.83
7023,-80.84
7035,-82.98
7047,-85.19
7059,-87.96
7071,-91.23
7082,-94.47
7093,-97.02
7105,-98.28
7117,-97.86
7129,-95.56
7141,-91.36
7153,-85.44
7165,-78.27
7177,-70.57
7189,-63.08
7201,-56.25
7213,-50.02
7225,-43.8
7237,-36.84
7249,-28.68
7261,-19.48
7272,-10.06
7283,-1.42
7295,5.71
7307,11.23
7319,15.63
7331,19.6
7343,23.51
7355,27.18
7367,30.0
7379,31.31
7391,30.86
7403,29.08
7415,26.9
7427,25.33
7439,25.08
7451,26.29
7462,28.6
7473,31.39
7485,34.08
7497,36.34
7509,38.04
7521,39.15
7533,39.64
7545,39.36
7557,38.08
7569,35.58
7581,31.84
7593,27.01
7605,21.46
7617,15.67
7629,10.09
7641,5.03
7652,0.6
7663,-3.22
7675,-6.48
7687,-9.17
7699,-11.15
7711,-12.27
7723,-12.46
7735,-11.83
7747,-10.72
7759,-9.53
7771,-8.63
7783,-8.26
7795,-8.44
7807,-9.07
7819,-9.97
7831,-10.94
7842,-11.85
7853,-12.69
7865,-13.56
7877,-14.65
7889,-16.2
7901,-18.42
7913,-21.38
7925,-24.97
7937,-28.84
7949,-32.45
7961,-35.16
7973,-36.35
7985,-35.61
7997,-32.8
8009,-28.11
8021,-22.02
8032,-15.12
8043,-8.01
8055,-1.13
8067,5.27
8079,11.08
8091,16.21
8103,20.58
8115,24.12
8127,26.77
8139,28.59
8151,29.73
8163,30.43
8175,30.89
8187,31.28
8199,31.66
8211,32.04
8222,32.4
8233,32.75
8245,33.1
8257,33.47
8269,33.84
8281,34.14
8293,34.23
8305,33.95
8317,33.11
8329,31.55
8341,29.23
8353,26.25
8365,22.88
8377,19.43
8389,16.11
8401,12.92
8412,9.59
8423,5.73
8435,1.06
8447,-4.43
8459,-10.36
8471,-16.08
8483,-20.84
8495,-23.99
8507,-25.12
8519,-24.12
8531,-21.14
8543,-16.52
8555,-10.8
8567,-4.52
8579,1.77
8591,7.58
8602,12.57
8613,16.5
8625,19.29
8637,21.03
8649,21.92
8661,22.31
8673,22.51
8685,22.76
8697,23.1
8709,23.43
8721,23.53
8733,23.24
8745,22.49
8757,21.35
8769,20.0
8781,18.66
8792,17.46
8803,16.46
8815,15.62
8827,14.85
8839,14.02
8851,13.01
8863,11.76
8875,10.23
8887,8.43
8899,6.38
8911,4.06
8923,1.45
8935,-1.51
8947,-4.93
8959,-8.85
8971,-13.22
8982,-17.81
8993,-22.21
9005,-25.82
9017,-27.97
9029,-28.14
9041,-26.07
9053,-21.86
9065,-15.94
9077,-8.93
9089,-1.46
9101,5.93
9113,12.94
9125,19.36
9137,25.1
9149,30.01
9161,33.95
9172,36.84
9183,38.67
9195,39.59
9207,39.8
9219,39.48
9231,38.77
9243,37.78
9255,36.62
9267,35.43
9279,34.4
9291,33.65
9303,33.17
9315,32.82
9327,32.37
9339,31.6
9351,30.42
9362,28.87
9373,27.1
9385,25.28
9397,23.48
9409,21.72
9421,19.91
9433,17.95
9445,15.73
9457,13.22
9469,10.44
9481,7.5
9493,4.6
9505,2.06
9517,0.33
9529,-0.11
9541,1.24
9552,4.64
9563,10.04
9575,17.03
9587,24.93
9599,33.0
9611,40.58
9623,47.23
9635,52.77
9647,57.18
9659,60.53
9671,62.89
9683,64.36
9695,65.03
9707,65.05
9719,64.58
9731,63.75
9742,62.61
9753,61.12
9765,59.13
9777,56.45
9789,52.94
9801,48.56
9813,43.38
9825,37.54
9837,31.24
9849,24.6
9861,17.73
9873,10.72
9885,3.61
9897,-3.49
9909,-10.51
9921,-17.38
9932,-24.08
9943,-30.63
9955,-37.04
9967,-43.36
9979,-49.56
9991,-55.64
10003,-61.53
10015,-67.07
10027,-72.01
10039,-76.03
10051,-78.79
10063,-80.01
10075,-79.61
10087,-77.63
10099,-74.3
10111,-69.91
10122,-64.79
10133,-59.32
10145,-53.85
10157,-48.74
10169,-44.27
10181,-40.68
10193,-38.05
10205,-36.37
10217,-35.46
10229,-35.08
10241,-34.87
10253,-34.46
10265,-33.48
10277,-31.65
10289,-28.8
10301,-24.94
10312,-20.16
10323,-14.71
10335,-8.89
10347,-3.12
10359,2.21
10371,6.72
10383,10.25
10395,12.91
10407,15.03
10419,17.14
10431,19.76
10443,23.35
10455,28.21
10467,34.41
10479,41.71
10491,49.55
10502,57.0
10513,62.94
10525,66.32
10537,66.54
10549,63.67
10561,58.52
10573,52.3
10585,46.27
10597,41.35
10609,37.92
10621,35.89
10633,34.86
10645,34.3
10657,33.75
10669,32.8
10681,31.14
10692,28.57
10703,25.04
10715,20.7
10727,15.85
10739,10.87
10751,6.15
10763,1.99
10775,-1.47
10787,-4.19
10799,-6.22
10811,-7.69
10823,-8.74
10835,-9.49
10847,-10.06
10859,-10.52
10871,-11.0
10882,-11.59
10893,-12.45
10905,-13.7
10917,-15.41
10929,-17.55
10941,-20.01
10953,-22.58
10965,-25.06
10977,-27.3
10989,-29.24
11001,-30.88
11013,-32.25
11025,-33.42
11037,-34.44
11049,-35.34
11061,-36.18
11072,-37.03
11083,-37.88
11095,-38.66
11107,-39.21
11119,-39.25
11131,-38.51
11143,-36.82
11155,-34.12
11167,-30.55
11179,-26.36
11191,-21.9
11203,-17.52
11215,-13.45
11227,-9.85
11239,-6.78
11251,-4.27
11262,-2.36
11273,-1.07
11285,-0.4
11297,-0.26
11309,-0.44
11321,-0.7
11333,-0.8
11345,-0.6
11357,-0.11
11369,0.6
11381,1.41
11393,2.26
11405,3.11
11417,3.9
11429,4.58
11441,5.02
11452,5.13
11463,4.88
11475,4.3
11487,3.5
11499,2.58
11511,1.56
11523,0.41
11535,-0.95
11547,-2.59
11559,-4.52
11571,-6.71
11583,-9.11
11595,-11.67
11607,-14.29
11619,-16.77
11631,-18.79
11642,-19.99
11653,-20.1
11665,-19.04
11677,-16.98
11689,-14.25
11701,-11.22
11713,-8.12
11725,-5.06
11737,-2.06
11749,0.83
11761,3.45
11773,5.6
11785,7.1
11797,7.93
11809,8.17
11821,8.02
11832,7.64
11843,7.13
11855,6.49
11867,5.75
11879,4.99
11891,4.36
11903,3.99
11915,3.95
11927,4.16
11939,4.44
11951,4.57
11963,4.39
11975,3.85
11987,3.02
11999,1.99
12011,0.86
12022,-0.33
12033,-1.59
12045,-2.95
12057,-4.4
12069,-5.93
12081,-7.52
12093,-9.12
12105,-10.75
12117,-12.44
12129,-14.23
12141,-16.08
12153,-17.85
12165,-19.24
12177,-19.93
12189,-19.6
12201,-18.13
12212,-15.56
12223,-12.14
12235,-8.24
12247,-4.24
12259,-0.47
12271,2.79
12283,5.4
12295,7.33
12307,8.64
12319,9.47
12331,9.99
12343,10.39
12355,10.8
12367,11.27
12379,11.79
12391,12.3
12402,12.74
12413,13.06
12425,13.26
12437,13.38
12449,13.48
12461,13.65
12473,13.92
12485,14.27
12497,14.57
12509,14.69
12521,14.48
12533,13.88
12545,12.93
12557,11.74
12569,10.4
12581,8.97
12592,7.4
12603,5.61
12615,3.5
12627,0.98
12639,-2.02
12651,-5.52
12663,-9.49
12675,-13.75
12687,-18.02
12699,-21.93
12711,-25.12
12723,-27.35
12735,-28.66
12747,-29.31
12759,-29.74
12771,-30.36
12782,-31.5
12793,-33.3
12805,-35.73
12817,-38.61
12829,-41.71
12841,-44.75
12853,-47.49
12865,-49.75
12877,-51.45
12889,-52.57
12901,-53.13
12913,-53.13
12925,-52.51
12937,-51.1
12949,-48.77
12961,-45.46
12972,-41.26
12983,-36.39
12995,-31.2
13007,-26.02
13019,-21.11
13031,-16.62
13043,-12.59
13055,-9.0
13067,-5.81
13079,-3.04
13091,-0.74
13103,1.04
13115,2.24
13127,2.88
13139,2.99
13151,2.65
13162,1.88
13173,0.66
13185,-1.06
13197,-3.29
13209,-5.95
13221,-8.78
13233,-11.35
13245,-13.13
13257,-13.65
13269,-12.6
13281,-9.94
13293,-5.85
13305,-0.6
13317,5.58
13329,12.53
13341,20.15
13352,28.18
13363,36.2
13375,43.56
13387,49.64
13399,54.03
13411,56.72
13423,58.01
13435,58.38
13447,58.24
13459,57.82
13471,57.17
13483,56.28
13495,55.14
13507,53.8
13519,52.32
13531,50.78
13542,49.18
13553,47.47
13565,45.59
13577,43.48
13589,41.19
13601,38.79
13613,36.4
13625,34.09
13637,31.87
13649,29.68
13661,27.4
13673,24.92
13685,22.15
13697,19.09
13709,15.79
13721,12.35
13732,8.85
13743,5.4
13755,2.1
13767,-0.89
13779,-3.34
13791,-5.04
13803,-5.83
13815,-5.63
13827,-4.54
13839,-2.77
13851,-0.6
13863,1.62
13875,3.67
13887,5.39
13899,6.76
13911,7.83
13922,8.67
13933,9.25
13945,9.44
13957,9.04
13969,7.9
13981,6.07
13993,3.79
14005,1.48
14017,-0.46
14029,-1.82
14041,-2.71
14053,-3.43
14065,-4.35
14077,-5.62
14089,-7.07
14101,-8.26
14112,-8.72
14123,-8.14
14135,-6.63
14147,-4.64
14159,-2.82
14171,-1.68
14183,-1.38
14195,-1.57
14207,-1.54
14219,-0.55
14231,1.86
14243,5.65
14255,10.25
14267,14.8
14279,18.47
14291,20.78
14302,21.86
14313,22.36
14325,23.33
14337,25.93
14349,31.14
14361,39.5
14373,50.86
14385,64.09
14397,77.18
14409,87.67
14421,93.67
14433,95.02
14445,93.81
14457,93.68
14469,97.98
14481,107.76
14492,120.47
14503,130.74
14515,132.39
14527,121.03
14539,95.49
14551,57.62
14563,11.01
14575,-40.41
14587,-92.95
14599,-143.04
14611,-187.17
14623,-222.26
14635,-246.84
14647,-261.88
14659,-270.73
14671,-277.75
14682,-286.38
14693,-297.8
14705,-310.77
14717,-322.74
14729,-331.36
14741,-335.55
14753,-335.69
14765,-333.05
14777,-329.04
14789,-324.67
14801,-320.67
14813,-317.54
14825,-315.77
14837,-315.62
14849,-316.85
14861,-318.21
14872,-317.47
14883,-311.85
14895,-298.9
14907,-277.38
14919,-247.82
14931,-212.35
14943,-173.87
14955,-135.17
14967,-98.13
14979,-63.65
14991,-32.03
15003,-3.53
15015,21.29
15027,41.72
15039,57.35
15051,68.47
15062,76.16
15073,82.0
15085,87.49
15097,93.51
15109,100.13
15121,106.78
15133,112.76
15145,117.56
15157,121.15
15169,123.8
15181,125.86
15193,127.43
15205,128.3
15217,128.01
15229,126.14
15241,122.52
15252,117.39
15263,111.25
15275,104.67
15287,97.99
15299,91.22
15311,84.0
15323,75.74
15335,65.86
15347,54.04
15359,40.41
15371,25.71
15383,11.42
15395,-0.42
15407,-7.6
15419,-8.29
15431,-1.64
15442,11.94
15453,30.86
15465,52.8
15477,75.36
15489,96.62
15501,115.28
15513,130.64
15525,142.35
15537,150.22
15549,154.26
15561,154.7
15573,152.19
15585,147.77
15597,142.65
15609,137.92
15621,134.31
15632,132.04
15643,130.89
15655,130.38
15667,130.13
15679,129.93
15691,129.81
15703,129.84
15715,129.89
15727,129.57
15739,128.33
15751,125.66
15763,121.41
15775,115.86
15787,109.64
15799,103.46
15811,97.81
15822,92.75
15833,87.92
15845,82.67
15857,76.31
15869,68.46
15881,59.31
15893,49.84
15905,41.78
15917,37.29
15929,38.36
15941,46.18
15953,60.62
15965,80.27
15977,102.8
15989,125.72
16001,147.1
16012,165.96
16023,182.14
16035,195.94
16047,207.55
16059,216.7
16071,222.52
16083,223.76
16095,219.06
16107,207.28
16119,187.7
16131,160.23
16143,125.54
16155,85.26
16167,41.96
16179,-1.11
16191,-40.63
16202,-73.96
16213,-99.87
16225,-118.72
16237,-132.14
16249,-142.21
16261,-150.54
16273,-157.7
16285,-163.05
16297,-165.31
16309,-163.21
16321,-156.08
16333,-144.15
16345,-128.35
16357,-110.0
16369,-90.43
16381,-70.84
16392,-52.21
16403,-35.33
16415,-20.67
16427,-8.27
16439,2.39
16451,12.24
16463,22.38
16475,33.54
16487,45.84
16499,58.69
16511,71.03
16523,81.85
16535,90.49
16547,96.87
16559,101.41
16571,104.88
16582,108.2
16593,112.2
16605,117.28
16617,123.2
16629,128.96
16641,133.06
16653,134.09
16665,131.44
16677,125.78
16689,118.81
16701,112.65
16713,108.98
16725,108.49
16737,111.0
16749,115.89
16761,122.65
16772,131.07
16783,141.07
16795,152.37
16807,164.24
16819,175.6
16831,185.31
16843,192.35
16855,195.9
16867,195.34
16879,190.3
16891,180.82
16903,167.69
16915,152.45
16927,137.13
16939,123.66
16951,113.22
16962,105.94
16973,100.98
16985,96.93
16997,92.3
17009,85.96
17021,77.41
17033,66.82
17045,55.03
17057,43.38
17069,33.39
17081,26.28
17093,22.68
17105,22.44
17117,24.79
17129,28.7
17141,33.23
17152,37.75
17163,41.93
17175,45.6
17187,48.56
17199,50.54
17211,51.27
17223,50.62
17235,48.62
17247,45.54
17259,41.7
17271,37.33
17283,32.42
17295,26.59
17307,19.19
17319,9.47
17331,-3.13
17342,-18.69
17353,-36.66
17365,-56.18
17377,-76.25
17389,-96.13
17401,-115.63
17413,-135.05
17425,-155.07
17437,-176.71
17449,-201.21
17461,-229.67
17473,-262.36
17485,-297.8
17497,-332.3
17509,-360.41
17521,-376.34
17532,-375.93
17543,-358.07
17555,-325.15
17567,-282.19
17579,-235.34
17591,-190.36
17603,-151.79
17615,-122.52
17627,-103.91
17639,-95.85
17651,-96.97
17663,-104.88
17675,-116.68
17687,-129.57
17699,-141.23
17711,-150.07
17722,-155.15
17733,-156.39
17745,-154.76
17757,-152.29
17769,-151.48
17781,-154.52
17793,-162.33
17805,-174.28
17817,-188.75
17829,-204.15
17841,-219.69
17853,-235.56
17865,-252.15
17877,-269.1
17889,-284.85
17901,-296.89
17912,-302.73
17923,-300.94
17935,-291.6
17947,-275.97
17959,-255.75
17971,-232.39
17983,-206.79
17995,-179.56
18007,-151.33
18019,-123.05
18031,-95.96
18043,-71.22
18055,-49.6
18067,-31.19
18079,-15.41
18091,-1.3
18102,12.17
18113,25.69
18125,39.36
18137,52.53
18149,64.03
18161,72.41
18173,76.37
18185,75.09
18197,68.39
18209,56.72
18221,41.05
18233,22.6
18245,2.78
18257,-17.07
18269,-35.8
18281,-52.67
18292,-67.32
18303,-79.69
18315,-89.83
18327,-97.61
18339,-102.71
18351,-104.67
18363,-103.12
18375,-97.85
18387,-88.76
18399,-75.63
18411,-58.03
18423,-35.5
18435,-7.93
18447,23.87
18459,58.0
18471,91.65
18482,121.81
18493,145.99
18505,162.88
18517,172.39
18529,175.33
18541,172.98
18553,166.6
18565,157.31
18577,146.06
18589,133.74
18601,121.18
18613,109.09
18625,97.88
18637,87.68
18649,78.32
18661,69.47
18672,60.85
18683,52.33
18695,44.01
18707,36.14
18719,29.0
18731,22.73
18743,17.26
18755,12.23
18767,7.11
18779,1.36
18791,-5.4
18803,-13.17
18815,-21.62
18827,-29.98
18839,-37.33
18851,-42.76
18862,-45.67
18873,-45.89
18885,-43.75
18897,-39.93
18909,-35.31
18921,-30.69
18933,-26.61
18945,-23.2
18957,-20.11
18969,-16.68
18981,-12.13
18993,-5.83
19005,2.46
19017,12.46
19029,23.45
19041,34.59
19052,45.08
19063,54.37
19075,62.16
19087,68.39
19099,73.09
19111,76.4
19123,78.54
19135,79.83
19147,80.58
19159,81.03
19171,81.21
19183,81.04
19195,80.32
19207,78.93
19219,76.88
19231,74.28
19242,71.32
19253,68.14
19265,64.83
19277,61.37
19289,57.72
19301,53.92
19313,50.09
19325,46.47
19337,43.37
19349,41.08
19361,39.79
19373,39.49
19385,39.95
19397,40.77
19409,41.45
19421,41.51
19432,40.63
19443,38.68
19455,35.74
19467,31.96
19479,27.51
19491,22.51
19503,17.02
19515,11.16
19527,5.09
19539,-0.88
19551,-6.39
19563,-11.11
19575,-14.85
19587,-17.67
19599,-19.84
19611,-21.61
19622,-23.18
19633,-24.49
19645,-25.29
19657,-25.29
19669,-24.32
19681,-22.48
19693,-20.04
19705,-17.32
19717,-14.48
19729,-11.48
19741,-8.14
19753,-4.4
19765,-0.41
19777,3.35
19789,6.26
19801,7.75
19812,7.5
19823,5.62
19835,2.66
19847,-0.55
19859,-3.07
19871,-4.1
19883,-3.12
19895,0.03
19907,5.22
19919,12.12
19931,20.34
19943,29.48
19955,39.11
19967,48.71
19979,57.72
19991,65.54
20002,71.7
20013,75.99
20025,78.44
20037,79.31
20049,78.91
20061,77.38
20073,74.64
20085,70.33
20097,64.07
20109,55.59
20121,45.0
20133,32.85
20145,20.08
20157,7.79
20169,-3.1
20181,-11.99
20192,-18.74
20203,-23.55
20215,-26.83
20227,-28.99
20239,-30.39
20251,-31.3
20263,-32.02
20275,-32.94
20287,-34.57
20299,-37.52
20311,-42.39
20323,-49.6
20335,-59.34
20347,-71.41
20359,-85.14
20371,-99.28
20382,-112.03
20393,-121.36
20405,-125.39
20417,-122.96
20429,-113.94
20441,-99.18
20453,-80.21
20465,-58.75
20477,-36.34
20489,-14.21
20501,6.51
20513,24.69
20525,39.12
20537,48.74
20549,52.99
20561,52.07
20572,46.94
20583,39.13
20595,30.28
20607,21.77
20619,14.38
20631,8.25
20643,2.9
20655,-2.48
20667,-8.72
20679,-16.4
20691,-25.57
20703,-35.73
20715,-45.94
20727,-55.13
20739,-62.4
20751,-67.45
20762,-70.72
20773,-73.32
20785,-76.68
20797,-82.05
20809,-89.88
20821,-99.49
20833,-109.1
20845,-116.24
20857,-118.48
20869,-114.11
20881,-102.55
20893,-84.49
20905,-61.49
20917,-35.53
20929,-8.59
20941,17.64
20952,41.88
20963,63.23
20975,81.16
20987,95.55
20999,106.61
