seconds,BVP
7,15.25
19,10.79
31,7.4
43,5.56
55,5.34
67,6.36
79,7.87
91,9.04
103,9.15
115,7.76
127,4.81
139,0.58
151,-4.41
162,-9.61
173,-14.57
185,-19.09
197,-23.34
209,-27.73
221,-32.81
233,-38.92
245,-45.9
257,-52.93
269,-58.58
281,-61.15
293,-59.22
305,-52.16
317,-40.37
329,-25.21
341,-8.58
352,7.63
363,21.95
375,33.5
387,41.89
399,47.06
411,49.11
423,48.27
435,44.91
447,39.65
459,33.23
471,26.44
483,20.03
495,14.6
507,10.58
519,8.26
531,7.74
542,8.95
553,11.55
565,14.9
577,18.17
589,20.43
601,20.89
613,19.17
625,15.36
637,10.08
649,4.29
661,-1.09
673,-5.4
685,-8.54
697,-10.88
709,-13.01
721,-15.53
732,-18.87
743,-23.19
755,-28.47
767,-34.42
779,-40.44
791,-45.47
803,-48.09
815,-46.84
827,-40.8
839,-29.98
851,-15.53
863,0.54
875,15.99
887,28.95
899,38.36
911,43.97
922,46.09
933,45.26
945,42.01
957,36.86
969,30.35
981,23.18
993,16.1
1005,9.87
1017,5.0
1029,1.7
1041,-0.17
1053,-0.99
1065,-1.2
1077,-1.15
1089,-0.98
1101,-0.71
1112,-0.34
1123,-0.01
1135,-0.06
1147,-0.93
1159,-2.98
1171,-6.29
1183,-10.6
1195,-15.37
1207,-20.07
1219,-24.41
1231,-28.52
1243,-32.96
1255,-38.4
1267,-45.35
1279,-53.74
1291,-62.8
1302,-71.07
1313,-76.73
1325,-78.13
1337,-74.21
1349,-64.89
1361,-51.02
1373,-34.1
1385,-15.85
1397,2.21
1409,18.91
1421,33.38
1433,45.0
1445,53.29
1457,58.05
1469,59.41
1481,57.96
1492,54.57
1503,50.24
1515,45.8
1527,41.76
1539,38.27
1551,35.22
1563,32.36
1575,29.4
1587,26.23
1599,22.89
1611,19.71
1623,17.17
1635,15.68
1647,15.3
1659,15.56
1671,15.52
1682,14.14
1693,10.74
1705,5.32
1717,-1.38
1729,-8.24
1741,-14.35
1753,-19.39
1765,-23.73
1777,-28.18
1789,-33.59
1801,-40.38
1813,-48.4
1825,-56.84
1837,-64.4
1849,-69.48
1861,-70.58
1872,-66.61
1883,-57.25
1895,-43.16
1907,-25.89
1919,-7.46
1931,10.12
1943,25.3
1955,37.21
1967,45.57
1979,50.51
1991,52.29
2003,51.28
2015,47.98
2027,43.02
2039,37.26
2051,31.53
2062,26.54
2073,22.68
2085,19.98
2097,18.17
2109,16.94
2121,16.06
2133,15.52
2145,15.41
2157,15.81
2169,16.52
2181,17.11
2193,16.9
2205,15.3
2217,12.0
2229,7.19
2241,1.39
2252,-4.65
2263,-10.32
2275,-15.3
2287,-19.68
2299,-23.84
2311,-28.4
2323,-33.93
2335,-40.78
2347,-48.82
2359,-57.27
2371,-64.7
2383,-69.28
2395,-69.28
2407,-63.64
2419,-52.37
2431,-36.63
2442,-18.36
2453,0.24
2465,17.28
2477,31.52
2489,42.37
2501,49.7
2513,53.64
2525,54.42
2537,52.35
2549,47.93
2561,41.88
2573,35.14
2585,28.68
2597,23.29
2609,19.39
2621,16.99
2632,15.79
2643,15.37
2655,15.42
2667,15.79
2679,16.47
2691,17.4
2703,18.35
2715,18.86
2727,18.33
2739,16.27
2751,12.54
2763,7.4
2775,1.5
2787,-4.4
2799,-9.7
2811,-14.13
2822,-17.9
2833,-21.52
2845,-25.65
2857,-30.82
2869,-37.3
2881,-44.9
2893,-52.97
2905,-60.36
2917,-65.62
2929,-67.22
2941,-63.99
2953,-55.5
2965,-42.31
2977,-25.9
2989,-8.25
3001,8.65
3012,23.3
3023,34.91
3035,43.33
3047,48.74
3059,51.38
3071,51.42
3083,49.02
3095,44.52
3107,38.58
3119,32.09
3131,26.04
3143,21.16
3155,17.77
3167,15.73
3179,14.62
3191,13.99
3202,13.61
3213,13.47
3225,13.69
3237,14.27
3249,14.94
3261,15.14
3273,14.21
3285,11.68
3297,7.48
3309,1.98
3321,-4.08
3333,-9.97
3345,-15.16
3357,-19.55
3369,-23.44
3381,-27.36
3392,-31.87
3403,-37.36
3415,-43.88
3427,-51.05
3439,-58.02
3451,-63.54
3463,-66.13
3475,-64.49
3487,-57.91
3499,-46.56
3511,-31.56
3523,-14.7
3535,2.11
3547,17.31
3559,29.98
3571,39.72
3582,46.49
3593,50.3
3605,51.16
3617,49.21
3629,44.91
3641,39.03
3653,32.62
3665,26.67
3677,21.89
3689,18.56
3701,16.57
3713,15.6
3725,15.26
3737,15.29
3749,15.52
3761,15.83
3772,16.09
3783,16.05
3795,15.42
3807,13.88
3819,11.22
3831,7.39
3843,2.63
3855,-2.62
3867,-7.84
3879,-12.56
3891,-16.59
3903,-20.07
3915,-23.46
3927,-27.37
3939,-32.38
3951,-38.77
3962,-46.35
3973,-54.26
3985,-61.12
3997,-65.19
4009,-64.84
4021,-59.14
4033,-48.13
4045,-32.98
4057,-15.61
4069,1.89
4081,17.75
4093,30.88
4105,40.84
4117,47.6
4129,51.25
4141,51.92
4152,49.83
4163,45.42
4175,39.46
4187,32.91
4199,26.72
4211,21.55
4223,17.59
4235,14.68
4247,12.41
4259,10.49
4271,8.82
4283,7.56
4295,6.91
4307,6.86
4319,7.02
4331,6.64
4342,4.89
4353,1.21
4365,-4.4
4377,-11.29
4389,-18.44
4401,-24.81
4413,-29.72
4425,-33.04
4437,-35.15
4449,-36.78
4461,-38.75
4473,-41.78
4485,-46.34
4497,-52.38
4509,-59.29
4521,-65.83
4532,-70.33
4543,-71.18
4555,-67.32
4567,-58.65
4579,-46.09
4591,-31.23
4603,-15.82
4615,-1.17
4627,12.07
4639,23.85
4651,34.34
4663,43.61
4675,51.48
4687,57.57
4699,61.58
4711,63.54
4722,63.82
4733,63.01
4745,61.66
4757,60.06
4769,58.21
4781,55.97
4793,53.22
4805,50.09
4817,46.88
4829,43.89
4841,41.25
4853,38.74
4865,35.88
4877,32.07
4889,26.86
4901,20.15
4912,12.24
4923,3.78
4935,-4.48
4947,-11.91
4959,-18.18
4971,-23.37
4983,-27.92
4995,-32.43
5007,-37.49
5019,-43.48
5031,-50.37
5043,-57.63
5055,-64.23
5067,-68.8
5079,-69.92
5091,-66.52
5102,-58.25
5113,-45.61
5125,-29.96
5137,-13.12
5149,3.08
5161,17.19
5173,28.34
5185,36.22
5197,40.87
5209,42.52
5221,41.47
5233,38.14
5245,33.14
5257,27.25
5269,21.35
5281,16.2
5292,12.25
5303,9.58
5315,7.98
5327,7.12
5339,6.76
5351,6.81
5363,7.25
5375,8.02
5387,8.89
5399,9.46
5411,9.2
5423,7.68
5435,4.68
5447,0.34
5459,-4.88
5471,-10.28
5482,-15.27
5493,-19.5
5505,-23.02
5517,-26.29
5529,-29.95
5541,-34.6
5553,-40.5
5565,-47.38
5577,-54.39
5589,-60.16
5601,-63.1
5613,-61.81
5625,-55.52
5637,-44.4
5649,-29.55
5661,-12.77
5672,3.95
5683,18.92
5695,31.08
5707,40.0
5719,45.71
5731,48.39
5743,48.27
5755,45.63
5767,40.91
5779,34.78
5791,28.16
5803,21.96
5815,16.89
5827,13.3
5839,11.13
5851,10.06
5862,9.71
5873,9.79
5885,10.18
5897,10.83
5909,11.6
5921,12.23
5933,12.26
5945,11.23
5957,8.83
5969,5.07
5981,0.25
5993,-5.06
6005,-10.32
6017,-15.12
6029,-19.38
6041,-23.31
6052,-27.4
6063,-32.15
6075,-37.88
6087,-44.49
6099,-51.29
6111,-57.07
6123,-60.32
6135,-59.64
6147,-54.2
6159,-44.08
6171,-30.27
6183,-14.42
6195,1.59
6207,16.18
6219,28.28
6231,37.39
6242,43.4
6253,46.44
6265,46.7
6277,44.52
6289,40.38
6301,34.96
6313,29.1
6325,23.55
6337,18.92
6349,15.47
6361,13.21
6373,11.99
6385,11.61
6397,11.88
6409,12.6
6421,13.51
6432,14.23
6443,14.31
6455,13.38
6467,11.23
6479,7.9
6491,3.67
6503,-1.05
6515,-5.88
6527,-10.54
6539,-14.96
6551,-19.23
6563,-23.61
6575,-28.42
6587,-34.01
6599,-40.47
6611,-47.52
6622,-54.3
6633,-59.44
6645,-61.35
6657,-58.74
6669,-51.02
6681,-38.67
6693,-23.1
6705,-6.25
6717,9.96
6729,24.04
6741,35.16
6753,43.02
6765,47.68
6777,49.37
6789,48.36
6801,45.08
6812,40.14
6823,34.31
6835,28.43
6847,23.19
6859,19.02
6871,16.03
6883,14.09
6895,12.97
6907,12.45
6919,12.39
6931,12.68
6943,13.16
6955,13.55
6967,13.44
6979,12.41
6991,10.19
7002,6.72
7013,2.26
7025,-2.72
7037,-7.73
7049,-12.41
7061,-16.7
7073,-20.82
7085,-25.18
7097,-30.2
7109,-36.18
7121,-42.99
7133,-50.05
7145,-56.22
7157,-60.01
7169,-59.97
7181,-55.15
7192,-45.47
7203,-31.86
7215,-16.05
7227,0.01
7239,14.62
7251,26.67
7263,35.73
7275,41.78
7287,44.95
7299,45.44
7311,43.47
7323,39.47
7335,34.16
7347,28.44
7359,23.16
7371,18.93
7382,15.94
7393,14.05
7405,12.95
7417,12.4
7429,12.27
7441,12.5
7453,12.97
7465,13.39
7477,13.32
7489,12.27
7501,9.9
7513,6.19
7525,1.41
7537,-3.92
7549,-9.25
7561,-14.23
7572,-18.83
7583,-23.32
7595,-28.19
7607,-33.95
7619,-40.87
7631,-48.81
7643,-57.04
7655,-64.37
7667,-69.34
7679,-70.64
7691,-67.6
7703,-60.55
7715,-50.74
7727,-39.98
7739,-29.93
7751,-21.48
7762,-14.5
7773,-8.07
7785,-1.09
7797,7.04
7809,16.08
7821,25.09
7833,32.97
7845,39.11
7857,43.78
7869,48.2
7881,54.13
7893,63.39
7905,77.18
7917,95.66
7929,117.71
7941,140.97
7952,162.32
7963,178.65
7975,187.66
7987,188.51
7999,181.95
8011,170.02
8023,155.39
8035,140.52
8047,127.14
8059,115.98
8071,106.88
8083,99.09
8095,91.58
8107,83.33
8119,73.62
8131,62.23
8142,49.42
8153,35.81
8165,22.01
8177,8.43
8189,-4.77
8201,-17.48
8213,-29.33
8225,-39.66
8237,-47.6
8249,-52.27
8261,-53.04
8273,-49.65
8285,-42.26
8297,-31.5
8309,-18.52
8321,-5.0
8332,7.01
8343,15.56
8355,19.36
8367,18.26
8379,13.3
8391,6.37
8403,-0.37
8415,-5.15
8427,-6.86
8439,-5.13
8451,-0.2
8463,7.21
8475,16.01
8487,24.81
8499,32.22
8511,37.07
8522,38.83
8533,37.75
8545,34.8
8557,31.3
8569,28.43
8581,26.82
8593,26.45
8605,26.73
8617,26.79
8629,25.85
8641,23.38
8653,19.25
8665,13.74
8677,7.51
8689,1.64
8701,-2.62
8712,-4.09
8723,-2.12
8735,3.15
8747,10.73
8759,19.01
8771,26.2
8783,30.8
8795,31.88
8807,29.16
8819,22.92
8831,13.77
8843,2.44
8855,-10.31
8867,-23.79
8879,-37.39
8891,-50.63
8902,-63.13
8913,-74.6
8925,-84.83
8937,-93.55
8949,-100.57
8961,-105.7
8973,-108.96
8985,-110.57
8997,-110.96
9009,-110.69
9021,-110.34
9033,-110.35
9045,-110.95
9057,-112.14
9069,-113.74
9081,-115.45
9092,-116.91
9103,-117.78
9115,-117.94
9127,-117.51
9139,-116.94
9151,-116.85
9163,-117.75
9175,-119.69
9187,-122.09
9199,-123.79
9211,-123.44
9223,-120.01
9235,-113.22
9247,-103.65
9259,-92.5
9271,-81.17
9282,-70.71
9293,-61.62
9305,-53.89
9317,-47.17
9329,-41.15
9341,-35.65
9353,-30.66
9365,-26.16
9377,-22.16
9389,-18.78
9401,-16.39
9413,-15.61
9425,-17.11
9437,-21.15
9449,-27.09
9461,-33.33
9472,-37.63
9483,-37.92
9495,-33.13
9507,-23.57
9519,-10.82
9531,2.92
9543,15.68
9555,26.25
9567,34.25
9579,39.85
9591,43.35
9603,44.94
9615,44.74
9627,43.01
9639,40.3
9651,37.44
9662,35.29
9673,34.47
9685,35.03
9697,36.58
9709,38.48
9721,40.13
9733,41.27
9745,41.98
9757,42.55
9769,43.22
9781,44.01
9793,44.74
9805,45.09
9817,44.88
9829,44.16
9841,43.18
9852,42.29
9863,41.69
9875,41.42
9887,41.28
9899,41.04
9911,40.52
9923,39.64
9935,38.39
9947,36.84
9959,35.07
9971,33.21
9983,31.43
9995,29.86
10007,28.61
10019,27.59
10031,26.56
10042,25.18
10053,23.14
10065,20.32
10077,16.82
10089,12.95
10101,9.08
10113,5.53
10125,2.51
10137,0.1
10149,-1.67
10161,-2.79
10173,-3.19
10185,-2.87
10197,-1.85
10209,-0.26
10221,1.66
10232,3.65
10243,5.41
10255,6.69
10267,7.33
10279,7.3
10291,6.73
10303,5.88
10315,5.07
10327,4.64
10339,4.8
10351,5.6
10363,7.0
10375,8.91
10387,11.26
10399,13.96
10411,16.89
10422,19.78
10433,22.19
10445,23.66
10457,23.82
10469,22.6
10481,20.25
10493,17.23
10505,14.08
10517,11.21
10529,8.84
10541,6.96
10553,5.46
10565,4.19
10577,3.04
10589,1.88
10601,0.61
10612,-0.88
10623,-2.64
10635,-4.63
10647,-6.66
10659,-8.46
10671,-9.78
10683,-10.51
10695,-10.75
10707,-10.77
10719,-10.83
10731,-11.13
10743,-11.69
10755,-12.37
10767,-13.01
10779,-13.48
10791,-13.79
10802,-14.07
10813,-14.5
10825,-15.18
10837,-16.14
10849,-17.23
10861,-18.25
10873,-19.02
10885,-19.42
10897,-19.46
10909,-19.29
10921,-19.06
10933,-18.91
10945,-18.9
10957,-18.98
10969,-19.02
10981,-18.86
10992,-18.32
11003,-17.24
11015,-15.51
11027,-13.12
11039,-10.17
11051,-6.84
11063,-3.4
11075,-0.12
11087,2.7
11099,4.84
11111,6.13
11123,6.61
11135,6.48
11147,6.18
11159,6.22
11171,6.99
11182,8.7
11193,11.23
11205,14.27
11217,17.49
11229,20.71
11241,23.93
11253,27.3
11265,30.97
11277,35.0
11289,39.27
11301,43.5
11313,47.37
11325,50.52
11337,52.75
11349,54.03
11361,54.59
11372,54.89
11383,55.59
11395,57.48
11407,61.21
11419,67.03
11431,74.45
11443,82.17
11455,88.19
11467,90.38
11479,87.15
11491,77.79
11503,62.62
11515,42.59
11527,18.68
11539,-8.38
11551,-38.18
11562,-70.14
11573,-103.24
11585,-135.92
11597,-166.36
11609,-193.18
11621,-215.8
11633,-234.58
11645,-250.42
11657,-264.18
11669,-276.24
11681,-286.29
11693,-293.52
11705,-296.92
11717,-295.58
11729,-288.71
11741,-275.77
11752,-256.46
11763,-230.9
11775,-199.91
11787,-165.08
11799,-128.59
11811,-92.73
11823,-59.35
11835,-29.51
11847,-3.56
11859,18.5
11871,36.62
11883,50.66
11895,60.67
11907,67.28
11919,71.9
11931,76.44
11942,82.64
11953,91.37
11965,102.36
11977,114.31
11989,125.46
12001,134.29
12013,139.97
12025,142.5
12037,142.51
12049,140.99
12061,138.8
12073,136.45
12085,133.83
12097,130.29
12109,124.85
12121,116.49
12132,104.47
12143,88.54
12155,68.95
12167,46.5
12179,22.54
12191,-1.13
12203,-22.53
12215,-40.02
12227,-52.82
12239,-61.23
12251,-66.4
12263,-69.56
12275,-71.42
12287,-71.82
12299,-70.05
12311,-65.46
12322,-58.11
12333,-48.89
12345,-39.19
12357,-30.27
12369,-22.75
12381,-16.46
12393,-10.73
12405,-4.89
12417,1.22
12429,7.04
12441,11.44
12453,13.15
12465,11.32
12477,5.95
12489,-2.05
12501,-11.25
12512,-20.33
12523,-28.67
12535,-36.52
12547,-44.74
12559,-54.24
12571,-65.45
12583,-78.17
12595,-91.79
12607,-105.66
12619,-119.42
12631,-133.06
12643,-146.6
12655,-159.76
12667,-171.8
12679,-181.53
12691,-187.74
12702,-189.63
12713,-187.17
12725,-181.1
12737,-172.5
12749,-162.43
12761,-151.48
12773,-139.63
12785,-126.52
12797,-111.83
12809,-95.6
12821,-78.38
12833,-61.02
12845,-44.36
12857,-28.8
12869,-14.12
12881,0.38
12892,15.45
12903,31.32
12915,47.33
12927,62.0
12939,73.57
12951,80.81
12963,83.63
12975,83.28
12987,81.85
12999,81.53
13011,83.93
13023,89.88
13035,99.59
13047,113.04
13059,130.21
13071,151.0
13082,175.01
13093,201.34
13105,228.62
13117,255.44
13129,280.6
13141,303.45
13153,323.62
13165,340.92
13177,354.94
13189,365.09
13201,370.76
13213,371.61
13225,367.85
13237,360.18
13249,349.69
13261,337.58
13272,324.87
13283,312.33
13295,300.41
13307,289.26
13319,278.8
13331,268.74
13343,258.59
13355,247.72
13367,235.48
13379,221.37
13391,205.13
13403,186.83
13415,166.83
13427,145.61
13439,123.54
13451,100.64
13462,76.53
13473,50.51
13485,21.85
13497,-9.8
13509,-44.19
13521,-80.32
13533,-116.8
13545,-152.25
13557,-185.72
13569,-217.05
13581,-246.77
13593,-275.82
13605,-305.08
13617,-334.91
13629,-364.9
13641,-393.71
13652,-419.23
13663,-438.9
13675,-450.23
13687,-451.38
13699,-441.84
13711,-422.81
13723,-397.19
13735,-368.94
13747,-341.94
13759,-318.61
13771,-299.11
13783,-281.24
13795,-261.52
13807,-236.74
13819,-205.38
13831,-168.31
13842,-128.36
13853,-89.13
13865,-53.67
13877,-23.69
13889,0.45
13901,19.22
13913,33.16
13925,42.58
13937,47.7
13949,48.97
13961,47.39
13973,44.29
13985,41.01
13997,38.32
14009,36.1
14021,33.49
14032,29.33
14043,22.83
14055,14.05
14067,4.06
14079,-5.43
14091,-12.68
14103,-16.64
14115,-17.24
14127,-15.33
14139,-12.07
14151,-8.38
14163,-4.55
14175,-0.33
14187,4.62
14199,10.34
14211,16.45
14222,22.6
14233,29.06
14245,37.01
14257,48.29
14269,64.47
14281,85.79
14293,110.52
14305,135.13
14317,155.25
14329,166.98
14341,167.93
14353,157.7
14365,137.73
14377,110.79
14389,80.52
14401,51.01
14412,26.37
14423,10.03
14435,3.85
14447,7.26
14459,17.03
14471,28.07
14483,35.01
14495,33.89
14507,23.51
14519,5.57
14531,-16.07
14543,-36.83
14555,-52.85
14567,-61.92
14579,-63.83
14591,-59.97
14602,-52.51
14613,-43.3
14625,-32.99
14637,-20.64
14649,-4.26
14661,18.06
14673,46.63
14685,79.41
14697,112.35
14709,140.85
14721,161.56
14733,173.64
14745,178.78
14757,180.14
14769,180.78
14781,182.59
14792,185.9
14803,189.91
14815,193.28
14827,194.39
14839,191.36
14851,181.89
14863,163.6
14875,134.77
14887,95.32
14899,47.43
14911,-4.66
14923,-55.69
14935,-100.77
14947,-136.64
14959,-162.2
14971,-178.18
14982,-186.39
14993,-188.81
15005,-187.06
15017,-182.25
15029,-175.18
15041,-166.52
15053,-156.92
15065,-146.97
15077,-137.17
15089,-127.87
15101,-119.34
15113,-111.76
15125,-105.22
15137,-99.63
15149,-94.75
15161,-90.25
15172,-85.9
15183,-81.79
15195,-78.39
15207,-76.46
15219,-76.75
15231,-79.58
15243,-84.43
15255,-89.86
15267,-93.72
15279,-93.59
15291,-87.48
15303,-74.45
15315,-54.92
15327,-30.55
15339,-3.84
15351,22.54
15362,46.39
15373,66.22
15385,81.34
15397,91.66
15409,97.47
15421,99.3
15433,97.84
15445,93.99
15457,88.77
15469,83.2
15481,78.17
15493,74.23
15505,71.6
15517,70.16
15529,69.59
15541,69.48
15552,69.43
15563,69.04
15575,67.98
15587,66.03
15599,63.07
15611,59.17
15623,54.49
15635,49.25
15647,43.59
15659,37.6
15671,31.25
15683,24.41
15695,16.91
15707,8.61
15719,-0.54
15731,-10.36
15742,-20.19
15753,-28.84
15765,-34.68
15777,-36.03
15789,-31.71
15801,-21.48
15813,-6.28
15825,11.97
15837,30.89
15849,48.3
15861,62.69
15873,73.4
15885,80.51
15897,84.42
15909,85.63
15921,84.48
15932,81.23
15943,76.16
15955,69.74
15967,62.6
15979,55.46
15991,48.97
16003,43.57
16015,39.46
16027,36.58
16039,34.73
16051,33.6
16063,32.77
16075,31.75
16087,30.03
16099,27.23
16111,23.17
16122,17.93
16133,11.88
16145,5.44
16157,-1.0
16169,-7.27
16181,-13.55
16193,-20.27
16205,-28.0
16217,-37.12
16229,-47.42
16241,-57.86
16253,-66.53
16265,-71.08
16277,-69.43
16289,-60.53
16301,-44.78
16312,-24.02
16323,-0.98
16335,21.52
16347,41.28
16359,57.06
16371,68.52
16383,75.92
16395,79.72
16407,80.38
16419,78.33
16431,74.06
16443,68.18
16455,61.42
16467,54.42
16479,47.73
16491,41.66
16502,36.4
16513,32.05
16525,28.69
16537,26.31
16549,24.7
16561,23.44
16573,21.91
16585,19.53
16597,15.99
16609,11.33
16621,5.94
16633,0.28
16645,-5.33
16657,-10.88
16669,-16.64
16681,-23.04
16692,-30.48
16703,-39.18
16715,-48.91
16727,-58.89
16739,-67.68
16751,-73.35
16763,-73.94
16775,-68.02
16787,-55.34
16799,-37.08
16811,-15.67
16823,5.91
16835,25.05
16847,40.15
16859,50.87
16871,57.75
16882,61.64
16893,63.14
16905,62.46
16917,59.61
16929,54.76
16941,48.51
16953,41.79
16965,35.59
16977,30.53
16989,26.72
17001,23.88
17013,21.65
17025,19.82
17037,18.34
17049,17.22
17061,16.37
17072,15.44
17083,14.02
17095,11.75
17107,8.51
17119,4.41
17131,-0.28
17143,-5.32
17155,-10.58
17167,-16.17
17179,-22.32
17191,-29.33
17203,-37.41
17215,-46.48
17227,-55.97
17239,-64.73
17251,-71.18
17262,-73.57
17273,-70.59
17285,-61.8
17297,-47.94
17309,-30.73
17321,-12.44
17333,4.69
17345,18.98
17357,29.58
17369,36.4
17381,39.89
17393,40.73
17405,39.64
17417,37.26
17429,34.1
17441,30.49
17452,26.61
17463,22.5
17475,18.26
17487,14.09
17499,10.42
17511,7.72
17523,6.35
17535,6.3
17547,7.18
17559,8.3
17571,8.95
17583,8.63
17595,7.15
17607,4.62
17619,1.31
17631,-2.54
17642,-6.69
17653,-11.01
17665,-15.44
17677,-20.01
17689,-24.92
17701,-30.46
17713,-36.86
17725,-44.04
17737,-51.33
17749,-57.52
17761,-60.97
17773,-60.16
17785,-54.19
17797,-43.14
17809,-28.17
17821,-11.18
17832,5.7
17843,20.57
17855,32.22
17867,40.11
17879,44.32
17891,45.24
17903,43.45
17915,39.58
17927,34.24
17939,28.11
17951,21.83
17963,15.98
17975,11.02
17987,7.21
17999,4.66
18011,3.35
18022,3.17
18033,3.93
18045,5.31
18057,6.84
18069,7.96
18081,8.1
18093,6.89
18105,4.26
18117,0.47
18129,-4.0
18141,-8.61
18153,-12.99
18165,-17.01
18177,-20.85
18189,-24.96
18201,-29.85
18212,-35.86
18223,-42.84
18235,-49.94
18247,-55.67
18259,-58.28
18271,-56.26
18283,-48.99
18295,-36.93
18307,-21.55
18319,-4.9
18331,11.0
18343,24.58
18355,34.94
18367,41.77
18379,45.18
18391,45.52
18402,43.26
18413,38.95
18425,33.25
18437,26.86
18449,20.45
18461,14.59
18473,9.69
18485,6.0
18497,3.58
18509,2.37
18521,2.15
18533,2.62
18545,3.33
18557,3.79
18569,3.58
18581,2.41
18592,0.14
18603,-3.15
18615,-7.27
18627,-11.94
18639,-16.95
18651,-22.1
18663,-27.38
18675,-32.89
18687,-38.85
18699,-45.46
18711,-52.69
18723,-60.12
18735,-66.67
18747,-70.83
18759,-70.88
18771,-65.55
18782,-54.58
18793,-38.96
18805,-20.73
18817,-2.45
18829,13.65
18841,26.19
18853,34.82
18865,39.96
18877,42.34
18889,42.56
18901,40.99
18913,37.83
18925,33.4
18937,28.17
18949,22.75
18961,17.72
18972,13.45
18983,10.07
18995,7.52
19007,5.73
19019,4.59
19031,4.04
19043,3.95
19055,4.05
19067,3.93
19079,3.16
19091,1.41
19103,-1.4
19115,-5.07
19127,-9.23
19139,-13.48
19151,-17.65
19162,-21.86
19173,-26.55
19185,-32.3
19197,-39.5
19209,-48.05
19221,-57.13
19233,-65.2
19245,-70.3
19257,-70.62
19269,-65.07
19281,-53.73
19293,-37.9
19305,-19.71
19317,-1.52
19329,14.66
19341,27.57
19352,36.7
19363,42.12
19375,44.2
19387,43.44
19399,40.41
19411,35.75
19423,30.19
19435,24.43
19447,19.09
19459,14.56
19471,10.98
19483,8.31
19495,6.43
19507,5.25
19519,4.74
19531,4.88
19542,5.52
19553,6.34
19565,6.84
19577,6.5
19589,4.97
19601,2.19
19613,-1.56
19625,-5.86
19637,-10.31
19649,-14.71
19661,-19.12
19673,-23.79
19685,-29.08
19697,-35.29
19709,-42.52
19721,-50.48
19732,-58.3
19743,-64.53
19755,-67.4
19767,-65.33
19779,-57.46
19791,-44.14
19803,-26.87
19815,-7.96
19827,10.2
19839,25.7
19851,37.47
19863,45.24
19875,49.31
19887,50.14
19899,48.21
19911,44.03
19922,38.19
19933,31.42
19945,24.59
19957,18.49
19969,13.68
19981,10.4
19993,8.55
20005,7.83
20017,7.88
20029,8.33
20041,8.9
20053,9.29
20065,9.25
20077,8.51
20089,6.88
20101,4.31
20112,0.84
20123,-3.35
20135,-7.99
20147,-12.86
20159,-17.83
20171,-22.97
20183,-28.58
20195,-34.98
20207,-42.28
20219,-50.04
20231,-57.15
20243,-61.94
20255,-62.64
20267,-58.0
20279,-47.77
20291,-32.86
20302,-15.14
20313,3.13
20325,19.89
20337,33.68
20349,43.8
20361,50.11
20373,52.83
20385,52.39
20397,49.31
20409,44.18
20421,37.71
20433,30.71
20445,23.92
20457,17.95
20469,13.23
20481,9.94
20492,8.03
20503,7.3
20515,7.44
20527,8.07
20539,8.77
20551,9.13
20563,8.78
20575,7.4
20587,4.89
20599,1.28
20611,-3.23
20623,-8.32
20635,-13.7
20647,-19.16
20659,-24.71
20671,-30.55
20682,-37.0
20693,-44.37
20705,-52.62
20717,-61.17
20729,-68.68
20741,-73.33
20753,-73.18
20765,-66.97
20777,-54.51
20789,-37.02
20801,-16.75
20813,3.66
20825,21.91
20837,36.5
20849,46.87
20861,53.16
20872,55.83
20883,55.44
20895,52.59
20907,47.87
20919,42.02
20931,35.76
20943,29.75
20955,24.44
20967,20.09
20979,16.77
20991,14.46
