seconds,BVP
8,-6.72
20,-2.14
32,2.33
44,6.23
56,9.21
68,11.08
80,11.8
92,11.42
104,10.18
116,8.37
128,6.43
140,4.8
152,3.88
164,3.92
175,4.86
186,6.36
198,7.9
210,8.98
222,9.28
234,8.82
246,7.91
258,6.91
270,6.09
282,5.46
294,4.83
306,4.0
318,2.83
330,1.4
342,-0.14
354,-1.6
365,-2.87
376,-3.96
388,-4.93
400,-5.89
412,-6.9
424,-8.02
436,-9.28
448,-10.7
460,-12.25
472,-13.89
484,-15.44
496,-16.67
508,-17.3
520,-17.02
532,-15.64
544,-13.09
555,-9.51
566,-5.21
578,-0.68
590,3.57
602,7.08
614,9.54
626,10.85
638,11.08
650,10.44
662,9.22
674,7.74
686,6.33
698,5.23
710,4.65
722,4.64
734,5.12
745,5.91
756,6.73
768,7.31
780,7.54
792,7.43
804,7.1
816,6.68
828,6.26
840,5.8
852,5.19
864,4.36
876,3.32
888,2.13
900,0.94
912,-0.14
924,-1.03
935,-1.76
946,-2.38
958,-3.02
970,-3.77
982,-4.7
994,-5.84
1006,-7.14
1018,-8.48
1030,-9.68
1042,-10.52
1054,-10.74
1066,-10.14
1078,-8.56
1090,-6.01
1102,-2.65
1114,1.17
1125,5.01
1136,8.42
1148,11.01
1160,12.54
1172,12.98
1184,12.41
1196,11.11
1208,9.41
1220,7.69
1232,6.27
1244,5.33
1256,4.93
1268,5.0
1280,5.36
1292,5.84
1304,6.25
1315,6.48
1326,6.49
1338,6.3
1350,5.92
1362,5.38
1374,4.67
1386,3.77
1398,2.67
1410,1.4
1422,0.03
1434,-1.36
1446,-2.73
1458,-4.02
1470,-5.22
1482,-6.33
1494,-7.34
1505,-8.32
1516,-9.36
1528,-10.56
1540,-11.95
1552,-13.43
1564,-14.69
1576,-15.3
1588,-14.85
1600,-13.09
1612,-10.07
1624,-6.09
1636,-1.67
1648,2.67
1660,6.47
1672,9.41
1684,11.31
1695,12.12
1706,11.87
1718,10.73
1730,9.01
1742,7.11
1754,5.46
1766,4.43
1778,4.15
1790,4.57
1802,5.4
1814,6.31
1826,6.97
1838,7.22
1850,7.01
1862,6.46
1874,5.73
1885,4.98
1896,4.24
1908,3.49
1920,2.62
1932,1.53
1944,0.16
1956,-1.46
1968,-3.23
1980,-4.96
1992,-6.47
2004,-7.64
2016,-8.47
2028,-9.1
2040,-9.75
2052,-10.63
2064,-11.82
2075,-13.22
2086,-14.52
2098,-15.3
2110,-15.14
2122,-13.77
2134,-11.15
2146,-7.48
2158,-3.15
2170,1.34
2182,5.45
2194,8.74
2206,10.91
2218,11.85
2230,11.69
2242,10.68
2254,9.2
2265,7.62
2276,6.25
2288,5.32
2300,4.94
2312,5.1
2324,5.65
2336,6.37
2348,7.0
2360,7.32
2372,7.26
2384,6.88
2396,6.35
2408,5.87
2420,5.53
2432,5.34
2444,5.22
2455,5.02
2466,4.64
2478,3.96
2490,2.95
2502,1.65
2514,0.18
2526,-1.26
2538,-2.49
2550,-3.39
2562,-4.04
2574,-4.65
2586,-5.42
2598,-6.51
2610,-7.89
2622,-9.41
2634,-10.81
2645,-11.84
2656,-12.23
2668,-11.77
2680,-10.32
2692,-7.84
2704,-4.47
2716,-0.55
2728,3.41
2740,6.93
2752,9.61
2764,11.29
2776,12.04
2788,12.04
2800,11.49
2812,10.59
2824,9.47
2835,8.28
2846,7.23
2858,6.5
2870,6.25
2882,6.52
2894,7.19
2906,7.97
2918,8.62
2930,8.93
2942,8.85
2954,8.44
2966,7.78
2978,6.98
2990,6.05
3002,5.04
3014,3.98
3025,2.95
3036,2.01
3048,1.18
3060,0.44
3072,-0.32
3084,-1.22
3096,-2.32
3108,-3.64
3120,-5.09
3132,-6.58
3144,-8.02
3156,-9.4
3168,-10.75
3180,-12.14
3192,-13.55
3204,-14.8
3215,-15.58
3226,-15.5
3238,-14.31
3250,-11.97
3262,-8.75
3274,-5.07
3286,-1.39
3298,1.94
3310,4.72
3322,6.79
3334,8.08
3346,8.48
3358,7.99
3370,6.72
3382,4.97
3394,3.15
3405,1.67
3416,0.84
3428,0.76
3440,1.34
3452,2.35
3464,3.51
3476,4.53
3488,5.2
3500,5.43
3512,5.27
3524,4.85
3536,4.36
3548,3.89
3560,3.44
3572,2.93
3584,2.25
3595,1.36
3606,0.31
3618,-0.8
3630,-1.82
3642,-2.68
3654,-3.38
3666,-3.99
3678,-4.61
3690,-5.29
3702,-6.08
3714,-7.02
3726,-8.16
3738,-9.51
3750,-11.01
3762,-12.44
3774,-13.44
3785,-13.62
3796,-12.68
3808,-10.55
3820,-7.42
3832,-3.69
3844,0.16
3856,3.68
3868,6.56
3880,8.59
3892,9.67
3904,9.79
3916,9.0
3928,7.49
3940,5.59
3952,3.71
3964,2.23
3975,1.44
3986,1.38
3998,1.92
4010,2.81
4022,3.75
4034,4.53
4046,5.03
4058,5.21
4070,5.07
4082,4.64
4094,4.0
4106,3.2
4118,2.32
4130,1.4
4142,0.49
4154,-0.41
4165,-1.29
4176,-2.11
4188,-2.87
4200,-3.53
4212,-4.12
4224,-4.73
4236,-5.46
4248,-6.45
4260,-7.76
4272,-9.36
4284,-11.05
4296,-12.53
4308,-13.42
4320,-13.41
4332,-12.31
4344,-10.16
4355,-7.15
4366,-3.58
4378,0.17
4390,3.75
4402,6.84
4414,9.14
4426,10.46
4438,10.75
4450,10.14
4462,8.91
4474,7.43
4486,6.06
4498,5.09
4510,4.62
4522,4.63
4534,4.93
4545,5.3
4556,5.55
4568,5.55
4580,5.27
4592,4.79
4604,4.2
4616,3.59
4628,3.03
4640,2.48
4652,1.87
4664,1.09
4676,0.05
4688,-1.25
4700,-2.71
4712,-4.14
4724,-5.37
4735,-6.27
4746,-6.89
4758,-7.41
4770,-8.09
4782,-9.12
4794,-10.51
4806,-12.1
4818,-13.53
4830,-14.45
4842,-14.49
4854,-13.48
4866,-11.4
4878,-8.38
4890,-4.71
4902,-0.78
4914,2.99
4925,6.2
4936,8.55
4948,9.85
4960,10.1
4972,9.43
4984,8.12
4996,6.53
5008,5.01
5020,3.83
5032,3.16
5044,3.07
5056,3.45
5068,4.16
5080,4.95
5092,5.61
5104,5.95
5115,5.9
5126,5.45
5138,4.72
5150,3.78
5162,2.73
5174,1.59
5186,0.38
5198,-0.89
5210,-2.22
5222,-3.51
5234,-4.72
5246,-5.79
5258,-6.75
5270,-7.62
5282,-8.48
5294,-9.35
5305,-10.27
5316,-11.29
5328,-12.38
5340,-13.46
5352,-14.29
5364,-14.5
5376,-13.71
5388,-11.66
5400,-8.39
5412,-4.3
5424,-0.01
5436,3.88
5448,6.96
5460,9.13
5472,10.46
5484,11.11
5495,11.15
5506,10.61
5518,9.53
5530,8.08
5542,6.56
5554,5.33
5566,4.63
5578,4.51
5590,4.83
5602,5.32
5614,5.71
5626,5.8
5638,5.53
5650,4.94
5662,4.17
5674,3.35
5685,2.6
5696,1.93
5708,1.26
5720,0.53
5732,-0.29
5744,-1.13
5756,-1.87
5768,-2.46
5780,-2.95
5792,-3.47
5804,-4.2
5816,-5.18
5828,-6.36
5840,-7.6
5852,-8.8
5864,-9.93
5875,-11.02
5886,-12.05
5898,-12.83
5910,-13.04
5922,-12.29
5934,-10.41
5946,-7.47
5958,-3.86
5970,-0.1
5982,3.31
5994,6.05
6006,7.98
6018,9.11
6030,9.49
6042,9.2
6054,8.33
6065,7.04
6076,5.55
6088,4.12
6100,3.04
6112,2.54
6124,2.68
6136,3.36
6148,4.31
6160,5.2
6172,5.77
6184,5.92
6196,5.71
6208,5.29
6220,4.78
6232,4.24
6244,3.61
6255,2.84
6266,1.93
6278,0.93
6290,-0.04
6302,-0.93
6314,-1.79
6326,-2.69
6338,-3.7
6350,-4.83
6362,-6.02
6374,-7.17
6386,-8.24
6398,-9.25
6410,-10.23
6422,-11.19
6434,-12.06
6445,-12.66
6456,-12.76
6468,-12.13
6480,-10.64
6492,-8.27
6504,-5.18
6516,-1.67
6528,1.84
6540,4.93
6552,7.26
6564,8.65
6576,9.09
6588,8.74
6600,7.83
6612,6.6
6624,5.25
6635,3.97
6646,2.97
6658,2.39
6670,2.32
6682,2.71
6694,3.38
6706,4.07
6718,4.57
6730,4.72
6742,4.56
6754,4.18
6766,3.7
6778,3.19
6790,2.63
6802,1.97
6814,1.14
6825,0.15
6836,-0.9
6848,-1.9
6860,-2.72
6872,-3.36
6884,-3.88
6896,-4.44
6908,-5.17
6920,-6.15
6932,-7.4
6944,-8.89
6956,-10.51
6968,-12.13
6980,-13.54
6992,-14.47
7004,-14.64
7015,-13.85
7026,-12.04
7038,-9.4
7050,-6.23
7062,-2.88
7074,0.33
7086,3.16
7098,5.47
7110,7.1
7122,7.97
7134,8.09
7146,7.56
7158,6.57
7170,5.4
7182,4.35
7194,3.62
7205,3.33
7216,3.49
7228,4.01
7240,4.71
7252,5.42
7264,5.96
7276,6.25
7288,6.28
7300,6.08
7312,5.7
7324,5.11
7336,4.29
7348,3.19
7360,1.85
7372,0.41
7384,-0.96
7395,-2.14
7406,-3.15
7418,-4.05
7430,-4.97
7442,-5.98
7454,-7.06
7466,-8.18
7478,-9.32
7490,-10.47
7502,-11.61
7514,-12.58
7526,-13.13
7538,-12.88
7550,-11.58
7562,-9.16
7574,-5.91
7585,-2.26
7596,1.27
7608,4.33
7620,6.73
7632,8.43
7644,9.45
7656,9.78
7668,9.44
7680,8.55
7692,7.3
7704,6.01
7716,4.96
7728,4.36
7740,4.24
7752,4.52
7764,5.0
7775,5.49
7786,5.8
7798,5.78
7810,5.38
7822,4.62
7834,3.62
7846,2.55
7858,1.58
7870,0.78
7882,0.14
7894,-0.43
7906,-1.02
7918,-1.67
7930,-2.38
7942,-3.14
7954,-3.96
7965,-4.89
7976,-5.98
7988,-7.26
8000,-8.7
8012,-10.21
8024,-11.66
8036,-12.91
8048,-13.77
8060,-14.05
8072,-13.56
8084,-12.17
8096,-9.92
8108,-7.02
8120,-3.85
8132,-0.84
8144,1.67
8155,3.52
8166,4.71
8178,5.33
8190,5.45
8202,5.07
8214,4.19
8226,2.89
8238,1.4
8250,0.04
8262,-0.88
8274,-1.24
8286,-1.14
8298,-0.85
8310,-0.66
8322,-0.75
8334,-1.19
8345,-1.91
8356,-2.88
8368,-4.05
8380,-5.46
8392,-7.11
8404,-8.94
8416,-10.85
8428,-12.67
8440,-14.3
8452,-15.75
8464,-17.14
8476,-18.66
8488,-20.46
8500,-22.6
8512,-25.04
8524,-27.71
8535,-30.56
8546,-33.63
8558,-36.87
8570,-40.09
8582,-42.78
8594,-44.16
8606,-43.41
8618,-39.93
8630,-33.52
8642,-24.42
8654,-13.11
8666,-0.03
8678,14.56
8690,30.59
8702,48.04
8714,66.62
8725,85.76
8736,104.56
8748,122.11
8760,137.78
8772,151.4
8784,163.31
8796,174.14
8808,184.54
8820,195.0
8832,205.82
8844,217.15
8856,228.9
8868,240.43
8880,250.31
8892,256.2
8904,255.33
8915,245.38
8926,225.41
8938,196.25
8950,160.15
8962,119.99
8974,78.43
8986,37.56
8998,-0.88
9010,-35.08
9022,-62.97
9034,-82.54
9046,-92.56
9058,-93.21
9070,-86.16
9082,-74.12
9094,-59.95
9105,-45.82
9116,-32.75
9128,-20.71
9140,-9.09
9152,2.68
9164,14.55
9176,25.82
9188,35.35
9200,42.21
9212,46.1
9224,47.59
9236,47.89
9248,48.2
9260,49.28
9272,51.11
9284,53.18
9295,54.79
9306,55.57
9318,55.59
9330,55.22
9342,54.86
9354,54.75
9366,54.87
9378,55.05
9390,55.1
9402,54.94
9414,54.56
9426,53.9
9438,52.65
9450,50.19
9462,45.64
9474,38.25
9485,27.85
9496,15.0
9508,1.0
9520,-12.68
9532,-24.93
9544,-35.38
9556,-44.48
9568,-53.21
9580,-62.48
9592,-72.94
9604,-84.76
9616,-97.82
9628,-111.83
9640,-126.41
9652,-140.91
9664,-154.35
9675,-165.5
9686,-173.11
9698,-176.33
9710,-175.04
9722,-169.94
9734,-162.31
9746,-153.62
9758,-145.09
9770,-137.46
9782,-130.86
9794,-125.02
9806,-119.54
9818,-114.09
9830,-108.46
9842,-102.5
9854,-96.02
9865,-88.83
9876,-80.84
9888,-72.21
9900,-63.37
9912,-54.9
9924,-47.31
9936,-40.84
9948,-35.36
9960,-30.45
9972,-25.64
9984,-20.55
9996,-14.95
10008,-8.75
10020,-1.94
10032,5.32
10044,12.68
10055,19.46
10066,24.7
10078,27.32
10090,26.37
10102,21.31
10114,12.13
10126,-0.57
10138,-15.73
10150,-31.98
10162,-47.88
10174,-62.12
10186,-73.78
10198,-82.4
10210,-88.04
10222,-91.15
10234,-92.4
10245,-92.48
10256,-92.0
10268,-91.43
10280,-91.2
10292,-91.56
10304,-92.61
10316,-94.2
10328,-95.88
10340,-97.06
10352,-97.13
10364,-95.76
10376,-92.95
10388,-88.99
10400,-84.15
10412,-78.57
10424,-72.08
10435,-64.41
10446,-55.49
10458,-45.73
10470,-36.0
10482,-27.35
10494,-20.63
10506,-16.05
10518,-13.16
10530,-11.16
10542,-9.3
10554,-7.21
10566,-4.99
10578,-2.96
10590,-1.4
10602,-0.45
10614,-0.1
10625,-0.34
10636,-1.29
10648,-3.03
10660,-5.57
10672,-8.68
10684,-11.92
10696,-14.79
10708,-16.82
10720,-17.76
10732,-17.52
10744,-16.21
10756,-14.17
10768,-11.91
10780,-10.11
10792,-9.41
10804,-10.16
10815,-12.3
10826,-15.31
10838,-18.44
10850,-20.93
10862,-22.34
10874,-22.65
10886,-22.16
10898,-21.33
10910,-20.59
10922,-20.16
10934,-19.8
10946,-18.78
10958,-15.81
10970,-9.27
10982,2.3
10994,19.84
11005,43.29
11016,71.56
11028,102.66
11040,134.13
11052,163.47
11064,188.49
11076,207.49
11088,219.47
11100,224.25
11112,222.55
11124,215.82
11136,205.93
11148,194.64
11160,183.24
11172,172.19
11184,161.35
11195,150.11
11206,137.84
11218,123.9
11230,107.76
11242,89.0
11254,67.32
11266,42.83
11278,16.14
11290,-11.62
11302,-39.0
11314,-64.71
11326,-87.82
11338,-107.97
11350,-125.05
11362,-138.9
11374,-149.05
11385,-154.82
11396,-155.74
11408,-152.04
11420,-144.92
11432,-136.31
11444,-128.28
11456,-122.24
11468,-118.54
11480,-116.46
11492,-114.71
11504,-112.07
11516,-107.94
11528,-102.6
11540,-96.91
11552,-91.91
11564,-88.31
11575,-86.32
11586,-85.65
11598,-85.85
11610,-86.48
11622,-87.12
11634,-87.31
11646,-86.43
11658,-83.75
11670,-78.72
11682,-71.32
11694,-62.2
11706,-52.52
11718,-43.54
11730,-36.14
11742,-30.57
11754,-26.5
11765,-23.38
11776,-20.72
11788,-18.21
11800,-15.71
11812,-13.03
11824,-9.9
11836,-6.04
11848,-1.36
11860,3.94
11872,9.28
11884,13.95
11896,17.27
11908,18.85
11920,18.61
11932,16.8
11944,13.79
11955,10.0
11966,5.83
11978,1.64
11990,-2.2
12002,-5.3
12014,-7.32
12026,-8.11
12038,-7.82
12050,-6.85
12062,-5.87
12074,-5.5
12086,-6.2
12098,-8.08
12110,-10.82
12122,-13.86
12134,-16.53
12145,-18.33
12156,-19.04
12168,-18.67
12180,-17.3
12192,-14.9
12204,-11.22
12216,-5.92
12228,1.17
12240,9.88
12252,19.62
12264,29.51
12276,38.66
12288,46.44
12300,52.49
12312,56.77
12324,59.32
12335,60.14
12346,59.28
12358,56.85
12370,53.22
12382,49.0
12394,44.93
12406,41.63
12418,39.42
12430,38.2
12442,37.59
12454,37.1
12466,36.35
12478,35.18
12490,33.64
12502,31.89
12514,30.16
12525,28.61
12536,27.38
12548,26.51
12560,25.98
12572,25.65
12584,25.36
12596,24.93
12608,24.23
12620,23.15
12632,21.58
12644,19.37
12656,16.42
12668,12.77
12680,8.78
12692,5.15
12704,2.8
12715,2.59
12726,5.01
12738,10.0
12750,16.97
12762,25.04
12774,33.33
12786,41.17
12798,48.19
12810,54.23
12822,59.21
12834,63.03
12846,65.61
12858,66.94
12870,67.18
12882,66.61
12894,65.51
12905,64.1
12916,62.39
12928,60.22
12940,57.37
12952,53.63
12964,48.91
12976,43.22
12988,36.62
13000,29.24
13012,21.23
13024,12.86
13036,4.45
13048,-3.57
13060,-10.76
13072,-16.79
13084,-21.51
13095,-25.09
13106,-28.0
13118,-30.84
13130,-34.19
13142,-38.38
13154,-43.27
13166,-48.31
13178,-52.62
13190,-55.25
13202,-55.4
13214,-52.68
13226,-47.1
13238,-39.15
13250,-29.63
13262,-19.48
13274,-9.66
13285,-0.91
13296,6.3
13308,11.82
13320,15.77
13332,18.43
13344,20.09
13356,21.03
13368,21.46
13380,21.57
13392,21.54
13404,21.55
13416,21.71
13428,22.02
13440,22.38
13452,22.62
13464,22.63
13475,22.4
13486,22.05
13498,21.75
13510,21.61
13522,21.61
13534,21.52
13546,21.07
13558,19.96
13570,18.05
13582,15.4
13594,12.24
13606,8.94
13618,5.85
13630,3.18
13642,0.97
13654,-0.96
13665,-2.95
13676,-5.29
13688,-8.2
13700,-11.65
13712,-15.33
13724,-18.66
13736,-20.91
13748,-21.4
13760,-19.68
13772,-15.73
13784,-9.96
13796,-3.14
13808,3.87
13820,10.3
13832,15.68
13844,19.84
13855,22.88
13866,24.99
13878,26.34
13890,27.07
13902,27.32
13914,27.26
13926,27.14
13938,27.19
13950,27.5
13962,28.02
13974,28.51
13986,28.63
13998,28.14
14010,27.0
14022,25.38
14034,23.61
14045,21.97
14056,20.56
14068,19.3
14080,17.9
14092,16.1
14104,13.72
14116,10.86
14128,7.77
14140,4.79
14152,2.15
14164,-0.14
14176,-2.33
14188,-4.77
14200,-7.82
14212,-11.61
14224,-16.01
14235,-20.62
14246,-24.82
14258,-27.96
14270,-29.44
14282,-28.9
14294,-26.27
14306,-21.81
14318,-16.04
14330,-9.64
14342,-3.29
14354,2.46
14366,7.23
14378,10.88
14390,13.37
14402,14.78
14414,15.3
14425,15.16
14436,14.65
14448,14.08
14460,13.68
14472,13.58
14484,13.79
14496,14.18
14508,14.59
14520,14.84
14532,14.77
14544,14.28
14556,13.35
14568,11.99
14580,10.24
14592,8.19
14604,5.91
14615,3.45
14626,0.9
14638,-1.68
14650,-4.17
14662,-6.43
14674,-8.36
14686,-9.94
14698,-11.31
14710,-12.7
14722,-14.42
14734,-16.69
14746,-19.56
14758,-22.94
14770,-26.5
14782,-29.83
14794,-32.37
14805,-33.56
14816,-32.9
14828,-30.08
14840,-25.12
14852,-18.4
14864,-10.59
14876,-2.48
14888,5.2
14900,11.92
14912,17.42
14924,21.62
14936,24.58
14948,26.41
14960,27.2
14972,27.05
14984,26.11
14995,24.63
15006,22.96
15018,21.49
15030,20.55
15042,20.31
15054,20.71
15066,21.56
15078,22.55
15090,23.45
15102,24.12
15114,24.5
15126,24.53
15138,24.09
15150,23.06
15162,21.35
15174,18.91
15185,15.81
15196,12.22
15208,8.36
15220,4.46
15232,0.75
15244,-2.68
15256,-5.81
15268,-8.75
15280,-11.65
15292,-14.68
15304,-17.89
15316,-21.28
15328,-24.66
15340,-27.75
15352,-30.16
15364,-31.4
15375,-31.0
15386,-28.58
15398,-24.02
15410,-17.57
15422,-9.83
15434,-1.64
15446,6.11
15458,12.75
15470,17.9
15482,21.53
15494,23.82
15506,25.06
15518,25.53
15530,25.43
15542,24.9
15554,24.07
15565,23.11
15576,22.19
15588,21.46
15600,20.95
15612,20.58
15624,20.17
15636,19.47
15648,18.3
15660,16.56
15672,14.26
15684,11.51
15696,8.52
15708,5.54
15720,2.78
15732,0.46
15744,-1.34
15755,-2.59
15766,-3.37
15778,-3.81
15790,-4.12
15802,-4.45
15814,-4.95
15826,-5.66
15838,-6.61
15850,-7.78
15862,-9.18
15874,-10.88
15886,-12.99
15898,-15.63
15910,-18.88
15922,-22.62
15934,-26.45
15945,-29.68
15956,-31.49
15968,-31.16
15980,-28.38
15992,-23.35
16004,-16.8
16016,-9.71
16028,-3.01
16040,2.68
16052,7.13
16064,10.41
16076,12.74
16088,14.27
16100,15.08
16112,15.15
16124,14.48
16135,13.13
16146,11.21
16158,8.96
16170,6.62
16182,4.42
16194,2.51
16206,0.95
16218,-0.31
16230,-1.42
16242,-2.54
16254,-3.81
16266,-5.29
16278,-6.99
16290,-8.8
16302,-10.58
16314,-12.24
16325,-13.76
16336,-15.18
16348,-16.61
16360,-18.15
16372,-19.75
16384,-21.29
16396,-22.57
16408,-23.42
16420,-23.77
16432,-23.74
16444,-23.59
16456,-23.68
16468,-24.38
16480,-25.91
16492,-28.29
16504,-31.21
16515,-34.09
16526,-36.15
16538,-36.6
16550,-34.84
16562,-30.68
16574,-24.4
16586,-16.66
16598,-8.33
16610,-0.27
16622,6.88
16634,12.75
16646,17.19
16658,20.17
16670,21.74
16682,21.99
16694,21.14
16705,19.5
16716,17.49
16728,15.58
16740,14.1
16752,13.25
16764,13.0
16776,13.2
16788,13.63
16800,14.13
16812,14.63
16824,15.15
16836,15.75
16848,16.48
16860,17.24
16872,17.88
16884,18.16
16895,17.91
16906,17.08
16918,15.76
16930,14.12
16942,12.35
16954,10.62
16966,9.01
16978,7.53
16990,6.14
17002,4.72
17014,3.07
17026,1.03
17038,-1.53
17050,-4.61
17062,-7.95
17074,-11.09
17085,-13.43
17096,-14.34
17108,-13.34
17120,-10.24
17132,-5.25
17144,1.09
17156,8.02
17168,14.72
17180,20.53
17192,25.05
17204,28.06
17216,29.52
17228,29.43
17240,27.88
17252,25.07
17264,21.37
17275,17.37
17286,13.7
17298,10.91
17310,9.24
17322,8.61
17334,8.63
17346,8.82
17358,8.8
17370,8.4
17382,7.67
17394,6.74
17406,5.72
17418,4.57
17430,3.14
17442,1.23
17454,-1.25
17465,-4.26
17476,-7.58
17488,-10.93
17500,-14.05
17512,-16.79
17524,-19.14
17536,-21.14
17548,-22.91
17560,-24.53
17572,-26.11
17584,-27.77
17596,-29.59
17608,-31.53
17620,-33.43
17632,-34.83
17644,-35.15
17655,-33.78
17666,-30.37
17678,-24.97
17690,-18.09
17702,-10.57
17714,-3.34
17726,2.88
17738,7.68
17750,10.98
17762,12.89
17774,13.6
17786,13.25
17798,12.0
17810,10.11
17822,7.94
17834,5.94
17845,4.46
17856,3.68
17868,3.49
17880,3.64
17892,3.88
17904,4.13
17916,4.48
17928,5.15
17940,6.28
17952,7.84
17964,9.5
17976,10.86
17988,11.54
18000,11.4
18012,10.56
18024,9.32
18035,7.97
18046,6.68
18058,5.52
18070,4.43
18082,3.33
18094,2.15
18106,0.8
18118,-0.86
18130,-2.93
18142,-5.44
18154,-8.14
18166,-10.56
18178,-12.03
18190,-11.94
18202,-9.94
18214,-6.06
18225,-0.72
18236,5.47
18248,11.83
18260,17.77
18272,22.85
18284,26.77
18296,29.37
18308,30.59
18320,30.49
18332,29.26
18344,27.18
18356,24.6
18368,21.86
18380,19.22
18392,16.82
18404,14.65
18415,12.6
18426,10.52
18438,8.31
18450,5.96
18462,3.57
18474,1.24
18486,-0.92
18498,-2.93
18510,-4.94
18522,-7.14
18534,-9.67
18546,-12.54
18558,-15.55
18570,-18.41
18582,-20.84
18594,-22.69
18605,-23.99
18616,-24.95
18628,-25.81
18640,-26.79
18652,-27.99
18664,-29.37
18676,-30.75
18688,-31.78
18700,-32.05
18712,-31.1
18724,-28.64
18736,-24.65
18748,-19.46
18760,-13.7
18772,-8.07
18784,-3.19
18795,0.63
18806,3.36
18818,5.2
18830,6.34
18842,6.96
18854,7.13
18866,6.85
18878,6.22
18890,5.39
18902,4.66
18914,4.33
18926,4.59
18938,5.48
18950,6.78
18962,8.16
18974,9.27
18985,9.86
18996,9.86
19008,9.36
19020,8.51
19032,7.42
19044,6.11
19056,4.58
19068,2.83
19080,0.91
19092,-1.04
19104,-2.89
19116,-4.6
19128,-6.24
19140,-7.94
19152,-9.81
19164,-11.87
19175,-14.05
19186,-16.21
19198,-18.19
19210,-19.85
19222,-20.99
19234,-21.42
19246,-20.91
19258,-19.33
19270,-16.71
19282,-13.29
19294,-9.46
19306,-5.67
19318,-2.28
19330,0.43
19342,2.29
19354,3.21
19365,3.17
19376,2.33
19388,1.01
19400,-0.34
19412,-1.31
19424,-1.66
19436,-1.39
19448,-0.72
19460,0.03
19472,0.66
19484,1.1
19496,1.41
19508,1.68
19520,1.89
19532,1.97
19544,1.78
19555,1.26
19566,0.47
19578,-0.45
19590,-1.3
19602,-1.96
19614,-2.42
19626,-2.78
19638,-3.23
19650,-3.93
19662,-4.99
19674,-6.41
19686,-8.04
19698,-9.71
19710,-11.1
19722,-11.87
19734,-11.64
19745,-10.14
19756,-7.26
19768,-3.15
19780,1.81
19792,7.06
19804,12.01
19816,16.21
19828,19.36
19840,21.38
19852,22.31
19864,22.27
19876,21.44
19888,20.03
19900,18.3
19912,16.57
19924,15.11
19935,14.13
19946,13.68
19958,13.68
19970,13.95
19982,14.29
19994,14.47
20006,14.35
20018,13.81
20030,12.85
20042,11.53
20054,9.96
20066,8.27
20078,6.52
20090,4.76
20102,2.96
20114,1.09
20125,-0.82
20136,-2.76
20148,-4.68
20160,-6.58
20172,-8.4
20184,-10.06
20196,-11.36
20208,-12.03
20220,-11.83
20232,-10.59
20244,-8.32
20256,-5.2
20268,-1.51
20280,2.36
20292,6.01
20304,9.05
20315,11.15
20326,12.16
20338,12.1
20350,11.16
20362,9.66
20374,7.91
20386,6.21
20398,4.74
20410,3.6
20422,2.82
20434,2.37
20446,2.18
20458,2.13
20470,2.15
20482,2.15
20494,2.09
20505,1.95
20516,1.69
20528,1.3
20540,0.75
20552,0.06
20564,-0.75
20576,-1.69
20588,-2.76
20600,-4.01
20612,-5.46
20624,-7.12
20636,-8.93
20648,-10.77
20660,-12.48
20672,-13.81
20684,-14.46
20695,-14.1
20706,-12.52
20718,-9.69
20730,-5.85
20742,-1.46
20754,2.93
20766,6.83
20778,9.92
20790,12.08
20802,13.3
20814,13.63
20826,13.11
20838,11.79
20850,9.83
20862,7.46
20874,5.03
20885,2.92
20896,1.41
20908,0.66
20920,0.57
20932,0.9
20944,1.28
20956,1.4
20968,1.07
20980,0.29
20992,-0.77
