seconds,BVP
11,18.84
23,54.65
35,70.06
47,65.34
59,45.44
71,19.36
83,-1.62
95,-6.91
107,9.49
119,46.03
131,92.8
143,134.21
155,154.54
167,143.78
178,102.28
189,41.14
201,-21.4
213,-66.47
225,-80.74
237,-60.42
249,-11.29
261,53.57
273,118.24
285,168.89
297,198.04
309,206.68
321,203.5
333,200.85
345,208.9
357,230.33
368,258.37
379,279.7
391,280.93
403,255.94
415,209.97
427,158.31
439,119.84
451,108.49
463,127.2
475,166.84
487,210.76
499,241.68
511,247.96
523,226.47
535,182.31
547,125.63
558,68.27
569,20.78
581,-9.49
593,-19.63
605,-11.48
617,8.81
629,32.3
641,49.44
653,52.34
665,36.44
677,1.65
689,-47.28
701,-101.47
713,-149.51
725,-180.46
737,-187.43
748,-170.64
759,-138.32
771,-104.36
783,-83.51
795,-86.39
807,-116.63
819,-169.9
831,-235.76
843,-300.47
855,-350.8
867,-377.45
879,-377.62
891,-355.69
903,-321.42
915,-286.69
927,-261.49
938,-251.65
949,-258.42
961,-279.21
973,-308.7
985,-339.08
997,-361.33
1009,-367.61
1021,-354.88
1033,-327.2
1045,-294.81
1057,-269.57
1069,-258.42
1081,-259.6
1093,-263.54
1105,-258.52
1117,-236.94
1128,-198.83
1139,-150.82
1151,-102.26
1163,-60.77
1175,-29.71
1187,-8.66
1199,5.19
1211,15.44
1223,25.78
1235,39.23
1247,57.97
1259,82.69
1271,112.51
1283,145.87
1295,181.18
1307,217.52
1318,254.43
1329,291.11
1341,325.55
1353,354.27
1365,373.23
1377,379.52
1389,373.18
1401,357.86
1413,340.31
1425,328.05
1437,325.71
1449,332.25
1461,340.34
1473,338.76
1485,317.09
1497,270.18
1508,200.11
1519,115.1
1531,25.7
1543,-58.64
1555,-130.97
1567,-186.22
1579,-220.04
1591,-229.19
1603,-213.96
1615,-181.32
1627,-145.04
1639,-121.72
1651,-123.78
1663,-152.65
1675,-196.79
1687,-236.39
1698,-252.45
1709,-236.06
1721,-192.96
1733,-140.87
1745,-101.0
1757,-88.49
1769,-105.85
1781,-143.07
1793,-183.21
1805,-210.21
1817,-214.87
1829,-196.88
1841,-162.99
1853,-123.04
1865,-86.4
1877,-59.89
1888,-47.64
1899,-51.2
1911,-69.79
1923,-99.73
1935,-134.29
1947,-164.67
1959,-181.69
1971,-178.14
1983,-150.65
1995,-100.26
2007,-31.64
2019,47.64
2031,128.26
2043,200.22
2055,254.43
2067,285.46
2078,293.82
2089,286.99
2101,277.46
2113,278.24
2125,297.29
2137,333.5
2149,376.79
2161,412.16
2173,426.42
2185,414.25
2197,380.45
2209,338.05
2221,302.79
2233,287.27
2245,296.76
2257,328.25
2268,372.14
2279,415.57
2291,446.23
2303,455.35
2315,439.76
2327,401.26
2339,345.01
2351,277.09
2363,202.8
2375,126.26
2387,51.48
2399,-17.2
2411,-75.36
2423,-119.45
2435,-148.88
2447,-166.46
2458,-177.9
2469,-189.37
2481,-205.18
2493,-226.35
2505,-251.27
2517,-277.08
2529,-300.61
2541,-318.9
2553,-328.51
2565,-324.8
2577,-302.74
2589,-259.16
2601,-195.42
2613,-119.49
2625,-45.19
2637,11.67
2648,38.9
2659,32.68
2671,-0.6
2683,-46.89
2695,-89.91
2707,-116.67
2719,-120.87
2731,-103.03
2743,-68.41
2755,-24.13
2767,22.7
2779,65.71
2791,99.41
2803,119.73
2815,125.24
2827,118.65
2838,106.81
2849,98.9
2861,103.14
2873,123.03
2885,155.17
2897,189.97
2909,214.8
2921,218.43
2933,195.2
2945,147.01
2957,82.64
2969,14.23
2981,-47.22
2993,-95.31
3005,-129.28
3017,-152.19
3028,-167.85
3039,-178.5
3051,-184.14
3063,-184.09
3075,-178.81
3087,-171.19
3099,-165.9
3111,-166.85
3123,-174.9
3135,-186.57
3147,-195.57
3159,-196.28
3171,-186.99
3183,-170.86
3195,-154.09
3207,-142.13
3218,-135.86
3229,-131.0
3241,-120.01
3253,-96.26
3265,-58.12
3277,-10.38
3289,37.56
3301,75.57
3313,96.74
3325,99.97
3337,89.83
3349,74.62
3361,63.67
3373,64.72
3385,81.98
3397,115.55
3408,161.34
3419,212.0
3431,258.47
3443,291.9
3455,306.2
3467,300.2
3479,278.54
3491,251.05
3503,230.23
3515,227.03
3527,246.8
3539,286.67
3551,335.61
3563,378.18
3575,400.2
3587,393.63
3598,359.06
3609,304.55
3621,241.57
3633,180.87
3645,129.38
3657,89.27
3669,59.27
3681,36.66
3693,18.5
3705,2.11
3717,-15.09
3729,-35.97
3741,-62.98
3753,-97.44
3765,-138.91
3777,-184.79
3788,-231.21
3799,-274.1
3811,-310.52
3823,-339.26
3835,-360.65
3847,-375.55
3859,-384.51
3871,-387.21
3883,-382.55
3895,-370.18
3907,-351.79
3919,-331.46
3931,-314.41
3943,-304.61
3955,-302.27
3967,-302.92
3978,-299.14
3989,-283.71
4001,-253.19
4013,-209.1
4025,-156.77
4037,-102.9
4049,-53.31
4061,-11.75
4073,20.19
4085,42.55
4097,57.01
4109,66.92
4121,77.53
4133,94.83
4145,122.73
4157,160.61
4168,201.95
4179,235.92
4191,251.05
4203,239.84
4215,201.34
4227,141.71
4239,71.43
4251,1.07
4263,-61.71
4275,-114.01
4287,-156.56
4299,-191.45
4311,-219.87
4323,-242.01
4335,-258.17
4347,-270.28
4358,-281.93
4369,-296.1
4381,-312.7
4393,-327.1
4405,-331.26
4417,-317.13
4429,-281.02
4441,-226.31
4453,-162.83
4465,-103.07
4477,-56.75
4489,-27.31
4501,-11.2
4513,-0.48
4525,12.37
4537,30.91
4548,54.01
4559,77.65
4571,97.61
4583,111.92
4595,120.36
4607,122.57
4619,116.49
4631,98.52
4643,66.43
4655,22.84
4667,-23.09
4679,-57.93
4691,-69.3
4703,-51.47
4715,-8.37
4727,48.0
4738,102.67
4749,144.15
4761,167.98
4773,176.69
4785,175.79
4797,169.44
4809,157.92
4821,138.36
4833,108.12
4845,67.99
4857,23.21
4869,-18.8
4881,-51.98
4893,-74.04
4905,-86.13
4917,-90.38
4928,-86.84
4939,-73.13
4951,-46.47
4963,-7.17
4975,39.95
4987,86.7
4999,125.45
5011,152.39
5023,168.43
5035,176.74
5047,179.26
5059,174.68
5071,158.63
5083,126.94
5095,78.65
5107,17.85
5118,-47.75
5129,-109.23
5141,-158.78
5153,-190.94
5165,-202.78
5177,-194.08
5189,-167.93
5201,-131.05
5213,-93.42
5225,-65.92
5237,-56.86
5249,-68.31
5261,-94.73
5273,-124.38
5285,-143.17
5297,-139.91
5308,-110.35
5319,-59.55
5331,-0.32
5343,50.81
5355,79.52
5367,78.86
5379,51.84
5391,10.4
5403,-29.41
5415,-53.57
5427,-55.64
5439,-38.4
5451,-11.87
5463,11.41
5475,20.85
5487,10.5
5498,-20.55
5509,-69.46
5521,-130.37
5533,-194.89
5545,-252.41
5557,-291.51
5569,-303.02
5581,-282.79
5593,-233.82
5605,-165.27
5617,-89.42
5629,-17.43
5641,43.38
5653,89.78
5665,121.18
5677,137.82
5688,140.99
5699,133.66
5711,121.4
5723,111.48
5735,110.29
5747,121.0
5759,142.44
5771,170.68
5783,201.43
5795,232.44
5807,263.4
5819,293.64
5831,319.9
5843,335.38
5855,331.7
5867,302.07
5878,244.88
5889,165.73
5901,76.9
5913,-5.36
5925,-65.61
5937,-94.12
5949,-91.09
5961,-67.12
5973,-39.78
5985,-26.34
5997,-35.87
6009,-65.13
6021,-100.26
6033,-124.27
6045,-126.36
6057,-107.53
6068,-79.65
6079,-58.43
6091,-55.18
6103,-71.36
6115,-99.27
6127,-126.95
6139,-144.12
6151,-145.91
6163,-132.55
6175,-107.14
6187,-73.2
6199,-33.88
6211,7.6
6223,47.2
6235,80.84
6247,105.63
6258,120.93
6269,128.51
6281,131.04
6293,130.16
6305,125.54
6317,115.08
6329,96.64
6341,70.51
6353,40.64
6365,14.26
6377,-0.4
6389,2.61
6401,24.29
6413,60.43
6425,102.69
6437,142.07
6448,172.15
6459,191.14
6471,201.68
6483,208.77
6495,217.39
6507,230.37
6519,247.47
6531,265.39
6543,278.87
6555,281.91
6567,269.65
6579,239.62
6591,192.51
6603,131.91
6615,63.17
6627,-8.17
6638,-77.49
6649,-141.35
6661,-196.55
6673,-238.98
6685,-263.31
6697,-264.72
6709,-241.9
6721,-199.82
6733,-150.33
6745,-109.21
6757,-90.54
6769,-100.77
6781,-135.67
6793,-181.43
6805,-220.2
6817,-236.94
6828,-224.38
6839,-184.47
6851,-125.31
6863,-56.41
6875,14.99
6887,84.72
6899,150.14
6911,208.0
6923,253.92
6935,283.94
6947,296.87
6959,296.33
6971,290.45
6983,288.74
6995,297.93
7007,318.54
7018,344.42
7029,365.12
7041,370.6
7053,355.46
7065,321.47
7077,276.61
7089,231.68
7101,196.02
7113,174.27
7125,165.54
7137,164.46
7149,164.55
7161,160.81
7173,151.19
7185,136.02
7197,116.23
7208,92.19
7219,63.54
7231,29.69
7243,-8.79
7255,-49.38
7267,-87.79
7279,-119.17
7291,-139.91
7303,-149.67
7315,-151.44
7327,-150.63
7339,-153.22
7351,-163.36
7363,-182.28
7375,-208.41
7387,-238.64
7398,-269.28
7409,-297.36
7421,-320.62
7433,-338.15
7445,-350.53
7457,-359.45
7469,-366.96
7481,-374.05
7493,-379.26
7505,-378.07
7517,-364.31
7529,-332.77
7541,-282.62
7553,-219.29
7565,-154.07
7577,-101.22
7588,-72.94
7599,-74.48
7611,-101.37
7623,-139.81
7635,-171.25
7647,-179.18
7659,-156.05
7671,-106.53
7683,-45.93
7695,6.39
7707,35.4
7719,36.22
7731,15.65
7743,-12.22
7755,-32.58
7767,-35.7
7778,-18.88
7789,14.51
7801,57.86
7813,103.82
7825,145.3
7837,176.5
7849,193.51
7861,195.73
7873,186.8
7885,173.75
7897,164.03
7909,161.64
7921,164.26
7933,164.04
7945,152.14
7957,124.23
7968,84.32
7979,43.88
7991,15.61
8003,6.74
8015,14.57
8027,27.61
8039,31.09
8051,14.87
8063,-22.71
8075,-75.54
8087,-133.93
8099,-190.36
8111,-240.85
8123,-283.44
8135,-315.88
8147,-335.27
8158,-339.74
8169,-331.54
8181,-317.36
8193,-305.06
8205,-299.21
8217,-297.78
8229,-293.27
8241,-277.9
8253,-248.36
8265,-207.72
8277,-162.77
8289,-119.12
8301,-77.86
8313,-36.39
8325,8.37
8337,56.51
8348,104.31
8359,146.82
8371,180.69
8383,206.39
8395,227.82
8407,249.96
8419,275.45
8431,303.58
8443,330.18
8455,349.0
8467,354.25
8479,341.8
8491,310.02
8503,261.11
8515,199.99
8527,132.15
8538,62.18
8549,-7.74
8561,-77.03
8573,-144.01
8585,-203.22
8597,-245.21
8609,-258.04
8621,-232.95
8633,-169.7
8645,-79.52
8657,16.57
8669,94.41
8681,135.69
8693,135.08
8705,102.24
8717,57.33
8728,22.56
8739,13.76
8751,35.78
8763,82.59
8775,141.67
8787,199.11
8799,242.88
8811,264.49
8823,259.7
8835,229.54
8847,181.63
8859,129.63
8871,88.76
8883,70.06
8895,74.94
8907,94.14
8918,111.72
8929,112.38
8941,87.81
8953,39.35
8965,-23.1
8977,-86.05
8989,-137.26
9001,-169.32
9013,-181.32
9025,-177.55
9037,-164.99
9049,-149.36
9061,-132.88
9073,-113.24
9085,-85.78
9097,-47.05
9108,2.77
9119,59.18
9131,115.16
9143,163.64
9155,199.65
9167,221.07
9179,228.69
9191,225.22
9203,214.16
9215,198.76
9227,180.41
9239,157.71
9251,127.34
9263,86.75
9275,37.08
9287,-15.51
9298,-62.49
9309,-97.42
9321,-120.04
9333,-137.07
9345,-158.28
9357,-190.65
9369,-234.25
9381,-282.28
9393,-325.03
9405,-355.01
9417,-369.47
9429,-369.91
9441,-359.64
9453,-340.64
9465,-312.67
9477,-274.57
9488,-226.8
9499,-172.26
9511,-116.16
9523,-64.17
9535,-21.17
9547,8.7
9559,21.91
9571,15.34
9583,-12.24
9595,-58.13
9607,-113.87
9619,-166.52
9631,-201.89
9643,-209.48
9655,-186.33
9667,-137.16
9678,-72.41
9689,-3.48
9701,61.09
9713,117.41
9725,165.28
9737,206.35
9749,241.2
9761,267.98
9773,282.82
9785,280.23
9797,255.56
9809,207.02
9821,137.53
9833,55.35
9845,-26.9
9857,-95.64
9868,-141.04
9879,-159.94
9891,-156.64
9903,-139.7
9915,-117.32
9927,-93.51
9939,-68.05
9951,-39.0
9963,-7.06
9975,22.53
9987,42.08
9999,45.87
10011,34.95
10023,18.22
10035,8.31
10047,14.83
10058,39.01
10069,72.61
10081,102.91
10093,120.33
10105,123.23
10117,118.35
10129,115.93
10141,123.12
10153,140.31
10165,162.33
10177,183.12
10189,199.99
10201,215.27
10213,232.56
10225,252.29
10237,268.68
10248,270.98
10259,249.09
10271,200.28
10283,132.71
10295,63.36
10307,12.05
10319,-7.48
10331,7.23
10343,46.47
10355,92.64
10367,127.2
10379,137.08
10391,117.97
10403,73.48
10415,12.74
10427,-53.8
10438,-116.0
10449,-165.3
10461,-195.67
10473,-204.69
10485,-195.22
10497,-175.38
10509,-156.32
10521,-147.4
10533,-152.48
10545,-167.86
10557,-184.7
10569,-194.5
10581,-193.34
10593,-183.93
10605,-173.26
10617,-167.97
10628,-170.32
10639,-177.4
10651,-183.41
10663,-183.12
10675,-175.03
10687,-161.69
10699,-148.04
10711,-138.98
10723,-137.06
10735,-141.27
10747,-147.34
10759,-149.19
10771,-140.75
10783,-119.33
10795,-87.33
10807,-52.16
10818,-23.36
10829,-7.96
10841,-6.39
10853,-11.7
10865,-13.06
10877,-0.84
10889,28.44
10901,70.8
10913,117.0
10925,157.26
10937,185.48
10949,201.33
10961,209.19
10973,214.51
10985,220.34
10997,225.18
11008,223.4
11019,208.24
11031,175.54
11043,125.82
11055,64.87
11067,0.78
11079,-59.05
11091,-110.11
11103,-150.26
11115,-177.44
11127,-188.03
11139,-177.68
11151,-145.29
11163,-96.07
11175,-42.8
11187,-1.24
11198,16.93
11209,10.23
11221,-11.6
11233,-31.54
11245,-33.89
11257,-11.76
11269,30.86
11281,81.8
11293,127.86
11305,160.67
11317,179.5
11329,189.02
11341,195.7
11353,204.35
11365,216.43
11377,231.02
11388,246.2
11399,259.89
11411,270.17
11423,275.61
11435,276.13
11447,273.33
11459,270.51
11471,270.18
11483,271.94
11495,271.86
11507,264.29
11519,246.62
11531,221.71
11543,197.92
11555,184.06
11567,183.65
11578,190.91
11589,193.58
11601,178.93
11613,141.65
11625,88.19
11637,33.87
11649,-3.98
11661,-14.46
11673,2.62
11685,37.29
11697,75.86
11709,107.1
11721,126.15
11733,134.91
11745,138.6
11757,142.19
11768,148.08
11779,156.8
11791,167.85
11803,181.09
11815,196.48
11827,212.24
11839,224.54
11851,227.97
11863,217.53
11875,190.88
11887,149.48
11899,97.87
11911,41.92
11923,-12.83
11935,-62.57
11947,-105.33
11958,-141.13
11969,-171.45
11981,-198.86
11993,-225.99
12005,-254.28
12017,-283.23
12029,-310.37
12041,-332.17
12053,-345.65
12065,-350.03
12077,-346.94
12089,-339.85
12101,-332.8
12113,-329.12
12125,-330.4
12137,-336.43
12148,-344.8
12159,-350.88
12171,-348.55
12183,-331.66
12195,-296.13
12207,-241.68
12219,-172.61
12231,-96.32
12243,-20.71
12255,48.64
12267,109.51
12279,161.9
12291,205.05
12303,235.44
12315,247.16
12327,234.72
12338,196.82
12349,138.27
12361,69.12
12373,0.49
12385,-59.47
12397,-108.18
12409,-148.19
12421,-184.4
12433,-220.64
12445,-257.3
12457,-291.21
12469,-316.63
12481,-327.45
12493,-319.21
12505,-290.05
12517,-241.48
12528,-178.16
12539,-106.65
12551,-33.49
12563,36.4
12575,100.41
12587,158.07
12599,209.28
12611,252.72
12623,284.91
12635,300.85
12647,296.05
12659,268.91
12671,222.37
12683,163.26
12695,100.54
12707,41.9
12718,-8.65
12729,-51.82
12741,-91.38
12753,-130.54
12765,-168.55
12777,-199.54
12789,-214.19
12801,-204.43
12813,-168.57
12825,-113.55
12837,-53.11
12849,-2.92
12861,25.88
12873,30.65
12885,17.59
12897,-1.84
12908,-16.32
12919,-20.01
12931,-14.9
12943,-8.88
12955,-11.86
12967,-30.98
12979,-67.9
12991,-118.93
13003,-176.49
13015,-231.99
13027,-277.94
13039,-308.52
13051,-319.51
13063,-308.49
13075,-275.81
13087,-225.47
13098,-165.56
13109,-105.45
13121,-53.05
13133,-11.97
13145,19.02
13157,42.76
13169,60.22
13181,68.63
13193,63.39
13205,42.02
13217,8.55
13229,-26.56
13241,-50.09
13253,-51.91
13265,-29.87
13277,9.56
13288,55.64
13299,99.46
13311,137.62
13323,171.87
13335,204.83
13347,235.0
13359,255.38
13371,255.28
13383,226.4
13395,167.91
13407,87.9
13419,0.91
13431,-77.67
13443,-136.23
13455,-169.2
13467,-175.48
13478,-157.14
13489,-117.88
13501,-63.85
13513,-4.95
13525,46.66
13537,79.65
13549,88.46
13561,75.44
13573,49.51
13585,20.61
13597,-4.85
13609,-26.09
13621,-46.16
13633,-66.44
13645,-83.72
13657,-90.69
13668,-80.87
13679,-54.06
13691,-18.63
13703,11.95
13715,26.64
13727,22.82
13739,8.05
13751,-5.14
13763,-6.9
13775,4.2
13787,21.33
13799,34.87
13811,39.98
13823,40.39
13835,46.21
13847,66.75
13858,102.48
13869,142.85
13881,170.61
13893,171.59
13905,143.52
13917,98.04
13929,55.17
13941,32.67
13953,37.14
13965,60.49
13977,85.32
13989,94.36
14001,79.05
14013,43.19
14025,-0.11
14037,-35.5
14048,-52.45
14059,-48.19
14071,-27.39
14083,1.55
14095,29.84
14107,50.32
14119,58.2
14131,51.21
14143,29.95
14155,-2.11
14167,-38.69
14179,-72.43
14191,-95.56
14203,-102.24
14215,-89.62
14227,-58.95
14238,-16.35
14249,27.98
14261,61.85
14273,75.03
14285,62.85
14297,29.57
14309,-12.59
14321,-47.62
14333,-61.93
14345,-50.12
14357,-17.55
14369,21.81
14381,50.94
14393,56.11
14405,32.2
14417,-15.46
14428,-72.86
14439,-121.95
14451,-146.74
14463,-139.29
14475,-102.69
14487,-50.44
14499,-1.98
14511,25.2
14523,22.04
14535,-8.54
14547,-52.64
14559,-91.51
14571,-108.97
14583,-97.58
14595,-60.92
14607,-11.86
14618,33.27
14629,60.75
14641,64.41
14653,48.07
14665,23.22
14677,4.18
14689,2.38
14701,22.1
14713,59.23
14725,104.67
14737,148.94
14749,186.81
14761,218.6
14773,248.22
14785,279.16
14797,311.68
14808,343.11
14819,369.81
14831,389.95
14843,404.05
14855,413.54
14867,418.17
14879,414.36
14891,396.26
14903,358.58
14915,300.34
14927,226.58
14939,148.3
14951,79.26
14963,31.43
14975,11.22
14987,16.94
14998,39.42
15009,65.37
15021,81.73
15033,79.71
15045,57.35
15057,19.41
15069,-24.94
15081,-64.94
15093,-90.98
15105,-96.46
15117,-79.71
15129,-44.8
15141,-1.47
15153,37.14
15165,58.51
15177,54.87
15188,26.23
15199,-20.14
15211,-73.15
15223,-122.2
15235,-160.16
15247,-184.43
15259,-195.32
15271,-194.49
15283,-183.94
15295,-165.88
15307,-143.61
15319,-121.74
15331,-105.36
15343,-98.49
15355,-102.91
15367,-117.31
15378,-137.54
15389,-158.11
15401,-174.15
15413,-183.8
15425,-188.8
15437,-192.95
15449,-199.4
15461,-208.25
15473,-215.96
15485,-216.83
15497,-205.91
15509,-181.25
15521,-144.96
15533,-102.26
15545,-59.83
15557,-24.42
15568,-1.94
15579,3.16
15591,-11.02
15603,-42.63
15615,-85.87
15627,-132.26
15639,-173.55
15651,-204.61
15663,-224.47
15675,-234.53
15687,-235.92
15699,-227.52
15711,-205.99
15723,-168.27
15735,-114.74
15747,-51.34
15758,11.95
15769,64.63
15781,100.62
15793,121.06
15805,133.69
15817,148.72
15829,173.0
15841,205.94
15853,238.65
15865,257.61
15877,251.06
15889,214.19
15901,151.27
15913,73.29
15925,-6.9
15937,-79.59
15948,-140.46
15959,-190.16
15971,-232.13
15983,-269.65
15995,-304.52
16007,-336.12
16019,-361.95
16031,-378.25
16043,-381.07
16055,-367.36
16067,-336.28
16079,-290.18
16091,-233.84
16103,-173.3
16115,-113.67
16127,-58.19
16138,-8.39
16149,35.09
16161,71.43
16173,99.93
16185,121.0
16197,137.39
16209,153.36
16221,172.49
16233,194.86
16245,215.12
16257,224.15
16269,212.6
16281,175.89
16293,116.69
16305,45.12
16317,-24.78
16328,-79.54
16339,-109.41
16351,-110.35
16363,-83.25
16375,-33.53
16387,29.95
16399,95.17
16411,149.16
16423,180.74
16435,184.66
16447,163.93
16459,128.98
16471,93.96
16483,71.35
16495,67.48
16507,80.72
16518,103.3
16529,125.01
16541,137.26
16553,134.8
16565,115.69
16577,80.59
16589,31.86
16601,-26.07
16613,-86.84
16625,-142.76
16637,-186.7
16649,-214.03
16661,-223.74
16673,-218.05
16685,-200.39
16697,-173.99
16708,-141.65
16719,-107.29
16731,-77.06
16743,-58.84
16755,-58.74
16767,-76.88
16779,-105.48
16791,-130.61
16803,-138.07
16815,-119.47
16827,-76.1
16839,-17.7
16851,42.13
16863,91.99
16875,126.61
16887,147.12
16898,158.97
16909,168.22
16921,179.55
16933,194.99
16945,214.14
16957,234.64
16969,252.81
16981,264.56
16993,266.48
17005,257.58
17017,238.81
17029,213.07
17041,182.98
17053,149.97
17065,114.26
17077,76.53
17088,39.42
17099,7.65
17111,-12.71
17123,-18.09
17135,-8.88
17147,9.18
17159,27.36
17171,36.73
17183,31.61
17195,11.0
17207,-21.82
17219,-60.01
17231,-95.81
17243,-121.93
17255,-133.78
17267,-129.87
17278,-112.08
17289,-84.12
17301,-50.33
17313,-14.39
17325,21.04
17337,53.39
17349,80.2
17361,98.8
17373,107.66
17385,107.37
17397,100.64
17409,90.93
17421,80.5
17433,69.42
17445,55.55
17457,37.3
17468,15.22
17479,-7.2
17491,-24.45
17503,-31.5
17515,-25.71
17527,-7.33
17539,22.3
17551,61.26
17563,108.33
17575,161.63
17587,216.94
17599,267.67
17611,306.57
17623,329.01
17635,334.76
17647,328.4
17658,315.38
17669,298.99
17681,278.23
17693,249.32
17705,209.9
17717,162.68
17729,115.86
17741,79.63
17753,60.97
17765,58.98
17777,65.48
17789,68.85
17801,59.61
17813,34.59
17825,-3.08
17837,-46.5
17848,-87.82
17859,-120.01
17871,-137.28
17883,-135.08
17895,-111.63
17907,-70.27
17919,-19.96
17931,25.75
17943,53.6
17955,55.78
17967,32.33
17979,-9.92
17991,-61.49
18003,-114.74
18015,-166.52
18027,-216.74
18038,-265.98
18049,-313.46
18061,-356.29
18073,-391.51
18085,-418.05
18097,-437.36
18109,-453.29
18121,-470.58
18133,-492.82
18145,-520.86
18157,-552.08
18169,-580.01
18181,-595.76
18193,-590.24
18205,-557.02
18217,-495.51
18228,-411.57
18239,-316.1
18251,-220.64
18263,-133.88
18275,-59.03
18287,5.02
18299,60.95
18311,109.86
18323,149.85
18335,177.91
18347,191.54
18359,191.44
18371,181.44
18383,167.44
18395,155.09
18407,148.87
18418,151.81
18429,165.5
18441,189.77
18453,221.28
18465,253.32
18477,276.27
18489,281.12
18501,263.28
18513,225.55
18525,178.11
18537,134.18
18549,103.91
18561,89.04
18573,82.92
18585,74.41
18597,54.87
18608,23.68
18619,-11.72
18631,-39.95
18643,-53.34
18655,-52.78
18667,-48.61
18679,-55.0
18691,-83.27
18703,-135.94
18715,-204.63
18727,-273.9
18739,-327.31
18751,-353.45
18763,-348.61
18775,-317.16
18787,-268.37
18798,-213.48
18809,-163.36
18821,-126.99
18833,-111.49
18845,-120.72
18857,-154.44
18869,-206.59
18881,-265.6
18893,-316.63
18905,-345.75
18917,-344.16
18929,-310.56
18941,-251.23
18953,-176.93
18965,-99.42
18977,-28.4
18988,29.94
18999,73.11
19011,101.58
19023,118.12
19035,127.49
19047,135.6
19059,148.79
19071,171.68
19083,205.09
19095,244.0
19107,278.35
19119,296.27
19131,288.92
19143,255.61
19155,205.08
19167,152.95
19178,115.38
19189,103.03
19201,117.27
19213,150.88
19225,192.26
19237,229.57
19249,253.66
19261,258.45
19273,240.48
19285,198.58
19297,135.18
19309,57.41
19321,-23.4
19333,-93.79
19345,-142.96
19357,-166.18
19368,-166.38
19379,-151.8
19391,-131.86
19403,-112.82
19415,-95.7
19427,-78.17
19439,-57.49
19451,-34.4
19463,-13.39
19475,-0.69
19487,-0.19
19499,-10.38
19511,-24.97
19523,-36.24
19535,-40.07
19547,-38.07
19558,-36.63
19569,-41.46
19581,-53.18
19593,-65.9
19605,-70.62
19617,-61.39
19629,-40.07
19641,-16.65
19653,-3.82
19665,-10.35
19677,-35.38
19689,-68.21
19701,-93.32
19713,-97.72
19725,-76.87
19737,-36.16
19748,12.67
19759,57.64
19771,91.7
19783,115.07
19795,134.01
19807,156.18
19819,185.82
19831,220.38
19843,250.68
19855,264.91
19867,253.97
19879,216.5
19891,160.07
19903,98.55
19915,46.79
19927,15.06
19938,5.93
19949,14.56
19961,31.67
19973,47.05
19985,52.71
19997,44.32
20009,21.24
20021,-13.7
20033,-54.31
20045,-92.07
20057,-117.65
20069,-123.89
20081,-108.87
20093,-78.08
20105,-43.51
20117,-19.96
20128,-19.17
20139,-44.04
20151,-86.47
20163,-129.84
20175,-155.34
20187,-149.31
20199,-107.98
20211,-37.85
20223,47.3
20235,131.71
20247,201.41
20259,246.88
20271,264.17
20283,255.31
20295,228.41
20307,196.34
20318,172.56
20329,165.83
20341,176.15
20353,194.12
20365,206.06
20377,201.36
20389,178.25
20401,144.5
20413,112.62
20425,91.95
20437,83.11
20449,78.5
20461,67.46
20473,43.89
20485,10.31
20497,-23.41
20508,-46.3
20519,-53.03
20531,-47.17
20543,-38.73
20555,-37.84
20567,-49.1
20579,-69.71
20591,-91.72
20603,-107.34
20615,-112.76
20627,-108.57
20639,-97.93
20651,-83.33
20663,-65.4
20675,-43.91
20687,-19.6
20698,5.01
20709,26.07
20721,40.38
20733,46.91
20745,47.14
20757,44.55
20769,43.6
20781,48.16
20793,60.18
20805,78.51
20817,97.89
20829,110.33
20841,107.62
20853,85.22
20865,45.13
20877,-4.03
20888,-49.98
20899,-81.19
20911,-90.91
20923,-78.92
20935,-50.49
20947,-14.32
20959,19.09
20971,39.54
20983,39.31
20995,15.66
