seconds,BVP
11,19.13
23,19.01
35,20.31
47,22.63
59,25.34
71,27.71
83,29.13
95,29.18
106,27.68
117,24.73
129,20.63
141,15.82
153,10.81
165,6.02
177,1.79
189,-1.76
201,-4.69
213,-7.26
225,-9.79
237,-12.69
249,-16.3
261,-20.78
273,-26.04
285,-31.72
296,-37.35
307,-42.56
319,-47.14
331,-51.05
343,-54.23
355,-56.38
367,-56.88
379,-54.96
391,-50.04
403,-42.09
415,-31.77
427,-20.23
439,-8.75
451,1.69
463,10.54
475,17.68
486,23.08
497,26.72
509,28.53
521,28.6
533,27.31
545,25.31
557,23.39
569,22.15
581,21.82
593,22.31
605,23.34
617,24.68
629,26.22
641,27.87
653,29.49
665,30.74
676,31.2
687,30.51
699,28.53
711,25.38
723,21.32
735,16.66
747,11.6
759,6.33
771,1.06
783,-3.97
795,-8.55
807,-12.62
819,-16.32
831,-19.9
843,-23.61
855,-27.52
866,-31.56
877,-35.56
889,-39.49
901,-43.46
913,-47.72
925,-52.54
937,-57.94
949,-63.52
961,-68.47
973,-71.65
985,-71.92
997,-68.47
1009,-61.12
1021,-50.48
1033,-37.83
1045,-24.77
1056,-12.82
1067,-2.98
1079,4.39
1091,9.54
1103,13.02
1115,15.42
1127,17.12
1139,18.3
1151,19.05
1163,19.47
1175,19.78
1187,20.35
1199,21.57
1211,23.67
1223,26.58
1235,29.91
1246,33.09
1257,35.65
1269,37.41
1281,38.56
1293,39.45
1305,40.36
1317,41.16
1329,41.42
1341,40.57
1353,38.3
1365,34.74
1377,30.43
1389,26.02
1401,22.03
1413,18.6
1425,15.55
1436,12.57
1447,9.38
1459,5.8
1471,1.85
1483,-2.31
1495,-6.41
1507,-10.1
1519,-13.11
1531,-15.32
1543,-17.0
1555,-18.73
1567,-21.29
1579,-25.28
1591,-30.84
1603,-37.49
1615,-44.22
1626,-49.78
1637,-52.96
1649,-52.84
1661,-48.91
1673,-41.18
1685,-30.17
1697,-16.88
1709,-2.71
1721,10.89
1733,22.65
1745,31.83
1757,38.24
1769,42.11
1781,43.85
1793,43.93
1805,42.79
1816,40.86
1827,38.69
1839,36.78
1851,35.52
1863,35.08
1875,35.39
1887,36.23
1899,37.41
1911,38.71
1923,39.96
1935,40.96
1947,41.47
1959,41.27
1971,40.22
1983,38.31
1995,35.65
2006,32.47
2017,28.96
2029,25.33
2041,21.72
2053,18.25
2065,14.95
2077,11.84
2089,8.81
2101,5.63
2113,2.07
2125,-2.09
2137,-6.84
2149,-11.92
2161,-16.81
2173,-20.98
2185,-24.13
2196,-26.31
2207,-28.02
2219,-29.97
2231,-32.83
2243,-36.95
2255,-42.25
2267,-48.23
2279,-54.01
2291,-58.51
2303,-60.58
2315,-59.32
2327,-54.18
2339,-45.33
2351,-33.65
2363,-20.52
2375,-7.55
2386,3.98
2397,13.34
2409,20.46
2421,25.65
2433,29.3
2445,31.56
2457,32.38
2469,31.68
2481,29.55
2493,26.48
2505,23.18
2517,20.41
2529,18.61
2541,17.88
2553,18.05
2565,18.9
2576,20.24
2587,21.96
2599,23.79
2611,25.33
2623,26.0
2635,25.33
2647,23.13
2659,19.66
2671,15.55
2683,11.54
2695,8.13
2707,5.43
2719,3.11
2731,0.65
2743,-2.32
2755,-5.87
2766,-9.71
2777,-13.43
2789,-16.69
2801,-19.51
2813,-22.19
2825,-25.21
2837,-28.95
2849,-33.54
2861,-38.8
2873,-44.28
2885,-49.39
2897,-53.48
2909,-55.8
2921,-55.58
2933,-52.16
2945,-45.28
2956,-35.17
2967,-22.71
2979,-9.24
2991,3.81
3003,15.24
3015,24.33
3027,30.81
3039,34.78
3051,36.44
3063,36.03
3075,33.84
3087,30.24
3099,25.88
3111,21.5
3123,17.88
3135,15.65
3146,15.04
3157,15.96
3169,18.01
3181,20.71
3193,23.57
3205,26.24
3217,28.38
3229,29.71
3241,29.89
3253,28.68
3265,26.01
3277,22.1
3289,17.44
3301,12.56
3313,7.92
3325,3.69
3336,-0.22
3347,-4.05
3359,-7.97
3371,-12.05
3383,-16.16
3395,-20.18
3407,-24.0
3419,-27.58
3431,-30.94
3443,-34.04
3455,-36.94
3467,-39.76
3479,-42.82
3491,-46.53
3503,-51.09
3515,-56.26
3526,-61.16
3537,-64.45
3549,-64.75
3561,-61.18
3573,-53.69
3585,-43.09
3597,-30.67
3609,-17.77
3621,-5.42
3633,5.79
3645,15.53
3657,23.55
3669,29.62
3681,33.56
3693,35.45
3705,35.66
3716,34.84
3727,33.68
3739,32.74
3751,32.31
3763,32.48
3775,33.15
3787,34.21
3799,35.48
3811,36.72
3823,37.62
3835,37.85
3847,37.23
3859,35.75
3871,33.65
3883,31.23
3895,28.67
3906,26.01
3917,23.09
3929,19.8
3941,16.13
3953,12.26
3965,8.41
3977,4.7
3989,1.06
4001,-2.66
4013,-6.58
4025,-10.52
4037,-14.15
4049,-17.05
4061,-19.0
4073,-20.19
4085,-21.1
4096,-22.37
4107,-24.58
4119,-28.03
4131,-32.77
4143,-38.49
4155,-44.58
4167,-50.15
4179,-54.06
4191,-55.19
4203,-52.76
4215,-46.53
4227,-37.0
4239,-25.25
4251,-12.72
4263,-0.71
4275,9.8
4286,18.33
4297,24.75
4309,29.11
4321,31.43
4333,31.69
4345,29.98
4357,26.69
4369,22.56
4381,18.64
4393,15.84
4405,14.67
4417,14.95
4429,16.01
4441,17.08
4453,17.7
4465,17.86
4476,17.87
4487,18.02
4499,18.29
4511,18.3
4523,17.58
4535,15.92
4547,13.51
4559,10.88
4571,8.55
4583,6.75
4595,5.28
4607,3.69
4619,1.58
4631,-1.23
4643,-4.63
4655,-8.35
4666,-12.16
4677,-15.97
4689,-19.79
4701,-23.61
4713,-27.36
4725,-30.97
4737,-34.48
4749,-38.1
4761,-42.13
4773,-46.67
4785,-51.44
4797,-55.64
4809,-58.07
4821,-57.65
4833,-53.78
4845,-46.6
4856,-36.9
4867,-25.89
4879,-14.77
4891,-4.5
4903,4.32
4915,11.41
4927,16.71
4939,20.31
4951,22.38
4963,23.15
4975,22.88
4987,21.84
4999,20.31
5011,18.63
5023,17.15
5035,16.22
5046,16.0
5057,16.47
5069,17.42
5081,18.54
5093,19.52
5105,20.24
5117,20.69
5129,20.97
5141,21.2
5153,21.37
5165,21.35
5177,20.89
5189,19.71
5201,17.63
5213,14.66
5225,11.02
5236,7.05
5247,3.06
5259,-0.85
5271,-4.76
5283,-8.88
5295,-13.44
5307,-18.47
5319,-23.91
5331,-29.63
5343,-35.53
5355,-41.51
5367,-47.3
5379,-52.33
5391,-55.71
5403,-56.47
5415,-53.84
5426,-47.58
5437,-38.13
5449,-26.56
5461,-14.19
5473,-2.36
5485,7.96
5497,16.2
5509,22.17
5521,25.92
5533,27.6
5545,27.35
5557,25.4
5569,22.17
5581,18.31
5593,14.74
5605,12.34
5616,11.78
5627,13.19
5639,16.16
5651,19.95
5663,23.8
5675,27.16
5687,29.74
5699,31.4
5711,31.96
5723,31.13
5735,28.69
5747,24.66
5759,19.48
5771,13.87
5783,8.63
5795,4.24
5806,0.72
5817,-2.36
5829,-5.59
5841,-9.46
5853,-14.1
5865,-19.28
5877,-24.55
5889,-29.45
5901,-33.75
5913,-37.52
5925,-41.07
5937,-44.79
5949,-48.91
5961,-53.32
5973,-57.56
5985,-60.83
5996,-62.19
6007,-60.76
6019,-55.98
6031,-47.81
6043,-36.74
6055,-23.88
6067,-10.62
6079,1.66
6091,11.91
6103,19.64
6115,24.87
6127,27.93
6139,29.21
6151,29.03
6163,27.66
6175,25.52
6186,23.12
6197,21.09
6209,19.92
6221,19.71
6233,20.23
6245,21.08
6257,22.0
6269,22.95
6281,24.15
6293,25.71
6305,27.45
6317,28.89
6329,29.4
6341,28.58
6353,26.44
6365,23.39
6376,20.02
6387,16.84
6399,14.09
6411,11.8
6423,9.87
6435,8.15
6447,6.51
6459,4.81
6471,2.87
6483,0.51
6495,-2.33
6507,-5.66
6519,-9.31
6531,-13.19
6543,-17.28
6555,-21.7
6566,-26.69
6577,-32.37
6589,-38.61
6601,-44.88
6613,-50.26
6625,-53.59
6637,-53.85
6649,-50.46
6661,-43.46
6673,-33.56
6685,-21.92
6697,-9.82
6709,1.63
6721,11.69
6733,19.98
6745,26.38
6756,30.87
6767,33.44
6779,34.15
6791,33.21
6803,31.06
6815,28.32
6827,25.67
6839,23.63
6851,22.47
6863,22.14
6875,22.44
6887,23.09
6899,23.81
6911,24.42
6923,24.74
6935,24.6
6946,23.83
6957,22.29
6969,20.01
6981,17.09
6993,13.78
7005,10.37
7017,7.1
7029,4.1
7041,1.32
7053,-1.33
7065,-4.01
7077,-6.78
7089,-9.65
7101,-12.56
7113,-15.41
7125,-18.16
7136,-20.73
7147,-23.15
7159,-25.47
7171,-27.93
7183,-30.9
7195,-34.78
7207,-39.8
7219,-45.73
7231,-51.83
7243,-56.88
7255,-59.56
7267,-58.82
7279,-54.2
7291,-45.95
7303,-34.98
7315,-22.51
7326,-9.83
7337,2.04
7349,12.43
7361,21.01
7373,27.76
7385,32.72
7397,36.02
7409,37.72
7421,37.9
7433,36.63
7445,34.15
7457,30.87
7469,27.42
7481,24.45
7493,22.46
7505,21.71
7516,22.1
7527,23.29
7539,24.84
7551,26.37
7563,27.58
7575,28.25
7587,28.16
7599,27.09
7611,24.84
7623,21.4
7635,16.96
7647,11.9
7659,6.72
7671,1.82
7683,-2.51
7695,-6.21
7706,-9.43
7717,-12.4
7729,-15.42
7741,-18.8
7753,-22.84
7765,-27.78
7777,-33.85
7789,-41.07
7801,-49.1
7813,-57.05
7825,-63.58
7837,-67.11
7849,-66.37
7861,-60.78
7873,-50.77
7885,-37.61
7896,-23.03
7907,-8.73
7919,4.0
7931,14.42
7943,22.17
7955,27.14
7967,29.31
7979,28.78
7991,25.89
8003,21.35
8015,16.24
8027,11.78
8039,9.04
8051,8.59
8063,10.34
8075,13.63
8086,17.48
8097,20.96
8109,23.49
8121,24.84
8133,25.08
8145,24.33
8157,22.72
8169,20.33
8181,17.27
8193,13.75
8205,9.99
8217,6.2
8229,2.46
8241,-1.24
8253,-4.97
8265,-8.69
8276,-12.33
8287,-15.78
8299,-19.07
8311,-22.42
8323,-26.23
8335,-30.91
8347,-36.6
8359,-43.04
8371,-49.38
8383,-54.39
8395,-56.73
8407,-55.31
8419,-49.68
8431,-40.18
8443,-27.86
8455,-14.18
8466,-0.62
8477,11.68
8489,22.05
8501,30.25
8513,36.28
8525,40.21
8537,42.14
8549,42.14
8561,40.43
8573,37.4
8585,33.64
8597,29.83
8609,26.57
8621,24.31
8633,23.14
8645,22.95
8656,23.38
8667,24.08
8679,24.76
8691,25.28
8703,25.58
8715,25.64
8727,25.33
8739,24.51
8751,23.03
8763,20.82
8775,17.95
8787,14.66
8799,11.2
8811,7.81
8823,4.58
8835,1.55
8846,-1.3
8857,-3.96
8869,-6.38
8881,-8.56
8893,-10.53
8905,-12.51
8917,-14.8
8929,-17.75
8941,-21.6
8953,-26.36
8965,-31.69
8977,-36.84
8989,-40.76
9001,-42.31
9013,-40.57
9025,-35.09
9036,-26.12
9047,-14.49
9059,-1.47
9071,11.61
9083,23.7
9095,34.15
9107,42.75
9119,49.49
9131,54.39
9143,57.32
9155,58.1
9167,56.66
9179,53.22
9191,48.32
9203,42.76
9215,37.41
9226,32.95
9237,29.75
9249,27.81
9261,26.96
9273,26.87
9285,27.23
9297,27.75
9309,28.17
9321,28.2
9333,27.57
9345,26.13
9357,23.8
9369,20.73
9381,17.17
9393,13.43
9405,9.74
9416,6.19
9427,2.72
9439,-0.85
9451,-4.66
9463,-8.75
9475,-13.0
9487,-17.19
9499,-21.02
9511,-24.32
9523,-27.04
9535,-29.37
9547,-31.59
9559,-34.08
9571,-37.16
9583,-41.07
9595,-45.86
9606,-51.33
9617,-56.97
9629,-62.0
9641,-65.43
9653,-66.3
9665,-63.94
9677,-58.12
9689,-49.16
9701,-37.84
9713,-25.21
9725,-12.31
9737,-0.03
9749,11.01
9761,20.45
9773,28.13
9785,34.04
9796,38.23
9807,40.76
9819,41.74
9831,41.35
9843,39.92
9855,37.92
9867,35.94
9879,34.48
9891,33.78
9903,33.81
9915,34.3
9927,34.94
9939,35.5
9951,35.94
9963,36.22
9975,36.27
9986,35.79
9997,34.46
10009,32.1
10021,28.82
10033,25.02
10045,21.24
10057,17.88
10069,15.05
10081,12.6
10093,10.2
10105,7.6
10117,4.68
10129,1.46
10141,-1.99
10153,-5.63
10165,-9.49
10176,-13.65
10187,-18.18
10199,-23.16
10211,-28.67
10223,-34.74
10235,-41.27
10247,-47.88
10259,-53.83
10271,-58.06
10283,-59.43
10295,-57.08
10307,-50.78
10319,-41.11
10331,-29.3
10343,-16.94
10355,-5.45
10366,4.23
10377,11.8
10389,17.39
10401,21.32
10413,23.83
10425,24.96
10437,24.69
10449,23.15
10461,20.69
10473,17.88
10485,15.37
10497,13.64
10509,12.94
10521,13.25
10533,14.3
10545,15.7
10556,17.02
10567,17.85
10579,17.88
10591,16.96
10603,15.11
10615,12.58
10627,9.69
10639,6.79
10651,4.1
10663,1.69
10675,-0.55
10687,-2.85
10699,-5.47
10711,-8.59
10723,-12.22
10735,-16.18
10746,-20.16
10757,-23.86
10769,-27.11
10781,-29.95
10793,-32.63
10805,-35.56
10817,-39.13
10829,-43.61
10841,-48.96
10853,-54.72
10865,-59.96
10877,-63.45
10889,-63.92
10901,-60.56
10913,-53.22
10925,-42.63
10936,-30.09
10947,-17.18
10959,-5.24
10971,4.83
10983,12.63
10995,18.14
11007,21.56
11019,23.13
11031,23.2
11043,22.18
11055,20.57
11067,18.86
11079,17.49
11091,16.72
11103,16.59
11115,16.99
11126,17.67
11137,18.43
11149,19.15
11161,19.81
11173,20.49
11185,21.19
11197,21.81
11209,22.1
11221,21.76
11233,20.58
11245,18.54
11257,15.84
11269,12.82
11281,9.8
11293,6.91
11305,4.13
11316,1.26
11327,-1.88
11339,-5.31
11351,-8.81
11363,-12.05
11375,-14.75
11387,-16.84
11399,-18.62
11411,-20.58
11423,-23.3
11435,-27.11
11447,-32.05
11459,-37.83
11471,-43.88
11483,-49.51
11495,-53.94
11506,-56.3
11517,-55.8
11529,-51.84
11541,-44.33
11553,-33.85
11565,-21.58
11577,-9.08
11589,2.28
11601,11.57
11613,18.5
11625,23.28
11637,26.32
11649,28.02
11661,28.61
11673,28.29
11685,27.31
11696,26.11
11707,25.11
11719,24.61
11731,24.66
11743,24.95
11755,25.1
11767,24.84
11779,24.15
11791,23.23
11803,22.31
11815,21.48
11827,20.58
11839,19.3
11851,17.36
11863,14.7
11875,11.52
11886,8.18
11897,4.99
11909,2.14
11921,-0.44
11933,-2.9
11945,-5.37
11957,-7.96
11969,-10.62
11981,-13.34
11993,-16.08
12005,-18.86
12017,-21.67
12029,-24.52
12041,-27.4
12053,-30.36
12065,-33.54
12076,-37.08
12087,-41.13
12099,-45.62
12111,-50.17
12123,-54.1
12135,-56.46
12147,-56.29
12159,-52.93
12171,-46.24
12183,-36.71
12195,-25.3
12207,-13.22
12219,-1.57
12231,8.81
12243,17.43
12255,24.04
12266,28.56
12277,30.96
12289,31.34
12301,29.92
12313,27.16
12325,23.7
12337,20.23
12349,17.36
12361,15.42
12373,14.49
12385,14.37
12397,14.8
12409,15.57
12421,16.51
12433,17.54
12445,18.52
12456,19.2
12467,19.31
12479,18.65
12491,17.17
12503,15.08
12515,12.68
12527,10.27
12539,7.94
12551,5.6
12563,3.03
12575,0.01
12587,-3.52
12599,-7.45
12611,-11.55
12623,-15.56
12635,-19.22
12646,-22.44
12657,-25.22
12669,-27.71
12681,-30.16
12693,-32.94
12705,-36.33
12717,-40.45
12729,-44.97
12741,-49.12
12753,-51.78
12765,-51.81
12777,-48.47
12789,-41.68
12801,-32.15
12813,-21.14
12825,-10.04
12836,-0.06
12847,8.06
12859,14.05
12871,17.94
12883,19.97
12895,20.43
12907,19.64
12919,17.93
12931,15.64
12943,13.09
12955,10.62
12967,8.59
12979,7.33
12991,7.06
13003,7.79
13015,9.25
13026,11.03
13037,12.65
13049,13.75
13061,14.18
13073,13.96
13085,13.16
13097,11.73
13109,9.58
13121,6.64
13133,2.95
13145,-1.14
13157,-5.17
13169,-8.66
13181,-11.38
13193,-13.43
13205,-15.22
13216,-17.24
13227,-19.86
13239,-23.24
13251,-27.25
13263,-31.72
13275,-36.4
13287,-41.05
13299,-45.26
13311,-48.41
13323,-49.61
13335,-48.02
13347,-43.19
13359,-35.33
13371,-25.31
13383,-14.38
13395,-3.67
13406,6.09
13417,14.68
13429,22.15
13441,28.53
13453,33.62
13465,37.08
13477,38.53
13489,37.91
13501,35.61
13513,32.34
13525,29.02
13537,26.39
13549,24.92
13561,24.63
13573,25.16
13585,26.01
13596,26.65
13607,26.73
13619,26.13
13631,24.87
13643,23.05
13655,20.66
13667,17.63
13679,13.86
13691,9.35
13703,4.31
13715,-0.87
13727,-5.78
13739,-10.09
13751,-13.7
13763,-16.74
13775,-19.53
13786,-22.47
13797,-25.96
13809,-30.33
13821,-35.76
13833,-42.1
13845,-48.77
13857,-54.75
13869,-58.74
13881,-59.51
13893,-56.24
13905,-48.87
13917,-38.08
13929,-25.09
13941,-11.34
13953,1.8
13965,13.29
13976,22.45
13987,29.0
13999,33.02
14011,34.78
14023,34.76
14035,33.49
14047,31.52
14059,29.38
14071,27.51
14083,26.22
14095,25.63
14107,25.67
14119,26.12
14131,26.74
14143,27.35
14155,27.83
14166,28.1
14177,28.03
14189,27.5
14201,26.33
14213,24.45
14225,21.9
14237,18.79
14249,15.19
14261,11.1
14273,6.5
14285,1.47
14297,-3.68
14309,-8.55
14321,-12.71
14333,-16.02
14345,-18.69
14356,-21.25
14367,-24.31
14379,-28.36
14391,-33.5
14403,-39.49
14415,-45.79
14427,-51.66
14439,-56.2
14451,-58.44
14463,-57.51
14475,-52.83
14487,-44.35
14499,-32.7
14511,-19.06
14523,-4.95
14535,8.26
14546,19.57
14557,28.55
14569,35.21
14581,39.87
14593,42.86
14605,44.41
14617,44.76
14629,44.08
14641,42.64
14653,40.79
14665,38.86
14677,37.14
14689,35.74
14701,34.66
14713,33.83
14725,33.18
14736,32.68
14747,32.3
14759,31.94
14771,31.37
14783,30.37
14795,28.74
14807,26.45
14819,23.63
14831,20.51
14843,17.27
14855,13.98
14867,10.56
14879,6.84
14891,2.69
14903,-1.9
14915,-6.78
14926,-11.67
14937,-16.29
14949,-20.47
14961,-24.21
14973,-27.7
14985,-31.32
14997,-35.51
15009,-40.62
15021,-46.76
15033,-53.53
15045,-60.04
15057,-65.0
15069,-66.99
15081,-64.85
15093,-58.02
15105,-46.83
15116,-32.41
15127,-16.45
15139,-0.73
15151,13.24
15163,24.59
15175,33.06
15187,38.86
15199,42.46
15211,44.28
15223,44.67
15235,43.9
15247,42.29
15259,40.24
15271,38.27
15283,36.76
15295,35.93
15306,35.71
15317,35.81
15329,35.98
15341,36.01
15353,35.87
15365,35.56
15377,34.98
15389,33.94
15401,32.22
15413,29.62
15425,26.11
15437,21.8
15449,16.9
15461,11.64
15473,6.31
15485,1.27
15496,-3.15
15507,-6.79
15519,-9.7
15531,-12.2
15543,-14.75
15555,-17.66
15567,-20.9
15579,-24.23
15591,-27.39
15603,-30.41
15615,-33.63
15627,-37.53
15639,-42.23
15651,-47.23
15663,-51.43
15675,-53.41
15686,-52.03
15697,-46.8
15709,-38.05
15721,-26.74
15733,-14.12
15745,-1.45
15757,10.12
15769,19.78
15781,26.99
15793,31.58
15805,33.64
15817,33.55
15829,31.79
15841,28.89
15853,25.4
15865,21.91
15876,19.02
15887,17.16
15899,16.5
15911,16.95
15923,18.07
15935,19.39
15947,20.51
15959,21.23
15971,21.51
15983,21.32
15995,20.68
16007,19.53
16019,17.94
16031,15.99
16043,13.82
16055,11.52
16066,9.14
16077,6.68
16089,4.16
16101,1.65
16113,-0.87
16125,-3.48
16137,-6.41
16149,-9.91
16161,-14.16
16173,-19.16
16185,-24.76
16197,-30.67
16209,-36.53
16221,-41.91
16233,-46.2
16245,-48.7
16256,-48.66
16267,-45.57
16279,-39.4
16291,-30.66
16303,-20.32
16315,-9.47
16327,0.91
16339,10.25
16351,18.28
16363,24.98
16375,30.26
16387,33.99
16399,35.98
16411,36.18
16423,34.8
16435,32.39
16446,29.67
16457,27.38
16469,25.99
16481,25.65
16493,26.23
16505,27.42
16517,28.84
16529,30.09
16541,30.83
16553,30.73
16565,29.65
16577,27.65
16589,24.99
16601,22.07
16613,19.28
16625,16.83
16636,14.66
16647,12.51
16659,9.93
16671,6.56
16683,2.23
16695,-2.96
16707,-8.65
16719,-14.41
16731,-19.8
16743,-24.53
16755,-28.48
16767,-31.73
16779,-34.5
16791,-37.23
16803,-40.37
16815,-44.3
16826,-49.02
16837,-54.01
16849,-58.25
16861,-60.4
16873,-59.27
16885,-54.21
16897,-45.34
16909,-33.56
16921,-20.21
16933,-6.71
16945,5.77
16957,16.45
16969,24.91
16981,31.0
16993,34.77
17005,36.48
17016,36.49
17027,35.39
17039,33.78
17051,32.26
17063,31.22
17075,30.89
17087,31.21
17099,31.98
17111,32.87
17123,33.52
17135,33.7
17147,33.28
17159,32.33
17171,31.04
17183,29.63
17195,28.18
17206,26.6
17217,24.64
17229,22.02
17241,18.63
17253,14.62
17265,10.35
17277,6.19
17289,2.39
17301,-1.13
17313,-4.63
17325,-8.42
17337,-12.62
17349,-17.06
17361,-21.35
17373,-25.08
17385,-28.0
17396,-30.14
17407,-31.84
17419,-33.52
17431,-35.6
17443,-38.37
17455,-42.07
17467,-46.8
17479,-52.51
17491,-58.75
17503,-64.64
17515,-68.83
17527,-69.85
17539,-66.63
17551,-58.88
17563,-47.27
17575,-33.25
17586,-18.59
17597,-4.83
17609,6.97
17621,16.33
17633,23.23
17645,27.86
17657,30.5
17669,31.52
17681,31.35
17693,30.5
17705,29.5
17717,28.8
17729,28.66
17741,29.13
17753,30.04
17765,31.13
17776,32.14
17787,32.97
17799,33.64
17811,34.27
17823,34.94
17835,35.54
17847,35.83
17859,35.51
17871,34.32
17883,32.16
17895,29.07
17907,25.14
17919,20.6
17931,15.66
17943,10.65
17955,5.9
17966,1.66
17977,-2.0
17989,-5.31
18001,-8.59
18013,-12.14
18025,-16.03
18037,-20.04
18049,-23.85
18061,-27.19
18073,-30.08
18085,-32.84
18097,-35.91
18109,-39.64
18121,-44.12
18133,-49.02
18145,-53.7
18156,-57.32
18167,-58.99
18179,-58.0
18191,-53.91
18203,-46.78
18215,-37.07
18227,-25.67
18239,-13.6
18251,-1.87
18263,8.8
18275,17.94
18287,25.3
18299,30.77
18311,34.26
18323,35.76
18335,35.46
18346,33.79
18357,31.4
18369,28.99
18381,27.15
18393,26.19
18405,26.14
18417,26.86
18429,28.13
18441,29.68
18453,31.29
18465,32.68
18477,33.57
18489,33.62
18501,32.63
18513,30.6
18525,27.7
18536,24.17
18547,20.31
18559,16.31
18571,12.29
18583,8.29
18595,4.29
18607,0.27
18619,-3.83
18631,-8.0
18643,-12.13
18655,-16.03
18667,-19.51
18679,-22.41
18691,-24.82
18703,-27.08
18715,-29.71
18726,-33.19
18737,-37.74
18749,-43.15
18761,-48.65
18773,-53.19
18785,-55.59
18797,-54.89
18809,-50.54
18821,-42.61
18833,-31.7
18845,-18.83
18857,-5.24
18869,7.82
18881,19.28
18893,28.39
18905,34.82
18916,38.59
18927,40.01
18939,39.61
18951,37.91
18963,35.48
18975,32.83
18987,30.39
18999,28.49
19011,27.27
19023,26.7
19035,26.64
19047,26.84
19059,27.11
19071,27.31
19083,27.37
19095,27.18
19106,26.65
19117,25.6
19129,23.93
19141,21.66
19153,18.91
19165,15.87
19177,12.7
19189,9.48
19201,6.13
19213,2.59
19225,-1.23
19237,-5.33
19249,-9.68
19261,-14.15
19273,-18.6
19285,-22.82
19296,-26.54
19307,-29.59
19319,-31.93
19331,-33.83
19343,-35.76
19355,-38.28
19367,-41.79
19379,-46.27
19391,-51.15
19403,-55.44
19415,-57.97
19427,-57.76
19439,-54.23
19451,-47.4
19463,-37.83
19475,-26.47
19486,-14.44
19497,-2.82
19509,7.51
19521,15.98
19533,22.37
19545,26.68
19557,29.07
19569,29.84
19581,29.34
19593,28.04
19605,26.5
19617,25.28
19629,24.77
19641,25.08
19653,26.08
19665,27.38
19676,28.57
19687,29.37
19699,29.63
19711,29.39
19723,28.7
19735,27.59
19747,26.08
19759,24.16
19771,21.84
19783,19.15
19795,16.1
19807,12.72
19819,9.05
19831,5.26
19843,1.53
19855,-1.9
19866,-4.92
19877,-7.58
19889,-10.07
19901,-12.7
19913,-15.7
19925,-19.12
19937,-22.75
19949,-26.26
19961,-29.36
19973,-31.99
19985,-34.39
19997,-36.99
20009,-40.26
20021,-44.44
20033,-49.3
20045,-54.21
20056,-58.17
20067,-60.1
20079,-59.13
20091,-54.8
20103,-47.23
20115,-37.04
20127,-25.25
20139,-13.09
20151,-1.69
20163,8.07
20175,15.68
20187,21.09
20199,24.54
20211,26.42
20223,27.16
20235,27.06
20246,26.37
20257,25.29
20269,24.08
20281,23.0
20293,22.29
20305,22.06
20317,22.32
20329,22.97
20341,23.91
20353,25.02
20365,26.21
20377,27.31
20389,28.08
20401,28.24
20413,27.53
20425,25.79
20436,23.05
20447,19.45
20459,15.25
20471,10.72
20483,6.2
20495,1.98
20507,-1.7
20519,-4.78
20531,-7.37
20543,-9.74
20555,-12.19
20567,-14.93
20579,-18.02
20591,-21.34
20603,-24.63
20615,-27.57
20626,-29.88
20637,-31.49
20649,-32.57
20661,-33.55
20673,-35.03
20685,-37.47
20697,-41.01
20709,-45.23
20721,-49.25
20733,-51.89
20745,-52.1
20757,-49.19
20769,-43.11
20781,-34.26
20793,-23.49
20805,-11.81
20816,-0.26
20827,10.22
20839,18.89
20851,25.24
20863,29.11
20875,30.62
20887,30.16
20899,28.29
20911,25.6
20923,22.71
20935,20.07
20947,18.03
20959,16.69
20971,16.06
20983,15.99
20995,16.34
