seconds,BVP
2,-28.21
14,-32.01
26,-35.74
38,-39.61
50,-43.72
62,-48.03
74,-52.29
86,-56.22
98,-59.66
110,-62.56
121,-65.0
132,-67.01
144,-68.47
156,-69.17
168,-68.95
180,-67.83
192,-66.07
204,-64.02
216,-61.96
228,-59.91
240,-57.66
252,-54.94
264,-51.55
276,-47.55
288,-43.3
300,-39.3
311,-36.03
322,-33.76
334,-32.46
346,-31.86
358,-31.53
370,-31.05
382,-30.13
394,-28.71
406,-26.91
418,-24.99
430,-23.28
442,-22.08
454,-21.51
466,-21.55
478,-21.92
490,-22.23
501,-21.97
512,-20.71
524,-18.22
536,-14.5
548,-9.86
560,-4.8
572,0.12
584,4.39
596,7.7
608,9.98
620,11.41
632,12.27
644,12.83
656,13.29
668,13.73
680,14.18
691,14.62
702,15.11
714,15.66
726,16.29
738,16.94
750,17.5
762,17.86
774,17.96
786,17.83
798,17.55
810,17.21
822,16.86
834,16.48
846,15.99
858,15.38
870,14.69
881,14.01
892,13.45
904,13.07
916,12.84
928,12.65
940,12.37
952,11.92
964,11.29
976,10.52
988,9.71
1000,8.9
1012,8.09
1024,7.25
1036,6.38
1048,5.54
1060,4.76
1071,4.07
1082,3.44
1094,2.75
1106,1.88
1118,0.86
1130,-0.16
1142,-0.8
1154,-0.68
1166,0.46
1178,2.65
1190,5.64
1202,9.03
1214,12.42
1226,15.57
1238,18.34
1250,20.76
1261,22.88
1272,24.73
1284,26.27
1296,27.44
1308,28.23
1320,28.69
1332,29.01
1344,29.43
1356,30.17
1368,31.3
1380,32.7
1392,34.07
1404,35.04
1416,35.38
1428,35.06
1440,34.27
1451,33.25
1462,32.16
1474,30.97
1486,29.5
1498,27.6
1510,25.28
1522,22.7
1534,20.14
1546,17.83
1558,15.89
1570,14.28
1582,12.93
1594,11.73
1606,10.63
1618,9.58
1630,8.49
1641,7.24
1652,5.66
1664,3.64
1676,1.18
1688,-1.56
1700,-4.31
1712,-6.74
1724,-8.63
1736,-9.87
1748,-10.5
1760,-10.66
1772,-10.47
1784,-10.04
1796,-9.47
1808,-8.86
1820,-8.39
1831,-8.24
1842,-8.6
1854,-9.54
1866,-11.1
1878,-13.33
1890,-16.29
1902,-20.14
1914,-25.02
1926,-31.01
1938,-38.08
1950,-46.16
1962,-55.12
1974,-64.86
1986,-75.17
1998,-85.62
2010,-95.51
2021,-103.88
2032,-109.73
2044,-112.37
2056,-111.74
2068,-108.53
2080,-103.97
2092,-99.4
2104,-95.67
2116,-92.91
2128,-90.49
2140,-87.45
2152,-82.97
2164,-76.79
2176,-69.27
2188,-61.16
2200,-53.3
2211,-46.37
2222,-40.74
2234,-36.53
2246,-33.67
2258,-31.92
2270,-30.89
2282,-30.07
2294,-28.96
2306,-27.19
2318,-24.68
2330,-21.62
2342,-18.41
2354,-15.47
2366,-13.02
2378,-11.01
2390,-8.99
2401,-6.32
2412,-2.29
2424,3.55
2436,11.22
2448,20.21
2460,29.68
2472,38.68
2484,46.45
2496,52.58
2508,56.98
2520,59.82
2532,61.36
2544,61.88
2556,61.57
2568,60.65
2580,59.28
2591,57.59
2602,55.67
2614,53.48
2626,50.88
2638,47.77
2650,44.07
2662,39.86
2674,35.38
2686,30.98
2698,26.99
2710,23.6
2722,20.84
2734,18.55
2746,16.48
2758,14.4
2770,12.19
2781,9.87
2792,7.48
2804,5.06
2816,2.6
2828,0.09
2840,-2.39
2852,-4.59
2864,-6.15
2876,-6.66
2888,-5.85
2900,-3.74
2912,-0.62
2924,3.06
2936,6.81
2948,10.26
2960,13.2
2971,15.55
2982,17.29
2994,18.4
3006,18.94
3018,19.08
3030,19.2
3042,19.8
3054,21.36
3066,24.16
3078,28.16
3090,32.98
3102,38.07
3114,42.84
3126,46.91
3138,50.1
3150,52.43
3161,54.04
3172,55.08
3184,55.66
3196,55.84
3208,55.64
3220,55.05
3232,54.08
3244,52.75
3256,51.12
3268,49.28
3280,47.28
3292,45.09
3304,42.68
3316,39.99
3328,37.0
3340,33.73
3351,30.26
3362,26.67
3374,22.97
3386,19.09
3398,14.93
3410,10.45
3422,5.69
3434,0.81
3446,-3.95
3458,-8.4
3470,-12.44
3482,-16.1
3494,-19.56
3506,-23.0
3518,-26.54
3530,-30.24
3541,-34.06
3552,-37.91
3564,-41.67
3576,-45.16
3588,-48.15
3600,-50.39
3612,-51.65
3624,-51.84
3636,-50.97
3648,-49.21
3660,-46.71
3672,-43.62
3684,-39.96
3696,-35.72
3708,-30.98
3720,-25.91
3731,-20.85
3742,-16.2
3754,-12.33
3766,-9.47
3778,-7.65
3790,-6.7
3802,-6.33
3814,-6.26
3826,-6.3
3838,-6.38
3850,-6.56
3862,-6.87
3874,-7.26
3886,-7.62
3898,-7.79
3910,-7.61
3921,-7.04
3932,-6.05
3944,-4.61
3956,-2.66
3968,-0.13
3980,2.96
3992,6.45
4004,9.99
4016,13.17
4028,15.66
4040,17.25
4052,17.95
4064,17.88
4076,17.25
4088,16.24
4100,15.02
4111,13.67
4122,12.25
4134,10.77
4146,9.23
4158,7.61
4170,5.96
4182,4.35
4194,2.84
4206,1.45
4218,0.13
4230,-1.18
4242,-2.55
4254,-4.02
4266,-5.62
4278,-7.36
4290,-9.28
4301,-11.27
4312,-13.12
4324,-14.45
4336,-14.84
4348,-14.02
4360,-11.97
4372,-8.99
4384,-5.57
4396,-2.22
4408,0.73
4420,3.15
4432,5.1
4444,6.65
4456,7.86
4468,8.73
4480,9.26
4491,9.49
4502,9.56
4514,9.61
4526,9.77
4538,10.08
4550,10.54
4562,11.1
4574,11.7
4586,12.28
4598,12.77
4610,13.1
4622,13.27
4634,13.27
4646,13.19
4658,13.14
4670,13.19
4681,13.33
4692,13.48
4704,13.5
4716,13.27
4728,12.77
4740,12.08
4752,11.31
4764,10.59
4776,9.96
4788,9.4
4800,8.86
4812,8.29
4824,7.69
4836,7.08
4848,6.44
4860,5.76
4871,4.95
4882,3.96
4894,2.81
4906,1.61
4918,0.48
4930,-0.49
4942,-1.31
4954,-2.11
4966,-3.04
4978,-4.19
4990,-5.48
5002,-6.7
5014,-7.58
5026,-7.87
5038,-7.46
5050,-6.36
5061,-4.66
5072,-2.55
5084,-0.22
5096,2.11
5108,4.22
5120,5.93
5132,7.13
5144,7.81
5156,8.08
5168,8.05
5180,7.87
5192,7.66
5204,7.43
5216,7.25
5228,7.16
5240,7.19
5251,7.37
5262,7.69
5274,8.09
5286,8.51
5298,8.9
5310,9.23
5322,9.41
5334,9.36
5346,9.0
5358,8.35
5370,7.5
5382,6.66
5394,6.04
5406,5.74
5418,5.71
5430,5.73
5441,5.56
5452,5.07
5464,4.29
5476,3.36
5488,2.48
5500,1.77
5512,1.21
5524,0.71
5536,0.14
5548,-0.58
5560,-1.43
5572,-2.37
5584,-3.35
5596,-4.37
5608,-5.45
5620,-6.57
5631,-7.64
5642,-8.4
5654,-8.61
5666,-8.1
5678,-6.87
5690,-5.15
5702,-3.25
5714,-1.48
5726,0.01
5738,1.2
5750,2.19
5762,3.07
5774,3.83
5786,4.39
5798,4.65
5810,4.59
5821,4.34
5832,4.09
5844,4.04
5856,4.28
5868,4.77
5880,5.36
5892,5.88
5904,6.24
5916,6.47
5928,6.67
5940,7.03
5952,7.69
5964,8.69
5976,9.97
5988,11.36
6000,12.64
6011,13.6
6022,14.11
6034,14.17
6046,13.89
6058,13.5
6070,13.29
6082,13.52
6094,14.34
6106,15.73
6118,17.45
6130,19.07
6142,20.1
6154,20.14
6166,19.09
6178,17.32
6190,15.58
6201,14.85
6212,16.11
6224,20.07
6236,26.91
6248,36.28
6260,47.3
6272,58.74
6284,69.33
6296,78.0
6308,84.13
6320,87.51
6332,88.25
6344,86.52
6356,82.4
6368,75.91
6380,67.19
6391,56.75
6402,45.55
6414,34.91
6426,26.18
6438,20.38
6450,17.95
6462,18.74
6474,22.13
6486,27.28
6498,33.41
6510,39.81
6522,45.92
6534,51.21
6546,55.2
6558,57.6
6570,58.4
6581,57.79
6592,55.87
6604,52.28
6616,46.13
6628,36.42
6640,22.71
6652,5.76
6664,-12.52
6676,-29.64
6688,-43.65
6700,-53.88
6712,-60.96
6724,-66.18
6736,-70.54
6748,-74.15
6760,-76.45
6771,-76.87
6782,-75.6
6794,-73.67
6806,-72.54
6818,-73.29
6830,-75.91
6842,-79.33
6854,-81.89
6866,-82.09
6878,-79.3
6890,-74.02
6902,-67.63
6914,-61.78
6926,-57.71
6938,-55.86
6950,-55.81
6961,-56.6
6972,-57.2
6984,-56.86
6996,-55.32
7008,-52.67
7020,-49.14
7032,-44.92
7044,-40.01
7056,-34.36
7068,-27.99
7080,-21.17
7092,-14.4
7104,-8.3
7116,-3.35
7128,0.28
7140,2.81
7151,4.64
7162,6.19
7174,7.61
7186,8.74
7198,9.24
7210,8.87
7222,7.6
7234,5.72
7246,3.66
7258,1.82
7270,0.4
7282,-0.66
7294,-1.55
7306,-2.49
7318,-3.66
7330,-5.16
7341,-7.01
7352,-9.25
7364,-11.82
7376,-14.59
7388,-17.29
7400,-19.61
7412,-21.27
7424,-22.15
7436,-22.31
7448,-22.06
7460,-21.83
7472,-21.97
7484,-22.7
7496,-23.96
7508,-25.56
7520,-27.21
7531,-28.71
7542,-30.01
7554,-31.27
7566,-32.71
7578,-34.57
7590,-37.01
7602,-40.12
7614,-43.93
7626,-48.41
7638,-53.49
7650,-58.91
7662,-64.33
7674,-69.25
7686,-73.22
7698,-75.89
7710,-77.13
7721,-77.01
7732,-75.69
7744,-73.37
7756,-70.12
7768,-65.93
7780,-60.62
7792,-53.98
7804,-45.9
7816,-36.38
7828,-25.69
7840,-14.31
7852,-2.78
7864,8.31
7876,18.49
7888,27.41
7900,34.77
7911,40.32
7922,43.85
7934,45.31
7946,44.89
7958,43.18
7970,41.16
7982,39.93
7994,40.52
8006,43.47
8018,48.73
8030,55.63
8042,63.16
8054,70.3
8066,76.32
8078,80.93
8090,84.24
8101,86.63
8112,88.53
8124,90.35
8136,92.41
8148,94.97
8160,98.16
8172,102.02
8184,106.41
8196,111.13
8208,116.0
8220,121.1
8232,126.78
8244,133.41
8256,141.05
8268,149.02
8280,155.79
8291,159.3
8302,157.48
8314,148.87
8326,133.08
8338,110.86
8350,83.77
8362,53.85
8374,23.23
8386,-6.16
8398,-32.66
8410,-55.09
8422,-72.72
8434,-85.29
8446,-92.96
8458,-96.16
8470,-95.53
8481,-91.92
8492,-86.47
8504,-80.57
8516,-75.75
8528,-73.39
8540,-74.44
8552,-79.27
8564,-87.69
8576,-99.08
8588,-112.57
8600,-127.07
8612,-141.26
8624,-153.55
8636,-162.15
8648,-165.38
8660,-162.1
8671,-152.22
8682,-136.92
8694,-118.49
8706,-99.68
8718,-82.85
8730,-69.31
8742,-59.1
8754,-51.3
8766,-44.69
8778,-38.35
8790,-31.97
8802,-25.71
8814,-19.89
8826,-14.62
8838,-9.79
8850,-5.14
8861,-0.54
8872,3.92
8884,8.01
8896,11.47
8908,14.16
8920,16.14
8932,17.61
8944,18.83
8956,20.07
8968,21.45
8980,22.94
8992,24.37
9004,25.47
9016,26.04
9028,26.04
9040,25.65
9051,25.2
9062,24.97
9074,25.06
9086,25.26
9098,25.15
9110,24.29
9122,22.45
9134,19.73
9146,16.57
9158,13.54
9170,11.13
9182,9.58
9194,8.8
9206,8.5
9218,8.26
9230,7.73
9241,6.65
9252,4.98
9264,2.87
9276,0.59
9288,-1.57
9300,-3.42
9312,-4.9
9324,-6.05
9336,-6.88
9348,-7.33
9360,-7.22
9372,-6.37
9384,-4.71
9396,-2.4
9408,0.22
9420,2.75
9431,4.87
9442,6.36
9454,7.15
9466,7.25
9478,6.75
9490,5.82
9502,4.74
9514,3.84
9526,3.33
9538,3.3
9550,3.65
9562,4.17
9574,4.65
9586,4.92
9598,4.91
9610,4.6
9621,4.01
9632,3.16
9644,2.16
9656,1.15
9668,0.29
9680,-0.34
9692,-0.77
9704,-1.17
9716,-1.78
9728,-2.77
9740,-4.21
9752,-6.03
9764,-8.05
9776,-10.08
9788,-11.96
9800,-13.59
9811,-14.98
9822,-16.19
9834,-17.35
9846,-18.64
9858,-20.22
9870,-22.23
9882,-24.69
9894,-27.46
9906,-30.17
9918,-32.31
9930,-33.33
9942,-32.85
9954,-30.8
9966,-27.44
9978,-23.34
9990,-19.07
10001,-15.04
10012,-11.41
10024,-8.11
10036,-4.99
10048,-1.94
10060,0.97
10072,3.61
10084,5.83
10096,7.56
10108,8.84
10120,9.79
10132,10.56
10144,11.27
10156,11.99
10168,12.75
10180,13.55
10191,14.36
10202,15.14
10214,15.84
10226,16.39
10238,16.75
10250,16.91
10262,16.88
10274,16.71
10286,16.42
10298,16.02
10310,15.48
10322,14.78
10334,13.93
10346,12.96
10358,11.91
10370,10.81
10381,9.68
10392,8.54
10404,7.42
10416,6.33
10428,5.27
10440,4.21
10452,3.09
10464,1.85
10476,0.5
10488,-0.89
10500,-2.23
10512,-3.44
10524,-4.48
10536,-5.42
10548,-6.4
10560,-7.59
10571,-9.08
10582,-10.78
10594,-12.4
10606,-13.47
10618,-13.53
10630,-12.36
10642,-10.02
10654,-6.93
10666,-3.59
10678,-0.42
10690,2.4
10702,4.94
10714,7.37
10726,9.79
10738,12.14
10750,14.26
10761,15.99
10772,17.25
10784,18.16
10796,18.89
10808,19.69
10820,20.68
10832,21.89
10844,23.23
10856,24.48
10868,25.43
10880,25.91
10892,25.88
10904,25.46
10916,24.86
10928,24.34
10940,24.03
10951,23.94
10962,23.93
10974,23.87
10986,23.72
10998,23.57
11010,23.62
11022,23.97
11034,24.53
11046,25.0
11058,24.98
11070,24.19
11082,22.53
11094,20.18
11106,17.49
11118,14.84
11130,12.58
11141,10.97
11152,10.19
11164,10.28
11176,11.13
11188,12.44
11200,13.85
11212,15.03
11224,15.8
11236,16.23
11248,16.59
11260,17.27
11272,18.62
11284,20.88
11296,24.11
11308,28.15
11320,32.63
11331,37.02
11342,40.74
11354,43.33
11366,44.56
11378,44.52
11390,43.49
11402,41.86
11414,39.9
11426,37.77
11438,35.52
11450,33.22
11462,31.04
11474,29.22
11486,28.01
11498,27.52
11510,27.65
11521,28.15
11532,28.73
11544,29.24
11556,29.74
11568,30.36
11580,31.26
11592,32.35
11604,33.31
11616,33.66
11628,32.93
11640,30.92
11652,27.74
11664,23.78
11676,19.52
11688,15.31
11700,11.28
11711,7.36
11722,3.36
11734,-0.86
11746,-5.29
11758,-9.79
11770,-14.14
11782,-18.14
11794,-21.71
11806,-24.83
11818,-27.62
11830,-30.22
11842,-32.81
11854,-35.54
11866,-38.44
11878,-41.38
11890,-44.02
11901,-45.93
11912,-46.67
11924,-46.0
11936,-43.95
11948,-40.87
11960,-37.26
11972,-33.66
11984,-30.44
11996,-27.78
12008,-25.64
12020,-23.9
12032,-22.41
12044,-21.05
12056,-19.77
12068,-18.56
12080,-17.42
12091,-16.35
12102,-15.34
12114,-14.39
12126,-13.52
12138,-12.76
12150,-12.15
12162,-11.75
12174,-11.58
12186,-11.66
12198,-12.0
12210,-12.57
12222,-13.33
12234,-14.22
12246,-15.17
12258,-16.12
12270,-17.04
12281,-17.93
12292,-18.77
12304,-19.57
12316,-20.26
12328,-20.81
12340,-21.16
12352,-21.24
12364,-21.03
12376,-20.55
12388,-19.85
12400,-19.05
12412,-18.3
12424,-17.74
12436,-17.51
12448,-17.66
12460,-18.12
12471,-18.73
12482,-19.25
12494,-19.43
12506,-19.02
12518,-17.9
12530,-16.06
12542,-13.6
12554,-10.73
12566,-7.72
12578,-4.85
12590,-2.32
12602,-0.25
12614,1.36
12626,2.6
12638,3.54
12650,4.27
12661,4.83
12672,5.19
12684,5.39
12696,5.52
12708,5.74
12720,6.25
12732,7.21
12744,8.61
12756,10.33
12768,12.07
12780,13.53
12792,14.47
12804,14.8
12816,14.58
12828,13.97
12840,13.16
12851,12.26
12862,11.31
12874,10.34
12886,9.34
12898,8.34
12910,7.38
12922,6.44
12934,5.48
12946,4.41
12958,3.17
12970,1.78
12982,0.3
12994,-1.21
13006,-2.68
13018,-4.1
13030,-5.53
13041,-7.03
13052,-8.62
13064,-10.26
13076,-11.79
13088,-12.99
13100,-13.6
13112,-13.42
13124,-12.38
13136,-10.61
13148,-8.37
13160,-6.02
13172,-3.86
13184,-2.06
13196,-0.62
13208,0.53
13220,1.49
13231,2.31
13242,2.97
13254,3.44
13266,3.74
13278,3.95
13290,4.14
13302,4.35
13314,4.51
13326,4.51
13338,4.26
13350,3.72
13362,2.95
13374,2.09
13386,1.28
13398,0.59
13410,0.03
13421,-0.51
13432,-1.16
13444,-2.06
13456,-3.29
13468,-4.84
13480,-6.57
13492,-8.3
13504,-9.86
13516,-11.15
13528,-12.17
13540,-13.01
13552,-13.76
13564,-14.49
13576,-15.17
13588,-15.77
13600,-16.22
13611,-16.53
13622,-16.66
13634,-16.6
13646,-16.35
13658,-15.92
13670,-15.32
13682,-14.52
13694,-13.37
13706,-11.62
13718,-8.98
13730,-5.26
13742,-0.54
13754,4.89
13766,10.55
13778,16.02
13790,21.01
13801,25.44
13812,29.38
13824,32.86
13836,35.86
13848,38.27
13860,39.96
13872,40.89
13884,41.1
13896,40.73
13908,39.96
13920,38.97
13932,37.89
13944,36.75
13956,35.49
13968,34.01
13980,32.23
13991,30.09
14002,27.62
14014,24.86
14026,21.86
14038,18.62
14050,15.16
14062,11.52
14074,7.82
14086,4.19
14098,0.71
14110,-2.64
14122,-5.97
14134,-9.43
14146,-13.08
14158,-16.86
14170,-20.6
14181,-24.05
14192,-27.01
14204,-29.33
14216,-30.94
14228,-31.84
14240,-32.08
14252,-31.76
14264,-31.05
14276,-30.17
14288,-29.32
14300,-28.63
14312,-28.08
14324,-27.51
14336,-26.64
14348,-25.12
14360,-22.69
14371,-19.28
14382,-15.04
14394,-10.34
14406,-5.61
14418,-1.26
14430,2.48
14442,5.58
14454,8.1
14466,10.14
14478,11.75
14490,12.94
14502,13.73
14514,14.19
14526,14.47
14538,14.71
14550,14.99
14561,15.22
14572,15.27
14584,14.94
14596,14.16
14608,12.96
14620,11.46
14632,9.78
14644,7.96
14656,5.91
14668,3.55
14680,0.82
14692,-2.22
14704,-5.4
14716,-8.53
14728,-11.54
14740,-14.49
14751,-17.53
14762,-20.85
14774,-24.52
14786,-28.49
14798,-32.64
14810,-36.82
14822,-40.94
14834,-44.96
14846,-48.84
14858,-52.61
14870,-56.38
14882,-60.32
14894,-64.63
14906,-69.43
14918,-74.59
14930,-79.77
14941,-84.44
14952,-88.05
14964,-90.23
14976,-90.92
14988,-90.3
15000,-88.7
15012,-86.5
15024,-83.99
15036,-81.47
15048,-79.22
15060,-77.58
15072,-76.84
15084,-77.14
15096,-78.28
15108,-79.73
15120,-80.69
15131,-80.28
15142,-77.84
15154,-73.07
15166,-66.15
15178,-57.68
15190,-48.45
15202,-39.16
15214,-30.29
15226,-21.97
15238,-14.1
15250,-6.54
15262,0.79
15274,7.79
15286,14.28
15298,20.13
15310,25.31
15321,29.94
15332,34.13
15344,37.92
15356,41.23
15368,43.87
15380,45.73
15392,46.83
15404,47.35
15416,47.59
15428,47.82
15440,48.2
15452,48.73
15464,49.26
15476,49.56
15488,49.38
15500,48.58
15511,47.2
15522,45.51
15534,43.96
15546,43.04
15558,43.13
15570,44.38
15582,46.7
15594,49.76
15606,53.2
15618,56.72
15630,60.13
15642,63.33
15654,66.23
15666,68.68
15678,70.53
15690,71.69
15701,72.17
15712,72.17
15724,71.95
15736,71.73
15748,71.59
15760,71.37
15772,70.69
15784,69.18
15796,66.56
15808,62.78
15820,58.08
15832,52.86
15844,47.57
15856,42.57
15868,38.08
15880,34.18
15891,30.84
15902,27.97
15914,25.46
15926,23.19
15938,21.07
15950,19.07
15962,17.27
15974,15.85
15986,15.01
15998,14.89
16010,15.51
16022,16.66
16034,18.03
16046,19.26
16058,20.1
16070,20.46
16081,20.45
16092,20.27
16104,20.14
16116,20.24
16128,20.69
16140,21.59
16152,23.04
16164,25.13
16176,27.92
16188,31.38
16200,35.35
16212,39.55
16224,43.66
16236,47.36
16248,50.42
16260,52.71
16271,54.19
16282,54.88
16294,54.84
16306,54.22
16318,53.27
16330,52.39
16342,52.01
16354,52.4
16366,53.45
16378,54.53
16390,54.56
16402,52.39
16414,47.29
16426,39.29
16438,29.27
16450,18.64
16461,8.85
16472,0.81
16484,-5.29
16496,-9.9
16508,-13.72
16520,-17.37
16532,-21.16
16544,-25.14
16556,-29.26
16568,-33.48
16580,-37.88
16592,-42.52
16604,-47.43
16616,-52.5
16628,-57.55
16640,-62.45
16651,-67.11
16662,-71.51
16674,-75.57
16686,-79.16
16698,-82.08
16710,-84.22
16722,-85.56
16734,-86.3
16746,-86.67
16758,-86.86
16770,-86.99
16782,-87.07
16794,-87.08
16806,-86.99
16818,-86.75
16830,-86.24
16841,-85.2
16852,-83.27
16864,-80.1
16876,-75.51
16888,-69.58
16900,-62.61
16912,-55.05
16924,-47.28
16936,-39.59
16948,-32.12
16960,-24.95
16972,-18.14
16984,-11.81
16996,-6.11
17008,-1.18
17020,2.94
17031,6.32
17042,9.12
17054,11.58
17066,13.88
17078,16.09
17090,18.13
17102,19.86
17114,21.12
17126,21.81
17138,21.92
17150,21.52
17162,20.78
17174,19.9
17186,19.1
17198,18.58
17210,18.45
17221,18.65
17232,18.99
17244,19.12
17256,18.68
17268,17.4
17280,15.18
17292,12.12
17304,8.47
17316,4.46
17328,0.29
17340,-3.95
17352,-8.16
17364,-12.18
17376,-15.72
17388,-18.42
17400,-19.94
17411,-20.09
17422,-18.92
17434,-16.68
17446,-13.79
17458,-10.6
17470,-7.39
17482,-4.23
17494,-1.14
17506,1.91
17518,4.87
17530,7.63
17542,10.1
17554,12.26
17566,14.23
17578,16.14
17590,18.13
17601,20.25
17612,22.43
17624,24.56
17636,26.59
17648,28.54
17660,30.6
17672,33.07
17684,36.26
17696,40.41
17708,45.54
17720,51.46
17732,57.78
17744,63.98
17756,69.6
17768,74.32
17780,77.99
17791,80.54
17802,81.9
17814,81.94
17826,80.56
17838,77.79
17850,73.89
17862,69.3
17874,64.47
17886,59.65
17898,54.74
17910,49.39
17922,43.17
17934,35.78
17946,27.22
17958,17.75
17970,7.79
17981,-2.24
17992,-11.99
18004,-21.15
18016,-29.42
18028,-36.47
18040,-41.96
18052,-45.64
18064,-47.54
18076,-47.92
18088,-47.31
18100,-46.35
18112,-45.59
18124,-45.39
18136,-45.82
18148,-46.73
18160,-47.71
18171,-48.29
18182,-47.94
18194,-46.24
18206,-42.95
18218,-38.11
18230,-32.02
18242,-25.19
18254,-18.24
18266,-11.73
18278,-6.07
18290,-1.5
18302,1.87
18314,4.08
18326,5.25
18338,5.55
18350,5.25
18361,4.62
18372,3.91
18384,3.24
18396,2.64
18408,2.06
18420,1.46
18432,0.86
18444,0.33
18456,-0.08
18468,-0.39
18480,-0.79
18492,-1.57
18504,-3.0
18516,-5.16
18528,-7.88
18540,-10.82
18551,-13.56
18562,-15.79
18574,-17.46
18586,-18.71
18598,-19.82
18610,-21.03
18622,-22.49
18634,-24.33
18646,-26.63
18658,-29.52
18670,-33.15
18682,-37.59
18694,-42.78
18706,-48.45
18718,-54.19
18730,-59.49
18741,-63.78
18752,-66.49
18764,-67.14
18776,-65.39
18788,-61.12
18800,-54.56
18812,-46.28
18824,-37.09
18836,-27.92
18848,-19.55
18860,-12.48
18872,-6.82
18884,-2.4
18896,1.12
18908,4.11
18920,6.89
18931,9.7
18942,12.74
18954,16.13
18966,19.89
18978,23.92
18990,28.02
19002,31.93
19014,35.45
19026,38.49
19038,41.05
19050,43.24
19062,45.15
19074,46.89
19086,48.52
19098,50.07
19110,51.51
19121,52.74
19132,53.58
19144,53.81
19156,53.26
19168,51.86
19180,49.68
19192,46.9
19204,43.71
19216,40.22
19228,36.46
19240,32.37
19252,27.88
19264,22.98
19276,17.72
19288,12.15
19300,6.31
19311,0.15
19322,-6.36
19334,-13.12
19346,-19.82
19358,-25.97
19370,-30.97
19382,-34.37
19394,-35.94
19406,-35.8
19418,-34.27
19430,-31.84
19442,-28.94
19454,-26.0
19466,-23.33
19478,-21.19
19490,-19.81
19501,-19.29
19512,-19.61
19524,-20.63
19536,-22.06
19548,-23.64
19560,-25.13
19572,-26.45
19584,-27.66
19596,-28.95
19608,-30.5
19620,-32.42
19632,-34.72
19644,-37.22
19656,-39.71
19668,-41.92
19680,-43.62
19691,-44.69
19702,-45.08
19714,-44.84
19726,-44.03
19738,-42.7
19750,-40.81
19762,-38.26
19774,-34.96
19786,-30.87
19798,-26.04
19810,-20.59
19822,-14.55
19834,-7.85
19846,-0.32
19858,8.14
19870,17.36
19881,26.92
19892,36.17
19904,44.53
19916,51.65
19928,57.5
19940,62.2
19952,65.89
19964,68.54
19976,70.02
19988,70.26
20000,69.41
20012,67.89
20024,66.26
20036,65.02
20048,64.46
20060,64.59
20071,65.21
20082,66.05
20094,66.8
20106,67.16
20118,66.89
20130,65.8
20142,63.78
20154,60.88
20166,57.2
20178,52.91
20190,48.16
20202,43.07
20214,37.79
20226,32.52
20238,27.48
20250,22.89
20261,18.87
20272,15.38
20284,12.27
20296,9.36
20308,6.55
20320,3.88
20332,1.44
20344,-0.67
20356,-2.51
20368,-4.22
20380,-6.06
20392,-8.27
20404,-10.93
20416,-14.01
20428,-17.27
20440,-20.47
20451,-23.41
20462,-26.05
20474,-28.51
20486,-31.07
20498,-33.97
20510,-37.31
20522,-40.98
20534,-44.61
20546,-47.79
20558,-50.24
20570,-51.9
20582,-53.02
20594,-53.93
20606,-54.92
20618,-56.09
20630,-57.36
20641,-58.6
20652,-59.7
20664,-60.68
20676,-61.58
20688,-62.42
20700,-63.15
20712,-63.7
20724,-64.02
20736,-64.08
20748,-63.85
20760,-63.25
20772,-62.07
20784,-60.07
20796,-57.03
20808,-52.92
20820,-47.88
20831,-42.21
20842,-36.25
20854,-30.29
20866,-24.54
20878,-19.05
20890,-13.86
20902,-8.96
20914,-4.33
20926,-0.01
20938,3.99
20950,7.66
20962,11.05
20974,14.27
20986,17.49
20998,20.85
