seconds,BVP
9,-42.82
21,-38.28
33,-32.13
45,-25.06
57,-17.69
69,-10.43
81,-3.42
92,3.39
103,10.01
115,16.32
127,22.08
139,26.98
151,30.77
163,33.41
175,34.98
187,35.69
199,35.75
211,35.34
223,34.52
235,33.39
247,32.05
259,30.65
271,29.42
282,28.56
293,28.16
305,28.13
317,28.15
329,27.88
341,27.04
353,25.55
365,23.59
377,21.53
389,19.7
401,18.35
413,17.46
425,16.81
437,16.1
449,15.01
461,13.35
472,11.08
483,8.27
495,5.08
507,1.64
519,-1.93
531,-5.55
543,-9.14
555,-12.7
567,-16.32
579,-20.19
591,-24.51
603,-29.44
615,-34.83
627,-40.19
639,-44.73
651,-47.57
662,-48.02
673,-45.93
685,-41.66
697,-35.98
709,-29.71
721,-23.45
733,-17.44
745,-11.63
757,-5.87
769,-0.12
781,5.46
793,10.48
805,14.54
817,17.35
829,18.9
841,19.46
852,19.53
863,19.63
875,20.15
887,21.23
899,22.72
911,24.22
923,25.38
935,25.96
947,25.99
959,25.7
971,25.26
983,24.77
995,24.13
1007,23.13
1019,21.64
1031,19.68
1042,17.48
1053,15.36
1065,13.54
1077,12.03
1089,10.66
1101,9.18
1113,7.33
1125,5.03
1137,2.35
1149,-0.57
1161,-3.52
1173,-6.32
1185,-8.93
1197,-11.44
1209,-14.07
1221,-17.18
1232,-21.11
1243,-26.12
1255,-32.21
1267,-39.03
1279,-45.87
1291,-51.85
1303,-56.05
1315,-57.85
1327,-57.01
1339,-53.74
1351,-48.58
1363,-42.23
1375,-35.29
1387,-28.09
1399,-20.75
1411,-13.12
1422,-5.09
1433,3.39
1445,12.17
1457,20.94
1469,29.34
1481,37.05
1493,43.85
1505,49.62
1517,54.36
1529,58.12
1541,60.95
1553,62.89
1565,63.97
1577,64.2
1589,63.57
1601,62.17
1612,60.18
1623,57.82
1635,55.35
1647,52.91
1659,50.52
1671,48.12
1683,45.59
1695,42.86
1707,39.92
1719,36.74
1731,33.31
1743,29.55
1755,25.31
1767,20.45
1779,14.96
1791,8.97
1802,2.79
1813,-3.21
1825,-8.79
1837,-13.88
1849,-18.56
1861,-23.03
1873,-27.51
1885,-32.09
1897,-36.88
1909,-41.9
1921,-47.17
1933,-52.66
1945,-58.33
1957,-64.03
1969,-69.63
1981,-75.05
1992,-80.18
2003,-84.87
2015,-88.76
2027,-91.22
2039,-91.5
2051,-89.01
2063,-83.51
2075,-75.27
2087,-65.07
2099,-53.96
2111,-43.02
2123,-33.08
2135,-24.63
2147,-17.89
2159,-12.73
2171,-8.72
2182,-5.11
2193,-0.88
2205,5.0
2217,13.23
2229,23.86
2241,36.11
2253,48.57
2265,59.68
2277,68.31
2289,74.13
2301,77.66
2313,79.94
2325,81.9
2337,84.06
2349,86.38
2361,88.46
2372,89.86
2383,90.29
2395,89.74
2407,88.37
2419,86.35
2431,83.77
2443,80.63
2455,76.91
2467,72.55
2479,67.58
2491,62.04
2503,56.13
2515,50.11
2527,44.3
2539,38.99
2551,34.36
2562,30.39
2573,26.83
2585,23.33
2597,19.57
2609,15.36
2621,10.78
2633,6.08
2645,1.61
2657,-2.34
2669,-5.62
2681,-8.34
2693,-10.8
2705,-13.47
2717,-16.74
2729,-20.77
2741,-25.41
2752,-30.26
2763,-34.71
2775,-38.21
2787,-40.37
2799,-41.06
2811,-40.42
2823,-38.69
2835,-36.22
2847,-33.29
2859,-30.18
2871,-27.06
2883,-24.1
2895,-21.37
2907,-18.97
2919,-17.09
2931,-15.96
2942,-15.84
2953,-16.87
2965,-18.98
2977,-21.78
2989,-24.67
3001,-26.94
3013,-27.93
3025,-27.38
3037,-25.38
3049,-22.4
3061,-19.17
3073,-16.36
3085,-14.51
3097,-13.89
3109,-14.54
3121,-16.28
3132,-18.92
3143,-22.22
3155,-25.89
3167,-29.57
3179,-32.81
3191,-35.13
3203,-36.24
3215,-36.13
3227,-35.03
3239,-33.36
3251,-31.55
3263,-29.88
3275,-28.54
3287,-27.58
3299,-27.06
3311,-27.09
3322,-27.76
3333,-29.17
3345,-31.38
3357,-34.37
3369,-38.17
3381,-42.77
3393,-48.04
3405,-53.68
3417,-59.09
3429,-63.52
3441,-66.12
3453,-66.32
3465,-63.9
3477,-59.11
3489,-52.53
3501,-44.82
3512,-36.49
3523,-27.91
3535,-19.3
3547,-10.9
3559,-3.01
3571,4.02
3583,9.94
3595,14.68
3607,18.43
3619,21.6
3631,24.64
3643,27.87
3655,31.32
3667,34.79
3679,37.9
3691,40.31
3702,41.82
3713,42.54
3725,42.67
3737,42.55
3749,42.38
3761,42.16
3773,41.74
3785,40.94
3797,39.62
3809,37.72
3821,35.29
3833,32.42
3845,29.2
3857,25.67
3869,21.79
3881,17.54
3892,12.95
3903,8.09
3915,3.17
3927,-1.63
3939,-6.14
3951,-10.23
3963,-13.88
3975,-17.13
3987,-20.07
3999,-22.88
4011,-25.77
4023,-28.98
4035,-32.71
4047,-36.99
4059,-41.57
4071,-45.92
4082,-49.32
4093,-50.97
4105,-50.35
4117,-47.32
4129,-42.22
4141,-35.79
4153,-28.87
4165,-22.2
4177,-16.17
4189,-10.8
4201,-5.88
4213,-1.2
4225,3.36
4237,7.69
4249,11.6
4261,14.94
4272,17.75
4283,20.24
4295,22.73
4307,25.45
4319,28.43
4331,31.56
4343,34.63
4355,37.45
4367,39.96
4379,42.22
4391,44.29
4403,46.11
4415,47.54
4427,48.37
4439,48.49
4451,47.92
4462,46.77
4473,45.21
4485,43.31
4497,41.03
4509,38.23
4521,34.85
4533,30.96
4545,26.83
4557,22.81
4569,19.24
4581,16.29
4593,13.87
4605,11.7
4617,9.45
4629,6.79
4641,3.59
4652,-0.16
4663,-4.25
4675,-8.48
4687,-12.63
4699,-16.58
4711,-20.18
4723,-23.28
4735,-25.68
4747,-27.23
4759,-27.88
4771,-27.68
4783,-26.77
4795,-25.17
4807,-22.76
4819,-19.22
4831,-14.15
4842,-7.33
4853,1.09
4865,10.58
4877,20.33
4889,29.53
4901,37.62
4913,44.39
4925,49.85
4937,54.13
4949,57.32
4961,59.38
4973,60.27
4985,60.05
4997,58.87
5009,57.0
5021,54.76
5032,52.27
5043,49.57
5055,46.56
5067,43.15
5079,39.33
5091,35.25
5103,31.21
5115,27.51
5127,24.51
5139,22.35
5151,21.03
5163,20.33
5175,19.9
5187,19.34
5199,18.34
5211,16.75
5222,14.62
5233,12.15
5245,9.59
5257,7.12
5269,4.8
5281,2.48
5293,0.02
5305,-2.75
5317,-5.87
5329,-9.27
5341,-12.8
5353,-16.39
5365,-20.09
5377,-23.94
5389,-27.96
5401,-31.96
5412,-35.6
5423,-38.55
5435,-40.55
5447,-41.56
5459,-41.69
5471,-41.12
5483,-39.88
5495,-37.98
5507,-35.35
5519,-32.04
5531,-28.24
5543,-24.23
5555,-20.28
5567,-16.59
5579,-13.26
5591,-10.29
5602,-7.7
5613,-5.55
5625,-3.87
5637,-2.61
5649,-1.59
5661,-0.58
5673,0.6
5685,1.99
5697,3.47
5709,4.85
5721,5.95
5733,6.74
5745,7.24
5757,7.53
5769,7.67
5781,7.63
5792,7.33
5803,6.74
5815,5.83
5827,4.66
5839,3.32
5851,1.9
5863,0.45
5875,-0.98
5887,-2.41
5899,-3.83
5911,-5.28
5923,-6.8
5935,-8.38
5947,-10.01
5959,-11.74
5971,-13.62
5982,-15.76
5993,-18.27
6005,-21.16
6017,-24.4
6029,-27.89
6041,-31.54
6053,-35.22
6065,-38.84
6077,-42.17
6089,-44.9
6101,-46.67
6113,-47.15
6125,-46.17
6137,-43.83
6149,-40.41
6161,-36.29
6172,-31.76
6183,-27.04
6195,-22.21
6207,-17.39
6219,-12.73
6231,-8.43
6243,-4.67
6255,-1.53
6267,1.08
6279,3.4
6291,5.72
6303,8.25
6315,11.12
6327,14.4
6339,18.1
6351,22.28
6362,26.93
6373,31.97
6385,37.18
6397,42.27
6409,46.84
6421,50.66
6433,53.62
6445,55.76
6457,57.16
6469,57.88
6481,58.06
6493,57.83
6505,57.46
6517,57.25
6529,57.47
6541,58.31
6552,59.75
6563,61.6
6575,63.57
6587,65.39
6599,66.72
6611,67.38
6623,67.25
6635,66.34
6647,64.8
6659,62.8
6671,60.43
6683,57.64
6695,54.2
6707,49.86
6719,44.52
6731,38.31
6742,31.49
6753,24.26
6765,16.49
6777,7.67
6789,-3.12
6801,-17.06
6813,-35.23
6825,-58.32
6837,-86.42
6849,-118.88
6861,-154.23
6873,-190.4
6885,-224.87
6897,-255.02
6909,-278.58
6921,-293.98
6932,-300.47
6943,-298.23
6955,-288.16
6967,-271.65
6979,-250.29
6991,-225.61
7003,-199.0
7015,-171.7
7027,-144.82
7039,-119.34
7051,-96.02
7063,-75.27
7075,-57.05
7087,-40.99
7099,-26.48
7111,-12.95
7122,-0.11
7133,12.04
7145,23.31
7157,33.49
7169,42.59
7181,50.87
7193,58.67
7205,66.21
7217,73.43
7229,79.95
7241,85.35
7253,89.37
7265,92.09
7277,93.86
7289,95.22
7301,96.52
7312,97.89
7323,99.13
7335,99.92
7347,99.93
7359,99.01
7371,97.2
7383,94.6
7395,91.4
7407,87.75
7419,83.75
7431,79.47
7443,74.97
7455,70.32
7467,65.57
7479,60.74
7491,55.8
7502,50.76
7513,45.67
7525,40.78
7537,36.4
7549,32.78
7561,29.93
7573,27.43
7585,24.45
7597,19.91
7609,12.88
7621,2.92
7633,-9.55
7645,-23.36
7657,-36.97
7669,-49.01
7681,-58.86
7692,-66.84
7703,-74.17
7715,-82.36
7727,-92.68
7739,-105.58
7751,-120.47
7763,-135.74
7775,-149.0
7787,-157.64
7799,-159.46
7811,-153.34
7823,-139.81
7835,-120.97
7847,-99.91
7859,-79.7
7871,-62.42
7882,-48.62
7893,-37.57
7905,-27.92
7917,-18.61
7929,-9.29
7941,-0.27
7953,7.93
7965,15.1
7977,21.44
7989,27.38
8001,33.14
8013,38.59
8025,43.16
8037,46.29
8049,47.66
8061,47.41
8072,46.07
8083,44.25
8095,42.27
8107,40.01
8119,37.11
8131,33.31
8143,28.74
8155,23.91
8167,19.5
8179,15.95
8191,13.41
8203,11.68
8215,10.55
8227,9.89
8239,9.76
8251,10.2
8262,11.05
8273,11.9
8285,12.2
8297,11.43
8309,9.39
8321,6.13
8333,1.88
8345,-3.04
8357,-8.23
8369,-13.09
8381,-16.87
8393,-18.8
8405,-18.37
8417,-15.48
8429,-10.53
8441,-4.23
8452,2.62
8463,9.37
8475,15.72
8487,21.67
8499,27.33
8511,32.72
8523,37.7
8535,41.87
8547,44.8
8559,46.08
8571,45.47
8583,42.88
8595,38.28
8607,31.67
8619,23.06
8631,12.69
8642,1.21
8653,-10.32
8665,-20.61
8677,-28.54
8689,-33.46
8701,-35.36
8713,-34.71
8725,-32.14
8737,-28.2
8749,-23.25
8761,-17.62
8773,-11.74
8785,-6.17
8797,-1.45
8809,2.08
8821,4.49
8832,6.17
8843,7.71
8855,9.55
8867,11.83
8879,14.38
8891,16.77
8903,18.59
8915,19.53
8927,19.49
8939,18.53
8951,16.81
8963,14.47
8975,11.62
8987,8.39
8999,4.92
9011,1.36
9022,-2.15
9033,-5.55
9045,-8.86
9057,-12.18
9069,-15.54
9081,-18.78
9093,-21.49
9105,-23.12
9117,-23.18
9129,-21.49
9141,-18.23
9153,-13.95
9165,-9.29
9177,-4.67
9189,-0.23
9201,4.19
9212,8.77
9223,13.6
9235,18.47
9247,23.03
9259,26.98
9271,30.16
9283,32.76
9295,35.02
9307,37.23
9319,39.38
9331,41.32
9343,42.82
9355,43.73
9367,44.16
9379,44.36
9391,44.57
9402,44.85
9413,45.07
9425,44.89
9437,44.0
9449,42.3
9461,39.84
9473,36.87
9485,33.68
9497,30.55
9509,27.57
9521,24.86
9533,22.39
9545,20.13
9557,18.02
9569,16.02
9581,14.09
9592,12.15
9603,10.16
9615,8.04
9627,5.79
9639,3.41
9651,0.88
9663,-1.83
9675,-4.83
9687,-8.23
9699,-12.13
9711,-16.47
9723,-20.96
9735,-25.07
9747,-28.14
9759,-29.52
9771,-28.75
9782,-25.87
9793,-21.31
9805,-15.8
9817,-10.14
9829,-4.91
9841,-0.38
9853,3.46
9865,6.75
9877,9.65
9889,12.17
9901,14.28
9913,15.95
9925,17.22
9937,18.21
9949,19.13
9961,20.14
9972,21.33
9983,22.69
9995,24.03
10007,25.1
10019,25.66
10031,25.59
10043,24.98
10055,24.1
10067,23.26
10079,22.68
10091,22.34
10103,21.99
10115,21.22
10127,19.72
10139,17.37
10151,14.38
10162,11.13
10173,8.05
10185,5.39
10197,3.18
10209,1.21
10221,-0.81
10233,-3.12
10245,-5.89
10257,-9.2
10269,-13.03
10281,-17.27
10293,-21.7
10305,-25.9
10317,-29.35
10329,-31.44
10341,-31.67
10352,-29.85
10363,-26.1
10375,-20.88
10387,-14.82
10399,-8.55
10411,-2.6
10423,2.68
10435,7.08
10447,10.55
10459,13.09
10471,14.83
10483,15.96
10495,16.74
10507,17.35
10519,17.9
10531,18.42
10542,18.9
10553,19.39
10565,19.9
10577,20.51
10589,21.19
10601,21.86
10613,22.38
10625,22.61
10637,22.45
10649,21.81
10661,20.62
10673,18.78
10685,16.26
10697,13.1
10709,9.48
10721,5.64
10732,1.84
10743,-1.8
10755,-5.41
10767,-9.18
10779,-13.29
10791,-17.75
10803,-22.29
10815,-26.41
10827,-29.51
10839,-31.01
10851,-30.55
10863,-28.14
10875,-24.09
10887,-18.91
10899,-13.19
10911,-7.43
10922,-1.95
10933,3.05
10945,7.44
10957,11.08
10969,13.83
10981,15.6
10993,16.41
11005,16.34
11017,15.58
11029,14.35
11041,12.84
11053,11.22
11065,9.64
11077,8.24
11089,7.11
11101,6.28
11112,5.66
11123,5.14
11135,4.51
11147,3.59
11159,2.28
11171,0.58
11183,-1.45
11195,-3.71
11207,-6.16
11219,-8.88
11231,-11.94
11243,-15.39
11255,-19.27
11267,-23.43
11279,-27.65
11291,-31.63
11302,-34.89
11313,-36.92
11325,-37.23
11337,-35.47
11349,-31.58
11361,-25.89
11373,-19.03
11385,-11.78
11397,-4.81
11409,1.48
11421,7.02
11433,11.87
11445,16.16
11457,19.84
11469,22.81
11481,24.92
11492,26.15
11503,26.65
11515,26.69
11527,26.55
11539,26.4
11551,26.24
11563,25.96
11575,25.44
11587,24.65
11599,23.68
11611,22.71
11623,21.86
11635,21.02
11647,19.98
11659,18.44
11671,16.22
11682,13.33
11693,10.01
11705,6.55
11717,3.18
11729,-0.04
11741,-3.21
11753,-6.43
11765,-9.76
11777,-13.19
11789,-16.73
11801,-20.4
11813,-24.19
11825,-28.0
11837,-31.54
11849,-34.27
11861,-35.64
11872,-35.25
11883,-33.06
11895,-29.37
11907,-24.63
11919,-19.29
11931,-13.65
11943,-7.81
11955,-1.8
11967,4.33
11979,10.37
11991,16.07
12003,21.21
12015,25.62
12027,29.26
12039,32.19
12051,34.5
12062,36.34
12073,37.82
12085,39.04
12097,40.02
12109,40.78
12121,41.28
12133,41.45
12145,41.3
12157,40.87
12169,40.22
12181,39.41
12193,38.48
12205,37.41
12217,36.14
12229,34.58
12241,32.71
12252,30.59
12263,28.43
12275,26.43
12287,24.74
12299,23.37
12311,22.2
12323,21.0
12335,19.58
12347,17.91
12359,16.06
12371,14.18
12383,12.43
12395,10.87
12407,9.44
12419,8.01
12431,6.42
12442,4.59
12453,2.55
12465,0.37
12477,-1.86
12489,-4.06
12501,-6.21
12513,-8.28
12525,-10.26
12537,-12.12
12549,-13.87
12561,-15.53
12573,-17.19
12585,-18.94
12597,-20.85
12609,-22.93
12621,-25.03
12632,-27.08
12643,-28.99
12655,-30.84
12667,-32.84
12679,-35.28
12691,-38.42
12703,-42.32
12715,-46.76
12727,-51.13
12739,-54.63
12751,-56.45
12763,-55.98
12775,-53.13
12787,-48.21
12799,-41.92
12811,-34.98
12822,-27.95
12833,-21.13
12845,-14.54
12857,-8.12
12869,-1.88
12881,4.0
12893,9.28
12905,13.76
12917,17.4
12929,20.29
12941,22.56
12953,24.36
12965,25.75
12977,26.76
12989,27.44
13001,27.88
13012,28.22
13023,28.57
13035,28.92
13047,29.17
13059,29.18
13071,28.86
13083,28.2
13095,27.2
13107,25.97
13119,24.61
13131,23.18
13143,21.81
13155,20.6
13167,19.66
13179,19.06
13191,18.76
13202,18.63
13213,18.48
13225,18.1
13237,17.38
13249,16.28
13261,14.93
13273,13.43
13285,11.89
13297,10.34
13309,8.76
13321,7.06
13333,5.2
13345,3.17
13357,0.99
13369,-1.3
13381,-3.69
13392,-6.14
13403,-8.62
13415,-11.0
13427,-13.19
13439,-15.04
13451,-16.52
13463,-17.62
13475,-18.44
13487,-19.08
13499,-19.66
13511,-20.26
13523,-20.98
13535,-21.95
13547,-23.27
13559,-25.08
13571,-27.41
13582,-30.09
13593,-32.79
13605,-35.03
13617,-36.33
13629,-36.31
13641,-34.89
13653,-32.16
13665,-28.49
13677,-24.27
13689,-19.89
13701,-15.64
13713,-11.64
13725,-7.93
13737,-4.46
13749,-1.2
13761,1.9
13772,4.76
13783,7.33
13795,9.55
13807,11.37
13819,12.87
13831,14.13
13843,15.22
13855,16.15
13867,16.94
13879,17.53
13891,17.93
13903,18.18
13915,18.32
13927,18.4
13939,18.39
13951,18.19
13962,17.68
13973,16.8
13985,15.57
13997,14.05
14009,12.37
14021,10.64
14033,8.93
14045,7.3
14057,5.8
14069,4.51
14081,3.45
14093,2.6
14105,1.86
14117,1.08
14129,0.13
14141,-0.98
14152,-2.12
14163,-3.11
14175,-3.79
14187,-4.19
14199,-4.47
14211,-4.77
14223,-5.22
14235,-5.85
14247,-6.59
14259,-7.42
14271,-8.34
14283,-9.46
14295,-10.84
14307,-12.51
14319,-14.38
14331,-16.27
14342,-18.08
14353,-19.77
14365,-21.46
14377,-23.37
14389,-25.69
14401,-28.41
14413,-31.31
14425,-33.92
14437,-35.63
14449,-35.96
14461,-34.68
14473,-31.91
14485,-28.08
14497,-23.69
14509,-19.21
14521,-14.93
14532,-10.98
14543,-7.38
14555,-4.12
14567,-1.24
14579,1.22
14591,3.25
14603,4.97
14615,6.56
14627,8.18
14639,9.91
14651,11.65
14663,13.25
14675,14.49
14687,15.23
14699,15.43
14711,15.2
14722,14.64
14733,13.88
14745,13.01
14757,12.08
14769,11.14
14781,10.26
14793,9.52
14805,9.0
14817,8.72
14829,8.68
14841,8.84
14853,9.09
14865,9.34
14877,9.44
14889,9.22
14901,8.56
14912,7.42
14923,5.81
14935,3.87
14947,1.71
14959,-0.54
14971,-2.82
14983,-4.99
14995,-6.92
15007,-8.46
15019,-9.52
15031,-10.17
15043,-10.59
15055,-11.07
15067,-11.77
15079,-12.73
15091,-13.8
15102,-14.78
15113,-15.56
15125,-16.21
15137,-16.95
15149,-18.01
15161,-19.52
15173,-21.49
15185,-23.8
15197,-26.3
15209,-28.78
15221,-31.04
15233,-32.77
15245,-33.54
15257,-32.99
15269,-30.89
15281,-27.36
15292,-22.85
15303,-18.06
15315,-13.68
15327,-10.13
15339,-7.43
15351,-5.25
15363,-3.23
15375,-1.12
15387,1.02
15399,2.93
15411,4.29
15423,4.96
15435,5.08
15447,4.95
15459,4.92
15471,5.17
15482,5.76
15493,6.58
15505,7.5
15517,8.46
15529,9.5
15541,10.64
15553,11.86
15565,12.95
15577,13.62
15589,13.65
15601,12.99
15613,11.81
15625,10.42
15637,9.13
15649,8.14
15661,7.45
15672,6.97
15683,6.52
15695,6.03
15707,5.43
15719,4.65
15731,3.61
15743,2.25
15755,0.58
15767,-1.25
15779,-2.96
15791,-4.28
15803,-5.07
15815,-5.48
15827,-5.76
15839,-6.28
15851,-7.25
15862,-8.7
15873,-10.5
15885,-12.45
15897,-14.43
15909,-16.46
15921,-18.71
15933,-21.37
15945,-24.58
15957,-28.29
15969,-32.18
15981,-35.8
15993,-38.56
16005,-39.99
16017,-39.74
16029,-37.81
16041,-34.49
16052,-30.34
16063,-25.98
16075,-21.94
16087,-18.48
16099,-15.59
16111,-13.08
16123,-10.75
16135,-8.47
16147,-6.2
16159,-4.0
16171,-1.9
16183,0.17
16195,2.25
16207,4.38
16219,6.48
16231,8.44
16242,10.14
16253,11.5
16265,12.59
16277,13.44
16289,14.14
16301,14.69
16313,15.0
16325,15.02
16337,14.65
16349,13.92
16361,12.87
16373,11.58
16385,10.1
16397,8.48
16409,6.71
16421,4.82
16432,2.86
16443,0.91
16455,-0.97
16467,-2.81
16479,-4.57
16491,-6.22
16503,-7.63
16515,-8.69
16527,-9.27
16539,-9.44
16551,-9.45
16563,-9.67
16575,-10.45
16587,-12.01
16599,-14.4
16611,-17.45
16622,-20.82
16633,-24.03
16645,-26.51
16657,-27.77
16669,-27.45
16681,-25.5
16693,-22.26
16705,-18.25
16717,-14.11
16729,-10.28
16741,-6.97
16753,-4.15
16765,-1.71
16777,0.45
16789,2.36
16801,4.01
16812,5.41
16823,6.63
16835,7.79
16847,8.96
16859,10.16
16871,11.36
16883,12.47
16895,13.43
16907,14.2
16919,14.87
16931,15.53
16943,16.31
16955,17.2
16967,18.07
16979,18.67
16991,18.78
17002,18.23
17013,16.98
17025,15.15
17037,12.92
17049,10.51
17061,8.06
17073,5.73
17085,3.59
17097,1.66
17109,-0.09
17121,-1.81
17133,-3.63
17145,-5.54
17157,-7.4
17169,-8.99
17181,-10.22
17192,-11.19
17203,-12.19
17215,-13.62
17227,-15.8
17239,-18.8
17251,-22.41
17263,-26.16
17275,-29.53
17287,-31.95
17299,-32.94
17311,-32.22
17323,-29.7
17335,-25.68
17347,-20.67
17359,-15.35
17371,-10.31
17382,-5.92
17393,-2.2
17405,1.08
17417,4.19
17429,7.39
17441,10.62
17453,13.71
17465,16.37
17477,18.41
17489,19.81
17501,20.72
17513,21.34
17525,21.8
17537,22.19
17549,22.47
17561,22.66
17572,22.79
17583,22.88
17595,23.0
17607,23.13
17619,23.2
17631,23.09
17643,22.8
17655,22.35
17667,21.91
17679,21.62
17691,21.53
17703,21.61
17715,21.73
17727,21.67
17739,21.26
17751,20.39
17762,19.11
17773,17.5
17785,15.75
17797,13.97
17809,12.3
17821,10.77
17833,9.34
17845,7.98
17857,6.55
17869,5.0
17881,3.29
17893,1.41
17905,-0.6
17917,-2.66
17929,-4.7
17941,-6.68
17952,-8.59
17963,-10.47
17975,-12.41
17987,-14.45
17999,-16.62
18011,-18.96
18023,-21.52
18035,-24.4
18047,-27.69
18059,-31.5
18071,-35.81
18083,-40.46
18095,-45.08
18107,-49.07
18119,-51.84
18131,-52.84
18142,-51.83
18153,-48.88
18165,-44.35
18177,-38.79
18189,-32.73
18201,-26.57
18213,-20.58
18225,-14.86
18237,-9.48
18249,-4.45
18261,0.26
18273,4.68
18285,8.8
18297,12.61
18309,16.05
18321,19.05
18332,21.57
18343,23.68
18355,25.46
18367,27.03
18379,28.48
18391,29.82
18403,31.05
18415,32.11
18427,32.93
18439,33.46
18451,33.63
18463,33.4
18475,32.77
18487,31.88
18499,30.87
18511,29.93
18522,29.2
18533,28.7
18545,28.36
18557,28.03
18569,27.48
18581,26.54
18593,25.1
18605,23.21
18617,21.03
18629,18.77
18641,16.57
18653,14.53
18665,12.6
18677,10.67
18689,8.69
18701,6.61
18712,4.51
18723,2.47
18735,0.59
18747,-1.06
18759,-2.42
18771,-3.51
18783,-4.46
18795,-5.44
18807,-6.69
18819,-8.36
18831,-10.49
18843,-12.95
18855,-15.51
18867,-17.95
18879,-20.23
18891,-22.44
18902,-24.78
18913,-27.46
18925,-30.53
18937,-33.89
18949,-37.28
18961,-40.25
18973,-42.35
18985,-43.19
18997,-42.52
19009,-40.32
19021,-36.86
19033,-32.55
19045,-27.82
19057,-23.03
19069,-18.3
19081,-13.61
19092,-8.86
19103,-4.01
19115,0.87
19127,5.57
19139,9.87
19151,13.63
19163,16.75
19175,19.27
19187,21.22
19199,22.66
19211,23.65
19223,24.26
19235,24.61
19247,24.84
19259,25.04
19271,25.28
19282,25.58
19293,25.98
19305,26.52
19317,27.27
19329,28.29
19341,29.53
19353,30.78
19365,31.81
19377,32.33
19389,32.25
19401,31.62
19413,30.61
19425,29.4
19437,28.07
19449,26.61
19461,24.91
19472,22.95
19483,20.78
19495,18.55
19507,16.39
19519,14.41
19531,12.56
19543,10.68
19555,8.63
19567,6.29
19579,3.74
19591,1.13
19603,-1.32
19615,-3.5
19627,-5.38
19639,-7.08
19651,-8.76
19662,-10.61
19673,-12.66
19685,-14.84
19697,-17.07
19709,-19.27
19721,-21.46
19733,-23.74
19745,-26.23
19757,-29.02
19769,-32.12
19781,-35.38
19793,-38.48
19805,-40.97
19817,-42.38
19829,-42.35
19841,-40.8
19852,-37.91
19863,-34.07
19875,-29.79
19887,-25.52
19899,-21.5
19911,-17.81
19923,-14.37
19935,-11.02
19947,-7.59
19959,-3.92
19971,0.06
19983,4.27
19995,8.52
20007,12.54
20019,16.1
20031,19.08
20042,21.43
20053,23.27
20065,24.72
20077,25.91
20089,26.83
20101,27.48
20113,27.82
20125,27.85
20137,27.61
20149,27.18
20161,26.56
20173,25.76
20185,24.83
20197,23.84
20209,22.92
20221,22.23
20232,21.86
20243,21.76
20255,21.77
20267,21.59
20279,20.96
20291,19.76
20303,18.04
20315,16.01
20327,13.92
20339,11.96
20351,10.18
20363,8.59
20375,7.14
20387,5.74
20399,4.38
20411,3.01
20422,1.58
20433,0.04
20445,-1.7
20457,-3.64
20469,-5.78
20481,-8.09
20493,-10.53
20505,-13.05
20517,-15.57
20529,-18.05
20541,-20.48
20553,-22.95
20565,-25.65
20577,-28.75
20589,-32.39
20601,-36.52
20612,-40.82
20623,-44.73
20635,-47.58
20647,-48.8
20659,-48.04
20671,-45.31
20683,-40.87
20695,-35.21
20707,-28.86
20719,-22.25
20731,-15.7
20743,-9.35
20755,-3.28
20767,2.51
20779,7.97
20791,12.98
20802,17.4
20813,20.98
20825,23.59
20837,25.17
20849,25.85
20861,25.89
20873,25.63
20885,25.36
20897,25.24
20909,25.32
20921,25.52
20933,25.85
20945,26.26
20957,26.85
20969,27.66
20981,28.71
20992,29.86
