seconds,BVP
11,5.0
23,4.81
35,4.54
47,4.29
59,4.18
71,4.25
83,4.48
95,4.82
107,5.16
119,5.39
131,5.45
143,5.34
155,5.13
166,4.96
177,4.91
189,4.99
201,5.09
213,5.04
225,4.69
237,3.98
249,3.01
261,1.97
273,1.04
285,0.32
297,-0.19
309,-0.6
321,-1.0
333,-1.48
345,-2.04
356,-2.66
367,-3.36
379,-4.17
391,-5.18
403,-6.44
415,-7.97
427,-9.68
439,-11.47
451,-13.14
463,-14.52
475,-15.5
487,-15.97
499,-15.9
511,-15.29
523,-14.19
535,-12.67
546,-10.8
557,-8.66
569,-6.34
581,-3.94
593,-1.54
605,0.74
617,2.78
629,4.46
641,5.68
653,6.39
665,6.62
677,6.42
689,5.94
701,5.33
713,4.76
725,4.33
736,4.13
747,4.15
759,4.39
771,4.78
783,5.2
795,5.52
807,5.63
819,5.46
831,5.03
843,4.48
855,3.95
867,3.59
879,3.44
891,3.46
903,3.51
915,3.46
926,3.19
937,2.68
949,1.96
961,1.06
973,0.03
985,-1.14
997,-2.39
1009,-3.6
1021,-4.63
1033,-5.35
1045,-5.72
1057,-5.81
1069,-5.82
1081,-5.98
1093,-6.47
1105,-7.3
1116,-8.38
1127,-9.54
1139,-10.61
1151,-11.45
1163,-11.99
1175,-12.17
1187,-11.9
1199,-11.09
1211,-9.69
1223,-7.76
1235,-5.42
1247,-2.9
1259,-0.39
1271,1.91
1283,3.87
1295,5.44
1306,6.58
1317,7.27
1329,7.55
1341,7.52
1353,7.35
1365,7.19
1377,7.09
1389,7.05
1401,6.94
1413,6.69
1425,6.27
1437,5.75
1449,5.28
1461,4.96
1473,4.82
1485,4.79
1496,4.77
1507,4.65
1519,4.39
1531,3.98
1543,3.43
1555,2.76
1567,2.0
1579,1.18
1591,0.34
1603,-0.43
1615,-1.11
1627,-1.69
1639,-2.19
1651,-2.63
1663,-3.03
1675,-3.35
1686,-3.58
1697,-3.77
1709,-4.08
1721,-4.67
1733,-5.7
1745,-7.09
1757,-8.62
1769,-9.9
1781,-10.53
1793,-10.25
1805,-9.02
1817,-7.02
1829,-4.6
1841,-2.17
1853,-0.07
1865,1.48
1876,2.47
1887,3.03
1899,3.37
1911,3.62
1923,3.78
1935,3.74
1947,3.33
1959,2.5
1971,1.34
1983,0.1
1995,-0.93
2007,-1.54
2019,-1.72
2031,-1.62
2043,-1.38
2055,-1.1
2066,-0.7
2077,0.01
2089,1.13
2101,2.63
2113,4.26
2125,5.65
2137,6.49
2149,6.69
2161,6.38
2173,5.87
2185,5.43
2197,5.14
2209,4.91
2221,4.54
2233,3.91
2245,3.06
2256,2.21
2267,1.56
2279,1.19
2291,0.98
2303,0.69
2315,0.09
2327,-0.88
2339,-2.13
2351,-3.4
2363,-4.46
2375,-5.18
2387,-5.55
2399,-5.6
2411,-5.33
2423,-4.66
2435,-3.41
2446,-1.43
2457,1.27
2469,4.51
2481,7.97
2493,11.28
2505,14.11
2517,16.21
2529,17.5
2541,18.0
2553,17.82
2565,17.1
2577,15.99
2589,14.65
2601,13.23
2613,11.83
2625,10.54
2636,9.42
2647,8.53
2659,7.85
2671,7.33
2683,6.9
2695,6.49
2707,6.09
2719,5.75
2731,5.54
2743,5.49
2755,5.56
2767,5.61
2779,5.45
2791,5.01
2803,4.23
2815,3.2
2826,2.03
2837,0.81
2849,-0.45
2861,-1.78
2873,-3.26
2885,-4.89
2897,-6.61
2909,-8.35
2921,-10.02
2933,-11.58
2945,-13.04
2957,-14.43
2969,-15.75
2981,-16.99
2993,-18.11
3005,-19.08
3016,-19.91
3027,-20.56
3039,-20.92
3051,-20.77
3063,-19.83
3075,-17.87
3087,-14.86
3099,-11.02
3111,-6.77
3123,-2.56
3135,1.22
3147,4.43
3159,7.06
3171,9.24
3183,11.02
3195,12.38
3206,13.28
3217,13.67
3229,13.65
3241,13.34
3253,12.94
3265,12.58
3277,12.33
3289,12.19
3301,12.1
3313,12.04
3325,11.97
3337,11.85
3349,11.67
3361,11.42
3373,11.1
3385,10.71
3396,10.24
3407,9.64
3419,8.84
3431,7.82
3443,6.58
3455,5.17
3467,3.65
3479,2.09
3491,0.52
3503,-1.04
3515,-2.57
3527,-4.0
3539,-5.23
3551,-6.19
3563,-6.9
3575,-7.46
3586,-8.01
3597,-8.66
3609,-9.45
3621,-10.41
3633,-11.48
3645,-12.65
3657,-13.91
3669,-15.22
3681,-16.51
3693,-17.63
3705,-18.34
3717,-18.39
3729,-17.58
3741,-15.76
3753,-12.93
3765,-9.24
3776,-4.98
3787,-0.57
3799,3.59
3811,7.13
3823,9.88
3835,11.84
3847,13.17
3859,14.08
3871,14.74
3883,15.24
3895,15.6
3907,15.78
3919,15.77
3931,15.57
3943,15.22
3955,14.77
3966,14.26
3977,13.7
3989,13.11
4001,12.51
4013,11.91
4025,11.3
4037,10.63
4049,9.88
4061,9.05
4073,8.2
4085,7.46
4097,6.9
4109,6.53
4121,6.21
4133,5.72
4145,4.87
4156,3.61
4167,2.02
4179,0.33
4191,-1.26
4203,-2.63
4215,-3.76
4227,-4.69
4239,-5.53
4251,-6.35
4263,-7.26
4275,-8.3
4287,-9.54
4299,-10.93
4311,-12.36
4323,-13.69
4335,-14.79
4346,-15.59
4357,-16.12
4369,-16.43
4381,-16.52
4393,-16.24
4405,-15.38
4417,-13.72
4429,-11.19
4441,-7.9
4453,-4.2
4465,-0.48
4477,2.86
4489,5.63
4501,7.76
4513,9.29
4525,10.28
4536,10.76
4547,10.74
4559,10.3
4571,9.61
4583,8.87
4595,8.29
4607,7.91
4619,7.71
4631,7.6
4643,7.54
4655,7.56
4667,7.72
4679,8.02
4691,8.36
4703,8.58
4715,8.51
4726,8.09
4737,7.38
4749,6.49
4761,5.5
4773,4.49
4785,3.45
4797,2.4
4809,1.38
4821,0.42
4833,-0.47
4845,-1.27
4857,-2.04
4869,-2.82
4881,-3.68
4893,-4.65
4905,-5.76
4916,-7.04
4927,-8.51
4939,-10.18
4951,-12.01
4963,-13.93
4975,-15.84
4987,-17.63
4999,-19.16
5011,-20.34
5023,-21.08
5035,-21.31
5047,-20.94
5059,-19.87
5071,-18.01
5083,-15.34
5095,-12.0
5106,-8.24
5117,-4.36
5129,-0.67
5141,2.57
5153,5.22
5165,7.19
5177,8.42
5189,8.93
5201,8.76
5213,8.0
5225,6.85
5237,5.58
5249,4.44
5261,3.6
5273,3.12
5285,2.94
5296,2.95
5307,3.05
5319,3.15
5331,3.22
5343,3.21
5355,3.08
5367,2.74
5379,2.21
5391,1.61
5403,1.17
5415,1.08
5427,1.35
5439,1.68
5451,1.59
5463,0.59
5475,-1.58
5486,-4.83
5497,-8.77
5509,-12.88
5521,-16.74
5533,-20.12
5545,-23.02
5557,-25.62
5569,-28.18
5581,-30.87
5593,-33.78
5605,-36.79
5617,-39.73
5629,-42.38
5641,-44.63
5653,-46.47
5665,-48.01
5676,-49.36
5687,-50.52
5699,-51.38
5711,-51.71
5723,-51.27
5735,-49.85
5747,-47.31
5759,-43.58
5771,-38.68
5783,-32.92
5795,-26.92
5807,-21.61
5819,-17.95
5831,-16.56
5843,-17.38
5855,-19.58
5866,-21.9
5877,-23.15
5889,-22.78
5901,-21.04
5913,-18.76
5925,-16.8
5937,-15.51
5949,-14.56
5961,-13.1
5973,-10.32
5985,-5.82
5997,0.08
6009,6.63
6021,12.88
6033,18.1
6045,21.96
6056,24.56
6067,26.29
6079,27.64
6091,29.05
6103,30.76
6115,32.78
6127,34.88
6139,36.78
6151,38.22
6163,39.07
6175,39.31
6187,38.96
6199,38.0
6211,36.41
6223,34.24
6235,31.72
6246,29.28
6257,27.4
6269,26.44
6281,26.52
6293,27.47
6305,29.02
6317,30.9
6329,33.02
6341,35.31
6353,37.68
6365,39.84
6377,41.33
6389,41.74
6401,40.85
6413,38.76
6425,35.82
6436,32.51
6447,29.23
6459,26.25
6471,23.66
6483,21.52
6495,19.91
6507,18.85
6519,18.25
6531,17.86
6543,17.25
6555,15.88
6567,13.24
6579,9.02
6591,3.28
6603,-3.49
6615,-10.46
6626,-16.59
6637,-20.9
6649,-22.7
6661,-21.79
6673,-18.47
6685,-13.4
6697,-7.42
6709,-1.37
6721,4.11
6733,8.57
6745,11.77
6757,13.58
6769,13.99
6781,13.13
6793,11.32
6805,8.97
6816,6.5
6827,4.19
6839,2.09
6851,0.02
6863,-2.24
6875,-4.8
6887,-7.56
6899,-10.19
6911,-12.34
6923,-13.67
6935,-14.05
6947,-13.47
6959,-12.03
6971,-9.88
6983,-7.13
6995,-3.94
7006,-0.49
7017,3.04
7029,6.46
7041,9.68
7053,12.57
7065,14.99
7077,16.75
7089,17.71
7101,17.85
7113,17.43
7125,16.95
7137,16.97
7149,17.83
7161,19.47
7173,21.42
7185,23.03
7196,23.83
7207,23.74
7219,23.02
7231,22.11
7243,21.26
7255,20.46
7267,19.46
7279,18.06
7291,16.29
7303,14.42
7315,12.82
7327,11.62
7339,10.66
7351,9.55
7363,7.92
7375,5.71
7386,3.24
7397,1.08
7409,-0.29
7421,-0.73
7433,-0.55
7445,-0.29
7457,-0.43
7469,-1.14
7481,-2.23
7493,-3.42
7505,-4.44
7517,-5.29
7529,-6.09
7541,-6.92
7553,-7.66
7565,-7.88
7576,-7.04
7587,-4.74
7599,-0.91
7611,4.04
7623,9.4
7635,14.32
7647,18.16
7659,20.54
7671,21.36
7683,20.73
7695,18.87
7707,16.15
7719,13.03
7731,10.12
7743,7.98
7755,6.95
7766,6.99
7777,7.7
7789,8.42
7801,8.56
7813,7.9
7825,6.53
7837,4.85
7849,3.24
7861,1.88
7873,0.7
7885,-0.54
7897,-2.07
7909,-4.0
7921,-6.25
7933,-8.69
7945,-11.12
7956,-13.44
7967,-15.65
7979,-17.85
7991,-20.15
8003,-22.54
8015,-24.88
8027,-26.9
8039,-28.37
8051,-29.15
8063,-29.32
8075,-29.16
8087,-28.95
8099,-28.86
8111,-28.84
8123,-28.71
8135,-28.19
8146,-27.11
8157,-25.41
8169,-23.13
8181,-20.42
8193,-17.44
8205,-14.47
8217,-11.78
8229,-9.62
8241,-8.1
8253,-7.1
8265,-6.32
8277,-5.49
8289,-4.46
8301,-3.28
8313,-2.12
8325,-1.06
8336,0.01
8347,1.35
8359,3.24
8371,5.8
8383,8.87
8395,12.17
8407,15.46
8419,18.69
8431,21.92
8443,25.21
8455,28.45
8467,31.32
8479,33.44
8491,34.57
8503,34.71
8515,34.07
8526,32.9
8537,31.37
8549,29.51
8561,27.29
8573,24.76
8585,22.11
8597,19.65
8609,17.62
8621,16.09
8633,15.01
8645,14.17
8657,13.37
8669,12.44
8681,11.26
8693,9.72
8705,7.79
8716,5.52
8727,3.05
8739,0.6
8751,-1.63
8763,-3.5
8775,-4.95
8787,-5.96
8799,-6.5
8811,-6.48
8823,-5.82
8835,-4.57
8847,-2.89
8859,-1.01
8871,0.87
8883,2.63
8895,4.25
8906,5.59
8917,6.43
8929,6.48
8941,5.6
8953,4.0
8965,2.31
8977,1.29
8989,1.54
9001,3.14
9013,5.53
9025,7.77
9037,8.86
9049,8.12
9061,5.41
9073,1.01
9085,-4.5
9096,-10.45
9107,-16.2
9119,-21.22
9131,-25.01
9143,-27.21
9155,-27.68
9167,-26.6
9179,-24.44
9191,-21.92
9203,-19.7
9215,-18.2
9227,-17.42
9239,-16.94
9251,-16.15
9263,-14.57
9275,-12.1
9286,-9.12
9297,-6.27
9309,-4.15
9321,-2.97
9333,-2.52
9345,-2.34
9357,-2.07
9369,-1.61
9381,-1.12
9393,-0.85
9405,-0.82
9417,-0.75
9429,-0.27
9441,0.87
9453,2.57
9465,4.39
9476,5.88
9487,6.77
9499,7.19
9511,7.48
9523,8.03
9535,8.95
9547,10.08
9559,11.05
9571,11.52
9583,11.35
9595,10.59
9607,9.41
9619,8.02
9631,6.6
9643,5.29
9655,4.18
9666,3.32
9677,2.78
9689,2.51
9701,2.4
9713,2.28
9725,1.97
9737,1.41
9749,0.71
9761,0.12
9773,-0.1
9785,0.2
9797,0.93
9809,1.72
9821,2.09
9833,1.65
9845,0.25
9856,-2.01
9867,-4.79
9879,-7.75
9891,-10.63
9903,-13.32
9915,-15.83
9927,-18.16
9939,-20.3
9951,-22.24
9963,-24.05
9975,-25.77
9987,-27.42
9999,-28.9
10011,-29.98
10023,-30.36
10035,-29.82
10046,-28.24
10057,-25.71
10069,-22.44
10081,-18.67
10093,-14.69
10105,-10.73
10117,-6.97
10129,-3.52
10141,-0.35
10153,2.62
10165,5.48
10177,8.27
10189,10.85
10201,12.98
10213,14.43
10225,15.1
10236,15.11
10247,14.78
10259,14.48
10271,14.5
10283,14.94
10295,15.64
10307,16.34
10319,16.75
10331,16.65
10343,15.92
10355,14.48
10367,12.26
10379,9.17
10391,5.21
10403,0.64
10415,-4.09
10426,-8.35
10437,-11.59
10449,-13.59
10461,-14.5
10473,-14.8
10485,-14.99
10497,-15.43
10509,-16.12
10521,-16.79
10533,-17.03
10545,-16.46
10557,-14.9
10569,-12.44
10581,-9.34
10593,-6.0
10605,-2.76
10616,0.15
10627,2.63
10639,4.71
10651,6.43
10663,7.84
10675,8.96
10687,9.8
10699,10.37
10711,10.75
10723,11.06
10735,11.35
10747,11.69
10759,12.03
10771,12.29
10783,12.34
10795,12.14
10806,11.75
10817,11.35
10829,11.16
10841,11.29
10853,11.7
10865,12.13
10877,12.23
10889,11.78
10901,10.74
10913,9.32
10925,7.84
10937,6.51
10949,5.36
10961,4.26
10973,3.04
10985,1.63
10996,0.16
11007,-1.16
11019,-2.19
11031,-2.97
11043,-3.71
11055,-4.64
11067,-5.86
11079,-7.2
11091,-8.28
11103,-8.69
11115,-8.22
11127,-6.92
11139,-5.14
11151,-3.29
11163,-1.73
11175,-0.58
11186,0.17
11197,0.6
11209,0.72
11221,0.45
11233,-0.29
11245,-1.53
11257,-3.1
11269,-4.67
11281,-5.88
11293,-6.44
11305,-6.24
11317,-5.34
11329,-3.9
11341,-2.15
11353,-0.28
11365,1.53
11376,3.14
11387,4.46
11399,5.39
11411,5.95
11423,6.15
11435,6.04
11447,5.69
11459,5.19
11471,4.68
11483,4.27
11495,4.08
11507,4.12
11519,4.29
11531,4.39
11543,4.22
11555,3.7
11566,2.85
11577,1.84
11589,0.83
11601,-0.06
11613,-0.82
11625,-1.52
11637,-2.24
11649,-3.01
11661,-3.77
11673,-4.41
11685,-4.82
11697,-4.94
11709,-4.75
11721,-4.27
11733,-3.55
11745,-2.64
11756,-1.59
11767,-0.46
11779,0.66
11791,1.68
11803,2.54
11815,3.25
11827,3.86
11839,4.42
11851,4.99
11863,5.51
11875,5.87
11887,5.95
11899,5.68
11911,5.15
11923,4.54
11935,4.09
11946,3.93
11957,4.03
11969,4.27
11981,4.47
11993,4.52
12005,4.44
12017,4.36
12029,4.39
12041,4.55
12053,4.78
12065,5.0
12077,5.12
12089,5.14
12101,5.13
12113,5.15
12125,5.24
12136,5.36
12147,5.42
12159,5.41
12171,5.31
12183,5.19
12195,5.08
12207,4.99
12219,4.87
12231,4.71
12243,4.52
12255,4.37
12267,4.43
12279,4.78
12291,5.38
12303,6.06
12315,6.53
12326,6.45
12337,5.57
12349,3.81
12361,1.33
12373,-1.46
12385,-4.03
12397,-5.84
12409,-6.56
12421,-6.21
12433,-5.19
12445,-4.08
12457,-3.44
12469,-3.57
12481,-4.42
12493,-5.68
12505,-6.95
12516,-8.03
12527,-8.91
12539,-9.73
12551,-10.6
12563,-11.48
12575,-12.14
12587,-12.35
12599,-12.01
12611,-11.2
12623,-10.23
12635,-9.44
12647,-9.09
12659,-9.18
12671,-9.5
12683,-9.77
12695,-9.68
12706,-9.1
12717,-8.04
12729,-6.63
12741,-5.13
12753,-3.77
12765,-2.77
12777,-2.3
12789,-2.45
12801,-3.27
12813,-4.76
12825,-6.84
12837,-9.27
12849,-11.66
12861,-13.45
12873,-14.04
12885,-13.01
12896,-10.27
12907,-6.21
12919,-1.58
12931,2.68
12943,5.85
12955,7.54
12967,7.81
12979,6.99
12991,5.48
13003,3.61
13015,1.6
13027,-0.36
13039,-2.04
13051,-3.18
13063,-3.57
13075,-3.19
13086,-2.28
13097,-1.26
13109,-0.59
13121,-0.55
13133,-1.17
13145,-2.24
13157,-3.42
13169,-4.48
13181,-5.33
13193,-6.04
13205,-6.79
13217,-7.66
13229,-8.59
13241,-9.42
13253,-9.91
13265,-9.9
13276,-9.3
13287,-8.16
13299,-6.57
13311,-4.62
13323,-2.4
13335,-0.0
13347,2.43
13359,4.72
13371,6.67
13383,8.19
13395,9.23
13407,9.86
13419,10.17
13431,10.22
13443,10.15
13455,10.06
13466,10.13
13477,10.45
13489,10.96
13501,11.41
13513,11.44
13525,10.82
13537,9.56
13549,8.06
13561,6.89
13573,6.56
13585,7.26
13597,8.74
13609,10.47
13621,11.89
13633,12.59
13645,12.41
13656,11.38
13667,9.56
13679,7.02
13691,3.8
13703,0.1
13715,-3.72
13727,-7.19
13739,-9.85
13751,-11.47
13763,-12.14
13775,-12.21
13787,-12.15
13799,-12.27
13811,-12.66
13823,-13.16
13835,-13.47
13846,-13.42
13857,-13.02
13869,-12.47
13881,-12.06
13893,-11.98
13905,-12.21
13917,-12.47
13929,-12.36
13941,-11.53
13953,-9.88
13965,-7.65
13977,-5.29
13989,-3.23
14001,-1.66
14013,-0.38
14025,1.0
14036,2.83
14047,5.11
14059,7.45
14071,9.26
14083,10.08
14095,9.87
14107,9.0
14119,8.05
14131,7.47
14143,7.32
14155,7.3
14167,6.91
14179,5.78
14191,3.82
14203,1.21
14215,-1.7
14226,-4.57
14237,-7.21
14249,-9.51
14261,-11.46
14273,-13.02
14285,-14.15
14297,-14.8
14309,-14.99
14321,-14.78
14333,-14.27
14345,-13.56
14357,-12.69
14369,-11.67
14381,-10.48
14393,-9.13
14405,-7.6
14416,-5.9
14427,-3.99
14439,-1.86
14451,0.47
14463,2.84
14475,5.03
14487,6.8
14499,8.03
14511,8.74
14523,9.14
14535,9.47
14547,9.94
14559,10.65
14571,11.52
14583,12.45
14595,13.31
14606,14.0
14617,14.53
14629,14.87
14641,15.03
14653,15.0
14665,14.79
14677,14.42
14689,13.95
14701,13.44
14713,12.92
14725,12.42
14737,12.06
14749,11.95
14761,12.24
14773,12.9
14785,13.65
14796,13.97
14807,13.25
14819,11.15
14831,7.75
14843,3.64
14855,-0.36
14867,-3.57
14879,-5.67
14891,-6.79
14903,-7.31
14915,-7.6
14927,-7.9
14939,-8.19
14951,-8.4
14963,-8.46
14975,-8.34
14986,-8.08
14997,-7.66
15009,-7.03
15021,-6.16
15033,-5.12
15045,-4.07
15057,-3.2
15069,-2.65
15081,-2.3
15093,-1.88
15105,-1.0
15117,0.56
15129,2.71
15141,5.01
15153,6.88
15165,7.85
15176,7.84
15187,7.18
15199,6.43
15211,6.09
15223,6.44
15235,7.41
15247,8.79
15259,10.34
15271,11.83
15283,13.11
15295,14.06
15307,14.6
15319,14.69
15331,14.41
15343,13.9
15355,13.41
15366,13.12
15377,13.13
15389,13.29
15401,13.3
15413,12.68
15425,10.98
15437,7.91
15449,3.47
15461,-2.05
15473,-8.18
15485,-14.43
15497,-20.43
15509,-26.07
15521,-31.28
15533,-36.0
15545,-39.99
15556,-42.97
15567,-44.7
15579,-45.2
15591,-44.75
15603,-43.77
15615,-42.59
15627,-41.22
15639,-39.43
15651,-36.86
15663,-33.3
15675,-28.86
15687,-23.96
15699,-19.22
15711,-15.11
15723,-11.84
15735,-9.28
15746,-7.05
15757,-4.73
15769,-2.07
15781,0.86
15793,3.67
15805,5.75
15817,6.55
15829,5.91
15841,4.16
15853,2.03
15865,0.39
15877,-0.14
15889,0.58
15901,2.13
15913,3.85
15925,5.06
15936,5.38
15947,4.76
15959,3.39
15971,1.58
15983,-0.28
15995,-1.83
16007,-2.68
16019,-2.44
16031,-0.81
16043,2.28
16055,6.58
16067,11.42
16079,15.84
16091,18.86
16103,19.91
16115,19.02
16126,16.92
16137,14.66
16149,13.19
16161,12.95
16173,13.77
16185,15.16
16197,16.69
16209,18.42
16221,20.81
16233,24.3
16245,28.86
16257,33.76
16269,37.79
16281,39.8
16293,39.27
16305,36.45
16316,32.21
16327,27.5
16339,22.99
16351,18.9
16363,15.17
16375,11.73
16387,8.61
16399,5.91
16411,3.61
16423,1.49
16435,-0.78
16447,-3.48
16459,-6.74
16471,-10.43
16483,-14.32
16495,-18.26
16506,-22.12
16517,-25.79
16529,-29.05
16541,-31.57
16553,-32.99
16565,-33.05
16577,-31.81
16589,-29.58
16601,-26.8
16613,-23.87
16625,-21.02
16637,-18.33
16649,-15.81
16661,-13.57
16673,-11.79
16685,-10.71
16696,-10.47
16707,-10.99
16719,-11.92
16731,-12.76
16743,-12.99
16755,-12.33
16767,-10.76
16779,-8.56
16791,-6.12
16803,-3.84
16815,-2.01
16827,-0.71
16839,0.12
16851,0.63
16863,1.03
16875,1.52
16886,2.23
16897,3.23
16909,4.44
16921,5.69
16933,6.73
16945,7.38
16957,7.56
16969,7.4
16981,7.08
16993,6.82
17005,6.74
17017,6.84
17029,7.07
17041,7.29
17053,7.43
17065,7.44
17076,7.32
17087,7.04
17099,6.59
17111,5.95
17123,5.15
17135,4.28
17147,3.45
17159,2.77
17171,2.33
17183,2.1
17195,2.01
17207,1.93
17219,1.78
17231,1.51
17243,1.17
17255,0.87
17266,0.68
17277,0.64
17289,0.68
17301,0.69
17313,0.55
17325,0.17
17337,-0.48
17349,-1.34
17361,-2.32
17373,-3.29
17385,-4.11
17397,-4.63
17409,-4.74
17421,-4.4
17433,-3.62
17445,-2.51
17456,-1.21
17467,0.17
17479,1.54
17491,2.83
17503,3.98
17515,4.89
17527,5.47
17539,5.7
17551,5.64
17563,5.47
17575,5.38
17587,5.55
17599,6.01
17611,6.72
17623,7.5
17635,8.19
17646,8.65
17657,8.76
17669,8.5
17681,7.89
17693,6.99
17705,5.89
17717,4.73
17729,3.63
17741,2.69
17753,1.94
17765,1.34
17777,0.82
17789,0.29
17801,-0.26
17813,-0.76
17825,-1.02
17836,-0.82
17847,-0.06
17859,1.18
17871,2.53
17883,3.49
17895,3.6
17907,2.61
17919,0.54
17931,-2.36
17943,-5.71
17955,-9.16
17967,-12.36
17979,-15.06
17991,-16.99
18003,-17.93
18015,-17.72
18026,-16.44
18037,-14.37
18049,-11.94
18061,-9.58
18073,-7.54
18085,-5.9
18097,-4.52
18109,-3.2
18121,-1.83
18133,-0.41
18145,0.91
18157,1.96
18169,2.61
18181,2.86
18193,2.8
18205,2.58
18216,2.35
18227,2.19
18239,2.17
18251,2.29
18263,2.59
18275,3.08
18287,3.74
18299,4.49
18311,5.25
18323,5.93
18335,6.45
18347,6.78
18359,6.86
18371,6.62
18383,5.92
18395,4.62
18406,2.62
18417,-0.04
18429,-3.13
18441,-6.3
18453,-9.1
18465,-11.14
18477,-12.2
18489,-12.22
18501,-11.28
18513,-9.46
18525,-6.82
18537,-3.48
18549,0.42
18561,4.6
18573,8.66
18585,12.18
18596,14.79
18607,16.27
18619,16.58
18631,15.86
18643,14.42
18655,12.62
18667,10.88
18679,9.51
18691,8.63
18703,8.24
18715,8.19
18727,8.35
18739,8.64
18751,9.14
18763,9.94
18775,11.07
18786,12.47
18797,13.91
18809,15.11
18821,15.79
18833,15.68
18845,14.62
18857,12.61
18869,9.78
18881,6.46
18893,3.09
18905,0.1
18917,-2.2
18929,-3.67
18941,-4.37
18953,-4.43
18965,-3.96
18976,-3.05
18987,-1.76
18999,-0.24
19011,1.24
19023,2.34
19035,2.79
19047,2.54
19059,1.79
19071,0.96
19083,0.45
19095,0.52
19107,1.1
19119,1.83
19131,2.13
19143,1.39
19155,-0.9
19166,-5.06
19177,-11.02
19189,-18.3
19201,-25.98
19213,-32.9
19225,-38.03
19237,-40.81
19249,-41.36
19261,-40.27
19273,-38.3
19285,-35.97
19297,-33.38
19309,-30.34
19321,-26.8
19333,-23.03
19345,-19.59
19356,-17.05
19367,-15.56
19379,-14.69
19391,-13.65
19403,-11.67
19415,-8.42
19427,-4.06
19439,0.95
19451,6.19
19463,11.54
19475,17.12
19487,23.05
19499,29.17
19511,34.85
19523,39.17
19535,41.23
19546,40.51
19557,37.14
19569,31.72
19581,25.22
19593,18.7
19605,13.08
19617,8.95
19629,6.48
19641,5.36
19653,4.82
19665,3.97
19677,2.02
19689,-1.22
19701,-5.22
19713,-8.86
19725,-10.82
19736,-10.13
19747,-6.57
19759,-0.75
19771,6.07
19783,12.41
19795,16.94
19807,18.78
19819,17.57
19831,13.55
19843,7.45
19855,0.42
19867,-6.23
19879,-11.26
19891,-13.88
19903,-13.96
19915,-12.04
19926,-9.18
19937,-6.63
19949,-5.48
19961,-6.36
19973,-9.33
19985,-13.95
19997,-19.61
20009,-25.67
20021,-31.56
20033,-36.78
20045,-40.85
20057,-43.3
20069,-43.69
20081,-41.73
20093,-37.38
20105,-31.03
20116,-23.31
20127,-14.81
20139,-6.01
20151,2.75
20163,11.07
20175,18.46
20187,24.35
20199,28.3
20211,29.71
20223,28.43
20235,25.02
20247,20.77
20259,17.36
20271,16.37
20283,18.78
20295,24.74
20306,33.52
20317,42.81
20329,50.19
20341,54.39
20353,55.83
20365,56.24
20377,57.6
20389,61.23
20401,67.29
20413,75.17
20425,82.04
20437,85.1
20449,82.76
20461,75.16
20473,63.52
20485,49.22
20496,33.35
20507,16.64
20519,0.03
20531,-17.87
20543,-38.44
20555,-62.1
20567,-87.86
20579,-114.15
20591,-139.87
20603,-164.85
20615,-189.78
20627,-205.11
20639,-203.94
20651,-184.86
20663,-153.41
20675,-117.45
20686,-82.21
20697,-49.67
20709,-20.26
20721,2.71
20733,21.52
20745,36.19
20757,46.43
20769,52.72
20781,56.43
20793,58.79
20805,59.9
20817,59.53
20829,56.4
20841,50.21
20853,39.68
20865,24.41
20876,5.23
20887,-16.1
20899,-37.63
20911,-57.85
20923,-75.64
20935,-90.09
20947,-99.83
20959,-105.13
20971,-106.78
20983,-105.64
20995,-102.34
