seconds,BVP
10,-4.86
22,0.6
34,5.79
46,10.2
58,13.62
70,15.99
82,17.35
94,17.72
106,17.1
118,15.57
130,13.33
141,10.75
152,8.26
164,6.24
176,4.85
188,4.01
200,3.43
212,2.75
224,1.7
236,0.13
248,-1.99
260,-4.62
272,-7.67
284,-10.96
296,-14.14
308,-16.69
320,-18.0
331,-17.56
342,-15.21
354,-11.22
366,-6.22
378,-1.0
390,3.79
402,7.79
414,10.89
426,13.13
438,14.51
450,14.98
462,14.44
474,12.91
486,10.6
498,7.94
510,5.4
521,3.36
532,1.93
544,0.96
556,0.12
568,-0.9
580,-2.32
592,-4.22
604,-6.62
616,-9.48
628,-12.75
640,-16.2
652,-19.4
664,-21.68
676,-22.36
688,-20.96
700,-17.45
711,-12.28
722,-6.31
734,-0.44
746,4.61
758,8.44
770,11.01
782,12.43
794,12.89
806,12.55
818,11.51
830,9.9
842,7.88
854,5.69
866,3.58
878,1.77
890,0.38
901,-0.64
912,-1.46
924,-2.31
936,-3.47
948,-5.11
960,-7.35
972,-10.21
984,-13.54
996,-16.97
1008,-19.93
1020,-21.7
1032,-21.67
1044,-19.54
1056,-15.49
1068,-10.1
1080,-4.22
1091,1.42
1102,6.3
1114,10.24
1126,13.21
1138,15.23
1150,16.24
1162,16.17
1174,15.05
1186,13.06
1198,10.59
1210,8.06
1222,5.85
1234,4.16
1246,2.98
1258,2.11
1270,1.31
1281,0.28
1292,-1.23
1304,-3.4
1316,-6.3
1328,-9.8
1340,-13.59
1352,-17.17
1364,-19.9
1376,-21.18
1388,-20.6
1400,-18.05
1412,-13.78
1424,-8.31
1436,-2.32
1448,3.53
1460,8.7
1471,12.84
1482,15.78
1494,17.48
1506,18.03
1518,17.61
1530,16.46
1542,14.87
1554,13.08
1566,11.3
1578,9.66
1590,8.18
1602,6.85
1614,5.6
1626,4.36
1638,3.04
1650,1.55
1661,-0.2
1672,-2.33
1684,-4.91
1696,-7.93
1708,-11.16
1720,-14.15
1732,-16.23
1744,-16.76
1756,-15.34
1768,-11.97
1780,-7.17
1792,-1.7
1804,3.64
1816,8.21
1828,11.74
1840,14.18
1851,15.64
1862,16.22
1874,15.96
1886,14.91
1898,13.17
1910,10.92
1922,8.48
1934,6.12
1946,4.05
1958,2.35
1970,0.9
1982,-0.48
1994,-1.98
2006,-3.74
2018,-5.83
2030,-8.32
2041,-11.22
2052,-14.52
2064,-17.98
2076,-21.14
2088,-23.32
2100,-23.82
2112,-22.19
2124,-18.41
2136,-12.97
2148,-6.73
2160,-0.57
2172,4.81
2184,9.09
2196,12.22
2208,14.31
2220,15.49
2231,15.76
2242,15.14
2254,13.66
2266,11.5
2278,8.93
2290,6.29
2302,3.87
2314,1.81
2326,0.09
2338,-1.45
2350,-2.97
2362,-4.6
2374,-6.45
2386,-8.62
2398,-11.25
2410,-14.38
2421,-17.88
2432,-21.3
2444,-23.91
2456,-24.87
2468,-23.59
2480,-19.95
2492,-14.39
2504,-7.81
2516,-1.19
2528,4.65
2540,9.3
2552,12.67
2564,14.88
2576,16.09
2588,16.41
2600,15.92
2611,14.72
2622,12.99
2634,11.01
2646,9.07
2658,7.43
2670,6.21
2682,5.37
2694,4.72
2706,4.01
2718,2.98
2730,1.48
2742,-0.57
2754,-3.18
2766,-6.24
2778,-9.55
2790,-12.71
2801,-15.13
2812,-16.17
2824,-15.31
2836,-12.38
2848,-7.67
2860,-1.88
2872,4.12
2884,9.52
2896,13.83
2908,16.89
2920,18.8
2932,19.76
2944,19.92
2956,19.33
2968,18.03
2980,16.09
2991,13.69
3002,11.15
3014,8.82
3026,6.99
3038,5.74
3050,4.96
3062,4.34
3074,3.55
3086,2.32
3098,0.46
3110,-2.1
3122,-5.29
3134,-8.96
3146,-12.72
3158,-15.99
3170,-18.01
3181,-18.12
3192,-15.98
3204,-11.76
3216,-6.1
3228,0.06
3240,5.83
3252,10.59
3264,14.09
3276,16.39
3288,17.62
3300,17.95
3312,17.44
3324,16.17
3336,14.3
3348,12.06
3360,9.74
3371,7.6
3382,5.85
3394,4.54
3406,3.61
3418,2.92
3430,2.21
3442,1.18
3454,-0.46
3466,-2.92
3478,-6.24
3490,-10.16
3502,-14.16
3514,-17.56
3526,-19.6
3538,-19.7
3550,-17.61
3561,-13.52
3572,-8.01
3584,-1.91
3596,3.88
3608,8.72
3620,12.24
3632,14.42
3644,15.44
3656,15.54
3668,14.86
3680,13.5
3692,11.5
3704,9.01
3716,6.32
3728,3.81
3740,1.79
3751,0.38
3762,-0.57
3774,-1.37
3786,-2.45
3798,-4.13
3810,-6.58
3822,-9.77
3834,-13.5
3846,-17.41
3858,-20.99
3870,-23.61
3882,-24.62
3894,-23.61
3906,-20.48
3918,-15.56
3930,-9.52
3941,-3.19
3952,2.7
3964,7.66
3976,11.45
3988,13.98
4000,15.29
4012,15.48
4024,14.67
4036,13.11
4048,11.11
4060,8.98
4072,6.99
4084,5.25
4096,3.75
4108,2.35
4120,0.92
4131,-0.68
4142,-2.55
4154,-4.79
4166,-7.54
4178,-10.89
4190,-14.81
4202,-19.01
4214,-22.89
4226,-25.65
4238,-26.54
4250,-25.06
4262,-21.22
4274,-15.52
4286,-8.75
4298,-1.8
4310,4.64
4321,10.11
4332,14.41
4344,17.46
4356,19.22
4368,19.68
4380,18.9
4392,17.11
4404,14.65
4416,11.98
4428,9.5
4440,7.49
4452,5.99
4464,4.83
4476,3.71
4488,2.34
4500,0.48
4511,-2.01
4522,-5.22
4534,-9.13
4546,-13.54
4558,-18.0
4570,-21.81
4582,-24.13
4594,-24.29
4606,-22.0
4618,-17.51
4630,-11.5
4642,-4.85
4654,1.65
4666,7.44
4678,12.27
4690,16.06
4701,18.79
4712,20.43
4724,20.94
4736,20.38
4748,18.91
4760,16.85
4772,14.55
4784,12.3
4796,10.27
4808,8.44
4820,6.73
4832,5.01
4844,3.18
4856,1.16
4868,-1.14
4880,-3.84
4891,-7.06
4902,-10.81
4914,-14.87
4926,-18.77
4938,-21.79
4950,-23.18
4962,-22.39
4974,-19.27
4986,-14.09
4998,-7.59
5010,-0.67
5022,5.8
5034,11.19
5046,15.18
5058,17.77
5070,19.11
5081,19.43
5092,18.91
5104,17.71
5116,15.97
5128,13.86
5140,11.61
5152,9.48
5164,7.63
5176,6.14
5188,4.92
5200,3.79
5212,2.51
5224,0.84
5236,-1.41
5248,-4.36
5260,-8.01
5271,-12.22
5282,-16.62
5294,-20.64
5306,-23.53
5318,-24.6
5330,-23.37
5342,-19.78
5354,-14.26
5366,-7.54
5378,-0.56
5390,5.87
5402,11.13
5414,14.92
5426,17.18
5438,18.08
5450,17.87
5461,16.83
5472,15.28
5484,13.44
5496,11.53
5508,9.65
5520,7.87
5532,6.19
5544,4.56
5556,2.94
5568,1.24
5580,-0.6
5592,-2.65
5604,-4.98
5616,-7.68
5628,-10.79
5640,-14.19
5651,-17.59
5662,-20.42
5674,-22.01
5686,-21.7
5698,-19.14
5710,-14.41
5722,-8.07
5734,-0.99
5746,5.93
5758,11.98
5770,16.77
5782,20.18
5794,22.28
5806,23.12
5818,22.76
5830,21.26
5841,18.81
5852,15.72
5864,12.39
5876,9.22
5888,6.45
5900,4.14
5912,2.13
5924,0.21
5936,-1.87
5948,-4.28
5960,-7.13
5972,-10.5
5984,-14.41
5996,-18.82
6008,-23.5
6020,-27.95
6031,-31.46
6042,-33.23
6054,-32.67
6066,-29.58
6078,-24.31
6090,-17.6
6102,-10.38
6114,-3.5
6126,2.49
6138,7.37
6150,11.16
6162,13.95
6174,15.82
6186,16.78
6198,16.82
6210,16.01
6221,14.58
6232,12.88
6244,11.24
6256,9.88
6268,8.79
6280,7.77
6292,6.56
6304,4.94
6316,2.86
6328,0.35
6340,-2.54
6352,-5.81
6364,-9.46
6376,-13.3
6388,-16.86
6400,-19.44
6411,-20.25
6422,-18.75
6434,-14.87
6446,-9.02
6458,-2.02
6470,5.24
6482,12.04
6494,17.91
6506,22.65
6518,26.17
6530,28.4
6542,29.28
6554,28.85
6566,27.29
6578,25.0
6590,22.51
6601,20.28
6612,18.52
6624,17.17
6636,15.93
6648,14.45
6660,12.47
6672,9.9
6684,6.78
6696,3.19
6708,-0.85
6720,-5.28
6732,-9.94
6744,-14.4
6756,-17.99
6768,-19.92
6780,-19.61
6791,-16.93
6802,-12.24
6814,-6.35
6826,-0.2
6838,5.42
6850,10.01
6862,13.46
6874,15.81
6886,17.18
6898,17.63
6910,17.17
6922,15.87
6934,13.93
6946,11.6
6958,9.2
6970,6.98
6981,5.04
6992,3.35
7004,1.8
7016,0.24
7028,-1.42
7040,-3.26
7052,-5.36
7064,-7.85
7076,-10.86
7088,-14.37
7100,-18.16
7112,-21.65
7124,-24.05
7136,-24.53
7148,-22.59
7160,-18.23
7171,-11.98
7182,-4.78
7194,2.4
7206,8.76
7218,13.85
7230,17.49
7242,19.72
7254,20.62
7266,20.36
7278,19.15
7290,17.28
7302,15.04
7314,12.69
7326,10.4
7338,8.24
7350,6.21
7361,4.35
7372,2.65
7384,1.11
7396,-0.37
7408,-1.95
7420,-3.87
7432,-6.36
7444,-9.55
7456,-13.35
7468,-17.44
7480,-21.25
7492,-24.06
7504,-25.14
7516,-23.99
7528,-20.51
7540,-15.1
7551,-8.53
7562,-1.76
7574,4.32
7586,9.06
7598,12.17
7610,13.66
7622,13.8
7634,12.94
7646,11.46
7658,9.7
7670,7.88
7682,6.19
7694,4.67
7706,3.32
7718,2.11
7730,0.96
7741,-0.18
7752,-1.36
7764,-2.66
7776,-4.14
7788,-5.95
7800,-8.21
7812,-11.04
7824,-14.42
7836,-18.1
7848,-21.55
7860,-24.05
7872,-24.8
7884,-23.25
7896,-19.31
7908,-13.38
7920,-6.34
7931,0.77
7942,7.04
7954,11.85
7966,14.94
7978,16.41
7990,16.52
8002,15.63
8014,14.07
8026,12.17
8038,10.19
8050,8.31
8062,6.66
8074,5.27
8086,4.1
8098,3.04
8110,1.96
8121,0.67
8132,-0.99
8144,-3.14
8156,-5.85
8168,-9.06
8180,-12.63
8192,-16.31
8204,-19.74
8216,-22.41
8228,-23.76
8240,-23.29
8252,-20.73
8264,-16.18
8276,-10.15
8288,-3.43
8300,3.12
8311,8.81
8322,13.18
8334,16.1
8346,17.58
8358,17.8
8370,16.99
8382,15.51
8394,13.74
8406,12.1
8418,10.86
8430,10.1
8442,9.73
8454,9.59
8466,9.58
8478,9.63
8490,9.71
8501,9.69
8512,9.41
8524,8.74
8536,7.64
8548,6.18
8560,4.44
8572,2.42
8584,0.08
8596,-2.61
8608,-5.44
8620,-7.99
8632,-9.8
8644,-10.59
8656,-10.49
8668,-9.98
8680,-9.67
8691,-10.03
8702,-11.35
8714,-13.79
8726,-17.55
8738,-22.9
8750,-30.0
8762,-38.62
8774,-48.1
8786,-57.32
8798,-65.09
8810,-70.45
8822,-72.9
8834,-72.44
8846,-69.54
8858,-64.95
8870,-59.6
8881,-54.46
8892,-50.3
8904,-47.49
8916,-45.94
8928,-45.03
8940,-43.84
8952,-41.45
8964,-37.22
8976,-31.03
8988,-23.32
9000,-14.88
9012,-6.55
9024,1.04
9036,7.53
9048,12.77
9060,16.53
9071,18.51
9082,18.41
9094,16.25
9106,12.52
9118,8.16
9130,4.15
9142,1.21
9154,-0.36
9166,-0.51
9178,0.86
9190,4.06
9202,9.38
9214,16.56
9226,24.45
9238,31.11
9250,34.52
9261,33.48
9272,28.28
9284,20.65
9296,13.16
9308,8.09
9320,6.72
9332,9.04
9344,14.18
9356,21.07
9368,29.0
9380,37.7
9392,46.98
9404,56.24
9416,64.21
9428,69.18
9440,69.6
9451,64.72
9462,54.97
9474,41.88
9486,27.45
9498,13.56
9510,1.39
9522,-8.63
9534,-16.67
9546,-23.06
9558,-28.12
9570,-31.98
9582,-34.78
9594,-36.73
9606,-38.26
9618,-39.75
9630,-41.31
9641,-42.44
9652,-42.1
9664,-38.97
9676,-32.02
9688,-20.94
9700,-6.47
9712,9.86
9724,26.18
9736,40.97
9748,53.42
9760,63.61
9772,72.21
9784,79.96
9796,87.28
9808,94.06
9820,99.67
9831,103.29
9842,104.25
9854,102.29
9866,97.73
9878,91.34
9890,84.17
9902,77.16
9914,70.85
9926,65.24
9938,59.85
9950,53.93
9962,46.86
9974,38.4
9986,28.83
9998,18.81
10010,9.25
10021,0.93
10032,-5.58
10044,-10.04
10056,-12.5
10068,-13.31
10080,-13.09
10092,-12.65
10104,-12.78
10116,-13.97
10128,-16.25
10140,-19.16
10152,-22.02
10164,-24.24
10176,-25.6
10188,-26.39
10200,-27.14
10211,-28.35
10222,-30.17
10234,-32.46
10246,-34.96
10258,-37.72
10270,-41.17
10282,-46.03
10294,-52.79
10306,-61.34
10318,-70.77
10330,-79.59
10342,-86.22
10354,-89.49
10366,-88.9
10378,-84.63
10390,-77.29
10401,-67.73
10412,-56.8
10424,-45.36
10436,-34.19
10448,-23.98
10460,-15.26
10472,-8.31
10484,-3.25
10496,0.01
10508,1.63
10520,1.9
10532,1.23
10544,0.14
10556,-0.88
10568,-1.43
10580,-1.3
10591,-0.57
10602,0.5
10614,1.5
10626,1.93
10638,1.35
10650,-0.58
10662,-3.93
10674,-8.42
10686,-13.42
10698,-18.01
10710,-21.22
10722,-22.26
10734,-20.79
10746,-16.97
10758,-11.43
10770,-5.1
10781,1.13
10792,6.52
10804,10.62
10816,13.22
10828,14.28
10840,13.86
10852,12.13
10864,9.37
10876,5.97
10888,2.34
10900,-1.1
10912,-4.07
10924,-6.43
10936,-8.19
10948,-9.48
10960,-10.49
10971,-11.5
10982,-12.85
10994,-14.87
11006,-17.83
11018,-21.67
11030,-25.87
11042,-29.41
11054,-31.03
11066,-29.6
11078,-24.61
11090,-16.38
11102,-6.05
11114,4.9
11126,15.09
11138,23.66
11150,30.33
11161,35.22
11172,38.56
11184,40.52
11196,41.17
11208,40.66
11220,39.31
11232,37.59
11244,35.99
11256,34.82
11268,34.05
11280,33.3
11292,31.97
11304,29.42
11316,25.2
11328,19.11
11340,11.29
11351,2.19
11362,-7.49
11374,-16.81
11386,-24.71
11398,-30.13
11410,-32.21
11422,-30.58
11434,-25.5
11446,-17.86
11458,-8.97
11470,-0.19
11482,7.37
11494,13.11
11506,16.9
11518,18.91
11530,19.4
11541,18.63
11552,16.79
11564,14.11
11576,10.87
11588,7.41
11600,4.03
11612,0.88
11624,-2.03
11636,-4.85
11648,-7.83
11660,-11.24
11672,-15.38
11684,-20.43
11696,-26.33
11708,-32.69
11720,-38.72
11731,-43.41
11742,-45.81
11754,-45.35
11766,-41.94
11778,-36.03
11790,-28.3
11802,-19.52
11814,-10.34
11826,-1.38
11838,6.81
11850,13.72
11862,18.94
11874,22.28
11886,23.84
11898,23.97
11910,23.15
11921,21.88
11932,20.59
11944,19.6
11956,19.08
11968,19.0
11980,19.1
11992,19.01
12004,18.28
12016,16.55
12028,13.67
12040,9.73
12052,5.12
12064,0.42
12076,-3.65
12088,-6.34
12100,-7.05
12111,-5.51
12122,-1.83
12134,3.45
12146,9.6
12158,15.84
12170,21.57
12182,26.38
12194,30.07
12206,32.51
12218,33.59
12230,33.28
12242,31.63
12254,28.89
12266,25.47
12278,21.85
12290,18.46
12301,15.56
12312,13.14
12324,10.99
12336,8.84
12348,6.41
12360,3.49
12372,0.01
12384,-4.04
12396,-8.5
12408,-13.05
12420,-17.09
12432,-19.88
12444,-20.66
12456,-18.87
12468,-14.44
12480,-7.8
12491,0.16
12502,8.38
12514,15.9
12526,21.99
12538,26.3
12550,28.74
12562,29.38
12574,28.47
12586,26.29
12598,23.23
12610,19.71
12622,16.17
12634,12.95
12646,10.28
12658,8.18
12670,6.52
12681,5.06
12692,3.52
12704,1.62
12716,-0.88
12728,-4.16
12740,-8.26
12752,-12.92
12764,-17.56
12776,-21.33
12788,-23.26
12800,-22.63
12812,-19.17
12824,-13.19
12836,-5.55
12848,2.65
12860,10.31
12871,16.65
12882,21.27
12894,24.12
12906,25.35
12918,25.19
12930,23.9
12942,21.69
12954,18.84
12966,15.6
12978,12.27
12990,9.09
13002,6.28
13014,3.93
13026,1.98
13038,0.33
13050,-1.27
13061,-3.04
13072,-5.2
13084,-7.92
13096,-11.24
13108,-15.0
13120,-18.81
13132,-21.99
13144,-23.76
13156,-23.39
13168,-20.46
13180,-15.08
13192,-7.88
13204,0.13
13216,7.86
13228,14.42
13240,19.29
13251,22.34
13262,23.71
13274,23.62
13286,22.29
13298,19.92
13310,16.74
13322,13.03
13334,9.17
13346,5.51
13358,2.31
13370,-0.36
13382,-2.59
13394,-4.54
13406,-6.36
13418,-8.15
13430,-10.02
13441,-12.14
13452,-14.75
13464,-18.0
13476,-21.73
13488,-25.4
13500,-28.08
13512,-28.83
13524,-27.02
13536,-22.64
13548,-16.27
13560,-8.94
13572,-1.7
13584,4.54
13596,9.23
13608,12.15
13620,13.26
13631,12.76
13642,10.95
13654,8.27
13666,5.24
13678,2.35
13690,-0.04
13702,-1.78
13714,-2.89
13726,-3.52
13738,-3.86
13750,-4.08
13762,-4.36
13774,-4.83
13786,-5.67
13798,-7.05
13810,-9.08
13821,-11.74
13832,-14.76
13844,-17.59
13856,-19.48
13868,-19.74
13880,-17.87
13892,-13.88
13904,-8.21
13916,-1.68
13928,4.78
13940,10.38
13952,14.61
13964,17.31
13976,18.57
13988,18.65
14000,17.8
14011,16.3
14022,14.38
14034,12.28
14046,10.25
14058,8.47
14070,7.03
14082,5.86
14094,4.84
14106,3.8
14118,2.63
14130,1.2
14142,-0.61
14154,-2.97
14166,-6.02
14178,-9.81
14190,-14.07
14201,-18.18
14212,-21.3
14224,-22.57
14236,-21.44
14248,-17.86
14260,-12.31
14272,-5.61
14284,1.28
14296,7.54
14308,12.57
14320,16.04
14332,17.87
14344,18.14
14356,17.09
14368,15.03
14380,12.31
14391,9.32
14402,6.41
14414,3.88
14426,1.88
14438,0.44
14450,-0.56
14462,-1.38
14474,-2.24
14486,-3.38
14498,-4.96
14510,-7.13
14522,-9.98
14534,-13.5
14546,-17.44
14558,-21.26
14570,-24.23
14581,-25.57
14592,-24.79
14604,-21.82
14616,-17.13
14628,-11.52
14640,-5.9
14652,-0.99
14664,2.76
14676,5.21
14688,6.43
14700,6.55
14712,5.74
14724,4.19
14736,2.15
14748,-0.07
14760,-2.11
14771,-3.69
14782,-4.7
14794,-5.19
14806,-5.39
14818,-5.52
14830,-5.76
14842,-6.19
14854,-6.88
14866,-7.98
14878,-9.65
14890,-11.98
14902,-14.8
14914,-17.59
14926,-19.51
14938,-19.7
14950,-17.59
14961,-13.17
14972,-7.01
14984,-0.12
14996,6.4
15008,11.75
15020,15.51
15032,17.72
15044,18.67
15056,18.67
15068,17.89
15080,16.38
15092,14.18
15104,11.41
15116,8.42
15128,5.61
15140,3.33
15151,1.7
15162,0.55
15174,-0.45
15186,-1.64
15198,-3.22
15210,-5.24
15222,-7.66
15234,-10.42
15246,-13.43
15258,-16.52
15270,-19.27
15282,-21.01
15294,-21.05
15306,-18.92
15318,-14.61
15330,-8.66
15341,-2.01
15352,4.34
15364,9.64
15376,13.54
15388,16.04
15400,17.3
15412,17.44
15424,16.53
15436,14.62
15448,11.89
15460,8.72
15472,5.6
15484,3.0
15496,1.18
15508,0.08
15520,-0.55
15531,-1.06
15542,-1.77
15554,-2.85
15566,-4.38
15578,-6.4
15590,-8.95
15602,-11.95
15614,-15.11
15626,-17.88
15638,-19.51
15650,-19.33
15662,-16.99
15674,-12.61
15686,-6.8
15698,-0.41
15710,5.71
15721,10.94
15732,14.9
15744,17.44
15756,18.53
15768,18.29
15780,16.99
15792,14.99
15804,12.7
15816,10.45
15828,8.45
15840,6.74
15852,5.3
15864,4.14
15876,3.26
15888,2.63
15900,2.11
15911,1.45
15922,0.34
15934,-1.45
15946,-3.91
15958,-6.81
15970,-9.6
15982,-11.63
15994,-12.21
16006,-10.82
16018,-7.24
16030,-1.67
16042,5.3
16054,12.79
16066,19.85
16078,25.73
16090,30.0
16101,32.56
16112,33.54
16124,33.13
16136,31.51
16148,28.78
16160,25.1
16172,20.78
16184,16.25
16196,11.94
16208,8.18
16220,4.99
16232,2.14
16244,-0.77
16256,-4.14
16268,-8.19
16280,-13.02
16291,-18.52
16302,-24.46
16314,-30.49
16326,-36.07
16338,-40.6
16350,-43.46
16362,-44.26
16374,-42.92
16386,-39.78
16398,-35.36
16410,-30.33
16422,-25.24
16434,-20.52
16446,-16.47
16458,-13.25
16470,-10.92
16481,-9.41
16492,-8.46
16504,-7.74
16516,-6.84
16528,-5.45
16540,-3.39
16552,-0.75
16564,2.22
16576,5.13
16588,7.56
16600,9.13
16612,9.56
16624,8.77
16636,6.81
16648,3.98
16660,0.75
16671,-2.26
16682,-4.37
16694,-5.0
16706,-3.85
16718,-0.98
16730,3.2
16742,7.97
16754,12.6
16766,16.43
16778,19.0
16790,20.03
16802,19.38
16814,17.08
16826,13.31
16838,8.49
16850,3.19
16861,-1.94
16872,-6.31
16884,-9.6
16896,-11.82
16908,-13.29
16920,-14.55
16932,-16.2
16944,-18.78
16956,-22.58
16968,-27.57
16980,-33.33
16992,-39.05
17004,-43.7
17016,-46.25
17028,-46.06
17040,-43.02
17051,-37.64
17062,-30.83
17074,-23.54
17086,-16.53
17098,-10.2
17110,-4.66
17122,0.09
17134,4.01
17146,6.99
17158,8.89
17170,9.7
17182,9.57
17194,8.79
17206,7.73
17218,6.65
17230,5.7
17241,4.84
17252,3.87
17264,2.52
17276,0.49
17288,-2.42
17300,-6.3
17312,-11.01
17324,-16.2
17336,-21.3
17348,-25.56
17360,-28.22
17372,-28.67
17384,-26.67
17396,-22.44
17408,-16.66
17420,-10.19
17431,-3.83
17442,1.93
17454,6.92
17466,11.14
17478,14.61
17490,17.16
17502,18.56
17514,18.67
17526,17.54
17538,15.58
17550,13.31
17562,11.23
17574,9.62
17586,8.4
17598,7.33
17610,6.05
17621,4.3
17632,1.92
17644,-1.18
17656,-5.0
17668,-9.41
17680,-14.02
17692,-18.19
17704,-21.03
17716,-21.69
17728,-19.67
17740,-15.01
17752,-8.36
17764,-0.69
17776,6.97
17788,13.83
17800,19.46
17811,23.73
17822,26.63
17834,28.19
17846,28.43
17858,27.46
17870,25.54
17882,23.08
17894,20.53
17906,18.21
17918,16.19
17930,14.34
17942,12.4
17954,10.15
17966,7.5
17978,4.48
17990,1.12
18001,-2.6
18012,-6.76
18024,-11.36
18036,-16.12
18048,-20.43
18060,-23.4
18072,-24.22
18084,-22.37
18096,-17.88
18108,-11.34
18120,-3.69
18132,4.08
18144,11.11
18156,16.88
18168,21.15
18180,23.89
18191,25.22
18202,25.26
18214,24.24
18226,22.36
18238,19.9
18250,17.16
18262,14.4
18274,11.81
18286,9.45
18298,7.32
18310,5.35
18322,3.47
18334,1.65
18346,-0.21
18358,-2.22
18370,-4.63
18381,-7.68
18392,-11.51
18404,-15.95
18416,-20.46
18428,-24.17
18440,-26.13
18452,-25.62
18464,-22.36
18476,-16.68
18488,-9.33
18500,-1.32
18512,6.46
18524,13.32
18536,18.93
18548,23.15
18560,26.0
18571,27.51
18582,27.77
18594,26.95
18606,25.28
18618,23.04
18630,20.53
18642,17.96
18654,15.44
18666,13.0
18678,10.62
18690,8.32
18702,6.12
18714,4.09
18726,2.27
18738,0.59
18750,-1.13
18761,-3.18
18772,-5.89
18784,-9.5
18796,-14.04
18808,-19.24
18820,-24.47
18832,-28.81
18844,-31.29
18856,-31.15
18868,-28.12
18880,-22.57
18892,-15.3
18904,-7.37
18916,0.32
18928,7.22
18940,13.17
18951,18.19
18962,22.34
18974,25.55
18986,27.67
18998,28.59
19010,28.36
19022,27.24
19034,25.66
19046,24.0
19058,22.55
19070,21.38
19082,20.37
19094,19.3
19106,17.95
19118,16.22
19130,14.16
19141,11.88
19152,9.54
19164,7.21
19176,4.84
19188,2.28
19200,-0.66
19212,-4.07
19224,-8.02
19236,-12.44
19248,-17.2
19260,-22.06
19272,-26.56
19284,-30.07
19296,-31.82
19308,-31.17
19320,-27.83
19331,-22.09
19342,-14.76
19354,-6.88
19366,0.62
19378,7.17
19390,12.61
19402,17.02
19414,20.47
19426,22.93
19438,24.23
19450,24.32
19462,23.3
19474,21.56
19486,19.57
19498,17.79
19510,16.45
19521,15.54
19532,14.83
19544,13.99
19556,12.77
19568,11.06
19580,8.9
19592,6.48
19604,4.0
19616,1.6
19628,-0.74
19640,-3.13
19652,-5.72
19664,-8.61
19676,-11.85
19688,-15.42
19700,-19.26
19711,-23.3
19722,-27.35
19734,-30.99
19746,-33.64
19758,-34.6
19770,-33.33
19782,-29.63
19794,-23.76
19806,-16.39
19818,-8.38
19830,-0.57
19842,6.43
19854,12.29
19866,16.89
19878,20.22
19890,22.31
19901,23.23
19912,23.06
19924,21.99
19936,20.31
19948,18.4
19960,16.62
19972,15.17
19984,14.1
19996,13.25
20008,12.34
20020,11.15
20032,9.56
20044,7.56
20056,5.29
20068,2.88
20080,0.4
20091,-2.11
20102,-4.71
20114,-7.42
20126,-10.28
20138,-13.31
20150,-16.6
20162,-20.25
20174,-24.31
20186,-28.66
20198,-32.89
20210,-36.36
20222,-38.31
20234,-38.11
20246,-35.52
20258,-30.78
20270,-24.52
20281,-17.53
20292,-10.52
20304,-3.89
20316,2.16
20328,7.55
20340,12.15
20352,15.72
20364,18.0
20376,18.89
20388,18.57
20400,17.44
20412,16.02
20424,14.73
20436,13.76
20448,13.05
20460,12.4
20471,11.59
20482,10.53
20494,9.25
20506,7.83
20518,6.35
20530,4.81
20542,3.09
20554,1.06
20566,-1.39
20578,-4.39
20590,-7.96
20602,-12.06
20614,-16.5
20626,-20.9
20638,-24.68
20650,-27.18
20661,-27.78
20672,-26.13
20684,-22.29
20696,-16.67
20708,-9.96
20720,-2.89
20732,3.9
20744,9.93
20756,14.85
20768,18.4
20780,20.47
20792,21.07
20804,20.4
20816,18.77
20828,16.61
20840,14.32
20851,12.19
20862,10.38
20874,8.89
20886,7.62
20898,6.43
20910,5.22
20922,3.94
20934,2.66
20946,1.44
20958,0.27
20970,-1.0
20982,-2.6
20994,-4.85
