seconds,BVP
0,5.08
12,4.57
24,3.8
36,2.91
48,2.11
60,1.54
72,1.22
84,1.02
96,0.74
108,0.25
119,-0.47
130,-1.38
142,-2.39
154,-3.51
166,-4.82
178,-6.39
190,-8.19
202,-9.99
214,-11.43
226,-12.12
238,-11.79
250,-10.44
262,-8.28
274,-5.72
286,-3.14
298,-0.81
309,1.11
320,2.65
332,3.85
344,4.73
356,5.28
368,5.5
380,5.44
392,5.18
404,4.83
416,4.5
428,4.21
440,3.94
452,3.58
464,3.03
476,2.24
488,1.21
499,0.06
510,-1.09
522,-2.1
534,-2.94
546,-3.7
558,-4.53
570,-5.59
582,-6.99
594,-8.78
606,-10.95
618,-13.4
630,-15.97
642,-18.35
654,-20.16
666,-21.0
678,-20.62
689,-19.01
700,-16.45
712,-13.36
724,-10.19
736,-7.19
748,-4.49
760,-2.06
772,0.11
784,1.94
796,3.3
808,4.09
820,4.32
832,4.13
844,3.78
856,3.45
868,3.23
879,3.06
890,2.78
902,2.24
914,1.41
926,0.39
938,-0.65
950,-1.53
962,-2.17
974,-2.62
986,-3.03
998,-3.56
1010,-4.32
1022,-5.38
1034,-6.77
1046,-8.54
1058,-10.74
1069,-13.35
1080,-16.14
1092,-18.68
1104,-20.37
1116,-20.67
1128,-19.3
1140,-16.35
1152,-12.3
1164,-7.8
1176,-3.47
1188,0.27
1200,3.31
1212,5.69
1224,7.51
1236,8.83
1248,9.63
1259,9.9
1270,9.71
1282,9.24
1294,8.74
1306,8.44
1318,8.44
1330,8.66
1342,8.92
1354,9.03
1366,8.85
1378,8.41
1390,7.8
1402,7.16
1414,6.56
1426,5.92
1438,5.1
1449,3.94
1460,2.32
1472,0.2
1484,-2.36
1496,-5.26
1508,-8.37
1520,-11.51
1532,-14.44
1544,-16.83
1556,-18.26
1568,-18.39
1580,-17.02
1592,-14.19
1604,-10.22
1616,-5.59
1628,-0.89
1639,3.38
1650,6.89
1662,9.5
1674,11.26
1686,12.3
1698,12.75
1710,12.74
1722,12.39
1734,11.85
1746,11.34
1758,11.08
1770,11.17
1782,11.6
1794,12.16
1806,12.55
1818,12.51
1829,11.97
1840,11.04
1852,9.97
1864,9.03
1876,8.35
1888,7.89
1900,7.45
1912,6.77
1924,5.63
1936,3.89
1948,1.53
1960,-1.38
1972,-4.62
1984,-7.91
1996,-10.84
2008,-12.94
2019,-13.83
2030,-13.29
2042,-11.34
2054,-8.33
2066,-4.74
2078,-1.1
2090,2.23
2102,5.11
2114,7.54
2126,9.6
2138,11.26
2150,12.42
2162,12.95
2174,12.85
2186,12.24
2198,11.41
2209,10.68
2220,10.24
2232,10.15
2244,10.26
2256,10.39
2268,10.37
2280,10.1
2292,9.62
2304,8.99
2316,8.34
2328,7.72
2340,7.17
2352,6.65
2364,6.07
2376,5.31
2388,4.23
2399,2.71
2410,0.72
2422,-1.67
2434,-4.27
2446,-6.79
2458,-8.89
2470,-10.23
2482,-10.58
2494,-9.84
2506,-8.09
2518,-5.54
2530,-2.52
2542,0.61
2554,3.51
2566,5.96
2578,7.85
2589,9.19
2600,10.06
2612,10.57
2624,10.82
2636,10.89
2648,10.83
2660,10.71
2672,10.57
2684,10.48
2696,10.46
2708,10.5
2720,10.54
2732,10.49
2744,10.21
2756,9.63
2768,8.77
2779,7.74
2790,6.67
2802,5.71
2814,4.86
2826,4.05
2838,3.13
2850,1.98
2862,0.5
2874,-1.35
2886,-3.54
2898,-5.97
2910,-8.47
2922,-10.72
2934,-12.32
2946,-12.91
2958,-12.27
2969,-10.4
2980,-7.57
2992,-4.16
3004,-0.6
3016,2.72
3028,5.48
3040,7.44
3052,8.46
3064,8.53
3076,7.79
3088,6.57
3100,5.28
3112,4.3
3124,3.84
3136,3.84
3148,4.08
3159,4.25
3170,4.13
3182,3.67
3194,2.92
3206,2.01
3218,1.03
3230,0.04
3242,-0.9
3254,-1.75
3266,-2.41
3278,-2.88
3290,-3.26
3302,-3.78
3314,-4.74
3326,-6.41
3338,-8.82
3349,-11.7
3360,-14.57
3372,-16.85
3384,-18.05
3396,-17.88
3408,-16.36
3420,-13.73
3432,-10.39
3444,-6.77
3456,-3.26
3468,-0.15
3480,2.42
3492,4.42
3504,5.87
3516,6.81
3528,7.27
3539,7.28
3550,6.94
3562,6.39
3574,5.84
3586,5.49
3598,5.43
3610,5.65
3622,5.99
3634,6.26
3646,6.3
3658,6.01
3670,5.38
3682,4.43
3694,3.26
3706,1.94
3718,0.57
3729,-0.79
3740,-2.1
3752,-3.4
3764,-4.74
3776,-6.25
3788,-8.02
3800,-10.11
3812,-12.47
3824,-14.85
3836,-16.91
3848,-18.2
3860,-18.34
3872,-17.15
3884,-14.71
3896,-11.36
3908,-7.59
3919,-3.85
3930,-0.49
3942,2.33
3954,4.55
3966,6.21
3978,7.36
3990,8.07
4002,8.43
4014,8.52
4026,8.42
4038,8.24
4050,8.03
4062,7.82
4074,7.62
4086,7.43
4098,7.26
4109,7.13
4120,7.06
4132,7.07
4144,7.09
4156,7.02
4168,6.68
4180,5.97
4192,4.88
4204,3.55
4216,2.14
4228,0.82
4240,-0.44
4252,-1.8
4264,-3.51
4276,-5.73
4288,-8.4
4299,-11.18
4310,-13.53
4322,-14.91
4334,-14.97
4346,-13.62
4358,-11.12
4370,-7.88
4382,-4.37
4394,-0.99
4406,2.0
4418,4.45
4430,6.3
4442,7.52
4454,8.12
4466,8.14
4478,7.69
4489,6.93
4500,6.1
4512,5.39
4524,4.93
4536,4.76
4548,4.8
4560,4.94
4572,5.05
4584,5.06
4596,4.95
4608,4.74
4620,4.46
4632,4.13
4644,3.73
4656,3.24
4668,2.61
4679,1.84
4690,0.93
4702,-0.1
4714,-1.24
4726,-2.52
4738,-4.02
4750,-5.86
4762,-8.03
4774,-10.36
4786,-12.47
4798,-13.89
4810,-14.21
4822,-13.28
4834,-11.29
4846,-8.66
4858,-5.86
4869,-3.25
4880,-0.95
4892,1.03
4904,2.77
4916,4.22
4928,5.27
4940,5.8
4952,5.79
4964,5.37
4976,4.79
4988,4.33
5000,4.12
5012,4.13
5024,4.19
5036,4.07
5048,3.65
5059,2.93
5070,2.05
5082,1.22
5094,0.54
5106,0.04
5118,-0.35
5130,-0.73
5142,-1.17
5154,-1.65
5166,-2.14
5178,-2.66
5190,-3.27
5202,-4.12
5214,-5.32
5226,-6.9
5238,-8.71
5249,-10.45
5260,-11.78
5272,-12.42
5284,-12.23
5296,-11.27
5308,-9.72
5320,-7.82
5332,-5.73
5344,-3.61
5356,-1.56
5368,0.31
5380,1.84
5392,2.89
5404,3.44
5416,3.53
5428,3.36
5439,3.1
5450,2.89
5462,2.73
5474,2.53
5486,2.15
5498,1.55
5510,0.73
5522,-0.19
5534,-1.06
5546,-1.77
5558,-2.27
5570,-2.62
5582,-2.96
5594,-3.42
5606,-4.1
5618,-5.03
5629,-6.18
5640,-7.5
5652,-8.95
5664,-10.58
5676,-12.39
5688,-14.3
5700,-16.01
5712,-17.13
5724,-17.26
5736,-16.22
5748,-14.16
5760,-11.45
5772,-8.55
5784,-5.77
5796,-3.2
5808,-0.81
5819,1.4
5830,3.32
5842,4.7
5854,5.32
5866,5.16
5878,4.44
5890,3.55
5902,2.85
5914,2.55
5926,2.6
5938,2.83
5950,3.02
5962,3.07
5974,2.96
5986,2.74
5998,2.4
6009,1.91
6020,1.21
6032,0.28
6044,-0.84
6056,-2.04
6068,-3.27
6080,-4.58
6092,-6.16
6104,-8.22
6116,-10.84
6128,-13.83
6140,-16.7
6152,-18.83
6164,-19.67
6176,-18.98
6188,-16.92
6199,-13.93
6210,-10.56
6222,-7.24
6234,-4.2
6246,-1.47
6258,0.98
6270,3.13
6282,4.89
6294,6.12
6306,6.73
6318,6.74
6330,6.3
6342,5.63
6354,4.96
6366,4.47
6378,4.24
6389,4.27
6400,4.52
6412,4.87
6424,5.19
6436,5.33
6448,5.2
6460,4.73
6472,3.93
6484,2.86
6496,1.59
6508,0.2
6520,-1.29
6532,-2.94
6544,-4.88
6556,-7.23
6568,-9.99
6579,-12.98
6590,-15.76
6602,-17.81
6614,-18.6
6626,-17.84
6638,-15.57
6650,-12.09
6662,-7.89
6674,-3.46
6686,0.8
6698,4.65
6710,7.97
6722,10.65
6734,12.59
6746,13.71
6758,14.03
6769,13.68
6780,12.9
6792,12.0
6804,11.23
6816,10.73
6828,10.48
6840,10.37
6852,10.25
6864,9.98
6876,9.49
6888,8.84
6900,8.14
6912,7.51
6924,7.02
6936,6.59
6948,6.08
6959,5.32
6970,4.14
6982,2.46
6994,0.3
7006,-2.25
7018,-5.06
7030,-7.95
7042,-10.66
7054,-12.8
7066,-13.95
7078,-13.78
7090,-12.18
7102,-9.38
7114,-5.84
7126,-2.09
7138,1.45
7149,4.58
7160,7.24
7172,9.43
7184,11.1
7196,12.19
7208,12.62
7220,12.47
7232,11.93
7244,11.29
7256,10.75
7268,10.42
7280,10.21
7292,10.05
7304,9.87
7316,9.72
7328,9.67
7339,9.74
7350,9.8
7362,9.67
7374,9.16
7386,8.21
7398,6.95
7410,5.58
7422,4.28
7434,3.08
7446,1.85
7458,0.38
7470,-1.48
7482,-3.69
7494,-6.0
7506,-8.02
7518,-9.34
7529,-9.66
7540,-8.91
7552,-7.19
7564,-4.73
7576,-1.87
7588,1.05
7600,3.7
7612,5.85
7624,7.35
7636,8.21
7648,8.53
7660,8.47
7672,8.21
7684,7.88
7696,7.52
7708,7.14
7719,6.73
7730,6.25
7742,5.71
7754,5.11
7766,4.51
7778,3.93
7790,3.42
7802,3.02
7814,2.79
7826,2.7
7838,2.65
7850,2.46
7862,1.94
7874,0.92
7886,-0.66
7898,-2.74
7909,-5.14
7920,-7.54
7932,-9.59
7944,-10.95
7956,-11.39
7968,-10.81
7980,-9.29
7992,-7.06
8004,-4.39
8016,-1.62
8028,0.98
8040,3.19
8052,4.89
8064,6.02
8076,6.65
8088,6.87
8099,6.83
8110,6.66
8122,6.41
8134,6.1
8146,5.72
8158,5.24
8170,4.69
8182,4.08
8194,3.37
8206,2.56
8218,1.64
8230,0.67
8242,-0.25
8254,-1.01
8266,-1.62
8278,-2.24
8289,-3.11
8300,-4.48
8312,-6.47
8324,-9.02
8336,-11.89
8348,-14.74
8360,-17.17
8372,-18.83
8384,-19.44
8396,-18.83
8408,-17.06
8420,-14.35
8432,-11.08
8444,-7.63
8456,-4.33
8468,-1.35
8479,1.2
8490,3.28
8502,4.77
8514,5.6
8526,5.77
8538,5.39
8550,4.71
8562,4.03
8574,3.6
8586,3.46
8598,3.5
8610,3.46
8622,3.11
8634,2.38
8646,1.35
8658,0.26
8669,-0.63
8680,-1.16
8692,-1.42
8704,-1.65
8716,-2.16
8728,-3.28
8740,-5.16
8752,-7.82
8764,-11.07
8776,-14.55
8788,-17.8
8800,-20.28
8812,-21.51
8824,-21.17
8836,-19.28
8848,-16.08
8859,-12.07
8870,-7.79
8882,-3.68
8894,-0.05
8906,2.96
8918,5.32
8930,7.04
8942,8.15
8954,8.7
8966,8.82
8978,8.64
8990,8.38
9002,8.18
9014,8.11
9026,8.12
9038,8.06
9049,7.79
9060,7.28
9072,6.63
9084,5.98
9096,5.42
9108,4.94
9120,4.37
9132,3.52
9144,2.27
9156,0.64
9168,-1.3
9180,-3.5
9192,-5.98
9204,-8.76
9216,-11.73
9228,-14.56
9239,-16.7
9250,-17.62
9262,-16.98
9274,-14.85
9286,-11.57
9298,-7.64
9310,-3.5
9322,0.56
9334,4.39
9346,7.86
9358,10.76
9370,12.84
9382,13.95
9394,14.1
9406,13.55
9418,12.69
9429,11.93
9440,11.54
9452,11.6
9464,11.94
9476,12.3
9488,12.38
9500,12.02
9512,11.18
9524,10.0
9536,8.73
9548,7.59
9560,6.72
9572,6.13
9584,5.71
9596,5.2
9608,4.36
9619,2.95
9630,0.86
9642,-1.87
9654,-5.03
9666,-8.21
9678,-10.93
9690,-12.74
9702,-13.33
9714,-12.58
9726,-10.63
9738,-7.77
9750,-4.39
9762,-0.86
9774,2.48
9786,5.4
9798,7.77
9809,9.54
9820,10.78
9832,11.58
9844,12.03
9856,12.25
9868,12.3
9880,12.28
9892,12.26
9904,12.27
9916,12.26
9928,12.19
9940,11.97
9952,11.6
9964,11.13
9976,10.68
9988,10.3
9999,9.97
10010,9.59
10022,8.98
10034,8.02
10046,6.65
10058,4.89
10070,2.81
10082,0.45
10094,-2.11
10106,-4.74
10118,-7.24
10130,-9.32
10142,-10.7
10154,-11.18
10166,-10.69
10178,-9.33
10189,-7.25
10200,-4.65
10212,-1.78
10224,1.11
10236,3.73
10248,5.79
10260,7.14
10272,7.77
10284,7.83
10296,7.57
10308,7.21
10320,6.85
10332,6.48
10344,6.06
10356,5.55
10368,4.99
10379,4.48
10390,4.05
10402,3.71
10414,3.38
10426,2.97
10438,2.45
10450,1.87
10462,1.3
10474,0.84
10486,0.5
10498,0.17
10510,-0.33
10522,-1.21
10534,-2.6
10546,-4.49
10558,-6.64
10569,-8.72
10580,-10.32
10592,-11.11
10604,-10.97
10616,-9.91
10628,-8.13
10640,-5.85
10652,-3.32
10664,-0.76
10676,1.62
10688,3.63
10700,5.12
10712,6.0
10724,6.29
10736,6.06
10748,5.49
10759,4.74
10770,4.0
10782,3.39
10794,2.99
10806,2.77
10818,2.68
10830,2.62
10842,2.5
10854,2.3
10866,2.0
10878,1.64
10890,1.15
10902,0.45
10914,-0.59
10926,-2.06
10938,-3.97
10949,-6.22
10960,-8.71
10972,-11.29
10984,-13.82
10996,-16.12
11008,-17.93
11020,-18.96
11032,-18.99
11044,-17.94
11056,-15.95
11068,-13.28
11080,-10.24
11092,-7.11
11104,-4.02
11116,-1.12
11128,1.48
11139,3.57
11150,4.98
11162,5.61
11174,5.55
11186,5.02
11198,4.34
11210,3.79
11222,3.51
11234,3.49
11246,3.61
11258,3.69
11270,3.55
11282,3.14
11294,2.46
11306,1.61
11318,0.66
11329,-0.33
11340,-1.38
11352,-2.54
11364,-3.84
11376,-5.31
11388,-6.98
11400,-8.94
11412,-11.25
11424,-13.86
11436,-16.49
11448,-18.63
11460,-19.7
11472,-19.3
11484,-17.39
11496,-14.36
11508,-10.78
11519,-7.22
11530,-3.99
11542,-1.16
11554,1.35
11566,3.6
11578,5.5
11590,6.92
11602,7.73
11614,7.98
11626,7.86
11638,7.63
11650,7.54
11662,7.62
11674,7.76
11686,7.75
11698,7.44
11709,6.77
11720,5.89
11732,5.02
11744,4.32
11756,3.87
11768,3.54
11780,3.14
11792,2.47
11804,1.39
11816,-0.12
11828,-2.03
11840,-4.3
11852,-6.89
11864,-9.7
11876,-12.54
11888,-15.07
11899,-16.85
11910,-17.51
11922,-16.81
11934,-14.78
11946,-11.68
11958,-7.92
11970,-3.95
11982,-0.11
11994,3.34
12006,6.23
12018,8.47
12030,9.98
12042,10.77
12054,10.92
12066,10.64
12078,10.21
12089,9.91
12100,9.92
12112,10.25
12124,10.73
12136,11.05
12148,10.97
12160,10.38
12172,9.36
12184,8.13
12196,6.9
12208,5.77
12220,4.69
12232,3.59
12244,2.42
12256,1.2
12268,-0.02
12279,-1.3
12290,-2.81
12302,-4.77
12314,-7.28
12326,-10.15
12338,-12.89
12350,-14.89
12362,-15.59
12374,-14.77
12386,-12.54
12398,-9.34
12410,-5.69
12422,-2.07
12434,1.22
12446,4.01
12458,6.31
12469,8.14
12480,9.51
12492,10.4
12504,10.79
12516,10.74
12528,10.38
12540,9.93
12552,9.63
12564,9.61
12576,9.84
12588,10.18
12600,10.41
12612,10.4
12624,10.15
12636,9.75
12648,9.3
12659,8.81
12670,8.19
12682,7.33
12694,6.14
12706,4.67
12718,3.0
12730,1.22
12742,-0.64
12754,-2.65
12766,-4.82
12778,-7.07
12790,-9.12
12802,-10.58
12814,-11.15
12826,-10.68
12838,-9.28
12849,-7.23
12860,-4.84
12872,-2.36
12884,0.09
12896,2.42
12908,4.57
12920,6.42
12932,7.86
12944,8.78
12956,9.13
12968,8.99
12980,8.5
12992,7.83
13004,7.13
13016,6.48
13028,5.89
13039,5.33
13050,4.78
13062,4.26
13074,3.8
13086,3.46
13098,3.2
13110,2.96
13122,2.62
13134,2.11
13146,1.43
13158,0.64
13170,-0.22
13182,-1.18
13194,-2.31
13206,-3.7
13218,-5.27
13229,-6.83
13240,-8.01
13252,-8.46
13264,-7.97
13276,-6.53
13288,-4.36
13300,-1.78
13312,0.88
13324,3.35
13336,5.48
13348,7.16
13360,8.34
13372,9.03
13384,9.3
13396,9.26
13408,9.08
13419,8.9
13430,8.78
13442,8.67
13454,8.42
13466,7.84
13478,6.84
13490,5.47
13502,3.88
13514,2.31
13526,0.92
13538,-0.21
13550,-1.15
13562,-2.04
13574,-3.04
13586,-4.23
13598,-5.66
13609,-7.31
13620,-9.19
13632,-11.32
13644,-13.69
13656,-16.15
13668,-18.41
13680,-20.09
13692,-20.82
13704,-20.41
13716,-18.92
13728,-16.64
13740,-13.95
13752,-11.16
13764,-8.47
13776,-5.97
13788,-3.74
13799,-1.87
13810,-0.49
13822,0.31
13834,0.56
13846,0.4
13858,0.07
13870,-0.25
13882,-0.43
13894,-0.43
13906,-0.28
13918,-0.04
13930,0.23
13942,0.46
13954,0.54
13966,0.41
13978,0.02
13989,-0.64
14000,-1.54
14012,-2.66
14024,-4.01
14036,-5.65
14048,-7.63
14060,-9.98
14072,-12.58
14084,-15.17
14096,-17.33
14108,-18.6
14120,-18.64
14132,-17.32
14144,-14.82
14156,-11.53
14168,-7.9
14179,-4.28
14190,-0.91
14202,2.08
14214,4.6
14226,6.48
14238,7.56
14250,7.79
14262,7.31
14274,6.48
14286,5.75
14298,5.48
14310,5.76
14322,6.47
14334,7.29
14346,7.94
14358,8.29
14369,8.35
14380,8.23
14392,8.04
14404,7.79
14416,7.44
14428,6.96
14440,6.31
14452,5.5
14464,4.47
14476,3.11
14488,1.23
14500,-1.25
14512,-4.17
14524,-7.13
14536,-9.52
14548,-10.76
14559,-10.51
14570,-8.84
14582,-6.16
14594,-3.08
14606,-0.17
14618,2.18
14630,3.82
14642,4.81
14654,5.28
14666,5.37
14678,5.19
14690,4.81
14702,4.29
14714,3.69
14726,3.12
14738,2.76
14749,2.74
14760,3.15
14772,3.91
14784,4.78
14796,5.48
14808,5.77
14820,5.6
14832,5.04
14844,4.26
14856,3.37
14868,2.34
14880,1.08
14892,-0.5
14904,-2.42
14916,-4.59
14928,-6.84
14939,-8.97
14950,-10.74
14962,-11.88
14974,-12.12
14986,-11.27
14998,-9.3
15010,-6.43
15022,-3.01
15034,0.54
15046,3.89
15058,6.86
15070,9.36
15082,11.37
15094,12.85
15106,13.71
15118,13.89
15129,13.43
15140,12.46
15152,11.24
15164,10.05
15176,9.13
15188,8.59
15200,8.34
15212,8.2
15224,7.92
15236,7.35
15248,6.47
15260,5.41
15272,4.39
15284,3.56
15296,3.0
15308,2.6
15319,2.19
15330,1.52
15342,0.43
15354,-1.16
15366,-3.15
15378,-5.22
15390,-6.93
15402,-7.87
15414,-7.76
15426,-6.59
15438,-4.57
15450,-2.05
15462,0.7
15474,3.48
15486,6.21
15498,8.8
15509,11.12
15520,12.92
15532,13.97
15544,14.12
15556,13.45
15568,12.24
15580,10.85
15592,9.65
15604,8.85
15616,8.46
15628,8.32
15640,8.17
15652,7.8
15664,7.11
15676,6.16
15688,5.15
15699,4.24
15710,3.51
15722,2.93
15734,2.35
15746,1.56
15758,0.41
15770,-1.19
15782,-3.26
15794,-5.66
15806,-8.17
15818,-10.45
15830,-12.09
15842,-12.8
15854,-12.41
15866,-10.97
15878,-8.74
15889,-6.06
15900,-3.29
15912,-0.77
15924,1.25
15936,2.6
15948,3.24
15960,3.24
15972,2.84
15984,2.36
15996,2.06
16008,2.05
16020,2.26
16032,2.52
16044,2.66
16056,2.64
16068,2.5
16079,2.3
16090,2.06
16102,1.74
16114,1.25
16126,0.58
16138,-0.26
16150,-1.21
16162,-2.21
16174,-3.27
16186,-4.48
16198,-5.9
16210,-7.52
16222,-9.19
16234,-10.63
16246,-11.53
16258,-11.68
16269,-11.0
16280,-9.61
16292,-7.71
16304,-5.51
16316,-3.2
16328,-0.93
16340,1.13
16352,2.81
16364,3.97
16376,4.55
16388,4.62
16400,4.35
16412,3.99
16424,3.7
16436,3.52
16448,3.36
16459,3.08
16470,2.59
16482,1.85
16494,0.94
16506,-0.03
16518,-0.93
16530,-1.7
16542,-2.32
16554,-2.86
16566,-3.44
16578,-4.19
16590,-5.24
16602,-6.66
16614,-8.49
16626,-10.61
16638,-12.79
16649,-14.68
16660,-15.85
16672,-15.98
16684,-14.94
16696,-12.88
16708,-10.18
16720,-7.24
16732,-4.37
16744,-1.72
16756,0.69
16768,2.85
16780,4.65
16792,5.92
16804,6.49
16816,6.32
16828,5.56
16839,4.48
16850,3.43
16862,2.6
16874,2.04
16886,1.66
16898,1.28
16910,0.8
16922,0.19
16934,-0.47
16946,-1.06
16958,-1.54
16970,-1.94
16982,-2.4
16994,-2.99
17006,-3.78
17018,-4.77
17029,-5.95
17040,-7.38
17052,-9.09
17064,-11.05
17076,-13.04
17088,-14.68
17100,-15.52
17112,-15.2
17124,-13.6
17136,-10.93
17148,-7.61
17160,-4.12
17172,-0.86
17184,1.91
17196,4.11
17208,5.73
17219,6.8
17230,7.36
17242,7.47
17254,7.19
17266,6.6
17278,5.85
17290,5.12
17302,4.58
17314,4.34
17326,4.37
17338,4.52
17350,4.6
17362,4.46
17374,4.08
17386,3.54
17398,2.94
17409,2.3
17420,1.54
17432,0.54
17444,-0.8
17456,-2.52
17468,-4.55
17480,-6.8
17492,-9.16
17504,-11.48
17516,-13.5
17528,-14.88
17540,-15.25
17552,-14.37
17564,-12.25
17576,-9.21
17588,-5.69
17599,-2.19
17610,0.96
17622,3.56
17634,5.58
17646,7.02
17658,7.9
17670,8.26
17682,8.12
17694,7.57
17706,6.77
17718,5.89
17730,5.14
17742,4.63
17754,4.4
17766,4.37
17778,4.39
17789,4.32
17800,4.12
17812,3.83
17824,3.55
17836,3.31
17848,3.02
17860,2.53
17872,1.68
17884,0.44
17896,-1.03
17908,-2.5
17920,-3.83
17932,-5.07
17944,-6.4
17956,-8.0
17968,-9.8
17979,-11.45
17990,-12.39
18002,-12.18
18014,-10.65
18026,-8.06
18038,-4.9
18050,-1.67
18062,1.24
18074,3.69
18086,5.64
18098,7.05
18110,7.91
18122,8.13
18134,7.78
18146,7.01
18158,6.07
18169,5.2
18180,4.56
18192,4.19
18204,4.07
18216,4.14
18228,4.28
18240,4.38
18252,4.26
18264,3.82
18276,3.04
18288,2.06
18300,1.11
18312,0.4
18324,0.0
18336,-0.19
18348,-0.4
18359,-0.9
18370,-1.8
18382,-3.12
18394,-4.72
18406,-6.42
18418,-8.06
18430,-9.45
18442,-10.39
18454,-10.7
18466,-10.22
18478,-8.91
18490,-6.9
18502,-4.46
18514,-1.92
18526,0.42
18538,2.37
18549,3.87
18560,4.94
18572,5.63
18584,5.99
18596,6.05
18608,5.84
18620,5.47
18632,5.07
18644,4.78
18656,4.69
18668,4.77
18680,4.9
18692,4.89
18704,4.61
18716,4.06
18728,3.36
18739,2.65
18750,2.08
18762,1.7
18774,1.46
18786,1.24
18798,0.9
18810,0.35
18822,-0.5
18834,-1.67
18846,-3.2
18858,-5.04
18870,-7.06
18882,-8.98
18894,-10.47
18906,-11.17
18918,-10.92
18929,-9.78
18940,-8.01
18952,-5.97
18964,-3.94
18976,-2.08
18988,-0.4
19000,1.13
19012,2.45
19024,3.48
19036,4.11
19048,4.32
19060,4.22
19072,3.93
19084,3.6
19096,3.27
19108,2.93
19119,2.51
19130,2.02
19142,1.51
19154,1.05
19166,0.68
19178,0.4
19190,0.19
19202,0.03
19214,-0.1
19226,-0.3
19238,-0.66
19250,-1.34
19262,-2.43
19274,-3.91
19286,-5.64
19298,-7.37
19309,-8.84
19320,-9.86
19332,-10.34
19344,-10.29
19356,-9.78
19368,-8.87
19380,-7.61
19392,-6.03
19404,-4.18
19416,-2.16
19428,-0.09
19440,1.83
19452,3.41
19464,4.46
19476,4.87
19488,4.7
19499,4.12
19510,3.37
19522,2.66
19534,2.09
19546,1.62
19558,1.12
19570,0.42
19582,-0.56
19594,-1.8
19606,-3.16
19618,-4.44
19630,-5.47
19642,-6.16
19654,-6.56
19666,-6.8
19678,-7.06
19689,-7.53
19700,-8.35
19712,-9.6
19724,-11.22
19736,-13.04
19748,-14.77
19760,-16.02
19772,-16.46
19784,-15.92
19796,-14.41
19808,-12.13
19820,-9.42
19832,-6.61
19844,-3.95
19856,-1.61
19868,0.35
19879,1.85
19890,2.83
19902,3.28
19914,3.25
19926,2.87
19938,2.35
19950,1.91
19962,1.71
19974,1.75
19986,1.92
19998,1.98
20010,1.7
20022,0.97
20034,-0.18
20046,-1.56
20058,-2.95
20069,-4.17
20080,-5.21
20092,-6.18
20104,-7.25
20116,-8.57
20128,-10.18
20140,-12.05
20152,-14.06
20164,-16.07
20176,-17.91
20188,-19.32
20200,-20.04
20212,-19.79
20224,-18.42
20236,-15.96
20248,-12.62
20259,-8.77
20270,-4.81
20282,-1.08
20294,2.17
20306,4.73
20318,6.51
20330,7.46
20342,7.67
20354,7.34
20366,6.76
20378,6.18
20390,5.75
20402,5.53
20414,5.46
20426,5.46
20438,5.44
20449,5.35
20460,5.11
20472,4.64
20484,3.89
20496,2.85
20508,1.59
20520,0.24
20532,-1.08
20544,-2.31
20556,-3.51
20568,-4.88
20580,-6.59
20592,-8.72
20604,-11.12
20616,-13.42
20628,-15.07
20639,-15.59
20650,-14.7
20662,-12.4
20674,-9.02
20686,-5.02
20698,-0.89
20710,3.03
20722,6.51
20734,9.44
20746,11.76
20758,13.38
20770,14.28
20782,14.48
20794,14.15
20806,13.52
20818,12.86
20829,12.38
20840,12.17
20852,12.14
20864,12.12
20876,11.93
20888,11.43
20900,10.61
20912,9.58
20924,8.49
20936,7.53
20948,6.77
20960,6.15
20972,5.54
20984,4.71
20996,3.48
