seconds,BVP
5,3.74
17,3.4
29,3.2
41,3.09
52,3.01
63,2.92
75,2.81
87,2.7
99,2.53
111,2.32
123,1.99
135,1.56
147,1.03
159,0.48
171,-0.05
183,-0.56
195,-1.1
207,-1.77
219,-2.61
231,-3.63
242,-4.78
253,-5.94
265,-7.03
277,-7.99
289,-8.78
301,-9.36
313,-9.67
325,-9.65
337,-9.25
349,-8.48
361,-7.41
373,-6.16
385,-4.9
397,-3.72
409,-2.66
421,-1.66
432,-0.59
443,0.59
455,1.84
467,3.05
479,4.1
491,4.95
503,5.63
515,6.25
527,6.91
539,7.67
551,8.46
563,9.15
575,9.6
587,9.64
599,9.16
611,8.16
622,6.73
633,5.07
645,3.41
657,1.92
669,0.64
681,-0.46
693,-1.46
705,-2.43
717,-3.34
729,-4.12
741,-4.74
753,-5.22
765,-5.61
777,-6.01
789,-6.41
801,-6.75
812,-6.94
823,-6.9
835,-6.64
847,-6.27
859,-5.92
871,-5.72
883,-5.7
895,-5.86
907,-6.14
919,-6.54
931,-7.12
943,-7.96
955,-9.13
967,-10.61
979,-12.24
991,-13.8
1002,-15.01
1013,-15.66
1025,-15.63
1037,-14.96
1049,-13.79
1061,-12.34
1073,-10.84
1085,-9.49
1097,-8.4
1109,-7.53
1121,-6.7
1133,-5.74
1145,-4.53
1157,-3.04
1169,-1.34
1181,0.46
1192,2.25
1203,3.9
1215,5.25
1227,6.19
1239,6.57
1251,6.44
1263,5.96
1275,5.41
1287,5.01
1299,4.94
1311,5.23
1323,5.78
1335,6.45
1347,6.99
1359,7.24
1371,7.11
1382,6.63
1393,5.93
1405,5.28
1417,4.87
1429,4.78
1441,5.0
1453,5.33
1465,5.65
1477,5.92
1489,6.15
1501,6.38
1513,6.57
1525,6.56
1537,6.2
1549,5.46
1561,4.4
1572,3.27
1583,2.28
1595,1.48
1607,0.9
1619,0.41
1631,-0.09
1643,-0.67
1655,-1.34
1667,-2.1
1679,-2.92
1691,-3.75
1703,-4.51
1715,-5.04
1727,-5.19
1739,-4.89
1751,-4.2
1762,-3.24
1773,-2.19
1785,-1.19
1797,-0.28
1809,0.54
1821,1.32
1833,2.12
1845,2.94
1857,3.78
1869,4.68
1881,5.62
1893,6.57
1905,7.48
1917,8.25
1929,8.86
1941,9.29
1952,9.63
1963,9.97
1975,10.38
1987,10.88
1999,11.42
2011,11.86
2023,12.1
2035,12.07
2047,11.74
2059,11.13
2071,10.37
2083,9.51
2095,8.57
2107,7.57
2119,6.49
2131,5.34
2142,4.19
2153,3.16
2165,2.34
2177,1.79
2189,1.42
2201,1.06
2213,0.6
2225,-0.05
2237,-0.9
2249,-1.89
2261,-3.0
2273,-4.22
2285,-5.48
2297,-6.81
2309,-8.12
2321,-9.37
2332,-10.58
2343,-11.77
2355,-12.94
2367,-13.98
2379,-14.67
2391,-14.75
2403,-14.08
2415,-12.72
2427,-10.87
2439,-8.86
2451,-6.93
2463,-5.13
2475,-3.42
2487,-1.64
2499,0.29
2511,2.29
2522,4.21
2533,5.84
2545,7.04
2557,7.76
2569,8.13
2581,8.26
2593,8.27
2605,8.28
2617,8.34
2629,8.5
2641,8.84
2653,9.35
2665,10.01
2677,10.67
2689,11.13
2701,11.16
2712,10.67
2723,9.72
2735,8.45
2747,7.12
2759,5.89
2771,4.88
2783,4.08
2795,3.4
2807,2.75
2819,2.07
2831,1.34
2843,0.61
2855,-0.02
2867,-0.48
2879,-0.74
2891,-0.83
2902,-0.85
2913,-0.98
2925,-1.29
2937,-1.88
2949,-2.74
2961,-3.84
2973,-5.13
2985,-6.51
2997,-7.9
3009,-9.18
3021,-10.21
3033,-10.85
3045,-11.01
3057,-10.67
3069,-9.85
3081,-8.64
3092,-7.11
3103,-5.36
3115,-3.46
3127,-1.51
3139,0.4
3151,2.14
3163,3.57
3175,4.57
3187,5.09
3199,5.21
3211,5.12
3223,5.1
3235,5.35
3247,5.98
3259,6.94
3271,8.06
3282,9.16
3293,10.09
3305,10.76
3317,11.15
3329,11.26
3341,11.11
3353,10.77
3365,10.3
3377,9.78
3389,9.27
3401,8.78
3413,8.25
3425,7.68
3437,7.07
3449,6.44
3461,5.82
3472,5.17
3483,4.42
3495,3.56
3507,2.62
3519,1.71
3531,0.93
3543,0.32
3555,-0.18
3567,-0.7
3579,-1.38
3591,-2.31
3603,-3.43
3615,-4.67
3627,-5.96
3639,-7.28
3651,-8.63
3662,-10.01
3673,-11.41
3685,-12.76
3697,-14.0
3709,-15.04
3721,-15.85
3733,-16.38
3745,-16.6
3757,-16.45
3769,-15.88
3781,-14.88
3793,-13.51
3805,-11.88
3817,-10.15
3829,-8.48
3841,-6.99
3852,-5.71
3863,-4.65
3875,-3.72
3887,-2.84
3899,-1.91
3911,-0.9
3923,0.18
3935,1.25
3947,2.2
3959,2.96
3971,3.5
3983,3.89
3995,4.23
4007,4.65
4019,5.26
4031,6.04
4042,6.91
4053,7.73
4065,8.42
4077,8.91
4089,9.21
4101,9.32
4113,9.23
4125,8.89
4137,8.33
4149,7.66
4161,7.02
4173,6.62
4185,6.55
4197,6.75
4209,7.07
4221,7.32
4232,7.37
4243,7.22
4255,6.97
4267,6.67
4279,6.34
4291,5.97
4303,5.5
4315,4.98
4327,4.48
4339,4.07
4351,3.79
4363,3.55
4375,3.24
4387,2.81
4399,2.32
4411,1.91
4422,1.78
4433,2.0
4445,2.54
4457,3.27
4469,4.04
4481,4.79
4493,5.51
4505,6.19
4517,6.82
4529,7.37
4541,7.8
4553,8.07
4565,8.26
4577,8.39
4589,8.5
4601,8.58
4612,8.58
4623,8.41
4635,8.12
4647,7.7
4659,7.21
4671,6.71
4683,6.23
4695,5.79
4707,5.4
4719,5.03
4731,4.63
4743,4.16
4755,3.58
4767,2.87
4779,2.01
4791,1.06
4802,0.09
4813,-0.79
4825,-1.46
4837,-1.85
4849,-1.99
4861,-2.0
4873,-2.08
4885,-2.35
4897,-2.89
4909,-3.66
4921,-4.52
4933,-5.37
4945,-6.11
4957,-6.78
4969,-7.45
4981,-8.21
4992,-9.09
5003,-10.11
5015,-11.25
5027,-12.48
5039,-13.78
5051,-15.11
5063,-16.44
5075,-17.65
5087,-18.57
5099,-19.01
5111,-18.87
5123,-18.1
5135,-16.81
5147,-15.19
5159,-13.51
5171,-11.95
5182,-10.59
5193,-9.37
5205,-8.17
5217,-6.89
5229,-5.47
5241,-3.94
5253,-2.36
5265,-0.83
5277,0.57
5289,1.83
5301,2.95
5313,3.9
5325,4.67
5337,5.2
5349,5.45
5361,5.39
5372,5.07
5383,4.57
5395,4.06
5407,3.72
5419,3.62
5431,3.75
5443,4.0
5455,4.26
5467,4.46
5479,4.63
5491,4.84
5503,5.08
5515,5.35
5527,5.53
5539,5.54
5551,5.42
5562,5.28
5573,5.21
5585,5.21
5597,5.1
5609,4.65
5621,3.71
5633,2.34
5645,0.82
5657,-0.53
5669,-1.51
5681,-2.15
5693,-2.69
5705,-3.41
5717,-4.52
5729,-5.94
5741,-7.44
5752,-8.71
5763,-9.53
5775,-9.82
5787,-9.64
5799,-9.11
5811,-8.32
5823,-7.39
5835,-6.35
5847,-5.23
5859,-4.08
5871,-2.94
5883,-1.92
5895,-1.08
5907,-0.42
5919,0.09
5931,0.49
5942,0.87
5953,1.26
5965,1.64
5977,2.0
5989,2.34
6001,2.69
6013,3.11
6025,3.63
6037,4.23
6049,4.82
6061,5.23
6073,5.31
6085,5.02
6097,4.42
6109,3.73
6121,3.18
6132,2.92
6143,2.97
6155,3.15
6167,3.24
6179,3.11
6191,2.79
6203,2.4
6215,2.05
6227,1.76
6239,1.4
6251,0.82
6263,-0.05
6275,-1.11
6287,-2.16
6299,-2.93
6311,-3.3
6322,-3.35
6333,-3.31
6345,-3.41
6357,-3.76
6369,-4.34
6381,-5.02
6393,-5.75
6405,-6.49
6417,-7.3
6429,-8.27
6441,-9.42
6453,-10.72
6465,-11.98
6477,-12.97
6489,-13.45
6501,-13.26
6512,-12.38
6523,-10.92
6535,-9.17
6547,-7.42
6559,-5.88
6571,-4.64
6583,-3.6
6595,-2.63
6607,-1.66
6619,-0.72
6631,0.05
6643,0.57
6655,0.89
6667,1.15
6679,1.49
6691,1.98
6702,2.57
6713,3.07
6725,3.3
6737,3.21
6749,2.92
6761,2.69
6773,2.75
6785,3.16
6797,3.84
6809,4.6
6821,5.22
6833,5.55
6845,5.54
6857,5.23
6869,4.72
6881,4.07
6892,3.29
6903,2.41
6915,1.42
6927,0.41
6939,-0.47
6951,-1.14
6963,-1.52
6975,-1.64
6987,-1.57
6999,-1.45
7011,-1.33
7023,-1.24
7035,-1.15
7047,-0.96
7059,-0.68
7071,-0.36
7082,-0.12
7093,-0.08
7105,-0.38
7117,-1.07
7129,-2.12
7141,-3.38
7153,-4.66
7165,-5.83
7177,-6.82
7189,-7.62
7201,-8.3
7213,-8.85
7225,-9.19
7237,-9.23
7249,-8.86
7261,-8.08
7272,-7.04
7283,-5.91
7295,-4.85
7307,-3.93
7319,-3.11
7331,-2.4
7343,-1.83
7355,-1.5
7367,-1.47
7379,-1.72
7391,-2.13
7403,-2.53
7415,-2.79
7427,-2.88
7439,-2.85
7451,-2.75
7462,-2.59
7473,-2.31
7485,-1.85
7497,-1.18
7509,-0.39
7521,0.42
7533,1.15
7545,1.75
7557,2.24
7569,2.64
7581,2.95
7593,3.18
7605,3.37
7617,3.59
7629,3.92
7641,4.43
7652,5.09
7663,5.78
7675,6.36
7687,6.7
7699,6.78
7711,6.67
7723,6.51
7735,6.41
7747,6.41
7759,6.47
7771,6.5
7783,6.38
7795,6.07
7807,5.58
7819,5.03
7831,4.53
7842,4.19
7853,3.96
7865,3.76
7877,3.45
7889,2.95
7901,2.26
7913,1.51
7925,0.84
7937,0.37
7949,0.14
7961,0.1
7973,0.21
7985,0.49
7997,0.98
8009,1.75
8021,2.74
8032,3.81
8043,4.78
8055,5.49
8067,5.89
8079,6.01
8091,5.95
8103,5.7
8115,5.24
8127,4.47
8139,3.36
8151,1.96
8163,0.44
8175,-1.01
8187,-2.26
8199,-3.23
8211,-3.94
8222,-4.39
8233,-4.62
8245,-4.68
8257,-4.65
8269,-4.65
8281,-4.78
8293,-5.13
8305,-5.7
8317,-6.45
8329,-7.27
8341,-8.08
8353,-8.81
8365,-9.43
8377,-9.93
8389,-10.35
8401,-10.74
8412,-11.16
8423,-11.63
8435,-12.08
8447,-12.39
8459,-12.41
8471,-12.03
8483,-11.23
8495,-10.08
8507,-8.72
8519,-7.27
8531,-5.89
8543,-4.67
8555,-3.68
8567,-3.0
8579,-2.6
8591,-2.36
8602,-2.13
8613,-1.76
8625,-1.14
8637,-0.34
8649,0.5
8661,1.22
8673,1.72
8685,2.06
8697,2.34
8709,2.71
8721,3.23
8733,3.82
8745,4.28
8757,4.46
8769,4.25
8781,3.72
8792,3.06
8803,2.5
8815,2.18
8827,2.14
8839,2.34
8851,2.64
8863,2.97
8875,3.28
8887,3.54
8899,3.68
8911,3.6
8923,3.14
8935,2.23
8947,0.82
8959,-1.0
8971,-3.03
8982,-5.02
8993,-6.77
9005,-8.12
9017,-9.01
9029,-9.45
9041,-9.46
9053,-9.13
9065,-8.45
9077,-7.43
9089,-6.08
9101,-4.45
9113,-2.61
9125,-0.73
9137,1.05
9149,2.63
9161,3.99
9172,5.2
9183,6.32
9195,7.32
9207,8.04
9219,8.35
9231,8.12
9243,7.41
9255,6.42
9267,5.41
9279,4.59
9291,4.04
9303,3.68
9315,3.44
9327,3.24
9339,3.07
9351,2.93
9362,2.79
9373,2.58
9385,2.22
9397,1.7
9409,1.05
9421,0.41
9433,-0.15
9445,-0.55
9457,-0.85
9469,-1.1
9481,-1.42
9493,-1.88
9505,-2.59
9517,-3.55
9529,-4.73
9541,-6.08
9552,-7.52
9563,-9.01
9575,-10.55
9587,-12.11
9599,-13.62
9611,-14.98
9623,-16.04
9635,-16.58
9647,-16.47
9659,-15.69
9671,-14.32
9683,-12.61
9695,-10.77
9707,-8.98
9719,-7.35
9731,-5.84
9742,-4.36
9753,-2.87
9765,-1.38
9777,0.02
9789,1.19
9801,2.1
9813,2.73
9825,3.17
9837,3.55
9849,3.96
9861,4.48
9873,5.17
9885,6.0
9897,6.88
9909,7.73
9921,8.42
9932,8.87
9943,9.12
9955,9.21
9967,9.23
9979,9.23
9991,9.2
10003,9.06
10015,8.8
10027,8.44
10039,8.09
10051,7.88
10063,7.86
10075,7.96
10087,8.05
10099,7.97
10111,7.63
10122,7.03
10133,6.28
10145,5.49
10157,4.73
10169,4.0
10181,3.25
10193,2.49
10205,1.82
10217,1.38
10229,1.32
10241,1.68
10253,2.39
10265,3.33
10277,4.31
10289,5.2
10301,5.96
10312,6.6
10323,7.12
10335,7.53
10347,7.77
10359,7.74
10371,7.39
10383,6.66
10395,5.62
10407,4.44
10419,3.31
10431,2.42
10443,1.88
10455,1.69
10467,1.71
10479,1.77
10491,1.72
10502,1.52
10513,1.21
10525,0.87
10537,0.6
10549,0.41
10561,0.34
10573,0.35
10585,0.47
10597,0.65
10609,0.86
10621,0.97
10633,0.79
10645,0.19
10657,-0.89
10669,-2.33
10681,-3.83
10692,-5.08
10703,-5.9
10715,-6.27
10727,-6.42
10739,-6.64
10751,-7.12
10763,-7.87
10775,-8.69
10787,-9.33
10799,-9.62
10811,-9.54
10823,-9.14
10835,-8.51
10847,-7.64
10859,-6.48
10871,-5.03
10882,-3.38
10893,-1.72
10905,-0.27
10917,0.79
10929,1.45
10941,1.79
10953,1.92
10965,2.0
10977,2.11
10989,2.34
11001,2.75
11013,3.36
11025,4.14
11037,5.0
11049,5.82
11061,6.47
11072,6.9
11083,7.12
11095,7.15
11107,7.06
11119,6.81
11131,6.3
11143,5.52
11155,4.49
11167,3.4
11179,2.49
11191,1.95
11203,1.79
11215,1.89
11227,2.01
11239,1.95
11251,1.65
11262,1.17
11273,0.63
11285,0.12
11297,-0.45
11309,-1.22
11321,-2.33
11333,-3.79
11345,-5.46
11357,-7.1
11369,-8.51
11381,-9.56
11393,-10.22
11405,-10.61
11417,-10.81
11429,-10.87
11441,-10.75
11452,-10.35
11463,-9.57
11475,-8.41
11487,-6.93
11499,-5.25
11511,-3.55
11523,-1.97
11535,-0.61
11547,0.48
11559,1.28
11571,1.8
11583,2.04
11595,2.05
11607,1.93
11619,1.8
11631,1.86
11642,2.18
11653,2.79
11665,3.61
11677,4.49
11689,5.32
11701,6.05
11713,6.75
11725,7.5
11737,8.36
11749,9.25
11761,10.05
11773,10.64
11785,10.9
11797,10.85
11809,10.51
11821,10.03
11832,9.54
11843,9.15
11855,8.81
11867,8.47
11879,8.0
11891,7.35
11903,6.51
11915,5.55
11927,4.56
11939,3.6
11951,2.65
11963,1.68
11975,0.67
11987,-0.34
11999,-1.3
12011,-2.17
12022,-2.99
12033,-3.81
12045,-4.69
12057,-5.56
12069,-6.32
12081,-6.79
12093,-6.86
12105,-6.51
12117,-5.84
12129,-5.06
12141,-4.35
12153,-3.89
12165,-3.67
12177,-3.59
12189,-3.47
12201,-3.19
12212,-2.71
12223,-2.07
12235,-1.43
12247,-0.9
12259,-0.61
12271,-0.61
12283,-0.82
12295,-1.13
12307,-1.36
12319,-1.3
12331,-0.82
12343,0.1
12355,1.35
12367,2.71
12379,3.93
12391,4.82
12402,5.34
12413,5.54
12425,5.5
12437,5.31
12449,4.98
12461,4.5
12473,3.91
12485,3.3
12497,2.71
12509,2.19
12521,1.68
12533,1.08
12545,0.31
12557,-0.63
12569,-1.66
12581,-2.63
12592,-3.46
12603,-4.13
12615,-4.71
12627,-5.25
12639,-5.81
12651,-6.37
12663,-6.84
12675,-7.12
12687,-7.11
12699,-6.74
12711,-6.03
12723,-5.08
12735,-4.03
12747,-3.04
12759,-2.17
12771,-1.44
12782,-0.75
12793,-0.09
12805,0.55
12817,1.05
12829,1.32
12841,1.3
12853,1.07
12865,0.8
12877,0.65
12889,0.7
12901,0.87
12913,1.06
12925,1.18
12937,1.27
12949,1.46
12961,1.85
12972,2.43
12983,3.0
12995,3.39
13007,3.49
13019,3.34
13031,3.13
13043,3.03
13055,3.12
13067,3.29
13079,3.39
13091,3.21
13103,2.68
13115,1.83
13127,0.74
13139,-0.41
13151,-1.48
13162,-2.3
13173,-2.78
13185,-2.89
13197,-2.75
13209,-2.5
13221,-2.34
13233,-2.4
13245,-2.69
13257,-3.12
13269,-3.59
13281,-4.02
13293,-4.37
13305,-4.63
13317,-4.78
13329,-4.74
13341,-4.47
13352,-3.9
13363,-3.08
13375,-2.14
13387,-1.24
13399,-0.49
13411,0.05
13423,0.4
13435,0.65
13447,0.87
13459,1.08
13471,1.26
13483,1.32
13495,1.22
13507,1.05
13519,0.9
13531,0.92
13542,1.16
13553,1.55
13565,1.98
13577,2.32
13589,2.55
13601,2.76
13613,3.04
13625,3.39
13637,3.69
13649,3.74
13661,3.36
13673,2.49
13685,1.25
13697,-0.15
13709,-1.51
13721,-2.68
13732,-3.68
13743,-4.46
13755,-5.04
13767,-5.43
13779,-5.7
13791,-5.95
13803,-6.32
13815,-6.91
13827,-7.74
13839,-8.75
13851,-9.79
13863,-10.71
13875,-11.44
13887,-11.88
13899,-12.01
13911,-11.82
13922,-11.23
13933,-10.27
13945,-8.99
13957,-7.56
13969,-6.22
13981,-5.17
13993,-4.53
14005,-4.3
14017,-4.37
14029,-4.57
14041,-4.72
14053,-4.73
14065,-4.54
14077,-4.19
14089,-3.74
14101,-3.23
14112,-2.72
14123,-2.19
14135,-1.64
14147,-1.0
14159,-0.3
14171,0.46
14183,1.18
14195,1.79
14207,2.3
14219,2.75
14231,3.21
14243,3.72
14255,4.2
14267,4.53
14279,4.59
14291,4.36
14302,3.95
14313,3.47
14325,3.05
14337,2.67
14349,2.28
14361,1.83
14373,1.34
14385,0.9
14397,0.56
14409,0.32
14421,0.1
14433,-0.2
14445,-0.62
14457,-1.06
14469,-1.38
14481,-1.49
14492,-1.37
14503,-1.12
14515,-0.85
14527,-0.59
14539,-0.29
14551,0.13
14563,0.74
14575,1.48
14587,2.28
14599,3.04
14611,3.65
14623,4.1
14635,4.44
14647,4.73
14659,5.07
14671,5.53
14682,6.11
14693,6.74
14705,7.33
14717,7.73
14729,7.88
14741,7.78
14753,7.48
14765,7.11
14777,6.72
14789,6.33
14801,5.89
14813,5.4
14825,4.86
14837,4.28
14849,3.66
14861,3.01
14872,2.34
14883,1.68
14895,1.08
14907,0.61
14919,0.31
14931,0.13
14943,-0.01
14955,-0.21
14967,-0.58
14979,-1.18
14991,-2.04
15003,-3.11
15015,-4.25
15027,-5.26
15039,-5.92
15051,-6.1
15062,-5.82
15073,-5.24
15085,-4.62
15097,-4.16
15109,-3.9
15121,-3.73
15133,-3.49
15145,-3.05
15157,-2.37
15169,-1.6
15181,-0.92
15193,-0.5
15205,-0.39
15217,-0.53
15229,-0.77
15241,-0.9
15252,-0.79
15263,-0.39
15275,0.19
15287,0.83
15299,1.4
15311,1.84
15323,2.2
15335,2.46
15347,2.61
15359,2.58
15371,2.29
15383,1.71
15395,0.89
15407,-0.04
15419,-0.95
15431,-1.71
15442,-2.33
15453,-2.89
15465,-3.52
15477,-4.36
15489,-5.48
15501,-6.88
15513,-8.48
15525,-10.14
15537,-11.66
15549,-12.88
15561,-13.64
15573,-13.86
15585,-13.51
15597,-12.65
15609,-11.38
15621,-9.83
15632,-8.11
15643,-6.31
15655,-4.44
15667,-2.56
15679,-0.72
15691,0.97
15703,2.37
15715,3.38
15727,3.97
15739,4.21
15751,4.23
15763,4.19
15775,4.17
15787,4.23
15799,4.37
15811,4.53
15822,4.67
15833,4.7
15845,4.56
15857,4.26
15869,3.87
15881,3.45
15893,3.06
15905,2.68
15917,2.24
15929,1.71
15941,1.08
15953,0.42
15965,-0.2
15977,-0.69
15989,-1.04
16001,-1.26
16012,-1.29
16023,-1.14
16035,-0.77
16047,-0.28
16059,0.13
16071,0.23
16083,-0.13
16095,-0.95
16107,-2.04
16119,-3.11
16131,-3.98
16143,-4.5
16155,-4.66
16167,-4.46
16179,-3.92
16191,-3.05
16202,-1.96
16213,-0.8
16225,0.23
16237,0.99
16249,1.44
16261,1.69
16273,1.94
16285,2.31
16297,2.89
16309,3.62
16321,4.38
16333,5.05
16345,5.61
16357,6.08
16369,6.55
16381,7.07
16392,7.6
16403,8.03
16415,8.24
16427,8.17
16439,7.78
16451,7.15
16463,6.35
16475,5.39
16487,4.28
16499,3.0
16511,1.64
16523,0.28
16535,-0.89
16547,-1.78
16559,-2.38
16571,-2.76
16582,-3.08
16593,-3.47
16605,-4.03
16617,-4.81
16629,-5.83
16641,-7.09
16653,-8.51
16665,-9.99
16677,-11.32
16689,-12.3
16701,-12.69
16713,-12.43
16725,-11.54
16737,-10.22
16749,-8.72
16761,-7.2
16772,-5.74
16783,-4.33
16795,-2.91
16807,-1.44
16819,0.03
16831,1.44
16843,2.74
16855,3.93
16867,5.05
16879,6.16
16891,7.25
16903,8.3
16915,9.31
16927,10.26
16939,11.17
16951,11.99
16962,12.63
16973,12.9
16985,12.7
16997,12.01
17009,11.01
17021,9.96
17033,9.14
17045,8.7
17057,8.59
17069,8.65
17081,8.69
17093,8.61
17105,8.42
17117,8.21
17129,8.07
17141,8.06
17152,8.09
17163,8.0
17175,7.62
17187,6.85
17199,5.74
17211,4.45
17223,3.15
17235,1.97
17247,0.92
17259,-0.1
17271,-1.19
17283,-2.37
17295,-3.58
17307,-4.64
17319,-5.38
17331,-5.68
17342,-5.51
17353,-4.91
17365,-3.93
17377,-2.69
17389,-1.26
17401,0.21
17413,1.62
17425,2.85
17437,3.85
17449,4.58
17461,5.05
17473,5.3
17485,5.34
17497,5.2
17509,4.92
17521,4.57
17532,4.23
17543,4.02
17555,3.97
17567,4.1
17579,4.33
17591,4.58
17603,4.77
17615,4.87
17627,4.89
17639,4.95
17651,5.1
17663,5.37
17675,5.7
17687,5.94
17699,5.97
17711,5.74
17722,5.23
17733,4.54
17745,3.81
17757,3.15
17769,2.65
17781,2.27
17793,1.89
17805,1.35
17817,0.55
17829,-0.54
17841,-1.85
17853,-3.21
17865,-4.48
17877,-5.55
17889,-6.34
17901,-6.82
17912,-6.99
17923,-6.79
17935,-6.28
17947,-5.53
17959,-4.68
17971,-3.8
17983,-2.86
17995,-1.75
18007,-0.39
18019,1.24
18031,2.96
18043,4.47
18055,5.52
18067,6.02
18079,6.1
18091,6.04
18102,6.07
18113,6.27
18125,6.51
18137,6.55
18149,6.18
18161,5.36
18173,4.25
18185,3.1
18197,2.15
18209,1.52
18221,1.15
18233,0.92
18245,0.71
18257,0.53
18269,0.44
18281,0.53
18292,0.8
18303,1.1
18315,1.27
18327,1.19
18339,0.86
18351,0.36
18363,-0.23
18375,-0.85
18387,-1.52
18399,-2.28
18411,-3.09
18423,-3.94
18435,-4.75
18447,-5.54
18459,-6.33
18471,-7.14
18482,-7.9
18493,-8.47
18505,-8.66
18517,-8.4
18529,-7.74
18541,-6.84
18553,-5.89
18565,-5.0
18577,-4.19
18589,-3.44
18601,-2.74
18613,-2.07
18625,-1.41
18637,-0.66
18649,0.28
18661,1.54
18672,3.14
18683,4.98
18695,6.84
18707,8.38
18719,9.43
18731,9.84
18743,9.73
18755,9.31
18767,8.82
18779,8.38
18791,7.99
18803,7.52
18815,6.83
18827,5.86
18839,4.72
18851,3.57
18862,2.59
18873,1.86
18885,1.34
18897,0.92
18909,0.51
18921,0.09
18933,-0.31
18945,-0.63
18957,-0.85
18969,-1.04
18981,-1.24
18993,-1.49
19005,-1.85
19017,-2.36
19029,-3.07
19041,-4.05
19052,-5.26
19063,-6.63
19075,-8.05
19087,-9.41
19099,-10.63
19111,-11.71
19123,-12.64
19135,-13.3
19147,-13.54
19159,-13.24
19171,-12.43
19183,-11.32
19195,-10.15
19207,-9.13
19219,-8.27
19231,-7.42
19242,-6.43
19253,-5.22
19265,-3.91
19277,-2.65
19289,-1.62
19301,-0.82
19313,-0.14
19325,0.57
19337,1.39
19349,2.33
19361,3.29
19373,4.15
19385,4.78
19397,5.11
19409,5.09
19421,4.76
19432,4.2
19443,3.5
19455,2.81
19467,2.25
19479,1.87
19491,1.69
19503,1.64
19515,1.67
19527,1.73
19539,1.81
19551,1.89
19563,1.93
19575,1.89
19587,1.72
19599,1.41
19611,0.95
19622,0.36
19633,-0.33
19645,-1.05
19657,-1.76
19669,-2.44
19681,-3.09
19693,-3.7
19705,-4.3
19717,-4.9
19729,-5.57
19741,-6.3
19753,-7.06
19765,-7.75
19777,-8.21
19789,-8.28
19801,-7.86
19812,-6.9
19823,-5.51
19835,-3.86
19847,-2.14
19859,-0.5
19871,0.99
19883,2.34
19895,3.54
19907,4.57
19919,5.37
19931,5.89
19943,6.1
19955,6.06
19967,5.88
19979,5.67
19991,5.54
20002,5.49
20013,5.49
20025,5.5
20037,5.56
20049,5.69
20061,5.93
20073,6.26
20085,6.56
20097,6.74
20109,6.75
20121,6.61
20133,6.4
20145,6.19
20157,6.0
20169,5.73
20181,5.24
20192,4.46
20203,3.38
20215,2.16
20227,1.02
20239,0.16
20251,-0.3
20263,-0.39
20275,-0.24
20287,-0.04
20299,0.05
20311,-0.12
20323,-0.56
20335,-1.27
20347,-2.14
20359,-3.01
20371,-3.73
20382,-4.15
20393,-4.19
20405,-3.82
20417,-3.11
20429,-2.21
20441,-1.31
20453,-0.52
20465,0.12
20477,0.65
20489,1.15
20501,1.62
20513,2.05
20525,2.38
20537,2.55
20549,2.53
20561,2.36
20572,2.13
20583,1.91
20595,1.78
20607,1.76
20619,1.82
20631,1.92
20643,2.0
20655,2.04
20667,2.09
20679,2.21
20691,2.35
20703,2.44
20715,2.28
20727,1.67
20739,0.59
20751,-0.79
20762,-2.15
20773,-3.16
20785,-3.69
20797,-3.89
20809,-4.03
20821,-4.41
20833,-5.06
20845,-5.8
20857,-6.33
20869,-6.46
20881,-6.19
20893,-5.76
20905,-5.46
20917,-5.51
20929,-5.93
20941,-6.55
20952,-7.1
20963,-7.35
20975,-7.19
20987,-6.66
20999,-5.91
