seconds,BVP
6,-51.43
18,-59.33
30,-66.9
42,-73.82
54,-79.78
66,-84.6
77,-88.16
88,-90.48
100,-91.66
112,-91.97
124,-91.68
136,-91.01
148,-89.95
160,-88.14
172,-84.95
184,-79.61
196,-71.45
208,-60.26
220,-46.42
232,-30.88
244,-14.95
256,0.07
267,13.21
278,23.97
290,32.26
302,38.23
314,42.08
326,43.92
338,43.84
350,42.05
362,38.98
374,35.24
386,31.5
398,28.25
410,25.71
422,23.78
434,22.19
446,20.59
457,18.74
468,16.55
480,14.08
492,11.49
504,8.99
516,6.73
528,4.71
540,2.78
552,0.72
564,-1.72
576,-4.64
588,-8.0
600,-11.6
612,-15.2
624,-18.58
636,-21.57
647,-24.04
658,-25.98
670,-27.48
682,-28.74
694,-30.07
706,-31.77
718,-33.93
730,-36.25
742,-38.05
754,-38.37
766,-36.24
778,-31.07
790,-22.88
802,-12.37
814,-0.75
826,10.59
837,20.52
848,28.36
860,34.01
872,37.78
884,40.14
896,41.54
908,42.25
920,42.38
932,41.93
944,40.94
956,39.51
968,37.78
980,35.94
992,34.13
1004,32.38
1016,30.63
1027,28.7
1038,26.5
1050,24.06
1062,21.57
1074,19.28
1086,17.38
1098,15.85
1110,14.45
1122,12.79
1134,10.55
1146,7.62
1158,4.14
1170,0.45
1182,-3.05
1194,-6.09
1206,-8.56
1217,-10.56
1228,-12.31
1240,-14.11
1252,-16.26
1264,-18.99
1276,-22.35
1288,-26.12
1300,-29.69
1312,-32.16
1324,-32.49
1336,-29.87
1348,-24.04
1360,-15.41
1372,-5.02
1384,5.81
1396,15.83
1407,24.18
1418,30.48
1430,34.75
1442,37.22
1454,38.24
1466,38.14
1478,37.25
1490,35.92
1502,34.43
1514,32.97
1526,31.6
1538,30.25
1550,28.78
1562,27.02
1574,24.83
1586,22.19
1597,19.24
1608,16.22
1620,13.44
1632,11.11
1644,9.28
1656,7.75
1668,6.16
1680,4.13
1692,1.43
1704,-1.85
1716,-5.39
1728,-8.71
1740,-11.45
1752,-13.51
1764,-15.06
1776,-16.53
1787,-18.39
1798,-20.95
1810,-24.3
1822,-28.19
1834,-32.05
1846,-35.1
1858,-36.43
1870,-35.31
1882,-31.34
1894,-24.67
1906,-15.94
1918,-6.22
1930,3.34
1942,11.82
1954,18.71
1966,23.92
1977,27.66
1988,30.25
2000,31.93
2012,32.81
2024,32.91
2036,32.21
2048,30.82
2060,28.9
2072,26.7
2084,24.46
2096,22.32
2108,20.3
2120,18.34
2132,16.36
2144,14.35
2156,12.43
2167,10.76
2178,9.45
2190,8.44
2202,7.5
2214,6.27
2226,4.42
2238,1.78
2250,-1.52
2262,-5.15
2274,-8.67
2286,-11.71
2298,-14.18
2310,-16.3
2322,-18.5
2334,-21.26
2346,-24.92
2357,-29.46
2368,-34.48
2380,-39.21
2392,-42.7
2404,-44.07
2416,-42.67
2428,-38.31
2440,-31.28
2452,-22.3
2464,-12.38
2476,-2.62
2488,6.09
2500,13.15
2512,18.39
2524,21.99
2536,24.31
2547,25.72
2558,26.53
2570,26.84
2582,26.68
2594,26.07
2606,25.02
2618,23.64
2630,22.11
2642,20.6
2654,19.21
2666,18.01
2678,16.96
2690,15.99
2702,15.02
2714,14.04
2726,13.07
2737,12.11
2748,11.14
2760,10.01
2772,8.54
2784,6.51
2796,3.83
2808,0.61
2820,-2.91
2832,-6.4
2844,-9.62
2856,-12.43
2868,-14.92
2880,-17.24
2892,-19.65
2904,-22.31
2916,-25.39
2927,-28.97
2938,-33.0
2950,-37.23
2962,-41.13
2974,-43.93
2986,-44.72
2998,-42.75
3010,-37.69
3022,-29.82
3034,-20.01
3046,-9.44
3058,0.7
3070,9.56
3082,16.69
3094,22.05
3106,25.82
3117,28.22
3128,29.45
3140,29.75
3152,29.39
3164,28.67
3176,27.86
3188,27.12
3200,26.44
3212,25.68
3224,24.72
3236,23.49
3248,22.08
3260,20.67
3272,19.41
3284,18.43
3296,17.75
3307,17.26
3318,16.8
3330,16.17
3342,15.12
3354,13.47
3366,11.12
3378,8.13
3390,4.73
3402,1.23
3414,-2.09
3426,-5.04
3438,-7.67
3450,-10.12
3462,-12.57
3474,-15.09
3486,-17.61
3497,-19.91
3508,-21.79
3520,-23.16
3532,-24.18
3544,-25.18
3556,-26.58
3568,-28.75
3580,-31.86
3592,-35.72
3604,-39.77
3616,-43.14
3628,-44.84
3640,-43.98
3652,-40.07
3664,-33.18
3676,-24.0
3687,-13.62
3698,-3.26
3710,6.05
3722,13.65
3734,19.36
3746,23.3
3758,25.76
3770,27.01
3782,27.28
3794,26.74
3806,25.66
3818,24.31
3830,23.04
3842,22.02
3854,21.29
3866,20.68
3877,19.89
3888,18.71
3900,17.1
3912,15.21
3924,13.33
3936,11.74
3948,10.57
3960,9.71
3972,8.94
3984,7.97
3996,6.63
4008,4.97
4020,3.12
4032,1.28
4044,-0.39
4056,-1.87
4067,-3.26
4078,-4.67
4090,-6.25
4102,-8.04
4114,-10.05
4126,-12.26
4138,-14.61
4150,-17.07
4162,-19.54
4174,-21.89
4186,-24.0
4198,-25.75
4210,-27.14
4222,-28.31
4234,-29.55
4246,-31.23
4257,-33.61
4268,-36.66
4280,-39.88
4292,-42.3
4304,-42.76
4316,-40.32
4328,-34.66
4340,-26.19
4352,-16.0
4364,-5.42
4376,4.31
4388,12.33
4400,18.26
4412,22.13
4424,24.16
4436,24.72
4447,24.2
4458,22.99
4470,21.44
4482,19.87
4494,18.47
4506,17.32
4518,16.36
4530,15.45
4542,14.46
4554,13.33
4566,12.11
4578,11.0
4590,10.22
4602,9.89
4614,9.91
4626,10.04
4637,9.91
4648,9.26
4660,7.91
4672,5.86
4684,3.18
4696,0.08
4708,-3.25
4720,-6.56
4732,-9.63
4744,-12.34
4756,-14.64
4768,-16.62
4780,-18.46
4792,-20.35
4804,-22.52
4816,-25.19
4827,-28.45
4838,-32.2
4850,-36.04
4862,-39.25
4874,-40.95
4886,-40.24
4898,-36.58
4910,-30.0
4922,-21.12
4934,-11.03
4946,-0.96
4958,8.06
4970,15.4
4982,20.89
4994,24.63
5006,26.88
5017,27.91
5028,27.96
5040,27.28
5052,26.15
5064,24.84
5076,23.56
5088,22.41
5100,21.4
5112,20.44
5124,19.5
5136,18.51
5148,17.44
5160,16.25
5172,14.84
5184,13.2
5196,11.38
5207,9.48
5218,7.64
5230,5.88
5242,4.09
5254,2.05
5266,-0.48
5278,-3.61
5290,-7.29
5302,-11.28
5314,-15.31
5326,-19.12
5338,-22.59
5350,-25.7
5362,-28.57
5374,-31.38
5386,-34.36
5397,-37.72
5408,-41.59
5420,-45.9
5432,-50.26
5444,-53.92
5456,-55.83
5468,-54.99
5480,-50.79
5492,-43.24
5504,-33.06
5516,-21.5
5528,-9.89
5540,0.64
5552,9.4
5564,16.18
5576,21.12
5587,24.49
5598,26.64
5610,27.84
5622,28.38
5634,28.44
5646,28.19
5658,27.65
5670,26.81
5682,25.63
5694,24.13
5706,22.39
5718,20.56
5730,18.8
5742,17.25
5754,15.96
5766,14.89
5777,13.94
5788,13.0
5800,11.93
5812,10.65
5824,9.12
5836,7.38
5848,5.45
5860,3.35
5872,1.04
5884,-1.57
5896,-4.56
5908,-7.9
5920,-11.43
5932,-14.86
5944,-17.9
5956,-20.34
5967,-22.19
5978,-23.73
5990,-25.39
6002,-27.62
6014,-30.66
6026,-34.36
6038,-38.08
6050,-40.84
6062,-41.49
6074,-39.17
6086,-33.55
6098,-25.0
6110,-14.54
6122,-3.48
6134,6.9
6146,15.63
6157,22.23
6168,26.64
6180,29.16
6192,30.21
6204,30.28
6216,29.81
6228,29.13
6240,28.41
6252,27.73
6264,27.04
6276,26.24
6288,25.26
6300,24.06
6312,22.67
6324,21.17
6336,19.72
6347,18.49
6358,17.6
6370,17.04
6382,16.64
6394,16.07
6406,14.99
6418,13.18
6430,10.65
6442,7.65
6454,4.49
6466,1.45
6478,-1.41
6490,-4.16
6502,-6.99
6514,-10.02
6526,-13.23
6537,-16.5
6548,-19.64
6560,-22.5
6572,-25.06
6584,-27.44
6596,-29.91
6608,-32.77
6620,-36.24
6632,-40.32
6644,-44.69
6656,-48.69
6668,-51.41
6680,-51.89
6692,-49.36
6704,-43.57
6716,-34.81
6727,-23.99
6738,-12.34
6750,-1.21
6762,8.35
6774,15.77
6786,21.01
6798,24.49
6810,26.78
6822,28.36
6834,29.49
6846,30.22
6858,30.48
6870,30.26
6882,29.68
6894,28.86
6906,27.95
6917,26.99
6928,25.95
6940,24.82
6952,23.63
6964,22.45
6976,21.37
6988,20.42
7000,19.53
7012,18.59
7024,17.48
7036,16.11
7048,14.42
7060,12.34
7072,9.84
7084,6.89
7096,3.56
7107,-0.05
7118,-3.7
7130,-7.19
7142,-10.38
7154,-13.2
7166,-15.76
7178,-18.29
7190,-21.08
7202,-24.41
7214,-28.4
7226,-32.9
7238,-37.43
7250,-41.2
7262,-43.2
7274,-42.52
7286,-38.62
7297,-31.54
7308,-21.97
7320,-11.07
7332,-0.1
7344,9.86
7356,18.16
7368,24.6
7380,29.28
7392,32.45
7404,34.36
7416,35.24
7428,35.29
7440,34.74
7452,33.77
7464,32.54
7476,31.15
7487,29.63
7498,28.05
7510,26.55
7522,25.33
7534,24.53
7546,24.2
7558,24.17
7570,24.16
7582,23.83
7594,22.96
7606,21.44
7618,19.32
7630,16.71
7642,13.74
7654,10.48
7666,6.99
7677,3.31
7688,-0.46
7700,-4.23
7712,-7.94
7724,-11.54
7736,-14.99
7748,-18.26
7760,-21.33
7772,-24.18
7784,-26.89
7796,-29.64
7808,-32.65
7820,-36.1
7832,-39.95
7844,-43.82
7856,-46.98
7867,-48.41
7878,-47.12
7890,-42.48
7902,-34.49
7914,-23.93
7926,-12.12
7938,-0.61
7950,9.35
7962,17.07
7974,22.52
7986,26.15
7998,28.53
8010,30.13
8022,31.18
8034,31.76
8046,31.91
8057,31.74
8068,31.43
8080,31.15
8092,30.97
8104,30.81
8116,30.51
8128,29.9
8140,28.91
8152,27.63
8164,26.3
8176,25.15
8188,24.33
8200,23.75
8212,23.11
8224,21.96
8236,19.96
8247,16.94
8258,13.03
8270,8.67
8282,4.42
8294,0.73
8306,-2.22
8318,-4.61
8330,-6.84
8342,-9.37
8354,-12.53
8366,-16.31
8378,-20.32
8390,-23.99
8402,-26.89
8414,-28.87
8426,-30.17
8437,-31.37
8448,-33.1
8460,-35.95
8472,-40.19
8484,-45.43
8496,-50.8
8508,-55.13
8520,-57.2
8532,-56.04
8544,-51.18
8556,-42.85
8568,-32.02
8580,-20.1
8592,-8.13
8604,3.14
8616,13.31
8627,22.17
8638,29.62
8650,35.58
8662,39.93
8674,42.44
8686,42.96
8698,42.4
8710,41.98
8722,42.9
8734,45.77
8746,50.49
8758,56.34
8770,62.32
8782,67.3
8794,70.49
8806,72.62
8817,74.81
8828,77.96
8840,82.24
8852,87.26
8864,92.6
8876,98.3
8888,104.41
8900,105.17
8912,96.47
8924,76.94
8936,49.36
8948,18.84
8960,-9.71
8972,-32.79
8984,-48.53
8996,-57.19
9007,-60.78
9018,-61.16
9030,-59.71
9042,-56.42
9054,-49.89
9066,-37.99
9078,-19.88
9090,4.98
9102,34.74
9114,65.69
9126,94.29
9138,117.9
9150,135.41
9162,147.19
9174,154.36
9186,158.14
9197,159.48
9208,158.67
9220,155.89
9232,152.06
9244,148.4
9256,145.98
9268,145.48
9280,146.49
9292,147.76
9304,147.89
9316,145.76
9328,141.0
9340,134.28
9352,126.76
9364,119.58
9376,113.51
9387,108.72
9398,104.96
9410,101.72
9422,98.29
9434,93.91
9446,88.18
9458,81.07
9470,72.91
9482,64.24
9494,55.45
9506,46.74
9518,38.17
9530,29.83
9542,21.92
9554,14.86
9566,9.13
9577,5.01
9588,2.51
9600,1.31
9612,0.93
9624,0.89
9636,0.72
9648,0.01
9660,-1.58
9672,-4.32
9684,-8.43
9696,-14.09
9708,-21.53
9720,-31.09
9732,-43.13
9744,-57.93
9756,-75.61
9767,-96.05
9778,-118.99
9790,-144.27
9802,-171.91
9814,-201.95
9826,-234.08
9838,-267.29
9850,-299.68
9862,-328.81
9874,-352.23
9886,-368.29
9898,-376.56
9910,-377.95
9922,-374.17
9934,-367.15
9946,-358.34
9957,-348.47
9968,-337.53
9980,-325.19
9992,-311.04
10004,-294.87
10016,-276.58
10028,-256.14
10040,-233.65
10052,-209.39
10064,-184.03
10076,-158.59
10088,-134.18
10100,-111.62
10112,-91.13
10124,-72.36
10136,-54.78
10147,-38.21
10158,-23.06
10170,-10.2
10182,-0.56
10194,5.5
10206,8.37
10218,9.25
10230,9.73
10242,11.43
10254,15.73
10266,23.55
10278,35.34
10290,50.89
10302,69.49
10314,90.05
10326,111.34
10337,132.37
10348,152.5
10360,171.53
10372,189.69
10384,207.49
10396,225.56
10408,244.45
10420,264.32
10432,284.69
10444,304.3
10456,321.12
10468,332.78
10480,337.06
10492,332.52
10504,318.88
10516,297.13
10527,269.14
10538,237.15
10550,203.26
10562,168.98
10574,135.15
10586,102.11
10598,69.99
10610,39.01
10622,9.57
10634,-17.76
10646,-42.57
10658,-64.71
10670,-84.41
10682,-102.08
10694,-118.13
10706,-132.84
10717,-146.3
10728,-158.54
10740,-169.73
10752,-180.21
10764,-190.51
10776,-201.22
10788,-212.82
10800,-225.43
10812,-238.71
10824,-251.78
10836,-263.21
10848,-271.14
10860,-273.53
10872,-268.54
10884,-255.14
10896,-233.7
10907,-206.14
10918,-175.73
10930,-146.14
10942,-120.56
10954,-100.94
10966,-87.81
10978,-80.79
10990,-79.13
11002,-82.26
11014,-89.82
11026,-101.35
11038,-115.9
11050,-131.95
11062,-147.65
11074,-161.45
11086,-172.44
11097,-180.62
11108,-186.74
11120,-192.08
11132,-198.0
11144,-205.66
11156,-215.66
11168,-227.84
11180,-241.21
11192,-254.07
11204,-264.48
11216,-270.66
11228,-271.47
11240,-266.56
11252,-256.35
11264,-241.71
11276,-223.66
11287,-203.09
11298,-180.67
11310,-157.02
11322,-132.78
11334,-108.81
11346,-86.09
11358,-65.52
11370,-47.62
11382,-32.3
11394,-18.89
11406,-6.5
11418,5.61
11430,17.75
11442,29.78
11454,41.34
11466,52.34
11477,63.16
11488,74.83
11500,88.92
11512,107.34
11524,131.9
11536,163.48
11548,201.24
11560,241.97
11572,280.34
11584,310.02
11596,325.43
11608,323.46
11620,304.39
11632,271.7
11644,230.96
11656,188.4
11667,149.62
11678,118.97
11690,99.21
11702,91.47
11714,95.14
11726,107.78
11738,125.34
11750,142.86
11762,155.47
11774,159.64
11786,153.75
11798,138.16
11810,115.09
11822,88.07
11834,61.14
11846,38.2
11857,22.52
11868,16.37
11880,20.91
11892,35.66
11904,58.41
11916,85.4
11928,112.31
11940,135.54
11952,153.2
11964,165.55
11976,174.29
11988,181.69
12000,188.91
12012,195.29
12024,198.98
12036,198.25
12047,192.62
12058,183.09
12070,171.46
12082,159.37
12094,148.98
12106,141.43
12118,136.74
12130,134.27
12142,133.43
12154,133.71
12166,134.17
12178,133.17
12190,128.58
12202,120.9
12214,110.87
12226,98.88
12237,85.15
12248,70.8
12260,57.98
12272,48.98
12284,44.88
12296,44.89
12308,50.1
12320,59.58
12332,69.97
12344,76.96
12356,78.31
12368,75.04
12380,70.34
12392,67.79
12404,69.94
12416,82.55
12427,108.41
12438,145.5
12450,187.98
12462,229.86
12474,267.49
12486,299.88
12498,327.81
12510,323.04
12522,272.3
12534,183.83
12546,81.69
12558,-13.15
12570,-92.13
12582,-155.21
12594,-204.89
12606,-243.26
12617,-271.75
12628,-286.96
12640,-287.42
12652,-275.82
12664,-258.17
12676,-240.25
12688,-225.29
12700,-214.43
12712,-207.1
12724,-202.62
12736,-196.8
12748,-186.76
12760,-172.49
12772,-156.5
12784,-141.59
12796,-129.38
12807,-120.26
12818,-113.94
12830,-109.81
12842,-104.71
12854,-96.2
12866,-83.82
12878,-68.9
12890,-53.65
12902,-39.99
12914,-29.04
12926,-21.21
12938,-16.14
12950,-11.74
12962,-6.09
12974,1.71
12986,11.4
12997,21.79
13008,31.05
13020,37.4
13032,39.19
13044,35.36
13056,26.34
13068,13.52
13080,-0.75
13092,-13.45
13104,-21.87
13116,-24.66
13128,-21.87
13140,-15.54
13152,-9.03
13164,-5.72
13176,-8.13
13187,-17.36
13198,-30.85
13210,-42.28
13222,-44.58
13234,-32.75
13246,-6.81
13258,28.99
13270,69.97
13282,110.75
13294,146.24
13306,173.06
13318,190.22
13330,193.93
13342,184.71
13354,165.57
13366,140.79
13377,114.53
13388,89.5
13400,67.07
13412,47.68
13424,30.92
13436,15.54
13448,0.59
13460,-15.09
13472,-32.21
13484,-50.67
13496,-69.74
13508,-88.01
13520,-103.84
13532,-116.06
13544,-124.54
13556,-129.3
13567,-130.79
13578,-129.34
13590,-124.89
13602,-117.32
13614,-106.68
13626,-93.44
13638,-78.7
13650,-64.03
13662,-50.62
13674,-39.28
13686,-30.24
13698,-23.22
13710,-17.76
13722,-13.41
13734,-9.92
13746,-7.28
13757,-5.64
13768,-4.99
13780,-5.22
13792,-6.05
13804,-7.08
13816,-7.97
13828,-8.52
13840,-8.76
13852,-8.84
13864,-8.92
13876,-9.06
13888,-9.19
13900,-9.23
13912,-9.07
13924,-8.66
13936,-8.07
13947,-7.46
13958,-7.04
13970,-6.99
13982,-7.37
13994,-8.08
14006,-8.9
14018,-9.57
14030,-9.97
14042,-10.17
14054,-10.4
14066,-10.91
14078,-11.8
14090,-12.94
14102,-14.01
14114,-14.72
14126,-14.97
14137,-15.04
14148,-15.41
14160,-16.73
14172,-19.47
14184,-23.82
14196,-29.55
14208,-35.86
14220,-41.57
14232,-45.19
14244,-45.35
14256,-41.23
14268,-32.85
14280,-21.17
14292,-7.82
14304,5.39
14316,16.92
14327,25.94
14338,32.3
14350,36.33
14362,38.52
14374,39.33
14386,39.04
14398,37.88
14410,36.07
14422,33.84
14434,31.41
14446,28.98
14458,26.64
14470,24.48
14482,22.57
14494,21.0
14506,19.88
14517,19.24
14528,19.11
14540,19.41
14552,19.99
14564,20.69
14576,21.33
14588,21.81
14600,22.04
14612,22.04
14624,21.83
14636,21.46
14648,20.88
14660,19.95
14672,18.51
14684,16.42
14696,13.66
14707,10.35
14718,6.68
14730,2.85
14742,-1.12
14754,-5.34
14766,-10.12
14778,-15.83
14790,-22.77
14802,-30.94
14814,-39.88
14826,-48.62
14838,-55.77
14850,-59.9
14862,-59.93
14874,-55.55
14886,-47.35
14897,-36.65
14908,-25.06
14920,-13.98
14932,-4.32
14944,3.56
14956,9.7
14968,14.37
14980,17.82
14992,20.32
15004,22.02
15016,23.09
15028,23.69
15040,23.93
15052,23.91
15064,23.71
15076,23.41
15087,23.12
15098,22.92
15110,22.89
15122,23.11
15134,23.65
15146,24.5
15158,25.55
15170,26.56
15182,27.13
15194,26.89
15206,25.6
15218,23.23
15230,20.0
15242,16.27
15254,12.37
15266,8.49
15277,4.63
15288,0.6
15300,-3.79
15312,-8.68
15324,-13.97
15336,-19.39
15348,-24.59
15360,-29.22
15372,-33.16
15384,-36.51
15396,-39.59
15408,-42.88
15420,-46.83
15432,-51.73
15444,-57.55
15456,-63.79
15467,-69.46
15478,-73.24
15490,-73.74
15502,-70.02
15514,-61.9
15526,-50.16
15538,-36.29
15550,-22.04
15562,-8.88
15574,2.34
15586,11.42
15598,18.6
15610,24.27
15622,28.79
15634,32.37
15646,35.14
15657,37.19
15668,38.59
15680,39.39
15692,39.62
15704,39.29
15716,38.47
15728,37.33
15740,36.11
15752,35.05
15764,34.33
15776,33.93
15788,33.7
15800,33.4
15812,32.82
15824,31.86
15836,30.52
15847,28.86
15858,26.88
15870,24.53
15882,21.69
15894,18.31
15906,14.5
15918,10.55
15930,6.73
15942,3.26
15954,0.08
15966,-3.05
15978,-6.41
15990,-10.15
16002,-14.15
16014,-18.09
16026,-21.61
16037,-24.49
16048,-26.7
16060,-28.45
16072,-30.07
16084,-31.96
16096,-34.52
16108,-38.1
16120,-42.82
16132,-48.44
16144,-54.18
16156,-58.78
16168,-60.7
16180,-58.62
16192,-51.91
16204,-40.86
16216,-26.67
16227,-11.14
16238,3.93
16250,17.16
16262,27.84
16274,35.86
16286,41.55
16298,45.32
16310,47.53
16322,48.46
16334,48.35
16346,47.52
16358,46.33
16370,45.08
16382,43.95
16394,42.89
16406,41.72
16417,40.3
16428,38.64
16440,36.97
16452,35.63
16464,34.91
16476,34.81
16488,35.07
16500,35.24
16512,34.92
16524,33.88
16536,32.08
16548,29.64
16560,26.65
16572,23.12
16584,19.0
16596,14.26
16607,8.97
16618,3.39
16630,-2.16
16642,-7.38
16654,-12.12
16666,-16.37
16678,-20.3
16690,-24.07
16702,-27.82
16714,-31.52
16726,-35.07
16738,-38.27
16750,-41.03
16762,-43.32
16774,-45.29
16786,-47.19
16797,-49.31
16808,-51.97
16820,-55.4
16832,-59.6
16844,-64.17
16856,-68.25
16868,-70.58
16880,-69.8
16892,-64.9
16904,-55.58
16916,-42.48
16928,-27.03
16940,-11.04
16952,3.77
16964,16.23
16976,25.84
16987,32.66
16998,37.14
17010,39.84
17022,41.25
17034,41.76
17046,41.64
17058,41.11
17070,40.3
17082,39.35
17094,38.34
17106,37.27
17118,36.09
17130,34.71
17142,33.05
17154,31.17
17166,29.21
17177,27.38
17188,25.86
17200,24.64
17212,23.52
17224,22.12
17236,20.07
17248,17.17
17260,13.52
17272,9.49
17284,5.51
17296,1.92
17308,-1.2
17320,-4.02
17332,-6.87
17344,-10.02
17356,-13.55
17367,-17.31
17378,-21.0
17390,-24.29
17402,-26.93
17414,-28.92
17426,-30.43
17438,-31.83
17450,-33.55
17462,-35.98
17474,-39.27
17486,-43.24
17498,-47.27
17510,-50.33
17522,-51.2
17534,-48.75
17546,-42.33
17557,-32.04
17568,-18.73
17580,-3.86
17592,10.93
17604,24.19
17616,35.0
17628,43.03
17640,48.44
17652,51.7
17664,53.37
17676,53.9
17688,53.68
17700,52.95
17712,51.91
17724,50.64
17736,49.17
17747,47.45
17758,45.39
17770,42.95
17782,40.2
17794,37.35
17806,34.72
17818,32.62
17830,31.18
17842,30.3
17854,29.61
17866,28.6
17878,26.77
17890,23.88
17902,20.0
17914,15.48
17926,10.79
17937,6.37
17948,2.47
17960,-0.93
17972,-4.04
17984,-7.16
17996,-10.47
18008,-14.01
18020,-17.65
18032,-21.12
18044,-24.19
18056,-26.73
18068,-28.78
18080,-30.61
18092,-32.7
18104,-35.55
18116,-39.58
18127,-44.84
18138,-50.85
18150,-56.45
18162,-60.11
18174,-60.27
18186,-55.91
18198,-46.97
18210,-34.45
18222,-20.11
18234,-5.88
18246,6.65
18258,16.64
18270,23.95
18282,28.97
18294,32.22
18306,34.18
18317,35.21
18328,35.56
18340,35.42
18352,34.94
18364,34.21
18376,33.28
18388,32.19
18400,30.96
18412,29.65
18424,28.36
18436,27.19
18448,26.24
18460,25.57
18472,25.2
18484,25.09
18496,25.14
18507,25.18
18518,24.95
18530,24.18
18542,22.64
18554,20.24
18566,17.1
18578,13.53
18590,9.92
18602,6.62
18614,3.82
18626,1.55
18638,-0.37
18650,-2.18
18662,-4.2
18674,-6.69
18686,-9.76
18697,-13.38
18708,-17.28
18720,-21.14
18732,-24.63
18744,-27.62
18756,-30.21
18768,-32.76
18780,-35.73
18792,-39.52
18804,-44.3
18816,-49.85
18828,-55.51
18840,-60.2
18852,-62.63
18864,-61.61
18876,-56.4
18887,-47.07
18898,-34.51
18910,-20.29
18922,-6.2
18934,6.25
18946,16.1
18958,23.14
18970,27.68
18982,30.35
18994,31.79
19006,32.53
19018,32.85
19030,32.91
19042,32.77
19054,32.46
19066,31.99
19077,31.39
19088,30.66
19100,29.82
19112,28.91
19124,28.02
19136,27.27
19148,26.79
19160,26.6
19172,26.65
19184,26.78
19196,26.73
19208,26.32
19220,25.38
19232,23.92
19244,21.98
19256,19.68
19267,17.08
19278,14.19
19290,10.97
19302,7.42
19314,3.61
19326,-0.26
19338,-3.93
19350,-7.21
19362,-10.13
19374,-12.99
19386,-16.22
19398,-20.22
19410,-25.07
19422,-30.47
19434,-35.84
19446,-40.63
19457,-44.58
19468,-47.86
19480,-51.07
19492,-54.93
19504,-60.01
19516,-66.5
19528,-74.08
19540,-81.96
19552,-89.04
19564,-94.08
19576,-95.98
19588,-94.06
19600,-88.3
19612,-79.41
19624,-68.73
19636,-57.83
19647,-47.98
19658,-39.59
19670,-31.99
19682,-23.57
19694,-12.59
19706,2.01
19718,19.87
19730,39.2
19742,57.41
19754,72.13
19766,82.16
19778,87.74
19790,90.17
19802,91.07
19814,91.65
19826,92.5
19837,93.77
19848,95.64
19860,98.45
19872,102.46
19884,107.33
19896,111.88
19908,114.07
19920,111.84
19932,103.89
19944,90.34
19956,72.82
19968,53.84
19980,35.84
19992,20.43
20004,8.04
20016,-1.84
20027,-10.07
20038,-17.28
20050,-23.63
20062,-28.87
20074,-32.63
20086,-34.8
20098,-35.58
20110,-35.47
20122,-35.04
20134,-34.79
20146,-34.95
20158,-35.52
20170,-36.33
20182,-37.17
20194,-37.88
20206,-38.5
20217,-39.2
20228,-40.3
20240,-42.17
20252,-45.12
20264,-49.2
20276,-54.1
20288,-59.06
20300,-62.92
20312,-64.34
20324,-62.23
20336,-56.09
20348,-46.21
20360,-33.7
20372,-20.09
20384,-6.94
20396,4.57
20407,13.78
20418,20.6
20430,25.27
20442,28.16
20454,29.72
20466,30.3
20478,30.29
20490,30.01
20502,29.72
20514,29.49
20526,29.25
20538,28.8
20550,27.91
20562,26.53
20574,24.81
20586,23.07
20597,21.67
20608,20.86
20620,20.61
20632,20.66
20644,20.56
20656,19.88
20668,18.3
20680,15.77
20692,12.49
20704,8.83
20716,5.22
20728,1.98
20740,-0.82
20752,-3.37
20764,-6.01
20776,-9.03
20787,-12.57
20798,-16.48
20810,-20.44
20822,-24.07
20834,-27.03
20846,-29.21
20858,-30.72
20870,-31.92
20882,-33.32
20894,-35.46
20906,-38.72
20918,-43.14
20930,-48.17
20942,-52.73
20954,-55.42
20966,-54.93
20977,-50.47
20988,-42.09
