seconds,BVP
0,18.09
12,16.68
24,15.17
35,13.81
46,12.71
58,11.83
70,11.1
82,10.47
94,10.07
106,10.07
118,10.64
130,11.72
142,13.02
154,14.14
166,14.69
178,14.5
190,13.68
202,12.52
214,11.36
225,10.43
236,9.81
248,9.44
260,9.17
272,8.8
284,8.14
296,6.98
308,5.19
320,2.74
332,-0.26
344,-3.57
356,-6.84
368,-9.78
380,-12.23
392,-14.17
404,-15.68
415,-16.89
426,-17.91
438,-18.89
450,-20.0
462,-21.44
474,-23.38
486,-25.73
498,-28.17
510,-30.09
522,-30.81
534,-29.76
546,-26.7
558,-21.77
570,-15.38
582,-8.13
594,-0.61
605,6.62
616,12.98
628,18.01
640,21.33
652,22.89
664,22.89
676,21.82
688,20.22
700,18.57
712,17.09
724,15.8
736,14.61
748,13.49
760,12.51
772,11.81
784,11.51
795,11.6
806,12.0
818,12.52
830,12.96
842,13.17
854,13.05
866,12.6
878,11.87
890,10.94
902,9.88
914,8.79
926,7.72
938,6.65
950,5.57
962,4.44
974,3.27
985,2.07
996,0.84
1008,-0.41
1020,-1.73
1032,-3.18
1044,-4.83
1056,-6.72
1068,-8.81
1080,-11.04
1092,-13.33
1104,-15.59
1116,-17.73
1128,-19.7
1140,-21.37
1152,-22.57
1164,-23.06
1175,-22.61
1186,-21.02
1198,-18.17
1210,-14.08
1222,-8.91
1234,-3.02
1246,3.13
1258,9.04
1270,14.24
1282,18.41
1294,21.38
1306,23.15
1318,23.79
1330,23.36
1342,21.95
1354,19.69
1365,16.84
1376,13.81
1388,11.09
1400,9.06
1412,7.85
1424,7.39
1436,7.37
1448,7.58
1460,7.88
1472,8.29
1484,8.8
1496,9.35
1508,9.63
1520,9.33
1532,8.21
1544,6.32
1555,4.03
1566,1.81
1578,0.03
1590,-1.29
1602,-2.37
1614,-3.57
1626,-5.15
1638,-7.11
1650,-9.25
1662,-11.27
1674,-13.07
1686,-14.71
1698,-16.35
1710,-18.09
1722,-19.87
1734,-21.48
1745,-22.74
1756,-23.68
1768,-24.49
1780,-25.53
1792,-26.98
1804,-28.79
1816,-30.55
1828,-31.64
1840,-31.41
1852,-29.41
1864,-25.53
1876,-20.03
1888,-13.41
1900,-6.27
1912,0.82
1924,7.41
1935,13.19
1946,17.93
1958,21.45
1970,23.65
1982,24.48
1994,24.06
2006,22.64
2018,20.6
2030,18.35
2042,16.28
2054,14.64
2066,13.48
2078,12.77
2090,12.33
2102,12.05
2114,11.95
2125,12.06
2136,12.45
2148,13.1
2160,13.83
2172,14.33
2184,14.25
2196,13.39
2208,11.73
2220,9.49
2232,6.98
2244,4.56
2256,2.47
2268,0.82
2280,-0.44
2292,-1.52
2304,-2.67
2315,-4.13
2326,-5.96
2338,-8.09
2350,-10.29
2362,-12.33
2374,-14.03
2386,-15.39
2398,-16.51
2410,-17.57
2422,-18.81
2434,-20.34
2446,-22.17
2458,-24.1
2470,-25.75
2482,-26.63
2494,-26.33
2505,-24.62
2516,-21.51
2528,-17.19
2540,-11.89
2552,-5.8
2564,0.92
2576,8.11
2588,15.45
2600,22.35
2612,28.11
2624,32.01
2636,33.72
2648,33.49
2660,32.1
2672,30.69
2684,30.35
2695,31.69
2706,34.6
2718,38.26
2730,41.5
2742,43.38
2754,43.65
2766,42.78
2778,41.75
2790,41.4
2802,42.16
2814,43.86
2826,46.05
2838,48.17
2850,49.81
2862,50.76
2874,50.81
2885,49.83
2896,48.07
2908,46.84
2920,48.64
2932,56.52
2944,72.33
2956,95.19
2968,121.08
2980,144.33
2992,160.22
3004,167.15
3016,167.0
3028,163.32
3040,158.63
3052,152.5
3064,141.84
3075,122.96
3086,93.99
3098,56.04
3110,12.54
3122,-32.47
3134,-75.64
3146,-114.53
3158,-146.91
3170,-170.28
3182,-182.35
3194,-182.19
3206,-171.09
3218,-152.44
3230,-130.59
3242,-109.25
3254,-90.6
3265,-75.4
3276,-63.69
3288,-55.27
3300,-49.82
3312,-46.35
3324,-42.98
3336,-37.33
3348,-27.57
3360,-13.46
3372,3.08
3384,18.41
3396,28.55
3408,30.64
3420,24.08
3432,10.67
3444,-6.13
3455,-22.53
3466,-35.65
3478,-44.31
3490,-48.99
3502,-51.22
3514,-52.63
3526,-54.22
3538,-56.11
3550,-57.95
3562,-59.33
3574,-60.1
3586,-60.31
3598,-60.02
3610,-59.06
3622,-57.35
3634,-55.17
3645,-53.48
3656,-53.7
3668,-56.89
3680,-62.9
3692,-70.14
3704,-76.1
3716,-78.57
3728,-76.71
3740,-71.13
3752,-63.25
3764,-54.26
3776,-44.4
3788,-33.37
3800,-21.19
3812,-9.03
3824,0.93
3835,6.41
3846,6.36
3858,1.74
3870,-5.12
3882,-11.66
3894,-16.5
3906,-19.8
3918,-22.65
3930,-26.08
3942,-30.25
3954,-34.34
3966,-37.05
3978,-37.52
3990,-35.65
4002,-32.31
4014,-28.77
4025,-26.11
4036,-24.92
4048,-25.18
4060,-26.39
4072,-27.79
4084,-28.79
4096,-29.13
4108,-29.22
4120,-29.55
4132,-30.27
4144,-31.23
4156,-32.12
4168,-32.94
4180,-33.85
4192,-35.5
4204,-38.41
4215,-43.08
4226,-49.05
4238,-54.92
4250,-59.19
4262,-61.07
4274,-60.71
4286,-58.56
4298,-55.25
4310,-50.97
4322,-46.32
4334,-41.43
4346,-36.23
4358,-30.96
4370,-26.41
4382,-23.66
4394,-23.05
4405,-24.72
4416,-28.28
4428,-33.98
4440,-41.27
4452,-48.49
4464,-53.37
4476,-53.94
4488,-49.61
4500,-41.18
4512,-32.14
4524,-19.67
4536,-5.37
4548,7.18
4560,15.92
4572,23.04
4584,33.38
4595,47.26
4606,66.4
4618,89.64
4630,114.46
4642,137.64
4654,158.11
4666,175.52
4678,189.57
4690,199.53
4702,204.13
4714,202.92
4726,195.73
4738,183.44
4750,166.71
4762,146.89
4774,125.81
4785,105.72
4796,89.1
4808,78.37
4820,75.67
4832,81.34
4844,93.59
4856,108.28
4868,120.79
4880,127.67
4892,127.72
4904,121.96
4916,112.51
4928,101.75
4940,90.78
4952,79.53
4964,67.11
4975,52.85
4986,36.64
4998,18.76
5010,-0.54
5022,-21.32
5034,-43.5
5046,-66.74
5058,-90.0
5070,-111.7
5082,-130.17
5094,-144.19
5106,-153.41
5118,-158.3
5130,-159.89
5142,-159.23
5154,-157.31
5165,-154.84
5176,-152.23
5188,-149.38
5200,-145.63
5212,-139.79
5224,-130.6
5236,-117.32
5248,-100.21
5260,-80.62
5272,-60.62
5284,-42.11
5296,-26.27
5308,-13.14
5320,-1.99
5332,8.04
5344,17.35
5355,25.62
5366,32.07
5378,35.95
5390,37.12
5402,36.2
5414,34.4
5426,32.95
5438,32.66
5450,33.73
5462,35.85
5474,38.51
5486,41.3
5498,44.06
5510,46.78
5522,49.44
5534,51.89
5545,53.9
5556,55.22
5568,55.71
5580,55.32
5592,54.21
5604,52.72
5616,51.22
5628,50.04
5640,49.29
5652,48.7
5664,47.79
5676,45.97
5688,42.87
5700,38.46
5712,32.98
5724,26.79
5735,20.26
5746,13.79
5758,7.78
5770,2.79
5782,-0.71
5794,-2.49
5806,-2.76
5818,-2.12
5830,-1.2
5842,-0.25
5854,1.0
5866,3.14
5878,6.72
5890,11.78
5902,17.81
5914,24.04
5925,29.77
5936,34.69
5948,38.85
5960,42.39
5972,45.2
5984,46.87
5996,46.79
6008,44.4
6020,39.46
6032,32.15
6044,22.98
6056,12.7
6068,2.21
6080,-7.55
6092,-15.64
6104,-21.35
6115,-24.42
6126,-25.08
6138,-24.01
6150,-21.99
6162,-19.68
6174,-17.44
6186,-15.41
6198,-13.68
6210,-12.49
6222,-12.22
6234,-13.21
6246,-15.52
6258,-18.86
6270,-22.63
6282,-26.19
6294,-29.06
6305,-31.07
6316,-32.2
6328,-32.43
6340,-31.69
6352,-29.88
6364,-27.07
6376,-23.65
6388,-20.22
6400,-17.46
6412,-15.78
6424,-15.16
6436,-15.27
6448,-15.62
6460,-15.85
6472,-15.89
6484,-15.8
6495,-15.67
6506,-15.46
6518,-15.06
6530,-14.4
6542,-13.75
6554,-13.7
6566,-15.06
6578,-18.55
6590,-24.38
6602,-32.14
6614,-40.79
6626,-49.06
6638,-55.88
6650,-60.73
6662,-63.74
6674,-65.48
6685,-66.69
6696,-67.91
6708,-69.33
6720,-70.82
6732,-72.13
6744,-72.99
6756,-73.2
6768,-72.52
6780,-70.54
6792,-66.78
6804,-60.86
6816,-52.75
6828,-42.94
6840,-32.38
6852,-22.14
6864,-13.0
6875,-5.28
6886,1.19
6898,6.71
6910,11.42
6922,15.17
6934,17.62
6946,18.57
6958,18.25
6970,17.27
6982,16.41
6994,16.33
7006,17.29
7018,19.13
7030,21.34
7042,23.38
7054,24.76
7065,25.26
7076,24.83
7088,23.58
7100,21.73
7112,19.49
7124,17.07
7136,14.7
7148,12.58
7160,10.89
7172,9.76
7184,9.04
7196,8.31
7208,7.06
7220,4.81
7232,1.46
7244,-2.63
7255,-6.78
7266,-10.33
7278,-12.9
7290,-14.49
7302,-15.5
7314,-16.41
7326,-17.62
7338,-19.29
7350,-21.37
7362,-23.6
7374,-25.6
7386,-26.88
7398,-26.94
7410,-25.38
7422,-21.95
7434,-16.79
7445,-10.3
7456,-3.1
7468,4.15
7480,10.85
7492,16.57
7504,21.05
7516,24.23
7528,26.18
7540,27.1
7552,27.24
7564,26.88
7576,26.22
7588,25.44
7600,24.63
7612,23.88
7624,23.18
7635,22.57
7646,22.03
7658,21.63
7670,21.49
7682,21.74
7694,22.43
7706,23.42
7718,24.43
7730,25.07
7742,25.08
7754,24.39
7766,23.17
7778,21.68
7790,20.08
7802,18.38
7814,16.52
7825,14.46
7836,12.29
7848,10.19
7860,8.25
7872,6.42
7884,4.55
7896,2.5
7908,0.29
7920,-1.8
7932,-3.5
7944,-4.68
7956,-5.49
7968,-6.34
7980,-7.65
7992,-9.68
8004,-12.39
8015,-15.43
8026,-18.31
8038,-20.49
8050,-21.54
8062,-21.1
8074,-19.01
8086,-15.32
8098,-10.3
8110,-4.48
8122,1.59
8134,7.34
8146,12.43
8158,16.69
8170,20.06
8182,22.49
8194,23.92
8205,24.35
8216,23.95
8228,23.06
8240,22.12
8252,21.51
8264,21.35
8276,21.49
8288,21.68
8300,21.67
8312,21.47
8324,21.22
8336,21.16
8348,21.38
8360,21.75
8372,21.96
8384,21.74
8395,20.94
8406,19.64
8418,18.04
8430,16.39
8442,14.86
8454,13.51
8466,12.27
8478,10.99
8490,9.57
8502,7.96
8514,6.2
8526,4.36
8538,2.55
8550,0.75
8562,-1.11
8574,-3.15
8585,-5.44
8596,-7.92
8608,-10.39
8620,-12.65
8632,-14.54
8644,-16.14
8656,-17.69
8668,-19.47
8680,-21.57
8692,-23.81
8704,-25.73
8716,-26.7
8728,-26.2
8740,-23.87
8752,-19.78
8764,-14.27
8775,-7.94
8786,-1.41
8798,4.77
8810,10.26
8822,14.88
8834,18.63
8846,21.59
8858,23.8
8870,25.29
8882,26.01
8894,26.0
8906,25.32
8918,24.19
8930,22.84
8942,21.48
8954,20.27
8965,19.23
8976,18.38
8988,17.67
9000,17.06
9012,16.5
9024,15.92
9036,15.28
9048,14.54
9060,13.73
9072,12.86
9084,12.0
9096,11.14
9108,10.23
9120,9.15
9132,7.85
9144,6.32
9155,4.62
9166,2.82
9178,1.01
9190,-0.76
9202,-2.48
9214,-4.14
9226,-5.74
9238,-7.28
9250,-8.76
9262,-10.19
9274,-11.65
9286,-13.13
9298,-14.59
9310,-15.91
9322,-16.88
9334,-17.17
9345,-16.51
9356,-14.67
9368,-11.62
9380,-7.53
9392,-2.71
9404,2.48
9416,7.66
9428,12.52
9440,16.8
9452,20.27
9464,22.74
9476,24.1
9488,24.34
9500,23.58
9512,22.13
9524,20.33
9535,18.51
9546,16.94
9558,15.71
9570,14.79
9582,14.13
9594,13.65
9606,13.32
9618,13.19
9630,13.26
9642,13.52
9654,13.79
9666,13.85
9678,13.49
9690,12.64
9702,11.38
9714,9.88
9725,8.31
9736,6.71
9748,5.0
9760,2.96
9772,0.45
9784,-2.47
9796,-5.58
9808,-8.54
9820,-11.06
9832,-13.04
9844,-14.6
9856,-16.03
9868,-17.61
9880,-19.58
9892,-21.98
9904,-24.67
9915,-27.34
9926,-29.6
9938,-31.0
9950,-31.08
9962,-29.5
9974,-26.07
9986,-20.87
9998,-14.32
10010,-7.07
10022,0.11
10034,6.5
10046,11.57
10058,15.18
10070,17.49
10082,18.98
10094,20.17
10105,21.4
10116,22.74
10128,24.01
10140,24.85
10152,24.96
10164,24.29
10176,23.05
10188,21.6
10200,20.27
10212,19.21
10224,18.38
10236,17.6
10248,16.7
10260,15.59
10272,14.38
10284,13.25
10295,12.35
10306,11.68
10318,11.03
10330,10.1
10342,8.59
10354,6.47
10366,3.91
10378,1.27
10390,-1.14
10402,-3.23
10414,-5.2
10426,-7.34
10438,-9.85
10450,-12.69
10462,-15.56
10474,-18.07
10485,-19.98
10496,-21.3
10508,-22.29
10520,-23.26
10532,-24.47
10544,-25.97
10556,-27.69
10568,-29.45
10580,-31.04
10592,-32.18
10604,-32.54
10616,-31.72
10628,-29.36
10640,-25.34
10652,-19.89
10664,-13.59
10675,-7.17
10686,-1.34
10698,3.48
10710,7.16
10722,9.77
10734,11.48
10746,12.38
10758,12.44
10770,11.65
10782,10.13
10794,8.06
10806,5.72
10818,3.28
10830,0.78
10842,-1.85
10854,-4.76
10865,-8.01
10876,-11.47
10888,-14.85
10900,-17.83
10912,-20.1
10924,-21.48
10936,-21.84
10948,-21.09
10960,-19.18
10972,-15.98
10984,-11.52
10996,-6.06
11008,-0.07
11020,5.75
11032,10.7
11044,14.2
11055,16.04
11066,16.34
11078,15.47
11090,13.89
11102,11.9
11114,9.69
11126,7.33
11138,4.83
11150,2.25
11162,-0.3
11174,-2.72
11186,-4.93
11198,-6.91
11210,-8.63
11222,-9.9
11234,-10.44
11245,-9.88
11256,-7.96
11268,-4.63
11280,-0.13
11292,4.99
11304,10.02
11316,14.3
11328,17.4
11340,19.18
11352,19.77
11364,19.51
11376,18.67
11388,17.4
11400,15.73
11412,13.75
11424,11.72
11435,10.08
11446,9.33
11458,9.78
11470,11.42
11482,13.87
11494,16.55
11506,18.95
11518,20.81
11530,22.17
11542,23.17
11554,23.87
11566,24.11
11578,23.61
11590,22.09
11602,19.53
11614,16.24
11625,12.68
11636,9.29
11648,6.3
11660,3.63
11672,1.01
11684,-1.82
11696,-4.92
11708,-8.14
11720,-11.24
11732,-14.02
11744,-16.46
11756,-18.71
11768,-20.99
11780,-23.46
11792,-26.15
11804,-28.95
11815,-31.57
11826,-33.66
11838,-34.83
11850,-34.73
11862,-33.11
11874,-29.94
11886,-25.43
11898,-19.92
11910,-13.87
11922,-7.7
11934,-1.81
11946,3.48
11958,7.88
11970,11.19
11982,13.31
11994,14.33
12005,14.57
12016,14.43
12028,14.26
12040,14.22
12052,14.22
12064,14.04
12076,13.46
12088,12.48
12100,11.29
12112,10.24
12124,9.64
12136,9.59
12148,9.94
12160,10.34
12172,10.4
12184,9.87
12195,8.75
12206,7.25
12218,5.69
12230,4.33
12242,3.26
12254,2.38
12266,1.46
12278,0.3
12290,-1.2
12302,-3.01
12314,-5.01
12326,-7.03
12338,-8.91
12350,-10.53
12362,-11.87
12374,-12.99
12385,-14.04
12396,-15.28
12408,-17.0
12420,-19.42
12432,-22.56
12444,-26.14
12456,-29.61
12468,-32.23
12480,-33.29
12492,-32.3
12504,-29.18
12516,-24.22
12528,-18.01
12540,-11.24
12552,-4.57
12564,1.58
12575,6.94
12586,11.4
12598,14.95
12610,17.58
12622,19.4
12634,20.47
12646,20.93
12658,20.89
12670,20.37
12682,19.35
12694,17.85
12706,15.93
12718,13.81
12730,11.8
12742,10.18
12754,9.1
12765,8.55
12776,8.35
12788,8.26
12800,8.15
12812,7.93
12824,7.65
12836,7.4
12848,7.18
12860,6.92
12872,6.48
12884,5.69
12896,4.46
12908,2.83
12920,0.94
12932,-0.98
12944,-2.75
12955,-4.25
12966,-5.48
12978,-6.5
12990,-7.42
13002,-8.29
13014,-9.15
13026,-10.05
13038,-11.0
13050,-12.04
13062,-13.21
13074,-14.47
13086,-15.78
13098,-17.08
13110,-18.34
13122,-19.51
13134,-20.57
13145,-21.41
13156,-21.86
13168,-21.7
13180,-20.64
13192,-18.45
13204,-14.99
13216,-10.35
13228,-4.79
13240,1.18
13252,6.93
13264,11.9
13276,15.75
13288,18.45
13300,20.24
13312,21.46
13324,22.32
13335,22.8
13346,22.69
13358,21.81
13370,20.19
13382,18.17
13394,16.25
13406,14.88
13418,14.32
13430,14.47
13442,15.04
13454,15.65
13466,15.99
13478,15.95
13490,15.53
13502,14.81
13514,13.87
13525,12.8
13536,11.6
13548,10.28
13560,8.8
13572,7.13
13584,5.3
13596,3.36
13608,1.42
13620,-0.46
13632,-2.25
13644,-4.03
13656,-5.88
13668,-7.89
13680,-10.05
13692,-12.23
13704,-14.23
13715,-15.93
13726,-17.33
13738,-18.59
13750,-19.98
13762,-21.64
13774,-23.61
13786,-25.68
13798,-27.48
13810,-28.59
13822,-28.62
13834,-27.34
13846,-24.64
13858,-20.61
13870,-15.5
13882,-9.71
13894,-3.69
13905,2.05
13916,7.08
13928,11.15
13940,14.16
13952,16.15
13964,17.26
13976,17.66
13988,17.5
14000,16.97
14012,16.23
14024,15.48
14036,14.85
14048,14.41
14060,14.09
14072,13.73
14084,13.23
14095,12.57
14106,11.88
14118,11.35
14130,11.18
14142,11.39
14154,11.75
14166,11.99
14178,11.79
14190,11.03
14202,9.77
14214,8.19
14226,6.49
14238,4.76
14250,3.01
14262,1.17
14274,-0.78
14285,-2.75
14296,-4.62
14308,-6.23
14320,-7.58
14332,-8.72
14344,-9.84
14356,-11.08
14368,-12.46
14380,-13.88
14392,-15.22
14404,-16.33
14416,-17.2
14428,-17.92
14440,-18.66
14452,-19.61
14464,-20.87
14475,-22.41
14486,-24.14
14498,-25.84
14510,-27.18
14522,-27.75
14534,-27.14
14546,-25.03
14558,-21.36
14570,-16.36
14582,-10.54
14594,-4.55
14606,0.96
14618,5.58
14630,9.13
14642,11.64
14654,13.29
14665,14.25
14676,14.63
14688,14.53
14700,14.09
14712,13.44
14724,12.76
14736,12.08
14748,11.35
14760,10.45
14772,9.33
14784,8.13
14796,7.15
14808,6.71
14820,6.98
14832,7.88
14844,9.07
14855,10.13
14866,10.72
14878,10.69
14890,10.1
14902,9.13
14914,7.93
14926,6.61
14938,5.23
14950,3.83
14962,2.44
14974,1.09
14986,-0.19
14998,-1.43
15010,-2.65
15022,-3.92
15034,-5.3
15045,-6.8
15056,-8.36
15068,-9.84
15080,-11.05
15092,-11.83
15104,-12.18
15116,-12.23
15128,-12.21
15140,-12.36
15152,-12.84
15164,-13.63
15176,-14.62
15188,-15.74
15200,-16.99
15212,-18.45
15224,-20.11
15235,-21.89
15246,-23.49
15258,-24.51
15270,-24.52
15282,-23.22
15294,-20.51
15306,-16.55
15318,-11.63
15330,-6.19
15342,-0.68
15354,4.41
15366,8.75
15378,12.09
15390,14.34
15402,15.58
15414,15.95
15425,15.67
15436,14.97
15448,14.05
15460,13.08
15472,12.18
15484,11.43
15496,10.85
15508,10.5
15520,10.43
15532,10.68
15544,11.26
15556,12.05
15568,12.86
15580,13.47
15592,13.7
15604,13.48
15615,12.83
15626,11.88
15638,10.72
15650,9.44
15662,8.05
15674,6.53
15686,4.86
15698,3.01
15710,1.03
15722,-1.03
15734,-3.06
15746,-4.95
15758,-6.57
15770,-7.88
15782,-8.84
15794,-9.55
15805,-10.15
15816,-10.77
15828,-11.6
15840,-12.77
15852,-14.33
15864,-16.23
15876,-18.36
15888,-20.5
15900,-22.45
15912,-24.0
15924,-24.9
15936,-24.96
15948,-23.91
15960,-21.58
15972,-17.93
15984,-13.14
15995,-7.64
16006,-1.98
16018,3.3
16030,7.81
16042,11.36
16054,13.93
16066,15.59
16078,16.39
16090,16.41
16102,15.76
16114,14.62
16126,13.2
16138,11.78
16150,10.56
16162,9.68
16174,9.17
16185,8.98
16196,9.06
16208,9.29
16220,9.56
16232,9.75
16244,9.81
16256,9.75
16268,9.67
16280,9.66
16292,9.75
16304,9.88
16316,9.83
16328,9.38
16340,8.39
16352,6.89
16364,5.08
16375,3.28
16386,1.73
16398,0.52
16410,-0.48
16422,-1.55
16434,-2.92
16446,-4.69
16458,-6.78
16470,-9.0
16482,-11.15
16494,-13.16
16506,-15.09
16518,-17.03
16530,-19.01
16542,-20.91
16554,-22.55
16565,-23.82
16576,-24.73
16588,-25.41
16600,-26.04
16612,-26.62
16624,-26.9
16636,-26.43
16648,-24.71
16660,-21.48
16672,-16.81
16684,-11.15
16696,-5.15
16708,0.53
16720,5.42
16732,9.34
16744,12.31
16755,14.48
16766,16.02
16778,17.06
16790,17.64
16802,17.73
16814,17.31
16826,16.42
16838,15.22
16850,13.97
16862,12.94
16874,12.34
16886,12.17
16898,12.27
16910,12.34
16922,12.11
16934,11.44
16945,10.35
16956,9.02
16968,7.72
16980,6.66
16992,5.98
17004,5.65
17016,5.55
17028,5.46
17040,5.18
17052,4.54
17064,3.51
17076,2.12
17088,0.53
17100,-1.14
17112,-2.83
17124,-4.5
17135,-6.22
17146,-8.02
17158,-9.91
17170,-11.84
17182,-13.69
17194,-15.31
17206,-16.68
17218,-17.83
17230,-18.92
17242,-20.09
17254,-21.46
17266,-23.05
17278,-24.76
17290,-26.44
17302,-27.86
17314,-28.72
17325,-28.67
17336,-27.38
17348,-24.59
17360,-20.27
17372,-14.68
17384,-8.32
17396,-1.85
17408,4.05
17420,8.9
17432,12.42
17444,14.61
17456,15.64
17468,15.79
17480,15.38
17492,14.7
17504,13.95
17515,13.28
17526,12.76
17538,12.43
17550,12.27
17562,12.21
17574,12.19
17586,12.2
17598,12.28
17610,12.52
17622,12.97
17634,13.59
17646,14.2
17658,14.57
17670,14.48
17682,13.87
17694,12.83
17705,11.51
17716,10.11
17728,8.71
17740,7.31
17752,5.84
17764,4.23
17776,2.43
17788,0.48
17800,-1.57
17812,-3.62
17824,-5.57
17836,-7.36
17848,-8.97
17860,-10.44
17872,-11.81
17884,-13.12
17895,-14.36
17906,-15.52
17918,-16.63
17930,-17.77
17942,-19.01
17954,-20.31
17966,-21.4
17978,-21.83
17990,-21.01
18002,-18.54
18014,-14.34
18026,-8.75
18038,-2.47
18050,3.72
18062,9.2
18074,13.6
18085,16.84
18096,19.0
18108,20.2
18120,20.52
18132,20.05
18144,18.91
18156,17.24
18168,15.3
18180,13.36
18192,11.66
18204,10.34
18216,9.48
18228,8.99
18240,8.76
18252,8.65
18264,8.65
18275,8.78
18286,9.11
18298,9.63
18310,10.21
18322,10.59
18334,10.5
18346,9.79
18358,8.5
18370,6.85
18382,5.19
18394,3.76
18406,2.61
18418,1.64
18430,0.66
18442,-0.55
18454,-2.07
18465,-3.87
18476,-5.85
18488,-7.91
18500,-9.96
18512,-12.0
18524,-14.01
18536,-16.0
18548,-17.94
18560,-19.8
18572,-21.58
18584,-23.35
18596,-25.18
18608,-27.1
18620,-29.02
18632,-30.61
18644,-31.37
18655,-30.75
18666,-28.36
18678,-24.09
18690,-18.29
18702,-11.56
18714,-4.67
18726,1.7
18738,7.11
18750,11.29
18762,14.24
18774,16.05
18786,16.87
18798,16.92
18810,16.45
18822,15.73
18834,15.0
18845,14.4
18856,13.96
18868,13.57
18880,13.16
18892,12.68
18904,12.17
18916,11.77
18928,11.64
18940,11.84
18952,12.3
18964,12.86
18976,13.3
18988,13.5
19000,13.4
19012,13.09
19024,12.62
19035,12.04
19046,11.3
19058,10.35
19070,9.14
19082,7.67
19094,6.01
19106,4.2
19118,2.34
19130,0.48
19142,-1.34
19154,-3.09
19166,-4.74
19178,-6.35
19190,-7.94
19202,-9.53
19214,-11.09
19225,-12.56
19236,-13.92
19248,-15.25
19260,-16.72
19272,-18.5
19284,-20.7
19296,-23.23
19308,-25.78
19320,-27.93
19332,-29.17
19344,-29.08
19356,-27.33
19368,-23.84
19380,-18.75
19392,-12.45
19404,-5.47
19415,1.58
19426,8.13
19438,13.79
19450,18.31
19462,21.61
19474,23.7
19486,24.68
19498,24.67
19510,23.83
19522,22.39
19534,20.57
19546,18.58
19558,16.59
19570,14.71
19582,13.02
19594,11.53
19605,10.26
19616,9.26
19628,8.6
19640,8.33
19652,8.45
19664,8.81
19676,9.17
19688,9.27
19700,8.93
19712,8.11
19724,6.89
19736,5.4
19748,3.73
19760,2.0
19772,0.33
19784,-1.08
19795,-2.0
19806,-2.22
19818,-1.74
19830,-0.76
19842,0.27
19854,0.84
19866,0.57
19878,-0.68
19890,-2.78
19902,-5.37
19914,-8.05
19926,-10.54
19938,-12.75
19950,-14.75
19962,-16.64
19974,-18.54
19985,-20.41
19996,-22.21
20008,-23.87
20020,-25.4
20032,-26.81
20044,-27.98
20056,-28.61
20068,-28.17
20080,-26.16
20092,-22.27
20104,-16.64
20116,-9.8
20128,-2.58
20140,4.15
20152,9.71
20164,13.73
20175,16.16
20186,17.24
20198,17.33
20210,16.81
20222,15.95
20234,14.92
20246,13.79
20258,12.64
20270,11.6
20282,10.83
20294,10.44
20306,10.43
20318,10.63
20330,10.84
20342,10.96
20354,11.03
20365,11.25
20376,11.81
20388,12.74
20400,13.87
20412,14.88
20424,15.46
20436,15.4
20448,14.72
20460,13.54
20472,12.05
20484,10.42
20496,8.78
20508,7.17
20520,5.57
20532,3.88
20544,2.02
20555,-0.0
20566,-2.09
20578,-4.02
20590,-5.58
20602,-6.64
20614,-7.27
20626,-7.68
20638,-8.18
20650,-9.04
20662,-10.39
20674,-12.19
20686,-14.2
20698,-16.05
20710,-17.3
20722,-17.47
20734,-16.2
20745,-13.25
20756,-8.65
20768,-2.63
20780,4.34
20792,11.62
20804,18.47
20816,24.2
20828,28.28
20840,30.47
20852,30.81
20864,29.53
20876,26.97
20888,23.49
20900,19.38
20912,14.87
20924,10.14
20935,5.37
20946,0.71
20958,-3.62
20970,-7.37
20982,-10.26
20994,-12.08
