seconds,BVP
6,9.23
18,8.23
30,7.38
42,6.71
54,6.17
66,5.66
78,5.07
90,4.3
101,3.34
112,2.25
124,1.16
136,0.16
148,-0.71
160,-1.5
172,-2.31
184,-3.28
196,-4.46
208,-5.84
220,-7.34
232,-8.83
244,-10.2
256,-11.41
268,-12.54
280,-13.74
291,-15.16
302,-16.92
314,-19.1
326,-21.66
338,-24.44
350,-27.16
362,-29.36
374,-30.47
386,-29.96
398,-27.52
410,-23.23
422,-17.54
434,-11.25
446,-5.19
458,-0.06
470,3.8
481,6.36
492,7.86
504,8.64
516,9.1
528,9.51
540,10.05
552,10.76
564,11.6
576,12.45
588,13.23
600,13.88
612,14.4
624,14.79
636,15.1
648,15.36
660,15.58
671,15.8
682,16.08
694,16.43
706,16.8
718,17.09
730,17.1
742,16.65
754,15.68
766,14.29
778,12.73
790,11.31
802,10.24
814,9.52
826,8.98
838,8.38
850,7.55
861,6.51
872,5.41
884,4.48
896,3.88
908,3.59
920,3.45
932,3.23
944,2.72
956,1.84
968,0.64
980,-0.74
992,-2.12
1004,-3.37
1016,-4.46
1028,-5.48
1040,-6.54
1051,-7.77
1062,-9.22
1074,-10.86
1086,-12.56
1098,-14.21
1110,-15.69
1122,-16.94
1134,-17.96
1146,-18.81
1158,-19.65
1170,-20.7
1182,-22.23
1194,-24.43
1206,-27.27
1218,-30.36
1230,-32.97
1241,-34.16
1252,-33.18
1264,-29.72
1276,-24.12
1288,-17.24
1300,-10.2
1312,-3.97
1324,0.84
1336,4.08
1348,5.95
1360,6.83
1372,7.11
1384,7.19
1396,7.39
1408,7.91
1420,8.87
1431,10.17
1442,11.61
1454,12.92
1466,13.9
1478,14.49
1490,14.78
1502,14.94
1514,15.13
1526,15.43
1538,15.78
1550,16.05
1562,16.14
1574,15.98
1586,15.63
1598,15.16
1610,14.65
1621,14.1
1632,13.47
1644,12.68
1656,11.73
1668,10.69
1680,9.69
1692,8.86
1704,8.24
1716,7.81
1728,7.47
1740,7.13
1752,6.71
1764,6.19
1776,5.57
1788,4.84
1800,4.04
1811,3.22
1822,2.46
1834,1.81
1846,1.27
1858,0.77
1870,0.2
1882,-0.58
1894,-1.61
1906,-2.84
1918,-4.16
1930,-5.4
1942,-6.5
1954,-7.49
1966,-8.48
1978,-9.59
1990,-10.83
2001,-12.16
2012,-13.45
2024,-14.57
2036,-15.5
2048,-16.28
2060,-17.09
2072,-18.11
2084,-19.55
2096,-21.57
2108,-24.22
2120,-27.32
2132,-30.43
2144,-32.86
2156,-33.79
2168,-32.59
2180,-29.08
2191,-23.61
2202,-17.01
2214,-10.28
2226,-4.3
2238,0.38
2250,3.61
2262,5.56
2274,6.53
2286,6.87
2298,6.93
2310,7.04
2322,7.5
2334,8.45
2346,9.83
2358,11.39
2370,12.81
2381,13.81
2392,14.27
2404,14.29
2416,14.08
2428,13.89
2440,13.89
2452,14.19
2464,14.74
2476,15.46
2488,16.17
2500,16.68
2512,16.84
2524,16.53
2536,15.74
2548,14.58
2560,13.26
2571,12.01
2582,11.03
2594,10.4
2606,10.06
2618,9.88
2630,9.66
2642,9.29
2654,8.71
2666,7.98
2678,7.23
2690,6.56
2702,6.02
2714,5.54
2726,5.06
2738,4.48
2750,3.8
2761,3.06
2772,2.29
2784,1.48
2796,0.59
2808,-0.44
2820,-1.61
2832,-2.85
2844,-4.04
2856,-5.07
2868,-5.92
2880,-6.68
2892,-7.48
2904,-8.46
2916,-9.66
2928,-11.06
2940,-12.56
2951,-14.02
2962,-15.32
2974,-16.39
2986,-17.27
2998,-18.1
3010,-19.08
3022,-20.41
3034,-22.22
3046,-24.43
3058,-26.75
3070,-28.67
3082,-29.53
3094,-28.76
3106,-26.01
3118,-21.35
3130,-15.32
3141,-8.78
3152,-2.66
3164,2.33
3176,5.84
3188,7.93
3200,8.94
3212,9.27
3224,9.26
3236,9.12
3248,8.93
3260,8.7
3272,8.46
3284,8.22
3296,8.0
3308,7.85
3320,7.87
3331,8.16
3342,8.81
3354,9.82
3366,11.04
3378,12.25
3390,13.19
3402,13.69
3414,13.7
3426,13.35
3438,12.79
3450,12.17
3462,11.52
3474,10.78
3486,9.87
3498,8.73
3510,7.41
3521,5.98
3532,4.5
3544,2.98
3556,1.4
3568,-0.19
3580,-1.66
3592,-2.86
3604,-3.69
3616,-4.23
3628,-4.72
3640,-5.4
3652,-6.47
3664,-7.9
3676,-9.55
3688,-11.19
3700,-12.7
3711,-14.07
3722,-15.37
3734,-16.72
3746,-18.27
3758,-20.12
3770,-22.35
3782,-24.84
3794,-27.23
3806,-28.93
3818,-29.23
3830,-27.6
3842,-23.91
3854,-18.52
3866,-12.16
3878,-5.71
3890,0.08
3901,4.69
3912,7.95
3924,9.88
3936,10.72
3948,10.78
3960,10.42
3972,9.98
3984,9.71
3996,9.76
4008,10.11
4020,10.67
4032,11.33
4044,11.96
4056,12.5
4068,12.92
4080,13.2
4091,13.41
4102,13.6
4114,13.83
4126,14.14
4138,14.48
4150,14.78
4162,14.92
4174,14.8
4186,14.35
4198,13.59
4210,12.6
4222,11.51
4234,10.45
4246,9.49
4258,8.63
4270,7.8
4281,6.9
4292,5.84
4304,4.6
4316,3.24
4328,1.87
4340,0.61
4352,-0.48
4364,-1.4
4376,-2.24
4388,-3.15
4400,-4.26
4412,-5.62
4424,-7.23
4436,-9.0
4448,-10.78
4460,-12.45
4471,-13.89
4482,-15.08
4494,-16.1
4506,-17.12
4518,-18.41
4530,-20.26
4542,-22.83
4554,-26.05
4566,-29.44
4578,-32.27
4590,-33.63
4602,-32.85
4614,-29.65
4626,-24.35
4638,-17.71
4650,-10.72
4661,-4.31
4672,0.92
4684,4.68
4696,7.05
4708,8.28
4720,8.74
4732,8.82
4744,8.9
4756,9.28
4768,10.14
4780,11.44
4792,13.01
4804,14.55
4816,15.79
4828,16.56
4840,16.84
4851,16.75
4862,16.53
4874,16.37
4886,16.43
4898,16.72
4910,17.18
4922,17.61
4934,17.83
4946,17.7
4958,17.15
4970,16.21
4982,15.02
4994,13.76
5006,12.6
5018,11.63
5030,10.87
5041,10.22
5052,9.52
5064,8.65
5076,7.59
5088,6.4
5100,5.24
5112,4.27
5124,3.55
5136,3.01
5148,2.51
5160,1.85
5172,0.94
5184,-0.23
5196,-1.52
5208,-2.77
5220,-3.82
5231,-4.65
5242,-5.37
5254,-6.2
5266,-7.33
5278,-8.87
5290,-10.75
5302,-12.78
5314,-14.72
5326,-16.38
5338,-17.71
5350,-18.83
5362,-19.93
5374,-21.25
5386,-23.0
5398,-25.28
5410,-28.0
5421,-30.82
5432,-33.15
5444,-34.29
5456,-33.53
5468,-30.52
5480,-25.37
5492,-18.68
5504,-11.43
5516,-4.6
5528,1.01
5540,5.03
5552,7.49
5564,8.72
5576,9.18
5588,9.3
5600,9.41
5611,9.71
5622,10.29
5634,11.16
5646,12.27
5658,13.54
5670,14.82
5682,15.95
5694,16.77
5706,17.21
5718,17.34
5730,17.29
5742,17.27
5754,17.46
5766,17.88
5778,18.39
5790,18.78
5801,18.84
5812,18.48
5824,17.72
5836,16.72
5848,15.61
5860,14.48
5872,13.36
5884,12.23
5896,11.07
5908,9.91
5920,8.83
5932,7.91
5944,7.17
5956,6.53
5968,5.88
5980,5.06
5991,4.0
6002,2.73
6014,1.39
6026,0.14
6038,-0.9
6050,-1.75
6062,-2.54
6074,-3.45
6086,-4.64
6098,-6.11
6110,-7.74
6122,-9.35
6134,-10.83
6146,-12.15
6158,-13.38
6170,-14.64
6181,-15.99
6192,-17.48
6204,-19.15
6216,-21.06
6228,-23.26
6240,-25.69
6252,-27.99
6264,-29.57
6276,-29.71
6288,-27.9
6300,-24.02
6312,-18.52
6324,-12.22
6336,-6.04
6348,-0.71
6360,3.41
6371,6.31
6382,8.18
6394,9.28
6406,9.79
6418,9.87
6430,9.66
6442,9.33
6454,9.07
6466,9.04
6478,9.33
6490,9.93
6502,10.71
6514,11.51
6526,12.17
6538,12.63
6550,12.94
6561,13.24
6572,13.64
6584,14.14
6596,14.61
6608,14.86
6620,14.74
6632,14.2
6644,13.36
6656,12.33
6668,11.16
6680,9.83
6692,8.29
6704,6.54
6716,4.72
6728,3.01
6740,1.6
6751,0.55
6762,-0.21
6774,-0.9
6786,-1.71
6798,-2.8
6810,-4.2
6822,-5.84
6834,-7.57
6846,-9.23
6858,-10.71
6870,-11.97
6882,-13.12
6894,-14.32
6906,-15.75
6918,-17.52
6930,-19.69
6941,-22.21
6952,-24.89
6964,-27.36
6976,-29.05
6988,-29.34
7000,-27.71
7012,-24.02
7024,-18.6
7036,-12.21
7048,-5.77
7060,-0.09
7072,4.31
7084,7.32
7096,9.08
7108,9.89
7120,10.11
7131,10.06
7142,10.04
7154,10.28
7166,10.87
7178,11.77
7190,12.79
7202,13.71
7214,14.41
7226,14.84
7238,15.11
7250,15.36
7262,15.69
7274,16.12
7286,16.59
7298,16.94
7310,17.06
7321,16.86
7332,16.34
7344,15.56
7356,14.62
7368,13.61
7380,12.58
7392,11.56
7404,10.56
7416,9.6
7428,8.71
7440,7.91
7452,7.2
7464,6.49
7476,5.69
7488,4.71
7500,3.55
7511,2.28
7522,1.05
7534,-0.01
7546,-0.87
7558,-1.57
7570,-2.26
7582,-3.1
7594,-4.2
7606,-5.59
7618,-7.22
7630,-9.0
7642,-10.8
7654,-12.51
7666,-14.03
7678,-15.34
7690,-16.49
7701,-17.62
7712,-18.96
7724,-20.74
7736,-23.12
7748,-26.08
7760,-29.32
7772,-32.29
7784,-34.23
7796,-34.43
7808,-32.43
7820,-28.2
7832,-22.24
7844,-15.41
7856,-8.69
7868,-2.89
7880,1.55
7891,4.58
7902,6.47
7914,7.59
7926,8.33
7938,8.97
7950,9.69
7962,10.58
7974,11.7
7986,12.99
7998,14.34
8010,15.57
8022,16.48
8034,16.97
8046,17.04
8058,16.84
8070,16.6
8081,16.56
8092,16.86
8104,17.47
8116,18.24
8128,18.92
8140,19.26
8152,19.13
8164,18.49
8176,17.47
8188,16.25
8200,15.06
8212,14.08
8224,13.33
8236,12.76
8248,12.21
8260,11.53
8271,10.7
8282,9.76
8294,8.87
8306,8.13
8318,7.56
8330,7.09
8342,6.61
8354,6.04
8366,5.38
8378,4.71
8390,4.09
8402,3.56
8414,3.06
8426,2.47
8438,1.69
8450,0.68
8461,-0.52
8472,-1.79
8484,-3.0
8496,-4.08
8508,-5.03
8520,-5.91
8532,-6.9
8544,-8.12
8556,-9.66
8568,-11.47
8580,-13.38
8592,-15.17
8604,-16.65
8616,-17.76
8628,-18.61
8640,-19.46
8651,-20.62
8662,-22.38
8674,-24.88
8686,-28.07
8698,-31.62
8710,-34.9
8722,-37.11
8734,-37.45
8746,-35.39
8758,-30.9
8770,-24.52
8782,-17.18
8794,-9.92
8806,-3.63
8818,1.19
8830,4.41
8841,6.23
8852,7.0
8864,7.17
8876,7.18
8888,7.4
8900,8.04
8912,9.16
8924,10.58
8936,12.06
8948,13.31
8960,14.17
8972,14.62
8984,14.76
8996,14.76
9008,14.79
9020,14.94
9031,15.27
9042,15.71
9054,16.17
9066,16.52
9078,16.66
9090,16.52
9102,16.06
9114,15.31
9126,14.32
9138,13.24
9150,12.22
9162,11.39
9174,10.82
9186,10.45
9198,10.14
9210,9.71
9221,9.06
9232,8.19
9244,7.21
9256,6.3
9268,5.6
9280,5.16
9292,4.92
9304,4.72
9316,4.36
9328,3.71
9340,2.68
9352,1.34
9364,-0.16
9376,-1.63
9388,-2.91
9400,-3.94
9411,-4.79
9422,-5.58
9434,-6.46
9446,-7.52
9458,-8.76
9470,-10.12
9482,-11.51
9494,-12.84
9506,-14.05
9518,-15.15
9530,-16.18
9542,-17.24
9554,-18.46
9566,-20.02
9578,-22.03
9590,-24.49
9601,-27.18
9612,-29.63
9624,-31.18
9636,-31.18
9648,-29.24
9660,-25.38
9672,-20.01
9684,-13.87
9696,-7.75
9708,-2.25
9720,2.25
9732,5.6
9744,7.79
9756,8.84
9768,8.89
9780,8.22
9791,7.24
9802,6.43
9814,6.17
9826,6.58
9838,7.54
9850,8.76
9862,9.97
9874,11.02
9886,11.93
9898,12.84
9910,13.91
9922,15.22
9934,16.78
9946,18.47
9958,20.1
9970,21.45
9981,22.32
9992,22.56
10004,22.13
10016,21.04
10028,19.38
10040,17.22
10052,14.7
10064,11.95
10076,9.15
10088,6.46
10100,4.02
10112,1.88
10124,0.0
10136,-1.69
10148,-3.24
10160,-4.65
10171,-5.91
10182,-7.01
10194,-8.03
10206,-9.12
10218,-10.38
10230,-11.82
10242,-13.36
10254,-14.82
10266,-16.06
10278,-17.01
10290,-17.74
10302,-18.41
10314,-19.21
10326,-20.36
10338,-22.05
10350,-24.41
10361,-27.39
10372,-30.62
10384,-33.41
10396,-34.91
10408,-34.33
10420,-31.32
10432,-26.16
10444,-19.63
10456,-12.79
10468,-6.55
10480,-1.46
10492,2.37
10504,5.05
10516,6.8
10528,7.81
10540,8.21
10551,8.2
10562,8.09
10574,8.15
10586,8.59
10598,9.38
10610,10.32
10622,11.19
10634,11.81
10646,12.13
10658,12.24
10670,12.26
10682,12.27
10694,12.3
10706,12.39
10718,12.53
10730,12.74
10741,12.95
10752,13.08
10764,13.02
10776,12.68
10788,12.05
10800,11.22
10812,10.26
10824,9.29
10836,8.35
10848,7.49
10860,6.7
10872,5.99
10884,5.35
10896,4.74
10908,4.13
10920,3.53
10931,2.98
10942,2.52
10954,2.12
10966,1.7
10978,1.14
10990,0.41
11002,-0.41
11014,-1.14
11026,-1.61
11038,-1.79
11050,-1.86
11062,-2.09
11074,-2.77
11086,-4.03
11098,-5.79
11110,-7.77
11121,-9.67
11132,-11.27
11144,-12.51
11156,-13.47
11168,-14.34
11180,-15.36
11192,-16.81
11204,-18.91
11216,-21.77
11228,-25.19
11240,-28.65
11252,-31.37
11264,-32.5
11276,-31.43
11288,-28.01
11300,-22.64
11311,-16.1
11322,-9.39
11334,-3.38
11346,1.33
11358,4.51
11370,6.24
11382,6.83
11394,6.73
11406,6.4
11418,6.21
11430,6.38
11442,6.98
11454,7.98
11466,9.29
11478,10.84
11490,12.54
11501,14.3
11512,15.99
11524,17.54
11536,18.93
11548,20.23
11560,21.56
11572,22.94
11584,24.24
11596,25.17
11608,25.42
11620,24.78
11632,23.33
11644,21.4
11656,19.41
11668,17.69
11680,16.34
11691,15.23
11702,14.16
11714,13.03
11726,11.93
11738,11.09
11750,10.7
11762,10.83
11774,11.31
11786,11.89
11798,12.35
11810,12.58
11822,12.64
11834,12.63
11846,12.53
11858,12.2
11870,11.4
11881,9.96
11892,7.89
11904,5.33
11916,2.53
11928,-0.28
11940,-3.01
11952,-5.7
11964,-8.51
11976,-11.57
11988,-14.91
12000,-18.39
12012,-21.78
12024,-24.8
12036,-27.23
12048,-29.0
12060,-30.29
12071,-31.47
12082,-33.0
12094,-35.23
12106,-38.34
12118,-42.16
12130,-46.14
12142,-49.42
12154,-50.94
12166,-49.86
12178,-45.77
12190,-38.86
12202,-29.79
12214,-19.58
12226,-9.28
12238,0.33
12250,8.86
12261,16.26
12272,22.33
12284,26.74
12296,29.2
12308,29.83
12320,29.3
12332,28.64
12344,29.01
12356,31.28
12368,35.57
12380,40.86
12392,45.38
12404,47.4
12416,46.01
12428,41.26
12440,33.99
12451,25.51
12462,17.21
12474,10.1
12486,4.14
12498,-1.44
12510,-7.57
12522,-14.82
12534,-23.35
12546,-33.21
12558,-44.2
12570,-55.66
12582,-63.5
12594,-62.96
12606,-51.39
12618,-30.64
12630,-5.86
12641,16.88
12652,32.09
12664,36.53
12676,30.49
12688,17.56
12700,2.66
12712,-9.81
12724,-17.43
12736,-19.85
12748,-18.16
12760,-14.0
12772,-8.8
12784,-2.54
12796,4.6
12808,11.47
12820,16.11
12831,16.65
12842,12.32
12854,3.93
12866,-6.88
12878,-18.18
12890,-28.17
12902,-35.81
12914,-41.24
12926,-45.46
12938,-49.71
12950,-54.93
12962,-60.13
12974,-64.44
12986,-67.56
12998,-68.9
13010,-67.82
13021,-64.29
13032,-58.8
13044,-52.24
13056,-45.54
13068,-38.62
13080,-31.44
13092,-24.86
13104,-18.72
13116,-12.08
13128,-4.38
13140,4.4
13152,13.95
13164,23.86
13176,35.0
13188,47.71
13200,60.03
13211,70.97
13222,80.55
13234,88.56
13246,94.74
13258,98.98
13270,101.46
13282,104.19
13294,108.55
13306,112.77
13318,116.2
13330,119.37
13342,122.17
13354,124.13
13366,124.64
13378,113.7
13390,88.14
13401,64.51
13412,48.32
13424,36.89
13436,30.39
13448,28.81
13460,31.52
13472,37.08
13484,43.33
13496,49.43
13508,54.09
13520,53.79
13532,47.47
13544,36.73
13556,23.68
13568,10.38
13580,-1.65
13591,-11.76
13602,-19.0
13614,-23.64
13626,-28.76
13638,-36.36
13650,-46.81
13662,-59.89
13674,-74.67
13686,-89.6
13698,-103.02
13710,-112.87
13722,-118.27
13734,-120.72
13746,-121.71
13758,-122.08
13770,-122.53
13781,-123.4
13792,-124.6
13804,-125.72
13816,-125.68
13828,-123.22
13840,-117.62
13852,-108.0
13864,-93.72
13876,-75.19
13888,-53.83
13900,-31.73
13912,-10.97
13924,6.98
13936,21.31
13948,31.59
13960,37.82
13971,40.34
13982,39.68
13994,36.77
14006,32.91
14018,29.51
14030,27.68
14042,27.72
14054,28.98
14066,30.16
14078,29.93
14090,27.55
14102,23.19
14114,17.75
14126,12.4
14138,8.09
14150,5.17
14161,3.42
14172,2.24
14184,0.97
14196,-0.91
14208,-3.59
14220,-6.94
14232,-10.6
14244,-14.11
14256,-17.03
14268,-19.18
14280,-20.62
14292,-21.63
14304,-22.6
14316,-23.77
14328,-25.19
14340,-26.56
14351,-27.17
14362,-25.86
14374,-21.1
14386,-11.42
14398,4.06
14410,25.05
14422,49.94
14434,75.98
14446,100.09
14458,119.59
14470,132.79
14482,139.16
14494,139.08
14506,133.51
14518,123.64
14530,110.81
14541,96.39
14552,81.73
14564,67.98
14576,55.88
14588,45.65
14600,36.95
14612,29.04
14624,21.07
14636,12.42
14648,2.93
14660,-6.98
14672,-16.48
14684,-24.7
14696,-31.18
14708,-36.16
14720,-40.53
14731,-45.45
14742,-51.87
14754,-60.15
14766,-69.91
14778,-80.05
14790,-89.06
14802,-95.49
14814,-98.39
14826,-97.58
14838,-93.7
14850,-87.94
14862,-81.64
14874,-75.78
14886,-70.69
14898,-66.0
14910,-61.13
14921,-55.73
14932,-49.85
14944,-43.82
14956,-38.03
14968,-32.73
14980,-27.95
14992,-23.56
15004,-19.12
15016,-14.46
15028,-9.75
15040,-5.2
15052,-0.75
15064,3.92
15076,9.21
15088,15.19
15100,21.5
15111,27.95
15122,33.72
15134,37.62
15146,38.87
15158,37.93
15170,36.41
15182,36.42
15194,39.52
15206,45.98
15218,55.49
15230,65.99
15242,74.46
15254,78.53
15266,78.0
15278,74.73
15290,71.59
15301,71.07
15312,74.29
15324,81.97
15336,92.72
15348,103.41
15360,110.67
15372,112.29
15384,107.5
15396,96.47
15408,79.89
15420,51.43
15432,12.22
15444,-29.26
15456,-62.96
15468,-83.83
15480,-92.32
15491,-91.67
15502,-85.55
15514,-77.0
15526,-68.11
15538,-58.86
15550,-49.47
15562,-41.29
15574,-36.07
15586,-34.27
15598,-35.84
15610,-39.72
15622,-44.4
15634,-48.44
15646,-50.05
15658,-48.84
15670,-45.98
15681,-43.26
15692,-41.71
15704,-41.39
15716,-41.51
15728,-41.09
15740,-39.28
15752,-35.48
15764,-29.53
15776,-21.96
15788,-13.6
15800,-5.19
15812,2.6
15824,9.23
15836,14.18
15848,17.22
15860,18.67
15871,19.06
15882,18.66
15894,17.57
15906,15.85
15918,13.58
15930,10.88
15942,7.86
15954,4.61
15966,1.37
15978,-1.41
15990,-3.18
16002,-3.28
16014,-1.06
16026,3.88
16038,11.64
16050,22.1
16061,35.06
16072,50.24
16084,67.08
16096,84.32
16108,99.97
16120,111.65
16132,117.57
16144,117.29
16156,112.16
16168,104.83
16180,98.14
16192,94.0
16204,92.69
16216,93.0
16228,93.04
16240,91.21
16251,86.76
16262,79.86
16274,71.16
16286,61.28
16298,50.45
16310,38.62
16322,25.67
16334,11.81
16346,-2.28
16358,-15.64
16370,-27.27
16382,-36.55
16394,-43.4
16406,-48.25
16418,-51.73
16430,-54.37
16441,-56.35
16452,-57.52
16464,-57.64
16476,-56.62
16488,-54.64
16500,-52.1
16512,-49.39
16524,-46.69
16536,-43.86
16548,-40.56
16560,-36.46
16572,-31.45
16584,-25.75
16596,-19.82
16608,-14.37
16620,-10.18
16631,-8.04
16642,-8.54
16654,-11.85
16666,-17.43
16678,-24.06
16690,-30.04
16702,-33.75
16714,-34.27
16726,-31.66
16738,-26.93
16750,-21.55
16762,-16.81
16774,-13.52
16786,-11.82
16798,-11.43
16810,-11.89
16821,-12.68
16832,-13.29
16844,-13.3
16856,-12.44
16868,-10.86
16880,-9.21
16892,-8.44
16904,-9.53
16916,-13.04
16928,-18.89
16940,-26.36
16952,-34.44
16964,-42.16
16976,-48.9
16988,-54.4
17000,-58.63
17011,-61.63
17022,-63.41
17034,-63.99
17046,-63.47
17058,-61.98
17070,-59.66
17082,-56.55
17094,-52.53
17106,-47.47
17118,-41.41
17130,-34.73
17142,-28.16
17154,-22.57
17166,-18.68
17178,-16.75
17190,-16.46
17201,-17.05
17212,-17.65
17224,-17.56
17236,-16.47
17248,-14.42
17260,-11.63
17272,-8.32
17284,-4.6
17296,-0.48
17308,4.01
17320,8.87
17332,14.09
17344,19.76
17356,26.07
17368,33.23
17380,41.17
17391,49.43
17402,57.12
17414,63.16
17426,66.64
17438,67.17
17450,64.99
17462,60.82
17474,55.59
17486,50.11
17498,44.97
17510,40.52
17522,36.95
17534,34.32
17546,32.6
17558,31.66
17570,31.28
17581,31.24
17592,31.32
17604,31.34
17616,31.16
17628,30.62
17640,29.62
17652,28.16
17664,26.34
17676,24.36
17688,22.36
17700,20.37
17712,18.27
17724,15.9
17736,13.24
17748,10.39
17760,7.62
17771,5.09
17782,2.86
17794,0.77
17806,-1.36
17818,-3.68
17830,-6.1
17842,-8.41
17854,-10.34
17866,-11.68
17878,-12.4
17890,-12.67
17902,-12.76
17914,-12.98
17926,-13.62
17938,-14.85
17950,-16.74
17961,-19.17
17972,-21.95
17984,-24.82
17996,-27.56
18008,-30.03
18020,-32.18
18032,-34.07
18044,-35.77
18056,-37.45
18068,-39.24
18080,-41.22
18092,-43.25
18104,-44.96
18116,-45.77
18128,-45.1
18140,-42.63
18151,-38.44
18162,-33.07
18174,-27.31
18186,-21.99
18198,-17.65
18210,-14.41
18222,-12.14
18234,-10.69
18246,-10.08
18258,-10.5
18270,-12.21
18282,-15.31
18294,-19.67
18306,-24.85
18318,-30.21
18330,-35.08
18341,-39.02
18352,-41.78
18364,-43.32
18376,-43.63
18388,-42.68
18400,-40.56
18412,-37.36
18424,-33.26
18436,-28.54
18448,-23.59
18460,-18.77
18472,-14.28
18484,-10.1
18496,-6.01
18508,-2.08
18520,1.64
18531,5.18
18542,8.62
18554,12.02
18566,15.43
18578,18.91
18590,22.55
18602,26.29
18614,29.24
18626,30.59
18638,29.96
18650,27.49
18662,23.51
18674,18.53
18686,13.19
18698,8.18
18710,4.02
18721,-0.08
18732,-4.84
18744,-10.37
18756,-16.16
18768,-21.6
18780,-26.12
18792,-29.16
18804,-30.36
18816,-29.7
18828,-28.91
18840,-29.52
18852,-31.92
18864,-35.45
18876,-39.25
18888,-42.67
18900,-45.19
18911,-46.41
18922,-38.2
18934,-17.46
18946,12.33
18958,44.17
18970,72.86
18982,95.86
18994,111.72
19006,119.41
19018,118.38
19030,109.56
19042,93.95
19054,74.08
19066,53.59
19078,35.93
19090,22.93
19101,14.66
19112,10.28
19124,8.16
19136,7.74
19148,7.3
19160,5.12
19172,-0.19
19184,-9.46
19196,-22.76
19208,-38.97
19220,-53.93
19232,-63.94
19244,-65.94
19256,-59.68
19268,-47.27
19280,-32.1
19291,-17.65
19302,-6.38
19314,0.73
19326,4.19
19338,5.1
19350,4.7
19362,3.27
19374,0.62
19386,-3.21
19398,-7.49
19410,-10.47
19422,-9.88
19434,-3.44
19446,9.95
19458,29.61
19470,52.59
19481,74.64
19492,91.64
19504,100.92
19516,102.2
19528,96.94
19540,87.57
19552,76.33
19564,64.67
19576,53.41
19588,43.31
19600,35.6
19612,30.39
19624,28.89
19636,31.44
19648,37.23
19660,44.26
19671,49.85
19682,51.57
19694,48.21
19706,39.9
19718,27.82
19730,13.82
19742,-0.34
19754,-12.94
19766,-22.91
19778,-30.55
19790,-37.31
19802,-45.08
19814,-55.4
19826,-68.94
19838,-84.95
19850,-101.21
19861,-114.14
19872,-120.45
19884,-119.2
19896,-111.93
19908,-101.61
19920,-91.34
19932,-83.28
19944,-78.21
19956,-75.26
19968,-71.8
19980,-64.7
19992,-52.05
20004,-32.82
20016,-5.98
20028,29.46
20040,73.55
20051,121.49
20062,160.57
20074,178.35
20086,171.41
20098,144.5
20110,105.87
20122,64.34
20134,27.5
20146,0.12
20158,-16.55
20170,-24.03
20182,-25.6
20194,-22.92
20206,-17.74
20218,-11.82
20230,-6.21
20241,-1.43
20252,2.07
20264,3.56
20276,2.44
20288,-1.09
20300,-6.43
20312,-13.36
20324,-22.14
20336,-32.5
20348,-43.66
20360,-54.55
20372,-64.08
20384,-70.8
20396,-72.5
20408,-66.7
20420,-52.18
20431,-29.73
20442,-2.17
20454,26.13
20466,50.53
20478,67.72
20490,77.0
20502,80.4
20514,81.17
20526,81.63
20538,82.04
20550,81.1
20562,77.14
20574,69.57
20586,59.54
20598,49.48
20610,41.98
20621,38.47
20632,38.67
20644,41.01
20656,43.75
20668,45.79
20680,46.89
20692,47.38
20704,47.54
20716,47.23
20728,46.01
20740,43.44
20752,39.5
20764,34.72
20776,29.94
20788,25.81
20800,22.51
20811,19.63
20822,16.42
20834,12.24
20846,6.81
20858,0.35
20870,-6.53
20882,-13.19
20894,-19.17
20906,-24.31
20918,-28.79
20930,-32.91
20942,-36.95
20954,-41.06
20966,-45.26
20978,-49.5
20990,-53.7
