seconds,BVP
11,-8.83
23,-9.91
35,-10.9
47,-11.53
59,-11.61
71,-11.01
83,-9.74
95,-7.88
107,-5.6
119,-3.06
130,-0.4
141,2.23
153,4.68
165,6.79
177,8.42
189,9.47
201,9.96
213,10.0
225,9.72
237,9.28
249,8.76
261,8.21
273,7.64
285,7.12
297,6.73
309,6.59
320,6.75
331,7.17
343,7.71
355,8.17
367,8.39
379,8.32
391,7.98
403,7.43
415,6.77
427,6.04
439,5.26
451,4.44
463,3.61
475,2.81
487,2.09
499,1.48
510,0.96
521,0.5
533,0.03
545,-0.49
557,-1.08
569,-1.73
581,-2.34
593,-2.84
605,-3.19
617,-3.4
629,-3.59
641,-3.94
653,-4.56
665,-5.46
677,-6.48
689,-7.39
700,-7.97
711,-8.17
723,-8.09
735,-7.99
747,-8.11
759,-8.61
771,-9.47
783,-10.52
795,-11.53
807,-12.25
819,-12.46
831,-12.03
843,-10.89
855,-9.04
867,-6.56
879,-3.65
890,-0.56
901,2.38
913,4.93
925,6.9
937,8.25
949,9.01
961,9.23
973,8.98
985,8.29
997,7.26
1009,6.02
1021,4.81
1033,3.87
1045,3.35
1057,3.25
1069,3.44
1080,3.71
1091,3.87
1103,3.85
1115,3.66
1127,3.39
1139,3.11
1151,2.86
1163,2.64
1175,2.41
1187,2.13
1199,1.75
1211,1.23
1223,0.56
1235,-0.23
1247,-1.11
1259,-2.01
1270,-2.93
1281,-3.82
1293,-4.63
1305,-5.26
1317,-5.62
1329,-5.71
1341,-5.65
1353,-5.65
1365,-5.99
1377,-6.77
1389,-7.91
1401,-9.15
1413,-10.19
1425,-10.84
1437,-11.08
1449,-11.08
1460,-11.02
1471,-11.09
1483,-11.37
1495,-11.86
1507,-12.5
1519,-13.19
1531,-13.75
1543,-13.93
1555,-13.46
1567,-12.13
1579,-9.91
1591,-6.99
1603,-3.73
1615,-0.53
1627,2.31
1639,4.63
1650,6.43
1661,7.79
1673,8.77
1685,9.36
1697,9.53
1709,9.24
1721,8.58
1733,7.73
1745,6.94
1757,6.41
1769,6.19
1781,6.21
1793,6.3
1805,6.35
1817,6.34
1829,6.34
1840,6.46
1851,6.72
1863,7.03
1875,7.24
1887,7.2
1899,6.88
1911,6.38
1923,5.84
1935,5.42
1947,5.16
1959,4.99
1971,4.78
1983,4.4
1995,3.75
2007,2.83
2019,1.72
2030,0.53
2041,-0.6
2053,-1.52
2065,-2.12
2077,-2.37
2089,-2.33
2101,-2.18
2113,-2.11
2125,-2.29
2137,-2.77
2149,-3.47
2161,-4.21
2173,-4.82
2185,-5.2
2197,-5.41
2209,-5.61
2220,-5.98
2231,-6.67
2243,-7.71
2255,-8.98
2267,-10.3
2279,-11.39
2291,-11.98
2303,-11.83
2315,-10.79
2327,-8.88
2339,-6.28
2351,-3.26
2363,-0.16
2375,2.78
2387,5.39
2399,7.66
2410,9.61
2421,11.21
2433,12.41
2445,13.1
2457,13.24
2469,12.88
2481,12.2
2493,11.41
2505,10.68
2517,10.06
2529,9.57
2541,9.15
2553,8.78
2565,8.48
2577,8.27
2589,8.16
2600,8.11
2611,8.06
2623,7.92
2635,7.64
2647,7.2
2659,6.6
2671,5.9
2683,5.16
2695,4.44
2707,3.83
2719,3.32
2731,2.9
2743,2.47
2755,1.96
2767,1.35
2779,0.66
2790,-0.06
2801,-0.76
2813,-1.45
2825,-2.15
2837,-2.93
2849,-3.8
2861,-4.77
2873,-5.76
2885,-6.69
2897,-7.53
2909,-8.25
2921,-8.88
2933,-9.47
2945,-10.09
2957,-10.82
2969,-11.68
2980,-12.68
2991,-13.71
3003,-14.63
3015,-15.21
3027,-15.25
3039,-14.58
3051,-13.13
3063,-10.99
3075,-8.33
3087,-5.43
3099,-2.55
3111,0.11
3123,2.49
3135,4.57
3147,6.37
3159,7.88
3170,9.0
3181,9.63
3193,9.69
3205,9.2
3217,8.29
3229,7.16
3241,6.02
3253,5.04
3265,4.3
3277,3.81
3289,3.55
3301,3.48
3313,3.54
3325,3.68
3337,3.81
3349,3.88
3360,3.87
3371,3.77
3383,3.57
3395,3.27
3407,2.83
3419,2.23
3431,1.51
3443,0.74
3455,0.01
3467,-0.61
3479,-1.11
3491,-1.59
3503,-2.11
3515,-2.73
3527,-3.43
3539,-4.15
3550,-4.85
3561,-5.51
3573,-6.14
3585,-6.78
3597,-7.41
3609,-8.01
3621,-8.53
3633,-8.97
3645,-9.37
3657,-9.83
3669,-10.42
3681,-11.1
3693,-11.68
3705,-11.85
3717,-11.32
3729,-9.93
3740,-7.79
3751,-5.2
3763,-2.54
3775,-0.09
3787,2.02
3799,3.87
3811,5.58
3823,7.2
3835,8.66
3847,9.78
3859,10.36
3871,10.31
3883,9.69
3895,8.67
3907,7.5
3919,6.39
3930,5.56
3941,5.1
3953,5.03
3965,5.26
3977,5.61
3989,5.89
4001,5.99
4013,5.85
4025,5.54
4037,5.15
4049,4.76
4061,4.39
4073,4.03
4085,3.6
4097,3.09
4109,2.46
4120,1.73
4131,0.93
4143,0.05
4155,-0.94
4167,-2.07
4179,-3.34
4191,-4.67
4203,-5.94
4215,-7.0
4227,-7.77
4239,-8.28
4251,-8.63
4263,-8.97
4275,-9.41
4287,-9.97
4299,-10.61
4310,-11.21
4321,-11.65
4333,-11.74
4345,-11.31
4357,-10.23
4369,-8.45
4381,-6.09
4393,-3.4
4405,-0.69
4417,1.84
4429,4.11
4441,6.18
4453,8.11
4465,9.83
4477,11.15
4489,11.81
4500,11.61
4511,10.62
4523,9.12
4535,7.54
4547,6.25
4559,5.42
4571,4.98
4583,4.75
4595,4.57
4607,4.36
4619,4.19
4631,4.13
4643,4.17
4655,4.22
4667,4.14
4679,3.84
4690,3.37
4701,2.86
4713,2.41
4725,2.04
4737,1.65
4749,1.11
4761,0.33
4773,-0.6
4785,-1.53
4797,-2.27
4809,-2.75
4821,-3.04
4833,-3.35
4845,-3.87
4857,-4.71
4869,-5.85
4880,-7.14
4891,-8.41
4903,-9.52
4915,-10.38
4927,-10.92
4939,-11.08
4951,-10.74
4963,-9.79
4975,-8.16
4987,-5.9
4999,-3.18
5011,-0.26
5023,2.59
5035,5.12
5047,7.19
5059,8.7
5070,9.61
5081,9.93
5093,9.7
5105,9.04
5117,8.13
5129,7.15
5141,6.21
5153,5.37
5165,4.63
5177,4.0
5189,3.53
5201,3.27
5213,3.29
5225,3.56
5237,3.96
5249,4.29
5260,4.4
5271,4.22
5283,3.78
5295,3.22
5307,2.65
5319,2.09
5331,1.52
5343,0.88
5355,0.16
5367,-0.63
5379,-1.45
5391,-2.27
5403,-3.09
5415,-3.93
5427,-4.8
5439,-5.63
5450,-6.33
5461,-6.83
5473,-7.12
5485,-7.3
5497,-7.56
5509,-8.08
5521,-8.92
5533,-10.05
5545,-11.27
5557,-12.33
5569,-12.93
5581,-12.8
5593,-11.82
5605,-9.95
5617,-7.36
5629,-4.3
5640,-1.09
5651,1.96
5663,4.64
5675,6.83
5687,8.49
5699,9.66
5711,10.38
5723,10.71
5735,10.7
5747,10.37
5759,9.75
5771,8.9
5783,7.93
5795,7.0
5807,6.28
5819,5.89
5830,5.85
5841,6.06
5853,6.35
5865,6.58
5877,6.63
5889,6.46
5901,6.08
5913,5.5
5925,4.74
5937,3.84
5949,2.86
5961,1.92
5973,1.08
5985,0.37
5997,-0.25
6009,-0.87
6020,-1.56
6031,-2.35
6043,-3.24
6055,-4.18
6067,-5.1
6079,-5.93
6091,-6.63
6103,-7.2
6115,-7.66
6127,-8.07
6139,-8.49
6151,-8.98
6163,-9.57
6175,-10.24
6187,-10.93
6199,-11.48
6210,-11.68
6221,-11.34
6233,-10.32
6245,-8.57
6257,-6.22
6269,-3.48
6281,-0.62
6293,2.13
6305,4.59
6317,6.68
6329,8.33
6341,9.5
6353,10.16
6365,10.3
6377,9.97
6389,9.29
6400,8.39
6411,7.45
6423,6.59
6435,5.92
6447,5.48
6459,5.26
6471,5.21
6483,5.28
6495,5.41
6507,5.53
6519,5.62
6531,5.59
6543,5.4
6555,4.98
6567,4.31
6579,3.47
6590,2.58
6601,1.83
6613,1.29
6625,0.95
6637,0.66
6649,0.25
6661,-0.4
6673,-1.29
6685,-2.32
6697,-3.32
6709,-4.18
6721,-4.86
6733,-5.41
6745,-5.9
6757,-6.42
6769,-6.98
6780,-7.61
6791,-8.27
6803,-8.9
6815,-9.41
6827,-9.64
6839,-9.42
6851,-8.63
6863,-7.2
6875,-5.16
6887,-2.67
6899,0.06
6911,2.8
6923,5.33
6935,7.47
6947,9.11
6959,10.17
6970,10.63
6981,10.54
6993,9.99
7005,9.14
7017,8.15
7029,7.14
7041,6.23
7053,5.49
7065,4.96
7077,4.68
7089,4.63
7101,4.75
7113,4.92
7125,5.04
7137,5.03
7149,4.9
7160,4.69
7171,4.43
7183,4.13
7195,3.71
7207,3.12
7219,2.29
7231,1.28
7243,0.18
7255,-0.9
7267,-1.88
7279,-2.75
7291,-3.56
7303,-4.35
7315,-5.15
7327,-5.93
7339,-6.64
7350,-7.19
7361,-7.52
7373,-7.6
7385,-7.5
7397,-7.33
7409,-7.24
7421,-7.4
7433,-7.92
7445,-8.8
7457,-9.87
7469,-10.83
7481,-11.27
7493,-10.87
7505,-9.42
7517,-7.0
7529,-3.91
7540,-0.55
7551,2.69
7563,5.54
7575,7.88
7587,9.69
7599,10.99
7611,11.76
7623,12.02
7635,11.74
7647,10.97
7659,9.8
7671,8.39
7683,6.93
7695,5.62
7707,4.6
7719,3.91
7730,3.53
7741,3.37
7753,3.32
7765,3.36
7777,3.45
7789,3.54
7801,3.55
7813,3.35
7825,2.82
7837,1.92
7849,0.74
7861,-0.53
7873,-1.63
7885,-2.4
7897,-2.79
7909,-2.92
7920,-2.97
7931,-3.15
7943,-3.57
7955,-4.2
7967,-4.97
7979,-5.72
7991,-6.33
8003,-6.75
8015,-6.96
8027,-7.03
8039,-7.04
8051,-7.05
8063,-7.16
8075,-7.42
8087,-7.88
8099,-8.6
8110,-9.57
8121,-10.68
8133,-11.7
8145,-12.29
8157,-12.09
8169,-10.85
8181,-8.57
8193,-5.53
8205,-2.18
8217,0.95
8229,3.54
8241,5.45
8253,6.79
8265,7.71
8277,8.33
8289,8.67
8300,8.65
8311,8.22
8323,7.39
8335,6.32
8347,5.22
8359,4.27
8371,3.58
8383,3.13
8395,2.79
8407,2.43
8419,1.95
8431,1.34
8443,0.74
8455,0.3
8467,0.15
8479,0.3
8490,0.64
8501,0.96
8513,1.08
8525,0.91
8537,0.48
8549,-0.09
8561,-0.67
8573,-1.22
8585,-1.74
8597,-2.27
8609,-2.83
8621,-3.38
8633,-3.83
8645,-4.14
8657,-4.27
8669,-4.25
8680,-4.16
8691,-4.05
8703,-3.97
8715,-3.97
8727,-4.1
8739,-4.36
8751,-4.75
8763,-5.23
8775,-5.75
8787,-6.16
8799,-6.33
8811,-6.08
8823,-5.28
8835,-3.84
8847,-1.77
8859,0.82
8870,3.78
8881,6.91
8893,9.97
8905,12.71
8917,14.9
8929,16.32
8941,16.84
8953,16.5
8965,15.39
8977,13.72
8989,11.7
9001,9.51
9013,7.32
9025,5.33
9037,3.72
9049,2.68
9060,2.24
9071,2.33
9083,2.72
9095,3.15
9107,3.4
9119,3.4
9131,3.17
9143,2.77
9155,2.26
9167,1.64
9179,0.93
9191,0.17
9203,-0.52
9215,-1.01
9227,-1.28
9239,-1.36
9250,-1.43
9261,-1.64
9273,-2.12
9285,-2.85
9297,-3.73
9309,-4.59
9321,-5.3
9333,-5.85
9345,-6.29
9357,-6.8
9369,-7.52
9381,-8.5
9393,-9.64
9405,-10.74
9417,-11.5
9429,-11.7
9440,-11.2
9451,-9.95
9463,-8.05
9475,-5.62
9487,-2.87
9499,-0.06
9511,2.51
9523,4.57
9535,5.99
9547,6.77
9559,7.06
9571,7.0
9583,6.7
9595,6.12
9607,5.26
9619,4.11
9630,2.83
9641,1.65
9653,0.78
9665,0.38
9677,0.38
9689,0.69
9701,1.15
9713,1.68
9725,2.23
9737,2.75
9749,3.12
9761,3.17
9773,2.8
9785,2.02
9797,0.98
9809,-0.03
9820,-0.82
9831,-1.3
9843,-1.61
9855,-1.96
9867,-2.58
9879,-3.52
9891,-4.67
9903,-5.79
9915,-6.67
9927,-7.21
9939,-7.47
9951,-7.64
9963,-7.91
9975,-8.46
9987,-9.36
9999,-10.56
10010,-11.93
10021,-13.19
10033,-14.06
10045,-14.24
10057,-13.54
10069,-11.94
10081,-9.54
10093,-6.6
10105,-3.39
10117,-0.21
10129,2.7
10141,5.15
10153,7.0
10165,8.23
10177,8.87
10189,9.08
10200,9.03
10211,8.85
10223,8.57
10235,8.18
10247,7.68
10259,7.12
10271,6.63
10283,6.32
10295,6.23
10307,6.29
10319,6.37
10331,6.34
10343,6.2
10355,6.01
10367,5.87
10379,5.83
10390,5.8
10401,5.67
10413,5.3
10425,4.66
10437,3.8
10449,2.91
10461,2.12
10473,1.51
10485,1.03
10497,0.56
10509,-0.01
10521,-0.75
10533,-1.67
10545,-2.69
10557,-3.76
10569,-4.82
10580,-5.83
10591,-6.77
10603,-7.59
10615,-8.3
10627,-8.9
10639,-9.43
10651,-10.02
10663,-10.77
10675,-11.77
10687,-12.97
10699,-14.21
10711,-15.17
10723,-15.5
10735,-14.91
10747,-13.27
10759,-10.66
10770,-7.4
10781,-3.9
10793,-0.56
10805,2.34
10817,4.68
10829,6.46
10841,7.75
10853,8.62
10865,9.11
10877,9.22
10889,9.01
10901,8.56
10913,7.97
10925,7.4
10937,6.91
10949,6.57
10960,6.37
10971,6.3
10983,6.36
10995,6.56
11007,6.88
11019,7.26
11031,7.59
11043,7.75
11055,7.66
11067,7.33
11079,6.79
11091,6.12
11103,5.43
11115,4.74
11127,4.08
11139,3.39
11150,2.62
11161,1.72
11173,0.71
11185,-0.33
11197,-1.29
11209,-2.04
11221,-2.58
11233,-2.93
11245,-3.22
11257,-3.55
11269,-3.97
11281,-4.48
11293,-5.05
11305,-5.63
11317,-6.19
11329,-6.71
11340,-7.2
11351,-7.68
11363,-8.18
11375,-8.75
11387,-9.44
11399,-10.21
11411,-10.96
11423,-11.48
11435,-11.55
11447,-10.97
11459,-9.63
11471,-7.52
11483,-4.77
11495,-1.61
11507,1.65
11519,4.7
11530,7.27
11541,9.21
11553,10.49
11565,11.16
11577,11.35
11589,11.18
11601,10.78
11613,10.21
11625,9.52
11637,8.75
11649,7.92
11661,7.09
11673,6.35
11685,5.81
11697,5.55
11709,5.59
11720,5.85
11731,6.21
11743,6.48
11755,6.53
11767,6.32
11779,5.87
11791,5.27
11803,4.6
11815,3.96
11827,3.36
11839,2.79
11851,2.24
11863,1.7
11875,1.19
11887,0.77
11899,0.45
11910,0.19
11921,-0.09
11933,-0.5
11945,-1.1
11957,-1.87
11969,-2.71
11981,-3.49
11993,-4.17
12005,-4.74
12017,-5.28
12029,-5.87
12041,-6.5
12053,-7.12
12065,-7.67
12077,-8.16
12089,-8.68
12100,-9.4
12111,-10.4
12123,-11.64
12135,-12.9
12147,-13.83
12159,-14.13
12171,-13.59
12183,-12.18
12195,-10.02
12207,-7.29
12219,-4.24
12231,-1.09
12243,1.97
12255,4.71
12267,6.94
12279,8.48
12290,9.21
12301,9.14
12313,8.43
12325,7.32
12337,6.13
12349,5.1
12361,4.41
12373,4.09
12385,4.08
12397,4.31
12409,4.71
12421,5.2
12433,5.71
12445,6.13
12457,6.34
12469,6.3
12480,5.98
12491,5.49
12503,4.9
12515,4.28
12527,3.65
12539,3.03
12551,2.45
12563,1.98
12575,1.64
12587,1.38
12599,1.07
12611,0.56
12623,-0.2
12635,-1.13
12647,-2.05
12659,-2.78
12670,-3.23
12681,-3.52
12693,-3.87
12705,-4.49
12717,-5.46
12729,-6.66
12741,-7.83
12753,-8.75
12765,-9.28
12777,-9.49
12789,-9.56
12801,-9.74
12813,-10.19
12825,-10.95
12837,-11.97
12849,-13.05
12860,-13.97
12871,-14.44
12883,-14.19
12895,-13.05
12907,-11.02
12919,-8.32
12931,-5.34
12943,-2.5
12955,-0.12
12967,1.7
12979,3.03
12991,4.05
13003,4.86
13015,5.49
13027,5.9
13039,6.08
13050,6.06
13061,5.96
13073,5.84
13085,5.71
13097,5.51
13109,5.18
13121,4.74
13133,4.28
13145,3.96
13157,3.85
13169,3.94
13181,4.1
13193,4.17
13205,4.05
13217,3.71
13229,3.22
13240,2.68
13251,2.15
13263,1.63
13275,1.08
13287,0.43
13299,-0.33
13311,-1.11
13323,-1.79
13335,-2.25
13347,-2.44
13359,-2.44
13371,-2.42
13383,-2.57
13395,-3.0
13407,-3.64
13419,-4.34
13430,-4.92
13441,-5.24
13453,-5.32
13465,-5.26
13477,-5.25
13489,-5.44
13501,-5.88
13513,-6.53
13525,-7.28
13537,-7.99
13549,-8.47
13561,-8.57
13573,-8.14
13585,-7.08
13597,-5.37
13609,-3.1
13620,-0.47
13631,2.3
13643,4.97
13655,7.33
13667,9.23
13679,10.56
13691,11.24
13703,11.24
13715,10.59
13727,9.4
13739,7.87
13751,6.25
13763,4.81
13775,3.75
13787,3.17
13799,3.03
13810,3.17
13821,3.41
13833,3.59
13845,3.61
13857,3.43
13869,3.08
13881,2.6
13893,2.02
13905,1.32
13917,0.52
13929,-0.3
13941,-1.03
13953,-1.52
13965,-1.71
13977,-1.61
13989,-1.36
14000,-1.13
14011,-1.1
14023,-1.33
14035,-1.77
14047,-2.31
14059,-2.85
14071,-3.34
14083,-3.82
14095,-4.37
14107,-4.99
14119,-5.65
14131,-6.26
14143,-6.7
14155,-6.93
14167,-6.96
14179,-6.79
14190,-6.42
14201,-5.77
14213,-4.74
14225,-3.22
14237,-1.22
14249,1.14
14261,3.62
14273,5.97
14285,8.02
14297,9.71
14309,11.06
14321,12.14
14333,12.96
14345,13.49
14357,13.64
14369,13.31
14380,12.52
14391,11.37
14403,10.07
14415,8.83
14427,7.79
14439,7.02
14451,6.45
14463,5.95
14475,5.38
14487,4.67
14499,3.78
14511,2.77
14523,1.73
14535,0.78
14547,0.01
14559,-0.56
14570,-0.98
14581,-1.33
14593,-1.72
14605,-2.23
14617,-2.92
14629,-3.77
14641,-4.77
14653,-5.88
14665,-7.08
14677,-8.31
14689,-9.54
14701,-10.7
14713,-11.77
14725,-12.67
14737,-13.37
14749,-13.78
14760,-13.77
14771,-13.22
14783,-12.03
14795,-10.19
14807,-7.79
14819,-5.0
14831,-2.08
14843,0.74
14855,3.23
14867,5.24
14879,6.67
14891,7.5
14903,7.79
14915,7.64
14927,7.14
14939,6.4
14950,5.44
14961,4.34
14973,3.15
14985,2.01
14997,1.09
15009,0.52
15021,0.33
15033,0.45
15045,0.72
15057,0.99
15069,1.2
15081,1.38
15093,1.55
15105,1.76
15117,1.93
15129,1.95
15140,1.73
15151,1.2
15163,0.43
15175,-0.47
15187,-1.34
15199,-2.09
15211,-2.66
15223,-3.14
15235,-3.66
15247,-4.32
15259,-5.22
15271,-6.31
15283,-7.46
15295,-8.44
15307,-9.03
15319,-9.05
15330,-8.41
15341,-7.09
15353,-5.15
15365,-2.74
15377,-0.04
15389,2.71
15401,5.27
15413,7.43
15425,9.08
15437,10.15
15449,10.61
15461,10.48
15473,9.82
15485,8.75
15497,7.45
15509,6.15
15520,5.04
15531,4.23
15543,3.73
15555,3.39
15567,3.07
15579,2.59
15591,1.94
15603,1.17
15615,0.42
15627,-0.2
15639,-0.62
15651,-0.89
15663,-1.09
15675,-1.34
15687,-1.71
15699,-2.21
15710,-2.82
15721,-3.48
15733,-4.14
15745,-4.77
15757,-5.34
15769,-5.84
15781,-6.29
15793,-6.74
15805,-7.25
15817,-7.88
15829,-8.63
15841,-9.4
15853,-9.99
15865,-10.2
15877,-9.79
15889,-8.64
15900,-6.75
15911,-4.25
15923,-1.36
15935,1.64
15947,4.49
15959,6.99
15971,9.0
15983,10.47
15995,11.37
16007,11.7
16019,11.48
16031,10.76
16043,9.66
16055,8.35
16067,7.04
16079,5.88
16090,4.96
16101,4.27
16113,3.69
16125,3.11
16137,2.44
16149,1.72
16161,1.05
16173,0.58
16185,0.37
16197,0.4
16209,0.53
16221,0.55
16233,0.29
16245,-0.34
16257,-1.26
16269,-2.28
16280,-3.18
16291,-3.79
16303,-4.06
16315,-4.07
16327,-4.02
16339,-4.1
16351,-4.43
16363,-5.07
16375,-5.96
16387,-6.96
16399,-7.9
16411,-8.6
16423,-8.85
16435,-8.5
16447,-7.4
16459,-5.54
16470,-3.02
16481,-0.06
16493,3.01
16505,5.89
16517,8.35
16529,10.25
16541,11.58
16553,12.37
16565,12.68
16577,12.54
16589,11.99
16601,11.09
16613,9.98
16625,8.83
16637,7.84
16649,7.1
16660,6.6
16671,6.21
16683,5.79
16695,5.23
16707,4.55
16719,3.81
16731,3.11
16743,2.51
16755,2.0
16767,1.53
16779,1.05
16791,0.5
16803,-0.14
16815,-0.89
16827,-1.75
16839,-2.69
16850,-3.65
16861,-4.58
16873,-5.43
16885,-6.22
16897,-7.01
16909,-7.82
16921,-8.69
16933,-9.59
16945,-10.45
16957,-11.11
16969,-11.4
16981,-11.06
16993,-9.9
17005,-7.83
17017,-4.93
17029,-1.52
17040,1.99
17051,5.21
17063,7.85
17075,9.77
17087,10.97
17099,11.5
17111,11.4
17123,10.75
17135,9.64
17147,8.26
17159,6.82
17171,5.55
17183,4.62
17195,4.09
17207,3.9
17219,3.92
17230,3.99
17241,3.99
17253,3.88
17265,3.66
17277,3.37
17289,3.06
17301,2.71
17313,2.31
17325,1.8
17337,1.13
17349,0.28
17361,-0.73
17373,-1.84
17385,-2.96
17397,-4.03
17409,-4.98
17420,-5.85
17431,-6.7
17443,-7.59
17455,-8.55
17467,-9.54
17479,-10.49
17491,-11.34
17503,-12.11
17515,-12.89
17527,-13.71
17539,-14.5
17551,-15.02
17563,-14.94
17575,-14.0
17587,-12.09
17599,-9.33
17610,-6.03
17621,-2.54
17633,0.83
17645,3.89
17657,6.58
17669,8.86
17681,10.68
17693,11.95
17705,12.59
17717,12.61
17729,12.07
17741,11.15
17753,10.04
17765,8.92
17777,7.95
17789,7.19
17800,6.7
17811,6.47
17823,6.47
17835,6.68
17847,7.01
17859,7.35
17871,7.56
17883,7.51
17895,7.16
17907,6.52
17919,5.66
17931,4.67
17943,3.62
17955,2.56
17967,1.5
17979,0.49
17990,-0.43
18001,-1.23
18013,-1.91
18025,-2.56
18037,-3.28
18049,-4.16
18061,-5.23
18073,-6.38
18085,-7.45
18097,-8.31
18109,-8.95
18121,-9.47
18133,-10.04
18145,-10.83
18157,-11.87
18169,-13.03
18180,-14.07
18191,-14.68
18203,-14.61
18215,-13.72
18227,-12.01
18239,-9.63
18251,-6.78
18263,-3.68
18275,-0.52
18287,2.55
18299,5.39
18311,7.82
18323,9.65
18335,10.74
18347,11.03
18359,10.61
18370,9.71
18381,8.57
18393,7.47
18405,6.57
18417,5.95
18429,5.57
18441,5.39
18453,5.32
18465,5.34
18477,5.42
18489,5.54
18501,5.68
18513,5.77
18525,5.75
18537,5.56
18549,5.16
18560,4.55
18571,3.77
18583,2.88
18595,1.94
18607,0.99
18619,0.09
18631,-0.71
18643,-1.35
18655,-1.83
18667,-2.2
18679,-2.58
18691,-3.09
18703,-3.83
18715,-4.76
18727,-5.77
18739,-6.68
18750,-7.34
18761,-7.73
18773,-7.92
18785,-8.1
18797,-8.42
18809,-8.95
18821,-9.69
18833,-10.53
18845,-11.35
18857,-11.98
18869,-12.25
18881,-11.97
18893,-10.97
18905,-9.16
18917,-6.63
18929,-3.59
18940,-0.4
18951,2.61
18963,5.22
18975,7.31
18987,8.84
18999,9.84
19011,10.31
19023,10.25
19035,9.72
19047,8.85
19059,7.78
19071,6.74
19083,5.86
19095,5.24
19107,4.86
19119,4.65
19130,4.52
19141,4.41
19153,4.32
19165,4.27
19177,4.28
19189,4.34
19201,4.37
19213,4.28
19225,4.0
19237,3.54
19249,2.97
19261,2.41
19273,1.9
19285,1.41
19297,0.86
19309,0.16
19320,-0.7
19331,-1.66
19343,-2.57
19355,-3.35
19367,-3.97
19379,-4.49
19391,-4.96
19403,-5.44
19415,-5.9
19427,-6.31
19439,-6.68
19451,-7.07
19463,-7.59
19475,-8.35
19487,-9.35
19499,-10.47
19510,-11.45
19521,-11.98
19533,-11.8
19545,-10.75
19557,-8.86
19569,-6.31
19581,-3.39
19593,-0.45
19605,2.24
19617,4.5
19629,6.32
19641,7.74
19653,8.81
19665,9.54
19677,9.88
19689,9.78
19700,9.27
19711,8.49
19723,7.63
19735,6.84
19747,6.23
19759,5.82
19771,5.59
19783,5.5
19795,5.52
19807,5.59
19819,5.63
19831,5.55
19843,5.29
19855,4.85
19867,4.29
19879,3.69
19890,3.09
19901,2.52
19913,1.95
19925,1.38
19937,0.82
19949,0.28
19961,-0.21
19973,-0.64
19985,-1.03
19997,-1.45
20009,-1.98
20021,-2.69
20033,-3.61
20045,-4.68
20057,-5.79
20069,-6.78
20080,-7.51
20091,-7.95
20103,-8.18
20115,-8.34
20127,-8.59
20139,-9.06
20151,-9.81
20163,-10.8
20175,-11.94
20187,-13.02
20199,-13.72
20211,-13.72
20223,-12.71
20235,-10.59
20247,-7.45
20259,-3.65
20270,0.36
20281,4.12
20293,7.28
20305,9.69
20317,11.27
20329,12.02
20341,12.01
20353,11.34
20365,10.19
20377,8.79
20389,7.35
20401,6.01
20413,4.79
20425,3.61
20437,2.4
20449,1.23
20460,0.29
20471,-0.24
20483,-0.28
20495,0.09
20507,0.67
20519,1.3
20531,1.82
20543,2.32
20555,3.07
20567,4.48
20579,6.76
20591,9.81
20603,13.17
20615,16.26
20627,18.51
20639,19.46
20650,19.02
20661,17.6
20673,15.92
20685,14.58
20697,13.75
20709,13.13
20721,12.05
20733,9.9
20745,6.16
20757,0.84
20769,-5.42
20781,-11.56
20793,-16.62
20805,-20.05
20817,-21.76
20829,-22.1
20840,-20.23
20851,-16.31
20863,-12.15
20875,-10.82
20887,-14.65
20899,-23.75
20911,-36.11
20923,-48.51
20935,-58.28
20947,-64.01
20959,-66.2
20971,-66.54
20983,-66.58
20995,-66.68
