seconds,BVP
2,-74.64
13,-73.41
25,-69.3
37,-62.86
49,-55.07
61,-47.08
73,-39.97
85,-34.51
97,-31.05
109,-29.61
121,-29.92
133,-31.59
145,-34.2
157,-37.36
169,-40.78
181,-44.3
192,-47.9
203,-51.58
215,-55.26
227,-58.79
239,-61.94
251,-64.59
263,-66.85
275,-69.03
287,-71.54
299,-74.67
311,-78.48
323,-82.79
335,-87.37
347,-92.07
359,-96.88
371,-101.92
382,-107.32
393,-113.17
405,-119.51
417,-126.32
429,-133.38
441,-140.04
453,-145.2
465,-147.31
477,-144.86
489,-136.79
501,-122.98
513,-104.29
525,-82.39
537,-59.2
549,-36.5
561,-15.62
572,2.66
583,17.92
595,30.05
607,39.11
619,45.37
631,49.29
643,51.51
655,52.71
667,53.49
679,54.27
691,55.24
703,56.52
715,58.14
727,60.17
739,62.67
751,65.56
762,68.61
773,71.42
785,73.54
797,74.67
809,74.68
821,73.63
833,71.66
845,68.85
857,65.14
869,60.42
881,54.55
893,47.43
905,39.11
917,29.79
929,19.97
941,10.56
952,2.95
963,-1.22
975,-0.46
987,6.06
999,18.07
1011,34.21
1023,52.38
1035,70.41
1047,86.65
1059,100.29
1071,111.2
1083,119.65
1095,125.93
1107,130.21
1119,132.63
1131,133.47
1142,133.25
1153,132.58
1165,132.01
1177,131.85
1189,132.18
1201,132.99
1213,134.42
1225,136.77
1237,140.34
1249,145.15
1261,150.8
1273,156.47
1285,161.3
1297,164.72
1309,166.82
1321,168.35
1332,170.41
1343,174.07
1355,179.9
1367,187.7
1379,196.39
1391,204.17
1403,208.83
1415,208.34
1427,201.41
1439,187.97
1451,169.33
1463,147.84
1475,126.34
1487,107.41
1499,92.75
1511,82.91
1522,77.37
1533,74.83
1545,73.61
1557,72.11
1569,69.16
1581,64.21
1593,57.37
1605,49.23
1617,40.71
1629,32.84
1641,26.61
1653,22.94
1665,22.48
1677,25.51
1689,31.69
1701,40.03
1712,49.07
1723,57.21
1735,63.15
1747,66.09
1759,65.72
1771,62.09
1783,55.37
1795,45.74
1807,33.43
1819,18.8
1831,2.38
1843,-15.14
1855,-33.06
1867,-50.75
1879,-67.72
1891,-83.64
1902,-98.18
1913,-110.93
1925,-121.31
1937,-128.65
1949,-132.31
1961,-131.95
1973,-127.7
1985,-120.28
1997,-110.86
2009,-100.88
2021,-91.67
2033,-84.29
2045,-79.31
2057,-76.9
2069,-76.89
2081,-78.94
2092,-82.67
2103,-87.72
2115,-93.74
2127,-100.33
2139,-106.98
2151,-113.11
2163,-118.2
2175,-121.93
2187,-124.39
2199,-126.05
2211,-127.59
2223,-129.59
2235,-132.31
2247,-135.58
2259,-138.89
2271,-141.74
2282,-143.81
2293,-145.16
2305,-146.11
2317,-147.04
2329,-148.17
2341,-149.43
2353,-150.49
2365,-151.0
2377,-150.77
2389,-149.75
2401,-148.01
2413,-145.48
2425,-141.84
2437,-136.55
2449,-129.08
2461,-119.2
2472,-107.04
2483,-93.22
2495,-78.53
2507,-63.77
2519,-49.63
2531,-36.68
2543,-25.47
2555,-16.47
2567,-10.01
2579,-6.02
2591,-4.03
2603,-3.16
2615,-2.45
2627,-1.13
2639,1.18
2651,4.42
2662,8.28
2673,12.36
2685,16.31
2697,19.88
2709,22.91
2721,25.3
2733,27.07
2745,28.31
2757,29.19
2769,29.82
2781,30.15
2793,29.95
2805,28.8
2817,26.29
2829,22.17
2841,16.43
2852,9.47
2863,2.01
2875,-4.87
2887,-9.93
2899,-12.08
2911,-10.71
2923,-5.96
2935,1.22
2947,9.31
2959,16.77
2971,22.44
2983,25.87
2995,27.22
3007,26.98
3019,25.68
3031,23.57
3042,20.65
3053,16.86
3065,12.22
3077,6.99
3089,1.67
3101,-3.17
3113,-6.97
3125,-9.45
3137,-10.6
3149,-10.69
3161,-10.21
3173,-9.7
3185,-9.61
3197,-10.23
3209,-11.69
3221,-13.9
3232,-16.74
3243,-19.99
3255,-23.42
3267,-26.85
3279,-30.23
3291,-33.65
3303,-37.29
3315,-41.31
3327,-45.56
3339,-49.5
3351,-52.11
3363,-52.22
3375,-48.88
3387,-41.8
3399,-31.48
3411,-19.1
3422,-6.11
3433,6.18
3445,16.94
3457,25.74
3469,32.47
3481,37.12
3493,39.69
3505,40.17
3517,38.72
3529,35.65
3541,31.46
3553,26.72
3565,21.96
3577,17.59
3589,13.8
3601,10.59
3612,7.77
3623,5.08
3635,2.25
3647,-0.89
3659,-4.36
3671,-8.05
3683,-11.82
3695,-15.61
3707,-19.52
3719,-23.79
3731,-28.67
3743,-34.27
3755,-40.53
3767,-47.18
3779,-53.81
3791,-59.98
3802,-65.22
3813,-69.01
3825,-70.79
3837,-69.92
3849,-65.94
3861,-58.73
3873,-48.75
3885,-36.96
3897,-24.69
3909,-13.3
3921,-3.85
3933,3.06
3945,7.28
3957,9.01
3969,8.63
3981,6.54
3992,3.21
4003,-0.88
4015,-5.16
4027,-9.05
4039,-12.03
4051,-13.81
4063,-14.36
4075,-13.88
4087,-12.73
4099,-11.24
4111,-9.67
4123,-8.16
4135,-6.8
4147,-5.74
4159,-5.18
4171,-5.43
4182,-6.78
4193,-9.48
4205,-13.68
4217,-19.41
4229,-26.51
4241,-34.61
4253,-43.02
4265,-50.75
4277,-56.58
4289,-59.33
4301,-58.16
4313,-52.9
4325,-44.09
4337,-32.92
4349,-20.88
4361,-9.39
4372,0.47
4383,8.11
4395,13.29
4407,16.03
4419,16.46
4431,14.78
4443,11.38
4455,6.81
4467,1.87
4479,-2.6
4491,-5.83
4503,-7.32
4515,-6.97
4527,-5.07
4539,-2.3
4551,0.49
4562,2.46
4573,3.03
4585,2.05
4597,-0.19
4609,-3.1
4621,-6.06
4633,-8.59
4645,-10.58
4657,-12.27
4669,-14.2
4681,-16.94
4693,-20.95
4705,-26.34
4717,-32.7
4729,-39.12
4741,-44.26
4752,-46.7
4763,-45.35
4775,-39.77
4787,-30.3
4799,-17.97
4811,-4.19
4823,9.64
4835,22.34
4847,33.05
4859,41.19
4871,46.35
4883,48.24
4895,46.82
4907,42.33
4919,35.39
4931,27.01
4942,18.41
4953,10.77
4965,5.02
4977,1.68
4989,0.83
5001,2.14
5013,5.04
5025,8.76
5037,12.54
5049,15.59
5061,17.26
5073,17.09
5085,14.86
5097,10.7
5109,4.97
5121,-1.73
5132,-8.85
5143,-15.99
5155,-23.05
5167,-30.14
5179,-37.41
5191,-44.77
5203,-51.63
5215,-56.96
5227,-59.52
5239,-58.26
5251,-52.68
5263,-43.09
5275,-30.51
5287,-16.4
5299,-2.36
5311,10.19
5322,20.2
5333,27.03
5345,30.5
5357,30.88
5369,28.73
5381,24.75
5393,19.59
5405,13.77
5417,7.58
5429,1.31
5441,-4.62
5453,-9.57
5465,-12.84
5477,-13.9
5489,-12.79
5501,-10.17
5512,-7.23
5523,-5.41
5535,-6.03
5547,-10.14
5559,-18.44
5571,-31.02
5583,-47.18
5595,-64.97
5607,-81.39
5619,-93.0
5631,-97.05
5643,-92.55
5655,-80.7
5667,-64.34
5679,-46.63
5691,-29.8
5702,-14.54
5713,-0.35
5725,13.51
5737,27.1
5749,39.47
5761,49.21
5773,55.37
5785,58.33
5797,59.95
5809,63.06
5821,70.25
5833,82.88
5845,100.47
5857,120.99
5869,141.91
5881,161.24
5892,178.44
5903,194.29
5915,210.1
5927,226.62
5939,243.22
5951,257.96
5963,268.38
5975,272.59
5987,270.16
5999,262.14
6011,250.46
6023,236.96
6035,222.65
6047,207.53
6059,191.05
6071,172.7
6082,152.59
6093,131.43
6105,110.08
6117,89.05
6129,68.02
6141,46.03
6153,22.01
6165,-4.5
6177,-32.81
6189,-61.19
6201,-87.43
6213,-109.7
6225,-127.24
6237,-140.58
6249,-151.1
6261,-160.25
6272,-168.84
6283,-176.76
6295,-183.26
6307,-187.62
6319,-189.79
6331,-190.52
6343,-191.08
6355,-192.6
6367,-195.52
6379,-199.45
6391,-203.44
6403,-206.48
6415,-207.91
6427,-207.45
6439,-205.01
6451,-200.45
6462,-193.51
6473,-184.04
6485,-172.35
6497,-159.42
6509,-146.72
6521,-135.82
6533,-127.77
6545,-122.9
6557,-120.88
6569,-121.19
6581,-123.49
6593,-127.63
6605,-133.33
6617,-139.62
6629,-144.61
6641,-145.84
6652,-140.99
6663,-128.82
6675,-109.68
6687,-85.41
6699,-58.72
6711,-32.28
6723,-8.19
6735,12.33
6747,28.69
6759,40.64
6771,48.01
6783,50.69
6795,48.87
6807,43.22
6819,35.02
6831,25.91
6842,17.5
6853,10.97
6865,6.75
6877,4.6
6889,3.82
6901,3.7
6913,3.81
6925,4.06
6937,4.57
6949,5.45
6961,6.52
6973,7.4
6985,7.57
6997,6.64
7009,4.53
7021,1.46
7032,-2.15
7043,-5.85
7055,-9.25
7067,-11.91
7079,-13.22
7091,-12.3
7103,-8.06
7115,0.55
7127,14.3
7139,33.57
7151,58.35
7163,88.26
7175,122.43
7187,159.17
7199,195.8
7211,228.78
7222,254.44
7233,269.99
7245,274.52
7257,269.24
7269,257.04
7281,241.5
7293,225.83
7305,212.18
7317,201.63
7329,194.45
7341,190.48
7353,189.21
7365,189.85
7377,191.27
7389,192.11
7401,191.23
7412,188.04
7423,182.73
7435,176.23
7447,169.75
7459,164.21
7471,159.77
7483,155.66
7495,150.4
7507,142.36
7519,130.45
7531,114.62
7543,96.0
7555,76.6
7567,58.65
7579,43.99
7591,33.62
7602,27.57
7613,25.12
7625,25.21
7637,26.75
7649,28.82
7661,30.67
7673,31.69
7685,31.37
7697,29.31
7709,25.38
7721,19.81
7733,13.21
7745,6.47
7757,0.56
7769,-3.87
7781,-6.67
7792,-8.31
7803,-9.8
7815,-12.36
7827,-16.97
7839,-24.13
7851,-33.63
7863,-44.52
7875,-55.41
7887,-64.8
7899,-71.51
7911,-74.96
7923,-75.15
7935,-72.33
7947,-66.64
7959,-57.8
7971,-45.16
7982,-28.25
7993,-7.21
8005,16.97
8017,42.73
8029,68.41
8041,92.6
8053,114.03
8065,131.4
8077,143.26
8089,148.37
8101,146.39
8113,138.51
8125,127.35
8137,116.18
8149,107.62
8161,102.68
8172,100.45
8183,98.71
8195,94.99
8207,87.49
8219,75.45
8231,59.11
8243,39.36
8255,17.47
8267,-4.99
8279,-26.23
8291,-44.42
8303,-58.03
8315,-66.13
8327,-68.81
8339,-67.13
8351,-62.89
8362,-58.07
8373,-54.29
8385,-52.39
8397,-52.35
8409,-53.52
8421,-55.0
8433,-56.06
8445,-56.34
8457,-55.87
8469,-55.03
8481,-54.29
8493,-53.99
8505,-54.17
8517,-54.48
8529,-54.24
8541,-52.66
8552,-49.11
8563,-43.34
8575,-35.62
8587,-26.59
8599,-17.12
8611,-7.95
8623,0.36
8635,7.54
8647,13.45
8659,17.9
8671,20.63
8683,21.35
8695,19.94
8707,16.58
8719,11.78
8731,6.35
8742,1.08
8753,-3.41
8765,-6.87
8777,-9.42
8789,-11.42
8801,-13.26
8813,-15.25
8825,-17.59
8837,-20.33
8849,-23.44
8861,-26.88
8873,-30.52
8885,-34.17
8897,-37.57
8909,-40.45
8921,-42.61
8932,-43.98
8943,-44.71
8955,-45.14
8967,-45.67
8979,-46.68
8991,-48.38
9003,-50.65
9015,-53.1
9027,-55.12
9039,-56.1
9051,-55.58
9063,-53.42
9075,-49.87
9087,-45.4
9099,-40.59
9111,-35.91
9122,-31.69
9133,-28.14
9145,-25.31
9157,-23.22
9169,-21.81
9181,-20.95
9193,-20.47
9205,-20.24
9217,-20.12
9229,-20.06
9241,-20.03
9253,-19.97
9265,-19.81
9277,-19.43
9289,-18.76
9301,-17.82
9312,-16.68
9323,-15.49
9335,-14.38
9347,-13.5
9359,-12.92
9371,-12.74
9383,-13.04
9395,-13.8
9407,-15.03
9419,-16.73
9431,-18.91
9443,-21.65
9455,-24.96
9467,-28.65
9479,-32.26
9491,-35.07
9502,-36.31
9513,-35.42
9525,-32.25
9537,-27.14
9549,-20.71
9561,-13.73
9573,-6.91
9585,-0.76
9597,4.4
9609,8.34
9621,10.97
9633,12.3
9645,12.47
9657,11.74
9669,10.44
9681,8.9
9692,7.39
9703,6.06
9715,4.96
9727,4.07
9739,3.31
9751,2.6
9763,1.85
9775,1.04
9787,0.12
9799,-0.91
9811,-2.09
9823,-3.51
9835,-5.25
9847,-7.39
9859,-9.95
9871,-12.82
9882,-15.88
9893,-18.97
9905,-22.02
9917,-25.05
9929,-28.09
9941,-31.0
9953,-33.51
9965,-35.17
9977,-35.56
9989,-34.44
10001,-31.86
10013,-28.16
10025,-23.82
10037,-19.34
10049,-15.11
10061,-11.38
10072,-8.28
10083,-5.9
10095,-4.28
10107,-3.45
10119,-3.4
10131,-4.06
10143,-5.26
10155,-6.74
10167,-8.21
10179,-9.37
10191,-10.09
10203,-10.43
10215,-10.59
10227,-10.87
10239,-11.5
10251,-12.56
10262,-13.94
10273,-15.5
10285,-17.13
10297,-18.82
10309,-20.72
10321,-22.99
10333,-25.85
10345,-29.41
10357,-33.68
10369,-38.53
10381,-43.71
10393,-48.89
10405,-53.67
10417,-57.67
10429,-60.56
10441,-62.15
10452,-62.38
10463,-61.33
10475,-59.16
10487,-56.11
10499,-52.53
10511,-48.93
10523,-46.05
10535,-44.86
10547,-46.41
10559,-51.47
10571,-60.15
10583,-71.66
10595,-84.26
10607,-95.7
10619,-103.69
10631,-106.56
10642,-103.73
10653,-95.97
10665,-85.3
10677,-74.48
10689,-66.27
10701,-62.45
10713,-63.22
10725,-67.08
10737,-71.48
10749,-73.83
10761,-72.58
10773,-67.73
10785,-60.48
10797,-52.57
10809,-45.43
10821,-39.79
10832,-35.79
10843,-33.34
10855,-32.32
10867,-32.49
10879,-33.25
10891,-33.45
10903,-31.66
10915,-26.65
10927,-17.91
10939,-5.94
10951,7.9
10963,21.95
10975,34.79
10987,45.58
10999,54.12
11011,60.64
11022,65.48
11033,68.86
11045,70.79
11057,71.2
11069,70.05
11081,67.48
11093,63.91
11105,59.91
11117,56.1
11129,52.94
11141,50.59
11153,48.9
11165,47.51
11177,46.0
11189,44.08
11201,41.62
11212,38.68
11223,35.45
11235,32.11
11247,28.76
11259,25.3
11271,21.53
11283,17.11
11295,11.75
11307,5.28
11319,-2.25
11331,-10.46
11343,-18.65
11355,-25.76
11367,-30.63
11379,-32.2
11391,-29.82
11402,-23.54
11413,-14.12
11425,-2.84
11437,8.87
11449,19.85
11461,29.42
11473,37.36
11485,43.72
11497,48.57
11509,51.86
11521,53.49
11533,53.45
11545,51.88
11557,49.16
11569,45.78
11581,42.19
11592,38.73
11603,35.58
11615,32.84
11627,30.5
11639,28.51
11651,26.8
11663,25.22
11675,23.6
11687,21.78
11699,19.62
11711,17.04
11723,14.04
11735,10.71
11747,7.13
11759,3.37
11771,-0.62
11782,-5.03
11793,-10.14
11805,-16.16
11817,-23.02
11829,-30.18
11841,-36.64
11853,-41.1
11865,-42.35
11877,-39.62
11889,-32.9
11901,-22.89
11913,-10.85
11925,1.82
11937,13.91
11949,24.59
11961,33.44
11972,40.28
11983,45.07
11995,47.84
12007,48.74
12019,48.08
12031,46.31
12043,43.91
12055,41.3
12067,38.73
12079,36.32
12091,34.08
12103,32.04
12115,30.3
12127,28.94
12139,28.01
12151,27.41
12162,26.9
12173,26.18
12185,24.95
12197,23.06
12209,20.54
12221,17.51
12233,14.12
12245,10.43
12257,6.38
12269,1.8
12281,-3.54
12293,-9.75
12305,-16.77
12317,-24.25
12329,-31.57
12341,-37.82
12352,-42.02
12363,-43.27
12375,-41.01
12387,-35.19
12399,-26.3
12411,-15.28
12423,-3.3
12435,8.46
12447,19.07
12459,27.92
12471,34.71
12483,39.4
12495,42.08
12507,42.92
12519,42.14
12531,40.05
12542,37.07
12553,33.68
12565,30.4
12577,27.59
12589,25.45
12601,24.01
12613,23.19
12625,22.9
12637,23.06
12649,23.54
12661,24.13
12673,24.48
12685,24.23
12697,23.05
12709,20.84
12721,17.74
12732,14.06
12743,10.13
12755,6.19
12767,2.29
12779,-1.79
12791,-6.38
12803,-11.8
12815,-18.22
12827,-25.51
12839,-33.15
12851,-40.28
12863,-45.81
12875,-48.65
12887,-47.96
12899,-43.41
12911,-35.26
12922,-24.37
12933,-12.0
12945,0.51
12957,11.98
12969,21.6
12981,29.01
12993,34.21
13005,37.4
13017,38.88
13029,38.92
13041,37.84
13053,35.89
13065,33.38
13077,30.62
13089,27.89
13101,25.46
13112,23.44
13123,21.88
13135,20.71
13147,19.81
13159,19.07
13171,18.33
13183,17.45
13195,16.26
13207,14.55
13219,12.17
13231,9.04
13243,5.26
13255,1.05
13267,-3.36
13279,-7.77
13291,-12.11
13302,-16.47
13313,-20.98
13325,-25.89
13337,-31.32
13349,-37.24
13361,-43.29
13373,-48.76
13385,-52.63
13397,-53.81
13409,-51.47
13421,-45.36
13433,-35.9
13445,-24.11
13457,-11.29
13469,1.31
13481,12.72
13492,22.37
13503,29.97
13515,35.43
13527,38.79
13539,40.16
13551,39.81
13563,38.14
13575,35.68
13587,32.97
13599,30.48
13611,28.44
13623,26.9
13635,25.68
13647,24.61
13659,23.61
13671,22.68
13682,21.96
13693,21.52
13705,21.25
13717,20.83
13729,19.82
13741,17.86
13753,14.79
13765,10.77
13777,6.22
13789,1.65
13801,-2.56
13813,-6.31
13825,-9.82
13837,-13.56
13849,-18.05
13861,-23.65
13872,-30.32
13883,-37.57
13895,-44.43
13907,-49.64
13919,-52.01
13931,-50.7
13943,-45.52
13955,-36.96
13967,-26.02
13979,-13.98
13991,-2.08
14003,8.74
14015,17.86
14027,24.99
14039,30.05
14051,33.07
14062,34.18
14073,33.59
14085,31.67
14097,28.88
14109,25.73
14121,22.64
14133,19.9
14145,17.65
14157,15.89
14169,14.65
14181,13.95
14193,13.8
14205,14.08
14217,14.49
14229,14.59
14241,13.95
14252,12.32
14263,9.74
14275,6.51
14287,3.0
14299,-0.51
14311,-3.93
14323,-7.35
14335,-10.96
14347,-15.0
14359,-19.66
14371,-25.14
14383,-31.45
14395,-38.4
14407,-45.43
14419,-51.56
14431,-55.61
14442,-56.46
14453,-53.47
14465,-46.7
14477,-36.94
14489,-25.45
14501,-13.56
14513,-2.37
14525,7.41
14537,15.5
14549,21.8
14561,26.33
14573,29.14
14585,30.31
14597,30.0
14609,28.43
14621,25.92
14632,22.81
14643,19.46
14655,16.23
14667,13.47
14679,11.47
14691,10.37
14703,10.15
14715,10.62
14727,11.43
14739,12.19
14751,12.51
14763,12.11
14775,10.89
14787,8.9
14799,6.33
14811,3.4
14822,0.29
14833,-2.91
14845,-6.26
14857,-9.87
14869,-13.97
14881,-18.77
14893,-24.4
14905,-30.75
14917,-37.3
14929,-43.19
14941,-47.26
14953,-48.39
14965,-45.87
14977,-39.65
14989,-30.46
15001,-19.51
15012,-8.2
15023,2.31
15035,11.31
15047,18.52
15059,23.95
15071,27.69
15083,29.83
15095,30.43
15107,29.6
15119,27.6
15131,24.81
15143,21.69
15155,18.66
15167,16.07
15179,14.11
15191,12.83
15202,12.17
15213,11.99
15225,12.12
15237,12.3
15249,12.32
15261,11.93
15273,10.96
15285,9.29
15297,6.9
15309,3.87
15321,0.34
15333,-3.52
15345,-7.64
15357,-12.01
15369,-16.75
15381,-21.97
15392,-27.71
15403,-33.78
15415,-39.75
15427,-44.91
15439,-48.45
15451,-49.62
15463,-47.92
15475,-43.23
15487,-35.92
15499,-26.73
15511,-16.64
15523,-6.62
15535,2.49
15547,10.11
15559,15.89
15571,19.69
15582,21.59
15593,21.78
15605,20.63
15617,18.59
15629,16.12
15641,13.61
15653,11.29
15665,9.31
15677,7.76
15689,6.74
15701,6.33
15713,6.53
15725,7.21
15737,8.11
15749,8.87
15761,9.13
15772,8.65
15783,7.32
15795,5.14
15807,2.27
15819,-1.09
15831,-4.68
15843,-8.32
15855,-11.88
15867,-15.45
15879,-19.3
15891,-23.78
15903,-29.2
15915,-35.53
15927,-42.27
15939,-48.37
15951,-52.5
15962,-53.38
15973,-50.26
15985,-43.19
15997,-33.01
16009,-21.11
16021,-8.93
16033,2.39
16045,12.15
16057,20.08
16069,26.05
16081,30.04
16093,31.99
16105,32.0
16117,30.32
16129,27.41
16141,23.84
16152,20.15
16163,16.69
16175,13.64
16187,11.11
16199,9.14
16211,7.83
16223,7.23
16235,7.32
16247,7.94
16259,8.75
16271,9.36
16283,9.38
16295,8.58
16307,6.98
16319,4.78
16331,2.29
16342,-0.24
16353,-2.73
16365,-5.3
16377,-8.24
16389,-11.89
16401,-16.5
16413,-22.15
16425,-28.61
16437,-35.27
16449,-41.15
16461,-45.06
16473,-45.88
16485,-42.9
16497,-36.12
16509,-26.26
16521,-14.55
16532,-2.44
16543,8.86
16555,18.5
16567,26.09
16579,31.55
16591,34.89
16603,36.23
16615,35.69
16627,33.55
16639,30.24
16651,26.3
16663,22.28
16675,18.59
16687,15.48
16699,12.99
16711,11.04
16722,9.52
16733,8.32
16745,7.42
16757,6.8
16769,6.41
16781,6.11
16793,5.74
16805,5.06
16817,3.93
16829,2.32
16841,0.29
16853,-1.96
16865,-4.27
16877,-6.58
16889,-9.02
16901,-11.85
16912,-15.36
16923,-19.71
16935,-24.68
16947,-29.67
16959,-33.7
16971,-35.66
16983,-34.58
16995,-29.93
17007,-21.81
17019,-10.91
17031,1.73
17043,14.99
17055,27.94
17067,39.94
17079,50.61
17091,59.62
17102,66.62
17113,71.29
17125,73.51
17137,73.57
17149,72.21
17161,70.48
17173,69.49
17185,70.04
17197,72.52
17209,76.83
17221,82.66
17233,89.64
17245,97.55
17257,106.39
17269,116.25
17281,127.34
17292,139.87
17303,154.05
17315,169.86
17327,186.8
17339,203.73
17351,218.9
17363,230.53
17375,237.35
17387,239.18
17399,236.83
17411,231.55
17423,224.31
17435,215.22
17447,203.58
17459,188.44
17471,169.28
17482,146.24
17493,120.06
17505,91.53
17517,61.4
17529,30.41
17541,-0.27
17553,-28.87
17565,-53.3
17577,-71.87
17589,-84.02
17601,-90.6
17613,-93.57
17625,-95.17
17637,-97.17
17649,-100.39
17661,-104.76
17672,-109.69
17683,-114.43
17695,-118.39
17707,-121.16
17719,-122.56
17731,-122.6
17743,-121.45
17755,-119.45
17767,-116.95
17779,-114.28
17791,-111.64
17803,-109.08
17815,-106.59
17827,-104.08
17839,-101.51
17851,-98.83
17862,-96.07
17873,-93.37
17885,-90.95
17897,-89.09
17909,-88.06
17921,-87.93
17933,-88.55
17945,-89.47
17957,-90.06
17969,-89.77
17981,-88.2
17993,-85.3
18005,-81.23
18017,-76.33
18029,-70.92
18041,-65.21
18052,-59.41
18063,-53.69
18075,-48.32
18087,-43.65
18099,-40.01
18111,-37.64
18123,-36.62
18135,-36.82
18147,-37.96
18159,-39.61
18171,-41.33
18183,-42.69
18195,-43.34
18207,-43.12
18219,-42.15
18231,-40.76
18242,-39.41
18253,-38.49
18265,-38.18
18277,-38.34
18289,-38.75
18301,-39.17
18313,-39.52
18325,-39.89
18337,-40.36
18349,-40.97
18361,-41.57
18373,-42.01
18385,-42.21
18397,-42.29
18409,-42.5
18421,-43.17
18432,-44.44
18443,-46.24
18455,-48.29
18467,-50.1
18479,-51.14
18491,-50.86
18503,-48.82
18515,-44.77
18527,-38.77
18539,-31.2
18551,-22.71
18563,-14.08
18575,-5.98
18587,1.08
18599,6.87
18611,11.33
18622,14.53
18633,16.58
18645,17.62
18657,17.9
18669,17.65
18681,17.15
18693,16.59
18705,16.15
18717,15.87
18729,15.8
18741,15.92
18753,16.2
18765,16.54
18777,16.84
18789,17.01
18801,16.94
18812,16.57
18823,15.82
18835,14.58
18847,12.74
18859,10.23
18871,7.11
18883,3.58
18895,-0.09
18907,-3.64
18919,-6.98
18931,-10.23
18943,-13.67
18955,-17.55
18967,-21.94
18979,-26.57
18991,-30.86
19002,-34.04
19013,-35.37
19025,-34.35
19037,-30.87
19049,-25.26
19061,-18.15
19073,-10.41
19085,-2.85
19097,3.9
19109,9.46
19121,13.75
19133,16.85
19145,18.91
19157,20.06
19169,20.38
19181,19.95
19192,18.85
19203,17.28
19215,15.47
19227,13.72
19239,12.31
19251,11.42
19263,11.14
19275,11.42
19287,12.09
19299,12.87
19311,13.48
19323,13.65
19335,13.18
19347,11.95
19359,9.97
19371,7.31
19382,4.18
19393,0.81
19405,-2.6
19417,-5.9
19429,-9.14
19441,-12.47
19453,-16.11
19465,-20.19
19477,-24.66
19489,-29.2
19501,-33.23
19513,-36.01
19525,-36.83
19537,-35.22
19549,-31.05
19561,-24.69
19572,-16.89
19583,-8.6
19595,-0.67
19607,6.33
19619,12.19
19631,16.98
19643,20.81
19655,23.71
19667,25.6
19679,26.37
19691,26.09
19703,25.02
19715,23.58
19727,22.17
19739,21.08
19751,20.3
19762,19.75
19773,19.25
19785,18.73
19797,18.19
19809,17.7
19821,17.24
19833,16.73
19845,15.97
19857,14.77
19869,12.99
19881,10.61
19893,7.68
19905,4.38
19917,0.87
19929,-2.71
19941,-6.23
19952,-9.64
19963,-12.93
19975,-16.14
19987,-19.45
19999,-23.04
20011,-27.12
20023,-31.69
20035,-36.49
20047,-40.92
20059,-44.13
20071,-45.36
20083,-44.04
20095,-40.05
20107,-33.69
20119,-25.6
20131,-16.53
20142,-7.25
20153,1.6
20165,9.51
20177,16.11
20189,21.23
20201,24.83
20213,27.03
20225,28.04
20237,28.12
20249,27.56
20261,26.63
20273,25.58
20285,24.63
20297,23.92
20309,23.51
20321,23.39
20332,23.47
20343,23.65
20355,23.8
20367,23.88
20379,23.82
20391,23.55
20403,22.94
20415,21.84
20427,20.11
20439,17.74
20451,14.87
20463,11.76
20475,8.71
20487,5.88
20499,3.29
20511,0.78
20522,-1.88
20533,-4.85
20545,-8.18
20557,-11.75
20569,-15.38
20581,-18.91
20593,-22.27
20605,-25.51
20617,-28.76
20629,-32.24
20641,-36.11
20653,-40.45
20665,-45.03
20677,-49.4
20689,-52.8
20701,-54.43
20712,-53.58
20723,-49.9
20735,-43.49
20747,-34.93
20759,-25.14
20771,-15.17
20783,-5.94
20795,1.96
20807,8.29
20819,13.13
20831,16.68
20843,19.15
20855,20.65
20867,21.22
20879,20.97
20891,20.06
20902,18.76
20913,17.35
20925,16.07
20937,15.04
20949,14.32
20961,13.87
20973,13.62
20985,13.42
20997,13.07
