seconds,BVP
10,-11.87
22,-14.53
33,-17.01
44,-19.1
56,-20.69
68,-21.8
80,-22.64
92,-23.57
104,-25.05
116,-27.42
128,-30.76
140,-34.75
152,-38.64
164,-41.41
176,-42.03
188,-39.74
200,-34.31
212,-26.09
223,-15.97
234,-5.12
246,5.32
258,14.46
270,21.78
282,27.09
294,30.4
306,31.8
318,31.4
330,29.41
342,26.18
354,22.22
366,18.18
378,14.67
390,12.14
402,10.81
413,10.58
424,11.22
436,12.45
448,14.07
460,15.93
472,17.96
484,20.06
496,22.05
508,23.69
520,24.73
532,25.0
544,24.49
556,23.36
568,21.93
580,20.53
592,19.4
603,18.54
614,17.78
626,16.81
638,15.37
650,13.41
662,11.11
674,8.86
686,7.09
698,6.14
710,6.08
722,6.75
734,7.78
746,8.85
758,9.69
770,10.23
782,10.58
793,11.06
804,12.19
816,14.67
828,19.3
840,26.76
852,37.37
864,50.95
876,66.85
888,84.19
900,102.14
912,120.02
924,137.27
936,153.16
948,166.59
960,176.2
972,180.71
983,179.42
994,172.58
1006,161.4
1018,147.7
1030,133.39
1042,120.02
1054,108.59
1066,99.53
1078,92.87
1090,88.41
1102,85.73
1114,84.18
1126,82.92
1138,80.94
1150,77.34
1162,71.42
1173,62.99
1184,52.32
1196,40.07
1208,26.92
1220,13.38
1232,-0.5
1244,-15.02
1256,-30.61
1268,-47.52
1280,-65.62
1292,-84.32
1304,-102.77
1316,-120.18
1328,-135.96
1340,-149.96
1352,-162.35
1363,-173.51
1374,-183.99
1386,-194.34
1398,-205.08
1410,-216.52
1422,-228.58
1434,-240.64
1446,-251.56
1458,-260.04
1470,-265.03
1482,-266.19
1494,-264.05
1506,-259.76
1518,-254.52
1530,-248.92
1542,-242.68
1553,-234.77
1564,-223.95
1576,-209.51
1588,-191.68
1600,-171.6
1612,-150.92
1624,-131.11
1636,-113.01
1648,-96.66
1660,-81.52
1672,-66.93
1684,-52.44
1696,-38.0
1708,-23.9
1720,-10.52
1732,1.85
1743,13.08
1754,23.06
1766,31.62
1778,38.49
1790,43.39
1802,46.26
1814,47.37
1826,47.26
1838,46.58
1850,45.79
1862,44.99
1874,43.96
1886,42.35
1898,39.89
1910,36.56
1922,32.6
1933,28.38
1944,24.28
1956,20.49
1968,17.05
1980,13.73
1992,10.12
2004,5.79
2016,0.46
2028,-5.7
2040,-11.99
2052,-17.19
2064,-19.95
2076,-19.21
2088,-14.57
2100,-6.52
2112,3.77
2123,14.81
2134,25.25
2146,34.14
2158,41.04
2170,45.92
2182,48.9
2194,50.12
2206,49.59
2218,47.37
2230,43.64
2242,38.86
2254,33.73
2266,29.07
2278,25.61
2290,23.7
2302,23.32
2313,24.1
2324,25.53
2336,27.1
2348,28.53
2360,29.64
2372,30.43
2384,30.87
2396,30.93
2408,30.56
2420,29.71
2432,28.38
2444,26.59
2456,24.34
2468,21.68
2480,18.7
2492,15.5
2503,12.23
2514,9.0
2526,5.81
2538,2.6
2550,-0.73
2562,-4.33
2574,-8.29
2586,-12.64
2598,-17.25
2610,-21.76
2622,-25.53
2634,-27.69
2646,-27.36
2658,-23.94
2670,-17.39
2682,-8.29
2693,2.27
2704,13.04
2716,22.91
2728,31.14
2740,37.36
2752,41.44
2764,43.34
2776,43.07
2788,40.73
2800,36.62
2812,31.34
2824,25.72
2836,20.62
2848,16.76
2860,14.44
2872,13.6
2883,13.8
2894,14.55
2906,15.44
2918,16.24
2930,16.95
2942,17.62
2954,18.23
2966,18.59
2978,18.4
2990,17.38
3002,15.43
3014,12.65
3026,9.4
3038,6.04
3050,2.88
3062,0.04
3073,-2.59
3084,-5.21
3096,-8.1
3108,-11.49
3120,-15.52
3132,-20.23
3144,-25.45
3156,-30.69
3168,-35.12
3180,-37.68
3192,-37.35
3204,-33.52
3216,-26.23
3228,-16.25
3240,-4.85
3252,6.59
3263,16.92
3274,25.46
3286,31.89
3298,36.18
3310,38.39
3322,38.55
3334,36.79
3346,33.32
3358,28.61
3370,23.32
3382,18.2
3394,13.95
3406,11.05
3418,9.65
3430,9.56
3442,10.38
3453,11.64
3464,12.96
3476,14.11
3488,15.04
3500,15.77
3512,16.28
3524,16.44
3536,16.05
3548,14.89
3560,12.87
3572,10.11
3584,6.86
3596,3.52
3608,0.33
3620,-2.59
3632,-5.33
3643,-8.11
3654,-11.1
3666,-14.42
3678,-18.12
3690,-22.23
3702,-26.69
3714,-31.24
3726,-35.31
3738,-37.98
3750,-38.22
3762,-35.27
3774,-28.95
3786,-19.86
3798,-9.15
3810,1.82
3822,11.88
3833,20.3
3844,26.8
3856,31.35
3868,34.05
3880,34.97
3892,34.2
3904,31.95
3916,28.61
3928,24.72
3940,20.9
3952,17.65
3964,15.31
3976,13.98
3988,13.58
4000,13.89
4012,14.67
4023,15.7
4034,16.79
4046,17.77
4058,18.46
4070,18.73
4082,18.5
4094,17.71
4106,16.4
4118,14.6
4130,12.35
4142,9.68
4154,6.67
4166,3.39
4178,-0.0
4190,-3.36
4202,-6.51
4213,-9.35
4224,-11.85
4236,-14.1
4248,-16.24
4260,-18.5
4272,-21.11
4284,-24.25
4296,-27.91
4308,-31.83
4320,-35.35
4332,-37.55
4344,-37.45
4356,-34.36
4368,-28.15
4380,-19.41
4392,-9.24
4403,1.07
4414,10.42
4426,18.15
4438,24.03
4450,28.11
4462,30.48
4474,31.21
4486,30.37
4498,28.18
4510,25.09
4522,21.72
4534,18.7
4546,16.48
4558,15.19
4570,14.7
4582,14.72
4593,15.02
4604,15.52
4616,16.26
4628,17.3
4640,18.57
4652,19.86
4664,20.8
4676,21.05
4688,20.41
4700,18.86
4712,16.63
4724,14.02
4736,11.38
4748,8.93
4760,6.74
4772,4.69
4783,2.58
4794,0.18
4806,-2.6
4818,-5.71
4830,-8.93
4842,-11.98
4854,-14.65
4866,-16.85
4878,-18.64
4890,-20.2
4902,-21.79
4914,-23.73
4926,-26.29
4938,-29.63
4950,-33.59
4962,-37.6
4973,-40.67
4984,-41.68
4996,-39.68
5008,-34.32
5020,-26.01
5032,-15.81
5044,-5.11
5056,4.81
5068,13.07
5080,19.27
5092,23.42
5104,25.72
5116,26.38
5128,25.63
5140,23.73
5152,21.04
5163,18.01
5174,15.14
5186,12.89
5198,11.51
5210,11.1
5222,11.53
5234,12.61
5246,14.1
5258,15.77
5270,17.43
5282,18.89
5294,20.0
5306,20.62
5318,20.65
5330,20.02
5342,18.72
5353,16.79
5364,14.39
5376,11.72
5388,9.04
5400,6.56
5412,4.38
5424,2.51
5436,0.85
5448,-0.74
5460,-2.37
5472,-4.12
5484,-6.03
5496,-8.07
5508,-10.21
5520,-12.32
5532,-14.27
5543,-15.91
5554,-17.15
5566,-18.09
5578,-18.94
5590,-20.08
5602,-21.92
5614,-24.8
5626,-28.75
5638,-33.42
5650,-38.03
5662,-41.46
5674,-42.6
5686,-40.64
5698,-35.44
5710,-27.55
5722,-18.04
5733,-8.19
5744,0.95
5756,8.71
5768,14.85
5780,19.39
5792,22.39
5804,23.9
5816,23.96
5828,22.65
5840,20.24
5852,17.15
5864,13.94
5876,11.11
5888,9.07
5900,8.03
5912,7.98
5923,8.79
5934,10.26
5946,12.14
5958,14.21
5970,16.16
5982,17.75
5994,18.74
6006,18.97
6018,18.43
6030,17.24
6042,15.65
6054,13.9
6066,12.16
6078,10.5
6090,8.87
6102,7.17
6113,5.29
6124,3.23
6136,1.04
6148,-1.18
6160,-3.34
6172,-5.43
6184,-7.47
6196,-9.53
6208,-11.62
6220,-13.67
6232,-15.53
6244,-17.1
6256,-18.33
6268,-19.36
6280,-20.4
6292,-21.77
6303,-23.79
6314,-26.69
6326,-30.52
6338,-35.01
6350,-39.48
6362,-42.91
6374,-44.2
6386,-42.48
6398,-37.47
6410,-29.59
6422,-19.86
6434,-9.57
6446,0.1
6458,8.37
6470,14.85
6482,19.5
6493,22.43
6504,23.75
6516,23.57
6528,22.05
6540,19.44
6552,16.21
6564,12.94
6576,10.23
6588,8.52
6600,7.98
6612,8.45
6624,9.54
6636,10.82
6648,12.01
6660,13.05
6672,14.05
6683,15.09
6694,16.14
6706,16.99
6718,17.43
6730,17.3
6742,16.62
6754,15.48
6766,13.99
6778,12.24
6790,10.26
6802,8.15
6814,6.04
6826,4.09
6838,2.37
6850,0.82
6862,-0.77
6873,-2.63
6884,-4.83
6896,-7.28
6908,-9.68
6920,-11.73
6932,-13.25
6944,-14.27
6956,-15.02
6968,-15.84
6980,-17.05
6992,-18.86
7004,-21.37
7016,-24.49
7028,-27.91
7040,-31.11
7052,-33.31
7063,-33.66
7074,-31.45
7086,-26.38
7098,-18.71
7110,-9.3
7122,0.71
7134,10.14
7146,18.17
7158,24.42
7170,28.96
7182,32.09
7194,34.15
7206,35.35
7218,35.76
7230,35.41
7242,34.45
7253,33.26
7264,32.44
7276,32.71
7288,34.65
7300,38.52
7312,44.13
7324,50.94
7336,58.29
7348,65.58
7360,72.38
7372,78.46
7384,83.74
7396,88.3
7408,92.46
7420,96.94
7432,102.86
7443,111.43
7454,123.54
7466,139.21
7478,157.32
7490,175.8
7502,192.14
7514,204.08
7526,210.29
7538,210.51
7550,205.41
7562,195.98
7574,183.14
7586,167.33
7598,148.72
7610,127.38
7622,103.61
7633,78.05
7644,51.48
7656,24.6
7668,-2.2
7680,-28.87
7692,-55.45
7704,-81.79
7716,-107.25
7728,-130.83
7740,-151.37
7752,-167.99
7764,-180.38
7776,-188.92
7788,-194.49
7800,-198.2
7812,-201.0
7823,-203.51
7834,-205.99
7846,-208.37
7858,-210.47
7870,-212.14
7882,-213.27
7894,-213.88
7906,-214.0
7918,-213.72
7930,-213.1
7942,-212.14
7954,-210.73
7966,-208.61
7978,-205.4
7990,-200.49
8002,-193.17
8013,-182.75
8024,-168.77
8036,-151.3
8048,-131.07
8060,-109.46
8072,-88.19
8084,-68.94
8096,-52.79
8108,-40.04
8120,-30.16
8132,-22.09
8144,-14.75
8156,-7.48
8168,-0.28
8180,6.3
8192,11.55
8203,14.96
8214,16.53
8226,16.81
8238,16.74
8250,17.3
8262,19.22
8274,22.79
8286,27.89
8298,34.18
8310,41.28
8322,48.86
8334,56.54
8346,63.8
8358,69.86
8370,73.9
8382,75.26
8393,73.76
8404,69.89
8416,64.71
8428,59.5
8440,55.48
8452,53.35
8464,53.21
8476,54.61
8488,56.69
8500,58.52
8512,59.41
8524,59.12
8536,57.84
8548,56.03
8560,54.04
8572,51.86
8583,49.13
8594,45.34
8606,40.2
8618,33.86
8630,26.83
8642,19.84
8654,13.41
8666,7.85
8678,3.27
8690,-0.13
8702,-1.95
8714,-1.61
8726,1.4
8738,7.29
8750,15.8
8762,26.24
8773,37.65
8784,49.17
8796,60.19
8808,70.51
8820,80.32
8832,90.04
8844,100.11
8856,110.81
8868,122.25
8880,134.32
8892,146.76
8904,159.13
8916,170.67
8928,180.23
8940,186.39
8952,187.66
8963,182.95
8974,171.94
8986,155.15
8998,133.79
9010,109.33
9022,83.25
9034,56.87
9046,31.49
9058,8.45
9070,-10.92
9082,-25.62
9094,-35.32
9106,-40.58
9118,-42.69
9130,-43.24
9142,-43.66
9153,-44.82
9164,-47.08
9176,-50.42
9188,-54.79
9200,-60.25
9212,-66.96
9224,-75.1
9236,-84.62
9248,-95.25
9260,-106.42
9272,-117.49
9284,-127.83
9296,-137.0
9308,-144.71
9320,-150.87
9332,-155.56
9343,-159.0
9354,-161.58
9366,-163.82
9378,-166.27
9390,-169.38
9402,-173.31
9414,-177.71
9426,-181.69
9438,-183.81
9450,-182.38
9462,-175.85
9474,-163.32
9486,-144.89
9498,-121.78
9510,-96.07
9522,-70.28
9533,-46.69
9544,-26.9
9556,-11.63
9568,-0.81
9580,6.18
9592,10.14
9604,11.88
9616,12.04
9628,11.05
9640,9.17
9652,6.6
9664,3.64
9676,0.81
9688,-1.12
9700,-1.28
9712,1.01
9723,5.99
9734,13.35
9746,22.26
9758,31.67
9770,40.54
9782,48.09
9794,53.84
9806,57.52
9818,59.0
9830,58.25
9842,55.41
9854,50.8
9866,45.07
9878,38.96
9890,33.31
9902,28.74
9913,25.62
9924,23.92
9936,23.31
9948,23.3
9960,23.35
9972,23.12
9984,22.53
9996,21.78
10008,21.24
10020,21.23
10032,21.9
10044,23.12
10056,24.55
10068,25.68
10080,26.05
10092,25.32
10103,23.34
10114,20.16
10126,16.09
10138,11.56
10150,7.09
10162,3.13
10174,-0.04
10186,-2.39
10198,-4.16
10210,-5.74
10222,-7.56
10234,-9.93
10246,-12.87
10258,-15.98
10270,-18.46
10282,-19.3
10293,-17.51
10304,-12.49
10316,-4.29
10328,6.37
10340,18.28
10352,30.13
10364,40.85
10376,49.79
10388,56.72
10400,61.63
10412,64.54
10424,65.44
10436,64.39
10448,61.71
10460,58.02
10472,54.24
10483,51.27
10494,49.68
10506,49.57
10518,50.52
10530,51.88
10542,53.04
10554,53.73
10566,54.03
10578,54.29
10590,54.94
10602,56.3
10614,58.45
10626,61.08
10638,63.5
10650,64.75
10662,63.82
10673,60.0
10684,53.12
10696,43.62
10708,32.46
10720,20.81
10732,9.74
10744,0.04
10756,-7.9
10768,-13.99
10780,-18.41
10792,-21.52
10804,-23.72
10816,-25.29
10828,-26.23
10840,-26.16
10852,-24.44
10863,-20.42
10874,-13.76
10886,-4.65
10898,6.23
10910,17.85
10922,29.09
10934,39.03
10946,46.96
10958,52.41
10970,55.07
10982,54.81
10994,51.63
11006,45.8
11018,37.82
11030,28.49
11042,18.84
11053,10.01
11064,2.95
11076,-1.74
11088,-4.02
11100,-4.39
11112,-3.63
11124,-2.54
11136,-1.73
11148,-1.55
11160,-2.27
11172,-4.23
11184,-7.86
11196,-13.55
11208,-21.36
11220,-30.86
11232,-41.22
11243,-51.44
11254,-60.71
11266,-68.61
11278,-75.12
11290,-80.42
11302,-84.76
11314,-88.38
11326,-91.55
11338,-94.74
11350,-98.46
11362,-103.12
11374,-108.62
11386,-114.1
11398,-117.99
11410,-118.38
11422,-113.58
11433,-102.64
11444,-85.66
11456,-63.77
11468,-38.81
11480,-13.02
11492,11.46
11504,32.79
11516,49.71
11528,61.55
11540,68.29
11552,70.42
11564,68.76
11576,64.34
11588,58.19
11600,51.31
11612,44.55
11623,38.6
11634,33.92
11646,30.65
11658,28.62
11670,27.45
11682,26.69
11694,25.88
11706,24.72
11718,22.98
11730,20.58
11742,17.48
11754,13.78
11766,9.62
11778,5.19
11790,0.66
11802,-3.96
11813,-8.72
11824,-13.76
11836,-19.17
11848,-24.89
11860,-30.7
11872,-36.31
11884,-41.47
11896,-46.04
11908,-50.11
11920,-53.84
11932,-57.56
11944,-61.61
11956,-66.35
11968,-71.96
11980,-78.2
11992,-84.3
12003,-88.98
12014,-90.72
12026,-88.32
12038,-81.35
12050,-70.34
12062,-56.68
12074,-42.09
12086,-28.14
12098,-15.88
12110,-5.8
12122,2.04
12134,7.81
12146,11.67
12158,13.78
12170,14.39
12182,13.84
12193,12.66
12204,11.41
12216,10.59
12228,10.52
12240,11.3
12252,12.75
12264,14.59
12276,16.54
12288,18.47
12300,20.4
12312,22.42
12324,24.58
12336,26.76
12348,28.6
12360,29.64
12372,29.49
12383,27.99
12394,25.33
12406,22.01
12418,18.66
12430,15.82
12442,13.77
12454,12.43
12466,11.43
12478,10.3
12490,8.63
12502,6.25
12514,3.26
12526,-0.01
12538,-3.13
12550,-5.79
12562,-7.84
12573,-9.38
12584,-10.73
12596,-12.31
12608,-14.58
12620,-17.96
12632,-22.68
12644,-28.6
12656,-35.11
12668,-41.01
12680,-44.8
12692,-45.07
12704,-41.01
12716,-32.72
12728,-21.21
12740,-8.06
12752,5.07
12763,16.92
12774,26.77
12786,34.36
12798,39.68
12810,42.77
12822,43.73
12834,42.72
12846,40.11
12858,36.47
12870,32.44
12882,28.67
12894,25.65
12906,23.7
12918,22.87
12930,23.0
12942,23.81
12953,24.96
12964,26.21
12976,27.44
12988,28.65
13000,29.78
13012,30.68
13024,31.02
13036,30.37
13048,28.45
13060,25.2
13072,20.95
13084,16.24
13096,11.66
13108,7.6
13120,4.17
13132,1.15
13143,-1.78
13154,-4.88
13166,-8.22
13178,-11.67
13190,-14.94
13202,-17.79
13214,-20.05
13226,-21.73
13238,-22.98
13250,-24.05
13262,-25.29
13274,-27.11
13286,-29.92
13298,-34.0
13310,-39.27
13322,-45.12
13333,-50.45
13344,-53.86
13356,-54.14
13368,-50.65
13380,-43.55
13392,-33.66
13404,-22.24
13416,-10.51
13428,0.58
13440,10.4
13452,18.63
13464,25.01
13476,29.39
13488,31.64
13500,31.82
13512,30.2
13523,27.36
13534,24.02
13546,20.93
13558,18.68
13570,17.58
13582,17.64
13594,18.61
13606,20.15
13618,21.92
13630,23.69
13642,25.33
13654,26.76
13666,27.93
13678,28.71
13690,28.99
13702,28.6
13713,27.41
13724,25.39
13736,22.63
13748,19.36
13760,15.89
13772,12.53
13784,9.41
13796,6.47
13808,3.5
13820,0.26
13832,-3.32
13844,-7.11
13856,-10.81
13868,-14.08
13880,-16.67
13892,-18.61
13903,-20.11
13914,-21.58
13926,-23.41
13938,-25.97
13950,-29.47
13962,-33.89
13974,-38.9
13986,-43.82
13998,-47.63
14010,-49.23
14022,-47.7
14034,-42.62
14046,-34.19
14058,-23.22
14070,-10.87
14082,1.58
14093,13.06
14104,22.82
14116,30.46
14128,35.85
14140,38.99
14152,39.99
14164,39.03
14176,36.44
14188,32.72
14200,28.51
14212,24.57
14224,21.58
14236,19.95
14248,19.77
14260,20.75
14272,22.39
14283,24.13
14294,25.55
14306,26.43
14318,26.72
14330,26.47
14342,25.75
14354,24.6
14366,23.01
14378,20.97
14390,18.48
14402,15.6
14414,12.48
14426,9.32
14438,6.31
14450,3.59
14462,1.13
14473,-1.2
14484,-3.61
14496,-6.25
14508,-9.16
14520,-12.26
14532,-15.4
14544,-18.44
14556,-21.34
14568,-24.05
14580,-26.6
14592,-28.98
14604,-31.29
14616,-33.77
14628,-36.81
14640,-40.81
14652,-45.89
14663,-51.65
14674,-57.07
14686,-60.69
14698,-61.11
14710,-57.46
14722,-49.73
14734,-38.79
14746,-26.05
14758,-13.0
14770,-0.85
14782,9.69
14794,18.31
14806,24.97
14818,29.68
14830,32.47
14842,33.42
14853,32.76
14864,30.93
14876,28.5
14888,26.12
14900,24.26
14912,23.2
14924,22.93
14936,23.25
14948,23.94
14960,24.82
14972,25.81
14984,26.89
14996,28.01
15008,29.02
15020,29.71
15032,29.83
15043,29.26
15054,27.99
15066,26.11
15078,23.8
15090,21.2
15102,18.39
15114,15.43
15126,12.33
15138,9.16
15150,5.96
15162,2.78
15174,-0.35
15186,-3.47
15198,-6.63
15210,-9.81
15222,-12.96
15233,-16.0
15244,-18.81
15256,-21.35
15268,-23.66
15280,-25.89
15292,-28.28
15304,-31.19
15316,-34.99
15328,-39.89
15340,-45.83
15352,-52.27
15364,-58.17
15376,-62.2
15388,-63.11
15400,-60.15
15412,-53.36
15423,-43.57
15434,-32.14
15446,-20.51
15458,-9.8
15470,-0.61
15482,6.9
15494,12.87
15506,17.45
15518,20.7
15530,22.62
15542,23.25
15554,22.8
15566,21.66
15578,20.36
15590,19.42
15602,19.2
15613,19.84
15624,21.24
15636,23.16
15648,25.35
15660,27.61
15672,29.81
15684,31.86
15696,33.6
15708,34.86
15720,35.5
15732,35.44
15744,34.7
15756,33.36
15768,31.52
15780,29.24
15792,26.55
15803,23.49
15814,20.1
15826,16.49
15838,12.77
15850,9.06
15862,5.45
15874,1.99
15886,-1.29
15898,-4.38
15910,-7.3
15922,-10.06
15934,-12.6
15946,-14.89
15958,-16.83
15970,-18.44
15982,-19.85
15993,-21.36
16004,-23.37
16016,-26.23
16028,-30.06
16040,-34.59
16052,-39.1
16064,-42.51
16076,-43.7
16088,-41.85
16100,-36.66
16112,-28.55
16124,-18.43
16136,-7.5
16148,3.09
16160,12.47
16172,20.14
16183,25.9
16194,29.75
16206,31.77
16218,32.05
16230,30.72
16242,28.09
16254,24.61
16266,20.9
16278,17.57
16290,15.08
16302,13.64
16314,13.19
16326,13.52
16338,14.43
16350,15.8
16362,17.57
16373,19.73
16384,22.14
16396,24.51
16408,26.47
16420,27.64
16432,27.8
16444,26.89
16456,25.08
16468,22.69
16480,20.06
16492,17.45
16504,14.97
16516,12.54
16528,9.99
16540,7.15
16552,3.97
16563,0.58
16574,-2.79
16586,-5.85
16598,-8.42
16610,-10.49
16622,-12.21
16634,-13.9
16646,-15.92
16658,-18.59
16670,-22.09
16682,-26.3
16694,-30.73
16706,-34.51
16718,-36.62
16730,-36.13
16742,-32.55
16753,-26.03
16764,-17.33
16776,-7.63
16788,1.87
16800,10.26
16812,16.99
16824,21.87
16836,24.91
16848,26.12
16860,25.56
16872,23.39
16884,19.96
16896,15.83
16908,11.65
16920,7.98
16932,5.19
16943,3.42
16954,2.64
16966,2.75
16978,3.57
16990,4.89
17002,6.46
17014,8.01
17026,9.27
17038,10.05
17050,10.3
17062,9.98
17074,9.18
17086,7.95
17098,6.35
17110,4.49
17122,2.46
17133,0.3
17144,-1.99
17156,-4.48
17168,-7.23
17180,-10.17
17192,-13.13
17204,-15.92
17216,-18.4
17228,-20.68
17240,-23.05
17252,-25.96
17264,-29.72
17276,-34.37
17288,-39.52
17300,-44.31
17312,-47.63
17323,-48.39
17334,-45.85
17346,-39.87
17358,-30.96
17370,-20.19
17382,-8.82
17394,1.96
17406,11.31
17418,18.78
17430,24.25
17442,27.8
17454,29.57
17466,29.66
17478,28.21
17490,25.48
17502,21.89
17513,17.99
17524,14.43
17536,11.71
17548,10.09
17560,9.55
17572,9.83
17584,10.6
17596,11.58
17608,12.61
17620,13.59
17632,14.44
17644,15.0
17656,15.12
17668,14.7
17680,13.73
17692,12.3
17703,10.49
17714,8.33
17726,5.77
17738,2.74
17750,-0.76
17762,-4.6
17774,-8.56
17786,-12.4
17798,-15.92
17810,-19.11
17822,-22.07
17834,-25.07
17846,-28.39
17858,-32.32
17870,-36.93
17882,-42.0
17893,-46.86
17904,-50.51
17916,-51.81
17928,-49.84
17940,-44.29
17952,-35.52
17964,-24.54
17976,-12.64
17988,-1.04
18000,9.32
18012,17.92
18024,24.54
18036,29.16
18048,31.78
18060,32.51
18072,31.52
18083,29.16
18094,25.9
18106,22.27
18118,18.76
18130,15.79
18142,13.62
18154,12.42
18166,12.22
18178,13.0
18190,14.62
18202,16.83
18214,19.23
18226,21.39
18238,22.9
18250,23.49
18262,23.13
18273,21.99
18284,20.34
18296,18.45
18308,16.46
18320,14.31
18332,11.85
18344,8.89
18356,5.38
18368,1.45
18380,-2.61
18392,-6.4
18404,-9.65
18416,-12.24
18428,-14.33
18440,-16.31
18452,-18.67
18463,-21.85
18474,-26.08
18486,-31.2
18498,-36.53
18510,-41.02
18522,-43.43
18534,-42.68
18546,-38.31
18558,-30.59
18570,-20.48
18582,-9.34
18594,1.57
18606,11.33
18618,19.59
18630,26.33
18642,31.61
18653,35.23
18664,36.58
18676,34.81
18688,29.23
18700,19.71
18712,6.87
18724,-8.09
18736,-23.86
18748,-39.53
18760,-54.89
18772,-70.22
18784,-85.85
18796,-101.64
18808,-116.66
18820,-129.39
18832,-138.04
18843,-141.01
18854,-137.11
18866,-125.84
18878,-107.53
18890,-83.53
18902,-56.24
18914,-28.72
18926,-4.04
18938,15.6
18950,29.47
18962,38.35
18974,44.15
18986,49.06
18998,54.95
19010,62.81
19022,72.71
19033,83.81
19044,94.71
19056,103.78
19068,109.56
19080,111.15
19092,108.41
19104,102.05
19116,93.41
19128,84.21
19140,76.24
19152,71.1
19164,69.94
19176,73.15
19188,80.26
19200,89.92
19212,100.24
19223,109.3
19234,115.65
19246,118.54
19258,117.92
19270,114.12
19282,107.5
19294,98.28
19306,86.47
19318,72.15
19330,55.62
19342,37.6
19354,19.1
19366,1.26
19378,-14.99
19390,-29.12
19402,-41.09
19413,-51.26
19424,-60.18
19436,-68.44
19448,-76.59
19460,-85.05
19472,-94.06
19484,-103.5
19496,-112.82
19508,-121.05
19520,-126.9
19532,-129.2
19544,-127.15
19556,-120.6
19568,-109.99
19580,-96.17
19592,-80.09
19603,-62.58
19614,-44.16
19626,-25.11
19638,-5.54
19650,14.45
19662,34.66
19674,54.69
19686,74.07
19698,92.34
19710,109.28
19722,124.95
19734,139.8
19746,154.42
19758,169.37
19770,184.71
19782,199.75
19793,212.95
19804,222.11
19816,224.92
19828,219.74
19840,206.21
19852,185.57
19864,160.34
19876,133.54
19888,107.75
19900,84.41
19912,63.69
19924,44.9
19936,27.21
19948,10.28
19960,-5.52
19972,-19.33
19983,-30.25
19994,-37.92
20006,-42.59
20018,-45.12
20030,-46.49
20042,-47.44
20054,-48.28
20066,-48.87
20078,-48.92
20090,-48.29
20102,-47.12
20114,-45.88
20126,-45.2
20138,-45.66
20150,-47.57
20162,-50.99
20173,-55.68
20184,-61.26
20196,-67.34
20208,-73.59
20220,-79.79
20232,-85.78
20244,-91.45
20256,-96.75
20268,-101.75
20280,-106.58
20292,-111.52
20304,-116.77
20316,-122.3
20328,-127.65
20340,-131.95
20352,-134.07
20363,-133.01
20374,-128.26
20386,-120.06
20398,-109.38
20410,-97.64
20422,-86.29
20434,-76.34
20446,-68.2
20458,-61.67
20470,-56.28
20482,-51.57
20494,-47.34
20506,-43.62
20518,-40.55
20530,-38.12
20542,-36.07
20553,-33.94
20564,-31.24
20576,-27.65
20588,-23.24
20600,-18.38
20612,-13.66
20624,-9.63
20636,-6.66
20648,-4.75
20660,-3.59
20672,-2.72
20684,-1.69
20696,-0.28
20708,1.4
20720,3.02
20732,4.1
20743,4.3
20754,3.52
20766,1.88
20778,-0.23
20790,-2.43
20802,-4.34
20814,-5.71
20826,-6.5
20838,-6.9
20850,-7.3
20862,-8.19
20874,-9.95
20886,-12.56
20898,-15.54
20910,-17.9
20922,-18.47
20933,-16.22
20944,-10.62
20956,-1.77
20968,9.68
20980,22.77
20992,36.41
