seconds,BVP
5,-2.75
17,-8.21
29,-13.62
41,-18.5
53,-22.76
65,-26.65
77,-30.62
89,-35.18
101,-40.71
113,-47.33
125,-54.73
137,-62.06
149,-67.87
161,-70.37
172,-67.88
183,-59.48
195,-45.45
207,-27.27
219,-7.28
231,12.08
243,28.86
255,41.98
267,51.14
279,56.62
291,58.89
303,58.49
315,55.93
327,51.79
339,46.7
351,41.3
362,36.13
373,31.54
385,27.68
397,24.51
409,21.92
421,19.79
433,18.02
445,16.54
457,15.24
469,13.86
481,12.0
493,9.18
505,5.02
517,-0.55
529,-7.22
541,-14.34
552,-21.1
563,-26.87
575,-31.4
587,-34.93
599,-38.06
611,-41.55
623,-45.96
635,-51.45
647,-57.5
659,-62.93
671,-66.07
683,-65.17
695,-58.94
707,-47.09
719,-30.53
731,-11.25
742,8.31
753,25.92
765,40.14
777,50.43
789,57.01
801,60.37
813,61.0
825,59.22
837,55.36
849,49.9
861,43.51
873,36.96
885,30.83
897,25.4
909,20.58
921,16.16
932,12.01
943,8.26
955,5.21
967,3.2
979,2.28
991,2.17
1003,2.33
1015,2.14
1027,1.23
1039,-0.43
1051,-2.56
1063,-4.77
1075,-6.77
1087,-8.54
1099,-10.36
1111,-12.66
1122,-15.93
1133,-20.48
1145,-26.29
1157,-32.88
1169,-39.25
1181,-43.99
1193,-45.62
1205,-42.98
1217,-35.64
1229,-24.21
1241,-10.14
1253,4.61
1265,18.12
1277,29.0
1289,36.55
1301,40.69
1312,41.77
1323,40.28
1335,36.79
1347,31.91
1359,26.36
1371,20.87
1383,16.1
1395,12.46
1407,9.98
1419,8.42
1431,7.34
1443,6.42
1455,5.52
1467,4.7
1479,4.08
1491,3.77
1502,3.68
1513,3.63
1525,3.35
1537,2.64
1549,1.43
1561,-0.26
1573,-2.42
1585,-5.04
1597,-8.25
1609,-12.27
1621,-17.36
1633,-23.69
1645,-31.25
1657,-39.63
1669,-47.94
1681,-54.82
1692,-58.64
1703,-57.98
1715,-52.11
1727,-41.26
1739,-26.71
1751,-10.44
1763,5.39
1775,19.06
1787,29.58
1799,36.67
1811,40.6
1823,41.84
1835,40.87
1847,38.15
1859,34.16
1871,29.51
1882,24.78
1893,20.49
1905,16.93
1917,14.16
1929,12.01
1941,10.27
1953,8.75
1965,7.36
1977,6.02
1989,4.63
2001,3.01
2013,0.89
2025,-1.91
2037,-5.47
2049,-9.66
2061,-14.21
2072,-18.87
2083,-23.45
2095,-28.0
2107,-32.68
2119,-37.76
2131,-43.37
2143,-49.45
2155,-55.57
2167,-60.96
2179,-64.5
2191,-64.92
2203,-61.13
2215,-52.64
2227,-39.79
2239,-23.86
2251,-6.74
2262,9.55
2273,23.43
2285,34.1
2297,41.53
2309,46.18
2321,48.68
2333,49.47
2345,48.79
2357,46.75
2369,43.47
2381,39.23
2393,34.41
2405,29.47
2417,24.78
2429,20.57
2441,16.87
2452,13.55
2463,10.39
2475,7.12
2487,3.57
2499,-0.39
2511,-4.76
2523,-9.5
2535,-14.5
2547,-19.65
2559,-24.84
2571,-30.01
2583,-35.15
2595,-40.37
2607,-45.88
2619,-51.94
2631,-58.66
2642,-65.79
2653,-72.62
2665,-77.85
2677,-79.95
2689,-77.52
2701,-69.84
2713,-57.23
2725,-41.04
2737,-23.37
2749,-6.45
2761,7.85
2773,18.44
2785,25.09
2797,28.2
2809,28.55
2821,27.04
2832,24.51
2843,21.72
2855,19.25
2867,17.53
2879,16.72
2891,16.76
2903,17.43
2915,18.48
2927,19.74
2939,21.11
2951,22.52
2963,23.81
2975,24.71
2987,24.91
2999,24.21
3011,22.62
3022,20.33
3033,17.68
3045,14.94
3057,12.24
3069,9.52
3081,6.56
3093,3.03
3105,-1.41
3117,-7.05
3129,-13.94
3141,-21.7
3153,-29.37
3165,-35.52
3177,-38.52
3189,-37.04
3201,-30.48
3212,-19.26
3223,-4.69
3235,11.34
3247,26.9
3259,40.45
3271,51.0
3283,58.12
3295,61.77
3307,62.16
3319,59.64
3331,54.76
3343,48.25
3355,40.97
3367,33.79
3379,27.42
3391,22.33
3402,18.65
3413,16.27
3425,14.94
3437,14.38
3449,14.35
3461,14.59
3473,14.87
3485,14.91
3497,14.41
3509,13.14
3521,11.04
3533,8.23
3545,5.05
3557,1.88
3569,-0.99
3581,-3.52
3592,-6.0
3603,-8.97
3615,-12.93
3627,-18.11
3639,-24.13
3651,-29.91
3663,-33.85
3675,-34.23
3687,-29.71
3699,-19.8
3711,-5.1
3723,12.89
3735,32.15
3747,50.66
3759,66.87
3771,79.92
3782,89.58
3793,96.1
3805,99.95
3817,101.68
3829,101.83
3841,100.91
3853,99.47
3865,98.06
3877,97.14
3889,97.02
3901,97.77
3913,99.27
3925,101.36
3937,103.94
3949,107.18
3961,111.41
3972,116.98
3983,124.03
3995,132.31
4007,141.22
4019,150.0
4031,158.05
4043,165.23
4055,171.92
4067,178.94
4079,187.16
4091,197.05
4103,208.22
4115,219.2
4127,227.58
4139,230.58
4151,225.78
4162,211.82
4173,188.89
4185,158.76
4197,124.48
4209,89.71
4221,57.81
4233,31.02
4245,9.72
4257,-7.65
4269,-24.03
4281,-42.7
4293,-65.96
4305,-94.18
4317,-125.72
4329,-157.53
4341,-186.43
4352,-210.16
4363,-227.95
4375,-240.32
4387,-248.41
4399,-253.29
4411,-255.6
4423,-255.42
4435,-252.41
4447,-245.94
4459,-235.28
4471,-219.75
4483,-199.08
4495,-173.74
4507,-145.14
4519,-115.49
4531,-87.32
4542,-62.86
4553,-43.53
4565,-29.92
4577,-22.03
4589,-19.76
4601,-23.14
4613,-32.34
4625,-47.32
4637,-67.53
4649,-91.76
4661,-118.22
4673,-144.88
4685,-169.79
4697,-191.35
4709,-208.52
4721,-220.87
4732,-228.59
4743,-232.22
4755,-232.3
4767,-228.9
4779,-221.41
4791,-208.78
4803,-190.2
4815,-165.83
4827,-137.22
4839,-107.01
4851,-78.01
4863,-52.07
4875,-29.53
4887,-9.39
4899,9.8
4911,28.95
4922,47.95
4933,65.84
4945,81.51
4957,94.35
4969,104.43
4981,112.16
4993,117.78
5005,121.16
5017,121.82
5029,119.44
5041,114.24
5053,107.12
5065,99.36
5077,92.14
5089,86.1
5101,81.29
5112,77.33
5123,73.78
5135,70.42
5147,67.39
5159,65.09
5171,63.85
5183,63.63
5195,63.78
5207,63.05
5219,59.82
5231,52.56
5243,40.27
5255,22.87
5267,1.32
5279,-22.58
5291,-46.61
5302,-68.65
5313,-87.26
5325,-102.04
5337,-113.73
5349,-123.86
5361,-134.18
5373,-145.9
5385,-159.18
5397,-172.88
5409,-184.74
5421,-192.04
5433,-192.26
5445,-183.99
5457,-167.41
5469,-144.45
5481,-118.34
5492,-92.64
5503,-70.18
5515,-52.31
5527,-38.84
5539,-28.73
5551,-20.97
5563,-15.32
5575,-12.32
5587,-12.76
5599,-17.05
5611,-24.87
5623,-35.25
5635,-47.04
5647,-59.18
5659,-70.74
5671,-80.77
5682,-88.21
5693,-92.13
5705,-92.11
5717,-88.53
5729,-82.55
5741,-75.76
5753,-69.63
5765,-65.26
5777,-63.14
5789,-63.24
5801,-65.0
5813,-67.24
5825,-68.17
5837,-65.66
5849,-57.73
5861,-43.25
5872,-22.39
5883,3.35
5895,31.65
5907,60.1
5919,86.75
5931,110.35
5943,130.2
5955,145.75
5967,156.49
5979,161.99
5991,162.24
6003,157.82
6015,149.92
6027,140.05
6039,129.61
6051,119.55
6062,110.23
6073,101.5
6085,92.89
6097,83.85
6109,73.97
6121,63.41
6133,53.07
6145,44.64
6157,40.35
6169,42.29
6181,51.63
6193,68.09
6205,89.84
6217,114.0
6229,137.47
6241,157.74
6252,173.43
6263,184.31
6275,191.03
6287,194.73
6299,196.59
6311,197.54
6323,197.96
6335,197.69
6347,196.04
6359,192.21
6371,185.64
6383,176.39
6395,165.28
6407,153.58
6419,142.64
6431,133.31
6442,125.68
6453,119.07
6465,112.32
6477,104.23
6489,93.88
6501,80.7
6513,64.43
6525,44.84
6537,21.55
6549,-5.91
6561,-37.87
6573,-74.07
6585,-113.3
6597,-153.37
6609,-191.51
6621,-225.0
6632,-251.92
6643,-271.47
6655,-283.99
6667,-290.43
6679,-291.9
6691,-289.27
6703,-283.12
6715,-273.88
6727,-261.86
6739,-247.19
6751,-229.57
6763,-208.3
6775,-182.6
6787,-152.33
6799,-118.54
6811,-83.64
6822,-50.84
6833,-23.16
6845,-2.42
6857,11.22
6869,18.98
6881,22.6
6893,23.43
6905,22.0
6917,18.2
6929,11.89
6941,3.41
6953,-6.22
6965,-15.65
6977,-23.75
6989,-30.05
7001,-34.85
7012,-38.96
7023,-43.27
7035,-48.48
7047,-55.15
7059,-63.81
7071,-75.17
7083,-89.83
7095,-107.72
7107,-127.52
7119,-146.36
7131,-160.23
7143,-165.05
7155,-158.05
7167,-138.78
7179,-109.29
7191,-73.4
7202,-35.44
7213,1.14
7225,34.38
7237,63.82
7249,89.87
7261,113.12
7273,133.88
7285,152.17
7297,167.88
7309,180.9
7321,191.15
7333,198.45
7345,202.62
7357,203.48
7369,201.2
7381,196.31
7392,189.67
7403,182.11
7415,174.2
7427,166.12
7439,157.79
7451,149.16
7463,140.4
7475,131.94
7487,124.34
7499,118.0
7511,112.97
7523,108.95
7535,105.35
7547,101.41
7559,96.39
7571,89.66
7582,80.75
7593,69.43
7605,55.82
7617,40.41
7629,24.12
7641,8.21
7653,-5.96
7665,-17.18
7677,-24.76
7689,-28.65
7701,-29.41
7713,-27.98
7725,-25.31
7737,-22.18
7749,-19.1
7761,-16.42
7772,-14.36
7783,-13.1
7795,-12.66
7807,-12.82
7819,-13.15
7831,-13.18
7843,-12.6
7855,-11.37
7867,-9.74
7879,-8.05
7891,-6.56
7903,-5.3
7915,-4.13
7927,-2.89
7939,-1.46
7951,0.1
7962,1.59
7973,2.79
7985,3.52
7997,3.68
8009,3.27
8021,2.32
8033,0.9
8045,-0.9
8057,-2.92
8069,-5.0
8081,-7.0
8093,-8.81
8105,-10.46
8117,-12.04
8129,-13.71
8141,-15.66
8152,-17.96
8163,-20.55
8175,-23.16
8187,-25.35
8199,-26.57
8211,-26.33
8223,-24.32
8235,-20.54
8247,-15.28
8259,-9.06
8271,-2.51
8283,3.75
8295,9.25
8307,13.69
8319,16.96
8331,19.13
8342,20.32
8353,20.7
8365,20.42
8377,19.65
8389,18.6
8401,17.53
8413,16.69
8425,16.21
8437,16.1
8449,16.2
8461,16.29
8473,16.23
8485,16.04
8497,15.88
8509,15.92
8521,16.18
8532,16.43
8543,16.22
8555,15.13
8567,12.84
8579,9.37
8591,5.03
8603,0.28
8615,-4.4
8627,-8.65
8639,-12.38
8651,-15.66
8663,-18.72
8675,-21.74
8687,-24.78
8699,-27.64
8711,-29.95
8722,-31.23
8733,-31.11
8745,-29.5
8757,-26.61
8769,-22.96
8781,-19.15
8793,-15.73
8805,-12.94
8817,-10.59
8829,-7.94
8841,-3.76
8853,3.3
8865,14.15
8877,28.6
8889,45.03
8901,60.62
8912,72.21
8923,77.34
8935,75.21
8947,66.83
8959,54.51
8971,40.96
8983,28.36
8995,17.97
9007,10.15
9019,4.72
9031,1.29
9043,-0.55
9055,-1.27
9067,-1.49
9079,-1.89
9091,-3.07
9102,-5.38
9113,-8.78
9125,-12.88
9137,-17.07
9149,-20.68
9161,-23.22
9173,-24.53
9185,-24.77
9197,-24.45
9209,-24.16
9221,-24.45
9233,-25.65
9245,-27.79
9257,-30.68
9269,-34.04
9281,-37.6
9292,-41.25
9303,-44.96
9315,-48.72
9327,-52.41
9339,-55.73
9351,-58.23
9363,-59.5
9375,-59.24
9387,-57.48
9399,-54.53
9411,-50.85
9423,-46.9
9435,-42.96
9447,-39.07
9459,-35.08
9471,-30.88
9482,-26.41
9493,-21.83
9505,-17.34
9517,-13.14
9529,-9.31
9541,-5.84
9553,-2.7
9565,0.08
9577,2.39
9589,4.07
9601,5.11
9613,5.65
9625,5.98
9637,6.41
9649,7.16
9661,8.25
9672,9.52
9683,10.71
9695,11.58
9707,11.96
9719,11.77
9731,11.01
9743,9.78
9755,8.22
9767,6.59
9779,5.12
9791,3.93
9803,2.96
9815,1.94
9827,0.56
9839,-1.38
9851,-3.78
9862,-6.22
9873,-8.1
9885,-8.8
9897,-8.02
9909,-5.76
9921,-2.39
9933,1.57
9945,5.66
9957,9.59
9969,13.3
9981,16.93
9993,20.61
10005,24.41
10017,28.23
10029,31.78
10041,34.74
10052,36.91
10063,38.38
10075,39.53
10087,41.02
10099,43.48
10111,47.28
10123,52.33
10135,58.01
10147,63.35
10159,67.28
10171,68.94
10183,68.0
10195,64.96
10207,61.12
10219,58.43
10231,58.81
10242,63.22
10253,70.9
10265,79.05
10277,83.54
10289,80.14
10301,66.0
10313,40.48
10325,5.22
10337,-36.69
10349,-81.68
10361,-126.4
10373,-168.1
10385,-204.6
10397,-234.23
10409,-255.97
10421,-269.58
10432,-275.63
10443,-275.24
10455,-269.63
10467,-259.77
10479,-246.26
10491,-229.6
10503,-210.53
10515,-190.17
10527,-169.82
10539,-150.57
10551,-132.86
10563,-116.28
10575,-99.74
10587,-81.97
10599,-62.02
10611,-39.82
10622,-16.27
10633,7.06
10645,28.39
10657,46.35
10669,60.32
10681,70.54
10693,77.77
10705,82.92
10717,86.64
10729,89.04
10741,89.62
10753,87.38
10765,81.21
10777,70.28
10789,54.4
10801,34.24
10812,11.28
10823,-12.49
10835,-35.1
10847,-55.06
10859,-71.73
10871,-85.21
10883,-96.14
10895,-105.15
10907,-112.53
10919,-117.99
10931,-120.76
10943,-119.84
10955,-114.38
10967,-104.02
10979,-89.07
10991,-70.54
11002,-49.92
11013,-28.94
11025,-9.23
11037,7.94
11049,21.76
11061,31.93
11073,38.61
11085,42.27
11097,43.65
11109,43.53
11121,42.7
11133,41.69
11145,40.74
11157,39.81
11169,38.7
11181,37.25
11192,35.42
11203,33.39
11215,31.4
11227,29.61
11239,27.94
11251,26.07
11263,23.52
11275,19.93
11287,15.18
11299,9.49
11311,3.26
11323,-3.07
11335,-9.29
11347,-15.48
11359,-22.02
11371,-29.49
11382,-38.34
11393,-48.63
11405,-59.78
11417,-70.37
11429,-78.33
11441,-81.38
11453,-77.69
11465,-66.52
11477,-48.64
11489,-26.16
11501,-1.98
11513,20.99
11525,40.56
11537,55.6
11549,65.96
11561,72.09
11572,74.64
11583,74.19
11595,71.21
11607,66.15
11619,59.63
11631,52.41
11643,45.37
11655,39.29
11667,34.7
11679,31.74
11691,30.21
11703,29.67
11715,29.63
11727,29.66
11739,29.45
11751,28.7
11762,27.13
11773,24.41
11785,20.3
11797,14.72
11809,7.82
11821,-0.02
11833,-8.47
11845,-17.31
11857,-26.55
11869,-36.21
11881,-45.9
11893,-54.55
11905,-60.39
11917,-61.31
11929,-55.59
11941,-42.6
11952,-23.22
11963,0.34
11975,25.19
11987,48.58
11999,68.58
12011,84.31
12023,95.77
12035,103.39
12047,107.58
12059,108.55
12071,106.36
12083,101.06
12095,92.98
12107,82.68
12119,70.96
12131,58.65
12142,46.56
12153,35.31
12165,25.39
12177,17.1
12189,10.63
12201,6.04
12213,3.28
12225,2.25
12237,2.75
12249,4.52
12261,7.14
12273,10.04
12285,12.5
12297,13.73
12309,12.89
12321,9.31
12332,2.62
12343,-7.01
12355,-18.7
12367,-30.74
12379,-40.79
12391,-46.3
12403,-45.21
12415,-36.64
12427,-21.19
12439,-0.88
12451,21.5
12463,43.12
12475,61.79
12487,76.33
12499,86.44
12511,92.4
12522,94.7
12533,93.79
12545,90.12
12557,84.21
12569,76.7
12581,68.4
12593,60.12
12605,52.56
12617,46.17
12629,41.09
12641,37.23
12653,34.33
12665,32.03
12677,29.98
12689,27.83
12701,25.34
12712,22.32
12723,18.7
12735,14.53
12747,9.88
12759,4.84
12771,-0.6
12783,-6.6
12795,-13.47
12807,-21.58
12819,-31.1
12831,-41.82
12843,-52.74
12855,-62.15
12867,-67.8
12879,-67.51
12891,-59.83
12902,-44.7
12913,-23.54
12925,1.0
12937,25.77
12949,47.95
12961,65.64
12973,78.09
12985,85.55
12997,88.81
13009,88.83
13021,86.43
13033,82.18
13045,76.58
13057,70.07
13069,63.22
13081,56.62
13092,50.78
13103,46.03
13115,42.4
13127,39.69
13139,37.58
13151,35.71
13163,33.8
13175,31.6
13187,28.93
13199,25.59
13211,21.47
13223,16.56
13235,10.99
13247,4.97
13259,-1.29
13271,-7.77
13282,-14.69
13293,-22.42
13305,-31.35
13317,-41.54
13329,-52.35
13341,-62.38
13353,-69.56
13365,-71.72
13377,-67.31
13389,-55.96
13401,-38.73
13413,-17.87
13425,3.88
13437,23.99
13449,40.65
13461,53.04
13472,61.04
13483,65.05
13495,65.58
13507,63.28
13519,58.86
13531,53.18
13543,47.12
13555,41.44
13567,36.62
13579,32.73
13591,29.58
13603,26.91
13615,24.57
13627,22.64
13639,21.27
13651,20.51
13662,20.16
13673,19.74
13685,18.65
13697,16.44
13709,12.96
13721,8.43
13733,3.33
13745,-1.85
13757,-6.78
13769,-11.41
13781,-15.97
13793,-20.9
13805,-26.71
13817,-33.77
13829,-42.11
13841,-51.17
13852,-59.76
13863,-66.11
13875,-68.33
13887,-64.98
13899,-55.62
13911,-41.06
13923,-23.19
13935,-4.47
13947,12.88
13959,27.32
13971,38.23
13983,45.7
13995,50.14
14007,51.94
14019,51.34
14031,48.58
14042,44.02
14053,38.34
14065,32.42
14077,27.14
14089,23.13
14101,20.58
14113,19.22
14125,18.53
14137,17.96
14149,17.18
14161,16.13
14173,14.92
14185,13.66
14197,12.33
14209,10.71
14221,8.43
14232,5.19
14243,0.89
14255,-4.27
14267,-9.87
14279,-15.38
14291,-20.33
14303,-24.53
14315,-28.09
14327,-31.45
14339,-35.21
14351,-39.99
14363,-46.14
14375,-53.61
14387,-61.73
14399,-69.22
14411,-74.42
14422,-75.65
14433,-71.7
14445,-62.28
14457,-48.18
14469,-31.09
14481,-13.14
14493,3.65
14505,17.85
14517,28.76
14529,36.33
14541,40.88
14553,42.88
14565,42.76
14577,40.95
14589,37.86
14601,33.99
14612,29.88
14623,26.01
14635,22.77
14647,20.39
14659,18.9
14671,18.19
14683,18.05
14695,18.2
14707,18.39
14719,18.41
14731,18.14
14743,17.47
14755,16.29
14767,14.49
14779,11.99
14791,8.81
14802,5.12
14813,1.21
14825,-2.65
14837,-6.32
14849,-9.9
14861,-13.62
14873,-17.68
14885,-22.06
14897,-26.54
14909,-30.74
14921,-34.39
14933,-37.47
14945,-40.3
14957,-43.38
14969,-47.28
14981,-52.34
14992,-58.48
15003,-65.05
15015,-70.85
15027,-74.29
15039,-73.81
15051,-68.37
15063,-57.89
15075,-43.31
15087,-26.4
15099,-9.24
15111,6.33
15123,19.14
15135,28.81
15147,35.45
15159,39.47
15171,41.29
15182,41.21
15193,39.53
15205,36.66
15217,33.11
15229,29.51
15241,26.41
15253,24.15
15265,22.78
15277,22.11
15289,21.86
15301,21.81
15313,21.88
15325,22.09
15337,22.49
15349,23.01
15361,23.42
15372,23.36
15383,22.54
15395,20.84
15407,18.41
15419,15.6
15431,12.82
15443,10.34
15455,8.19
15467,6.14
15479,3.89
15491,1.2
15503,-1.97
15515,-5.41
15527,-8.79
15539,-11.81
15551,-14.35
15562,-16.51
15573,-18.57
15585,-20.88
15597,-23.68
15609,-27.02
15621,-30.69
15633,-34.34
15645,-37.59
15657,-40.25
15669,-42.39
15681,-44.38
15693,-46.74
15705,-49.99
15717,-54.51
15729,-60.3
15741,-66.85
15752,-73.12
15763,-77.61
15775,-78.67
15787,-74.97
15799,-65.96
15811,-52.2
15823,-35.22
15835,-17.17
15847,-0.18
15859,14.15
15871,25.05
15883,32.47
15895,36.81
15907,38.66
15919,38.55
15931,36.96
15942,34.39
15953,31.35
15965,28.37
15977,25.91
15989,24.23
16001,23.34
16013,23.07
16025,23.19
16037,23.46
16049,23.81
16061,24.21
16073,24.66
16085,25.13
16097,25.45
16109,25.44
16121,24.88
16132,23.59
16143,21.49
16155,18.61
16167,15.1
16179,11.19
16191,7.17
16203,3.31
16215,-0.21
16227,-3.31
16239,-6.09
16251,-8.76
16263,-11.55
16275,-14.62
16287,-17.98
16299,-21.51
16311,-24.95
16322,-28.06
16333,-30.69
16345,-32.88
16357,-34.82
16369,-36.85
16381,-39.35
16393,-42.65
16405,-46.98
16417,-52.38
16429,-58.52
16441,-64.64
16453,-69.47
16465,-71.49
16477,-69.28
16489,-62.06
16501,-50.0
16512,-34.32
16523,-16.97
16535,-0.02
16547,14.85
16559,26.72
16571,35.41
16583,41.19
16595,44.48
16607,45.66
16619,44.99
16631,42.81
16643,39.59
16655,35.97
16667,32.66
16679,30.15
16691,28.71
16702,28.27
16713,28.55
16725,29.22
16737,30.0
16749,30.75
16761,31.4
16773,31.97
16785,32.41
16797,32.62
16809,32.44
16821,31.69
16833,30.18
16845,27.88
16857,24.88
16869,21.43
16881,17.82
16892,14.29
16903,10.91
16915,7.56
16927,4.03
16939,0.15
16951,-4.12
16963,-8.62
16975,-13.06
16987,-17.14
16999,-20.66
17011,-23.6
17023,-26.16
17035,-28.66
17047,-31.5
17059,-35.06
17071,-39.57
17082,-45.02
17093,-51.05
17105,-56.89
17117,-61.37
17129,-63.18
17141,-61.19
17153,-54.87
17165,-44.54
17177,-31.37
17189,-17.05
17201,-3.3
17213,8.56
17225,17.82
17237,24.39
17249,28.46
17261,30.31
17272,30.21
17283,28.42
17295,25.31
17307,21.41
17319,17.31
17331,13.54
17343,10.47
17355,8.22
17367,6.74
17379,5.87
17391,5.44
17403,5.33
17415,5.48
17427,5.79
17439,6.14
17451,6.3
17462,5.99
17473,4.97
17485,3.11
17497,0.51
17509,-2.54
17521,-5.67
17533,-8.55
17545,-11.08
17557,-13.38
17569,-15.73
17581,-18.39
17593,-21.44
17605,-24.78
17617,-28.19
17629,-31.48
17641,-34.57
17652,-37.55
17663,-40.65
17675,-44.14
17687,-48.33
17699,-53.39
17711,-59.27
17723,-65.48
17735,-71.0
17747,-74.36
17759,-74.06
17771,-69.09
17783,-59.39
17795,-45.98
17807,-30.7
17819,-15.65
17831,-2.56
17842,7.59
17853,14.59
17865,18.83
17877,21.0
17889,21.93
17901,22.43
17913,23.21
17925,24.75
17937,27.23
17949,30.53
17961,34.32
17973,38.24
17985,42.07
17997,45.72
18009,49.19
18021,52.45
18032,55.32
18043,57.51
18055,58.7
18067,58.67
18079,57.34
18091,54.78
18103,51.18
18115,46.84
18127,42.11
18139,37.33
18151,32.7
18163,28.17
18175,23.4
18187,17.84
18199,11.04
18211,2.81
18222,-6.57
18233,-16.46
18245,-26.15
18257,-35.14
18269,-43.38
18281,-51.27
18293,-59.35
18305,-67.88
18317,-76.57
18329,-84.36
18341,-89.69
18353,-90.87
18365,-86.64
18377,-76.64
18389,-61.58
18401,-43.07
18412,-23.24
18423,-4.21
18435,12.35
18447,25.4
18459,34.5
18471,39.67
18483,41.21
18495,39.64
18507,35.71
18519,30.42
18531,24.86
18543,20.04
18555,16.7
18567,15.12
18579,15.2
18591,16.53
18602,18.61
18613,20.91
18625,22.98
18637,24.46
18649,25.13
18661,24.92
18673,23.94
18685,22.37
18697,20.34
18709,17.81
18721,14.58
18733,10.43
18745,5.31
18757,-0.52
18769,-6.57
18781,-12.31
18792,-17.4
18803,-21.89
18815,-26.13
18827,-30.65
18839,-35.92
18851,-42.19
18863,-49.47
18875,-57.42
18887,-65.35
18899,-72.14
18911,-76.32
18923,-76.32
18935,-70.97
18947,-59.94
18959,-44.04
18971,-25.08
18982,-5.42
18993,12.74
19005,27.85
19017,39.27
19029,47.1
19041,51.78
19053,53.8
19065,53.5
19077,51.17
19089,47.23
19101,42.27
19113,37.09
19125,32.42
19137,28.82
19149,26.46
19161,25.19
19172,24.64
19183,24.43
19195,24.29
19207,24.16
19219,24.09
19231,24.09
19243,24.01
19255,23.45
19267,21.9
19279,18.92
19291,14.38
19303,8.57
19315,2.15
19327,-4.14
19339,-9.75
19351,-14.56
19362,-18.87
19373,-23.22
19385,-28.16
19397,-34.1
19409,-41.13
19421,-48.99
19433,-56.97
19445,-63.92
19457,-68.31
19469,-68.56
19481,-63.52
19493,-52.91
19505,-37.57
19517,-19.26
19529,-0.24
19541,17.41
19552,32.28
19563,43.7
19575,51.6
19587,56.18
19599,57.69
19611,56.38
19623,52.65
19635,47.15
19647,40.79
19659,34.53
19671,29.18
19683,25.14
19695,22.33
19707,20.41
19719,18.95
19731,17.73
19742,16.76
19753,16.13
19765,15.88
19777,15.75
19789,15.26
19801,13.82
19813,11.01
19825,6.74
19837,1.33
19849,-4.65
19861,-10.6
19873,-16.1
19885,-21.06
19897,-25.7
19909,-30.47
19921,-35.86
19932,-42.23
19943,-49.57
19955,-57.34
19967,-64.44
19979,-69.3
19991,-70.33
20003,-66.38
20015,-57.13
20027,-43.31
20039,-26.55
20051,-8.88
20063,7.7
20075,21.75
20087,32.49
20099,39.79
20111,43.85
20122,45.06
20133,43.78
20145,40.44
20157,35.53
20169,29.68
20181,23.63
20193,18.07
20205,13.54
20217,10.33
20229,8.5
20241,7.97
20253,8.61
20265,10.28
20277,12.75
20289,15.59
20301,18.18
20312,19.81
20323,19.89
20335,18.17
20347,14.81
20359,10.29
20371,5.26
20383,0.21
20395,-4.64
20407,-9.36
20419,-14.22
20431,-19.56
20443,-25.65
20455,-32.51
20467,-39.76
20479,-46.56
20491,-51.6
20502,-53.38
20513,-50.65
20525,-42.89
20537,-30.54
20549,-14.99
20561,1.91
20573,18.28
20585,32.72
20597,44.49
20609,53.35
20621,59.33
20633,62.55
20645,63.16
20657,61.37
20669,57.6
20681,52.47
20692,46.74
20703,41.17
20715,36.34
20727,32.58
20739,29.95
20751,28.32
20763,27.43
20775,26.97
20787,26.56
20799,25.82
20811,24.39
20823,22.0
20835,18.5
20847,13.92
20859,8.45
20871,2.41
20882,-3.9
20893,-10.19
20905,-16.37
20917,-22.56
20929,-29.05
20941,-36.17
20953,-44.02
20965,-52.2
20977,-59.63
20989,-64.7
