seconds,BVP
1,-14.66
13,-16.61
25,-19.52
36,-23.33
47,-27.6
59,-31.53
71,-34.08
83,-34.25
95,-31.36
107,-25.29
119,-16.59
131,-6.34
143,4.09
155,13.36
167,20.44
179,24.84
191,26.63
203,26.36
215,24.85
226,22.93
237,21.19
249,19.99
261,19.4
273,19.38
285,19.82
297,20.65
309,21.74
321,22.95
333,24.1
345,25.06
357,25.84
369,26.64
381,27.78
393,29.56
405,32.05
416,35.01
427,37.86
439,39.85
451,40.39
463,39.22
475,36.54
487,33.02
499,29.45
511,26.44
523,24.1
535,22.02
547,19.37
559,15.39
571,9.73
583,2.65
595,-4.94
606,-11.84
617,-16.94
629,-19.59
641,-19.69
653,-17.62
665,-14.08
677,-9.83
689,-5.52
701,-1.66
713,1.41
725,3.54
737,4.84
749,5.6
761,6.3
773,7.35
785,8.89
796,10.72
807,12.35
819,13.2
831,12.84
843,11.16
855,8.37
867,4.93
879,1.39
891,-1.75
903,-4.09
915,-5.42
927,-5.86
939,-5.79
951,-5.82
963,-6.54
975,-8.27
986,-10.82
997,-13.52
1009,-15.43
1021,-15.76
1033,-14.23
1045,-11.29
1057,-7.89
1069,-5.19
1081,-4.04
1093,-4.67
1105,-6.63
1117,-9.04
1129,-11.01
1141,-11.91
1153,-11.52
1165,-9.93
1176,-7.44
1187,-4.3
1199,-0.78
1211,2.82
1223,6.18
1235,8.94
1247,10.9
1259,12.12
1271,12.86
1283,13.58
1295,14.76
1307,16.63
1319,19.13
1331,21.79
1343,23.79
1355,24.25
1366,22.5
1377,18.51
1389,12.96
1401,7.18
1413,2.66
1425,0.53
1437,1.14
1449,4.03
1461,8.19
1473,12.53
1485,16.25
1497,18.98
1509,20.68
1521,21.52
1533,21.72
1545,21.59
1556,21.54
1567,22.02
1579,23.43
1591,25.84
1603,28.93
1615,31.96
1627,34.01
1639,34.24
1651,32.24
1663,28.12
1675,22.47
1687,16.08
1699,9.71
1711,3.78
1723,-1.65
1735,-6.71
1746,-11.54
1757,-16.02
1769,-19.75
1781,-22.21
1793,-22.89
1805,-21.6
1817,-18.49
1829,-14.02
1841,-8.8
1853,-3.45
1865,1.54
1877,5.8
1889,9.14
1901,11.48
1913,12.85
1925,13.35
1936,13.14
1947,12.36
1959,11.14
1971,9.62
1983,7.91
1995,6.17
2007,4.55
2019,3.16
2031,2.1
2043,1.42
2055,1.11
2067,1.1
2079,1.3
2091,1.48
2103,1.44
2115,0.9
2126,-0.28
2137,-2.11
2149,-4.39
2161,-6.78
2173,-8.88
2185,-10.42
2197,-11.34
2209,-11.77
2221,-12.04
2233,-12.47
2245,-13.28
2257,-14.5
2269,-15.96
2281,-17.36
2293,-18.45
2305,-19.12
2316,-19.53
2327,-20.03
2339,-21.04
2351,-22.85
2363,-25.38
2375,-28.15
2387,-30.32
2399,-30.94
2411,-29.3
2423,-25.17
2435,-18.93
2447,-11.4
2459,-3.49
2471,4.12
2483,11.3
2495,18.33
2506,25.58
2517,33.13
2529,40.53
2541,46.9
2553,51.4
2565,53.76
2577,54.58
2589,55.28
2601,57.48
2613,62.26
2625,69.61
2637,78.37
2649,86.74
2661,93.07
2673,96.63
2685,97.72
2696,97.3
2707,96.13
2719,93.96
2731,89.37
2743,80.18
2755,64.34
2767,40.76
2779,9.53
2791,-28.38
2803,-71.25
2815,-116.62
2827,-161.03
2839,-200.11
2851,-229.84
2863,-248.58
2875,-258.87
2886,-267.28
2897,-282.03
2909,-309.02
2921,-348.39
2933,-393.73
2945,-434.45
2957,-460.12
2969,-464.57
2981,-447.9
2993,-415.42
3005,-374.86
3017,-333.08
3029,-293.97
3041,-258.05
3053,-223.44
3065,-187.43
3076,-147.97
3087,-104.44
3099,-57.62
3111,-8.89
3123,40.67
3135,90.55
3147,140.39
3159,188.92
3171,233.05
3183,268.43
3195,291.08
3207,299.26
3219,294.64
3231,281.72
3243,265.72
3255,250.24
3266,235.97
3277,221.12
3289,203.19
3301,181.11
3313,156.31
3325,132.33
3337,113.23
3349,101.77
3361,98.24
3373,100.53
3385,105.09
3397,108.37
3409,108.02
3421,103.33
3433,94.96
3445,84.26
3456,72.55
3467,60.6
3479,48.69
3491,36.78
3503,24.91
3515,13.29
3527,2.34
3539,-7.44
3551,-15.66
3563,-21.98
3575,-26.09
3587,-27.75
3599,-26.87
3611,-23.66
3623,-18.71
3635,-12.96
3646,-7.37
3657,-2.64
3669,0.94
3681,3.44
3693,4.99
3705,5.71
3717,5.73
3729,5.11
3741,3.71
3753,0.87
3765,-4.64
3777,-14.13
3789,-28.0
3801,-44.84
3813,-61.13
3825,-72.31
3836,-74.58
3847,-66.64
3859,-50.24
3871,-29.17
3883,-7.24
3895,13.41
3907,32.89
3919,52.47
3931,73.0
3943,93.75
3955,112.66
3967,127.41
3979,136.7
3991,140.67
4003,140.38
4015,136.95
4026,130.95
4037,122.43
4049,111.6
4061,99.39
4073,87.45
4085,77.59
4097,71.04
4109,67.85
4121,67.2
4133,67.95
4145,69.34
4157,71.22
4169,73.78
4181,76.97
4193,80.12
4205,82.0
4216,81.29
4227,77.28
4239,70.28
4251,61.64
4263,53.36
4275,47.35
4287,44.88
4299,46.27
4311,50.57
4323,55.48
4335,57.38
4347,51.98
4359,36.01
4371,9.24
4383,-23.94
4395,-54.89
4406,-73.46
4417,-72.29
4429,-50.55
4441,-15.0
4453,22.35
4465,49.15
4477,57.6
4489,46.85
4501,22.08
4513,-8.87
4525,-39.2
4537,-65.05
4549,-85.29
4561,-99.93
4573,-108.6
4585,-110.38
4596,-104.61
4607,-92.05
4619,-75.31
4631,-58.15
4643,-43.96
4655,-34.53
4667,-29.47
4679,-26.84
4691,-24.41
4703,-20.83
4715,-16.25
4727,-12.05
4739,-9.98
4751,-11.22
4763,-15.78
4775,-22.46
4786,-29.38
4797,-34.63
4809,-36.98
4821,-36.13
4833,-32.69
4845,-27.86
4857,-22.79
4869,-18.23
4881,-14.28
4893,-10.61
4905,-6.8
4917,-2.75
4929,1.22
4941,4.65
4953,7.28
4965,9.36
4976,11.6
4987,14.67
4999,18.77
5011,23.36
5023,27.48
5035,30.27
5047,31.55
5059,31.86
5071,32.11
5083,33.16
5095,35.46
5107,39.17
5119,44.45
5131,51.48
5143,60.18
5155,69.73
5166,78.21
5177,83.06
5189,81.94
5201,73.92
5213,59.97
5225,42.68
5237,25.14
5249,9.8
5261,-2.23
5273,-11.06
5285,-17.31
5297,-21.53
5309,-23.93
5321,-24.56
5333,-23.75
5345,-22.24
5356,-21.01
5367,-20.89
5379,-22.27
5391,-24.92
5403,-28.22
5415,-31.38
5427,-33.62
5439,-34.24
5451,-32.66
5463,-28.54
5475,-21.92
5487,-13.34
5499,-3.69
5511,5.96
5523,14.6
5535,21.53
5546,26.31
5557,28.78
5569,29.05
5581,27.63
5593,25.27
5605,22.93
5617,21.28
5629,20.41
5641,19.66
5653,17.81
5665,13.55
5677,6.13
5689,-4.44
5701,-17.39
5713,-31.67
5725,-46.55
5736,-61.93
5747,-78.24
5759,-96.21
5771,-116.32
5783,-138.41
5795,-161.48
5807,-183.72
5819,-202.77
5831,-216.17
5843,-221.92
5855,-218.9
5867,-207.12
5879,-187.7
5891,-162.52
5903,-133.84
5915,-103.93
5926,-74.9
5937,-48.53
5949,-26.23
5961,-8.82
5973,3.63
5985,11.81
5997,16.88
6009,20.06
6021,22.27
6033,24.0
6045,25.53
6057,27.13
6069,29.12
6081,31.74
6093,34.98
6105,38.42
6116,41.45
6127,43.57
6139,44.75
6151,45.45
6163,46.28
6175,47.7
6187,49.69
6199,51.84
6211,53.68
6223,54.9
6235,55.53
6247,55.71
6259,55.41
6271,54.38
6283,52.3
6295,49.0
6306,44.77
6317,40.3
6329,36.33
6341,33.35
6353,31.37
6365,30.0
6377,28.7
6389,27.14
6401,25.25
6413,23.15
6425,20.99
6437,18.79
6449,16.46
6461,13.85
6473,10.91
6485,7.72
6496,4.46
6507,1.4
6519,-1.21
6531,-3.15
6543,-4.39
6555,-5.1
6567,-5.69
6579,-6.63
6591,-8.19
6603,-10.27
6615,-12.38
6627,-13.86
6639,-14.3
6651,-13.83
6663,-13.22
6675,-13.47
6686,-15.32
6697,-18.69
6709,-22.56
6721,-25.23
6733,-24.85
6745,-19.89
6757,-9.62
6769,5.56
6781,24.0
6793,42.87
6805,58.79
6817,68.79
6829,71.32
6841,66.88
6853,57.8
6865,47.31
6876,38.25
6887,32.09
6899,28.81
6911,27.39
6923,26.73
6935,26.23
6947,25.8
6959,25.53
6971,25.31
6983,24.75
6995,23.46
7007,21.34
7019,18.69
7031,16.01
7043,13.65
7055,11.59
7066,9.42
7077,6.55
7089,2.48
7101,-3.05
7113,-10.11
7125,-18.7
7137,-28.81
7149,-40.36
7161,-52.99
7173,-65.83
7185,-77.48
7197,-86.19
7209,-90.23
7221,-88.49
7233,-80.81
7245,-68.04
7256,-51.84
7267,-34.23
7279,-17.08
7291,-1.89
7303,10.32
7315,19.06
7327,24.26
7339,26.34
7351,26.24
7363,25.28
7375,24.84
7387,25.93
7399,28.85
7411,33.09
7423,37.76
7435,42.0
7446,45.4
7457,48.08
7469,50.47
7481,52.97
7493,55.76
7505,58.88
7517,62.28
7529,65.95
7541,69.76
7553,73.36
7565,76.15
7577,77.53
7589,77.24
7601,75.62
7613,73.49
7625,71.7
7636,70.63
7647,70.0
7659,69.05
7671,67.01
7683,63.51
7695,58.57
7707,52.43
7719,45.27
7731,37.19
7743,28.41
7755,19.53
7767,11.55
7779,5.59
7791,2.4
7803,2.12
7815,4.15
7826,7.4
7837,10.6
7849,12.66
7861,12.89
7873,11.15
7885,7.79
7897,3.53
7909,-0.91
7921,-5.1
7933,-9.1
7945,-13.36
7957,-18.34
7969,-24.04
7981,-29.97
7993,-35.28
8005,-39.32
8016,-41.96
8027,-43.59
8039,-44.88
8051,-46.34
8063,-48.07
8075,-49.86
8087,-51.5
8099,-53.0
8111,-54.62
8123,-56.71
8135,-59.36
8147,-62.3
8159,-64.99
8171,-66.97
8183,-68.02
8195,-68.36
8206,-68.34
8217,-68.21
8229,-67.89
8241,-66.96
8253,-64.85
8265,-61.09
8277,-55.57
8289,-48.51
8301,-40.46
8313,-32.04
8325,-23.86
8337,-16.41
8349,-10.04
8361,-4.97
8373,-1.29
8385,1.09
8396,2.39
8407,2.94
8419,3.15
8431,3.39
8443,3.95
8455,4.99
8467,6.47
8479,8.23
8491,10.0
8503,11.5
8515,12.46
8527,12.8
8539,12.5
8551,11.62
8563,10.31
8575,8.67
8586,6.82
8597,4.82
8609,2.75
8621,0.67
8633,-1.33
8645,-3.15
8657,-4.72
8669,-6.03
8681,-7.1
8693,-8.04
8705,-8.96
8717,-9.94
8729,-11.01
8741,-12.12
8753,-13.19
8765,-14.19
8776,-15.15
8787,-16.07
8799,-16.93
8811,-17.57
8823,-17.76
8835,-17.31
8847,-16.13
8859,-14.34
8871,-12.12
8883,-9.73
8895,-7.31
8907,-4.91
8919,-2.55
8931,-0.25
8943,1.88
8955,3.67
8966,4.94
8977,5.59
8989,5.58
9001,5.02
9013,4.08
9025,2.98
9037,1.91
9049,1.02
9061,0.41
9073,0.09
9085,0.02
9097,0.15
9109,0.38
9121,0.62
9133,0.78
9145,0.78
9156,0.62
9167,0.31
9179,-0.06
9191,-0.45
9203,-0.77
9215,-1.02
9227,-1.21
9239,-1.4
9251,-1.59
9263,-1.83
9275,-2.13
9287,-2.49
9299,-2.94
9311,-3.43
9323,-3.9
9335,-4.24
9346,-4.39
9357,-4.35
9369,-4.2
9381,-4.1
9393,-4.22
9405,-4.62
9417,-5.29
9429,-6.06
9441,-6.78
9453,-7.32
9465,-7.62
9477,-7.67
9489,-7.44
9501,-6.86
9513,-5.81
9525,-4.2
9536,-2.02
9547,0.63
9559,3.56
9571,6.51
9583,9.27
9595,11.68
9607,13.67
9619,15.19
9631,16.25
9643,16.86
9655,17.02
9667,16.76
9679,16.14
9691,15.24
9703,14.14
9715,12.95
9726,11.77
9737,10.71
9749,9.86
9761,9.28
9773,9.0
9785,8.94
9797,8.96
9809,8.92
9821,8.67
9833,8.15
9845,7.38
9857,6.38
9869,5.18
9881,3.8
9893,2.24
9905,0.55
9916,-1.21
9927,-2.98
9939,-4.7
9951,-6.4
9963,-8.08
9975,-9.79
9987,-11.52
9999,-13.29
10011,-15.12
10023,-17.05
10035,-19.15
10047,-21.44
10059,-23.83
10071,-26.19
10083,-28.32
10095,-30.02
10106,-31.25
10117,-32.1
10129,-32.79
10141,-33.55
10153,-34.47
10165,-35.43
10177,-36.11
10189,-36.03
10201,-34.8
10213,-32.26
10225,-28.55
10237,-24.04
10249,-19.27
10261,-14.7
10273,-10.65
10285,-7.26
10296,-4.52
10307,-2.4
10319,-0.83
10331,0.28
10343,1.09
10355,1.79
10367,2.53
10379,3.37
10391,4.17
10403,4.75
10415,4.94
10427,4.76
10439,4.39
10451,4.12
10463,4.12
10475,4.46
10486,5.01
10497,5.55
10509,5.91
10521,6.01
10533,5.84
10545,5.4
10557,4.66
10569,3.59
10581,2.23
10593,0.72
10605,-0.77
10617,-2.1
10629,-3.21
10641,-4.22
10653,-5.29
10665,-6.51
10676,-7.87
10687,-9.23
10699,-10.42
10711,-11.33
10723,-12.02
10735,-12.67
10747,-13.5
10759,-14.68
10771,-16.22
10783,-18.02
10795,-19.9
10807,-21.66
10819,-23.2
10831,-24.51
10843,-25.68
10855,-26.83
10866,-28.01
10877,-29.12
10889,-29.85
10901,-29.78
10913,-28.49
10925,-25.8
10937,-21.81
10949,-16.87
10961,-11.51
10973,-6.19
10985,-1.26
10997,3.08
11009,6.76
11021,9.73
11033,11.94
11045,13.39
11056,14.15
11067,14.37
11079,14.26
11091,14.05
11103,13.9
11115,13.91
11127,14.06
11139,14.27
11151,14.47
11163,14.63
11175,14.78
11187,14.94
11199,15.1
11211,15.24
11223,15.22
11235,14.94
11246,14.35
11257,13.45
11269,12.37
11281,11.26
11293,10.26
11305,9.42
11317,8.65
11329,7.8
11341,6.68
11353,5.21
11365,3.38
11377,1.33
11389,-0.75
11401,-2.68
11413,-4.39
11425,-5.9
11436,-7.34
11447,-8.81
11459,-10.36
11471,-11.93
11483,-13.46
11495,-14.89
11507,-16.26
11519,-17.62
11531,-19.1
11543,-20.74
11555,-22.54
11567,-24.41
11579,-26.17
11591,-27.6
11603,-28.4
11615,-28.21
11626,-26.7
11637,-23.69
11649,-19.26
11661,-13.76
11673,-7.74
11685,-1.79
11697,3.65
11709,8.33
11721,12.18
11733,15.23
11745,17.48
11757,18.91
11769,19.52
11781,19.38
11793,18.68
11805,17.66
11816,16.61
11827,15.75
11839,15.23
11851,15.08
11863,15.25
11875,15.63
11887,16.1
11899,16.57
11911,16.95
11923,17.17
11935,17.2
11947,16.99
11959,16.52
11971,15.73
11983,14.65
11995,13.3
12006,11.76
12017,10.11
12029,8.39
12041,6.63
12053,4.86
12065,3.08
12077,1.35
12089,-0.29
12101,-1.77
12113,-3.09
12125,-4.29
12137,-5.5
12149,-6.83
12161,-8.34
12173,-10.06
12185,-11.89
12196,-13.74
12207,-15.54
12219,-17.29
12231,-19.04
12243,-20.9
12255,-22.93
12267,-25.13
12279,-27.38
12291,-29.41
12303,-30.87
12315,-31.36
12327,-30.52
12339,-28.13
12351,-24.15
12363,-18.81
12375,-12.53
12386,-5.92
12397,0.42
12409,5.94
12421,10.29
12433,13.38
12445,15.38
12457,16.59
12469,17.31
12481,17.72
12493,17.89
12505,17.77
12517,17.41
12529,16.91
12541,16.45
12553,16.2
12565,16.23
12576,16.45
12587,16.71
12599,16.88
12611,16.9
12623,16.82
12635,16.65
12647,16.33
12659,15.78
12671,14.88
12683,13.59
12695,11.97
12707,10.13
12719,8.21
12731,6.32
12743,4.44
12755,2.52
12766,0.57
12777,-1.41
12789,-3.42
12801,-5.51
12813,-7.74
12825,-10.19
12837,-12.8
12849,-15.49
12861,-18.12
12873,-20.52
12885,-22.69
12897,-24.91
12909,-27.47
12921,-30.47
12933,-33.74
12945,-36.84
12956,-39.54
12967,-41.79
12979,-43.75
12991,-45.69
13003,-48.07
13015,-50.86
13027,-53.54
13039,-55.19
13051,-54.71
13063,-51.77
13075,-46.62
13087,-39.94
13099,-32.85
13111,-26.9
13123,-23.09
13135,-21.54
13146,-21.54
13157,-21.54
13169,-20.68
13181,-18.64
13193,-15.44
13205,-11.6
13217,-8.06
13229,-5.1
13241,-2.41
13253,0.51
13265,4.12
13277,7.31
13289,8.27
13301,5.49
13313,1.85
13325,-1.14
13336,-4.18
13347,-10.07
13359,-24.94
13371,-47.73
13383,-74.96
13395,-102.63
13407,-124.03
13419,-135.78
13431,-138.49
13443,-135.42
13455,-130.54
13467,-126.43
13479,-122.79
13491,-118.2
13503,-110.88
13515,-99.83
13526,-85.8
13537,-70.75
13549,-56.27
13561,-42.77
13573,-29.57
13585,-15.36
13597,0.01
13609,15.87
13621,31.23
13633,44.86
13645,55.77
13657,63.72
13669,69.26
13681,73.55
13693,78.33
13705,84.74
13716,93.08
13727,102.59
13739,111.22
13751,116.49
13763,116.51
13775,110.77
13787,100.41
13799,87.75
13811,75.14
13823,64.44
13835,56.82
13847,52.65
13859,51.71
13871,53.3
13883,56.15
13895,58.6
13906,59.13
13917,56.87
13929,52.15
13941,46.4
13953,41.39
13965,38.49
13977,38.09
13989,39.69
14001,42.47
14013,45.8
14025,49.47
14037,53.6
14049,58.31
14061,63.26
14073,67.72
14085,70.72
14096,71.46
14107,69.56
14119,65.07
14131,58.37
14143,49.86
14155,39.86
14167,28.68
14179,16.82
14191,4.91
14203,-6.6
14215,-18.02
14227,-30.54
14239,-45.67
14251,-64.0
14263,-84.03
14275,-101.92
14286,-112.79
14297,-112.89
14309,-101.58
14321,-81.65
14333,-57.7
14345,-33.62
14357,-10.72
14369,12.21
14381,37.06
14393,64.05
14405,90.69
14417,112.66
14429,126.17
14441,130.06
14453,126.38
14465,119.04
14476,111.53
14487,105.25
14499,99.27
14511,91.63
14523,81.16
14535,68.42
14547,55.48
14559,44.66
14571,37.2
14583,32.68
14595,29.48
14607,25.79
14619,20.58
14631,13.91
14643,6.49
14655,-0.95
14666,-8.16
14677,-15.39
14689,-22.91
14701,-30.6
14713,-37.83
14725,-43.7
14737,-47.44
14749,-48.76
14761,-47.81
14773,-44.99
14785,-40.79
14797,-35.67
14809,-30.15
14821,-24.86
14833,-20.45
14845,-17.38
14856,-15.66
14867,-14.69
14879,-13.44
14891,-10.74
14903,-5.71
14915,1.91
14927,11.61
14939,22.31
14951,32.69
14963,41.51
14975,48.06
14987,52.16
14999,54.11
15011,54.38
15023,53.43
15035,51.5
15046,48.79
15057,45.5
15069,41.88
15081,38.24
15093,34.75
15105,31.43
15117,28.19
15129,24.92
15141,21.65
15153,18.52
15165,15.69
15177,13.18
15189,10.81
15201,8.31
15213,5.43
15225,2.12
15236,-1.5
15247,-5.27
15259,-9.07
15271,-12.85
15283,-16.6
15295,-20.19
15307,-23.4
15319,-25.94
15331,-27.69
15343,-28.76
15355,-29.46
15367,-30.09
15379,-30.84
15391,-31.75
15403,-32.79
15415,-34.08
15426,-35.81
15437,-38.09
15449,-40.8
15461,-43.47
15473,-45.49
15485,-46.41
15497,-46.08
15509,-44.75
15521,-42.69
15533,-40.05
15545,-36.65
15557,-32.22
15569,-26.77
15581,-20.86
15593,-15.69
15605,-12.65
15616,-12.79
15627,-16.14
15639,-21.45
15651,-26.48
15663,-28.71
15675,-26.26
15687,-18.5
15699,-6.14
15711,9.27
15723,25.99
15735,42.63
15747,58.29
15759,72.24
15771,83.65
15783,91.4
15795,94.38
15806,92.0
15817,84.65
15829,73.71
15841,61.21
15853,49.09
15865,38.59
15877,30.03
15889,22.87
15901,16.31
15913,9.77
15925,3.11
15937,-3.42
15949,-9.57
15961,-15.41
15973,-21.3
15985,-27.61
15996,-34.19
16007,-40.09
16019,-43.79
16031,-43.71
16043,-38.94
16055,-29.69
16067,-17.28
16079,-3.69
16091,9.08
16103,19.51
16115,26.76
16127,30.68
16139,31.58
16151,30.15
16163,27.3
16175,24.08
16186,21.47
16197,20.11
16209,20.12
16221,21.05
16233,22.07
16245,22.34
16257,21.31
16269,18.89
16281,15.37
16293,11.22
16305,6.88
16317,2.57
16329,-1.6
16341,-5.51
16353,-8.98
16365,-11.8
16376,-13.88
16387,-15.36
16399,-16.56
16411,-17.87
16423,-19.47
16435,-21.27
16447,-22.89
16459,-23.95
16471,-24.32
16483,-24.24
16495,-24.27
16507,-24.93
16519,-26.5
16531,-28.8
16543,-31.3
16555,-33.34
16566,-34.43
16577,-34.42
16589,-33.51
16601,-32.17
16613,-30.95
16625,-30.32
16637,-30.52
16649,-31.49
16661,-32.87
16673,-34.04
16685,-34.33
16697,-33.25
16709,-30.71
16721,-27.14
16733,-23.26
16745,-19.84
16756,-17.23
16767,-15.23
16779,-13.17
16791,-10.18
16803,-5.73
16815,0.11
16827,6.65
16839,12.96
16851,18.19
16863,21.98
16875,24.43
16887,25.96
16899,26.93
16911,27.48
16923,27.51
16935,26.89
16946,25.61
16957,23.86
16969,21.95
16981,20.11
16993,18.42
17005,16.75
17017,14.9
17029,12.77
17041,10.44
17053,8.14
17065,6.18
17077,4.8
17089,4.12
17101,4.08
17113,4.53
17125,5.28
17136,6.15
17147,6.91
17159,7.35
17171,7.32
17183,6.68
17195,5.49
17207,3.98
17219,2.51
17231,1.44
17243,1.02
17255,1.18
17267,1.62
17279,1.88
17291,1.61
17303,0.73
17315,-0.5
17326,-1.62
17337,-2.21
17349,-2.11
17361,-1.49
17373,-0.77
17385,-0.38
17397,-0.57
17409,-1.29
17421,-2.3
17433,-3.25
17445,-3.8
17457,-3.7
17469,-2.75
17481,-0.87
17493,1.88
17505,5.23
17516,8.75
17527,11.91
17539,14.35
17551,15.97
17563,16.95
17575,17.63
17587,18.32
17599,19.16
17611,20.17
17623,21.33
17635,22.65
17647,24.12
17659,25.71
17671,27.19
17683,28.26
17695,28.62
17706,28.25
17717,27.46
17729,26.83
17741,26.91
17753,27.77
17765,28.71
17777,28.35
17789,25.07
17801,17.73
17813,6.26
17825,-8.32
17837,-24.3
17849,-40.07
17861,-54.71
17873,-68.08
17885,-80.34
17896,-91.37
17907,-100.52
17919,-106.81
17931,-109.55
17943,-108.86
17955,-105.5
17967,-100.27
17979,-93.46
17991,-84.73
18003,-73.68
18015,-60.85
18027,-48.09
18039,-38.05
18051,-32.78
18063,-32.24
18075,-33.81
18086,-33.11
18097,-26.01
18109,-10.48
18121,12.44
18133,39.2
18145,65.32
18157,87.07
18169,102.54
18181,111.48
18193,114.57
18205,112.6
18217,106.05
18229,95.36
18241,81.37
18253,65.59
18265,49.96
18276,36.16
18287,24.86
18299,15.44
18311,6.33
18323,-4.2
18335,-17.02
18347,-31.61
18359,-46.17
18371,-58.37
18383,-66.38
18395,-69.61
18407,-68.8
18419,-65.51
18431,-61.22
18443,-56.68
18455,-51.88
18466,-46.63
18477,-41.35
18489,-37.67
18501,-37.74
18513,-42.89
18525,-52.03
18537,-61.2
18549,-64.56
18561,-56.8
18573,-35.7
18585,-3.36
18597,34.39
18609,70.41
18621,98.89
18633,117.15
18645,125.76
18656,127.1
18667,123.57
18679,116.31
18691,105.03
18703,88.79
18715,67.14
18727,40.91
18739,12.39
18751,-15.09
18763,-38.14
18775,-54.28
18787,-62.52
18799,-63.6
18811,-59.44
18823,-52.36
18835,-44.86
18846,-39.25
18857,-37.51
18869,-41.03
18881,-49.69
18893,-61.18
18905,-70.92
18917,-73.15
18929,-62.92
18941,-38.33
18953,-1.72
18965,40.8
18977,81.36
18989,113.06
19001,131.99
19013,137.83
19025,132.95
19036,120.8
19047,104.51
19059,86.3
19071,67.58
19083,49.29
19095,32.14
19107,16.43
19119,1.93
19131,-11.97
19143,-25.91
19155,-39.97
19167,-53.21
19179,-64.03
19191,-70.86
19203,-72.71
19215,-69.99
19226,-64.3
19237,-58.41
19249,-55.39
19261,-57.77
19273,-66.38
19285,-79.63
19297,-93.52
19309,-102.5
19321,-101.37
19333,-87.01
19345,-59.8
19357,-23.57
19369,15.53
19381,51.02
19393,77.86
19405,93.5
19416,97.89
19427,92.77
19439,80.84
19451,64.95
19463,47.62
19475,30.82
19487,15.79
19499,3.17
19511,-6.9
19523,-14.64
19535,-20.42
19547,-24.55
19559,-27.05
19571,-27.77
19583,-26.46
19595,-23.19
19606,-18.6
19617,-14.23
19629,-12.36
19641,-15.17
19653,-23.63
19665,-36.4
19677,-49.71
19689,-58.19
19701,-56.78
19713,-42.67
19725,-16.5
19737,17.83
19749,54.61
19761,88.22
19773,114.63
19785,131.95
19796,139.99
19807,139.42
19819,131.24
19831,116.69
19843,97.36
19855,75.31
19867,52.68
19879,31.23
19891,11.89
19903,-5.27
19915,-20.82
19927,-35.39
19939,-49.14
19951,-61.55
19963,-71.61
19975,-78.2
19986,-80.74
19997,-79.29
20009,-74.87
20021,-68.99
20033,-63.34
20045,-59.22
20057,-57.22
20069,-56.98
20081,-57.44
20093,-57.18
20105,-54.92
20117,-50.0
20129,-42.56
20141,-33.7
20153,-25.38
20165,-20.14
20176,-20.28
20187,-26.75
20199,-38.26
20211,-51.14
20223,-60.34
20235,-61.21
20247,-51.27
20259,-31.06
20271,-3.75
20283,26.22
20295,54.72
20307,78.87
20319,97.12
20331,108.83
20343,113.8
20355,112.19
20366,104.67
20377,92.49
20389,77.32
20401,60.74
20413,43.91
20425,27.42
20437,11.46
20449,-4.0
20461,-18.96
20473,-33.28
20485,-46.54
20497,-58.07
20509,-67.12
20521,-73.28
20533,-76.78
20545,-78.71
20556,-80.8
20567,-84.64
20579,-90.95
20591,-98.94
20603,-106.45
20615,-110.77
20627,-109.78
20639,-102.86
20651,-91.15
20663,-76.99
20675,-62.93
20687,-50.92
20699,-41.8
20711,-35.31
20723,-30.15
20735,-24.18
20746,-14.56
20757,1.64
20769,26.43
20781,59.7
20793,98.6
20805,138.0
20817,172.28
20829,197.41
20841,212.37
20853,218.97
20865,220.4
20877,219.35
20889,216.99
20901,213.04
20913,206.7
20925,197.57
20936,185.95
20947,172.52
20959,157.83
20971,142.12
20983,125.58
20995,108.65
