seconds,BVP
7,-65.84
19,-62.26
30,-54.21
41,-41.47
53,-25.21
65,-7.84
77,8.14
89,21.3
101,31.8
113,40.93
125,50.17
137,60.94
149,72.54
161,83.49
173,92.15
185,97.38
197,98.84
209,96.77
220,91.48
231,81.51
243,67.85
255,51.29
267,33.03
279,14.7
291,-1.85
303,-15.05
315,-24.04
327,-28.89
339,-30.54
351,-30.15
363,-29.34
375,-29.31
387,-30.59
399,-33.0
410,-35.79
421,-38.28
433,-39.42
445,-38.71
457,-36.04
469,-32.03
481,-27.45
493,-22.88
505,-18.63
517,-14.7
529,-10.97
541,-7.28
553,-3.67
565,-0.22
577,2.7
589,4.79
600,5.9
611,6.1
623,5.64
635,4.77
647,3.77
659,2.71
671,1.67
683,0.62
695,-0.44
707,-1.4
719,-2.15
731,-2.61
743,-2.77
755,-2.68
767,-2.44
779,-2.1
790,-1.62
801,-0.86
813,0.14
825,1.38
837,2.82
849,4.32
861,5.73
873,6.93
885,7.89
897,8.61
909,9.12
921,9.43
933,9.51
945,9.31
957,8.78
969,7.93
980,6.85
991,5.64
1003,4.38
1015,3.13
1027,1.89
1039,0.63
1051,-0.64
1063,-1.89
1075,-3.05
1087,-3.99
1099,-4.53
1111,-4.42
1123,-3.49
1135,-1.67
1147,0.97
1159,4.14
1170,7.47
1181,10.59
1193,13.22
1205,15.26
1217,16.68
1229,17.49
1241,17.62
1253,17.0
1265,15.54
1277,13.31
1289,10.54
1301,7.58
1313,4.85
1325,2.65
1337,1.13
1349,0.29
1360,-0.01
1371,0.08
1383,0.41
1395,0.86
1407,1.3
1419,1.65
1431,1.8
1443,1.69
1455,1.3
1467,0.64
1479,-0.24
1491,-1.25
1503,-2.33
1515,-3.4
1527,-4.38
1539,-5.2
1550,-5.81
1561,-6.23
1573,-6.53
1585,-6.85
1597,-7.31
1609,-8.06
1621,-9.14
1633,-10.5
1645,-11.95
1657,-13.2
1669,-13.89
1681,-13.71
1693,-12.45
1705,-10.08
1717,-6.76
1729,-2.83
1740,1.31
1751,5.24
1763,8.64
1775,11.3
1787,13.11
1799,14.05
1811,14.16
1823,13.54
1835,12.29
1847,10.56
1859,8.54
1871,6.46
1883,4.57
1895,3.06
1907,2.0
1919,1.36
1930,1.0
1941,0.74
1953,0.42
1965,-0.04
1977,-0.62
1989,-1.26
2001,-1.92
2013,-2.6
2025,-3.38
2037,-4.35
2049,-5.51
2061,-6.78
2073,-8.0
2085,-8.98
2097,-9.63
2109,-9.98
2120,-10.21
2131,-10.55
2143,-11.21
2155,-12.3
2167,-13.76
2179,-15.4
2191,-16.89
2203,-17.86
2215,-17.95
2227,-16.95
2239,-14.79
2251,-11.62
2263,-7.67
2275,-3.27
2287,1.25
2299,5.57
2310,9.36
2321,12.32
2333,14.28
2345,15.16
2357,15.07
2369,14.26
2381,12.99
2393,11.54
2405,10.1
2417,8.79
2429,7.69
2441,6.9
2453,6.4
2465,6.17
2477,6.05
2489,5.89
2500,5.54
2511,4.97
2523,4.25
2535,3.53
2547,2.87
2559,2.3
2571,1.68
2583,0.87
2595,-0.24
2607,-1.65
2619,-3.25
2631,-4.88
2643,-6.42
2655,-7.86
2667,-9.28
2679,-10.81
2690,-12.54
2701,-14.5
2713,-16.6
2725,-18.72
2737,-20.67
2749,-22.2
2761,-23.01
2773,-22.79
2785,-21.28
2797,-18.41
2809,-14.36
2821,-9.48
2833,-4.33
2845,0.58
2857,4.84
2869,8.23
2880,10.79
2891,12.66
2903,13.98
2915,14.87
2927,15.31
2939,15.24
2951,14.6
2963,13.51
2975,12.16
2987,10.9
2999,10.0
3011,9.56
3023,9.51
3035,9.61
3047,9.59
3059,9.29
3070,8.7
3081,7.92
3093,7.08
3105,6.22
3117,5.32
3129,4.27
3141,3.0
3153,1.54
3165,-0.0
3177,-1.43
3189,-2.63
3201,-3.57
3213,-4.4
3225,-5.33
3237,-6.53
3249,-8.08
3260,-9.9
3271,-11.83
3283,-13.64
3295,-15.1
3307,-15.99
3319,-16.09
3331,-15.22
3343,-13.26
3355,-10.21
3367,-6.23
3379,-1.63
3391,3.15
3403,7.69
3415,11.63
3427,14.76
3439,16.98
3450,18.32
3461,18.86
3473,18.73
3485,18.06
3497,16.97
3509,15.61
3521,14.13
3533,12.7
3545,11.51
3557,10.65
3569,10.17
3581,10.02
3593,10.03
3605,10.02
3617,9.82
3629,9.37
3640,8.66
3651,7.79
3663,6.83
3675,5.83
3687,4.77
3699,3.56
3711,2.13
3723,0.43
3735,-1.49
3747,-3.51
3759,-5.43
3771,-7.04
3783,-8.21
3795,-8.93
3807,-9.31
3819,-9.6
3830,-10.07
3841,-10.94
3853,-12.35
3865,-14.26
3877,-16.4
3889,-18.38
3901,-19.69
3913,-19.84
3925,-18.5
3937,-15.61
3949,-11.38
3961,-6.28
3973,-0.88
3985,4.32
3997,8.93
4009,12.74
4020,15.64
4031,17.62
4043,18.74
4055,19.1
4067,18.87
4079,18.23
4091,17.38
4103,16.43
4115,15.42
4127,14.33
4139,13.14
4151,11.88
4163,10.63
4175,9.52
4187,8.69
4199,8.18
4210,7.94
4221,7.85
4233,7.72
4245,7.4
4257,6.79
4269,5.9
4281,4.82
4293,3.66
4305,2.54
4317,1.51
4329,0.59
4341,-0.27
4353,-1.2
4365,-2.29
4377,-3.62
4389,-5.18
4400,-6.87
4411,-8.51
4423,-9.93
4435,-11.01
4447,-11.73
4459,-12.15
4471,-12.42
4483,-12.7
4495,-13.19
4507,-14.02
4519,-15.27
4531,-16.92
4543,-18.77
4555,-20.48
4567,-21.6
4579,-21.66
4590,-20.38
4601,-17.71
4613,-13.87
4625,-9.26
4637,-4.35
4649,0.42
4661,4.78
4673,8.58
4685,11.75
4697,14.26
4709,16.02
4721,16.97
4733,17.07
4745,16.39
4757,15.12
4769,13.52
4780,11.86
4791,10.36
4803,9.13
4815,8.22
4827,7.61
4839,7.25
4851,7.07
4863,6.99
4875,6.93
4887,6.83
4899,6.68
4911,6.51
4923,6.34
4935,6.09
4947,5.65
4959,4.86
4970,3.65
4981,2.09
4993,0.4
5005,-1.18
5017,-2.46
5029,-3.4
5041,-4.12
5053,-4.79
5065,-5.59
5077,-6.58
5089,-7.68
5101,-8.77
5113,-9.68
5125,-10.33
5137,-10.72
5149,-10.94
5160,-11.17
5171,-11.59
5183,-12.37
5195,-13.57
5207,-15.15
5219,-16.9
5231,-18.51
5243,-19.61
5255,-19.88
5267,-19.05
5279,-17.05
5291,-13.94
5303,-9.97
5315,-5.47
5327,-0.82
5339,3.6
5350,7.46
5361,10.55
5373,12.76
5385,14.07
5397,14.54
5409,14.3
5421,13.49
5433,12.31
5445,10.97
5457,9.68
5469,8.62
5481,7.9
5493,7.57
5505,7.57
5517,7.79
5529,8.08
5540,8.32
5551,8.46
5563,8.48
5575,8.38
5587,8.16
5599,7.74
5611,7.05
5623,6.08
5635,4.89
5647,3.63
5659,2.42
5671,1.28
5683,0.16
5695,-1.05
5707,-2.39
5719,-3.82
5730,-5.21
5741,-6.45
5753,-7.49
5765,-8.4
5777,-9.31
5789,-10.35
5801,-11.56
5813,-12.92
5825,-14.36
5837,-15.77
5849,-17.02
5861,-17.94
5873,-18.29
5885,-17.82
5897,-16.34
5909,-13.82
5920,-10.41
5931,-6.48
5943,-2.43
5955,1.34
5967,4.57
5979,7.12
5991,9.0
6003,10.26
6015,10.98
6027,11.24
6039,11.11
6051,10.65
6063,9.94
6075,9.03
6087,8.06
6099,7.14
6110,6.39
6121,5.88
6133,5.62
6145,5.53
6157,5.52
6169,5.54
6181,5.53
6193,5.5
6205,5.41
6217,5.2
6229,4.82
6241,4.22
6253,3.45
6265,2.6
6277,1.74
6289,0.9
6300,0.02
6311,-0.97
6323,-2.15
6335,-3.53
6347,-5.01
6359,-6.49
6371,-7.82
6383,-8.96
6395,-9.91
6407,-10.74
6419,-11.52
6431,-12.35
6443,-13.27
6455,-14.34
6467,-15.53
6479,-16.75
6490,-17.8
6501,-18.43
6513,-18.35
6525,-17.34
6537,-15.29
6549,-12.27
6561,-8.5
6573,-4.27
6585,0.04
6597,4.06
6609,7.51
6621,10.21
6633,12.13
6645,13.34
6657,13.96
6669,14.08
6680,13.74
6691,12.96
6703,11.81
6715,10.47
6727,9.17
6739,8.16
6751,7.57
6763,7.37
6775,7.38
6787,7.39
6799,7.24
6811,6.9
6823,6.44
6835,5.93
6847,5.42
6859,4.9
6870,4.33
6881,3.69
6893,2.95
6905,2.08
6917,1.05
6929,-0.17
6941,-1.55
6953,-2.99
6965,-4.36
6977,-5.53
6989,-6.45
7001,-7.19
7013,-7.89
7025,-8.67
7037,-9.59
7049,-10.59
7060,-11.57
7071,-12.47
7083,-13.29
7095,-14.11
7107,-15.02
7119,-16.09
7131,-17.32
7143,-18.57
7155,-19.57
7167,-19.97
7179,-19.44
7191,-17.74
7203,-14.86
7215,-11.01
7227,-6.58
7239,-2.03
7250,2.26
7261,6.02
7273,9.13
7285,11.55
7297,13.29
7309,14.38
7321,14.85
7333,14.74
7345,14.11
7357,13.08
7369,11.8
7381,10.47
7393,9.31
7405,8.47
7417,8.04
7429,7.96
7440,8.07
7451,8.21
7463,8.27
7475,8.22
7487,8.12
7499,7.99
7511,7.81
7523,7.49
7535,6.92
7547,6.02
7559,4.78
7571,3.31
7583,1.74
7595,0.2
7607,-1.22
7619,-2.48
7630,-3.63
7641,-4.7
7653,-5.74
7665,-6.77
7677,-7.78
7689,-8.76
7701,-9.68
7713,-10.53
7725,-11.33
7737,-12.08
7749,-12.81
7761,-13.58
7773,-14.44
7785,-15.46
7797,-16.67
7809,-17.99
7820,-19.24
7831,-20.16
7843,-20.46
7855,-19.9
7867,-18.31
7879,-15.6
7891,-11.88
7903,-7.37
7915,-2.47
7927,2.35
7939,6.61
7951,10.01
7963,12.42
7975,13.92
7987,14.72
7999,15.03
8010,14.99
8021,14.65
8033,14.04
8045,13.21
8057,12.24
8069,11.29
8081,10.51
8093,10.0
8105,9.82
8117,9.9
8129,10.1
8141,10.3
8153,10.38
8165,10.32
8177,10.14
8189,9.82
8200,9.32
8211,8.57
8223,7.5
8235,6.13
8247,4.61
8259,3.09
8271,1.71
8283,0.46
8295,-0.74
8307,-1.98
8319,-3.24
8331,-4.42
8343,-5.37
8355,-6.04
8367,-6.52
8379,-7.01
8390,-7.74
8401,-8.84
8413,-10.3
8425,-12.02
8437,-13.88
8449,-15.75
8461,-17.45
8473,-18.78
8485,-19.43
8497,-19.15
8509,-17.75
8521,-15.25
8533,-11.91
8545,-8.06
8557,-4.08
8569,-0.28
8580,3.08
8591,5.86
8603,7.93
8615,9.24
8627,9.79
8639,9.63
8651,8.88
8663,7.67
8675,6.15
8687,4.42
8699,2.66
8711,1.04
8723,-0.26
8735,-1.08
8747,-1.39
8759,-1.26
8770,-0.85
8781,-0.36
8793,0.11
8805,0.49
8817,0.79
8829,1.0
8841,1.08
8853,0.99
8865,0.74
8877,0.39
8889,-0.03
8901,-0.48
8913,-1.02
8925,-1.71
8937,-2.58
8949,-3.6
8960,-4.64
8971,-5.58
8983,-6.37
8995,-7.11
9007,-7.97
9019,-9.2
9031,-10.98
9043,-13.32
9055,-16.05
9067,-18.75
9079,-20.89
9091,-21.92
9103,-21.47
9115,-19.45
9127,-16.1
9139,-11.92
9150,-7.45
9161,-3.16
9173,0.69
9185,4.0
9197,6.81
9209,9.18
9221,11.15
9233,12.76
9245,13.98
9257,14.79
9269,15.14
9281,15.04
9293,14.52
9305,13.73
9317,12.85
9329,12.04
9340,11.35
9351,10.7
9363,9.89
9375,8.74
9387,7.16
9399,5.28
9411,3.37
9423,1.76
9435,0.67
9447,0.12
9459,-0.09
9471,-0.25
9483,-0.6
9495,-1.2
9507,-1.93
9519,-2.52
9530,-2.75
9541,-2.53
9553,-1.99
9565,-1.38
9577,-0.99
9589,-0.99
9601,-1.4
9613,-2.14
9625,-3.12
9637,-4.31
9649,-5.7
9661,-7.21
9673,-8.67
9685,-9.72
9697,-9.92
9709,-8.93
9720,-6.63
9731,-3.16
9743,1.14
9755,5.75
9767,10.16
9779,13.91
9791,16.63
9803,18.12
9815,18.34
9827,17.47
9839,15.85
9851,13.84
9863,11.79
9875,9.89
9887,8.21
9899,6.78
9910,5.6
9921,4.79
9933,4.43
9945,4.59
9957,5.22
9969,6.21
9981,7.4
9993,8.55
10005,9.36
10017,9.39
10029,8.09
10041,5.03
10053,0.16
10065,-5.88
10077,-11.86
10089,-16.34
10100,-18.19
10111,-17.14
10123,-13.81
10135,-9.38
10147,-5.01
10159,-1.4
10171,1.29
10183,3.21
10195,4.46
10207,4.92
10219,4.32
10231,2.52
10243,-0.33
10255,-3.78
10267,-7.26
10279,-10.36
10290,-12.9
10301,-14.85
10313,-16.16
10325,-16.68
10337,-16.17
10349,-14.42
10361,-11.37
10373,-7.23
10385,-2.42
10397,2.52
10409,7.1
10421,10.96
10433,13.93
10445,15.96
10457,17.11
10469,17.46
10480,17.12
10491,16.22
10503,14.93
10515,13.44
10527,11.93
10539,10.58
10551,9.47
10563,8.64
10575,8.07
10587,7.78
10599,7.77
10611,8.09
10623,8.8
10635,9.87
10647,11.2
10659,12.55
10670,13.65
10681,14.24
10693,14.2
10705,13.56
10717,12.53
10729,11.32
10741,10.11
10753,8.94
10765,7.75
10777,6.4
10789,4.8
10801,2.96
10813,0.97
10825,-0.97
10837,-2.67
10849,-4.0
10860,-4.93
10871,-5.48
10883,-5.78
10895,-6.03
10907,-6.44
10919,-7.19
10931,-8.26
10943,-9.5
10955,-10.57
10967,-11.06
10979,-10.61
10991,-8.98
11003,-6.19
11015,-2.49
11027,1.68
11039,6.01
11050,10.32
11061,14.51
11073,18.58
11085,22.5
11097,26.14
11109,29.28
11121,31.58
11133,32.74
11145,32.76
11157,31.87
11169,30.47
11181,29.08
11193,28.12
11205,27.86
11217,28.24
11229,28.83
11240,28.96
11251,28.22
11263,26.54
11275,24.31
11287,22.18
11299,20.93
11311,21.18
11323,23.19
11335,26.74
11347,29.58
11359,29.66
11371,25.49
11383,16.7
11395,3.88
11407,-11.84
11419,-28.91
11430,-45.47
11441,-59.7
11453,-70.29
11465,-76.49
11477,-78.5
11489,-77.11
11501,-73.42
11513,-68.46
11525,-62.99
11537,-57.59
11549,-52.81
11561,-49.14
11573,-46.78
11585,-45.74
11597,-45.76
11609,-46.28
11620,-46.43
11631,-45.0
11643,-40.85
11655,-33.46
11667,-23.29
11679,-11.69
11691,-0.43
11703,8.98
11715,15.88
11727,20.56
11739,23.8
11751,26.22
11763,27.65
11775,27.16
11787,23.65
11799,16.49
11810,6.15
11821,-5.74
11833,-16.83
11845,-24.8
11857,-28.12
11869,-26.64
11881,-21.49
11893,-14.67
11905,-8.32
11917,-4.09
11929,-2.62
11941,-3.71
11953,-6.22
11965,-8.34
11977,-8.01
11989,-3.25
12000,7.12
12011,22.87
12023,41.89
12035,60.37
12047,73.74
12059,77.83
12071,71.5
12083,56.46
12095,36.91
12107,18.05
12119,4.31
12131,-2.0
12143,-0.97
12155,5.5
12167,14.67
12179,24.07
12190,31.68
12201,36.23
12213,36.94
12225,33.48
12237,26.02
12249,15.4
12261,3.14
12273,-8.79
12285,-18.42
12297,-24.53
12309,-26.72
12321,-25.71
12333,-23.05
12345,-20.67
12357,-20.17
12369,-22.29
12380,-26.72
12391,-32.16
12403,-36.95
12415,-39.5
12427,-38.84
12439,-34.76
12451,-27.87
12463,-19.67
12475,-12.48
12487,-8.93
12499,-11.01
12511,-19.1
12523,-31.25
12535,-43.43
12547,-51.06
12559,-50.96
12570,-42.66
12581,-28.5
12593,-12.34
12605,2.34
12617,13.91
12629,22.77
12641,30.4
12653,38.14
12665,46.08
12677,53.25
12689,58.36
12701,60.53
12713,59.68
12725,56.4
12737,51.4
12749,44.88
12760,37.28
12771,28.7
12783,19.35
12795,9.78
12807,0.74
12819,-7.08
12831,-13.28
12843,-17.84
12855,-21.0
12867,-23.01
12879,-24.11
12891,-24.37
12903,-23.81
12915,-22.49
12927,-20.45
12939,-17.7
12950,-14.22
12961,-10.02
12973,-5.31
12985,-0.72
12997,2.91
13009,4.82
13021,4.63
13033,2.58
13045,-0.52
13057,-3.66
13069,-5.97
13081,-7.06
13093,-7.07
13105,-6.51
13117,-5.88
13129,-5.54
13140,-5.58
13151,-5.86
13163,-6.1
13175,-6.05
13187,-5.52
13199,-4.5
13211,-3.13
13223,-1.74
13235,-0.7
13247,-0.32
13259,-0.65
13271,-1.42
13283,-2.14
13295,-2.3
13307,-1.67
13319,-0.33
13330,1.25
13341,2.52
13353,3.08
13365,2.81
13377,1.93
13389,0.7
13401,-0.68
13413,-2.2
13425,-3.92
13437,-5.88
13449,-7.97
13461,-9.93
13473,-11.43
13485,-12.25
13497,-12.34
13509,-11.86
13520,-11.12
13531,-10.35
13543,-9.69
13555,-9.13
13567,-8.63
13579,-8.06
13591,-7.34
13603,-6.42
13615,-5.25
13627,-4.31
13639,-3.75
13651,-3.55
13663,-3.55
13675,-3.68
13687,-3.92
13699,-4.37
13710,-5.2
13721,-6.43
13733,-7.98
13745,-9.51
13757,-10.67
13769,-11.22
13781,-11.13
13793,-10.51
13805,-9.54
13817,-8.48
13829,-7.52
13841,-6.82
13853,-6.39
13865,-6.18
13877,-6.03
13889,-5.79
13900,-5.27
13911,-4.45
13923,-3.42
13935,-2.41
13947,-1.69
13959,-1.48
13971,-1.9
13983,-3.03
13995,-4.82
14007,-7.09
14019,-9.48
14031,-11.45
14043,-12.29
14055,-11.3
14067,-8.0
14079,-2.38
14090,5.02
14101,13.22
14113,21.05
14125,27.51
14137,32.01
14149,34.43
14161,35.03
14173,34.21
14185,32.34
14197,29.74
14209,26.67
14221,23.43
14233,20.34
14245,17.73
14257,15.88
14269,14.93
14280,14.88
14291,15.6
14303,16.87
14315,18.4
14327,19.89
14339,21.07
14351,21.75
14363,21.84
14375,21.38
14387,20.48
14399,19.27
14411,17.87
14423,16.32
14435,14.65
14447,12.94
14459,11.32
14470,9.93
14481,8.89
14493,8.2
14505,7.7
14517,7.16
14529,6.33
14541,5.08
14553,3.46
14565,1.61
14577,-0.25
14589,-2.0
14601,-3.58
14613,-5.04
14625,-6.45
14637,-7.86
14649,-9.24
14660,-10.55
14671,-11.78
14683,-12.92
14695,-14.03
14707,-15.16
14719,-16.36
14731,-17.62
14743,-18.9
14755,-20.19
14767,-21.48
14779,-22.79
14791,-24.14
14803,-25.53
14815,-26.83
14827,-27.82
14839,-28.17
14850,-27.56
14861,-25.79
14873,-22.8
14885,-18.71
14897,-13.8
14909,-8.42
14921,-2.93
14933,2.28
14945,6.88
14957,10.6
14969,13.23
14981,14.71
14993,15.11
15005,14.62
15017,13.52
15029,12.12
15040,10.7
15051,9.47
15063,8.62
15075,8.22
15087,8.3
15099,8.74
15111,9.38
15123,10.03
15135,10.59
15147,11.04
15159,11.47
15171,12.0
15183,12.66
15195,13.36
15207,13.97
15219,14.35
15230,14.48
15241,14.41
15253,14.25
15265,14.06
15277,13.83
15289,13.52
15301,13.13
15313,12.72
15325,12.41
15337,12.22
15349,12.11
15361,11.94
15373,11.57
15385,11.0
15397,10.32
15409,9.73
15420,9.34
15431,9.13
15443,8.91
15455,8.42
15467,7.48
15479,6.04
15491,4.23
15503,2.28
15515,0.39
15527,-1.3
15539,-2.81
15551,-4.29
15563,-5.95
15575,-7.96
15587,-10.38
15599,-13.1
15610,-15.84
15621,-18.18
15633,-19.73
15645,-20.19
15657,-19.42
15669,-17.43
15681,-14.42
15693,-10.7
15705,-6.65
15717,-2.68
15729,0.86
15741,3.73
15753,5.81
15765,7.09
15777,7.66
15789,7.63
15800,7.07
15811,6.04
15823,4.63
15835,3.04
15847,1.5
15859,0.29
15871,-0.4
15883,-0.47
15895,0.01
15907,0.93
15919,2.12
15931,3.46
15943,4.88
15955,6.29
15967,7.63
15979,8.83
15990,9.82
16001,10.57
16013,11.08
16025,11.32
16037,11.25
16049,10.82
16061,10.03
16073,8.97
16085,7.8
16097,6.73
16109,5.9
16121,5.38
16133,5.13
16145,5.01
16157,4.86
16169,4.59
16180,4.18
16191,3.67
16203,3.09
16215,2.43
16227,1.68
16239,0.76
16251,-0.35
16263,-1.66
16275,-3.16
16287,-4.77
16299,-6.47
16311,-8.18
16323,-9.79
16335,-11.09
16347,-11.79
16359,-11.63
16370,-10.51
16381,-8.61
16393,-6.24
16405,-3.82
16417,-1.7
16429,-0.14
16441,0.79
16453,1.11
16465,0.9
16477,0.19
16489,-1.05
16501,-2.7
16513,-4.62
16525,-6.56
16537,-8.26
16549,-9.44
16560,-9.89
16571,-9.55
16583,-8.5
16595,-6.95
16607,-4.88
16619,-2.29
16631,0.89
16643,4.57
16655,8.51
16667,12.47
16679,16.38
16691,20.43
16703,23.75
16715,25.34
16727,23.91
16739,18.22
16750,7.36
16761,-8.56
16773,-27.8
16785,-47.41
16797,-64.26
16809,-76.19
16821,-82.33
16833,-82.95
16845,-78.46
16857,-69.32
16869,-55.81
16881,-38.36
16893,-17.87
16905,4.2
16917,26.24
16929,47.56
16940,67.02
16951,83.14
16963,93.69
16975,96.39
16987,89.89
16999,74.21
17011,50.88
17023,22.55
17035,-7.5
17047,-36.17
17059,-59.27
17071,-73.24
17083,-76.92
17095,-71.34
17107,-59.04
17119,-43.26
17130,-27.08
17141,-12.68
17153,-1.52
17165,6.9
17177,12.77
17189,16.14
17201,17.29
17213,16.76
17225,15.32
17237,13.83
17249,13.07
17261,13.43
17273,15.02
17285,17.27
17297,19.45
17309,21.08
17320,22.04
17331,22.52
17343,22.92
17355,23.71
17367,25.26
17379,27.79
17391,31.1
17403,34.83
17415,38.65
17427,42.34
17439,45.84
17451,49.24
17463,52.77
17475,56.67
17487,61.07
17499,65.75
17510,70.11
17521,73.37
17533,74.71
17545,73.53
17557,69.72
17569,63.7
17581,56.36
17593,48.83
17605,42.16
17617,37.11
17629,34.01
17641,32.72
17653,32.65
17665,33.0
17677,32.97
17689,32.08
17700,30.28
17711,27.96
17723,25.72
17735,24.06
17747,23.18
17759,22.9
17771,22.85
17783,22.67
17795,22.21
17807,21.58
17819,21.13
17831,21.24
17843,22.12
17855,23.73
17867,25.64
17879,27.14
17890,27.4
17901,25.63
17913,21.38
17925,14.61
17937,5.71
17949,-4.67
17961,-15.78
17973,-26.93
17985,-37.59
17997,-47.32
18009,-55.84
18021,-63.0
18033,-68.87
18045,-73.69
18057,-77.83
18069,-81.71
18080,-85.61
18091,-89.64
18103,-93.7
18115,-97.61
18127,-101.13
18139,-104.09
18151,-106.38
18163,-108.06
18175,-109.22
18187,-110.01
18199,-110.49
18211,-110.61
18223,-110.22
18235,-109.16
18247,-107.37
18259,-104.89
18270,-101.87
18281,-98.34
18293,-94.11
18305,-88.78
18317,-81.97
18329,-73.58
18341,-64.03
18353,-54.17
18365,-45.05
18377,-37.6
18389,-32.31
18401,-29.26
18413,-28.16
18425,-28.6
18437,-30.18
18449,-32.53
18460,-35.26
18471,-38.02
18483,-40.49
18495,-42.5
18507,-44.09
18519,-45.46
18531,-46.98
18543,-48.99
18555,-51.77
18567,-55.44
18579,-59.96
18591,-65.13
18603,-70.65
18615,-76.22
18627,-81.47
18639,-86.08
18650,-89.68
18661,-91.88
18673,-92.27
18685,-90.52
18697,-86.45
18709,-80.12
18721,-71.83
18733,-62.02
18745,-51.17
18757,-39.75
18769,-28.11
18781,-16.53
18793,-5.19
18805,5.78
18817,16.23
18829,26.0
18840,34.82
18851,42.28
18863,47.93
18875,51.39
18887,52.61
18899,51.97
18911,50.42
18923,49.29
18935,50.0
18947,53.66
18959,60.66
18971,70.56
18983,82.16
18995,93.75
19007,103.67
19019,110.61
19030,113.89
19041,113.46
19053,109.74
19065,103.37
19077,95.02
19089,85.33
19101,74.84
19113,64.03
19125,53.33
19137,43.12
19149,33.67
19161,25.15
19173,17.6
19185,10.91
19197,4.88
19209,-0.81
19220,-6.43
19231,-12.1
19243,-17.65
19255,-22.64
19267,-26.38
19279,-28.2
19291,-27.62
19303,-24.53
19315,-19.23
19327,-12.38
19339,-4.85
19351,2.44
19363,8.68
19375,13.34
19387,16.27
19399,17.72
19410,18.23
19421,18.46
19433,18.85
19445,19.47
19457,19.9
19469,19.44
19481,17.48
19493,13.8
19505,8.79
19517,3.3
19529,-1.72
19541,-5.54
19553,-7.85
19565,-8.69
19577,-8.33
19589,-7.08
19600,-5.27
19611,-3.3
19623,-1.64
19635,-0.67
19647,-0.43
19659,-0.34
19671,0.53
19683,3.02
19695,7.44
19707,13.29
19719,19.39
19731,24.35
19743,27.02
19755,26.98
19767,24.74
19779,21.4
19790,18.22
19801,16.3
19813,16.3
19825,18.43
19837,22.41
19849,27.65
19861,33.42
19873,39.3
19885,44.99
19897,50.13
19909,54.3
19921,57.12
19933,58.43
19945,58.34
19957,57.29
19969,55.95
19980,55.77
19991,57.7
20003,61.61
20015,66.34
20027,70.38
20039,72.59
20051,72.49
20063,70.18
20075,66.27
20087,62.87
20099,61.5
20111,62.1
20123,63.3
20135,63.69
20147,62.64
20159,60.28
20170,57.12
20181,53.69
20193,52.64
20205,55.73
20217,62.55
20229,70.88
20241,78.46
20253,84.09
20265,87.44
20277,88.59
20289,87.77
20301,88.23
20313,92.43
20325,100.41
20337,110.2
20349,120.01
20360,129.41
20371,138.69
20383,147.96
20395,138.22
20407,99.99
20419,39.51
20431,-25.4
20443,-79.53
20455,-117.17
20467,-139.65
20479,-151.27
20491,-156.59
20503,-158.36
20515,-155.94
20527,-148.07
20539,-135.4
20550,-120.76
20561,-107.11
20573,-96.07
20585,-87.85
20597,-81.72
20609,-77.58
20621,-72.58
20633,-64.55
20645,-53.69
20657,-42.22
20669,-32.6
20681,-26.13
20693,-22.95
20705,-22.42
20717,-23.52
20729,-23.77
20740,-21.42
20751,-16.51
20763,-10.66
20775,-5.73
20787,-2.85
20799,-2.3
20811,-3.7
20823,-6.44
20835,-9.14
20847,-10.83
20859,-11.45
20871,-11.72
20883,-12.44
20895,-14.01
20907,-16.45
20919,-19.44
20930,-22.55
20941,-25.06
20953,-26.49
20965,-26.83
20977,-26.54
20989,-26.26
