seconds,BVP
5,-44.33
17,-49.69
29,-56.2
41,-63.21
53,-69.49
65,-73.44
77,-73.55
89,-68.91
101,-59.56
113,-46.46
125,-31.19
136,-15.41
147,-0.48
159,12.79
171,24.04
183,33.24
195,40.42
207,45.6
219,48.81
231,50.15
243,49.92
255,48.59
267,46.77
279,45.05
291,43.85
303,43.37
315,43.58
326,44.33
337,45.41
349,46.68
361,47.94
373,48.97
385,49.4
397,48.88
409,47.12
421,44.08
433,39.98
445,35.17
457,30.05
469,24.88
481,19.81
493,14.89
505,10.15
516,5.72
527,1.65
539,-1.99
551,-5.25
563,-8.23
575,-11.08
587,-13.89
599,-16.73
611,-19.62
623,-22.54
635,-25.49
647,-28.48
659,-31.58
671,-34.86
683,-38.48
695,-42.62
706,-47.47
717,-53.06
729,-59.14
741,-65.07
753,-69.82
765,-72.21
777,-71.18
789,-66.16
801,-57.21
813,-45.13
825,-31.17
837,-16.71
849,-2.96
861,9.19
873,19.23
885,26.93
896,32.25
907,35.3
919,36.36
931,35.91
943,34.57
955,32.98
967,31.64
979,30.72
991,30.16
1003,29.7
1015,29.16
1027,28.45
1039,27.64
1051,26.83
1063,25.93
1075,24.74
1086,22.95
1097,20.39
1109,17.1
1121,13.37
1133,9.61
1145,6.12
1157,3.0
1169,0.15
1181,-2.64
1193,-5.51
1205,-8.53
1217,-11.63
1229,-14.7
1241,-17.62
1253,-20.41
1265,-23.12
1276,-25.9
1287,-28.91
1299,-32.34
1311,-36.35
1323,-40.96
1335,-46.05
1347,-51.13
1359,-55.46
1371,-58.03
1383,-57.95
1395,-54.56
1407,-47.77
1419,-38.05
1431,-26.35
1443,-13.86
1455,-1.75
1466,9.02
1477,17.81
1489,24.29
1501,28.39
1513,30.25
1525,30.2
1537,28.71
1549,26.37
1561,23.82
1573,21.59
1585,20.05
1597,19.29
1609,19.16
1621,19.42
1633,19.76
1645,19.95
1656,19.82
1667,19.32
1679,18.4
1691,17.04
1703,15.26
1715,13.05
1727,10.39
1739,7.24
1751,3.63
1763,-0.39
1775,-4.66
1787,-8.95
1799,-13.04
1811,-16.81
1823,-20.3
1835,-23.68
1846,-27.24
1857,-31.27
1869,-36.02
1881,-41.6
1893,-47.89
1905,-54.39
1917,-60.18
1929,-64.04
1941,-64.71
1953,-61.33
1965,-53.78
1977,-42.76
1989,-29.64
2001,-15.9
2013,-2.8
2025,8.94
2036,19.04
2047,27.43
2059,34.05
2071,38.71
2083,41.25
2095,41.73
2107,40.5
2119,38.24
2131,35.69
2143,33.48
2155,31.92
2167,30.98
2179,30.37
2191,29.75
2203,28.81
2215,27.45
2226,25.75
2237,23.86
2249,21.91
2261,19.86
2273,17.56
2285,14.77
2297,11.29
2309,7.1
2321,2.33
2333,-2.72
2345,-7.78
2357,-12.66
2369,-17.32
2381,-21.89
2393,-26.6
2405,-31.71
2416,-37.41
2427,-43.83
2439,-50.93
2451,-58.41
2463,-65.65
2475,-71.65
2487,-75.23
2499,-75.28
2511,-71.15
2523,-62.88
2535,-51.29
2547,-37.71
2559,-23.57
2571,-10.03
2583,2.22
2595,12.97
2606,22.2
2617,29.94
2629,36.04
2641,40.33
2653,42.77
2665,43.56
2677,43.18
2689,42.21
2701,41.18
2713,40.37
2725,39.76
2737,39.19
2749,38.48
2761,37.57
2773,36.48
2785,35.28
2796,33.95
2807,32.38
2819,30.45
2831,28.04
2843,25.11
2855,21.72
2867,17.95
2879,13.86
2891,9.49
2903,4.83
2915,-0.09
2927,-5.21
2939,-10.41
2951,-15.53
2963,-20.42
2975,-25.05
2986,-29.53
2997,-34.14
3009,-39.25
3021,-45.2
3033,-52.04
3045,-59.37
3057,-66.29
3069,-71.48
3081,-73.58
3093,-71.54
3105,-65.02
3117,-54.46
3129,-41.03
3141,-26.23
3153,-11.53
3165,1.97
3176,13.7
3187,23.45
3199,31.27
3211,37.22
3223,41.34
3235,43.67
3247,44.47
3259,44.16
3271,43.34
3283,42.58
3295,42.26
3307,42.42
3319,42.87
3331,43.35
3343,43.7
3355,43.92
3366,44.12
3377,44.35
3389,44.48
3401,44.19
3413,43.17
3425,41.2
3437,38.31
3449,34.73
3461,30.72
3473,26.47
3485,22.01
3497,17.31
3509,12.3
3521,6.96
3533,1.37
3545,-4.34
3556,-9.95
3567,-15.28
3579,-20.12
3591,-24.35
3603,-27.98
3615,-31.24
3627,-34.54
3639,-38.42
3651,-43.36
3663,-49.6
3675,-56.95
3687,-64.7
3699,-71.64
3711,-76.34
3723,-77.41
3735,-74.0
3746,-66.03
3757,-54.24
3769,-39.93
3781,-24.63
3793,-9.62
3805,4.25
3817,16.6
3829,27.27
3841,36.2
3853,43.25
3865,48.29
3877,51.3
3889,52.55
3901,52.55
3913,51.96
3925,51.4
3936,51.26
3947,51.64
3959,52.36
3971,53.11
3983,53.64
3995,53.82
4007,53.67
4019,53.28
4031,52.68
4043,51.77
4055,50.37
4067,48.24
4079,45.25
4091,41.45
4103,37.04
4115,32.29
4126,27.52
4137,22.91
4149,18.57
4161,14.49
4173,10.62
4185,6.86
4197,3.12
4209,-0.7
4221,-4.7
4233,-8.93
4245,-13.37
4257,-17.87
4269,-22.14
4281,-25.87
4293,-28.88
4305,-31.25
4316,-33.37
4327,-35.8
4339,-39.13
4351,-43.7
4363,-49.46
4375,-55.93
4387,-62.21
4399,-67.12
4411,-69.46
4423,-68.25
4435,-62.96
4447,-53.74
4459,-41.38
4471,-27.18
4483,-12.56
4495,1.17
4506,13.15
4517,22.96
4529,30.55
4541,36.06
4553,39.7
4565,41.66
4577,42.19
4589,41.65
4601,40.47
4613,39.17
4625,38.14
4637,37.57
4649,37.43
4661,37.51
4673,37.59
4685,37.53
4696,37.34
4707,37.04
4719,36.6
4731,35.85
4743,34.52
4755,32.38
4767,29.35
4779,25.57
4791,21.32
4803,16.91
4815,12.56
4827,8.37
4839,4.29
4851,0.24
4863,-3.88
4875,-8.07
4886,-12.25
4897,-16.26
4909,-19.92
4921,-23.11
4933,-25.83
4945,-28.24
4957,-30.64
4969,-33.41
4981,-36.9
4993,-41.34
5005,-46.73
5017,-52.71
5029,-58.5
5041,-63.04
5053,-65.07
5065,-63.56
5076,-58.01
5087,-48.72
5099,-36.66
5111,-23.26
5123,-9.93
5135,2.19
5147,12.45
5159,20.56
5171,26.46
5183,30.23
5195,31.98
5207,31.99
5219,30.7
5231,28.64
5243,26.38
5255,24.35
5266,22.84
5277,21.94
5289,21.58
5301,21.58
5313,21.77
5325,21.92
5337,21.89
5349,21.53
5361,20.73
5373,19.4
5385,17.45
5397,14.87
5409,11.75
5421,8.26
5433,4.63
5445,1.04
5456,-2.44
5467,-5.9
5479,-9.5
5491,-13.32
5503,-17.32
5515,-21.28
5527,-24.92
5539,-28.0
5551,-30.43
5563,-32.4
5575,-34.28
5587,-36.62
5599,-39.86
5611,-44.28
5623,-49.65
5635,-55.28
5646,-60.04
5657,-62.55
5669,-61.69
5681,-56.85
5693,-48.18
5705,-36.58
5717,-23.36
5729,-9.91
5741,2.61
5753,13.51
5765,22.38
5777,29.09
5789,33.59
5801,35.96
5813,36.43
5825,35.43
5836,33.53
5847,31.37
5859,29.46
5871,28.09
5883,27.3
5895,26.95
5907,26.84
5919,26.8
5931,26.73
5943,26.59
5955,26.33
5967,25.88
5979,25.11
5991,23.86
6003,22.02
6015,19.55
6026,16.52
6037,13.18
6049,9.78
6061,6.55
6073,3.58
6085,0.83
6097,-1.91
6109,-4.86
6121,-8.12
6133,-11.64
6145,-15.2
6157,-18.54
6169,-21.46
6181,-23.99
6193,-26.35
6205,-28.86
6216,-31.91
6227,-35.83
6239,-40.79
6251,-46.74
6263,-53.29
6275,-59.63
6287,-64.57
6299,-66.8
6311,-65.28
6323,-59.65
6335,-50.36
6347,-38.61
6359,-25.92
6371,-13.68
6383,-2.8
6395,6.37
6406,13.88
6417,19.97
6429,24.76
6441,28.29
6453,30.54
6465,31.55
6477,31.59
6489,31.05
6501,30.44
6513,30.17
6525,30.46
6537,31.26
6549,32.36
6561,33.49
6573,34.44
6585,35.14
6596,35.59
6607,35.76
6619,35.54
6631,34.71
6643,33.04
6655,30.38
6667,26.8
6679,22.57
6691,18.14
6703,13.92
6715,10.2
6727,7.05
6739,4.29
6751,1.64
6763,-1.19
6775,-4.34
6786,-7.75
6797,-11.24
6809,-14.63
6821,-17.8
6833,-20.8
6845,-23.75
6857,-26.9
6869,-30.48
6881,-34.68
6893,-39.61
6905,-45.25
6917,-51.29
6929,-57.03
6941,-61.45
6953,-63.33
6965,-61.65
6976,-55.95
6987,-46.55
6999,-34.49
7011,-21.29
7023,-8.47
7035,2.83
7047,12.08
7059,19.24
7071,24.66
7083,28.66
7095,31.48
7107,33.14
7119,33.59
7131,32.92
7143,31.37
7155,29.41
7166,27.59
7177,26.35
7189,25.89
7201,26.18
7213,27.01
7225,28.11
7237,29.25
7249,30.32
7261,31.22
7273,31.83
7285,31.9
7297,31.19
7309,29.5
7321,26.85
7333,23.45
7345,19.7
7356,16.04
7367,12.74
7379,9.86
7391,7.24
7403,4.6
7415,1.72
7427,-1.52
7439,-5.09
7451,-8.87
7463,-12.78
7475,-16.71
7487,-20.57
7499,-24.26
7511,-27.7
7523,-30.92
7535,-34.16
7546,-37.76
7557,-42.09
7569,-47.25
7581,-52.9
7593,-58.24
7605,-62.05
7617,-63.1
7629,-60.49
7641,-54.0
7653,-44.16
7665,-32.14
7677,-19.33
7689,-7.04
7701,3.87
7713,13.0
7725,20.3
7736,25.81
7747,29.59
7759,31.63
7771,32.02
7783,31.02
7795,29.14
7807,27.02
7819,25.21
7831,24.07
7843,23.66
7855,23.8
7867,24.25
7879,24.76
7891,25.15
7903,25.3
7915,25.06
7926,24.3
7937,22.91
7949,20.8
7961,18.07
7973,14.84
7985,11.35
7997,7.82
8009,4.38
8021,1.14
8033,-1.93
8045,-4.92
8057,-7.94
8069,-11.09
8081,-14.38
8093,-17.69
8105,-20.89
8116,-23.88
8127,-26.75
8139,-29.78
8151,-33.37
8163,-37.84
8175,-43.21
8187,-49.03
8199,-54.37
8211,-58.04
8223,-58.89
8235,-56.15
8247,-49.71
8259,-40.16
8271,-28.61
8283,-16.38
8295,-4.69
8306,5.61
8317,14.05
8329,20.53
8341,25.08
8353,27.81
8365,28.86
8377,28.42
8389,26.85
8401,24.69
8413,22.56
8425,20.97
8437,20.23
8449,20.36
8461,21.1
8473,22.04
8485,22.78
8496,23.01
8507,22.57
8519,21.47
8531,19.85
8543,17.87
8555,15.61
8567,13.04
8579,10.02
8591,6.37
8603,2.05
8615,-2.83
8627,-7.97
8639,-13.03
8651,-17.81
8663,-22.25
8675,-26.47
8686,-30.71
8697,-35.17
8709,-40.04
8721,-45.39
8733,-51.21
8745,-57.22
8757,-62.81
8769,-67.01
8781,-68.66
8793,-66.75
8805,-60.79
8817,-51.08
8829,-38.64
8841,-24.96
8853,-11.57
8865,0.43
8876,10.4
8887,18.26
8899,24.17
8911,28.31
8923,30.81
8935,31.71
8947,31.22
8959,29.71
8971,27.79
8983,26.13
8995,25.26
9007,25.36
9019,26.21
9031,27.3
9043,28.03
9055,28.0
9066,27.06
9077,25.38
9089,23.25
9101,20.97
9113,18.66
9125,16.19
9137,13.33
9149,9.86
9161,5.71
9173,1.07
9185,-3.71
9197,-8.23
9209,-12.24
9221,-15.74
9233,-18.91
9245,-22.08
9256,-25.54
9267,-29.55
9279,-34.31
9291,-39.89
9303,-46.22
9315,-52.92
9327,-59.23
9339,-63.96
9351,-65.81
9363,-63.7
9375,-57.18
9387,-46.64
9399,-33.25
9411,-18.62
9423,-4.35
9435,8.39
9446,18.97
9457,27.29
9469,33.55
9481,38.01
9493,40.94
9505,42.55
9517,43.13
9529,43.07
9541,42.81
9553,42.72
9565,43.01
9577,43.65
9589,44.42
9601,45.03
9613,45.31
9625,45.19
9636,44.71
9647,43.85
9659,42.54
9671,40.66
9683,38.08
9695,34.81
9707,31.0
9719,26.89
9731,22.73
9743,18.62
9755,14.53
9767,10.34
9779,5.92
9791,1.25
9803,-3.61
9815,-8.43
9826,-13.0
9837,-17.16
9849,-20.89
9861,-24.36
9873,-27.89
9885,-31.94
9897,-36.93
9909,-43.08
9921,-50.15
9933,-57.37
9945,-63.48
9957,-67.0
9969,-66.7
9981,-61.97
9993,-53.06
10005,-41.0
10016,-27.25
10027,-13.25
10039,-0.13
10051,11.5
10063,21.44
10075,29.77
10087,36.56
10099,41.85
10111,45.62
10123,47.83
10135,48.58
10147,48.13
10159,46.9
10171,45.41
10183,44.1
10195,43.27
10206,42.94
10217,42.94
10229,42.98
10241,42.75
10253,42.1
10265,40.99
10277,39.52
10289,37.75
10301,35.7
10313,33.25
10325,30.26
10337,26.66
10349,22.53
10361,18.12
10373,13.79
10385,9.83
10396,6.33
10407,3.15
10419,-0.01
10431,-3.47
10443,-7.35
10455,-11.56
10467,-15.78
10479,-19.68
10491,-23.02
10503,-25.85
10515,-28.45
10527,-31.31
10539,-34.94
10551,-39.76
10563,-45.89
10575,-53.13
10586,-60.86
10597,-68.01
10609,-73.25
10621,-75.24
10633,-72.97
10645,-66.14
10657,-55.26
10669,-41.54
10681,-26.56
10693,-11.8
10705,1.62
10717,13.17
10729,22.74
10741,30.42
10753,36.34
10765,40.53
10776,43.0
10787,43.86
10799,43.42
10811,42.21
10823,40.82
10835,39.7
10847,39.06
10859,38.82
10871,38.71
10883,38.48
10895,37.97
10907,37.23
10919,36.35
10931,35.44
10943,34.44
10955,33.19
10966,31.45
10977,29.06
10989,25.99
11001,22.42
11013,18.65
11025,14.96
11037,11.49
11049,8.14
11061,4.65
11073,0.77
11085,-3.6
11097,-8.32
11109,-13.07
11121,-17.45
11133,-21.19
11145,-24.25
11156,-26.85
11167,-29.33
11179,-32.08
11191,-35.47
11203,-39.68
11215,-44.76
11227,-50.45
11239,-56.14
11251,-60.84
11263,-63.32
11275,-62.48
11287,-57.69
11299,-49.09
11311,-37.61
11323,-24.64
11335,-11.61
11346,0.43
11357,10.97
11369,19.92
11381,27.32
11393,33.11
11405,37.05
11417,38.95
11429,38.81
11441,37.02
11453,34.29
11465,31.41
11477,29.05
11489,27.52
11501,26.81
11513,26.68
11525,26.82
11536,26.99
11547,27.03
11559,26.83
11571,26.21
11583,24.98
11595,22.94
11607,20.07
11619,16.56
11631,12.73
11643,8.97
11655,5.51
11667,2.28
11679,-0.92
11691,-4.42
11703,-8.36
11715,-12.71
11726,-17.2
11737,-21.49
11749,-25.37
11761,-28.82
11773,-32.05
11785,-35.43
11797,-39.37
11809,-44.13
11821,-49.71
11833,-55.74
11845,-61.45
11857,-65.73
11869,-67.39
11881,-65.52
11893,-59.73
11905,-50.39
11916,-38.46
11927,-25.28
11939,-12.14
11951,-0.06
11963,10.38
11975,18.87
11987,25.31
11999,29.68
12011,32.03
12023,32.55
12035,31.71
12047,30.11
12059,28.4
12071,27.07
12083,26.33
12095,26.18
12106,26.49
12117,27.12
12129,27.94
12141,28.85
12153,29.66
12165,30.1
12177,29.89
12189,28.82
12201,26.81
12213,23.98
12225,20.54
12237,16.74
12249,12.76
12261,8.72
12273,4.63
12285,0.48
12296,-3.78
12307,-8.12
12319,-12.53
12331,-16.89
12343,-21.09
12355,-25.0
12367,-28.54
12379,-31.76
12391,-34.85
12403,-38.21
12415,-42.4
12427,-47.88
12439,-54.71
12451,-62.34
12463,-69.49
12475,-74.46
12486,-75.66
12497,-72.09
12509,-63.79
12521,-51.72
12533,-37.5
12545,-22.83
12557,-9.07
12569,2.99
12581,13.09
12593,21.27
12605,27.69
12617,32.44
12629,35.61
12641,37.36
12653,38.04
12665,38.17
12676,38.29
12687,38.84
12699,39.91
12711,41.31
12723,42.62
12735,43.49
12747,43.78
12759,43.61
12771,43.22
12783,42.79
12795,42.3
12807,41.47
12819,39.91
12831,37.29
12843,33.53
12855,28.87
12866,23.78
12877,18.81
12889,14.37
12901,10.59
12913,7.27
12925,3.98
12937,0.28
12949,-4.1
12961,-9.11
12973,-14.43
12985,-19.59
12997,-24.19
13009,-28.05
13021,-31.33
13033,-34.43
13045,-37.86
13056,-42.13
13067,-47.58
13079,-54.29
13091,-61.85
13103,-69.37
13115,-75.5
13127,-78.67
13139,-77.54
13151,-71.44
13163,-60.63
13175,-46.3
13187,-30.16
13199,-13.97
13211,0.91
13223,13.74
13235,24.37
13246,33.01
13257,39.93
13269,45.3
13281,49.16
13293,51.53
13305,52.56
13317,52.58
13329,52.05
13341,51.43
13353,50.97
13365,50.68
13377,50.37
13389,49.8
13401,48.82
13413,47.45
13425,45.82
13436,44.04
13447,42.15
13459,40.01
13471,37.45
13483,34.38
13495,30.8
13507,26.88
13519,22.85
13531,18.92
13543,15.26
13555,11.93
13567,8.96
13579,6.26
13591,3.65
13603,0.89
13615,-2.27
13626,-6.01
13637,-10.37
13649,-15.18
13661,-20.15
13673,-24.87
13685,-29.02
13697,-32.5
13709,-35.45
13721,-38.28
13733,-41.52
13745,-45.64
13757,-50.9
13769,-57.15
13781,-63.77
13793,-69.67
13805,-73.46
13816,-73.84
13827,-69.93
13839,-61.63
13851,-49.66
13863,-35.37
13875,-20.27
13887,-5.73
13899,7.39
13911,18.68
13923,28.0
13935,35.27
13947,40.39
13959,43.3
13971,44.17
13983,43.45
13995,41.8
14006,39.92
14017,38.28
14029,37.07
14041,36.17
14053,35.35
14065,34.44
14077,33.47
14089,32.58
14101,31.96
14113,31.67
14125,31.53
14137,31.19
14149,30.25
14161,28.39
14173,25.6
14185,22.1
14196,18.33
14207,14.72
14219,11.57
14231,8.9
14243,6.46
14255,3.93
14267,1.0
14279,-2.45
14291,-6.33
14303,-10.36
14315,-14.28
14327,-17.94
14339,-21.37
14351,-24.81
14363,-28.59
14375,-33.03
14386,-38.32
14397,-44.41
14409,-50.82
14421,-56.66
14433,-60.73
14445,-61.85
14457,-59.14
14469,-52.41
14481,-42.27
14493,-29.9
14505,-16.77
14517,-4.13
14529,7.14
14541,16.63
14553,24.18
14565,29.69
14576,33.06
14587,34.27
14599,33.54
14611,31.43
14623,28.74
14635,26.32
14647,24.83
14659,24.45
14671,24.95
14683,25.83
14695,26.56
14707,26.74
14719,26.27
14731,25.21
14743,23.72
14755,21.87
14766,19.7
14777,17.09
14789,13.93
14801,10.13
14813,5.74
14825,0.89
14837,-4.15
14849,-9.1
14861,-13.75
14873,-18.0
14885,-21.84
14897,-25.39
14909,-28.85
14921,-32.48
14933,-36.52
14945,-41.2
14956,-46.59
14967,-52.48
14979,-58.34
14991,-63.31
15003,-66.31
15015,-66.3
15027,-62.58
15039,-55.01
15051,-44.16
15063,-31.16
15075,-17.42
15087,-4.28
15099,7.28
15111,16.78
15123,24.09
15135,29.33
15146,32.59
15157,33.94
15169,33.48
15181,31.51
15193,28.64
15205,25.65
15217,23.32
15229,22.09
15241,21.96
15253,22.5
15265,23.06
15277,23.14
15289,22.46
15301,21.12
15313,19.33
15325,17.32
15336,15.17
15347,12.79
15359,10.03
15371,6.76
15383,2.95
15395,-1.3
15407,-5.84
15419,-10.43
15431,-14.86
15443,-18.94
15455,-22.64
15467,-26.04
15479,-29.39
15491,-33.06
15503,-37.45
15515,-42.8
15526,-49.11
15537,-56.01
15549,-62.69
15561,-67.98
15573,-70.62
15585,-69.5
15597,-64.1
15609,-54.63
15621,-42.03
15633,-27.71
15645,-13.19
15657,0.3
15669,11.98
15681,21.55
15693,29.02
15705,34.55
15716,38.34
15727,40.56
15739,41.45
15751,41.34
15763,40.59
15775,39.6
15787,38.69
15799,38.08
15811,37.83
15823,37.9
15835,38.16
15847,38.42
15859,38.47
15871,38.14
15883,37.29
15895,35.84
15906,33.76
15917,31.12
15929,28.03
15941,24.59
15953,20.88
15965,16.95
15977,12.8
15989,8.44
16001,3.9
16013,-0.76
16025,-5.41
16037,-9.93
16049,-14.17
16061,-18.06
16073,-21.71
16085,-25.36
16096,-29.42
16107,-34.36
16119,-40.53
16131,-47.86
16143,-55.74
16155,-62.98
16167,-68.09
16179,-69.65
16191,-66.78
16203,-59.47
16215,-48.56
16227,-35.45
16239,-21.68
16251,-8.42
16263,3.65
16275,14.36
16286,23.72
16297,31.71
16309,38.14
16321,42.77
16333,45.49
16345,46.46
16357,46.18
16369,45.27
16381,44.31
16393,43.65
16405,43.33
16417,43.18
16429,42.98
16441,42.6
16453,42.05
16465,41.42
16476,40.72
16487,39.85
16499,38.54
16511,36.46
16523,33.37
16535,29.18
16547,24.11
16559,18.55
16571,13.02
16583,7.95
16595,3.54
16607,-0.27
16619,-3.82
16631,-7.5
16643,-11.61
16655,-16.17
16666,-20.99
16677,-25.71
16689,-30.01
16701,-33.7
16713,-36.83
16725,-39.66
16737,-42.6
16749,-46.15
16761,-50.75
16773,-56.62
16785,-63.53
16797,-70.67
16809,-76.74
16821,-80.18
16833,-79.66
16845,-74.49
16856,-64.95
16867,-52.03
16879,-37.23
16891,-22.02
16903,-7.5
16915,5.69
16927,17.31
16939,27.27
16951,35.51
16963,41.92
16975,46.44
16987,49.15
16999,50.35
17011,50.55
17023,50.34
17035,50.16
17046,50.27
17057,50.57
17069,50.78
17081,50.56
17093,49.72
17105,48.34
17117,46.69
17129,45.11
17141,43.83
17153,42.72
17165,41.41
17177,39.41
17189,36.37
17201,32.23
17213,27.3
17225,22.1
17236,17.15
17247,12.76
17259,8.91
17271,5.26
17283,1.38
17295,-3.05
17307,-8.08
17319,-13.4
17331,-18.57
17343,-23.18
17355,-27.05
17367,-30.32
17379,-33.39
17391,-36.8
17403,-40.99
17415,-46.22
17426,-52.45
17437,-59.31
17449,-66.04
17461,-71.55
17473,-74.6
17485,-74.07
17497,-69.25
17509,-60.15
17521,-47.55
17533,-32.82
17545,-17.59
17557,-3.31
17569,9.0
17581,18.84
17593,26.12
17605,30.97
17616,33.64
17627,34.47
17639,33.89
17651,32.42
17663,30.59
17675,28.89
17687,27.67
17699,27.05
17711,27.03
17723,27.47
17735,28.15
17747,28.82
17759,29.24
17771,29.2
17783,28.52
17795,27.09
17806,24.91
17817,22.05
17829,18.64
17841,14.87
17853,10.89
17865,6.77
17877,2.52
17889,-1.89
17901,-6.47
17913,-11.17
17925,-15.87
17937,-20.39
17949,-24.6
17961,-28.5
17973,-32.17
17985,-35.86
17996,-39.81
18007,-44.32
18019,-49.46
18031,-55.1
18043,-60.67
18055,-65.23
18067,-67.56
18079,-66.48
18091,-61.28
18103,-51.95
18115,-39.27
18127,-24.67
18139,-9.78
18151,4.02
18163,15.77
18175,25.1
18186,32.01
18197,36.67
18209,39.28
18221,40.07
18233,39.35
18245,37.6
18257,35.39
18269,33.3
18281,31.76
18293,30.93
18305,30.75
18317,30.96
18329,31.27
18341,31.39
18353,31.17
18365,30.51
18376,29.39
18387,27.78
18399,25.65
18411,22.96
18423,19.69
18435,15.86
18447,11.62
18459,7.11
18471,2.51
18483,-2.1
18495,-6.72
18507,-11.44
18519,-16.34
18531,-21.39
18543,-26.5
18555,-31.53
18566,-36.4
18577,-41.16
18589,-46.06
18601,-51.51
18613,-57.8
18625,-64.98
18637,-72.57
18649,-79.47
18661,-84.19
18673,-85.19
18685,-81.46
18697,-72.82
18709,-60.06
18721,-44.63
18733,-28.25
18745,-12.36
18756,2.07
18767,14.6
18779,25.11
18791,33.58
18803,39.99
18815,44.3
18827,46.62
18839,47.23
18851,46.62
18863,45.36
18875,44.02
18887,43.01
18899,42.49
18911,42.43
18923,42.62
18935,42.81
18946,42.79
18957,42.43
18969,41.72
18981,40.67
18993,39.22
19005,37.23
19017,34.51
19029,30.99
19041,26.74
19053,22.09
19065,17.43
19077,13.09
19089,9.14
19101,5.36
19113,1.29
19125,-3.43
19136,-8.96
19147,-15.08
19159,-21.31
19171,-27.15
19183,-32.24
19195,-36.51
19207,-40.16
19219,-43.61
19231,-47.38
19243,-51.96
19255,-57.56
19267,-63.97
19279,-70.36
19291,-75.38
19303,-77.37
19315,-74.92
19326,-67.33
19337,-54.91
19349,-38.96
19361,-21.28
19373,-3.67
19385,12.56
19397,26.76
19409,38.76
19421,48.61
19433,56.29
19445,61.71
19457,64.81
19469,65.74
19481,64.96
19493,63.13
19505,60.92
19516,58.77
19527,56.85
19539,55.13
19551,53.45
19563,51.78
19575,50.15
19587,48.62
19599,47.24
19611,45.87
19623,44.31
19635,42.26
19647,39.49
19659,35.89
19671,31.52
19683,26.58
19695,21.4
19706,16.36
19717,11.74
19729,7.65
19741,4.0
19753,0.53
19765,-3.04
19777,-6.91
19789,-11.13
19801,-15.59
19813,-20.13
19825,-24.64
19837,-29.12
19849,-33.69
19861,-38.52
19873,-43.84
19885,-49.8
19896,-56.46
19907,-63.59
19919,-70.59
19931,-76.42
19943,-79.76
19955,-79.4
19967,-74.57
19979,-65.31
19991,-52.51
20003,-37.65
20015,-22.37
20027,-7.99
20039,4.69
20051,15.38
20063,24.09
20075,30.83
20086,35.54
20097,38.16
20109,38.83
20121,37.96
20133,36.24
20145,34.44
20157,33.2
20169,32.76
20181,33.06
20193,33.76
20205,34.45
20217,34.8
20229,34.64
20241,33.99
20253,32.95
20265,31.67
20276,30.22
20287,28.55
20299,26.55
20311,24.08
20323,21.06
20335,17.5
20347,13.5
20359,9.23
20371,4.87
20383,0.59
20395,-3.51
20407,-7.41
20419,-11.19
20431,-15.03
20443,-19.2
20455,-23.96
20466,-29.48
20477,-35.74
20489,-42.45
20501,-49.0
20513,-54.45
20525,-57.74
20537,-57.85
20549,-54.15
20561,-46.58
20573,-35.76
20585,-22.86
20597,-9.27
20609,3.75
20621,15.26
20633,24.76
20645,31.99
20656,36.87
20667,39.34
20679,39.44
20691,37.43
20703,33.9
20715,29.64
20727,25.57
20739,22.4
20751,20.46
20763,19.63
20775,19.45
20787,19.33
20799,18.8
20811,17.64
20823,15.89
20835,13.73
20846,11.34
20857,8.75
20869,5.82
20881,2.31
20893,-1.97
20905,-7.01
20917,-12.57
20929,-18.2
20941,-23.45
20953,-28.01
20965,-31.88
20977,-35.33
20989,-38.83
