seconds,BVP
3,-0.86
15,-1.64
26,-2.27
37,-2.7
49,-2.95
61,-3.03
73,-2.95
85,-2.63
97,-2.04
109,-1.2
121,-0.24
133,0.64
145,1.29
157,1.66
169,1.83
181,1.94
193,2.08
205,2.28
216,2.48
227,2.63
239,2.73
251,2.85
263,3.05
275,3.37
287,3.71
299,3.9
311,3.78
323,3.3
335,2.52
347,1.65
359,0.94
371,0.53
383,0.41
395,0.48
406,0.55
417,0.49
429,0.23
441,-0.22
453,-0.75
465,-1.2
477,-1.39
489,-1.19
501,-0.57
513,0.36
525,1.42
537,2.35
549,3.03
561,3.4
573,3.52
585,3.48
596,3.29
607,2.93
619,2.36
631,1.64
643,0.93
655,0.43
667,0.28
679,0.42
691,0.7
703,0.87
715,0.78
727,0.4
739,-0.15
751,-0.74
763,-1.25
775,-1.64
786,-1.92
797,-2.12
809,-2.25
821,-2.3
833,-2.29
845,-2.25
857,-2.22
869,-2.25
881,-2.3
893,-2.32
905,-2.21
917,-1.9
929,-1.34
941,-0.57
953,0.33
965,1.22
976,2.0
987,2.57
999,2.86
1011,2.84
1023,2.5
1035,1.85
1047,0.98
1059,0.05
1071,-0.74
1083,-1.26
1095,-1.45
1107,-1.39
1119,-1.23
1131,-1.16
1143,-1.29
1155,-1.62
1166,-2.05
1177,-2.46
1189,-2.77
1201,-2.95
1213,-3.04
1225,-3.1
1237,-3.18
1249,-3.27
1261,-3.34
1273,-3.29
1285,-3.02
1297,-2.48
1309,-1.7
1321,-0.75
1333,0.21
1345,1.06
1356,1.72
1367,2.18
1379,2.49
1391,2.74
1403,2.9
1415,2.92
1427,2.67
1439,2.12
1451,1.33
1463,0.47
1475,-0.23
1487,-0.68
1499,-0.84
1511,-0.84
1523,-0.78
1535,-0.76
1546,-0.81
1557,-0.89
1569,-0.99
1581,-1.11
1593,-1.26
1605,-1.46
1617,-1.72
1629,-2.08
1641,-2.55
1653,-3.13
1665,-3.68
1677,-4.01
1689,-3.89
1701,-3.24
1713,-2.2
1725,-1.09
1736,-0.29
1747,-0.02
1759,-0.24
1771,-0.69
1783,-1.05
1795,-1.11
1807,-0.88
1819,-0.52
1831,-0.24
1843,-0.11
1855,-0.1
1867,-0.1
1879,-0.02
1891,0.1
1903,0.18
1915,0.14
1926,0.02
1937,-0.06
1949,0.02
1961,0.22
1973,0.41
1985,0.35
1997,-0.17
2009,-1.14
2021,-2.38
2033,-3.59
2045,-4.45
2057,-4.73
2069,-4.41
2081,-3.61
2093,-2.59
2105,-1.59
2116,-0.83
2127,-0.36
2139,-0.11
2151,0.03
2163,0.17
2175,0.35
2187,0.49
2199,0.55
2211,0.51
2223,0.42
2235,0.38
2247,0.41
2259,0.46
2271,0.4
2283,0.19
2295,-0.1
2306,-0.35
2317,-0.42
2329,-0.27
2341,-0.04
2353,0.09
2365,-0.06
2377,-0.56
2389,-1.32
2401,-2.18
2413,-2.94
2425,-3.46
2437,-3.67
2449,-3.54
2461,-3.11
2473,-2.45
2485,-1.69
2496,-0.97
2507,-0.43
2519,-0.16
2531,-0.15
2543,-0.31
2555,-0.48
2567,-0.56
2579,-0.49
2591,-0.32
2603,-0.17
2615,-0.16
2627,-0.31
2639,-0.61
2651,-0.92
2663,-1.14
2675,-1.26
2686,-1.3
2697,-1.4
2709,-1.66
2721,-2.12
2733,-2.69
2745,-3.23
2757,-3.59
2769,-3.68
2781,-3.51
2793,-3.12
2805,-2.64
2817,-2.13
2829,-1.62
2841,-1.08
2853,-0.51
2865,0.05
2876,0.55
2887,0.89
2899,0.98
2911,0.85
2923,0.55
2935,0.18
2947,-0.13
2959,-0.34
2971,-0.43
2983,-0.44
2995,-0.41
3007,-0.38
3019,-0.37
3031,-0.38
3043,-0.4
3055,-0.4
3066,-0.37
3077,-0.31
3089,-0.24
3101,-0.17
3113,-0.11
3125,-0.11
3137,-0.17
3149,-0.28
3161,-0.41
3173,-0.48
3185,-0.43
3197,-0.2
3209,0.13
3221,0.46
3233,0.6
3245,0.44
3256,-0.07
3267,-0.85
3279,-1.79
3291,-2.69
3303,-3.43
3315,-3.95
3327,-4.22
3339,-4.26
3351,-4.08
3363,-3.75
3375,-3.3
3387,-2.81
3399,-2.36
3411,-2.0
3423,-1.74
3435,-1.55
3446,-1.39
3457,-1.23
3469,-1.05
3481,-0.87
3493,-0.67
3505,-0.45
3517,-0.16
3529,0.21
3541,0.66
3553,1.11
3565,1.46
3577,1.61
3589,1.48
3601,1.11
3613,0.55
3625,-0.07
3636,-0.69
3647,-1.26
3659,-1.82
3671,-2.38
3683,-2.93
3695,-3.39
3707,-3.6
3719,-3.42
3731,-2.82
3743,-1.9
3755,-0.9
3767,-0.11
3779,0.25
3791,0.14
3803,-0.32
3815,-0.89
3826,-1.34
3837,-1.56
3849,-1.61
3861,-1.61
3873,-1.7
3885,-1.94
3897,-2.27
3909,-2.54
3921,-2.61
3933,-2.42
3945,-2.02
3957,-1.58
3969,-1.21
3981,-1.0
3993,-0.93
4005,-0.91
4016,-0.9
4027,-0.94
4039,-1.11
4051,-1.47
4063,-2.0
4075,-2.56
4087,-2.95
4099,-3.04
4111,-2.83
4123,-2.42
4135,-1.99
4147,-1.63
4159,-1.37
4171,-1.13
4183,-0.86
4195,-0.57
4206,-0.34
4217,-0.28
4229,-0.42
4241,-0.72
4253,-1.08
4265,-1.41
4277,-1.69
4289,-1.96
4301,-2.25
4313,-2.59
4325,-2.91
4337,-3.14
4349,-3.27
4361,-3.29
4373,-3.25
4385,-3.12
4396,-2.86
4407,-2.43
4419,-1.86
4431,-1.29
4443,-0.87
4455,-0.7
4467,-0.71
4479,-0.72
4491,-0.56
4503,-0.14
4515,0.41
4527,0.85
4539,0.96
4551,0.67
4563,0.09
4575,-0.53
4586,-1.0
4597,-1.22
4609,-1.23
4621,-1.16
4633,-1.11
4645,-1.15
4657,-1.25
4669,-1.36
4681,-1.42
4693,-1.39
4705,-1.25
4717,-0.98
4729,-0.61
4741,-0.21
4753,0.07
4765,0.07
4776,-0.24
4787,-0.81
4799,-1.4
4811,-1.78
4823,-1.78
4835,-1.45
4847,-0.96
4859,-0.54
4871,-0.33
4883,-0.35
4895,-0.5
4907,-0.67
4919,-0.83
4931,-1.0
4943,-1.26
4955,-1.6
4966,-1.95
4977,-2.18
4989,-2.22
5001,-2.11
5013,-1.99
5025,-2.08
5037,-2.49
5049,-3.17
5061,-3.94
5073,-4.53
5085,-4.72
5097,-4.43
5109,-3.76
5121,-2.93
5133,-2.19
5145,-1.73
5156,-1.62
5167,-1.83
5179,-2.19
5191,-2.49
5203,-2.55
5215,-2.34
5227,-1.93
5239,-1.48
5251,-1.13
5263,-0.93
5275,-0.84
5287,-0.8
5299,-0.75
5311,-0.69
5323,-0.69
5335,-0.77
5346,-0.94
5357,-1.13
5369,-1.33
5381,-1.53
5393,-1.73
5405,-1.97
5417,-2.23
5429,-2.52
5441,-2.81
5453,-3.05
5465,-3.16
5477,-3.06
5489,-2.75
5501,-2.28
5513,-1.82
5525,-1.57
5536,-1.67
5547,-2.16
5559,-2.87
5571,-3.55
5583,-3.91
5595,-3.82
5607,-3.29
5619,-2.49
5631,-1.66
5643,-1.0
5655,-0.58
5667,-0.37
5679,-0.28
5691,-0.26
5703,-0.3
5715,-0.48
5726,-0.84
5737,-1.32
5749,-1.82
5761,-2.18
5773,-2.33
5785,-2.33
5797,-2.31
5809,-2.37
5821,-2.53
5833,-2.69
5845,-2.75
5857,-2.64
5869,-2.41
5881,-2.14
5893,-1.89
5905,-1.68
5916,-1.44
5927,-1.16
5939,-0.82
5951,-0.52
5963,-0.32
5975,-0.25
5987,-0.3
5999,-0.33
6011,-0.25
6023,0.0
6035,0.42
6047,0.93
6059,1.4
6071,1.74
6083,1.92
6095,1.95
6106,1.93
6117,1.9
6129,1.88
6141,1.8
6153,1.54
6165,1.02
6177,0.26
6189,-0.63
6201,-1.5
6213,-2.2
6225,-2.63
6237,-2.76
6249,-2.62
6261,-2.23
6273,-1.65
6285,-0.99
6296,-0.41
6307,-0.1
6319,-0.14
6331,-0.48
6343,-0.91
6355,-1.23
6367,-1.31
6379,-1.17
6391,-0.97
6403,-0.86
6415,-0.89
6427,-1.01
6439,-1.09
6451,-1.09
6463,-1.01
6475,-0.93
6486,-0.93
6497,-1.03
6509,-1.2
6521,-1.36
6533,-1.47
6545,-1.48
6557,-1.44
6569,-1.38
6581,-1.36
6593,-1.44
6605,-1.64
6617,-1.94
6629,-2.23
6641,-2.38
6653,-2.3
6665,-2.0
6676,-1.57
6687,-1.15
6699,-0.81
6711,-0.53
6723,-0.22
6735,0.15
6747,0.53
6759,0.8
6771,0.88
6783,0.79
6795,0.71
6807,0.83
6819,1.26
6831,1.96
6843,2.73
6855,3.35
6866,3.7
6877,3.76
6889,3.65
6901,3.46
6913,3.23
6925,2.94
6937,2.59
6949,2.18
6961,1.78
6973,1.45
6985,1.2
6997,1.0
7009,0.78
7021,0.5
7033,0.18
7045,-0.11
7056,-0.34
7067,-0.46
7079,-0.49
7091,-0.45
7103,-0.33
7115,-0.11
7127,0.22
7139,0.59
7151,0.91
7163,1.08
7175,1.06
7187,0.9
7199,0.7
7211,0.55
7223,0.45
7235,0.34
7246,0.17
7257,-0.12
7269,-0.49
7281,-0.85
7293,-1.11
7305,-1.18
7317,-1.06
7329,-0.82
7341,-0.59
7353,-0.51
7365,-0.73
7377,-1.27
7389,-2.09
7401,-3.03
7413,-3.96
7425,-4.79
7436,-5.51
7447,-6.16
7459,-6.79
7471,-7.37
7483,-7.82
7495,-8.1
7507,-8.2
7519,-8.22
7531,-8.25
7543,-8.33
7555,-8.4
7567,-8.39
7579,-8.19
7591,-7.76
7603,-7.16
7615,-6.5
7626,-5.9
7637,-5.48
7649,-5.25
7661,-5.16
7673,-5.02
7685,-4.58
7697,-3.58
7709,-1.88
7721,0.46
7733,3.14
7745,5.77
7757,8.02
7769,9.74
7781,10.92
7793,11.6
7805,11.74
7816,11.23
7827,9.91
7839,7.77
7851,5.02
7863,2.04
7875,-0.75
7887,-3.06
7899,-4.85
7911,-6.26
7923,-7.49
7935,-8.66
7947,-9.7
7959,-10.48
7971,-10.86
7983,-10.82
7995,-10.48
8006,-10.0
8017,-9.47
8029,-8.84
8041,-8.01
8053,-6.88
8065,-5.52
8077,-4.11
8089,-2.89
8101,-2.05
8113,-1.57
8125,-1.36
8137,-1.23
8149,-1.1
8161,-0.93
8173,-0.76
8185,-0.6
8196,-0.44
8207,-0.27
8219,-0.08
8231,0.12
8243,0.33
8255,0.62
8267,1.1
8279,1.85
8291,2.92
8303,4.25
8315,5.7
8327,7.1
8339,8.29
8351,9.2
8363,9.79
8375,10.1
8386,10.16
8397,9.99
8409,9.62
8421,9.08
8433,8.41
8445,7.67
8457,6.83
8469,5.84
8481,4.59
8493,3.05
8505,1.41
8517,0.09
8529,-0.38
8541,0.4
8553,2.53
8565,5.67
8576,9.25
8587,12.66
8599,15.55
8611,17.86
8623,19.76
8635,21.55
8647,23.49
8659,25.81
8671,28.69
8683,32.26
8695,36.5
8707,41.2
8719,46.0
8731,50.43
8743,54.11
8755,56.84
8766,58.55
8777,59.27
8789,58.97
8801,57.42
8813,54.34
8825,49.39
8837,42.37
8849,33.28
8861,22.39
8873,10.17
8885,-2.8
8897,-15.93
8909,-28.74
8921,-40.83
8933,-51.92
8945,-61.76
8956,-70.2
8967,-77.17
8979,-82.66
8991,-86.78
9003,-89.56
9015,-91.0
9027,-90.97
9039,-89.34
9051,-86.07
9063,-81.26
9075,-75.1
9087,-67.81
9099,-59.56
9111,-50.41
9123,-40.44
9135,-29.81
9146,-18.87
9157,-8.15
9169,1.74
9181,10.25
9193,16.97
9205,21.71
9217,24.47
9229,25.43
9241,24.86
9253,23.12
9265,20.56
9277,17.56
9289,14.44
9301,11.54
9313,9.09
9325,7.27
9336,6.12
9347,5.53
9359,5.28
9371,5.17
9383,5.04
9395,4.85
9407,4.68
9419,4.62
9431,4.76
9443,5.06
9455,5.48
9467,5.91
9479,6.29
9491,6.54
9503,6.64
9515,6.53
9526,6.16
9537,5.51
9549,4.6
9561,3.52
9573,2.38
9585,1.38
9597,0.62
9609,0.18
9621,0.05
9633,0.13
9645,0.31
9657,0.5
9669,0.67
9681,0.88
9693,1.13
9705,1.39
9716,1.57
9727,1.55
9739,1.32
9751,0.96
9763,0.61
9775,0.4
9787,0.34
9799,0.33
9811,0.24
9823,0.0
9835,-0.32
9847,-0.62
9859,-0.74
9871,-0.66
9883,-0.46
9895,-0.24
9906,-0.08
9917,0.04
9929,0.18
9941,0.37
9953,0.58
9965,0.66
9977,0.46
9989,-0.15
10001,-1.16
10013,-2.45
10025,-3.83
10037,-5.13
10049,-6.21
10061,-6.99
10073,-7.45
10085,-7.54
10096,-7.25
10107,-6.54
10119,-5.48
10131,-4.19
10143,-2.9
10155,-1.88
10167,-1.31
10179,-1.22
10191,-1.45
10203,-1.72
10215,-1.76
10227,-1.42
10239,-0.68
10251,0.35
10263,1.52
10275,2.74
10286,3.92
10297,5.03
10309,6.01
10321,6.81
10333,7.46
10345,8.03
10357,8.65
10369,9.39
10381,10.22
10393,11.0
10405,11.53
10417,11.71
10429,11.53
10441,11.09
10453,10.51
10465,9.81
10476,8.97
10487,7.9
10499,6.62
10511,5.2
10523,3.8
10535,2.53
10547,1.48
10559,0.65
10571,0.01
10583,-0.39
10595,-0.56
10607,-0.46
10619,-0.19
10631,0.16
10643,0.44
10655,0.59
10666,0.62
10677,0.64
10689,0.75
10701,1.04
10713,1.49
10725,2.03
10737,2.57
10749,3.02
10761,3.37
10773,3.65
10785,3.9
10797,4.2
10809,4.59
10821,5.08
10833,5.66
10845,6.29
10856,7.01
10867,7.85
10879,8.86
10891,10.04
10903,11.31
10915,12.55
10927,13.65
10939,14.54
10951,15.23
10963,15.78
10975,16.25
10987,16.61
10999,16.68
11011,16.26
11023,15.14
11035,13.28
11046,10.82
11057,8.04
11069,5.24
11081,2.64
11093,0.38
11105,-1.58
11117,-3.23
11129,-4.57
11141,-5.56
11153,-6.15
11165,-6.42
11177,-6.51
11189,-6.66
11201,-7.01
11213,-7.62
11225,-8.39
11236,-9.1
11247,-9.57
11259,-9.65
11271,-9.34
11283,-8.72
11295,-7.97
11307,-7.28
11319,-6.81
11331,-6.67
11343,-6.86
11355,-7.28
11367,-7.81
11379,-8.31
11391,-8.67
11403,-8.89
11415,-9.02
11426,-9.17
11437,-9.42
11449,-9.87
11461,-10.55
11473,-11.47
11485,-12.57
11497,-13.7
11509,-14.65
11521,-15.22
11533,-15.27
11545,-14.77
11557,-13.8
11569,-12.49
11581,-10.96
11593,-9.26
11605,-7.43
11616,-5.47
11627,-3.43
11639,-1.39
11651,0.55
11663,2.32
11675,3.9
11687,5.31
11699,6.62
11711,7.9
11723,9.2
11735,10.48
11747,11.7
11759,12.84
11771,13.91
11783,15.02
11795,16.36
11806,18.08
11817,20.26
11829,22.86
11841,25.75
11853,28.78
11865,31.84
11877,34.87
11889,37.82
11901,40.57
11913,42.85
11925,44.26
11937,44.4
11949,42.98
11961,39.92
11973,35.41
11985,29.78
11996,23.41
12007,16.68
12019,9.9
12031,3.32
12043,-2.79
12055,-8.2
12067,-12.67
12079,-16.05
12091,-18.25
12103,-19.23
12115,-19.08
12127,-17.92
12139,-15.99
12151,-13.62
12163,-11.15
12175,-8.89
12186,-7.06
12197,-5.73
12209,-4.87
12221,-4.41
12233,-4.34
12245,-4.66
12257,-5.4
12269,-6.54
12281,-7.89
12293,-9.19
12305,-10.12
12317,-10.46
12329,-10.21
12341,-9.53
12353,-8.74
12365,-8.08
12376,-7.72
12387,-7.64
12399,-7.74
12411,-7.89
12423,-7.95
12435,-7.81
12447,-7.36
12459,-6.59
12471,-5.65
12483,-4.86
12495,-4.68
12507,-5.56
12519,-7.69
12531,-10.96
12543,-14.98
12555,-19.22
12566,-23.24
12577,-26.73
12589,-29.6
12601,-31.85
12613,-33.55
12625,-34.75
12637,-35.47
12649,-35.68
12661,-35.3
12673,-34.16
12685,-32.08
12697,-28.92
12709,-24.69
12721,-19.54
12733,-13.86
12745,-8.14
12756,-2.9
12767,1.43
12779,4.6
12791,6.61
12803,7.68
12815,8.15
12827,8.39
12839,8.63
12851,8.96
12863,9.28
12875,9.42
12887,9.24
12899,8.65
12911,7.7
12923,6.51
12935,5.23
12946,4.03
12957,3.03
12969,2.35
12981,2.01
12993,2.01
13005,2.29
13017,2.77
13029,3.35
13041,3.99
13053,4.63
13065,5.24
13077,5.77
13089,6.15
13101,6.31
13113,6.19
13125,5.75
13136,5.01
13147,4.06
13159,3.01
13171,2.02
13183,1.15
13195,0.42
13207,-0.23
13219,-0.85
13231,-1.49
13243,-2.16
13255,-2.86
13267,-3.62
13279,-4.47
13291,-5.44
13303,-6.51
13315,-7.62
13326,-8.6
13337,-9.33
13349,-9.73
13361,-9.79
13373,-9.51
13385,-8.86
13397,-7.77
13409,-6.19
13421,-4.18
13433,-1.96
13445,0.16
13457,1.84
13469,2.85
13481,3.14
13493,2.83
13505,2.16
13516,1.36
13527,0.63
13539,0.06
13551,-0.32
13563,-0.49
13575,-0.48
13587,-0.32
13599,-0.02
13611,0.38
13623,0.84
13635,1.31
13647,1.74
13659,2.08
13671,2.31
13683,2.49
13695,2.68
13706,3.04
13717,3.67
13729,4.64
13741,5.92
13753,7.35
13765,8.74
13777,9.93
13789,10.88
13801,11.65
13813,12.38
13825,13.16
13837,13.98
13849,14.8
13861,15.59
13873,16.41
13885,17.4
13896,18.73
13907,20.44
13919,22.42
13931,24.45
13943,26.2
13955,27.47
13967,28.11
13979,28.15
13991,27.6
14003,26.46
14015,24.7
14027,22.27
14039,19.23
14051,15.72
14063,11.97
14075,8.18
14086,4.5
14097,0.96
14109,-2.43
14121,-5.72
14133,-8.85
14145,-11.74
14157,-14.25
14169,-16.29
14181,-17.82
14193,-18.87
14205,-19.54
14217,-19.88
14229,-19.95
14241,-19.75
14253,-19.3
14265,-18.63
14276,-17.81
14287,-16.93
14299,-16.1
14311,-15.43
14323,-15.0
14335,-14.83
14347,-14.89
14359,-15.07
14371,-15.21
14383,-15.17
14395,-14.82
14407,-14.13
14419,-13.1
14431,-11.85
14443,-10.46
14455,-9.06
14466,-7.71
14477,-6.46
14489,-5.32
14501,-4.3
14513,-3.4
14525,-2.62
14537,-1.97
14549,-1.49
14561,-1.25
14573,-1.28
14585,-1.57
14597,-1.98
14609,-2.34
14621,-2.48
14633,-2.29
14645,-1.83
14656,-1.25
14667,-0.73
14679,-0.41
14691,-0.36
14703,-0.56
14715,-0.94
14727,-1.44
14739,-1.93
14751,-2.31
14763,-2.46
14775,-2.29
14787,-1.8
14799,-1.09
14811,-0.34
14823,0.28
14835,0.67
14846,0.83
14857,0.82
14869,0.7
14881,0.48
14893,0.15
14905,-0.29
14917,-0.84
14929,-1.4
14941,-1.89
14953,-2.25
14965,-2.47
14977,-2.59
14989,-2.7
15001,-2.87
15013,-3.17
15025,-3.62
15036,-4.2
15047,-4.86
15059,-5.53
15071,-6.11
15083,-6.49
15095,-6.55
15107,-6.27
15119,-5.61
15131,-4.63
15143,-3.41
15155,-2.1
15167,-0.82
15179,0.26
15191,1.09
15203,1.69
15215,2.16
15226,2.63
15237,3.24
15249,4.04
15261,5.02
15273,6.11
15285,7.14
15297,7.98
15309,8.5
15321,8.69
15333,8.59
15345,8.32
15357,8.01
15369,7.76
15381,7.62
15393,7.53
15405,7.4
15416,7.16
15427,6.75
15439,6.2
15451,5.62
15463,5.14
15475,4.9
15487,4.96
15499,5.32
15511,5.88
15523,6.52
15535,7.13
15547,7.69
15559,8.18
15571,8.57
15583,8.81
15595,8.82
15606,8.56
15617,8.05
15629,7.43
15641,6.83
15653,6.37
15665,6.04
15677,5.78
15689,5.48
15701,5.12
15713,4.73
15725,4.37
15737,4.07
15749,3.82
15761,3.53
15773,3.11
15785,2.51
15796,1.78
15807,1.04
15819,0.46
15831,0.14
15843,0.08
15855,0.2
15867,0.36
15879,0.47
15891,0.51
15903,0.53
15915,0.57
15927,0.58
15939,0.46
15951,0.05
15963,-0.68
15975,-1.61
15986,-2.49
15997,-3.08
16009,-3.26
16021,-3.16
16033,-3.05
16045,-3.18
16057,-3.65
16069,-4.34
16081,-4.99
16093,-5.4
16105,-5.51
16117,-5.46
16129,-5.48
16141,-5.7
16153,-6.12
16165,-6.54
16176,-6.71
16187,-6.47
16199,-5.82
16211,-4.9
16223,-3.89
16235,-2.92
16247,-2.01
16259,-1.13
16271,-0.27
16283,0.51
16295,1.13
16307,1.51
16319,1.68
16331,1.69
16343,1.66
16355,1.69
16366,1.79
16377,1.9
16389,1.97
16401,1.97
16413,1.93
16425,1.95
16437,2.14
16449,2.51
16461,3.03
16473,3.57
16485,3.99
16497,4.19
16509,4.17
16521,4.02
16533,3.88
16545,3.88
16556,4.06
16567,4.34
16579,4.58
16591,4.64
16603,4.49
16615,4.17
16627,3.8
16639,3.47
16651,3.2
16663,2.99
16675,2.79
16687,2.59
16699,2.37
16711,2.09
16723,1.72
16735,1.19
16746,0.51
16757,-0.21
16769,-0.86
16781,-1.31
16793,-1.59
16805,-1.83
16817,-2.19
16829,-2.74
16841,-3.45
16853,-4.12
16865,-4.6
16877,-4.8
16889,-4.76
16901,-4.56
16913,-4.26
16925,-3.88
16936,-3.44
16947,-2.99
16959,-2.63
16971,-2.47
16983,-2.56
16995,-2.79
17007,-3.03
17019,-3.06
17031,-2.77
17043,-2.16
17055,-1.32
17067,-0.42
17079,0.42
17091,1.1
17103,1.65
17115,2.09
17126,2.46
17137,2.75
17149,2.94
17161,2.94
17173,2.7
17185,2.22
17197,1.58
17209,0.89
17221,0.28
17233,-0.17
17245,-0.41
17257,-0.52
17269,-0.55
17281,-0.57
17293,-0.58
17305,-0.5
17316,-0.29
17327,0.06
17339,0.46
17351,0.8
17363,0.97
17375,0.94
17387,0.76
17399,0.56
17411,0.41
17423,0.34
17435,0.29
17447,0.17
17459,-0.04
17471,-0.32
17483,-0.59
17495,-0.81
17506,-0.98
17517,-1.21
17529,-1.57
17541,-2.1
17553,-2.73
17565,-3.3
17577,-3.65
17589,-3.66
17601,-3.34
17613,-2.78
17625,-2.19
17637,-1.74
17649,-1.55
17661,-1.59
17673,-1.77
17685,-1.91
17696,-1.88
17707,-1.65
17719,-1.31
17731,-1.03
17743,-0.98
17755,-1.23
17767,-1.7
17779,-2.22
17791,-2.61
17803,-2.79
17815,-2.79
17827,-2.77
17839,-2.85
17851,-3.06
17863,-3.36
17875,-3.66
17886,-3.87
17897,-3.92
17909,-3.82
17921,-3.52
17933,-3.01
17945,-2.28
17957,-1.42
17969,-0.59
17981,0.03
17993,0.34
18005,0.37
18017,0.25
18029,0.17
18041,0.24
18053,0.46
18065,0.78
18076,1.14
18087,1.49
18099,1.86
18111,2.22
18123,2.55
18135,2.79
18147,2.9
18159,2.89
18171,2.85
18183,2.85
18195,2.96
18207,3.17
18219,3.47
18231,3.79
18243,4.08
18255,4.32
18266,4.48
18277,4.54
18289,4.51
18301,4.42
18313,4.33
18325,4.3
18337,4.4
18349,4.63
18361,4.9
18373,5.07
18385,4.98
18397,4.58
18409,3.95
18421,3.28
18433,2.74
18445,2.48
18456,2.55
18467,2.89
18479,3.38
18491,3.9
18503,4.35
18515,4.66
18527,4.77
18539,4.7
18551,4.55
18563,4.4
18575,4.37
18587,4.46
18599,4.65
18611,4.82
18623,4.87
18635,4.76
18646,4.49
18657,4.12
18669,3.68
18681,3.17
18693,2.58
18705,1.88
18717,1.12
18729,0.36
18741,-0.29
18753,-0.73
18765,-0.92
18777,-0.96
18789,-0.99
18801,-1.16
18813,-1.56
18825,-2.17
18836,-2.85
18847,-3.45
18859,-3.82
18871,-3.9
18883,-3.76
18895,-3.53
18907,-3.36
18919,-3.34
18931,-3.45
18943,-3.55
18955,-3.46
18967,-3.09
18979,-2.5
18991,-1.89
19003,-1.44
19015,-1.27
19026,-1.34
19037,-1.52
19049,-1.63
19061,-1.62
19073,-1.49
19085,-1.33
19097,-1.16
19109,-0.99
19121,-0.81
19133,-0.62
19145,-0.48
19157,-0.42
19169,-0.4
19181,-0.34
19193,-0.19
19205,0.04
19216,0.24
19227,0.28
19239,0.1
19251,-0.25
19263,-0.62
19275,-0.88
19287,-0.96
19299,-0.88
19311,-0.75
19323,-0.64
19335,-0.61
19347,-0.66
19359,-0.8
19371,-1.02
19383,-1.32
19395,-1.65
19406,-1.95
19417,-2.13
19429,-2.1
19441,-1.86
19453,-1.46
19465,-1.0
19477,-0.62
19489,-0.42
19501,-0.52
19513,-0.93
19525,-1.63
19537,-2.51
19549,-3.43
19561,-4.29
19573,-4.96
19585,-5.4
19596,-5.55
19607,-5.36
19619,-4.83
19631,-4.0
19643,-3.05
19655,-2.22
19667,-1.74
19679,-1.74
19691,-2.14
19703,-2.76
19715,-3.38
19727,-3.86
19739,-4.28
19751,-4.74
19763,-5.37
19775,-6.12
19786,-6.8
19797,-7.18
19809,-7.1
19821,-6.58
19833,-5.78
19845,-4.9
19857,-4.07
19869,-3.34
19881,-2.74
19893,-2.33
19905,-2.19
19917,-2.41
19929,-2.98
19941,-3.74
19953,-4.43
19965,-4.77
19976,-4.63
19987,-4.03
19999,-3.15
20011,-2.26
20023,-1.51
20035,-1.0
20047,-0.68
20059,-0.48
20071,-0.35
20083,-0.29
20095,-0.32
20107,-0.45
20119,-0.62
20131,-0.74
20143,-0.74
20155,-0.59
20166,-0.29
20177,0.14
20189,0.7
20201,1.43
20213,2.35
20225,3.35
20237,4.29
20249,4.95
20261,5.22
20273,5.12
20285,4.8
20297,4.48
20309,4.26
20321,4.14
20333,3.98
20345,3.65
20356,3.08
20367,2.36
20379,1.63
20391,1.04
20403,0.64
20415,0.37
20427,0.15
20439,-0.1
20451,-0.36
20463,-0.53
20475,-0.5
20487,-0.28
20499,0.03
20511,0.2
20523,0.09
20535,-0.33
20546,-0.91
20557,-1.39
20569,-1.6
20581,-1.49
20593,-1.2
20605,-0.93
20617,-0.86
20629,-1.02
20641,-1.32
20653,-1.63
20665,-1.85
20677,-1.94
20689,-2.0
20701,-2.15
20713,-2.49
20725,-3.07
20736,-3.83
20747,-4.64
20759,-5.37
20771,-5.9
20783,-6.19
20795,-6.28
20807,-6.26
20819,-6.17
20831,-6.04
20843,-5.82
20855,-5.46
20867,-4.95
20879,-4.33
20891,-3.72
20903,-3.24
20915,-2.98
20926,-2.97
20937,-3.14
20949,-3.34
20961,-3.39
20973,-3.14
20985,-2.51
20997,-1.53
