seconds,BVP
1,-23.52
13,-28.92
25,-34.4
37,-40.16
49,-46.21
61,-52.37
72,-58.31
83,-63.68
95,-68.03
107,-70.86
119,-71.61
131,-69.69
143,-64.7
155,-56.51
167,-45.41
179,-31.99
191,-17.16
203,-1.87
215,12.91
227,26.27
239,37.36
251,45.48
262,50.14
273,51.22
285,48.97
297,44.05
309,37.33
321,29.69
333,21.85
345,14.25
357,7.08
369,0.41
381,-5.73
393,-11.23
405,-15.92
417,-19.73
429,-22.68
441,-25.01
452,-27.09
463,-29.32
475,-31.86
487,-34.58
499,-37.04
511,-38.56
523,-38.62
535,-36.92
547,-33.66
559,-29.33
571,-24.61
583,-20.11
595,-16.17
607,-12.91
619,-10.27
631,-8.14
642,-6.51
653,-5.44
665,-4.97
677,-5.12
689,-5.75
701,-6.69
713,-7.67
725,-8.5
737,-8.97
749,-8.87
761,-7.95
773,-5.94
785,-2.65
797,1.91
809,7.52
821,13.73
832,20.1
843,26.3
855,32.29
867,38.23
879,44.45
891,51.25
903,58.81
915,67.07
927,75.68
939,84.04
951,91.33
963,96.74
975,99.63
987,99.71
999,97.12
1011,92.31
1022,85.9
1033,78.47
1045,70.44
1057,62.02
1069,53.35
1081,44.52
1093,35.72
1105,27.2
1117,19.23
1129,12.05
1141,5.73
1153,0.16
1165,-4.94
1177,-9.96
1189,-15.24
1201,-21.04
1212,-27.45
1223,-34.38
1235,-41.61
1247,-48.76
1259,-55.31
1271,-60.67
1283,-64.23
1295,-65.51
1307,-64.35
1319,-60.93
1331,-55.8
1343,-49.64
1355,-43.12
1367,-36.68
1379,-30.51
1391,-24.62
1402,-19.05
1413,-13.94
1425,-9.52
1437,-6.02
1449,-3.55
1461,-2.11
1473,-1.54
1485,-1.58
1497,-1.99
1509,-2.65
1521,-3.58
1533,-4.8
1545,-6.29
1557,-7.88
1569,-9.32
1581,-10.42
1592,-10.91
1603,-10.78
1615,-10.3
1627,-9.88
1639,-9.73
1651,-9.7
1663,-9.27
1675,-7.82
1687,-4.83
1699,0.3
1711,7.68
1723,16.68
1735,26.0
1747,34.27
1759,40.63
1771,44.86
1782,47.47
1793,49.2
1805,51.76
1817,56.24
1829,62.29
1841,68.2
1853,72.01
1865,72.68
1877,70.49
1889,66.93
1901,63.63
1913,63.53
1925,68.32
1937,77.48
1949,88.29
1961,97.5
1972,102.89
1983,103.76
1995,100.99
2007,95.77
2019,91.65
2031,91.66
2043,97.04
2055,106.77
2067,118.78
2079,130.97
2091,141.15
2103,146.99
2115,133.16
2127,92.0
2139,30.05
2151,-32.95
2162,-76.2
2173,-88.73
2185,-71.74
2197,-35.64
2209,7.39
2221,45.44
2233,72.26
2245,85.59
2257,85.45
2269,72.66
2281,49.05
2293,17.99
2305,-17.78
2317,-51.33
2329,-76.17
2341,-86.95
2352,-82.96
2363,-69.12
2375,-54.23
2387,-47.02
2399,-52.56
2411,-70.97
2423,-97.85
2435,-127.33
2447,-152.9
2459,-170.07
2471,-177.57
2483,-177.25
2495,-172.48
2507,-166.18
2519,-159.89
2531,-153.37
2542,-146.13
2553,-137.54
2565,-127.83
2577,-118.13
2589,-109.76
2601,-103.12
2613,-97.13
2625,-89.89
2637,-79.57
2649,-65.85
2661,-49.67
2673,-32.67
2685,-16.37
2697,-1.76
2709,10.61
2721,20.33
2732,26.95
2743,30.25
2755,30.46
2767,28.52
2779,25.81
2791,23.4
2803,21.44
2815,19.22
2827,15.8
2839,10.75
2851,4.7
2863,-1.03
2875,-5.08
2887,-6.64
2899,-5.64
2911,-2.4
2922,2.84
2933,10.21
2945,19.89
2957,31.7
2969,44.68
2981,57.05
2993,66.72
3005,71.9
3017,71.69
3029,66.3
3041,56.86
3053,44.93
3065,31.89
3077,18.62
3089,5.51
3101,-7.3
3112,-19.5
3123,-30.57
3135,-39.85
3147,-46.92
3159,-51.87
3171,-55.33
3183,-58.06
3195,-60.59
3207,-62.91
3219,-64.57
3231,-65.04
3243,-64.03
3255,-61.63
3267,-58.14
3279,-53.73
3291,-48.25
3302,-41.23
3313,-32.23
3325,-21.18
3337,-8.55
3349,4.64
3361,17.19
3373,28.08
3385,36.73
3397,43.02
3409,47.23
3421,49.73
3433,50.75
3445,50.23
3457,48.19
3469,45.08
3481,42.08
3492,40.86
3503,42.79
3515,48.1
3527,55.36
3539,61.93
3551,65.01
3563,63.03
3575,56.32
3587,46.95
3599,37.59
3611,30.27
3623,25.55
3635,22.65
3647,20.29
3659,17.48
3671,13.88
3682,9.57
3693,4.55
3705,-1.6
3717,-9.46
3729,-19.4
3741,-30.93
3753,-42.27
3765,-50.9
3777,-54.53
3789,-52.08
3801,-44.35
3813,-33.62
3825,-22.62
3837,-13.38
3849,-6.52
3861,-1.27
3872,3.52
3883,8.44
3895,13.13
3907,16.5
3919,17.4
3931,15.4
3943,11.06
3955,5.87
3967,1.75
3979,0.35
3991,2.63
4003,8.58
4015,17.28
4027,27.15
4039,36.6
4051,44.3
4062,49.39
4073,51.43
4085,50.04
4097,45.02
4109,36.42
4121,24.83
4133,11.57
4145,-1.66
4157,-13.24
4169,-22.08
4181,-28.01
4193,-31.72
4205,-34.24
4217,-36.7
4229,-40.21
4241,-45.57
4252,-52.95
4263,-61.64
4275,-69.74
4287,-74.53
4299,-73.39
4311,-64.72
4323,-48.79
4335,-27.8
4347,-5.05
4359,16.19
4371,33.77
4383,47.0
4395,56.44
4407,63.21
4419,68.41
4431,72.74
4442,76.54
4453,79.97
4465,82.95
4477,85.18
4489,85.97
4501,84.43
4513,79.97
4525,72.49
4537,62.46
4549,50.84
4561,38.78
4573,27.15
4585,16.45
4597,6.85
4609,-1.64
4621,-8.95
4632,-15.07
4643,-20.12
4655,-24.32
4667,-27.91
4679,-31.01
4691,-33.55
4703,-35.46
4715,-36.91
4727,-38.32
4739,-40.12
4751,-42.43
4763,-44.89
4775,-46.83
4787,-47.71
4799,-47.68
4811,-47.52
4822,-48.3
4833,-50.35
4845,-52.72
4857,-53.17
4869,-49.09
4881,-38.85
4893,-22.72
4905,-3.0
4917,16.68
4929,32.67
4941,42.58
4953,45.81
4965,43.46
4977,37.64
4989,30.63
5001,24.2
5012,19.4
5023,16.42
5035,14.72
5047,13.34
5059,11.14
5071,7.32
5083,1.74
5095,-5.11
5107,-12.38
5119,-19.27
5131,-25.23
5143,-30.15
5155,-34.01
5167,-36.75
5179,-38.13
5191,-37.8
5202,-35.72
5213,-32.27
5225,-28.16
5237,-24.2
5249,-20.87
5261,-18.08
5273,-15.38
5285,-12.28
5297,-8.58
5309,-4.75
5321,-1.68
5333,-0.36
5345,-1.41
5357,-4.58
5369,-8.73
5381,-12.25
5392,-13.68
5403,-12.31
5415,-8.44
5427,-3.2
5439,2.0
5451,6.11
5463,8.73
5475,10.08
5487,10.71
5499,11.07
5511,11.38
5523,11.65
5535,11.82
5547,11.93
5559,12.12
5571,12.63
5582,13.59
5593,15.08
5605,17.02
5617,19.18
5629,21.03
5641,21.95
5653,21.32
5665,18.78
5677,14.4
5689,8.71
5701,2.52
5713,-3.36
5725,-8.33
5737,-12.04
5749,-14.3
5761,-14.89
5772,-13.52
5783,-9.97
5795,-4.35
5807,2.75
5819,10.19
5831,16.54
5843,20.55
5855,21.49
5867,19.37
5879,14.8
5891,8.77
5903,2.41
5915,-3.25
5927,-7.44
5939,-9.75
5951,-10.23
5962,-9.37
5973,-7.9
5985,-6.52
5997,-5.7
6009,-5.66
6021,-6.42
6033,-8.0
6045,-10.55
6057,-14.12
6069,-18.5
6081,-23.07
6093,-26.89
6105,-28.95
6117,-28.65
6129,-26.01
6141,-21.6
6152,-16.35
6163,-11.26
6175,-7.27
6187,-5.14
6199,-5.35
6211,-7.78
6223,-11.59
6235,-15.34
6247,-17.37
6259,-16.44
6271,-12.27
6283,-5.59
6295,2.21
6307,9.74
6319,16.04
6331,20.76
6342,23.81
6353,25.1
6365,24.33
6377,21.16
6389,15.49
6401,7.65
6413,-1.63
6425,-11.51
6437,-21.3
6449,-30.58
6461,-38.98
6473,-46.24
6485,-51.98
6497,-55.73
6509,-57.13
6521,-56.02
6532,-52.65
6543,-47.62
6555,-41.89
6567,-36.51
6579,-32.47
6591,-30.35
6603,-30.09
6615,-30.8
6627,-31.06
6639,-29.43
6651,-25.02
6663,-17.89
6675,-8.99
6687,0.26
6699,8.6
6711,15.33
6722,20.38
6733,24.04
6745,26.69
6757,28.65
6769,30.27
6781,32.04
6793,34.38
6805,37.25
6817,39.98
6829,41.36
6841,40.38
6853,36.91
6865,31.94
6877,27.09
6889,23.69
6901,21.95
6912,20.86
6923,18.91
6935,15.17
6947,10.03
6959,5.16
6971,2.48
6983,3.03
6995,6.25
7007,10.28
7019,12.85
7031,12.57
7043,9.42
7055,4.77
7067,0.57
7079,-1.52
7091,-0.8
7102,2.25
7113,6.31
7125,9.76
7137,11.14
7149,9.45
7161,4.27
7173,-3.98
7185,-13.79
7197,-22.65
7209,-27.62
7221,-26.32
7233,-18.16
7245,-4.94
7257,9.56
7269,20.77
7281,25.06
7292,21.09
7303,10.18
7315,-4.42
7327,-18.98
7339,-30.47
7351,-37.48
7363,-40.05
7375,-39.35
7387,-36.82
7399,-33.62
7411,-30.33
7423,-26.78
7435,-22.43
7447,-16.84
7459,-10.16
7471,-3.09
7482,3.23
7493,7.84
7505,10.37
7517,11.09
7529,10.71
7541,9.83
7553,8.67
7565,7.02
7577,4.59
7589,1.26
7601,-2.7
7613,-6.75
7625,-10.54
7637,-14.08
7649,-17.62
7661,-21.37
7672,-25.06
7683,-27.75
7695,-28.03
7707,-24.6
7719,-16.78
7731,-5.02
7743,9.17
7755,23.5
7767,35.53
7779,43.34
7791,46.02
7803,43.77
7815,37.75
7827,29.63
7839,21.03
7851,13.2
7862,6.8
7873,1.94
7885,-1.64
7897,-4.3
7909,-6.39
7921,-8.24
7933,-10.14
7945,-12.33
7957,-14.96
7969,-18.01
7981,-21.35
7993,-24.76
8005,-28.03
8017,-31.04
8029,-33.67
8041,-35.77
8052,-37.09
8063,-37.38
8075,-36.51
8087,-34.68
8099,-32.4
8111,-30.3
8123,-28.94
8135,-28.49
8147,-28.77
8159,-29.37
8171,-29.9
8183,-30.19
8195,-30.31
8207,-30.36
8219,-30.29
8231,-29.76
8242,-28.14
8253,-24.7
8265,-18.88
8277,-10.55
8289,-0.1
8301,11.58
8313,23.46
8325,34.62
8337,44.47
8349,52.85
8361,59.79
8373,65.49
8385,70.09
8397,73.66
8409,76.29
8421,78.09
8432,79.16
8443,79.52
8455,79.12
8467,77.79
8479,75.44
8491,72.12
8503,68.01
8515,63.52
8527,59.04
8539,54.82
8551,50.83
8563,46.71
8575,41.96
8587,36.08
8599,28.9
8611,20.68
8622,12.16
8633,4.37
8645,-1.77
8657,-5.63
8669,-7.03
8681,-6.21
8693,-3.67
8705,-0.0
8717,4.22
8729,8.5
8741,12.34
8753,15.29
8765,17.0
8777,17.35
8789,16.54
8801,15.12
8812,13.86
8823,13.42
8835,14.14
8847,15.88
8859,18.07
8871,19.9
8883,20.66
8895,19.79
8907,16.96
8919,11.92
8931,4.42
8943,-5.62
8955,-17.74
8967,-30.67
8979,-42.34
8991,-50.51
9002,-53.6
9013,-51.43
9025,-45.44
9037,-38.19
9049,-32.3
9061,-29.54
9073,-30.43
9085,-34.56
9097,-41.32
9109,-50.39
9121,-61.79
9133,-75.29
9145,-89.83
9157,-103.26
9169,-112.83
9181,-116.14
9192,-111.98
9203,-100.8
9215,-84.46
9227,-65.44
9239,-45.97
9251,-27.49
9263,-10.53
9275,4.98
9287,19.27
9299,32.48
9311,44.57
9323,55.35
9335,64.69
9347,72.43
9359,78.27
9371,81.78
9382,82.37
9393,79.62
9405,73.41
9417,64.2
9429,52.86
9441,40.47
9453,27.83
9465,15.31
9477,2.88
9489,-9.48
9501,-21.52
9513,-32.59
9525,-42.04
9537,-49.64
9549,-55.66
9561,-60.91
9572,-66.2
9583,-71.83
9595,-77.33
9607,-81.74
9619,-84.14
9631,-84.06
9643,-81.62
9655,-76.94
9667,-70.55
9679,-63.48
9691,-57.32
9703,-54.07
9715,-55.58
9727,-62.64
9739,-74.25
9751,-87.5
9762,-97.53
9773,-99.93
9785,-92.08
9797,-73.68
9809,-46.53
9821,-13.88
9833,20.31
9845,52.0
9857,77.86
9869,97.05
9881,110.23
9893,119.68
9905,128.81
9917,141.31
9929,159.56
9941,183.46
9952,210.07
9963,234.45
9975,252.51
9987,260.65
9999,256.8
10011,241.18
10023,216.59
10035,187.59
10047,159.45
10059,137.17
10071,115.84
10083,94.8
10095,75.69
10107,60.07
10119,46.84
10131,32.75
10142,14.81
10153,-7.23
10165,-30.39
10177,-49.74
10189,-59.31
10201,-56.48
10213,-42.66
10225,-21.4
10237,3.31
10249,27.84
10261,49.65
10273,67.07
10285,78.79
10297,84.62
10309,84.01
10321,76.54
10332,60.98
10343,39.24
10355,15.0
10367,-7.7
10379,-26.13
10391,-39.66
10403,-48.69
10415,-54.23
10427,-56.47
10439,-54.11
10451,-44.71
10463,-26.66
10475,-0.72
10487,29.64
10499,59.26
10511,83.39
10522,98.77
10533,104.18
10545,100.06
10557,87.88
10569,69.32
10581,46.22
10593,20.67
10605,-5.1
10617,-29.0
10629,-49.92
10641,-67.87
10653,-83.69
10665,-98.09
10677,-111.23
10689,-122.57
10701,-131.2
10712,-136.65
10723,-139.34
10735,-140.6
10747,-141.99
10759,-144.57
10771,-148.34
10783,-152.35
10795,-155.26
10807,-155.9
10819,-153.77
10831,-149.21
10843,-143.05
10855,-136.1
10867,-128.74
10879,-120.84
10891,-112.19
10902,-102.89
10913,-93.51
10925,-84.83
10937,-77.59
10949,-72.1
10961,-68.17
10973,-65.14
10985,-62.44
10997,-59.93
11009,-57.92
11021,-56.82
11033,-56.68
11045,-57.35
11057,-58.61
11069,-60.41
11081,-62.56
11092,-65.0
11103,-68.02
11115,-72.16
11127,-77.87
11139,-84.92
11151,-92.65
11163,-99.85
11175,-104.93
11187,-105.55
11199,-100.04
11211,-88.5
11223,-72.92
11235,-55.84
11247,-38.16
11259,-18.75
11271,5.05
11282,35.78
11293,74.91
11305,120.97
11317,169.31
11329,213.83
11341,249.42
11353,274.33
11365,289.18
11377,295.48
11389,289.55
11401,269.21
11413,236.94
11425,199.46
11437,164.79
11449,133.92
11461,106.6
11472,81.67
11483,59.02
11495,38.17
11507,19.77
11519,5.22
11531,-4.08
11543,-7.5
11555,-5.69
11567,0.03
11579,7.17
11591,12.77
11603,14.44
11615,11.92
11627,6.38
11639,-0.87
11651,-9.25
11662,-18.83
11673,-29.01
11685,-38.78
11697,-46.73
11709,-51.8
11721,-53.32
11733,-51.71
11745,-48.44
11757,-45.14
11769,-42.71
11781,-40.45
11793,-37.13
11805,-31.95
11817,-25.29
11829,-18.29
11841,-12.25
11852,-7.94
11863,-5.18
11875,-3.11
11887,-0.64
11899,2.76
11911,6.85
11923,10.92
11935,14.36
11947,16.9
11959,18.41
11971,18.65
11983,17.17
11995,13.53
12007,7.64
12019,-0.01
12031,-8.43
12042,-16.48
12053,-23.3
12065,-28.63
12077,-32.72
12089,-35.95
12101,-38.6
12113,-40.57
12125,-41.57
12137,-41.26
12149,-39.49
12161,-36.27
12173,-31.88
12185,-26.71
12197,-21.2
12209,-15.9
12221,-11.35
12232,-8.09
12243,-6.51
12255,-6.69
12267,-8.27
12279,-10.52
12291,-12.59
12303,-13.81
12315,-13.96
12327,-13.42
12339,-12.98
12351,-13.46
12363,-15.27
12375,-18.13
12387,-21.17
12399,-23.23
12411,-23.44
12422,-21.71
12433,-18.71
12445,-15.66
12457,-13.53
12469,-12.51
12481,-11.59
12493,-8.75
12505,-1.43
12517,12.83
12529,35.79
12541,67.92
12553,107.58
12565,150.49
12577,189.9
12589,217.95
12601,227.91
12612,216.69
12623,186.06
12635,142.26
12647,93.72
12659,48.22
12671,10.78
12683,-16.66
12695,-34.3
12707,-43.04
12719,-43.85
12731,-38.02
12743,-27.91
12755,-17.06
12767,-9.24
12779,-6.82
12791,-9.57
12802,-14.73
12813,-18.45
12825,-18.03
12837,-13.44
12849,-7.55
12861,-4.68
12873,-8.31
12885,-19.33
12897,-35.67
12909,-53.56
12921,-69.41
12933,-81.34
12945,-89.61
12957,-95.72
12969,-101.09
12981,-106.05
12992,-109.73
13003,-110.8
13015,-108.43
13027,-102.81
13039,-95.16
13051,-87.07
13063,-79.89
13075,-74.35
13087,-70.57
13099,-68.34
13111,-67.47
13123,-67.96
13135,-70.0
13147,-73.84
13159,-79.52
13171,-86.61
13182,-94.1
13193,-100.54
13205,-104.48
13217,-104.84
13229,-101.35
13241,-94.46
13253,-85.02
13265,-73.78
13277,-61.16
13289,-47.34
13301,-32.72
13313,-18.33
13325,-5.77
13337,3.26
13349,7.85
13361,8.31
13372,6.24
13383,3.78
13395,2.8
13407,4.14
13419,7.63
13431,12.5
13443,18.11
13455,24.37
13467,31.67
13479,40.46
13491,50.58
13503,61.2
13515,71.1
13527,79.42
13539,86.15
13551,92.14
13562,98.42
13573,105.35
13585,112.11
13597,116.88
13609,117.66
13621,113.08
13633,103.21
13645,89.56
13657,74.72
13669,61.65
13681,52.76
13693,49.3
13705,51.02
13717,56.32
13729,63.0
13741,69.09
13752,73.52
13763,76.26
13775,77.68
13787,77.87
13799,76.21
13811,71.85
13823,64.51
13835,55.15
13847,45.8
13859,38.44
13871,33.78
13883,30.65
13895,26.66
13907,19.7
13919,9.46
13931,-2.1
13942,-11.55
13953,-15.6
13965,-12.56
13977,-3.04
13989,10.4
14001,24.39
14013,36.01
14025,43.59
14037,46.79
14049,46.1
14061,42.34
14073,36.3
14085,28.68
14097,20.22
14109,11.76
14121,4.13
14132,-2.04
14143,-6.56
14155,-9.74
14167,-12.11
14179,-14.06
14191,-15.54
14203,-16.09
14215,-15.12
14227,-12.27
14239,-7.67
14251,-1.73
14263,5.18
14275,12.92
14287,21.41
14299,30.54
14311,40.04
14322,49.43
14333,58.32
14345,66.47
14357,73.73
14369,79.97
14381,84.88
14393,88.01
14405,88.9
14417,87.22
14429,82.69
14441,74.92
14453,63.54
14465,48.43
14477,30.14
14489,10.17
14501,-9.26
14512,-25.88
14523,-38.1
14535,-45.58
14547,-49.25
14559,-50.81
14571,-51.99
14583,-54.03
14595,-57.39
14607,-61.84
14619,-66.66
14631,-70.84
14643,-73.28
14655,-72.93
14667,-69.1
14679,-61.84
14691,-52.22
14702,-42.36
14713,-34.97
14725,-32.46
14737,-36.18
14749,-45.73
14761,-58.99
14773,-72.8
14785,-84.11
14797,-90.88
14809,-92.54
14821,-89.76
14833,-83.7
14845,-75.4
14857,-65.46
14869,-54.25
14881,-42.16
14892,-30.12
14903,-19.65
14915,-12.27
14927,-8.97
14939,-9.61
14951,-12.78
14963,-16.42
14975,-18.74
14987,-18.99
14999,-17.73
15011,-16.35
15023,-16.2
15035,-17.86
15047,-20.82
15059,-23.61
15071,-24.47
15082,-22.27
15093,-16.87
15105,-9.33
15117,-1.55
15129,4.56
15141,7.8
15153,8.16
15165,6.81
15177,5.45
15189,5.35
15201,7.27
15213,10.9
15225,15.45
15237,20.24
15249,24.93
15261,29.46
15272,33.72
15283,37.17
15295,38.58
15307,37.34
15319,32.96
15331,25.59
15343,16.01
15355,5.32
15367,-5.4
15379,-15.35
15391,-24.13
15403,-32.17
15415,-38.95
15427,-44.44
15439,-48.32
15451,-49.91
15462,-48.27
15473,-42.45
15485,-31.9
15497,-16.77
15509,1.24
15521,20.97
15533,39.99
15545,55.69
15557,65.73
15569,68.37
15581,62.89
15593,49.74
15605,34.93
15617,15.99
15629,-3.49
15641,-20.92
15652,-34.43
15663,-43.09
15675,-47.14
15687,-47.71
15699,-46.38
15711,-44.72
15723,-44.56
15735,-45.59
15747,-47.45
15759,-49.25
15771,-50.02
15783,-48.91
15795,-45.45
15807,-39.46
15819,-31.14
15831,-21.59
15842,-11.31
15853,-1.51
15865,6.67
15877,12.68
15889,16.83
15901,20.13
15913,23.79
15925,28.57
15937,34.1
15949,39.96
15961,45.23
15973,49.39
15985,52.51
15997,55.05
16009,57.25
16021,58.83
16032,58.91
16043,56.4
16055,51.08
16067,43.47
16079,34.95
16091,27.2
16103,21.47
16115,18.24
16127,17.11
16139,17.19
16151,17.52
16163,17.6
16175,17.36
16187,17.02
16199,16.86
16211,17.06
16222,17.49
16233,17.94
16245,18.13
16257,17.9
16269,17.2
16281,16.07
16293,14.55
16305,12.61
16317,10.17
16329,7.18
16341,3.69
16353,-0.06
16365,-3.71
16377,-6.87
16389,-9.39
16401,-11.4
16412,-13.34
16423,-15.7
16435,-18.78
16447,-22.51
16459,-26.44
16471,-30.02
16483,-32.9
16495,-35.17
16507,-37.25
16519,-39.62
16531,-42.45
16543,-45.36
16555,-47.53
16567,-48.07
16579,-46.43
16591,-42.57
16602,-37.0
16613,-30.4
16625,-23.45
16637,-16.8
16649,-11.18
16661,-7.38
16673,-5.83
16685,-6.09
16697,-6.44
16709,-4.37
16721,2.33
16733,14.27
16745,29.66
16757,44.74
16769,55.28
16781,58.4
16792,53.76
16803,43.62
16815,31.95
16827,22.9
16839,19.88
16851,24.95
16863,38.81
16875,60.65
16887,87.84
16899,115.97
16911,139.36
16923,152.38
16935,151.21
16947,135.17
16959,106.97
16971,71.92
16982,36.05
16993,4.3
17005,-20.63
17017,-38.36
17029,-50.08
17041,-57.53
17053,-62.17
17065,-64.93
17077,-66.39
17089,-67.07
17101,-67.55
17113,-68.33
17125,-69.64
17137,-71.3
17149,-72.76
17161,-73.5
17172,-73.3
17183,-72.55
17195,-72.13
17207,-73.18
17219,-76.64
17231,-82.96
17243,-91.85
17255,-102.46
17267,-113.69
17279,-124.59
17291,-134.74
17303,-144.24
17315,-153.66
17327,-163.73
17339,-175.15
17351,-188.26
17362,-202.79
17373,-217.49
17385,-229.9
17397,-236.57
17409,-234.0
17421,-219.9
17433,-194.24
17445,-159.39
17457,-119.22
17469,-77.63
17481,-37.48
17493,-0.31
17505,33.01
17517,61.56
17529,84.26
17541,100.4
17552,110.29
17563,115.6
17575,118.75
17587,121.91
17599,126.33
17611,132.29
17623,139.86
17635,149.38
17647,161.29
17659,175.12
17671,188.67
17683,198.1
17695,199.24
17707,189.5
17719,169.14
17731,141.23
17742,110.24
17753,80.05
17765,52.7
17777,28.47
17789,6.86
17801,-12.14
17813,-27.57
17825,-37.88
17837,-41.87
17849,-39.62
17861,-32.45
17873,-22.34
17885,-10.96
17897,0.9
17909,13.22
17921,26.31
17932,40.26
17943,54.61
17955,68.39
17967,80.53
17979,89.95
17991,96.01
18003,98.54
18015,97.86
18027,94.79
18039,90.77
18051,87.95
18063,88.94
18075,96.47
18087,112.37
18099,136.97
18111,168.06
18122,200.56
18133,227.18
18145,240.29
18157,234.32
18169,207.53
18181,162.92
18193,106.93
18205,48.11
18217,-5.61
18229,-49.06
18241,-80.59
18253,-101.26
18265,-113.32
18277,-119.39
18289,-121.33
18301,-120.9
18312,-118.91
18323,-115.76
18335,-112.13
18347,-108.88
18359,-106.73
18371,-105.72
18383,-105.9
18395,-106.61
18407,-107.73
18419,-107.92
18431,-104.95
18443,-96.44
18455,-80.41
18467,-55.93
18479,-23.03
18491,16.13
18502,58.78
18513,92.43
18525,104.39
18537,89.85
18549,56.18
18561,17.17
18573,-16.31
18585,-35.13
18597,-42.3
18609,-41.48
18621,-36.0
18633,-27.29
18645,-15.51
18657,-4.52
18669,2.11
18681,1.13
18692,-8.75
18703,-26.87
18715,-49.34
18727,-71.35
18739,-87.45
18751,-93.46
18763,-87.92
18775,-72.07
18787,-49.33
18799,-23.56
18811,1.56
18823,24.03
18835,42.5
18847,56.63
18859,66.77
18871,73.37
18882,77.13
18893,78.64
18905,78.59
18917,77.2
18929,74.49
18941,69.49
18953,60.79
18965,47.09
18977,27.9
18989,4.49
19001,-20.09
19013,-41.41
19025,-55.13
19037,-58.46
19049,-51.55
19061,-37.4
19072,-20.69
19083,-6.01
19095,3.8
19107,8.25
19119,8.81
19131,7.65
19143,6.6
19155,6.42
19167,6.97
19179,7.81
19191,8.67
19203,9.78
19215,11.56
19227,14.34
19239,18.06
19251,22.21
19262,26.06
19273,28.93
19285,30.6
19297,31.44
19309,32.43
19321,34.76
19333,39.32
19345,46.23
19357,54.65
19369,63.06
19381,69.87
19393,74.0
19405,75.14
19417,73.7
19429,70.37
19441,65.71
19452,60.04
19463,53.54
19475,46.41
19487,39.05
19499,32.06
19511,26.19
19523,22.07
19535,20.22
19547,20.92
19559,24.43
19571,30.96
19583,40.47
19595,52.36
19607,65.15
19619,76.28
19631,82.59
19642,81.21
19653,70.82
19665,52.9
19677,31.53
19689,11.79
19701,-2.45
19713,-10.41
19725,-14.78
19737,-20.5
19749,-32.29
19761,-52.71
19773,-80.61
19785,-112.01
19797,-142.3
19809,-168.36
19821,-189.28
19832,-205.53
19843,-217.94
19855,-226.71
19867,-231.87
19879,-232.67
19891,-228.66
19903,-220.74
19915,-211.37
19927,-203.1
19939,-196.73
19951,-191.43
19963,-185.07
19975,-176.68
19987,-165.19
19999,-150.1
20011,-132.16
20022,-113.86
20033,-97.96
20045,-85.95
20057,-78.68
20069,-76.29
20081,-79.82
20093,-87.25
20105,-93.92
20117,-94.46
20129,-85.53
20141,-65.96
20153,-35.66
20165,3.36
20177,52.32
20189,103.1
20201,145.51
20212,173.43
20223,190.77
20235,202.93
20247,212.81
20259,223.14
20271,232.76
20283,241.57
20295,247.73
20307,252.89
20319,260.27
20331,271.97
20343,285.75
20355,288.64
20367,270.56
20379,228.49
20391,177.03
20402,121.33
20413,65.47
20425,11.94
20437,-35.02
20449,-73.63
20461,-103.86
20473,-124.8
20485,-135.61
20497,-135.65
20509,-127.53
20521,-113.02
20533,-94.05
20545,-72.95
20557,-52.96
20569,-36.34
20581,-22.67
20592,-10.54
20603,1.29
20615,11.46
20627,19.35
20639,24.94
20651,28.87
20663,31.54
20675,33.41
20687,35.54
20699,38.59
20711,42.85
20723,47.28
20735,51.66
20747,56.03
20759,60.25
20771,63.44
20782,64.53
20793,63.23
20805,60.35
20817,57.8
20829,57.46
20841,60.98
20853,68.4
20865,77.68
20877,85.13
20889,87.05
20901,81.4
20913,68.32
20925,49.65
20937,27.55
20949,3.89
20961,-19.93
20972,-42.46
20983,-61.61
20995,-74.67
