seconds,BVP
6,-7.95
18,-11.92
30,-16.46
41,-20.97
52,-24.62
64,-26.59
76,-26.23
88,-23.32
100,-18.18
112,-11.55
124,-4.37
136,2.48
148,8.39
160,13.06
172,16.47
184,18.65
196,19.65
208,19.53
220,18.42
231,16.62
242,14.5
254,12.46
266,10.75
278,9.43
290,8.36
302,7.33
314,6.16
326,4.8
338,3.32
350,1.82
362,0.37
374,-1.1
386,-2.78
398,-4.94
410,-7.83
421,-11.54
432,-15.91
444,-20.44
456,-24.4
468,-26.89
480,-27.14
492,-24.74
504,-19.85
516,-13.18
528,-5.8
540,1.18
552,6.93
564,11.08
576,13.68
588,15.06
600,15.58
611,15.49
622,14.92
634,13.9
646,12.5
658,10.86
670,9.12
682,7.37
694,5.65
706,3.92
718,2.14
730,0.35
742,-1.37
754,-2.93
766,-4.34
778,-5.76
790,-7.48
801,-9.8
812,-12.89
824,-16.67
836,-20.7
848,-24.29
860,-26.62
872,-26.97
884,-24.99
896,-20.77
908,-14.84
920,-8.02
932,-1.21
944,4.84
956,9.66
968,13.03
980,14.99
991,15.66
1002,15.23
1014,13.9
1026,11.88
1038,9.4
1050,6.74
1062,4.16
1074,1.83
1086,-0.15
1098,-1.79
1110,-3.16
1122,-4.37
1134,-5.5
1146,-6.68
1158,-8.06
1170,-9.85
1181,-12.28
1192,-15.53
1204,-19.55
1216,-24.01
1228,-28.23
1240,-31.36
1252,-32.52
1264,-31.11
1276,-27.03
1288,-20.73
1300,-13.07
1312,-5.14
1324,2.12
1336,8.09
1348,12.55
1360,15.56
1371,17.33
1382,18.03
1394,17.78
1406,16.66
1418,14.82
1430,12.5
1442,10.0
1454,7.62
1466,5.63
1478,4.07
1490,2.89
1502,1.88
1514,0.78
1526,-0.6
1538,-2.41
1550,-4.71
1561,-7.56
1572,-10.97
1584,-14.94
1596,-19.28
1608,-23.56
1620,-27.08
1632,-28.98
1644,-28.53
1656,-25.41
1668,-19.88
1680,-12.72
1692,-4.98
1704,2.3
1716,8.47
1728,13.24
1740,16.66
1751,18.91
1762,20.18
1774,20.58
1786,20.16
1798,19.04
1810,17.38
1822,15.34
1834,13.14
1846,10.93
1858,8.85
1870,6.97
1882,5.29
1894,3.75
1906,2.22
1918,0.52
1930,-1.54
1941,-4.16
1952,-7.5
1964,-11.6
1976,-16.29
1988,-21.11
2000,-25.3
2012,-27.93
2024,-28.19
2036,-25.63
2048,-20.43
2060,-13.31
2072,-5.38
2084,2.24
2096,8.76
2108,13.8
2120,17.34
2131,19.52
2142,20.5
2154,20.39
2166,19.32
2178,17.49
2190,15.24
2202,12.94
2214,10.86
2226,9.13
2238,7.65
2250,6.25
2262,4.81
2274,3.26
2286,1.67
2298,0.07
2310,-1.59
2321,-3.52
2332,-6.01
2344,-9.3
2356,-13.4
2368,-17.96
2380,-22.26
2392,-25.38
2404,-26.47
2416,-24.99
2428,-20.96
2440,-14.9
2452,-7.73
2464,-0.43
2476,6.12
2488,11.35
2500,14.95
2511,16.87
2522,17.18
2534,16.14
2546,14.11
2558,11.58
2570,9.08
2582,7.01
2594,5.54
2606,4.62
2618,4.01
2630,3.44
2642,2.71
2654,1.74
2666,0.59
2678,-0.7
2690,-2.13
2701,-3.82
2712,-5.96
2724,-8.77
2736,-12.4
2748,-16.67
2760,-21.06
2772,-24.66
2784,-26.42
2796,-25.49
2808,-21.55
2820,-15.06
2832,-7.06
2844,1.15
2856,8.45
2868,14.2
2880,18.25
2891,20.76
2902,21.96
2914,21.99
2926,20.95
2938,18.98
2950,16.44
2962,13.76
2974,11.37
2986,9.51
2998,8.16
3010,7.11
3022,6.14
3034,5.13
3046,4.09
3058,3.11
3070,2.17
3081,1.08
3092,-0.47
3104,-2.84
3116,-6.2
3128,-10.35
3140,-14.72
3152,-18.39
3164,-20.38
3176,-19.94
3188,-16.74
3200,-11.01
3212,-3.51
3224,4.7
3236,12.48
3248,18.86
3260,23.24
3271,25.41
3282,25.5
3294,23.87
3306,21.01
3318,17.42
3330,13.62
3342,10.07
3354,7.1
3366,4.86
3378,3.3
3390,2.2
3402,1.23
3414,0.09
3426,-1.4
3438,-3.37
3450,-5.84
3461,-8.89
3472,-12.56
3484,-16.8
3496,-21.37
3508,-25.68
3520,-28.94
3532,-30.31
3544,-29.16
3556,-25.3
3568,-19.05
3580,-11.24
3592,-2.92
3604,4.88
3616,11.38
3628,16.17
3640,19.17
3651,20.54
3662,20.5
3674,19.28
3686,17.09
3698,14.17
3710,10.82
3722,7.41
3734,4.33
3746,1.86
3758,0.09
3770,-1.13
3782,-2.13
3794,-3.33
3806,-5.12
3818,-7.74
3830,-11.3
3841,-15.71
3852,-20.65
3864,-25.61
3876,-29.81
3888,-32.39
3900,-32.52
3912,-29.74
3924,-24.09
3936,-16.21
3948,-7.17
3960,1.82
3972,9.72
3984,15.88
3996,20.12
4008,22.6
4020,23.6
4031,23.42
4042,22.23
4054,20.16
4066,17.4
4078,14.23
4090,11.05
4102,8.26
4114,6.09
4126,4.49
4138,3.19
4150,1.77
4162,-0.18
4174,-2.87
4186,-6.35
4198,-10.59
4210,-15.45
4221,-20.68
4232,-25.79
4244,-30.01
4256,-32.38
4268,-32.0
4280,-28.39
4292,-21.73
4304,-12.92
4316,-3.24
4328,5.94
4340,13.63
4352,19.37
4364,23.16
4376,25.25
4388,25.96
4400,25.55
4411,24.18
4422,22.04
4434,19.3
4446,16.23
4458,13.06
4470,10.02
4482,7.23
4494,4.75
4506,2.58
4518,0.58
4530,-1.41
4542,-3.68
4554,-6.54
4566,-10.22
4578,-14.78
4590,-19.94
4601,-25.09
4612,-29.27
4624,-31.45
4636,-30.76
4648,-26.8
4660,-19.87
4672,-10.87
4684,-1.09
4696,8.19
4708,16.0
4720,21.89
4732,25.8
4744,28.0
4756,28.78
4768,28.4
4780,27.07
4791,24.99
4802,22.4
4814,19.57
4826,16.75
4838,14.11
4850,11.74
4862,9.59
4874,7.56
4886,5.53
4898,3.32
4910,0.77
4922,-2.37
4934,-6.3
4946,-11.15
4958,-16.66
4970,-22.22
4981,-26.8
4992,-29.23
5004,-28.61
5016,-24.61
5028,-17.63
5040,-8.69
5052,0.91
5064,9.97
5076,17.61
5088,23.38
5100,27.15
5112,29.02
5124,29.19
5136,27.97
5148,25.7
5160,22.77
5171,19.57
5182,16.42
5194,13.57
5206,11.15
5218,9.13
5230,7.34
5242,5.57
5254,3.58
5266,1.24
5278,-1.54
5290,-4.8
5302,-8.64
5314,-13.14
5326,-18.23
5338,-23.53
5350,-28.26
5361,-31.37
5372,-31.86
5384,-29.19
5396,-23.46
5408,-15.43
5420,-6.29
5432,2.77
5444,10.77
5456,17.08
5468,21.45
5480,23.9
5492,24.63
5504,23.99
5516,22.41
5528,20.29
5540,17.94
5551,15.54
5562,13.17
5574,10.85
5586,8.63
5598,6.58
5610,4.74
5622,3.05
5634,1.34
5646,-0.65
5658,-3.24
5670,-6.69
5682,-11.14
5694,-16.48
5706,-22.33
5718,-27.91
5730,-32.18
5741,-34.08
5752,-32.79
5764,-28.09
5776,-20.44
5788,-10.89
5800,-0.75
5812,8.72
5824,16.64
5836,22.58
5848,26.49
5860,28.62
5872,29.25
5884,28.67
5896,27.13
5908,24.79
5920,21.88
5931,18.66
5942,15.48
5954,12.71
5966,10.58
5978,9.12
5990,8.07
6002,6.98
6014,5.36
6026,2.88
6038,-0.57
6050,-4.94
6062,-10.06
6074,-15.68
6086,-21.38
6098,-26.48
6110,-30.03
6121,-30.99
6132,-28.63
6144,-22.84
6156,-14.3
6168,-4.32
6180,5.62
6192,14.28
6204,20.99
6216,25.65
6228,28.51
6240,29.88
6252,29.98
6264,28.91
6276,26.82
6288,23.95
6300,20.73
6311,17.6
6322,14.86
6334,12.59
6346,10.63
6358,8.7
6370,6.53
6382,4.03
6394,1.22
6406,-1.89
6418,-5.36
6430,-9.41
6442,-14.29
6454,-19.95
6466,-25.86
6478,-30.99
6490,-34.05
6501,-33.97
6512,-30.34
6524,-23.58
6536,-14.8
6548,-5.38
6560,3.48
6572,11.04
6584,17.0
6596,21.34
6608,24.12
6620,25.36
6632,25.11
6644,23.52
6656,20.92
6668,17.73
6680,14.43
6691,11.37
6702,8.77
6714,6.65
6726,4.89
6738,3.28
6750,1.62
6762,-0.24
6774,-2.44
6786,-5.08
6798,-8.33
6810,-12.34
6822,-17.16
6834,-22.5
6846,-27.68
6858,-31.64
6870,-33.24
6881,-31.66
6892,-26.72
6904,-18.97
6916,-9.5
6928,0.44
6940,9.76
6952,17.8
6964,24.2
6976,28.88
6988,31.83
7000,33.15
7012,33.0
7024,31.68
7036,29.58
7048,27.09
7060,24.5
7071,21.99
7082,19.58
7094,17.23
7106,14.91
7118,12.59
7130,10.27
7142,7.9
7154,5.36
7166,2.52
7178,-0.85
7190,-4.97
7202,-9.95
7214,-15.66
7226,-21.61
7238,-26.94
7250,-30.55
7261,-31.47
7272,-29.14
7284,-23.65
7296,-15.76
7308,-6.62
7320,2.57
7332,10.86
7344,17.68
7356,22.84
7368,26.32
7380,28.26
7392,28.8
7404,28.21
7416,26.79
7428,24.92
7440,22.88
7451,20.84
7462,18.81
7474,16.68
7486,14.38
7498,11.9
7510,9.35
7522,6.81
7534,4.33
7546,1.83
7558,-0.87
7570,-3.95
7582,-7.58
7594,-11.79
7606,-16.47
7618,-21.28
7630,-25.62
7641,-28.64
7652,-29.45
7664,-27.35
7676,-22.11
7688,-14.18
7700,-4.6
7712,5.28
7724,14.21
7736,21.39
7748,26.52
7760,29.76
7772,31.46
7784,31.98
7796,31.55
7808,30.37
7820,28.59
7831,26.41
7842,24.04
7854,21.67
7866,19.44
7878,17.41
7890,15.56
7902,13.8
7914,11.98
7926,9.93
7938,7.5
7950,4.55
7962,0.99
7974,-3.29
7986,-8.38
7998,-14.23
8010,-20.49
8021,-26.45
8032,-31.1
8044,-33.38
8056,-32.58
8068,-28.63
8080,-22.13
8092,-14.15
8104,-5.88
8116,1.76
8128,8.2
8140,13.21
8152,16.76
8164,18.81
8176,19.39
8188,18.64
8200,16.83
8211,14.38
8222,11.7
8234,9.12
8246,6.81
8258,4.76
8270,2.91
8282,1.19
8294,-0.45
8306,-2.0
8318,-3.53
8330,-5.15
8342,-7.03
8354,-9.34
8366,-12.25
8378,-15.87
8390,-20.11
8401,-24.62
8412,-28.75
8424,-31.64
8436,-32.43
8448,-30.5
8460,-25.76
8472,-18.68
8484,-10.16
8496,-1.27
8508,7.04
8520,14.12
8532,19.68
8544,23.67
8556,26.22
8568,27.44
8580,27.49
8591,26.55
8602,24.87
8614,22.75
8626,20.49
8638,18.29
8650,16.2
8662,14.14
8674,12.01
8686,9.74
8698,7.36
8710,5.0
8722,2.74
8734,0.57
8746,-1.67
8758,-4.25
8770,-7.46
8781,-11.46
8792,-16.17
8804,-21.18
8816,-25.78
8828,-29.08
8840,-30.28
8852,-28.89
8864,-24.88
8876,-18.74
8888,-11.29
8900,-3.47
8912,3.92
8924,10.3
8936,15.29
8948,18.71
8960,20.51
8971,20.85
8982,20.02
8994,18.47
9006,16.61
9018,14.75
9030,13.05
9042,11.48
9054,9.98
9066,8.5
9078,7.01
9090,5.49
9102,3.9
9114,2.19
9126,0.3
9138,-1.82
9150,-4.18
9161,-6.87
9172,-10.04
9184,-13.83
9196,-18.23
9208,-22.9
9220,-27.1
9232,-29.86
9244,-30.27
9256,-27.87
9268,-22.81
9280,-15.84
9292,-8.02
9304,-0.37
9316,6.37
9328,11.85
9340,15.96
9351,18.74
9362,20.2
9374,20.38
9386,19.36
9398,17.38
9410,14.81
9422,12.11
9434,9.64
9446,7.59
9458,5.94
9470,4.48
9482,3.02
9494,1.41
9506,-0.33
9518,-2.09
9530,-3.79
9541,-5.43
9552,-7.18
9564,-9.39
9576,-12.35
9588,-16.16
9600,-20.55
9612,-24.84
9624,-28.06
9636,-29.3
9648,-27.97
9660,-24.05
9672,-18.09
9684,-11.03
9696,-3.82
9708,2.75
9720,8.26
9731,12.52
9742,15.51
9754,17.22
9766,17.66
9778,16.87
9790,15.07
9802,12.6
9814,9.89
9826,7.36
9838,5.31
9850,3.85
9862,2.86
9874,2.13
9886,1.43
9898,0.54
9910,-0.62
9921,-2.08
9932,-3.86
9944,-6.06
9956,-8.8
9968,-12.22
9980,-16.23
9992,-20.46
10004,-24.18
10016,-26.53
10028,-26.72
10040,-24.38
10052,-19.68
10064,-13.29
10076,-6.16
10088,0.77
10100,6.76
10111,11.38
10122,14.48
10134,16.1
10146,16.38
10158,15.56
10170,13.93
10182,11.82
10194,9.54
10206,7.33
10218,5.33
10230,3.58
10242,2.12
10254,0.91
10266,-0.1
10278,-1.04
10290,-2.05
10301,-3.33
10312,-5.03
10324,-7.28
10336,-10.16
10348,-13.66
10360,-17.58
10372,-21.49
10384,-24.67
10396,-26.33
10408,-25.77
10420,-22.76
10432,-17.56
10444,-10.98
10456,-4.04
10468,2.32
10480,7.48
10491,11.2
10502,13.55
10514,14.72
10526,14.88
10538,14.15
10550,12.65
10562,10.52
10574,7.99
10586,5.34
10598,2.87
10610,0.8
10622,-0.77
10634,-1.88
10646,-2.69
10658,-3.44
10670,-4.35
10681,-5.62
10692,-7.43
10704,-9.91
10716,-13.1
10728,-16.86
10740,-20.79
10752,-24.14
10764,-26.02
10776,-25.64
10788,-22.64
10800,-17.28
10812,-10.41
10824,-3.19
10836,3.3
10848,8.37
10860,11.8
10871,13.74
10882,14.5
10894,14.3
10906,13.3
10918,11.6
10930,9.33
10942,6.75
10954,4.14
10966,1.74
10978,-0.3
10990,-1.99
11002,-3.43
11014,-4.76
11026,-6.08
11038,-7.45
11050,-8.92
11061,-10.62
11072,-12.77
11084,-15.57
11096,-19.01
11108,-22.7
11120,-25.84
11132,-27.44
11144,-26.67
11156,-23.22
11168,-17.48
11180,-10.39
11192,-3.09
11204,3.42
11216,8.58
11228,12.23
11240,14.52
11251,15.63
11262,15.72
11274,14.85
11286,13.16
11298,10.85
11310,8.22
11322,5.63
11334,3.35
11346,1.51
11358,0.09
11370,-1.06
11382,-2.12
11394,-3.27
11406,-4.65
11418,-6.4
11430,-8.64
11441,-11.53
11452,-15.11
11464,-19.19
11476,-23.27
11488,-26.54
11500,-28.09
11512,-27.22
11524,-23.71
11536,-17.96
11548,-10.83
11560,-3.39
11572,3.39
11584,8.92
11596,12.98
11608,15.61
11620,17.0
11631,17.27
11642,16.56
11654,14.98
11666,12.77
11678,10.22
11690,7.66
11702,5.37
11714,3.46
11726,1.88
11738,0.45
11750,-1.02
11762,-2.71
11774,-4.67
11786,-6.92
11798,-9.49
11810,-12.44
11821,-15.85
11832,-19.65
11844,-23.49
11856,-26.68
11868,-28.37
11880,-27.82
11892,-24.68
11904,-19.2
11916,-12.16
11928,-4.58
11940,2.57
11952,8.61
11964,13.24
11976,16.37
11988,18.12
12000,18.61
12011,18.02
12022,16.55
12034,14.46
12046,12.08
12058,9.69
12070,7.51
12082,5.64
12094,4.04
12106,2.6
12118,1.18
12130,-0.38
12142,-2.2
12154,-4.33
12166,-6.85
12178,-9.85
12190,-13.37
12201,-17.38
12212,-21.59
12224,-25.37
12236,-27.87
12248,-28.25
12260,-25.99
12272,-21.16
12284,-14.39
12296,-6.7
12308,0.84
12320,7.39
12332,12.52
12344,16.12
12356,18.32
12368,19.32
12380,19.3
12391,18.42
12402,16.86
12414,14.82
12426,12.48
12438,10.0
12450,7.51
12462,5.08
12474,2.82
12486,0.79
12498,-0.93
12510,-2.33
12522,-3.53
12534,-4.78
12546,-6.47
12558,-8.98
12570,-12.52
12581,-16.93
12592,-21.64
12604,-25.73
12616,-28.19
12628,-28.24
12640,-25.56
12652,-20.41
12664,-13.54
12676,-5.92
12688,1.47
12700,7.91
12712,12.98
12724,16.56
12736,18.73
12748,19.69
12760,19.65
12771,18.82
12782,17.41
12794,15.61
12806,13.59
12818,11.54
12830,9.6
12842,7.85
12854,6.31
12866,4.88
12878,3.48
12890,1.95
12902,0.18
12914,-1.93
12926,-4.5
12938,-7.66
12950,-11.48
12961,-15.87
12972,-20.5
12984,-24.74
12996,-27.74
13008,-28.72
13020,-27.17
13032,-23.08
13044,-16.98
13056,-9.78
13068,-2.45
13080,4.19
13092,9.63
13104,13.71
13116,16.47
13128,18.07
13140,18.7
13151,18.52
13162,17.71
13174,16.42
13186,14.81
13198,13.01
13210,11.14
13222,9.29
13234,7.53
13246,5.85
13258,4.2
13270,2.5
13282,0.63
13294,-1.48
13306,-3.93
13318,-6.83
13330,-10.33
13341,-14.51
13352,-19.27
13364,-24.15
13376,-28.36
13388,-30.91
13400,-30.94
13412,-28.04
13424,-22.45
13436,-14.98
13448,-6.69
13460,1.37
13472,8.43
13484,14.04
13496,18.07
13508,20.56
13520,21.66
13531,21.6
13542,20.66
13554,19.14
13566,17.3
13578,15.31
13590,13.28
13602,11.25
13614,9.27
13626,7.36
13638,5.55
13650,3.83
13662,2.14
13674,0.41
13686,-1.47
13698,-3.68
13710,-6.43
13721,-9.94
13732,-14.25
13744,-19.1
13756,-23.84
13768,-27.46
13780,-28.95
13792,-27.62
13804,-23.36
13816,-16.75
13828,-8.83
13840,-0.78
13852,6.51
13864,12.49
13876,17.02
13888,20.19
13900,22.11
13911,22.91
13922,22.72
13934,21.71
13946,20.14
13958,18.3
13970,16.43
13982,14.62
13994,12.86
14006,11.06
14018,9.14
14030,7.13
14042,5.13
14054,3.28
14066,1.62
14078,0.07
14090,-1.68
14101,-3.98
14112,-7.14
14124,-11.21
14136,-15.84
14148,-20.28
14160,-23.58
14172,-24.82
14184,-23.42
14196,-19.34
14208,-13.05
14220,-5.43
14232,2.48
14244,9.75
14256,15.72
14268,20.03
14280,22.62
14291,23.64
14302,23.39
14314,22.21
14326,20.48
14338,18.51
14350,16.57
14362,14.77
14374,13.12
14386,11.56
14398,9.98
14410,8.34
14422,6.6
14434,4.81
14446,2.98
14458,1.08
14470,-0.99
14481,-3.44
14492,-6.51
14504,-10.34
14516,-14.84
14528,-19.57
14540,-23.77
14552,-26.53
14564,-27.02
14576,-24.8
14588,-19.96
14600,-13.16
14612,-5.4
14624,2.28
14636,9.01
14648,14.32
14660,18.09
14671,20.43
14682,21.53
14694,21.56
14706,20.69
14718,19.1
14730,17.05
14742,14.85
14754,12.81
14766,11.1
14778,9.76
14790,8.64
14802,7.52
14814,6.22
14826,4.64
14838,2.82
14850,0.8
14861,-1.42
14872,-4.01
14884,-7.18
14896,-11.09
14908,-15.61
14920,-20.29
14932,-24.31
14944,-26.78
14956,-26.96
14968,-24.54
14980,-19.74
14992,-13.21
15004,-5.81
15016,1.58
15028,8.24
15040,13.68
15051,17.62
15062,20.01
15074,20.95
15086,20.7
15098,19.56
15110,17.85
15122,15.86
15134,13.79
15146,11.76
15158,9.87
15170,8.15
15182,6.58
15194,5.12
15206,3.64
15218,2.03
15230,0.24
15241,-1.76
15252,-4.0
15264,-6.55
15276,-9.58
15288,-13.22
15300,-17.43
15312,-21.82
15324,-25.58
15336,-27.71
15348,-27.29
15360,-23.94
15372,-17.94
15384,-10.23
15396,-2.04
15408,5.51
15420,11.69
15431,16.27
15442,19.3
15454,20.98
15466,21.47
15478,20.89
15490,19.38
15502,17.19
15514,14.61
15526,11.95
15538,9.43
15550,7.14
15562,5.03
15574,3.04
15586,1.09
15598,-0.85
15610,-2.77
15621,-4.73
15632,-6.89
15644,-9.5
15656,-12.8
15668,-16.94
15680,-21.72
15692,-26.58
15704,-30.59
15716,-32.79
15728,-32.47
15740,-29.38
15752,-23.87
15764,-16.74
15776,-8.92
15788,-1.3
15800,5.45
15811,10.94
15822,14.95
15834,17.41
15846,18.42
15858,18.22
15870,17.13
15882,15.51
15894,13.61
15906,11.55
15918,9.34
15930,7.0
15942,4.58
15954,2.26
15966,0.2
15978,-1.52
15990,-2.98
16001,-4.4
16012,-6.15
16024,-8.54
16036,-11.8
16048,-15.91
16060,-20.56
16072,-25.18
16084,-28.94
16096,-30.97
16108,-30.56
16120,-27.37
16132,-21.59
16144,-13.94
16156,-5.44
16168,2.81
16180,9.98
16191,15.62
16202,19.68
16214,22.33
16226,23.81
16238,24.3
16250,23.93
16262,22.78
16274,21.02
16286,18.86
16298,16.56
16310,14.28
16322,12.09
16334,9.96
16346,7.84
16358,5.68
16370,3.48
16381,1.23
16392,-1.13
16404,-3.78
16416,-6.97
16428,-10.89
16440,-15.55
16452,-20.59
16464,-25.28
16476,-28.67
16488,-29.8
16500,-28.04
16512,-23.35
16524,-16.31
16536,-7.89
16548,0.79
16560,8.82
16571,15.58
16582,20.82
16594,24.47
16606,26.58
16618,27.27
16630,26.73
16642,25.2
16654,23.03
16666,20.53
16678,17.95
16690,15.43
16702,13.04
16714,10.74
16726,8.54
16738,6.45
16750,4.46
16761,2.51
16772,0.41
16784,-2.09
16796,-5.28
16808,-9.37
16820,-14.34
16832,-19.9
16844,-25.37
16856,-29.86
16868,-32.42
16880,-32.28
16892,-29.13
16904,-23.23
16916,-15.35
16928,-6.58
16940,2.0
16951,9.58
16962,15.69
16974,20.22
16986,23.23
16998,24.81
17010,25.07
17022,24.16
17034,22.32
17046,19.91
17058,17.33
17070,14.9
17082,12.79
17094,10.95
17106,9.2
17118,7.34
17130,5.27
17141,3.01
17152,0.64
17164,-1.81
17176,-4.4
17188,-7.37
17200,-11.02
17212,-15.5
17224,-20.68
17236,-26.0
17248,-30.55
17260,-33.31
17272,-33.42
17284,-30.57
17296,-25.04
17308,-17.63
17320,-9.39
17331,-1.32
17342,5.85
17354,11.73
17366,16.2
17378,19.26
17390,20.96
17402,21.38
17414,20.68
17426,19.08
17438,16.87
17450,14.36
17462,11.81
17474,9.41
17486,7.26
17498,5.35
17510,3.58
17521,1.81
17532,-0.12
17544,-2.35
17556,-4.98
17568,-8.14
17580,-11.96
17592,-16.58
17604,-21.97
17616,-27.82
17628,-33.42
17640,-37.74
17652,-39.7
17664,-38.51
17676,-34.05
17688,-26.87
17700,-18.01
17711,-8.69
17722,0.1
17734,7.72
17746,13.93
17758,18.72
17770,22.15
17782,24.28
17794,25.18
17806,24.99
17818,23.91
17830,22.26
17842,20.33
17854,18.39
17866,16.62
17878,15.08
17890,13.75
17901,12.52
17912,11.27
17924,9.85
17936,8.14
17948,6.01
17960,3.31
17972,-0.07
17984,-4.12
17996,-8.52
18008,-12.63
18020,-15.49
18032,-16.14
18044,-13.84
18056,-8.44
18068,-0.35
18080,9.49
18091,19.97
18102,30.07
18114,39.07
18126,46.56
18138,52.34
18150,56.34
18162,58.52
18174,58.95
18186,57.85
18198,55.57
18210,52.48
18222,48.91
18234,45.03
18246,40.8
18258,36.14
18270,30.98
18281,25.39
18292,19.52
18304,13.59
18316,7.69
18328,1.76
18340,-4.43
18352,-11.16
18364,-18.59
18376,-26.63
18388,-34.86
18400,-42.49
18412,-48.48
18424,-51.79
18436,-51.62
18448,-47.69
18460,-40.34
18471,-30.47
18482,-19.27
18494,-7.96
18506,2.5
18518,11.46
18530,18.51
18542,23.39
18554,25.91
18566,25.98
18578,23.77
18590,19.68
18602,14.29
18614,8.21
18626,1.82
18638,-4.69
18650,-11.31
18661,-18.02
18672,-24.72
18684,-31.17
18696,-37.1
18708,-42.32
18720,-46.83
18732,-50.75
18744,-54.31
18756,-57.72
18768,-61.11
18780,-64.5
18792,-67.61
18804,-69.87
18816,-70.44
18828,-68.37
18840,-62.92
18851,-53.9
18862,-41.79
18874,-27.66
18886,-12.85
18898,1.36
18910,14.08
18922,24.81
18934,33.37
18946,39.69
18958,43.77
18970,45.72
18982,45.83
18994,44.58
19006,42.54
19018,40.21
19030,37.85
19041,35.48
19052,32.98
19064,30.21
19076,27.14
19088,23.86
19100,20.5
19112,17.12
19124,13.67
19136,9.96
19148,5.75
19160,0.84
19172,-4.87
19184,-11.23
19196,-17.81
19208,-23.9
19220,-28.56
19231,-30.92
19242,-30.32
19254,-26.64
19266,-20.32
19278,-12.26
19290,-3.59
19302,4.7
19314,11.86
19326,17.48
19338,21.42
19350,23.74
19362,24.56
19374,24.13
19386,22.71
19398,20.64
19410,18.25
19421,15.83
19432,13.55
19444,11.5
19456,9.66
19468,7.98
19480,6.42
19492,4.96
19504,3.57
19516,2.21
19528,0.71
19540,-1.18
19552,-3.81
19564,-7.47
19576,-12.18
19588,-17.54
19600,-22.71
19611,-26.57
19622,-28.06
19634,-26.53
19646,-21.94
19658,-14.86
19670,-6.25
19682,2.83
19694,11.53
19706,19.19
19718,25.43
19730,30.03
19742,32.9
19754,34.05
19766,33.7
19778,32.23
19790,30.12
19801,27.87
19812,25.78
19824,23.94
19836,22.23
19848,20.43
19860,18.36
19872,15.96
19884,13.33
19896,10.67
19908,8.1
19920,5.66
19932,3.16
19944,0.26
19956,-3.45
19968,-8.21
19980,-13.94
19991,-20.07
20002,-25.59
20014,-29.23
20026,-29.96
20038,-27.29
20050,-21.49
20062,-13.58
20074,-4.84
20086,3.49
20098,10.61
20110,16.22
20122,20.33
20134,23.08
20146,24.54
20158,24.78
20170,23.84
20181,21.92
20192,19.31
20204,16.34
20216,13.28
20228,10.32
20240,7.53
20252,4.95
20264,2.58
20276,0.43
20288,-1.56
20300,-3.51
20312,-5.58
20324,-7.94
20336,-10.79
20348,-14.29
20360,-18.52
20371,-23.38
20382,-28.49
20394,-33.14
20406,-36.39
20418,-37.29
20430,-35.2
20442,-30.11
20454,-22.63
20466,-13.87
20478,-5.04
20490,2.89
20502,9.37
20514,14.27
20526,17.69
20538,19.77
20550,20.59
20561,20.19
20572,18.71
20584,16.38
20596,13.61
20608,10.77
20620,8.13
20632,5.76
20644,3.61
20656,1.53
20668,-0.53
20680,-2.57
20692,-4.55
20704,-6.44
20716,-8.32
20728,-10.4
20740,-12.97
20751,-16.25
20762,-20.31
20774,-24.89
20786,-29.36
20798,-32.83
20810,-34.31
20822,-33.04
20834,-28.78
20846,-21.92
20858,-13.39
20870,-4.39
20882,3.97
20894,11.0
20906,16.41
20918,20.26
20930,22.7
20941,23.89
20952,23.92
20964,22.89
20976,21.03
20988,18.68
