seconds,BVP
11,9.01
23,8.36
35,7.63
47,6.81
59,5.88
71,4.86
82,3.75
93,2.64
105,1.57
117,0.56
129,-0.44
141,-1.49
153,-2.58
165,-3.67
177,-4.6
189,-5.18
201,-5.2
213,-4.59
225,-3.42
237,-1.88
249,-0.21
261,1.38
272,2.77
283,3.97
295,5.03
307,6.05
319,7.02
331,7.93
343,8.75
355,9.44
367,10.0
379,10.43
391,10.74
403,10.93
415,10.99
427,10.92
439,10.73
451,10.43
462,10.06
473,9.66
485,9.3
497,9.02
509,8.8
521,8.57
533,8.25
545,7.77
557,7.13
569,6.38
581,5.55
593,4.67
605,3.68
617,2.54
629,1.27
641,-0.01
652,-1.18
663,-2.11
675,-2.8
687,-3.26
699,-3.58
711,-3.8
723,-3.94
735,-4.05
747,-4.23
759,-4.6
771,-5.27
783,-6.21
795,-7.27
807,-8.16
819,-8.58
831,-8.36
842,-7.46
853,-6.05
865,-4.38
877,-2.7
889,-1.16
901,0.09
913,1.04
925,1.67
937,2.04
949,2.24
961,2.37
973,2.53
985,2.75
997,2.99
1009,3.17
1021,3.26
1032,3.25
1043,3.19
1055,3.15
1067,3.21
1079,3.42
1091,3.78
1103,4.25
1115,4.78
1127,5.29
1139,5.67
1151,5.85
1163,5.77
1175,5.43
1187,4.85
1199,4.16
1211,3.44
1222,2.75
1233,2.12
1245,1.53
1257,0.96
1269,0.45
1281,0.01
1293,-0.32
1305,-0.51
1317,-0.57
1329,-0.55
1341,-0.52
1353,-0.62
1365,-0.9
1377,-1.39
1389,-2.06
1401,-2.77
1412,-3.39
1423,-3.83
1435,-4.1
1447,-4.24
1459,-4.33
1471,-4.34
1483,-4.22
1495,-3.92
1507,-3.41
1519,-2.75
1531,-2.1
1543,-1.57
1555,-1.31
1567,-1.39
1579,-1.77
1591,-2.32
1602,-2.91
1613,-3.38
1625,-3.67
1637,-3.77
1649,-3.69
1661,-3.47
1673,-3.15
1685,-2.77
1697,-2.36
1709,-1.99
1721,-1.65
1733,-1.34
1745,-0.97
1757,-0.44
1769,0.33
1781,1.28
1792,2.3
1803,3.23
1815,3.92
1827,4.33
1839,4.47
1851,4.4
1863,4.19
1875,3.89
1887,3.55
1899,3.23
1911,2.9
1923,2.51
1935,2.03
1947,1.43
1959,0.73
1971,0.03
1982,-0.55
1993,-0.94
2005,-1.09
2017,-1.08
2029,-1.05
2041,-1.11
2053,-1.37
2065,-1.84
2077,-2.49
2089,-3.16
2101,-3.76
2113,-4.22
2125,-4.64
2137,-5.18
2149,-5.99
2161,-7.16
2172,-8.61
2183,-10.15
2195,-11.58
2207,-12.78
2219,-13.68
2231,-14.28
2243,-14.57
2255,-14.52
2267,-14.11
2279,-13.35
2291,-12.34
2303,-11.26
2315,-10.27
2327,-9.48
2339,-8.89
2351,-8.42
2362,-7.98
2373,-7.52
2385,-6.96
2397,-6.4
2409,-5.92
2421,-5.6
2433,-5.52
2445,-5.61
2457,-5.73
2469,-5.67
2481,-5.29
2493,-4.58
2505,-3.66
2517,-2.73
2529,-1.97
2541,-1.41
2552,-0.92
2563,-0.3
2575,0.63
2587,1.86
2599,3.29
2611,4.74
2623,6.08
2635,7.27
2647,8.29
2659,9.16
2671,9.78
2683,10.0
2695,9.66
2707,8.69
2719,7.19
2731,5.45
2742,3.82
2753,2.62
2765,2.09
2777,2.25
2789,2.89
2801,3.76
2813,4.49
2825,4.82
2837,4.61
2849,3.89
2861,2.78
2873,1.48
2885,0.22
2897,-0.82
2909,-1.53
2921,-1.87
2932,-1.97
2943,-2.02
2955,-2.26
2967,-2.87
2979,-3.86
2991,-5.12
3003,-6.32
3015,-7.16
3027,-7.42
3039,-7.13
3051,-6.44
3063,-5.58
3075,-4.68
3087,-3.74
3099,-2.73
3111,-1.63
3122,-0.5
3133,0.51
3145,1.2
3157,1.51
3169,1.46
3181,1.14
3193,0.7
3205,0.2
3217,-0.31
3229,-0.78
3241,-1.11
3253,-1.25
3265,-1.1
3277,-0.76
3289,-0.36
3301,0.01
3312,0.26
3323,0.39
3335,0.49
3347,0.53
3359,0.41
3371,0.02
3383,-0.71
3395,-1.68
3407,-2.67
3419,-3.48
3431,-4.0
3443,-4.3
3455,-4.53
3467,-4.85
3479,-5.25
3491,-5.65
3502,-5.87
3513,-5.84
3525,-5.6
3537,-5.33
3549,-5.21
3561,-5.4
3573,-5.94
3585,-6.69
3597,-7.5
3609,-8.16
3621,-8.49
3633,-8.41
3645,-7.86
3657,-6.88
3669,-5.53
3681,-3.92
3692,-2.11
3703,-0.21
3715,1.63
3727,3.32
3739,4.73
3751,5.78
3763,6.48
3775,6.83
3787,6.89
3799,6.74
3811,6.44
3823,6.03
3835,5.52
3847,4.92
3859,4.26
3871,3.61
3882,3.06
3893,2.74
3905,2.71
3917,2.97
3929,3.44
3941,3.96
3953,4.36
3965,4.51
3977,4.35
3989,3.88
4001,3.22
4013,2.46
4025,1.74
4037,1.2
4049,0.98
4061,1.12
4072,1.59
4083,2.34
4095,3.2
4107,4.02
4119,4.64
4131,4.97
4143,4.92
4155,4.52
4167,3.8
4179,2.89
4191,1.95
4203,1.09
4215,0.4
4227,-0.14
4239,-0.57
4251,-0.98
4262,-1.41
4273,-1.82
4285,-2.14
4297,-2.24
4309,-2.09
4321,-1.7
4333,-1.22
4345,-0.79
4357,-0.52
4369,-0.4
4381,-0.33
4393,-0.2
4405,-0.04
4417,0.07
4429,-0.03
4441,-0.42
4452,-1.05
4463,-1.73
4475,-2.24
4487,-2.44
4499,-2.39
4511,-2.27
4523,-2.31
4535,-2.61
4547,-3.12
4559,-3.66
4571,-4.05
4583,-4.19
4595,-4.15
4607,-4.1
4619,-4.17
4631,-4.4
4642,-4.69
4653,-4.9
4665,-4.9
4677,-4.63
4689,-4.11
4701,-3.42
4713,-2.58
4725,-1.6
4737,-0.51
4749,0.65
4761,1.81
4773,2.89
4785,3.85
4797,4.7
4809,5.42
4821,6.03
4832,6.48
4843,6.72
4855,6.78
4867,6.75
4879,6.78
4891,7.0
4903,7.42
4915,7.96
4927,8.49
4939,8.88
4951,9.04
4963,9.01
4975,8.82
4987,8.49
4999,8.01
5011,7.42
5022,6.79
5033,6.24
5045,5.81
5057,5.49
5069,5.16
5081,4.68
5093,3.95
5105,3.0
5117,1.9
5129,0.74
5141,-0.45
5153,-1.69
5165,-2.97
5177,-4.17
5189,-5.13
5201,-5.73
5212,-5.88
5223,-5.63
5235,-5.07
5247,-4.28
5259,-3.27
5271,-2.08
5283,-0.75
5295,0.59
5307,1.81
5319,2.8
5331,3.58
5343,4.21
5355,4.8
5367,5.34
5379,5.76
5391,5.94
5402,5.79
5413,5.38
5425,4.79
5437,4.18
5449,3.63
5461,3.15
5473,2.76
5485,2.47
5497,2.31
5509,2.32
5521,2.47
5533,2.65
5545,2.7
5557,2.46
5569,1.86
5581,0.95
5592,-0.16
5603,-1.31
5615,-2.39
5627,-3.37
5639,-4.27
5651,-5.05
5663,-5.71
5675,-6.19
5687,-6.38
5699,-6.17
5711,-5.43
5723,-4.11
5735,-2.26
5747,-0.05
5759,2.25
5771,4.33
5782,5.96
5793,7.1
5805,7.82
5817,8.32
5829,8.79
5841,9.3
5853,9.83
5865,10.26
5877,10.51
5889,10.58
5901,10.54
5913,10.44
5925,10.32
5937,10.16
5949,9.92
5961,9.64
5972,9.34
5983,9.1
5995,8.94
6007,8.83
6019,8.66
6031,8.38
6043,7.96
6055,7.44
6067,6.86
6079,6.19
6091,5.43
6103,4.55
6115,3.61
6127,2.67
6139,1.83
6151,1.11
6162,0.5
6173,-0.07
6185,-0.62
6197,-1.15
6209,-1.58
6221,-1.91
6233,-2.14
6245,-2.35
6257,-2.61
6269,-2.87
6281,-3.04
6293,-2.99
6305,-2.68
6317,-2.14
6329,-1.51
6341,-0.9
6352,-0.4
6363,-0.02
6375,0.23
6387,0.31
6399,0.16
6411,-0.24
6423,-0.87
6435,-1.64
6447,-2.44
6459,-3.19
6471,-3.89
6483,-4.52
6495,-5.06
6507,-5.39
6519,-5.42
6531,-5.1
6542,-4.5
6553,-3.76
6565,-3.04
6577,-2.43
6589,-1.91
6601,-1.39
6613,-0.86
6625,-0.39
6637,-0.14
6649,-0.25
6661,-0.78
6673,-1.61
6685,-2.5
6697,-3.17
6709,-3.42
6721,-3.16
6732,-2.46
6743,-1.39
6755,-0.07
6767,1.38
6779,2.87
6791,4.26
6803,5.42
6815,6.3
6827,6.89
6839,7.26
6851,7.52
6863,7.72
6875,7.87
6887,7.88
6899,7.73
6911,7.38
6922,6.91
6933,6.37
6945,5.85
6957,5.36
6969,4.87
6981,4.42
6993,4.01
7005,3.68
7017,3.39
7029,3.09
7041,2.68
7053,2.14
7065,1.52
7077,0.94
7089,0.52
7101,0.28
7112,0.13
7123,-0.09
7135,-0.5
7147,-1.11
7159,-1.85
7171,-2.62
7183,-3.33
7195,-3.92
7207,-4.36
7219,-4.57
7231,-4.46
7243,-3.96
7255,-3.09
7267,-1.93
7279,-0.68
7291,0.49
7302,1.47
7313,2.19
7325,2.63
7337,2.82
7349,2.78
7361,2.6
7373,2.39
7385,2.28
7397,2.35
7409,2.65
7421,3.09
7433,3.6
7445,4.03
7457,4.3
7469,4.4
7481,4.37
7492,4.24
7503,4.12
7515,4.06
7527,4.04
7539,4.08
7551,4.1
7563,4.01
7575,3.76
7587,3.32
7599,2.76
7611,2.2
7623,1.8
7635,1.61
7647,1.66
7659,1.84
7671,2.01
7682,2.06
7693,1.93
7705,1.67
7717,1.44
7729,1.38
7741,1.56
7753,1.96
7765,2.43
7777,2.8
7789,3.02
7801,3.15
7813,3.35
7825,3.77
7837,4.42
7849,5.15
7861,5.76
7872,6.05
7883,5.96
7895,5.59
7907,5.15
7919,4.83
7931,4.76
7943,4.95
7955,5.27
7967,5.62
7979,5.84
7991,5.83
8003,5.61
8015,5.21
8027,4.74
8039,4.29
8051,3.93
8062,3.6
8073,3.21
8085,2.63
8097,1.76
8109,0.58
8121,-0.86
8133,-2.44
8145,-3.97
8157,-5.32
8169,-6.4
8181,-7.19
8193,-7.72
8205,-8.02
8217,-8.1
8229,-7.98
8241,-7.7
8252,-7.31
8263,-6.89
8275,-6.54
8287,-6.28
8299,-6.16
8311,-6.18
8323,-6.34
8335,-6.61
8347,-6.91
8359,-7.12
8371,-7.16
8383,-6.97
8395,-6.57
8407,-6.05
8419,-5.48
8431,-4.86
8442,-4.09
8453,-3.09
8465,-1.8
8477,-0.32
8489,1.16
8501,2.4
8513,3.16
8525,3.42
8537,3.27
8549,2.93
8561,2.64
8573,2.51
8585,2.56
8597,2.64
8609,2.65
8621,2.54
8632,2.36
8643,2.26
8655,2.34
8667,2.61
8679,2.96
8691,3.24
8703,3.28
8715,3.01
8727,2.41
8739,1.62
8751,0.8
8763,0.13
8775,-0.29
8787,-0.46
8799,-0.5
8811,-0.62
8822,-0.91
8833,-1.41
8845,-1.94
8857,-2.31
8869,-2.44
8881,-2.41
8893,-2.49
8905,-2.93
8917,-3.82
8929,-5.04
8941,-6.33
8953,-7.47
8965,-8.3
8977,-8.85
8989,-9.25
9001,-9.56
9012,-9.77
9023,-9.77
9035,-9.44
9047,-8.81
9059,-7.98
9071,-7.16
9083,-6.51
9095,-6.13
9107,-5.99
9119,-6.0
9131,-6.06
9143,-6.11
9155,-6.14
9167,-6.18
9179,-6.29
9191,-6.49
9202,-6.78
9213,-7.12
9225,-7.44
9237,-7.63
9249,-7.62
9261,-7.35
9273,-6.81
9285,-6.05
9297,-5.15
9309,-4.2
9321,-3.25
9333,-2.34
9345,-1.52
9357,-0.78
9369,-0.17
9381,0.29
9392,0.6
9403,0.78
9415,0.89
9427,1.0
9439,1.17
9451,1.37
9463,1.58
9475,1.71
9487,1.66
9499,1.39
9511,0.91
9523,0.34
9535,-0.18
9547,-0.5
9559,-0.57
9571,-0.4
9582,-0.13
9593,0.15
9605,0.36
9617,0.46
9629,0.39
9641,0.12
9653,-0.39
9665,-1.14
9677,-1.97
9689,-2.71
9701,-3.18
9713,-3.35
9725,-3.34
9737,-3.36
9749,-3.55
9761,-3.87
9772,-4.16
9783,-4.18
9795,-3.82
9807,-3.12
9819,-2.29
9831,-1.52
9843,-0.97
9855,-0.61
9867,-0.34
9879,-0.03
9891,0.35
9903,0.77
9915,1.15
9927,1.41
9939,1.54
9951,1.58
9962,1.65
9973,1.83
9985,2.16
9997,2.59
10009,2.98
10021,3.23
10033,3.28
10045,3.16
10057,2.95
10069,2.71
10081,2.46
10093,2.16
10105,1.76
10117,1.28
10129,0.77
10141,0.33
10152,0.05
10163,-0.03
10175,0.05
10187,0.24
10199,0.54
10211,0.9
10223,1.32
10235,1.72
10247,2.03
10259,2.24
10271,2.33
10283,2.28
10295,2.03
10307,1.53
10319,0.82
10331,-0.01
10342,-0.77
10353,-1.25
10365,-1.36
10377,-1.2
10389,-0.98
10401,-0.96
10413,-1.2
10425,-1.62
10437,-1.98
10449,-2.1
10461,-1.88
10473,-1.46
10485,-1.02
10497,-0.73
10509,-0.61
10521,-0.57
10532,-0.48
10543,-0.26
10555,0.13
10567,0.6
10579,1.08
10591,1.55
10603,2.02
10615,2.5
10627,2.99
10639,3.44
10651,3.82
10663,4.13
10675,4.34
10687,4.42
10699,4.32
10711,4.01
10722,3.45
10733,2.69
10745,1.88
10757,1.24
10769,0.92
10781,0.96
10793,1.3
10805,1.77
10817,2.21
10829,2.52
10841,2.68
10853,2.75
10865,2.76
10877,2.71
10889,2.52
10901,2.16
10912,1.61
10923,0.94
10935,0.29
10947,-0.15
10959,-0.25
10971,0.0
10983,0.5
10995,1.04
11007,1.46
11019,1.66
11031,1.62
11043,1.44
11055,1.2
11067,0.99
11079,0.85
11091,0.8
11102,0.83
11113,0.93
11125,1.05
11137,1.13
11149,1.18
11161,1.19
11173,1.19
11185,1.2
11197,1.23
11209,1.25
11221,1.26
11233,1.27
11245,1.29
11257,1.38
11269,1.5
11281,1.56
11292,1.48
11303,1.19
11315,0.76
11327,0.28
11339,-0.13
11351,-0.42
11363,-0.64
11375,-0.85
11387,-1.22
11399,-1.81
11411,-2.67
11423,-3.75
11435,-4.95
11447,-6.16
11459,-7.24
11471,-8.08
11482,-8.62
11493,-8.86
11505,-8.85
11517,-8.72
11529,-8.55
11541,-8.43
11553,-8.33
11565,-8.19
11577,-7.93
11589,-7.48
11601,-6.91
11613,-6.35
11625,-5.98
11637,-5.92
11649,-6.15
11661,-6.53
11672,-6.85
11683,-6.93
11695,-6.65
11707,-6.05
11719,-5.22
11731,-4.36
11743,-3.6
11755,-3.04
11767,-2.69
11779,-2.47
11791,-2.36
11803,-2.3
11815,-2.28
11827,-2.3
11839,-2.39
11851,-2.55
11862,-2.76
11873,-2.96
11885,-3.11
11897,-3.21
11909,-3.3
11921,-3.45
11933,-3.66
11945,-3.89
11957,-4.01
11969,-3.9
11981,-3.53
11993,-2.99
12005,-2.44
12017,-2.04
12029,-1.86
12041,-1.89
12052,-2.01
12063,-2.2
12075,-2.46
12087,-2.8
12099,-3.23
12111,-3.7
12123,-4.03
12135,-4.11
12147,-3.9
12159,-3.45
12171,-2.87
12183,-2.21
12195,-1.46
12207,-0.51
12219,0.64
12231,1.98
12242,3.43
12253,4.84
12265,6.08
12277,7.05
12289,7.67
12301,7.91
12313,7.79
12325,7.37
12337,6.85
12349,6.41
12361,6.15
12373,6.06
12385,6.03
12397,5.92
12409,5.7
12421,5.4
12432,5.1
12443,4.86
12455,4.63
12467,4.36
12479,4.02
12491,3.65
12503,3.28
12515,3.0
12527,2.79
12539,2.58
12551,2.29
12563,1.94
12575,1.59
12587,1.4
12599,1.4
12611,1.54
12622,1.66
12633,1.55
12645,1.1
12657,0.36
12669,-0.5
12681,-1.24
12693,-1.61
12705,-1.54
12717,-1.11
12729,-0.48
12741,0.13
12753,0.63
12765,1.02
12777,1.38
12789,1.75
12801,2.16
12812,2.54
12823,2.79
12835,2.9
12847,2.94
12859,3.01
12871,3.2
12883,3.43
12895,3.56
12907,3.42
12919,3.0
12931,2.42
12943,1.91
12955,1.67
12967,1.71
12979,1.93
12991,2.14
13002,2.29
13013,2.48
13025,2.85
13037,3.5
13049,4.35
13061,5.19
13073,5.74
13085,5.87
13097,5.65
13109,5.26
13121,4.88
13133,4.55
13145,4.21
13157,3.71
13169,2.97
13181,1.96
13192,0.85
13203,-0.27
13215,-1.31
13227,-2.3
13239,-3.31
13251,-4.37
13263,-5.43
13275,-6.31
13287,-6.83
13299,-6.82
13311,-6.3
13323,-5.49
13335,-4.64
13347,-3.99
13359,-3.63
13371,-3.5
13382,-3.39
13393,-3.17
13405,-2.76
13417,-2.22
13429,-1.62
13441,-1.02
13453,-0.37
13465,0.42
13477,1.41
13489,2.62
13501,3.88
13513,5.04
13525,5.98
13537,6.68
13549,7.19
13561,7.58
13572,7.86
13583,7.96
13595,7.76
13607,7.17
13619,6.21
13631,5.03
13643,3.88
13655,2.99
13667,2.47
13679,2.32
13691,2.41
13703,2.53
13715,2.52
13727,2.32
13739,1.93
13751,1.41
13762,0.86
13773,0.34
13785,-0.12
13797,-0.51
13809,-0.86
13821,-1.2
13833,-1.59
13845,-2.09
13857,-2.8
13869,-3.75
13881,-4.93
13893,-6.26
13905,-7.6
13917,-8.79
13929,-9.67
13941,-10.14
13952,-10.2
13963,-9.94
13975,-9.49
13987,-8.96
13999,-8.41
14011,-7.84
14023,-7.15
14035,-6.29
14047,-5.26
14059,-4.16
14071,-3.12
14083,-2.31
14095,-1.79
14107,-1.52
14119,-1.43
14131,-1.38
14142,-1.31
14153,-1.2
14165,-1.06
14177,-0.9
14189,-0.75
14201,-0.54
14213,-0.22
14225,0.26
14237,0.93
14249,1.65
14261,2.27
14273,2.63
14285,2.66
14297,2.38
14309,1.9
14321,1.38
14332,0.97
14343,0.68
14355,0.48
14367,0.27
14379,0.01
14391,-0.3
14403,-0.58
14415,-0.77
14427,-0.81
14439,-0.73
14451,-0.62
14463,-0.58
14475,-0.72
14487,-1.13
14499,-1.82
14511,-2.78
14522,-3.99
14533,-5.38
14545,-6.88
14557,-8.35
14569,-9.57
14581,-10.35
14593,-10.54
14605,-10.09
14617,-9.06
14629,-7.6
14641,-5.88
14653,-4.04
14665,-2.2
14677,-0.43
14689,1.16
14701,2.47
14712,3.47
14723,4.18
14735,4.67
14747,5.05
14759,5.37
14771,5.7
14783,6.1
14795,6.59
14807,7.24
14819,8.01
14831,8.79
14843,9.44
14855,9.78
14867,9.68
14879,9.16
14891,8.38
14902,7.54
14913,6.8
14925,6.18
14937,5.62
14949,5.01
14961,4.34
14973,3.65
14985,3.06
14997,2.68
15009,2.51
15021,2.51
15033,2.56
15045,2.5
15057,2.21
15069,1.64
15081,0.76
15092,-0.41
15103,-1.84
15115,-3.45
15127,-5.08
15139,-6.5
15151,-7.49
15163,-7.87
15175,-7.54
15187,-6.55
15199,-5.05
15211,-3.25
15223,-1.37
15235,0.45
15247,2.08
15259,3.45
15271,4.55
15282,5.39
15293,6.05
15305,6.55
15317,6.95
15329,7.22
15341,7.28
15353,7.12
15365,6.8
15377,6.49
15389,6.42
15401,6.72
15413,7.33
15425,8.02
15437,8.48
15449,8.49
15461,8.01
15472,7.2
15483,6.25
15495,5.31
15507,4.4
15519,3.38
15531,2.12
15543,0.56
15555,-1.19
15567,-2.96
15579,-4.51
15591,-5.72
15603,-6.63
15615,-7.33
15627,-8.0
15639,-8.66
15651,-9.29
15662,-9.78
15673,-10.05
15685,-10.07
15697,-9.93
15709,-9.69
15721,-9.36
15733,-8.86
15745,-8.0
15757,-6.69
15769,-4.99
15781,-3.1
15793,-1.32
15805,0.06
15817,0.96
15829,1.48
15841,1.85
15852,2.32
15863,3.0
15875,3.78
15887,4.46
15899,4.85
15911,4.86
15923,4.6
15935,4.33
15947,4.32
15959,4.67
15971,5.36
15983,6.17
15995,6.89
16007,7.38
16019,7.66
16031,7.81
16042,7.94
16053,8.05
16065,8.03
16077,7.75
16089,7.13
16101,6.22
16113,5.11
16125,3.91
16137,2.71
16149,1.52
16161,0.34
16173,-0.83
16185,-1.93
16197,-2.89
16209,-3.66
16221,-4.25
16232,-4.75
16243,-5.21
16255,-5.72
16267,-6.36
16279,-7.2
16291,-8.22
16303,-9.38
16315,-10.5
16327,-11.31
16339,-11.57
16351,-11.08
16363,-9.9
16375,-8.23
16387,-6.37
16399,-4.56
16411,-2.9
16422,-1.34
16433,0.24
16445,1.88
16457,3.51
16469,4.98
16481,6.1
16493,6.79
16505,7.09
16517,7.18
16529,7.2
16541,7.31
16553,7.54
16565,7.86
16577,8.21
16589,8.52
16601,8.83
16612,9.18
16623,9.59
16635,10.0
16647,10.29
16659,10.34
16671,10.09
16683,9.57
16695,8.88
16707,8.17
16719,7.47
16731,6.74
16743,5.86
16755,4.75
16767,3.38
16779,1.86
16791,0.36
16802,-0.99
16813,-2.1
16825,-3.0
16837,-3.76
16849,-4.42
16861,-5.0
16873,-5.44
16885,-5.7
16897,-5.74
16909,-5.61
16921,-5.43
16933,-5.41
16945,-5.72
16957,-6.42
16969,-7.52
16981,-8.88
16992,-10.36
17003,-11.84
17015,-13.22
17027,-14.46
17039,-15.58
17051,-16.5
17063,-17.12
17075,-17.28
17087,-16.78
17099,-15.58
17111,-13.72
17123,-11.36
17135,-8.71
17147,-6.0
17159,-3.38
17171,-0.93
17182,1.35
17193,3.49
17205,5.51
17217,7.37
17229,9.01
17241,10.31
17253,11.19
17265,11.61
17277,11.63
17289,11.37
17301,11.05
17313,10.8
17325,10.68
17337,10.64
17349,10.56
17361,10.37
17372,10.12
17383,9.99
17395,10.12
17407,10.56
17419,11.16
17431,11.69
17443,11.91
17455,11.72
17467,11.2
17479,10.52
17491,9.85
17503,9.25
17515,8.68
17527,8.02
17539,7.2
17551,6.18
17562,4.99
17573,3.7
17585,2.36
17597,1.04
17609,-0.17
17621,-1.19
17633,-1.97
17645,-2.49
17657,-2.76
17669,-2.83
17681,-2.8
17693,-2.79
17705,-2.94
17717,-3.3
17729,-3.9
17741,-4.69
17752,-5.6
17763,-6.58
17775,-7.58
17787,-8.53
17799,-9.33
17811,-9.85
17823,-9.94
17835,-9.57
17847,-8.73
17859,-7.55
17871,-6.22
17883,-4.83
17895,-3.49
17907,-2.24
17919,-1.11
17931,-0.14
17942,0.65
17953,1.29
17965,1.86
17977,2.42
17989,3.01
18001,3.65
18013,4.31
18025,4.95
18037,5.49
18049,5.86
18061,5.97
18073,5.77
18085,5.26
18097,4.52
18109,3.65
18121,2.72
18132,1.82
18143,1.03
18155,0.42
18167,0.1
18179,0.09
18191,0.33
18203,0.7
18215,1.0
18227,1.1
18239,0.98
18251,0.72
18263,0.39
18275,0.07
18287,-0.29
18299,-0.78
18311,-1.41
18322,-2.12
18333,-2.77
18345,-3.19
18357,-3.35
18369,-3.32
18381,-3.25
18393,-3.31
18405,-3.61
18417,-4.15
18429,-4.85
18441,-5.63
18453,-6.45
18465,-7.3
18477,-8.16
18489,-9.01
18501,-9.83
18512,-10.55
18523,-11.14
18535,-11.54
18547,-11.74
18559,-11.67
18571,-11.24
18583,-10.36
18595,-9.05
18607,-7.37
18619,-5.56
18631,-3.82
18643,-2.35
18655,-1.22
18667,-0.32
18679,0.49
18691,1.34
18702,2.3
18713,3.34
18725,4.39
18737,5.38
18749,6.25
18761,6.96
18773,7.49
18785,7.86
18797,8.1
18809,8.31
18821,8.55
18833,8.85
18845,9.18
18857,9.44
18869,9.54
18881,9.43
18892,9.09
18903,8.53
18915,7.8
18927,6.86
18939,5.68
18951,4.23
18963,2.54
18975,0.72
18987,-1.07
18999,-2.72
19011,-4.18
19023,-5.48
19035,-6.68
19047,-7.82
19059,-8.84
19071,-9.62
19082,-10.08
19093,-10.21
19105,-10.15
19117,-10.11
19129,-10.28
19141,-10.72
19153,-11.35
19165,-11.98
19177,-12.43
19189,-12.61
19201,-12.55
19213,-12.36
19225,-12.2
19237,-12.11
19249,-12.13
19261,-12.24
19272,-12.42
19283,-12.68
19295,-12.96
19307,-13.16
19319,-13.13
19331,-12.72
19343,-11.86
19355,-10.64
19367,-9.2
19379,-7.68
19391,-6.16
19403,-4.57
19415,-2.82
19427,-0.86
19439,1.2
19451,3.15
19462,4.74
19473,5.8
19485,6.31
19497,6.4
19509,6.26
19521,6.08
19533,5.91
19545,5.77
19557,5.58
19569,5.34
19581,5.06
19593,4.84
19605,4.75
19617,4.83
19629,5.05
19641,5.35
19652,5.65
19663,5.91
19675,6.15
19687,6.43
19699,6.82
19711,7.3
19723,7.81
19735,8.25
19747,8.55
19759,8.71
19771,8.82
19783,8.94
19795,9.05
19807,9.05
19819,8.8
19831,8.16
19842,7.18
19853,6.06
19865,5.07
19877,4.5
19889,4.44
19901,4.77
19913,5.22
19925,5.47
19937,5.25
19949,4.47
19961,3.16
19973,1.51
19985,-0.25
19997,-1.82
20009,-2.98
20021,-3.55
20032,-3.46
20043,-2.84
20055,-1.83
20067,-0.62
20079,0.65
20091,1.93
20103,3.22
20115,4.52
20127,5.78
20139,6.94
20151,7.89
20163,8.57
20175,8.97
20187,9.16
20199,9.2
20211,9.17
20222,9.02
20233,8.67
20245,8.03
20257,7.01
20269,5.69
20281,4.19
20293,2.75
20305,1.61
20317,0.93
20329,0.69
20341,0.75
20353,0.9
20365,0.99
20377,0.94
20389,0.83
20401,0.75
20412,0.86
20423,1.18
20435,1.6
20447,2.0
20459,2.2
20471,2.06
20483,1.55
20495,0.7
20507,-0.4
20519,-1.6
20531,-2.8
20543,-3.94
20555,-5.04
20567,-6.15
20579,-7.33
20591,-8.58
20602,-9.81
20613,-10.92
20625,-11.83
20637,-12.56
20649,-13.18
20661,-13.8
20673,-14.45
20685,-15.04
20697,-15.38
20709,-15.31
20721,-14.72
20733,-13.66
20745,-12.29
20757,-10.73
20769,-9.1
20781,-7.46
20792,-5.84
20803,-4.29
20815,-2.89
20827,-1.71
20839,-0.82
20851,-0.21
20863,0.14
20875,0.31
20887,0.35
20899,0.28
20911,0.13
20923,-0.05
20935,-0.22
20947,-0.34
20959,-0.34
20971,-0.14
20982,0.33
20993,1.07
