seconds,BVP
8,-70.08
20,-61.86
32,-51.26
44,-40.77
56,-32.17
68,-26.37
80,-23.51
92,-23.29
104,-25.25
115,-28.97
126,-34.12
138,-40.33
150,-47.09
162,-53.79
174,-59.79
186,-64.71
198,-68.49
210,-71.44
222,-73.94
234,-76.18
246,-77.98
258,-78.83
270,-78.2
282,-75.87
294,-72.18
305,-67.93
316,-64.08
328,-61.37
340,-60.01
352,-59.74
364,-59.96
376,-60.14
388,-59.93
400,-59.32
412,-58.47
424,-57.54
436,-56.6
448,-55.61
460,-54.42
472,-52.92
484,-50.99
495,-48.61
506,-45.81
518,-42.73
530,-39.65
542,-36.91
554,-34.85
566,-33.64
578,-33.14
590,-32.89
602,-32.21
614,-30.4
626,-26.98
638,-21.94
650,-15.72
662,-9.13
674,-3.09
685,1.66
696,4.78
708,6.29
720,6.52
732,5.87
744,4.73
756,3.48
768,2.52
780,2.29
792,3.21
804,5.45
816,8.81
828,12.68
840,16.19
852,18.62
864,19.67
875,19.55
886,18.8
898,17.9
910,16.94
922,15.5
934,12.85
946,8.28
958,1.48
970,-7.4
982,-17.77
994,-28.89
1006,-40.05
1018,-50.68
1030,-60.3
1042,-68.45
1054,-74.66
1065,-78.54
1076,-79.92
1088,-78.99
1100,-76.2
1112,-72.18
1124,-67.43
1136,-62.18
1148,-56.3
1160,-49.42
1172,-41.26
1184,-31.84
1196,-21.7
1208,-11.74
1220,-2.99
1232,3.78
1244,8.3
1255,10.8
1266,11.86
1278,12.23
1290,12.66
1302,13.79
1314,16.11
1326,19.75
1338,24.25
1350,28.52
1362,31.05
1374,30.52
1386,26.43
1398,19.42
1410,11.02
1422,2.93
1434,-3.91
1445,-9.7
1456,-15.69
1468,-23.36
1480,-33.7
1492,-46.64
1504,-61.3
1516,-76.39
1528,-90.92
1540,-104.37
1552,-116.66
1564,-127.74
1576,-137.36
1588,-144.96
1600,-149.87
1612,-151.54
1624,-149.59
1635,-143.86
1646,-134.29
1658,-120.92
1670,-103.94
1682,-83.83
1694,-61.42
1706,-37.95
1718,-14.82
1730,6.58
1742,25.07
1754,39.84
1766,50.56
1778,57.4
1790,61.0
1802,62.25
1814,61.95
1825,60.51
1836,57.97
1848,54.08
1860,48.73
1872,42.11
1884,34.73
1896,27.24
1908,20.23
1920,14.22
1932,9.67
1944,7.15
1956,7.29
1968,10.57
1980,17.03
1992,26.13
2004,36.86
2015,48.07
2026,58.93
2038,69.09
2050,78.6
2062,87.66
2074,96.31
2086,104.22
2098,110.74
2110,115.07
2122,116.61
2134,115.14
2146,111.09
2158,105.36
2170,99.2
2182,93.81
2194,90.07
2205,88.35
2216,88.59
2228,90.34
2240,92.91
2252,95.49
2264,97.24
2276,97.5
2288,95.96
2300,92.74
2312,88.33
2324,83.31
2336,78.12
2348,72.87
2360,67.47
2372,61.93
2384,56.52
2395,51.69
2406,47.72
2418,44.33
2430,40.63
2442,35.52
2454,28.37
2466,19.52
2478,10.41
2490,3.01
2502,-0.9
2514,-0.37
2526,4.59
2538,13.25
2550,24.61
2562,37.56
2574,50.85
2585,63.01
2596,72.41
2608,77.73
2620,78.52
2632,75.53
2644,70.53
2656,65.59
2668,62.29
2680,61.04
2692,61.14
2704,61.17
2716,59.71
2728,55.83
2740,49.25
2752,40.17
2764,29.02
2775,16.29
2786,2.55
2798,-11.56
2810,-25.37
2822,-38.3
2834,-49.91
2846,-59.88
2858,-67.83
2870,-73.22
2882,-75.53
2894,-74.6
2906,-71.06
2918,-66.46
2930,-62.84
2942,-61.99
2954,-64.71
2965,-70.43
2976,-77.52
2988,-84.12
3000,-88.95
3012,-91.81
3024,-93.45
3036,-95.01
3048,-97.44
3060,-101.12
3072,-105.87
3084,-111.19
3096,-116.48
3108,-121.27
3120,-125.25
3132,-128.36
3144,-130.81
3155,-133.08
3166,-135.92
3178,-140.02
3190,-145.77
3202,-152.86
3214,-160.12
3226,-165.7
3238,-167.57
3250,-164.16
3262,-154.83
3274,-140.01
3286,-120.99
3298,-99.37
3310,-76.76
3322,-54.43
3334,-33.43
3345,-14.6
3356,1.42
3368,14.26
3380,23.94
3392,30.94
3404,36.08
3416,40.2
3428,43.94
3440,47.52
3452,50.8
3464,53.46
3476,55.22
3488,56.06
3500,56.21
3512,56.1
3524,56.15
3535,56.57
3546,57.27
3558,57.96
3570,58.3
3582,58.16
3594,57.66
3606,57.13
3618,56.94
3630,57.25
3642,57.95
3654,58.6
3666,58.71
3678,57.84
3690,55.87
3702,53.06
3714,49.96
3725,47.27
3736,45.58
3748,45.3
3760,46.47
3772,48.86
3784,52.13
3796,56.01
3808,60.4
3820,65.41
3832,71.18
3844,77.78
3856,85.02
3868,92.49
3880,99.74
3892,106.45
3904,112.65
3915,118.69
3926,125.16
3938,132.53
3950,140.94
3962,150.1
3974,159.43
3986,168.29
3998,176.31
4010,183.44
4022,189.98
4034,196.3
4046,202.74
4058,209.63
4070,217.43
4082,226.71
4094,237.81
4105,250.29
4116,262.37
4128,270.96
4140,272.46
4152,263.97
4164,244.52
4176,215.53
4188,180.33
4200,142.9
4212,106.55
4224,73.1
4236,42.84
4248,15.04
4260,-11.31
4272,-37.29
4284,-63.99
4295,-92.71
4306,-124.61
4318,-159.9
4330,-196.97
4342,-232.11
4354,-260.26
4366,-276.65
4378,-278.79
4390,-267.56
4402,-246.99
4414,-222.64
4426,-199.53
4438,-180.62
4450,-166.44
4462,-155.9
4474,-147.54
4485,-140.44
4496,-134.4
4508,-129.47
4520,-125.4
4532,-121.44
4544,-116.61
4556,-110.2
4568,-102.18
4580,-93.25
4592,-84.55
4604,-77.15
4616,-71.55
4628,-67.55
4640,-64.36
4652,-60.92
4664,-56.3
4675,-50.01
4686,-42.12
4698,-33.22
4710,-24.18
4722,-15.85
4734,-8.74
4746,-2.77
4758,2.74
4770,8.95
4782,17.06
4794,27.86
4806,41.37
4818,56.61
4830,71.77
4842,84.47
4854,92.38
4865,93.67
4876,87.48
4888,74.18
4900,55.25
4912,32.99
4924,10.0
4936,-11.4
4948,-29.67
4960,-44.33
4972,-56.06
4984,-66.38
4996,-76.92
5008,-88.71
5020,-101.7
5032,-114.85
5044,-126.77
5055,-136.45
5066,-143.78
5078,-149.57
5090,-155.12
5102,-161.52
5114,-169.15
5126,-177.62
5138,-186.12
5150,-194.1
5162,-201.45
5174,-208.5
5186,-215.83
5198,-223.87
5210,-232.56
5222,-241.19
5234,-248.51
5245,-253.14
5256,-254.28
5268,-251.21
5280,-243.2
5292,-229.51
5304,-209.5
5316,-183.1
5328,-151.02
5340,-114.91
5352,-77.34
5364,-41.88
5376,-11.1
5388,14.04
5400,33.81
5412,49.19
5424,60.93
5435,69.84
5446,76.83
5458,82.8
5470,87.41
5482,90.79
5494,93.27
5506,94.7
5518,94.24
5530,90.16
5542,81.27
5554,67.45
5566,49.73
5578,28.9
5590,7.9
5602,-8.67
5614,-16.31
5625,-12.18
5636,3.08
5648,26.46
5660,53.4
5672,87.98
5684,126.09
5696,159.35
5708,180.76
5720,187.17
5732,183.79
5744,174.92
5756,163.37
5768,151.41
5780,140.73
5792,131.07
5804,122.51
5815,115.33
5826,109.53
5838,104.88
5850,100.63
5862,96.85
5874,94.29
5886,93.44
5898,92.69
5910,90.28
5922,84.9
5934,76.09
5946,64.65
5958,52.01
5970,40.48
5982,32.27
5994,28.43
6005,27.77
6016,28.6
6028,29.63
6040,30.38
6052,31.26
6064,32.87
6076,35.84
6088,40.26
6100,45.35
6112,49.45
6124,51.21
6136,50.09
6148,46.37
6160,40.73
6172,33.82
6184,26.51
6195,20.01
6206,15.93
6218,15.75
6230,20.42
6242,29.58
6254,41.44
6266,53.31
6278,62.82
6290,69.09
6302,73.02
6314,76.41
6326,80.41
6338,84.27
6350,85.29
6362,80.01
6374,66.22
6385,44.44
6396,18.18
6408,-7.29
6420,-26.98
6432,-38.08
6444,-40.61
6456,-36.93
6468,-30.37
6480,-23.75
6492,-18.59
6504,-15.1
6516,-12.76
6528,-11.04
6540,-9.72
6552,-8.81
6564,-8.11
6575,-6.97
6586,-4.28
6598,1.0
6610,9.19
6622,19.46
6634,30.05
6646,38.89
6658,44.48
6670,46.47
6682,45.64
6694,43.38
6706,40.98
6718,39.1
6730,37.86
6742,37.15
6754,37.11
6765,38.25
6776,41.12
6788,45.88
6800,51.95
6812,58.16
6824,63.16
6836,66.06
6848,66.71
6860,65.68
6872,63.88
6884,62.06
6896,60.48
6908,59.07
6920,57.71
6932,56.63
6944,56.4
6955,57.63
6966,60.48
6978,64.32
6990,67.78
7002,69.11
7014,66.79
7026,59.91
7038,48.47
7050,33.34
7062,16.17
7074,-0.94
7086,-15.85
7098,-26.82
7110,-33.05
7122,-34.89
7134,-33.74
7145,-31.54
7156,-30.08
7168,-30.48
7180,-32.95
7192,-37.01
7204,-41.96
7216,-47.25
7228,-52.63
7240,-58.0
7252,-63.19
7264,-67.81
7276,-71.34
7288,-73.38
7300,-73.82
7312,-72.97
7324,-71.4
7335,-69.71
7346,-68.31
7358,-67.39
7370,-67.09
7382,-67.8
7394,-70.33
7406,-75.74
7418,-84.8
7430,-97.38
7442,-112.19
7454,-126.97
7466,-139.37
7478,-147.81
7490,-152.01
7502,-152.93
7514,-152.11
7525,-150.9
7536,-149.99
7548,-149.53
7560,-149.42
7572,-149.63
7584,-150.24
7596,-151.13
7608,-151.79
7620,-151.42
7632,-149.35
7644,-145.48
7656,-140.49
7668,-135.52
7680,-131.64
7692,-129.33
7704,-128.27
7715,-127.7
7726,-126.84
7738,-125.41
7750,-123.6
7762,-121.84
7774,-120.34
7786,-118.88
7798,-116.8
7810,-113.32
7822,-107.9
7834,-100.33
7846,-90.67
7858,-79.09
7870,-65.7
7882,-50.66
7894,-34.33
7905,-17.41
7916,-0.81
7928,14.55
7940,28.08
7952,39.6
7964,49.27
7976,57.2
7988,63.3
8000,67.2
8012,68.52
8024,67.17
8036,63.68
8048,59.06
8060,54.61
8072,51.51
8084,50.59
8095,52.31
8106,56.76
8118,63.77
8130,72.8
8142,82.96
8154,92.93
8166,101.2
8178,106.42
8190,107.77
8202,105.19
8214,99.4
8226,91.59
8238,83.08
8250,74.89
8262,67.58
8274,61.26
8285,55.77
8296,50.88
8308,46.46
8320,42.51
8332,39.11
8344,36.23
8356,33.71
8368,31.26
8380,28.7
8392,26.06
8404,23.7
8416,22.16
8428,21.91
8440,23.14
8452,25.6
8464,28.7
8475,31.71
8486,34.05
8498,35.47
8510,35.99
8522,35.82
8534,35.14
8546,34.02
8558,32.47
8570,30.5
8582,28.29
8594,26.12
8606,24.33
8618,23.14
8630,22.53
8642,22.3
8654,22.13
8665,21.81
8676,21.24
8688,20.49
8700,19.71
8712,18.96
8724,18.2
8736,17.33
8748,16.21
8760,14.77
8772,13.06
8784,11.21
8796,9.38
8808,7.69
8820,6.2
8832,4.83
8844,3.48
8855,2.0
8866,0.28
8878,-1.65
8890,-3.56
8902,-5.09
8914,-5.82
8926,-5.39
8938,-3.72
8950,-0.96
8962,2.51
8974,6.27
8986,9.92
8998,13.21
9010,15.93
9022,17.93
9034,19.11
9045,19.43
9056,19.0
9068,18.05
9080,16.89
9092,15.83
9104,15.05
9116,14.63
9128,14.52
9140,14.62
9152,14.81
9164,14.98
9176,15.06
9188,14.98
9200,14.66
9212,14.05
9224,13.1
9235,11.85
9246,10.38
9258,8.84
9270,7.37
9282,6.07
9294,4.94
9306,3.88
9318,2.77
9330,1.51
9342,0.05
9354,-1.64
9366,-3.59
9378,-5.82
9390,-8.28
9402,-10.73
9414,-12.77
9425,-13.87
9436,-13.58
9448,-11.66
9460,-8.29
9472,-3.92
9484,0.82
9496,5.38
9508,9.36
9520,12.59
9532,15.0
9544,16.55
9556,17.19
9568,16.93
9580,15.93
9592,14.52
9604,13.13
9615,12.11
9626,11.6
9638,11.51
9650,11.61
9662,11.67
9674,11.6
9686,11.48
9698,11.43
9710,11.51
9722,11.65
9734,11.66
9746,11.35
9758,10.57
9770,9.32
9782,7.7
9794,5.87
9805,3.96
9816,2.07
9828,0.26
9840,-1.47
9852,-3.15
9864,-4.85
9876,-6.64
9888,-8.61
9900,-10.76
9912,-12.99
9924,-15.12
9936,-16.85
9948,-17.85
9960,-17.82
9972,-16.61
9984,-14.24
9995,-10.95
10006,-7.13
10018,-3.26
10030,0.2
10042,2.9
10054,4.64
10066,5.37
10078,5.18
10090,4.32
10102,3.09
10114,1.85
10126,0.88
10138,0.37
10150,0.39
10162,0.86
10174,1.57
10185,2.23
10196,2.52
10208,2.17
10220,1.11
10232,-0.6
10244,-2.72
10256,-5.03
10268,-7.36
10280,-9.65
10292,-11.89
10304,-14.03
10316,-15.91
10328,-17.28
10340,-17.93
10352,-17.79
10364,-17.0
10375,-15.82
10386,-14.56
10398,-13.47
10410,-12.68
10422,-12.21
10434,-12.0
10446,-11.92
10458,-11.76
10470,-11.25
10482,-10.07
10494,-7.97
10506,-4.9
10518,-0.98
10530,3.44
10542,7.93
10554,12.08
10565,15.66
10576,18.54
10588,20.68
10600,22.07
10612,22.67
10624,22.48
10636,21.62
10648,20.37
10660,19.14
10672,18.27
10684,17.99
10696,18.2
10708,18.67
10720,19.07
10732,19.17
10744,18.94
10755,18.49
10766,17.98
10778,17.5
10790,17.0
10802,16.35
10814,15.44
10826,14.25
10838,12.89
10850,11.52
10862,10.28
10874,9.21
10886,8.25
10898,7.28
10910,6.19
10922,4.96
10934,3.64
10945,2.31
10956,1.04
10968,-0.23
10980,-1.53
10992,-2.91
11004,-4.26
11016,-5.34
11028,-5.77
11040,-5.27
11052,-3.71
11064,-1.26
11076,1.72
11088,4.8
11100,7.67
11112,10.19
11124,12.39
11135,14.3
11146,15.87
11158,16.93
11170,17.31
11182,16.93
11194,15.93
11206,14.64
11218,13.45
11230,12.63
11242,12.24
11254,12.13
11266,12.02
11278,11.7
11290,11.12
11302,10.33
11314,9.47
11325,8.6
11336,7.7
11348,6.7
11360,5.54
11372,4.24
11384,2.91
11396,1.64
11408,0.48
11420,-0.58
11432,-1.61
11444,-2.65
11456,-3.67
11468,-4.62
11480,-5.46
11492,-6.25
11504,-7.1
11515,-8.14
11526,-9.42
11538,-10.82
11550,-12.06
11562,-12.79
11574,-12.67
11586,-11.49
11598,-9.22
11610,-6.08
11622,-2.4
11634,1.39
11646,4.86
11658,7.65
11670,9.54
11682,10.49
11694,10.56
11705,9.98
11716,8.99
11728,7.82
11740,6.68
11752,5.74
11764,5.18
11776,5.11
11788,5.59
11800,6.52
11812,7.67
11824,8.74
11836,9.47
11848,9.78
11860,9.72
11872,9.44
11884,9.06
11895,8.54
11906,7.75
11918,6.58
11930,5.07
11942,3.4
11954,1.85
11966,0.61
11978,-0.29
11990,-1.01
12002,-1.75
12014,-2.67
12026,-3.83
12038,-5.18
12050,-6.62
12062,-8.06
12074,-9.36
12085,-10.3
12096,-10.58
12108,-9.9
12120,-8.07
12132,-5.08
12144,-1.18
12156,3.23
12168,7.75
12180,11.97
12192,15.48
12204,17.82
12216,18.53
12228,17.28
12240,14.01
12252,9.1
12264,3.4
12275,-2.04
12286,-6.18
12298,-8.35
12310,-8.37
12322,-6.51
12334,-3.4
12346,0.28
12358,3.91
12370,7.02
12382,9.29
12394,10.59
12406,10.92
12418,10.44
12430,9.39
12442,8.05
12454,6.64
12465,5.3
12476,4.05
12488,2.85
12500,1.68
12512,0.59
12524,-0.33
12536,-1.02
12548,-1.56
12560,-2.1
12572,-2.82
12584,-3.81
12596,-4.98
12608,-6.03
12620,-6.53
12632,-6.03
12644,-4.2
12655,-0.89
12666,3.82
12678,9.54
12690,15.62
12702,21.1
12714,24.95
12726,26.31
12738,24.8
12750,20.69
12762,14.88
12774,8.56
12786,2.84
12798,-1.55
12810,-4.37
12822,-5.77
12834,-6.04
12845,-5.51
12856,-4.37
12868,-2.78
12880,-0.91
12892,1.05
12904,2.95
12916,4.67
12928,6.2
12940,7.6
12952,8.88
12964,9.98
12976,10.71
12988,10.79
13000,9.93
13012,7.95
13024,4.89
13035,1.0
13046,-3.24
13058,-7.33
13070,-10.9
13082,-13.8
13094,-16.12
13106,-18.08
13118,-19.91
13130,-21.69
13142,-23.35
13154,-24.7
13166,-25.51
13178,-25.58
13190,-24.8
13202,-23.16
13214,-20.72
13225,-17.64
13236,-14.13
13248,-10.52
13260,-7.11
13272,-4.2
13284,-1.97
13296,-0.52
13308,0.19
13320,0.31
13332,0.05
13344,-0.29
13356,-0.41
13368,-0.08
13380,0.76
13392,1.98
13404,3.29
13415,4.34
13426,4.9
13438,4.89
13450,4.35
13462,3.44
13474,2.31
13486,1.06
13498,-0.25
13510,-1.57
13522,-2.88
13534,-4.17
13546,-5.43
13558,-6.7
13570,-7.94
13582,-9.13
13594,-10.16
13605,-10.93
13616,-11.42
13628,-11.71
13640,-11.99
13652,-12.46
13664,-13.24
13676,-14.32
13688,-15.54
13700,-16.61
13712,-17.23
13724,-17.12
13736,-16.09
13748,-14.09
13760,-11.26
13772,-7.89
13784,-4.43
13795,-1.4
13806,0.79
13818,1.89
13830,1.95
13842,1.19
13854,-0.07
13866,-1.54
13878,-3.04
13890,-4.43
13902,-5.64
13914,-6.62
13926,-7.36
13938,-7.85
13950,-8.08
13962,-8.06
13974,-7.74
13985,-7.11
13996,-6.21
14008,-5.14
14020,-4.06
14032,-3.16
14044,-2.52
14056,-2.15
14068,-1.95
14080,-1.83
14092,-1.71
14104,-1.58
14116,-1.48
14128,-1.45
14140,-1.5
14152,-1.64
14164,-1.81
14175,-1.98
14186,-2.18
14198,-2.44
14210,-2.84
14222,-3.38
14234,-3.89
14246,-4.09
14258,-3.62
14270,-2.24
14282,0.06
14294,3.01
14306,6.16
14318,9.06
14330,11.45
14342,13.22
14354,14.39
14365,14.97
14376,14.93
14388,14.19
14400,12.78
14412,10.95
14424,9.1
14436,7.68
14448,7.0
14460,7.12
14472,7.83
14484,8.85
14496,9.92
14508,10.9
14520,11.78
14532,12.51
14544,13.01
14555,13.14
14566,12.79
14578,12.02
14590,10.99
14602,9.92
14614,8.91
14626,7.87
14638,6.6
14650,4.91
14662,2.76
14674,0.29
14686,-2.24
14698,-4.64
14710,-6.9
14722,-9.14
14734,-11.51
14745,-14.0
14756,-16.33
14768,-18.01
14780,-18.52
14792,-17.53
14804,-15.06
14816,-11.5
14828,-7.49
14840,-3.67
14852,-0.52
14864,1.79
14876,3.27
14888,4.11
14900,4.48
14912,4.5
14924,4.22
14935,3.69
14946,2.93
14958,2.0
14970,0.95
14982,-0.2
14994,-1.47
15006,-2.9
15018,-4.42
15030,-5.83
15042,-6.75
15054,-6.77
15066,-5.68
15078,-3.66
15090,-1.32
15102,0.51
15114,1.07
15125,0.04
15136,-2.36
15148,-5.43
15160,-8.39
15172,-10.66
15184,-12.11
15196,-12.93
15208,-13.52
15220,-14.18
15232,-14.95
15244,-15.7
15256,-16.11
15268,-15.9
15280,-14.95
15292,-13.32
15304,-11.23
15315,-8.96
15326,-6.65
15338,-4.35
15350,-2.01
15362,0.38
15374,2.74
15386,4.89
15398,6.68
15410,8.1
15422,9.32
15434,10.68
15446,12.45
15458,14.75
15470,17.47
15482,20.3
15494,22.9
15505,25.01
15516,26.52
15528,27.41
15540,27.77
15552,27.64
15564,27.07
15576,26.1
15588,24.73
15600,23.04
15612,21.15
15624,19.22
15636,17.45
15648,16.02
15660,15.05
15672,14.55
15684,14.46
15695,14.61
15706,14.81
15718,14.92
15730,14.89
15742,14.8
15754,14.77
15766,14.97
15778,15.46
15790,16.24
15802,17.29
15814,18.64
15826,20.39
15838,22.75
15850,25.98
15862,30.23
15874,35.53
15885,41.78
15896,48.73
15908,56.07
15920,63.41
15932,70.36
15944,76.53
15956,81.66
15968,85.71
15980,88.88
15992,91.59
16004,94.28
16016,97.3
16028,100.9
16040,105.35
16052,111.06
16064,118.63
16075,128.5
16086,140.64
16098,154.21
16110,167.66
16122,179.15
16134,187.14
16146,190.8
16158,189.93
16170,184.77
16182,175.58
16194,162.5
16206,145.63
16218,125.07
16230,100.83
16242,72.74
16254,40.5
16265,4.14
16276,-35.29
16288,-75.29
16300,-112.08
16312,-141.76
16324,-161.65
16336,-171.46
16348,-173.24
16360,-170.46
16372,-166.47
16384,-163.35
16396,-161.64
16408,-160.92
16420,-160.62
16432,-160.7
16444,-161.62
16455,-163.94
16466,-167.73
16478,-172.41
16490,-176.91
16502,-180.13
16514,-181.23
16526,-179.81
16538,-175.85
16550,-169.51
16562,-161.02
16574,-150.66
16586,-138.8
16598,-125.82
16610,-112.2
16622,-98.48
16634,-85.31
16645,-73.46
16656,-63.73
16668,-56.74
16680,-52.6
16692,-50.74
16704,-49.96
16716,-48.74
16728,-45.88
16740,-41.06
16752,-35.15
16764,-30.13
16776,-28.6
16788,-32.99
16800,-44.64
16812,-63.03
16824,-85.59
16835,-108.25
16846,-126.57
16858,-137.26
16870,-139.11
16882,-133.24
16894,-122.25
16906,-108.92
16918,-95.09
16930,-81.17
16942,-66.48
16954,-50.17
16966,-31.97
16978,-12.46
16990,7.32
17002,26.5
17014,44.88
17025,62.99
17036,81.53
17048,100.72
17060,119.88
17072,137.49
17084,151.74
17096,161.39
17108,166.44
17120,168.38
17132,169.74
17144,173.2
17156,180.65
17168,192.41
17180,207.11
17192,222.0
17204,233.62
17215,238.6
17226,234.53
17238,220.64
17250,198.41
17262,171.48
17274,144.98
17286,124.07
17298,112.23
17310,109.86
17322,114.03
17334,119.57
17346,121.09
17358,115.12
17370,101.3
17382,82.17
17394,61.67
17405,43.27
17416,28.58
17428,17.09
17440,6.97
17452,-3.65
17464,-15.56
17476,-28.16
17488,-39.93
17500,-49.34
17512,-55.74
17524,-59.58
17536,-62.06
17548,-64.38
17560,-67.19
17572,-70.28
17584,-72.83
17595,-73.73
17606,-71.81
17618,-65.86
17630,-54.68
17642,-37.54
17654,-15.15
17666,9.51
17678,31.13
17690,43.39
17702,41.33
17714,23.82
17726,-5.29
17738,-38.13
17750,-65.52
17762,-80.21
17774,-79.21
17785,-64.15
17796,-39.93
17808,-12.53
17820,12.81
17832,32.38
17844,43.93
17856,46.2
17868,38.81
17880,22.42
17892,-0.87
17904,-27.63
17916,-53.62
17928,-75.11
17940,-90.04
17952,-98.79
17964,-104.04
17975,-109.81
17986,-119.93
17998,-136.79
18010,-160.44
18022,-188.63
18034,-217.41
18046,-242.14
18058,-258.66
18070,-264.21
18082,-258.02
18094,-241.36
18106,-217.05
18118,-188.66
18130,-159.54
18142,-132.11
18154,-107.62
18165,-86.29
18176,-67.77
18188,-51.6
18200,-37.37
18212,-24.76
18224,-13.44
18236,-2.9
18248,7.43
18260,18.07
18272,29.29
18284,41.04
18296,53.03
18308,64.77
18320,75.83
18332,85.83
18344,94.53
18355,101.81
18366,107.61
18378,111.98
18390,115.0
18402,116.8
18414,117.5
18426,117.24
18438,116.14
18450,114.43
18462,112.44
18474,110.55
18486,109.07
18498,108.15
18510,107.75
18522,107.73
18534,108.03
18545,108.74
18556,110.08
18568,112.29
18580,115.4
18592,119.19
18604,123.17
18616,126.75
18628,129.32
18640,130.53
18652,130.29
18664,128.94
18676,127.18
18688,125.89
18700,125.81
18712,127.15
18724,129.22
18735,130.31
18746,127.92
18758,119.25
18770,101.88
18782,74.54
18794,37.42
18806,-7.67
18818,-57.71
18830,-109.09
18842,-158.4
18854,-203.1
18866,-241.91
18878,-274.81
18890,-302.69
18902,-326.61
18914,-347.14
18925,-363.84
18936,-375.18
18948,-379.09
18960,-373.71
18972,-358.32
18984,-333.81
18996,-302.53
19008,-267.74
19020,-232.59
19032,-199.52
19044,-169.86
19056,-144.09
19068,-122.21
19080,-104.12
19092,-89.78
19104,-79.09
19115,-71.82
19126,-67.54
19138,-65.73
19150,-65.88
19162,-67.6
19174,-70.54
19186,-74.2
19198,-77.85
19210,-80.61
19222,-81.65
19234,-80.43
19246,-76.95
19258,-71.6
19270,-64.98
19282,-57.7
19294,-50.07
19305,-42.2
19316,-33.95
19328,-25.1
19340,-15.62
19352,-5.72
19364,4.0
19376,12.64
19388,19.23
19400,23.07
19412,24.03
19424,22.64
19436,19.97
19448,17.28
19460,15.62
19472,15.59
19484,17.23
19495,20.19
19506,23.92
19518,27.85
19530,31.45
19542,34.26
19554,35.93
19566,36.24
19578,35.15
19590,32.87
19602,29.81
19614,26.43
19626,23.18
19638,20.33
19650,18.05
19662,16.46
19674,15.75
19685,16.21
19696,18.11
19708,21.56
19720,26.45
19732,32.37
19744,38.82
19756,45.24
19768,51.16
19780,56.26
19792,60.27
19804,63.01
19816,64.38
19828,64.42
19840,63.33
19852,61.49
19864,59.39
19875,57.51
19886,56.25
19898,55.76
19910,55.99
19922,56.6
19934,57.22
19946,57.49
19958,57.2
19970,56.35
19982,55.02
19994,53.33
20006,51.32
20018,49.0
20030,46.4
20042,43.64
20054,40.9
20065,38.35
20076,36.0
20088,33.71
20100,31.2
20112,28.2
20124,24.61
20136,20.58
20148,16.49
20160,12.84
20172,10.19
20184,8.99
20196,9.48
20208,11.66
20220,15.24
20232,19.69
20244,24.35
20255,28.56
20266,31.83
20278,33.93
20290,34.81
20302,34.62
20314,33.57
20326,31.89
20338,29.81
20350,27.6
20362,25.53
20374,23.83
20386,22.63
20398,21.98
20410,21.8
20422,21.97
20434,22.32
20445,22.69
20456,22.83
20468,22.57
20480,21.8
20492,20.54
20504,18.96
20516,17.3
20528,15.78
20540,14.46
20552,13.23
20564,11.87
20576,10.11
20588,7.85
20600,5.17
20612,2.39
20624,0.05
20635,-1.33
20646,-1.35
20658,0.14
20670,2.94
20682,6.67
20694,10.89
20706,15.25
20718,19.63
20730,24.04
20742,28.55
20754,33.13
20766,37.49
20778,41.04
20790,42.88
20802,42.09
20814,38.06
20825,30.84
20836,21.31
20848,11.16
20860,2.33
20872,-3.45
20884,-5.24
20896,-3.05
20908,2.35
20920,9.79
20932,18.07
20944,26.24
20956,33.5
20968,39.19
20980,42.69
20992,43.45
