seconds,BVP
6,5.86
18,-0.37
30,-9.63
42,-19.96
54,-29.18
66,-36.01
77,-40.23
88,-43.34
100,-45.81
112,-47.7
124,-48.79
136,-48.73
148,-47.22
160,-44.65
172,-41.93
184,-40.16
196,-39.96
208,-41.07
220,-42.7
232,-43.84
244,-43.84
256,-41.51
267,-37.29
278,-32.6
290,-29.15
302,-28.19
314,-29.99
326,-33.98
338,-38.99
350,-43.59
362,-46.51
374,-47.0
386,-44.74
398,-39.84
410,-32.71
422,-23.97
434,-14.45
446,-5.05
457,3.43
468,10.48
480,15.78
492,19.36
504,21.53
516,22.79
528,23.66
540,24.58
552,25.79
564,27.32
576,28.97
588,30.37
600,31.13
612,31.01
624,30.02
636,28.43
647,26.67
658,25.12
670,24.04
682,23.42
694,23.03
706,22.58
718,21.9
730,20.99
742,19.97
754,18.94
766,17.98
778,16.99
790,15.81
802,14.28
814,12.28
826,9.79
837,6.88
848,3.66
860,0.28
872,-3.08
884,-6.27
896,-9.23
908,-11.97
920,-14.64
932,-17.48
944,-20.71
956,-24.49
968,-28.78
980,-33.28
992,-37.44
1004,-40.55
1016,-41.88
1027,-40.94
1038,-37.6
1050,-32.15
1062,-25.22
1074,-17.62
1086,-10.05
1098,-3.04
1110,3.16
1122,8.5
1134,13.01
1146,16.76
1158,19.78
1170,22.17
1182,24.02
1194,25.46
1206,26.6
1217,27.52
1228,28.21
1240,28.62
1252,28.69
1264,28.42
1276,27.88
1288,27.19
1300,26.54
1312,26.09
1324,25.91
1336,25.99
1348,26.22
1360,26.41
1372,26.31
1384,25.68
1396,24.41
1407,22.53
1418,20.19
1430,17.67
1442,15.18
1454,12.82
1466,10.56
1478,8.24
1490,5.74
1502,3.02
1514,0.17
1526,-2.59
1538,-5.05
1550,-7.12
1562,-8.88
1574,-10.56
1586,-12.48
1597,-14.91
1608,-17.97
1620,-21.53
1632,-25.21
1644,-28.42
1656,-30.4
1668,-30.51
1680,-28.33
1692,-23.85
1704,-17.51
1716,-10.06
1728,-2.41
1740,4.73
1752,10.86
1764,15.83
1776,19.68
1787,22.56
1798,24.57
1810,25.81
1822,26.39
1834,26.41
1846,26.08
1858,25.56
1870,24.97
1882,24.35
1894,23.63
1906,22.81
1918,21.93
1930,21.08
1942,20.35
1954,19.77
1966,19.22
1977,18.49
1988,17.37
2000,15.82
2012,13.96
2024,12.03
2036,10.22
2048,8.53
2060,6.8
2072,4.76
2084,2.28
2096,-0.57
2108,-3.56
2120,-6.38
2132,-8.85
2144,-10.98
2156,-12.89
2167,-14.82
2178,-16.95
2190,-19.36
2202,-22.06
2214,-24.94
2226,-27.81
2238,-30.3
2250,-31.92
2262,-32.11
2274,-30.42
2286,-26.67
2298,-21.05
2310,-14.13
2322,-6.72
2334,0.43
2346,6.75
2357,12.01
2368,16.24
2380,19.61
2392,22.27
2404,24.28
2416,25.6
2428,26.19
2440,26.07
2452,25.37
2464,24.3
2476,23.05
2488,21.75
2500,20.46
2512,19.21
2524,18.04
2536,17.02
2547,16.21
2558,15.66
2570,15.33
2582,15.1
2594,14.84
2606,14.38
2618,13.64
2630,12.57
2642,11.17
2654,9.45
2666,7.42
2678,5.14
2690,2.73
2702,0.33
2714,-1.91
2726,-3.94
2737,-5.82
2748,-7.71
2760,-9.76
2772,-12.07
2784,-14.66
2796,-17.55
2808,-20.72
2820,-24.13
2832,-27.61
2844,-30.75
2856,-32.93
2868,-33.49
2880,-31.92
2892,-28.14
2904,-22.51
2916,-15.77
2927,-8.76
2938,-2.21
2950,3.44
2962,8.03
2974,11.63
2986,14.41
2998,16.51
3010,18.02
3022,19.01
3034,19.53
3046,19.64
3058,19.47
3070,19.14
3082,18.73
3094,18.27
3106,17.74
3117,17.14
3128,16.49
3140,15.84
3152,15.27
3164,14.79
3176,14.36
3188,13.91
3200,13.31
3212,12.51
3224,11.51
3236,10.34
3248,9.02
3260,7.59
3272,6.03
3284,4.36
3296,2.53
3307,0.49
3318,-1.78
3330,-4.29
3342,-6.94
3354,-9.62
3366,-12.17
3378,-14.47
3390,-16.45
3402,-18.11
3414,-19.53
3426,-20.9
3438,-22.43
3450,-24.37
3462,-26.82
3474,-29.64
3486,-32.32
3497,-34.13
3508,-34.31
3520,-32.38
3532,-28.34
3544,-22.67
3556,-16.13
3568,-9.49
3580,-3.29
3592,2.23
3604,7.1
3616,11.41
3628,15.21
3640,18.51
3652,21.24
3664,23.38
3676,24.92
3687,25.91
3698,26.39
3710,26.41
3722,26.0
3734,25.19
3746,24.05
3758,22.67
3770,21.18
3782,19.78
3794,18.6
3806,17.72
3818,17.12
3830,16.69
3842,16.23
3854,15.56
3866,14.57
3877,13.24
3888,11.61
3900,9.76
3912,7.79
3924,5.77
3936,3.73
3948,1.71
3960,-0.23
3972,-2.06
3984,-3.77
3996,-5.4
4008,-7.04
4020,-8.82
4032,-10.79
4044,-12.89
4056,-14.92
4067,-16.64
4078,-17.85
4090,-18.56
4102,-19.0
4114,-19.55
4126,-20.61
4138,-22.46
4150,-25.17
4162,-28.52
4174,-32.06
4186,-35.16
4198,-37.05
4210,-37.08
4222,-34.87
4234,-30.46
4246,-24.37
4257,-17.38
4268,-10.32
4280,-3.84
4292,1.73
4304,6.29
4316,9.9
4328,12.64
4340,14.56
4352,15.78
4364,16.45
4376,16.78
4388,16.94
4400,17.06
4412,17.13
4424,17.09
4436,16.86
4447,16.47
4458,15.97
4470,15.51
4482,15.21
4494,15.14
4506,15.24
4518,15.4
4530,15.45
4542,15.31
4554,14.97
4566,14.5
4578,13.97
4590,13.39
4602,12.68
4614,11.74
4626,10.46
4637,8.83
4648,6.96
4660,5.0
4672,3.09
4684,1.34
4696,-0.26
4708,-1.73
4720,-3.15
4732,-4.6
4744,-6.15
4756,-7.84
4768,-9.73
4780,-11.84
4792,-14.12
4804,-16.46
4816,-18.76
4827,-20.94
4838,-23.03
4850,-25.16
4862,-27.47
4874,-29.97
4886,-32.45
4898,-34.39
4910,-35.14
4922,-34.08
4934,-30.88
4946,-25.67
4958,-19.01
4970,-11.74
4982,-4.71
4994,1.47
5006,6.55
5017,10.55
5028,13.6
5040,15.78
5052,17.09
5064,17.5
5076,17.09
5088,16.16
5100,15.08
5112,14.24
5124,13.78
5136,13.62
5148,13.5
5160,13.16
5172,12.51
5184,11.63
5196,10.7
5207,9.88
5218,9.21
5230,8.62
5242,8.0
5254,7.26
5266,6.36
5278,5.26
5290,3.94
5302,2.32
5314,0.38
5326,-1.85
5338,-4.27
5350,-6.77
5362,-9.27
5374,-11.74
5386,-14.23
5397,-16.81
5408,-19.43
5420,-21.99
5432,-24.35
5444,-26.42
5456,-28.23
5468,-29.94
5480,-31.8
5492,-34.0
5504,-36.65
5516,-39.64
5528,-42.66
5540,-45.26
5552,-46.8
5564,-46.67
5576,-44.37
5587,-39.7
5598,-32.84
5610,-24.34
5622,-15.02
5634,-5.78
5646,2.62
5658,9.62
5670,14.92
5682,18.53
5694,20.69
5706,21.82
5718,22.46
5730,23.11
5742,24.05
5754,25.29
5766,26.58
5777,27.55
5788,27.99
5800,27.81
5812,27.14
5824,26.18
5836,25.1
5848,23.96
5860,22.76
5872,21.52
5884,20.22
5896,18.86
5908,17.38
5920,15.62
5932,13.42
5944,10.69
5956,7.59
5967,4.45
5978,1.78
5990,-0.02
6002,-0.84
6014,-0.99
6026,-1.07
6038,-1.78
6050,-3.59
6062,-6.63
6074,-10.63
6086,-15.06
6098,-19.39
6110,-23.24
6122,-26.37
6134,-28.72
6146,-30.31
6157,-31.23
6168,-31.64
6180,-31.85
6192,-32.27
6204,-33.23
6216,-34.9
6228,-37.03
6240,-39.03
6252,-40.01
6264,-39.08
6276,-35.61
6288,-29.45
6300,-20.97
6312,-10.94
6324,-0.29
6336,10.11
6347,19.57
6358,27.67
6370,34.28
6382,39.5
6394,43.53
6406,46.52
6418,48.54
6430,49.54
6442,49.41
6454,48.1
6466,45.68
6478,42.36
6490,38.4
6502,34.04
6514,29.5
6526,24.96
6537,20.59
6548,16.57
6560,13.03
6572,9.98
6584,7.29
6596,4.78
6608,2.23
6620,-0.53
6632,-3.6
6644,-7.07
6656,-10.92
6668,-15.08
6680,-19.4
6692,-23.69
6704,-27.77
6716,-31.58
6727,-35.12
6738,-38.45
6750,-41.6
6762,-44.51
6774,-47.17
6786,-49.53
6798,-51.68
6810,-53.72
6822,-55.66
6834,-57.39
6846,-58.67
6858,-59.32
6870,-59.32
6882,-58.95
6894,-58.64
6906,-58.78
6917,-59.54
6928,-60.66
6940,-61.52
6952,-61.31
6964,-59.31
6976,-55.06
6988,-48.46
7000,-39.87
7012,-29.89
7024,-19.23
7036,-8.6
7048,1.42
7060,10.42
7072,18.22
7084,24.77
7096,30.18
7107,34.62
7118,38.38
7130,41.74
7142,45.0
7154,48.41
7166,52.11
7178,56.16
7190,60.52
7202,65.18
7214,70.13
7226,75.41
7238,81.05
7250,86.91
7262,92.72
7274,98.01
7286,102.23
7297,104.91
7308,105.82
7320,105.0
7332,102.71
7344,99.34
7356,95.21
7368,90.52
7380,85.24
7392,79.19
7404,72.15
7416,64.02
7428,54.85
7440,44.94
7452,34.73
7464,24.73
7476,15.37
7487,6.83
7498,-0.86
7510,-7.88
7522,-14.42
7534,-20.7
7546,-26.81
7558,-32.76
7570,-38.46
7582,-43.7
7594,-48.15
7606,-51.31
7618,-52.69
7630,-51.88
7642,-48.76
7654,-43.61
7666,-37.07
7677,-29.92
7688,-22.95
7700,-16.72
7712,-11.53
7724,-7.43
7736,-4.43
7748,-2.55
7760,-1.91
7772,-2.69
7784,-4.97
7796,-8.59
7808,-13.1
7820,-17.81
7832,-21.98
7844,-25.04
7856,-26.82
7867,-27.5
7878,-27.51
7890,-27.24
7902,-26.86
7914,-26.33
7926,-25.44
7938,-24.09
7950,-22.36
7962,-20.53
7974,-19.01
7986,-18.06
7998,-17.73
8010,-17.84
8022,-18.03
8034,-18.01
8046,-17.63
8057,-17.01
8068,-16.42
8080,-16.17
8092,-16.48
8104,-17.43
8116,-18.98
8128,-21.03
8140,-23.47
8152,-26.12
8164,-28.62
8176,-30.45
8188,-30.94
8200,-29.52
8212,-25.95
8224,-20.43
8236,-13.58
8247,-6.29
8258,0.62
8270,6.58
8282,11.33
8294,14.88
8306,17.33
8318,18.85
8330,19.57
8342,19.68
8354,19.38
8366,18.84
8378,18.24
8390,17.67
8402,17.13
8414,16.56
8426,15.9
8437,15.14
8448,14.36
8460,13.65
8472,13.08
8484,12.62
8496,12.15
8508,11.53
8520,10.6
8532,9.26
8544,7.5
8556,5.34
8568,2.91
8580,0.41
8592,-1.87
8604,-3.64
8616,-4.63
8627,-4.73
8638,-4.08
8650,-2.98
8662,-1.81
8674,-0.89
8686,-0.38
8698,-0.26
8710,-0.38
8722,-0.52
8734,-0.4
8746,0.28
8758,1.81
8770,4.33
8782,7.75
8794,11.69
8806,15.56
8817,18.73
8828,20.7
8840,21.29
8852,20.68
8864,19.26
8876,17.49
8888,15.72
8900,14.12
8912,12.67
8924,11.2
8936,9.47
8948,7.19
8960,4.13
8972,0.18
8984,-4.6
8996,-9.95
9007,-15.44
9018,-20.65
9030,-25.22
9042,-28.94
9054,-31.68
9066,-33.43
9078,-34.16
9090,-33.87
9102,-32.67
9114,-30.77
9126,-28.45
9138,-26.01
9150,-23.58
9162,-21.2
9174,-18.85
9186,-16.55
9197,-14.44
9208,-12.73
9220,-11.58
9232,-11.03
9244,-11.0
9256,-11.36
9268,-11.97
9280,-12.69
9292,-13.29
9304,-13.45
9316,-12.7
9328,-10.67
9340,-7.18
9352,-2.4
9364,3.17
9376,8.84
9387,13.93
9398,17.96
9410,20.77
9422,22.45
9434,23.28
9446,23.53
9458,23.46
9470,23.2
9482,22.83
9494,22.36
9506,21.77
9518,21.05
9530,20.27
9542,19.51
9554,18.97
9566,18.81
9577,19.09
9588,19.73
9600,20.5
9612,21.15
9624,21.49
9636,21.55
9648,21.51
9660,21.58
9672,21.9
9684,22.39
9696,22.84
9708,22.97
9720,22.57
9732,21.58
9744,20.1
9756,18.27
9767,16.23
9778,14.07
9790,11.83
9802,9.51
9814,7.09
9826,4.51
9838,1.68
9850,-1.53
9862,-5.2
9874,-9.24
9886,-13.42
9898,-17.21
9910,-19.96
9922,-20.98
9934,-19.82
9946,-16.43
9957,-11.27
9968,-5.18
9980,0.87
9992,6.09
10004,10.09
10016,12.88
10028,14.69
10040,15.81
10052,16.39
10064,16.45
10076,15.93
10088,14.88
10100,13.42
10112,11.77
10124,10.14
10136,8.66
10147,7.4
10158,6.38
10170,5.63
10182,5.2
10194,5.11
10206,5.35
10218,5.89
10230,6.66
10242,7.52
10254,8.29
10266,8.77
10278,8.8
10290,8.38
10302,7.65
10314,6.79
10326,5.98
10337,5.2
10348,4.27
10360,2.91
10372,0.88
10384,-1.86
10396,-5.18
10408,-8.75
10420,-12.2
10432,-15.26
10444,-17.8
10456,-19.84
10468,-21.53
10480,-23.11
10492,-24.79
10504,-26.7
10516,-28.8
10527,-30.85
10538,-32.4
10550,-32.9
10562,-31.86
10574,-28.97
10586,-24.25
10598,-18.05
10610,-11.03
10622,-3.93
10634,2.51
10646,7.85
10658,11.89
10670,14.65
10682,16.29
10694,16.98
10706,16.92
10717,16.34
10728,15.5
10740,14.68
10752,14.07
10764,13.77
10776,13.72
10788,13.81
10800,13.95
10812,14.09
10824,14.27
10836,14.48
10848,14.7
10860,14.82
10872,14.71
10884,14.25
10896,13.42
10907,12.23
10918,10.8
10930,9.24
10942,7.67
10954,6.16
10966,4.7
10978,3.2
10990,1.53
11002,-0.43
11014,-2.75
11026,-5.4
11038,-8.32
11050,-11.47
11062,-14.85
11074,-18.57
11086,-22.78
11097,-27.56
11108,-32.78
11120,-38.1
11132,-42.92
11144,-46.57
11156,-48.5
11168,-48.4
11180,-46.36
11192,-42.77
11204,-38.3
11216,-33.66
11228,-29.5
11240,-26.25
11252,-24.02
11264,-22.59
11276,-21.47
11287,-20.05
11298,-17.83
11310,-14.58
11322,-10.42
11334,-5.77
11346,-1.15
11358,3.07
11370,6.74
11382,9.94
11394,12.82
11406,15.45
11418,17.78
11430,19.65
11442,20.9
11454,21.53
11466,21.68
11477,21.53
11488,21.22
11500,20.76
11512,20.06
11524,19.02
11536,17.65
11548,16.09
11560,14.53
11572,13.18
11584,12.07
11596,11.15
11608,10.29
11620,9.39
11632,8.43
11644,7.52
11656,6.72
11667,6.03
11678,5.31
11690,4.27
11702,2.58
11714,0.0
11726,-3.58
11738,-7.98
11750,-12.77
11762,-17.19
11774,-20.37
11786,-21.48
11798,-20.03
11810,-16.01
11822,-9.96
11834,-2.78
11846,4.55
11857,11.24
11868,16.87
11880,21.32
11892,24.64
11904,26.88
11916,27.96
11928,27.76
11940,26.29
11952,23.74
11964,20.49
11976,16.98
11988,13.56
12000,10.38
12012,7.34
12024,4.31
12036,1.18
12047,-2.02
12058,-5.12
12070,-7.93
12082,-10.37
12094,-12.5
12106,-14.53
12118,-16.65
12130,-19.02
12142,-21.71
12154,-24.73
12166,-28.01
12178,-31.46
12190,-34.79
12202,-37.55
12214,-39.21
12226,-39.31
12237,-37.68
12248,-34.58
12260,-30.62
12272,-26.45
12284,-22.52
12296,-18.92
12308,-15.42
12320,-11.71
12332,-7.71
12344,-3.59
12356,0.25
12368,3.4
12380,5.56
12392,6.62
12404,6.62
12416,5.71
12427,4.16
12438,2.43
12450,1.16
12462,1.01
12474,2.52
12486,5.86
12498,10.75
12510,16.52
12522,22.31
12534,27.38
12546,31.3
12558,33.96
12570,35.51
12582,36.19
12594,36.21
12606,35.66
12617,34.63
12628,33.23
12640,31.63
12652,29.98
12664,28.38
12676,26.82
12688,25.16
12700,23.34
12712,21.38
12724,19.47
12736,17.84
12748,16.61
12760,15.71
12772,14.92
12784,13.95
12796,12.65
12807,11.0
12818,9.13
12830,7.23
12842,5.46
12854,3.89
12866,2.59
12878,1.52
12890,0.62
12902,-0.26
12914,-1.23
12926,-2.4
12938,-3.77
12950,-5.24
12962,-6.71
12974,-8.11
12986,-9.42
12997,-10.72
13008,-12.07
13020,-13.51
13032,-15.03
13044,-16.57
13056,-18.07
13068,-19.51
13080,-20.9
13092,-22.32
13104,-23.9
13116,-25.78
13128,-28.13
13140,-30.94
13152,-33.97
13164,-36.76
13176,-38.62
13187,-38.86
13198,-37.0
13210,-32.96
13222,-27.11
13234,-20.17
13246,-13.03
13258,-6.49
13270,-1.06
13282,3.08
13294,6.06
13306,8.19
13318,9.75
13330,10.95
13342,11.83
13354,12.36
13366,12.55
13377,12.5
13388,12.35
13400,12.27
13412,12.35
13424,12.58
13436,12.88
13448,13.15
13460,13.36
13472,13.5
13484,13.61
13496,13.7
13508,13.73
13520,13.64
13532,13.38
13544,12.91
13556,12.24
13567,11.37
13578,10.32
13590,9.12
13602,7.82
13614,6.51
13626,5.3
13638,4.29
13650,3.58
13662,3.19
13674,3.17
13686,3.52
13698,4.26
13710,5.42
13722,6.99
13734,8.92
13746,11.09
13757,13.29
13768,15.23
13780,16.59
13792,17.08
13804,16.51
13816,14.84
13828,12.13
13840,8.63
13852,4.66
13864,0.65
13876,-2.91
13888,-5.5
13900,-6.74
13912,-6.41
13924,-4.61
13936,-1.69
13947,1.79
13958,5.25
13970,8.24
13982,10.49
13994,12.0
14006,12.92
14018,13.4
14030,13.54
14042,13.33
14054,12.71
14066,11.63
14078,10.17
14090,8.46
14102,6.74
14114,5.16
14126,3.76
14137,2.49
14148,1.32
14160,0.27
14172,-0.57
14184,-1.11
14196,-1.33
14208,-1.36
14220,-1.42
14232,-1.7
14244,-2.28
14256,-3.09
14268,-3.99
14280,-4.89
14292,-5.74
14304,-6.65
14316,-7.79
14327,-9.31
14338,-11.26
14350,-13.53
14362,-15.91
14374,-18.15
14386,-20.04
14398,-21.53
14410,-22.76
14422,-24.02
14434,-25.63
14446,-27.81
14458,-30.54
14470,-33.49
14482,-36.01
14494,-37.32
14506,-36.67
14517,-33.68
14528,-28.46
14540,-21.58
14552,-13.96
14564,-6.52
14576,0.01
14588,5.29
14600,9.24
14612,12.02
14624,13.79
14636,14.75
14648,15.09
14660,15.01
14672,14.72
14684,14.36
14696,13.99
14707,13.6
14718,13.12
14730,12.51
14742,11.81
14754,11.08
14766,10.43
14778,9.95
14790,9.65
14802,9.46
14814,9.25
14826,8.84
14838,8.07
14850,6.82
14862,5.07
14874,2.87
14886,0.35
14897,-2.31
14908,-4.96
14920,-7.47
14932,-9.76
14944,-11.81
14956,-13.72
14968,-15.66
14980,-17.79
14992,-20.28
15004,-23.2
15016,-26.56
15028,-30.2
15040,-33.86
15052,-37.12
15064,-39.47
15076,-40.41
15087,-39.58
15098,-36.9
15110,-32.59
15122,-27.17
15134,-21.33
15146,-15.81
15158,-11.2
15170,-7.85
15182,-5.79
15194,-4.79
15206,-4.45
15218,-4.42
15230,-4.46
15242,-4.5
15254,-4.56
15266,-4.66
15277,-4.76
15288,-4.78
15300,-4.72
15312,-4.7
15324,-4.89
15336,-5.44
15348,-6.33
15360,-7.37
15372,-8.27
15384,-8.76
15396,-8.79
15408,-8.46
15420,-8.02
15432,-7.73
15444,-7.72
15456,-7.99
15467,-8.44
15478,-8.93
15490,-9.41
15502,-9.96
15514,-10.72
15526,-11.84
15538,-13.33
15550,-15.03
15562,-16.68
15574,-18.0
15586,-18.81
15598,-19.15
15610,-19.28
15622,-19.58
15634,-20.42
15646,-22.03
15657,-24.35
15668,-26.97
15680,-29.18
15692,-30.13
15704,-29.09
15716,-25.69
15728,-20.07
15740,-12.85
15752,-4.94
15764,2.78
15776,9.66
15788,15.4
15800,19.98
15812,23.57
15824,26.38
15836,28.59
15847,30.32
15858,31.62
15870,32.5
15882,32.94
15894,32.95
15906,32.54
15918,31.84
15930,30.99
15942,30.16
15954,29.47
15966,28.97
15978,28.66
15990,28.48
16002,28.43
16014,28.52
16026,28.72
16037,28.92
16048,28.91
16060,28.5
16072,27.56
16084,26.15
16096,24.44
16108,22.74
16120,21.27
16132,20.04
16144,18.97
16156,17.81
16168,16.35
16180,14.44
16192,12.05
16204,9.26
16216,6.24
16227,3.2
16238,0.32
16250,-2.3
16262,-4.7
16274,-7.05
16286,-9.6
16298,-12.63
16310,-16.33
16322,-20.7
16334,-25.44
16346,-29.95
16358,-33.42
16370,-35.05
16382,-34.29
16394,-31.08
16406,-25.92
16417,-19.69
16428,-13.39
16440,-7.74
16452,-3.05
16464,0.82
16476,4.13
16488,7.15
16500,9.95
16512,12.46
16524,14.57
16536,16.25
16548,17.53
16560,18.52
16572,19.27
16584,19.79
16596,20.05
16607,20.1
16618,20.02
16630,19.95
16642,19.97
16654,20.14
16666,20.38
16678,20.56
16690,20.55
16702,20.19
16714,19.41
16726,18.22
16738,16.74
16750,15.15
16762,13.6
16774,12.19
16786,10.83
16797,9.39
16808,7.71
16820,5.78
16832,3.75
16844,1.89
16856,0.45
16868,-0.54
16880,-1.24
16892,-1.98
16904,-3.04
16916,-4.57
16928,-6.51
16940,-8.66
16952,-10.82
16964,-12.83
16976,-14.63
16987,-16.25
16998,-17.7
17010,-19.08
17022,-20.5
17034,-22.14
17046,-24.12
17058,-26.45
17070,-28.88
17082,-30.92
17094,-31.96
17106,-31.44
17118,-29.06
17130,-24.94
17142,-19.51
17154,-13.42
17166,-7.35
17177,-1.86
17188,2.73
17200,6.32
17212,9.0
17224,10.95
17236,12.4
17248,13.49
17260,14.29
17272,14.81
17284,15.05
17296,15.1
17308,15.04
17320,14.99
17332,14.96
17344,14.91
17356,14.75
17367,14.4
17378,13.9
17390,13.38
17402,12.97
17414,12.72
17426,12.6
17438,12.44
17450,12.12
17462,11.53
17474,10.69
17486,9.7
17498,8.63
17510,7.49
17522,6.21
17534,4.66
17546,2.79
17557,0.67
17568,-1.48
17580,-3.41
17592,-4.91
17604,-5.97
17616,-6.81
17628,-7.74
17640,-8.99
17652,-10.63
17664,-12.52
17676,-14.39
17688,-16.07
17700,-17.55
17712,-19.0
17724,-20.7
17736,-22.88
17747,-25.55
17758,-28.5
17770,-31.26
17782,-33.21
17794,-33.69
17806,-32.14
17818,-28.26
17830,-22.11
17842,-14.11
17854,-5.03
17866,4.18
17878,12.58
17890,19.45
17902,24.42
17914,27.48
17926,28.94
17937,29.26
17948,28.86
17960,28.06
17972,27.01
17984,25.75
17996,24.28
18008,22.6
18020,20.75
18032,18.78
18044,16.69
18056,14.52
18068,12.28
18080,10.05
18092,7.9
18104,5.98
18116,4.39
18127,3.2
18138,2.4
18150,1.91
18162,1.58
18174,1.24
18186,0.71
18198,-0.06
18210,-1.06
18222,-2.15
18234,-3.15
18246,-3.9
18258,-4.31
18270,-4.41
18282,-4.32
18294,-4.25
18306,-4.4
18317,-4.86
18328,-5.6
18340,-6.44
18352,-7.2
18364,-7.77
18376,-8.21
18388,-8.74
18400,-9.63
18412,-11.1
18424,-13.25
18436,-15.99
18448,-19.08
18460,-22.16
18472,-24.8
18484,-26.49
18496,-26.74
18507,-25.18
18518,-21.68
18530,-16.46
18542,-10.07
18554,-3.25
18566,3.25
18578,8.88
18590,13.35
18602,16.61
18614,18.77
18626,19.96
18638,20.33
18650,20.01
18662,19.13
18674,17.87
18686,16.44
18697,15.04
18708,13.84
18720,12.91
18732,12.24
18744,11.76
18756,11.36
18768,10.97
18780,10.57
18792,10.19
18804,9.89
18816,9.67
18828,9.48
18840,9.2
18852,8.68
18864,7.83
18876,6.72
18887,5.47
18898,4.23
18910,3.07
18922,1.92
18934,0.62
18946,-1.0
18958,-3.05
18970,-5.48
18982,-8.12
18994,-10.77
19006,-13.21
19018,-15.32
19030,-17.12
19042,-18.69
19054,-20.16
19066,-21.66
19077,-23.27
19088,-25.01
19100,-26.8
19112,-28.37
19124,-29.32
19136,-29.13
19148,-27.34
19160,-23.78
19172,-18.6
19184,-12.34
19196,-5.68
19208,0.73
19220,6.46
19232,11.31
19244,15.27
19256,18.39
19267,20.76
19278,22.48
19290,23.75
19302,24.79
19314,25.8
19326,26.84
19338,27.83
19350,28.59
19362,29.03
19374,29.15
19386,29.04
19398,28.82
19410,28.52
19422,28.1
19434,27.52
19446,26.74
19457,25.81
19468,24.73
19480,23.42
19492,21.71
19504,19.43
19516,16.54
19528,13.19
19540,9.71
19552,6.46
19564,3.62
19576,1.16
19588,-1.17
19600,-3.64
19612,-6.38
19624,-9.37
19636,-12.42
19647,-15.34
19658,-17.99
19670,-20.39
19682,-22.72
19694,-25.19
19706,-27.99
19718,-31.14
19730,-34.38
19742,-37.23
19754,-39.06
19766,-39.26
19778,-37.47
19790,-33.69
19802,-28.3
19814,-21.92
19826,-15.26
19837,-8.93
19848,-3.3
19860,1.42
19872,5.2
19884,8.1
19896,10.21
19908,11.65
19920,12.56
19932,13.08
19944,13.31
19956,13.32
19968,13.15
19980,12.77
19992,12.21
20004,11.47
20016,10.63
20027,9.79
20038,9.06
20050,8.55
20062,8.28
20074,8.22
20086,8.27
20098,8.29
20110,8.18
20122,7.83
20134,7.16
20146,6.12
20158,4.65
20170,2.77
20182,0.59
20194,-1.71
20206,-3.85
20217,-5.64
20228,-7.02
20240,-8.11
20252,-9.11
20264,-10.25
20276,-11.65
20288,-13.38
20300,-15.49
20312,-17.94
20324,-20.63
20336,-23.2
20348,-25.09
20360,-25.58
20372,-24.06
20384,-20.28
20396,-14.44
20407,-7.23
20418,0.48
20430,7.85
20442,14.26
20454,19.36
20466,23.07
20478,25.41
20490,26.56
20502,26.76
20514,26.25
20526,25.29
20538,24.0
20550,22.42
20562,20.58
20574,18.51
20586,16.34
20597,14.27
20608,12.5
20620,11.12
20632,10.13
20644,9.38
20656,8.69
20668,7.92
20680,6.99
20692,5.86
20704,4.52
20716,2.96
20728,1.19
20740,-0.78
20752,-2.87
20764,-4.99
20776,-7.06
20787,-9.02
20798,-10.84
20810,-12.5
20822,-14.0
20834,-15.43
20846,-16.89
20858,-18.56
20870,-20.59
20882,-23.08
20894,-25.95
20906,-28.97
20918,-31.67
20930,-33.47
20942,-33.79
20954,-32.17
20966,-28.54
20977,-23.19
20988,-16.77
