seconds,BVP
6,0.99
18,0.19
30,-0.44
41,-0.78
52,-0.79
64,-0.54
76,-0.18
88,0.17
100,0.46
112,0.69
124,0.92
136,1.15
148,1.37
160,1.51
172,1.49
184,1.28
196,0.89
208,0.39
220,-0.15
231,-0.63
242,-0.98
254,-1.15
266,-1.14
278,-0.97
290,-0.71
302,-0.48
314,-0.38
326,-0.5
338,-0.88
350,-1.53
362,-2.38
374,-3.31
386,-4.16
398,-4.78
410,-5.1
421,-5.13
432,-5.06
444,-5.12
456,-5.54
468,-6.38
480,-7.48
492,-8.46
504,-8.9
516,-8.46
528,-7.08
540,-5.0
552,-2.63
564,-0.43
576,1.29
588,2.39
600,2.94
611,3.1
622,3.03
634,2.86
646,2.66
658,2.46
670,2.26
682,2.07
694,1.91
706,1.81
718,1.77
730,1.79
742,1.82
754,1.83
766,1.81
778,1.82
790,1.88
801,2.02
812,2.17
824,2.25
836,2.18
848,1.95
860,1.63
872,1.31
884,1.06
896,0.85
908,0.59
920,0.21
932,-0.29
944,-0.75
956,-1.02
968,-0.99
980,-0.71
991,-0.4
1002,-0.28
1014,-0.52
1026,-1.09
1038,-1.84
1050,-2.55
1062,-3.1
1074,-3.49
1086,-3.85
1098,-4.29
1110,-4.88
1122,-5.6
1134,-6.4
1146,-7.22
1158,-8.01
1170,-8.71
1181,-9.15
1192,-9.13
1204,-8.47
1216,-7.14
1228,-5.27
1240,-3.15
1252,-1.1
1264,0.63
1276,1.95
1288,2.92
1300,3.63
1312,4.14
1324,4.4
1336,4.33
1348,3.86
1360,3.04
1371,2.1
1382,1.39
1394,1.23
1406,1.85
1418,3.26
1430,5.28
1442,7.59
1454,9.83
1466,11.7
1478,13.02
1490,13.69
1502,13.77
1514,13.37
1526,12.61
1538,11.64
1550,10.57
1561,9.42
1572,8.24
1584,7.09
1596,6.03
1608,5.1
1620,4.31
1632,3.54
1644,2.72
1656,1.79
1668,0.82
1680,-0.04
1692,-0.68
1704,-1.08
1716,-1.35
1728,-1.69
1740,-2.26
1751,-3.08
1762,-4.08
1774,-5.09
1786,-6.01
1798,-6.76
1810,-7.36
1822,-7.86
1834,-8.33
1846,-8.83
1858,-9.32
1870,-9.73
1882,-9.89
1894,-9.6
1906,-8.76
1918,-7.37
1930,-5.59
1941,-3.69
1952,-1.93
1964,-0.49
1976,0.55
1988,1.2
2000,1.53
2012,1.59
2024,1.45
2036,1.22
2048,0.99
2060,0.86
2072,0.85
2084,0.91
2096,0.95
2108,0.87
2120,0.65
2131,0.32
2142,-0.01
2154,-0.2
2166,-0.11
2178,0.32
2190,1.08
2202,2.04
2214,3.03
2226,3.83
2238,4.27
2250,4.26
2262,3.84
2274,3.1
2286,2.22
2298,1.32
2310,0.56
2321,-0.03
2332,-0.43
2344,-0.72
2356,-1.01
2368,-1.37
2380,-1.8
2392,-2.23
2404,-2.53
2416,-2.59
2428,-2.39
2440,-2.01
2452,-1.62
2464,-1.36
2476,-1.35
2488,-1.65
2500,-2.29
2511,-3.27
2522,-4.51
2534,-5.85
2546,-7.0
2558,-7.65
2570,-7.54
2582,-6.63
2594,-5.1
2606,-3.26
2618,-1.45
2630,0.13
2642,1.36
2654,2.23
2666,2.78
2678,3.02
2690,2.99
2701,2.8
2712,2.55
2724,2.31
2736,2.08
2748,1.8
2760,1.43
2772,0.99
2784,0.63
2796,0.53
2808,0.82
2820,1.43
2832,2.18
2844,2.83
2856,3.22
2868,3.33
2880,3.27
2891,3.16
2902,3.06
2914,2.98
2926,2.85
2938,2.64
2950,2.36
2962,2.05
2974,1.76
2986,1.46
2998,1.11
3010,0.62
3022,-0.04
3034,-0.86
3046,-1.77
3058,-2.69
3070,-3.61
3081,-4.5
3092,-5.39
3104,-6.27
3116,-7.14
3128,-7.97
3140,-8.82
3152,-9.76
3164,-10.95
3176,-12.51
3188,-14.48
3200,-16.73
3212,-18.99
3224,-20.9
3236,-22.1
3248,-22.39
3260,-21.74
3271,-20.36
3282,-18.59
3294,-16.86
3306,-15.55
3318,-14.87
3330,-14.79
3342,-14.98
3354,-14.93
3366,-14.16
3378,-12.38
3390,-9.66
3402,-6.4
3414,-3.15
3426,-0.37
3438,1.71
3450,3.15
3461,4.18
3472,5.0
3484,5.71
3496,6.27
3508,6.67
3520,6.94
3532,7.21
3544,7.59
3556,8.1
3568,8.57
3580,8.76
3592,8.43
3604,7.47
3616,5.98
3628,4.23
3640,2.6
3651,1.46
3662,1.03
3674,1.34
3686,2.22
3698,3.36
3710,4.42
3722,5.14
3734,5.43
3746,5.35
3758,5.01
3770,4.54
3782,3.98
3794,3.36
3806,2.71
3818,2.09
3830,1.58
3841,1.24
3852,1.06
3864,0.93
3876,0.74
3888,0.43
3900,0.07
3912,-0.19
3924,-0.15
3936,0.29
3948,1.13
3960,2.25
3972,3.43
3984,4.53
3996,5.43
4008,6.14
4020,6.71
4031,7.19
4042,7.56
4054,7.77
4066,7.78
4078,7.54
4090,7.1
4102,6.55
4114,5.99
4126,5.53
4138,5.23
4150,5.12
4162,5.2
4174,5.42
4186,5.73
4198,6.06
4210,6.35
4221,6.53
4232,6.57
4244,6.44
4256,6.11
4268,5.59
4280,4.96
4292,4.28
4304,3.66
4316,3.13
4328,2.69
4340,2.31
4352,1.93
4364,1.56
4376,1.27
4388,1.08
4400,1.02
4411,0.96
4422,0.8
4434,0.4
4446,-0.22
4458,-0.97
4470,-1.68
4482,-2.2
4494,-2.51
4506,-2.68
4518,-2.89
4530,-3.29
4542,-3.95
4554,-4.84
4566,-5.85
4578,-6.87
4590,-7.81
4601,-8.58
4612,-9.09
4624,-9.21
4636,-8.8
4648,-7.82
4660,-6.3
4672,-4.41
4684,-2.37
4696,-0.4
4708,1.36
4720,2.88
4732,4.15
4744,5.22
4756,6.11
4768,6.79
4780,7.24
4791,7.44
4802,7.42
4814,7.23
4826,6.97
4838,6.72
4850,6.56
4862,6.49
4874,6.51
4886,6.61
4898,6.78
4910,7.04
4922,7.36
4934,7.7
4946,7.98
4958,8.17
4970,8.3
4981,8.43
4992,8.65
5004,8.95
5016,9.29
5028,9.55
5040,9.64
5052,9.53
5064,9.27
5076,8.96
5088,8.68
5100,8.52
5112,8.53
5124,8.81
5136,9.46
5148,10.55
5160,12.03
5171,13.7
5182,15.19
5194,16.09
5206,16.13
5218,15.28
5230,13.77
5242,12.01
5254,10.42
5266,9.24
5278,8.42
5290,7.73
5302,6.81
5314,5.39
5326,3.4
5338,1.03
5350,-1.33
5361,-3.2
5372,-4.21
5384,-4.18
5396,-3.23
5408,-1.64
5420,0.23
5432,2.04
5444,3.62
5456,4.9
5468,5.9
5480,6.69
5492,7.36
5504,8.12
5516,9.16
5528,10.61
5540,12.32
5551,13.85
5562,14.64
5574,14.16
5586,12.2
5598,8.85
5610,4.5
5622,-0.43
5634,-5.64
5646,-11.01
5658,-16.54
5670,-22.21
5682,-27.86
5694,-33.05
5706,-37.19
5718,-39.59
5730,-39.73
5741,-37.43
5752,-33.07
5764,-27.42
5776,-21.53
5788,-16.31
5800,-12.26
5812,-9.39
5824,-7.42
5836,-5.97
5848,-4.86
5860,-4.11
5872,-3.81
5884,-3.99
5896,-4.53
5908,-5.18
5920,-5.65
5931,-5.77
5942,-5.53
5954,-5.02
5966,-4.44
5978,-3.97
5990,-3.74
6002,-3.84
6014,-4.31
6026,-5.17
6038,-6.38
6050,-7.79
6062,-9.07
6074,-9.77
6086,-9.36
6098,-7.47
6110,-4.02
6121,0.69
6132,6.1
6144,11.56
6156,16.54
6168,20.74
6180,24.06
6192,26.5
6204,28.09
6216,28.84
6228,28.78
6240,28.03
6252,26.76
6264,25.18
6276,23.45
6288,21.57
6300,19.49
6311,17.1
6322,14.39
6334,11.55
6346,8.9
6358,6.88
6370,5.85
6382,5.94
6394,7.02
6406,8.67
6418,10.38
6430,11.68
6442,12.32
6454,12.28
6466,11.69
6478,10.78
6490,9.66
6501,8.35
6512,6.79
6524,4.91
6536,2.69
6548,0.28
6560,-2.16
6572,-4.44
6584,-6.45
6596,-8.18
6608,-9.72
6620,-11.16
6632,-12.55
6644,-13.87
6656,-15.03
6668,-15.95
6680,-16.6
6691,-17.04
6702,-17.42
6714,-17.86
6726,-18.46
6738,-19.26
6750,-20.14
6762,-20.94
6774,-21.45
6786,-21.46
6798,-20.81
6810,-19.46
6822,-17.45
6834,-14.92
6846,-12.07
6858,-9.12
6870,-6.29
6881,-3.75
6892,-1.66
6904,-0.09
6916,0.89
6928,1.33
6940,1.31
6952,0.94
6964,0.37
6976,-0.2
6988,-0.57
7000,-0.53
7012,0.05
7024,1.16
7036,2.65
7048,4.25
7060,5.73
7071,6.94
7082,7.93
7094,8.78
7106,9.63
7118,10.49
7130,11.36
7142,12.17
7154,12.9
7166,13.6
7178,14.31
7190,15.06
7202,15.84
7214,16.52
7226,16.95
7238,16.93
7250,16.33
7261,15.06
7272,13.08
7284,10.47
7296,7.38
7308,4.03
7320,0.66
7332,-2.47
7344,-5.21
7356,-7.53
7368,-9.5
7380,-11.3
7392,-13.14
7404,-15.19
7416,-17.47
7428,-19.83
7440,-21.91
7451,-23.31
7462,-23.61
7474,-22.62
7486,-20.4
7498,-17.25
7510,-13.6
7522,-9.83
7534,-6.16
7546,-2.63
7558,0.74
7570,3.87
7582,6.56
7594,8.56
7606,9.66
7618,9.84
7630,9.31
7641,8.38
7652,7.36
7664,6.46
7676,5.77
7688,5.25
7700,4.88
7712,4.67
7724,4.66
7736,4.87
7748,5.26
7760,5.74
7772,6.17
7784,6.44
7796,6.48
7808,6.3
7820,5.87
7831,5.19
7842,4.22
7854,2.95
7866,1.44
7878,-0.15
7890,-1.57
7902,-2.6
7914,-3.17
7926,-3.42
7938,-3.68
7950,-4.41
7962,-5.99
7974,-8.62
7986,-12.21
7998,-16.41
8010,-20.77
8021,-24.82
8032,-28.24
8044,-30.87
8056,-32.69
8068,-33.7
8080,-33.92
8092,-33.28
8104,-31.75
8116,-29.41
8128,-26.47
8140,-23.27
8152,-20.25
8164,-17.76
8176,-15.97
8188,-14.82
8200,-14.06
8211,-13.38
8222,-12.57
8234,-11.59
8246,-10.59
8258,-9.72
8270,-9.06
8282,-8.44
8294,-7.6
8306,-6.34
8318,-4.67
8330,-2.88
8342,-1.4
8354,-0.64
8366,-0.75
8378,-1.63
8390,-2.98
8401,-4.5
8412,-6.05
8424,-7.67
8436,-9.57
8448,-11.95
8460,-14.97
8472,-18.64
8484,-22.78
8496,-26.94
8508,-30.43
8520,-32.52
8532,-32.64
8544,-30.71
8556,-27.24
8568,-23.18
8580,-19.61
8591,-17.32
8602,-16.57
8614,-17.04
8626,-18.12
8638,-19.16
8650,-19.78
8662,-19.9
8674,-19.65
8686,-19.22
8698,-18.71
8710,-18.12
8722,-17.38
8734,-16.44
8746,-15.26
8758,-13.84
8770,-12.19
8781,-10.25
8792,-7.97
8804,-5.34
8816,-2.51
8828,0.24
8840,2.49
8852,3.85
8864,4.19
8876,3.63
8888,2.66
8900,1.95
8912,2.2
8924,3.88
8936,7.16
8948,11.8
8960,17.24
8971,22.74
8982,27.54
8994,31.0
9006,32.75
9018,32.73
9030,31.21
9042,28.69
9054,25.79
9066,23.08
9078,20.97
9090,19.61
9102,18.92
9114,18.63
9126,18.44
9138,18.13
9150,17.57
9161,16.8
9172,15.94
9184,15.11
9196,14.4
9208,13.81
9220,13.22
9232,12.48
9244,11.45
9256,10.04
9268,8.28
9280,6.29
9292,4.25
9304,2.4
9316,0.94
9328,0.06
9340,-0.11
9351,0.49
9362,1.83
9374,3.75
9386,5.98
9398,8.2
9410,10.16
9422,11.67
9434,12.69
9446,13.29
9458,13.64
9470,13.87
9482,14.11
9494,14.46
9506,15.0
9518,15.79
9530,16.82
9541,18.05
9552,19.33
9564,20.49
9576,21.33
9588,21.74
9600,21.67
9612,21.18
9624,20.41
9636,19.49
9648,18.56
9660,17.7
9672,16.93
9684,16.23
9696,15.57
9708,14.89
9720,14.14
9731,13.27
9742,12.23
9754,10.96
9766,9.47
9778,7.76
9790,5.93
9802,4.11
9814,2.44
9826,1.07
9838,0.11
9850,-0.35
9862,-0.28
9874,0.34
9886,1.46
9898,3.0
9910,4.8
9921,6.66
9932,8.41
9944,9.91
9956,11.12
9968,12.09
9980,12.89
9992,13.56
10004,14.12
10016,14.52
10028,14.71
10040,14.73
10052,14.69
10064,14.75
10076,14.97
10088,15.25
10100,15.31
10111,14.87
10122,13.75
10134,12.05
10146,10.09
10158,8.3
10170,6.97
10182,6.16
10194,5.72
10206,5.36
10218,4.91
10230,4.31
10242,3.64
10254,3.01
10266,2.51
10278,2.14
10290,1.84
10301,1.56
10312,1.26
10324,0.88
10336,0.34
10348,-0.51
10360,-1.76
10372,-3.45
10384,-5.45
10396,-7.47
10408,-9.1
10420,-9.98
10432,-9.87
10444,-8.76
10456,-6.87
10468,-4.52
10480,-2.06
10491,0.23
10502,2.22
10514,3.82
10526,4.98
10538,5.64
10550,5.8
10562,5.49
10574,4.82
10586,3.93
10598,2.94
10610,1.92
10622,0.92
10634,0.02
10646,-0.64
10658,-0.95
10670,-0.88
10681,-0.55
10692,-0.18
10704,0.02
10716,-0.05
10728,-0.35
10740,-0.75
10752,-1.2
10764,-1.71
10776,-2.36
10788,-3.21
10800,-4.24
10812,-5.35
10824,-6.42
10836,-7.39
10848,-8.28
10860,-9.1
10871,-9.86
10882,-10.52
10894,-11.02
10906,-11.39
10918,-11.75
10930,-12.3
10942,-13.21
10954,-14.49
10966,-15.92
10978,-17.1
10990,-17.57
11002,-16.97
11014,-15.23
11026,-12.52
11038,-9.26
11050,-5.92
11061,-2.89
11072,-0.41
11084,1.48
11096,2.84
11108,3.78
11120,4.38
11132,4.67
11144,4.68
11156,4.45
11168,4.03
11180,3.5
11192,2.99
11204,2.62
11216,2.51
11228,2.69
11240,3.14
11251,3.76
11262,4.39
11274,4.94
11286,5.38
11298,5.73
11310,6.05
11322,6.33
11334,6.51
11346,6.45
11358,6.07
11370,5.38
11382,4.5
11394,3.61
11406,2.86
11418,2.33
11430,1.98
11441,1.73
11452,1.48
11464,1.12
11476,0.63
11488,-0.01
11500,-0.75
11512,-1.57
11524,-2.4
11536,-3.17
11548,-3.83
11560,-4.36
11572,-4.78
11584,-5.14
11596,-5.55
11608,-6.08
11620,-6.84
11631,-7.86
11642,-9.1
11654,-10.43
11666,-11.6
11678,-12.28
11690,-12.21
11702,-11.22
11714,-9.37
11726,-6.97
11738,-4.46
11750,-2.25
11762,-0.61
11774,0.45
11786,1.1
11798,1.56
11810,1.97
11821,2.34
11832,2.55
11844,2.52
11856,2.29
11868,2.01
11880,1.94
11892,2.24
11904,2.96
11916,3.99
11928,5.11
11940,6.12
11952,6.9
11964,7.43
11976,7.73
11988,7.82
12000,7.72
12011,7.42
12022,6.95
12034,6.35
12046,5.68
12058,5.01
12070,4.41
12082,3.92
12094,3.61
12106,3.52
12118,3.62
12130,3.81
12142,3.94
12154,3.91
12166,3.68
12178,3.3
12190,2.83
12201,2.35
12212,1.81
12224,1.17
12236,0.33
12248,-0.71
12260,-1.91
12272,-3.16
12284,-4.34
12296,-5.45
12308,-6.56
12320,-7.83
12332,-9.36
12344,-11.17
12356,-13.11
12368,-14.83
12380,-15.95
12391,-16.1
12402,-15.16
12414,-13.23
12426,-10.65
12438,-7.86
12450,-5.22
12462,-2.95
12474,-1.13
12486,0.23
12498,1.18
12510,1.74
12522,1.97
12534,1.95
12546,1.81
12558,1.7
12570,1.75
12581,1.98
12592,2.33
12604,2.68
12616,2.88
12628,2.81
12640,2.45
12652,1.92
12664,1.42
12676,1.23
12688,1.57
12700,2.46
12712,3.75
12724,5.12
12736,6.23
12748,6.87
12760,6.98
12771,6.65
12782,6.0
12794,5.09
12806,3.92
12818,2.47
12830,0.79
12842,-0.99
12854,-2.68
12866,-4.12
12878,-5.21
12890,-6.01
12902,-6.65
12914,-7.31
12926,-8.16
12938,-9.3
12950,-10.71
12961,-12.28
12972,-13.77
12984,-14.89
12996,-15.39
13008,-15.1
13020,-14.05
13032,-12.4
13044,-10.4
13056,-8.28
13068,-6.16
13080,-4.05
13092,-1.9
13104,0.3
13116,2.48
13128,4.5
13140,6.22
13151,7.54
13162,8.45
13174,8.95
13186,9.09
13198,8.9
13210,8.41
13222,7.69
13234,6.87
13246,6.08
13258,5.48
13270,5.17
13282,5.19
13294,5.53
13306,6.11
13318,6.81
13330,7.5
13341,8.05
13352,8.37
13364,8.41
13376,8.2
13388,7.83
13400,7.42
13412,7.04
13424,6.75
13436,6.52
13448,6.32
13460,6.13
13472,5.94
13484,5.75
13496,5.59
13508,5.43
13520,5.23
13531,4.95
13542,4.53
13554,3.97
13566,3.29
13578,2.53
13590,1.77
13602,1.03
13614,0.37
13626,-0.2
13638,-0.69
13650,-1.14
13662,-1.63
13674,-2.19
13686,-2.84
13698,-3.54
13710,-4.27
13721,-5.0
13732,-5.79
13744,-6.69
13756,-7.81
13768,-9.16
13780,-10.69
13792,-12.25
13804,-13.62
13816,-14.52
13828,-14.66
13840,-13.87
13852,-12.15
13864,-9.68
13876,-6.84
13888,-4.09
13900,-1.82
13911,-0.24
13922,0.67
13934,1.08
13946,1.22
13958,1.26
13970,1.22
13982,1.06
13994,0.71
14006,0.16
14018,-0.5
14030,-1.15
14042,-1.6
14054,-1.71
14066,-1.42
14078,-0.76
14090,0.18
14101,1.24
14112,2.3
14124,3.27
14136,4.11
14148,4.84
14160,5.47
14172,5.98
14184,6.34
14196,6.5
14208,6.46
14220,6.24
14232,5.93
14244,5.63
14256,5.35
14268,5.06
14280,4.69
14291,4.2
14302,3.57
14314,2.9
14326,2.28
14338,1.79
14350,1.45
14362,1.19
14374,0.95
14386,0.67
14398,0.41
14410,0.26
14422,0.34
14434,0.66
14446,1.06
14458,1.32
14470,1.18
14481,0.49
14492,-0.73
14504,-2.38
14516,-4.29
14528,-6.3
14540,-8.25
14552,-9.92
14564,-11.03
14576,-11.3
14588,-10.55
14600,-8.87
14612,-6.57
14624,-4.12
14636,-1.94
14648,-0.24
14660,0.97
14671,1.87
14682,2.63
14694,3.31
14706,3.84
14718,4.1
14730,3.95
14742,3.45
14754,2.74
14766,2.09
14778,1.72
14790,1.7
14802,2.0
14814,2.46
14826,2.94
14838,3.4
14850,3.88
14861,4.47
14872,5.18
14884,5.91
14896,6.47
14908,6.64
14920,6.33
14932,5.62
14944,4.71
14956,3.86
14968,3.24
14980,2.91
14992,2.78
15004,2.7
15016,2.57
15028,2.34
15040,2.06
15051,1.79
15062,1.53
15074,1.28
15086,0.99
15098,0.65
15110,0.31
15122,0.01
15134,-0.21
15146,-0.42
15158,-0.71
15170,-1.16
15182,-1.74
15194,-2.39
15206,-3.0
15218,-3.57
15230,-4.21
15241,-5.07
15252,-6.27
15264,-7.73
15276,-9.19
15288,-10.28
15300,-10.7
15312,-10.34
15324,-9.3
15336,-7.8
15348,-6.12
15360,-4.47
15372,-2.98
15384,-1.75
15396,-0.85
15408,-0.32
15420,-0.14
15431,-0.24
15442,-0.52
15454,-0.86
15466,-1.25
15478,-1.73
15490,-2.32
15502,-3.04
15514,-3.76
15526,-4.26
15538,-4.32
15550,-3.86
15562,-2.94
15574,-1.8
15586,-0.77
15598,-0.12
15610,0.05
15621,-0.16
15632,-0.53
15644,-0.78
15656,-0.77
15668,-0.52
15680,-0.18
15692,0.09
15704,0.17
15716,0.08
15728,-0.08
15740,-0.21
15752,-0.23
15764,-0.17
15776,-0.1
15788,-0.07
15800,-0.14
15811,-0.32
15822,-0.58
15834,-0.9
15846,-1.25
15858,-1.59
15870,-1.9
15882,-2.13
15894,-2.25
15906,-2.26
15918,-2.19
15930,-2.17
15942,-2.36
15954,-2.91
15966,-3.89
15978,-5.19
15990,-6.54
16001,-7.54
16012,-7.83
16024,-7.18
16036,-5.65
16048,-3.5
16060,-1.16
16072,1.01
16084,2.78
16096,4.09
16108,5.02
16120,5.68
16132,6.12
16144,6.35
16156,6.33
16168,6.07
16180,5.61
16191,5.08
16202,4.6
16214,4.29
16226,4.22
16238,4.39
16250,4.76
16262,5.28
16274,5.84
16286,6.33
16298,6.63
16310,6.62
16322,6.22
16334,5.43
16346,4.38
16358,3.27
16370,2.34
16381,1.72
16392,1.41
16404,1.26
16416,1.07
16428,0.67
16440,0.07
16452,-0.63
16464,-1.22
16476,-1.56
16488,-1.6
16500,-1.41
16512,-1.09
16524,-0.77
16536,-0.52
16548,-0.39
16560,-0.42
16571,-0.64
16582,-1.1
16594,-1.82
16606,-2.76
16618,-3.82
16630,-4.93
16642,-6.03
16654,-7.15
16666,-8.36
16678,-9.71
16690,-11.1
16702,-12.3
16714,-12.97
16726,-12.78
16738,-11.6
16750,-9.57
16761,-7.07
16772,-4.59
16784,-2.48
16796,-0.92
16808,0.11
16820,0.78
16832,1.21
16844,1.49
16856,1.66
16868,1.71
16880,1.69
16892,1.67
16904,1.75
16916,1.99
16928,2.42
16940,2.97
16951,3.57
16962,4.13
16974,4.65
16986,5.11
16998,5.57
17010,6.05
17022,6.54
17034,6.97
17046,7.26
17058,7.3
17070,7.07
17082,6.6
17094,5.98
17106,5.32
17118,4.72
17130,4.23
17141,3.87
17152,3.58
17164,3.3
17176,2.98
17188,2.61
17200,2.15
17212,1.61
17224,1.01
17236,0.34
17248,-0.39
17260,-1.16
17272,-1.96
17284,-2.74
17296,-3.41
17308,-3.91
17320,-4.22
17331,-4.38
17342,-4.53
17354,-4.8
17366,-5.3
17378,-6.07
17390,-6.98
17402,-7.84
17414,-8.37
17426,-8.33
17438,-7.56
17450,-6.05
17462,-3.95
17474,-1.54
17486,0.83
17498,2.84
17510,4.3
17521,5.17
17532,5.55
17544,5.66
17556,5.67
17568,5.73
17580,5.92
17592,6.23
17604,6.62
17616,7.01
17628,7.3
17640,7.39
17652,7.17
17664,6.64
17676,5.92
17688,5.21
17700,4.72
17711,4.54
17722,4.61
17734,4.72
17746,4.62
17758,4.11
17770,3.2
17782,2.03
17794,0.81
17806,-0.23
17818,-0.95
17830,-1.31
17842,-1.35
17854,-1.15
17866,-0.86
17878,-0.65
17890,-0.65
17901,-1.01
17912,-1.73
17924,-2.7
17936,-3.72
17948,-4.57
17960,-5.12
17972,-5.38
17984,-5.46
17996,-5.53
18008,-5.77
18020,-6.25
18032,-6.98
18044,-7.93
18056,-9.02
18068,-10.17
18080,-11.24
18091,-12.07
18102,-12.48
18114,-12.32
18126,-11.54
18138,-10.23
18150,-8.56
18162,-6.74
18174,-4.95
18186,-3.3
18198,-1.78
18210,-0.4
18222,0.87
18234,2.04
18246,3.08
18258,3.91
18270,4.49
18281,4.79
18292,4.87
18304,4.84
18316,4.85
18328,5.01
18340,5.35
18352,5.82
18364,6.28
18376,6.58
18388,6.68
18400,6.56
18412,6.32
18424,6.04
18436,5.7
18448,5.28
18460,4.71
18471,3.91
18482,2.91
18494,1.79
18506,0.71
18518,-0.17
18530,-0.74
18542,-1.0
18554,-1.03
18566,-0.95
18578,-0.88
18590,-0.88
18602,-0.96
18614,-1.1
18626,-1.29
18638,-1.55
18650,-1.88
18661,-2.26
18672,-2.64
18684,-2.97
18696,-3.21
18708,-3.43
18720,-3.73
18732,-4.22
18744,-4.96
18756,-5.91
18768,-6.95
18780,-7.83
18792,-8.32
18804,-8.2
18816,-7.38
18828,-5.91
18840,-4.03
18851,-2.03
18862,-0.2
18874,1.28
18886,2.38
18898,3.15
18910,3.69
18922,4.06
18934,4.29
18946,4.32
18958,4.16
18970,3.82
18982,3.37
18994,2.92
19006,2.63
19018,2.58
19030,2.85
19041,3.39
19052,4.08
19064,4.75
19076,5.27
19088,5.58
19100,5.69
19112,5.68
19124,5.62
19136,5.56
19148,5.52
19160,5.45
19172,5.34
19184,5.16
19196,4.89
19208,4.52
19220,4.03
19231,3.44
19242,2.8
19254,2.16
19266,1.59
19278,1.1
19290,0.66
19302,0.21
19314,-0.29
19326,-0.85
19338,-1.45
19350,-2.06
19362,-2.64
19374,-3.18
19386,-3.64
19398,-4.06
19410,-4.44
19421,-4.84
19432,-5.35
19444,-6.08
19456,-7.12
19468,-8.44
19480,-9.84
19492,-10.99
19504,-11.51
19516,-11.15
19528,-9.89
19540,-7.94
19552,-5.69
19564,-3.49
19576,-1.57
19588,-0.02
19600,1.2
19611,2.17
19622,2.91
19634,3.44
19646,3.79
19658,4.0
19670,4.19
19682,4.38
19694,4.61
19706,4.81
19718,4.9
19730,4.86
19742,4.71
19754,4.55
19766,4.51
19778,4.7
19790,5.14
19801,5.76
19812,6.4
19824,6.92
19836,7.19
19848,7.19
19860,6.97
19872,6.6
19884,6.17
19896,5.72
19908,5.28
19920,4.87
19932,4.51
19944,4.2
19956,3.92
19968,3.64
19980,3.29
19991,2.86
20002,2.36
20014,1.86
20026,1.43
20038,1.11
20050,0.86
20062,0.57
20074,0.14
20086,-0.49
20098,-1.3
20110,-2.19
20122,-3.04
20134,-3.77
20146,-4.37
20158,-4.91
20170,-5.53
20181,-6.36
20192,-7.47
20204,-8.81
20216,-10.21
20228,-11.43
20240,-12.18
20252,-12.25
20264,-11.55
20276,-10.14
20288,-8.23
20300,-6.09
20312,-3.96
20324,-2.08
20336,-0.55
20348,0.61
20360,1.4
20371,1.88
20382,2.11
20394,2.12
20406,1.96
20418,1.71
20430,1.45
20442,1.27
20454,1.27
20466,1.49
20478,1.91
20490,2.45
20502,3.03
20514,3.55
20526,3.97
20538,4.29
20550,4.51
20561,4.64
20572,4.67
20584,4.55
20596,4.25
20608,3.79
20620,3.23
20632,2.64
20644,2.11
20656,1.71
20668,1.46
20680,1.33
20692,1.31
20704,1.33
20716,1.35
20728,1.29
20740,1.1
20751,0.72
20762,0.17
20774,-0.54
20786,-1.35
20798,-2.15
20810,-2.88
20822,-3.44
20834,-3.84
20846,-4.07
20858,-4.26
20870,-4.54
20882,-5.09
20894,-6.0
20906,-7.22
20918,-8.59
20930,-9.85
20941,-10.74
20952,-11.04
20964,-10.63
20976,-9.53
20988,-7.85
