seconds,BVP
9,43.76
21,39.8
33,34.72
45,28.44
57,21.09
69,13.05
80,4.84
91,-3.01
103,-10.12
115,-16.4
127,-22.01
139,-27.32
151,-32.75
163,-38.52
175,-44.54
187,-50.24
199,-54.65
211,-56.58
223,-55.06
235,-49.6
247,-40.43
259,-28.46
270,-15.0
281,-1.38
293,11.4
305,22.75
317,32.47
329,40.44
341,46.51
353,50.38
365,51.75
377,50.56
389,47.1
401,41.98
413,35.98
425,29.81
437,23.92
449,18.5
460,13.51
471,8.9
483,4.63
495,0.72
507,-2.81
519,-5.96
531,-8.8
543,-11.46
555,-14.11
567,-16.9
579,-19.91
591,-23.09
603,-26.28
615,-29.2
627,-31.64
639,-33.57
650,-35.21
661,-36.97
673,-39.38
685,-42.81
697,-47.29
709,-52.39
721,-57.21
733,-60.56
745,-61.21
757,-58.29
769,-51.51
781,-41.33
793,-28.85
805,-15.48
817,-2.62
829,8.66
840,17.73
851,24.44
863,28.97
875,31.72
887,33.16
899,33.7
911,33.65
923,33.15
935,32.24
947,30.91
959,29.2
971,27.15
983,24.87
995,22.34
1007,19.56
1019,16.54
1030,13.29
1041,9.94
1053,6.61
1065,3.33
1077,-0.0
1089,-3.54
1101,-7.46
1113,-11.71
1125,-16.09
1137,-20.26
1149,-23.84
1161,-26.57
1173,-28.48
1185,-29.85
1197,-31.23
1209,-33.26
1220,-36.47
1231,-40.99
1243,-46.32
1255,-51.39
1267,-54.63
1279,-54.54
1291,-50.12
1303,-41.24
1315,-28.72
1327,-13.97
1339,1.47
1351,16.45
1363,30.41
1375,43.23
1387,54.87
1399,65.09
1410,73.31
1421,78.84
1433,81.25
1445,80.62
1457,77.67
1469,73.45
1481,69.0
1493,64.97
1505,61.5
1517,58.29
1529,54.91
1541,51.06
1553,46.64
1565,41.73
1577,36.39
1589,30.56
1600,23.98
1611,16.42
1623,7.87
1635,-1.24
1647,-10.16
1659,-18.0
1671,-24.1
1683,-28.33
1695,-31.12
1707,-33.39
1719,-36.1
1731,-39.94
1743,-44.99
1755,-50.57
1767,-55.49
1779,-58.28
1790,-57.67
1801,-52.98
1813,-44.36
1825,-32.72
1837,-19.44
1849,-6.01
1861,6.35
1873,16.89
1885,25.34
1897,31.67
1909,36.03
1921,38.56
1933,39.51
1945,39.25
1957,38.26
1969,37.14
1980,36.35
1991,36.14
2003,36.43
2015,36.9
2027,37.06
2039,36.41
2051,34.59
2063,31.43
2075,26.89
2087,21.13
2099,14.35
2111,6.78
2123,-1.4
2135,-10.06
2147,-19.14
2159,-28.59
2170,-38.43
2181,-48.71
2193,-59.48
2205,-70.67
2217,-81.82
2229,-91.83
2241,-99.02
2253,-101.38
2265,-97.21
2277,-85.81
2289,-67.86
2301,-45.32
2313,-20.86
2325,2.93
2337,24.09
2349,41.53
2360,54.86
2371,64.07
2383,69.28
2395,70.78
2407,69.15
2419,65.3
2431,60.38
2443,55.47
2455,51.25
2467,47.87
2479,45.05
2491,42.3
2503,39.19
2515,35.5
2527,31.12
2539,26.02
2550,20.11
2561,13.24
2573,5.3
2585,-3.71
2597,-13.67
2609,-24.33
2621,-35.44
2633,-46.73
2645,-57.9
2657,-68.51
2669,-77.93
2681,-85.31
2693,-89.69
2705,-90.21
2717,-86.31
2729,-77.91
2740,-65.48
2751,-49.99
2763,-32.75
2775,-15.19
2787,1.36
2799,15.86
2811,27.64
2823,36.39
2835,42.09
2847,44.87
2859,45.03
2871,43.02
2883,39.47
2895,35.19
2907,31.06
2919,27.75
2930,25.59
2941,24.45
2953,23.86
2965,23.2
2977,22.01
2989,20.12
3001,17.62
3013,14.8
3025,11.92
3037,9.12
3049,6.36
3061,3.46
3073,0.19
3085,-3.67
3097,-8.16
3109,-13.14
3120,-18.14
3131,-22.51
3143,-25.45
3155,-26.27
3167,-24.53
3179,-20.22
3191,-13.73
3203,-5.77
3215,2.84
3227,11.32
3239,19.05
3251,25.62
3263,30.77
3275,34.37
3287,36.35
3299,36.76
3310,35.73
3321,33.53
3333,30.53
3345,27.14
3357,23.77
3369,20.77
3381,18.31
3393,16.43
3405,14.99
3417,13.68
3429,12.18
3441,10.27
3453,7.84
3465,4.96
3477,1.75
3489,-1.71
3500,-5.43
3511,-9.52
3523,-14.08
3535,-19.14
3547,-24.55
3559,-29.98
3571,-34.88
3583,-38.58
3595,-40.4
3607,-39.72
3619,-36.23
3631,-30.04
3643,-21.75
3655,-12.31
3667,-2.8
3679,5.86
3690,13.11
3701,18.74
3713,22.82
3725,25.46
3737,26.74
3749,26.7
3761,25.48
3773,23.35
3785,20.75
3797,18.17
3809,15.98
3821,14.34
3833,13.22
3845,12.44
3857,11.81
3869,11.2
3880,10.5
3891,9.61
3903,8.45
3915,6.98
3927,5.22
3939,3.23
3951,1.09
3963,-1.24
3975,-3.88
3987,-7.09
3999,-11.03
4011,-15.66
4023,-20.6
4035,-25.14
4047,-28.39
4059,-29.5
4070,-27.91
4081,-23.58
4093,-16.98
4105,-9.01
4117,-0.69
4129,7.09
4141,13.74
4153,19.07
4165,23.08
4177,25.93
4189,27.72
4201,28.52
4213,28.41
4225,27.52
4237,26.03
4249,24.19
4260,22.28
4271,20.53
4283,19.09
4295,17.96
4307,17.07
4319,16.22
4331,15.2
4343,13.9
4355,12.29
4367,10.44
4379,8.42
4391,6.29
4403,4.07
4415,1.75
4427,-0.64
4439,-3.06
4450,-5.46
4461,-7.87
4473,-10.32
4485,-12.77
4497,-14.93
4509,-16.26
4521,-16.08
4533,-13.8
4545,-9.22
4557,-2.61
4569,5.28
4581,13.49
4593,21.09
4605,27.46
4617,32.32
4629,35.72
4640,37.84
4651,38.9
4663,39.09
4675,38.55
4687,37.48
4699,36.14
4711,34.85
4723,33.88
4735,33.37
4747,33.26
4759,33.29
4771,33.14
4783,32.58
4795,31.5
4807,29.9
4819,27.79
4830,25.22
4841,22.13
4853,18.52
4865,14.43
4877,10.03
4889,5.6
4901,1.48
4913,-2.04
4925,-4.78
4937,-6.74
4949,-8.1
4961,-9.14
4973,-10.05
4985,-10.81
4997,-11.03
5009,-10.04
5020,-7.16
5031,-1.91
5043,5.67
5055,14.97
5067,24.95
5079,34.4
5091,42.21
5103,47.5
5115,49.8
5127,48.98
5139,45.23
5151,39.01
5163,30.85
5175,21.36
5187,11.1
5199,0.62
5210,-9.47
5221,-18.58
5233,-26.18
5245,-31.86
5257,-35.5
5269,-37.21
5281,-37.27
5293,-36.0
5305,-33.69
5317,-30.58
5329,-26.98
5341,-23.28
5353,-19.94
5365,-17.34
5377,-15.75
5389,-15.19
5400,-15.56
5411,-16.72
5423,-18.58
5435,-21.14
5447,-24.45
5459,-28.49
5471,-33.08
5483,-37.79
5495,-42.01
5507,-44.99
5519,-46.1
5531,-45.0
5543,-41.79
5555,-36.98
5567,-31.43
5579,-25.97
5590,-21.24
5601,-17.45
5613,-14.43
5625,-11.84
5637,-9.34
5649,-6.87
5661,-4.64
5673,-3.04
5685,-2.33
5697,-2.55
5709,-3.3
5721,-3.99
5733,-3.99
5745,-2.88
5757,-0.59
5769,2.64
5780,6.42
5791,10.36
5803,14.2
5815,17.78
5827,21.0
5839,23.71
5851,25.64
5863,26.49
5875,26.0
5887,24.05
5899,20.77
5911,16.49
5923,11.62
5935,6.55
5947,1.56
5959,-3.09
5970,-7.1
5981,-9.94
5993,-11.0
6005,-9.81
6017,-6.38
6029,-1.48
6041,3.53
6053,7.04
6065,7.75
6077,5.08
6089,-0.69
6101,-8.71
6113,-17.93
6125,-27.39
6137,-36.31
6149,-44.07
6160,-50.1
6171,-53.92
6183,-55.32
6195,-54.5
6207,-52.06
6219,-48.9
6231,-45.86
6243,-43.52
6255,-42.05
6267,-41.29
6279,-40.94
6291,-40.7
6303,-40.4
6315,-39.97
6327,-39.4
6339,-38.77
6350,-38.13
6361,-37.57
6373,-37.23
6385,-37.25
6397,-37.78
6409,-38.84
6421,-40.29
6433,-41.67
6445,-42.34
6457,-41.62
6469,-38.99
6481,-34.38
6493,-28.2
6505,-21.22
6517,-14.31
6529,-8.1
6540,-2.84
6551,1.5
6563,5.12
6575,8.11
6587,10.35
6599,11.59
6611,11.69
6623,10.72
6635,9.03
6647,7.1
6659,5.35
6671,4.03
6683,3.13
6695,2.49
6707,1.95
6719,1.41
6730,0.84
6741,0.25
6753,-0.46
6765,-1.45
6777,-2.98
6789,-5.28
6801,-8.41
6813,-12.24
6825,-16.4
6837,-20.51
6849,-24.3
6861,-27.78
6873,-31.23
6885,-35.03
6897,-39.31
6909,-43.79
6920,-47.72
6931,-50.1
6943,-50.02
6955,-47.04
6967,-41.27
6979,-33.36
6991,-24.23
7003,-14.88
7015,-6.15
7027,1.3
7039,7.17
7051,11.38
7063,14.1
7075,15.63
7087,16.29
7099,16.35
7110,16.01
7121,15.36
7133,14.53
7145,13.65
7157,12.93
7169,12.45
7181,12.24
7193,12.17
7205,12.05
7217,11.68
7229,10.92
7241,9.76
7253,8.37
7265,7.01
7277,6.0
7289,5.57
7300,5.82
7311,6.65
7323,7.83
7335,9.17
7347,10.48
7359,11.61
7371,12.49
7383,12.98
7395,13.08
7407,12.95
7419,13.08
7431,14.17
7443,16.95
7455,21.83
7467,28.66
7479,36.72
7490,44.87
7501,51.96
7513,57.18
7525,60.2
7537,61.17
7549,60.53
7561,58.68
7573,55.92
7585,52.37
7597,48.09
7609,43.21
7621,37.96
7633,32.66
7645,27.6
7657,22.99
7669,18.98
7680,15.65
7691,13.03
7703,11.09
7715,9.72
7727,8.61
7739,7.32
7751,5.43
7763,2.71
7775,-0.8
7787,-4.81
7799,-8.93
7811,-12.85
7823,-16.42
7835,-19.73
7847,-22.99
7859,-26.47
7870,-30.39
7881,-34.87
7893,-39.85
7905,-44.99
7917,-49.75
7929,-53.37
7941,-55.1
7953,-54.39
7965,-51.01
7977,-45.2
7989,-37.54
8001,-28.86
8013,-20.09
8025,-12.02
8037,-5.25
8049,-0.09
8060,3.47
8071,5.69
8083,6.94
8095,7.59
8107,7.86
8119,7.89
8131,7.69
8143,7.3
8155,6.83
8167,6.48
8179,6.44
8191,6.81
8203,7.56
8215,8.53
8227,9.49
8239,10.23
8250,10.58
8261,10.49
8273,9.95
8285,9.06
8297,7.95
8309,6.77
8321,5.68
8333,4.78
8345,4.06
8357,3.41
8369,2.6
8381,1.32
8393,-0.77
8405,-3.89
8417,-8.06
8429,-12.91
8440,-17.76
8451,-21.64
8463,-23.66
8475,-23.22
8487,-20.25
8499,-15.14
8511,-8.6
8523,-1.35
8535,5.99
8547,12.93
8559,19.08
8571,24.01
8583,27.34
8595,28.89
8607,28.77
8619,27.5
8630,25.81
8641,24.45
8653,23.86
8665,24.1
8677,24.93
8689,26.0
8701,27.11
8713,28.29
8725,29.69
8737,31.4
8749,33.33
8761,35.11
8773,36.27
8785,36.42
8797,35.42
8809,33.41
8820,30.7
8831,27.63
8843,24.43
8855,21.1
8867,17.52
8879,13.47
8891,8.71
8903,3.1
8915,-3.35
8927,-10.35
8939,-17.35
8951,-23.58
8963,-28.2
8975,-30.55
8987,-30.32
8999,-27.69
9010,-23.21
9021,-17.66
9033,-11.81
9045,-6.31
9057,-1.57
9069,2.16
9081,4.81
9093,6.4
9105,7.06
9117,6.96
9129,6.33
9141,5.42
9153,4.49
9165,3.77
9177,3.42
9189,3.5
9200,3.89
9211,4.35
9223,4.62
9235,4.52
9247,4.07
9259,3.4
9271,2.7
9283,2.05
9295,1.38
9307,0.47
9319,-0.89
9331,-2.86
9343,-5.42
9355,-8.45
9367,-11.69
9379,-14.88
9390,-17.8
9401,-20.37
9413,-22.68
9425,-24.93
9437,-27.34
9449,-29.99
9461,-32.69
9473,-34.94
9485,-36.03
9497,-35.24
9509,-32.03
9521,-26.26
9533,-18.23
9545,-8.69
9557,1.39
9569,11.05
9580,19.53
9591,26.49
9603,31.95
9615,36.16
9627,39.37
9639,41.72
9651,43.16
9663,43.63
9675,43.13
9687,41.9
9699,40.36
9711,38.94
9723,37.97
9735,37.54
9747,37.5
9759,37.54
9770,37.38
9781,36.79
9793,35.65
9805,33.86
9817,31.32
9829,27.92
9841,23.65
9853,18.62
9865,13.1
9877,7.5
9889,2.15
9901,-2.75
9913,-7.24
9925,-11.52
9937,-15.83
9949,-20.35
9960,-25.03
9971,-29.63
9983,-33.67
9995,-36.63
10007,-37.97
10019,-37.35
10031,-34.69
10043,-30.19
10055,-24.35
10067,-17.83
10079,-11.37
10091,-5.63
10103,-1.13
10115,1.85
10127,3.27
10139,3.35
10150,2.44
10161,0.95
10173,-0.73
10185,-2.35
10197,-3.71
10209,-4.72
10221,-5.27
10233,-5.35
10245,-4.91
10257,-4.01
10269,-2.76
10281,-1.32
10293,0.06
10305,1.14
10317,1.64
10329,1.46
10340,0.63
10351,-0.6
10363,-1.85
10375,-2.75
10387,-3.14
10399,-3.09
10411,-2.92
10423,-3.06
10435,-3.94
10447,-5.83
10459,-8.72
10471,-12.18
10483,-15.31
10495,-16.92
10507,-15.85
10519,-11.42
10530,-3.86
10541,5.67
10553,15.38
10565,23.48
10577,28.79
10589,31.02
10601,30.69
10613,28.59
10625,25.2
10637,20.47
10649,13.79
10661,4.56
10673,-7.38
10685,-21.34
10697,-35.86
10709,-49.02
10720,-59.03
10731,-64.64
10743,-65.48
10755,-62.12
10767,-56.03
10779,-49.29
10791,-44.12
10803,-42.13
10815,-43.46
10827,-46.23
10839,-46.56
10851,-39.5
10863,-20.59
10875,12.28
10887,57.79
10899,111.15
10910,165.45
10921,213.75
10933,251.0
10945,275.07
10957,286.53
10969,287.53
10981,280.53
10993,267.44
11005,249.57
11017,228.1
11029,204.48
11041,180.59
11053,158.3
11065,138.84
11077,122.45
11089,108.32
11100,95.09
11111,81.42
11123,66.41
11135,49.88
11147,32.42
11159,15.34
11171,0.44
11183,-10.26
11195,-15.09
11207,-13.3
11219,-5.5
11231,6.35
11243,19.35
11255,30.43
11267,36.98
11279,37.43
11290,31.27
11301,18.88
11313,1.11
11325,-21.03
11337,-46.4
11349,-73.77
11361,-101.58
11373,-127.99
11385,-151.06
11397,-169.34
11409,-182.35
11421,-191.08
11433,-197.98
11445,-206.41
11457,-219.63
11469,-239.55
11480,-265.73
11491,-295.07
11503,-322.48
11515,-342.31
11527,-350.3
11539,-345.04
11551,-328.5
11563,-305.21
11575,-280.43
11587,-258.18
11599,-240.05
11611,-225.18
11623,-211.34
11635,-196.32
11647,-178.93
11659,-158.99
11670,-136.76
11681,-112.18
11693,-84.83
11705,-54.44
11717,-21.6
11729,11.84
11741,43.01
11753,68.84
11765,86.95
11777,96.19
11789,96.7
11801,89.56
11813,76.61
11825,60.26
11837,43.57
11849,30.02
11860,23.02
11871,25.06
11883,36.85
11895,57.01
11907,82.55
11919,109.89
11931,136.11
11943,159.84
11955,181.23
11967,201.26
11979,220.58
11991,238.63
12003,253.34
12015,261.66
12027,260.69
12039,248.6
12050,225.2
12061,191.72
12073,150.22
12085,103.03
12097,52.52
12109,1.26
12121,-47.62
12133,-90.48
12145,-123.84
12157,-145.29
12169,-154.36
12181,-152.89
12193,-144.46
12205,-133.34
12217,-123.15
12229,-116.02
12240,-112.19
12251,-110.37
12263,-108.4
12275,-104.15
12287,-96.23
12299,-84.39
12311,-69.43
12323,-52.69
12335,-35.38
12347,-18.05
12359,-0.54
12371,17.58
12383,36.42
12395,55.36
12407,73.03
12419,87.83
12430,98.66
12441,105.38
12453,108.76
12465,109.9
12477,109.49
12489,107.28
12501,102.17
12513,92.83
12525,78.48
12537,59.47
12549,37.32
12561,14.24
12573,-7.53
12585,-26.34
12597,-41.4
12609,-52.61
12620,-60.31
12631,-65.14
12643,-67.89
12655,-69.49
12667,-70.94
12679,-73.0
12691,-75.89
12703,-79.13
12715,-81.61
12727,-81.96
12739,-79.02
12751,-72.31
12763,-62.29
12775,-50.36
12787,-38.44
12799,-28.54
12810,-22.25
12821,-20.43
12833,-23.14
12845,-29.69
12857,-38.82
12869,-48.94
12881,-58.43
12893,-65.89
12905,-70.49
12917,-71.98
12929,-70.75
12941,-67.47
12953,-62.87
12965,-57.49
12977,-51.62
12989,-45.47
13000,-39.24
13011,-33.33
13023,-28.27
13035,-24.65
13047,-22.89
13059,-23.09
13071,-24.88
13083,-27.47
13095,-29.72
13107,-30.41
13119,-28.54
13131,-23.61
13143,-15.74
13155,-5.6
13167,5.8
13179,17.43
13190,28.4
13201,38.12
13213,46.16
13225,52.23
13237,56.09
13249,57.64
13261,56.95
13273,54.38
13285,50.44
13297,45.79
13309,40.95
13321,36.28
13333,31.93
13345,27.92
13357,24.24
13369,20.93
13380,18.13
13391,15.97
13403,14.47
13415,13.46
13427,12.51
13439,11.08
13451,8.61
13463,4.74
13475,-0.57
13487,-7.0
13499,-13.85
13511,-20.21
13523,-24.99
13535,-27.22
13547,-26.17
13559,-21.6
13570,-13.84
13581,-3.7
13593,7.73
13605,19.36
13617,30.38
13629,40.25
13641,48.68
13653,55.46
13665,60.35
13677,63.11
13689,63.63
13701,62.01
13713,58.62
13725,54.08
13737,49.1
13749,44.33
13760,40.17
13771,36.7
13783,33.77
13795,31.1
13807,28.47
13819,25.81
13831,23.18
13843,20.68
13855,18.35
13867,15.99
13879,13.23
13891,9.62
13903,4.73
13915,-1.63
13927,-9.35
13939,-17.9
13950,-26.39
13961,-33.66
13973,-38.5
13985,-39.91
13997,-37.38
14009,-31.0
14021,-21.44
14033,-9.73
14045,2.93
14057,15.51
14069,27.24
14081,37.6
14093,46.27
14105,53.0
14117,57.57
14129,59.85
14140,59.96
14151,58.32
14163,55.64
14175,52.77
14187,50.41
14199,48.88
14211,48.07
14223,47.57
14235,46.93
14247,45.88
14259,44.47
14271,42.91
14283,41.45
14295,40.19
14307,38.98
14319,37.57
14330,35.65
14341,33.02
14353,29.73
14365,25.94
14377,21.96
14389,18.05
14401,14.34
14413,10.81
14425,7.32
14437,3.64
14449,-0.52
14461,-5.38
14473,-11.05
14485,-17.38
14497,-23.87
14509,-29.62
14520,-33.51
14531,-34.47
14543,-31.86
14555,-25.69
14567,-16.68
14579,-5.91
14591,5.44
14603,16.47
14615,26.64
14627,35.68
14639,43.38
14651,49.43
14663,53.45
14675,55.09
14687,54.18
14699,50.83
14710,45.39
14721,38.38
14733,30.45
14745,22.28
14757,14.58
14769,8.01
14781,3.08
14793,0.03
14805,-1.24
14817,-1.13
14829,-0.12
14841,1.33
14853,2.98
14865,4.82
14877,6.91
14889,9.33
14900,12.01
14911,14.8
14923,17.48
14935,19.85
14947,21.74
14959,23.06
14971,23.76
14983,23.86
14995,23.4
15007,22.48
15019,21.16
15031,19.44
15043,17.18
15055,14.19
15067,10.19
15079,5.02
15090,-1.32
15101,-8.68
15113,-16.74
15125,-25.15
15137,-33.6
15149,-41.9
15161,-50.0
15173,-57.93
15185,-65.76
15197,-73.43
15209,-80.64
15221,-86.83
15233,-91.18
15245,-92.83
15257,-91.09
15269,-85.68
15280,-76.81
15291,-65.18
15303,-51.79
15315,-37.72
15327,-23.93
15339,-11.12
15351,0.32
15363,10.26
15375,18.72
15387,25.8
15399,31.58
15411,36.12
15423,39.51
15435,41.9
15447,43.52
15459,44.7
15470,45.73
15481,46.91
15493,48.4
15505,50.27
15517,52.5
15529,54.98
15541,57.5
15553,59.76
15565,61.32
15577,61.74
15589,60.64
15601,57.86
15613,53.56
15625,48.1
15637,42.03
15649,35.84
15660,29.84
15671,24.01
15683,18.16
15695,11.96
15707,5.17
15719,-2.23
15731,-9.96
15743,-17.59
15755,-24.58
15767,-30.54
15779,-35.33
15791,-39.02
15803,-41.91
15815,-44.32
15827,-46.6
15839,-49.02
15850,-51.73
15861,-54.76
15873,-57.87
15885,-60.56
15897,-62.12
15909,-61.77
15921,-58.97
15933,-53.58
15945,-46.02
15957,-37.09
15969,-27.73
15981,-18.76
15993,-10.68
16005,-3.68
16017,2.24
16029,7.11
16040,10.93
16051,13.66
16063,15.32
16075,16.04
16087,16.08
16099,15.79
16111,15.57
16123,15.68
16135,16.26
16147,17.23
16159,18.37
16171,19.42
16183,20.19
16195,20.59
16207,20.69
16219,20.64
16230,20.54
16241,20.36
16253,20.0
16265,19.25
16277,17.99
16289,16.2
16301,14.08
16313,11.88
16325,9.88
16337,8.24
16349,6.96
16361,5.89
16373,4.83
16385,3.56
16397,1.97
16409,0.05
16420,-2.15
16431,-4.51
16443,-6.88
16455,-9.12
16467,-11.15
16479,-13.02
16491,-14.92
16503,-17.13
16515,-19.98
16527,-23.63
16539,-28.01
16551,-32.71
16563,-36.95
16575,-39.84
16587,-40.56
16599,-38.63
16610,-34.1
16621,-27.59
16633,-20.05
16645,-12.54
16657,-5.85
16669,-0.41
16681,3.76
16693,6.89
16705,9.22
16717,10.91
16729,12.01
16741,12.52
16753,12.53
16765,12.17
16777,11.69
16789,11.27
16800,11.05
16811,11.06
16823,11.24
16835,11.54
16847,11.92
16859,12.37
16871,12.86
16883,13.35
16895,13.67
16907,13.63
16919,13.02
16931,11.72
16943,9.74
16955,7.2
16967,4.28
16979,1.13
16990,-2.16
17001,-5.54
17013,-9.01
17025,-12.48
17037,-15.8
17049,-18.79
17061,-21.27
17073,-23.14
17085,-24.47
17097,-25.36
17109,-26.05
17121,-26.7
17133,-27.47
17145,-28.46
17157,-29.79
17169,-31.63
17180,-34.17
17191,-37.54
17203,-41.67
17215,-46.2
17227,-50.43
17239,-53.42
17251,-54.26
17263,-52.36
17275,-47.65
17287,-40.64
17299,-32.26
17311,-23.55
17323,-15.32
17335,-8.05
17347,-1.83
17359,3.4
17370,7.78
17381,11.32
17393,14.04
17405,15.97
17417,17.24
17429,18.01
17441,18.41
17453,18.49
17465,18.26
17477,17.75
17489,17.11
17501,16.54
17513,16.24
17525,16.27
17537,16.57
17549,16.98
17560,17.38
17571,17.71
17583,18.02
17595,18.34
17607,18.64
17619,18.79
17631,18.69
17643,18.26
17655,17.53
17667,16.57
17679,15.41
17691,13.98
17703,12.17
17715,9.93
17727,7.33
17739,4.6
17750,2.01
17761,-0.26
17773,-2.28
17785,-4.26
17797,-6.57
17809,-9.52
17821,-13.26
17833,-17.81
17845,-23.02
17857,-28.69
17869,-34.52
17881,-40.1
17893,-44.89
17905,-48.26
17917,-49.71
17929,-49.05
17940,-46.58
17951,-43.1
17963,-39.64
17975,-37.18
17987,-36.24
17999,-36.84
18011,-38.55
18023,-40.77
18035,-43.02
18047,-45.02
18059,-46.73
18071,-48.21
18083,-49.64
18095,-51.28
18107,-53.54
18119,-56.8
18130,-60.96
18141,-65.03
18153,-66.92
18165,-63.71
18177,-52.58
18189,-32.08
18201,-3.04
18213,31.16
18225,65.46
18237,94.62
18249,114.8
18261,124.59
18273,124.9
18285,118.26
18297,107.77
18309,96.33
18320,86.27
18331,79.3
18343,76.44
18355,77.78
18367,82.22
18379,87.54
18391,90.87
18403,89.43
18415,81.43
18427,66.4
18439,45.22
18451,19.67
18463,-7.91
18475,-34.99
18487,-59.08
18499,-78.06
18510,-90.55
18521,-96.21
18533,-95.82
18545,-90.95
18557,-83.3
18569,-74.28
18581,-64.74
18593,-55.13
18605,-45.74
18617,-37.01
18629,-29.4
18641,-23.28
18653,-18.69
18665,-15.36
18677,-12.81
18689,-10.58
18700,-8.38
18711,-6.12
18723,-3.78
18735,-1.41
18747,0.96
18759,3.27
18771,5.4
18783,7.13
18795,8.23
18807,8.49
18819,7.79
18831,6.12
18843,3.61
18855,0.52
18867,-2.83
18879,-6.09
18890,-9.03
18901,-11.53
18913,-13.61
18925,-15.34
18937,-16.81
18949,-18.01
18961,-18.88
18973,-19.34
18985,-19.25
18997,-18.48
19009,-16.89
19021,-14.39
19033,-11.0
19045,-6.86
19057,-2.23
19069,2.64
19080,7.47
19091,12.08
19103,16.29
19115,19.86
19127,22.57
19139,24.24
19151,24.83
19163,24.48
19175,23.47
19187,22.1
19199,20.63
19211,19.24
19223,18.12
19235,17.46
19247,17.45
19259,18.19
19270,19.6
19281,21.48
19293,23.55
19305,25.55
19317,27.32
19329,28.83
19341,30.05
19353,30.9
19365,31.13
19377,30.44
19389,28.51
19401,25.22
19413,20.81
19425,15.8
19437,10.87
19449,6.53
19460,3.01
19471,0.06
19483,-2.77
19495,-5.99
19507,-9.84
19519,-14.15
19531,-18.33
19543,-21.54
19555,-22.88
19567,-21.65
19579,-17.5
19591,-10.64
19603,-1.79
19615,7.94
19627,17.23
19639,24.99
19650,30.47
19661,33.45
19673,34.09
19685,32.74
19697,29.79
19709,25.5
19721,20.1
19733,13.75
19745,6.74
19757,-0.55
19769,-7.65
19781,-14.09
19793,-19.46
19805,-23.48
19817,-26.06
19829,-27.27
19840,-27.31
19851,-26.6
19863,-25.58
19875,-24.76
19887,-24.54
19899,-25.1
19911,-26.37
19923,-28.03
19935,-29.67
19947,-30.97
19959,-31.89
19971,-32.67
19983,-33.75
19995,-35.57
20007,-38.37
20019,-42.0
20030,-45.98
20041,-49.54
20053,-51.79
20065,-51.91
20077,-49.3
20089,-43.78
20101,-35.62
20113,-25.53
20125,-14.47
20137,-3.49
20149,6.54
20161,15.09
20173,21.95
20185,27.18
20197,30.93
20209,33.37
20220,34.64
20231,34.91
20243,34.41
20255,33.45
20267,32.34
20279,31.34
20291,30.6
20303,30.13
20315,29.93
20327,29.92
20339,30.03
20351,30.14
20363,30.08
20375,29.58
20387,28.42
20399,26.42
20410,23.64
20421,20.31
20433,16.76
20445,13.28
20457,9.98
20469,6.71
20481,3.14
20493,-1.05
20505,-6.03
20517,-11.6
20529,-17.14
20541,-21.74
20553,-24.45
20565,-24.56
20577,-21.85
20589,-16.61
20600,-9.52
20611,-1.39
20623,6.98
20635,14.97
20647,22.1
20659,28.02
20671,32.52
20683,35.52
20695,37.14
20707,37.67
20719,37.52
20731,37.06
20743,36.54
20755,36.05
20767,35.55
20779,34.97
20790,34.28
20801,33.52
20813,32.78
20825,32.14
20837,31.57
20849,30.94
20861,30.05
20873,28.68
20885,26.74
20897,24.23
20909,21.31
20921,18.16
20933,14.97
20945,11.82
20957,8.76
20969,5.75
20980,2.74
20991,-0.43
