seconds,BVP
11,3.37
23,-3.27
35,-9.8
47,-16.27
59,-22.61
71,-28.8
83,-35.09
95,-41.93
107,-49.81
119,-58.84
131,-68.36
142,-76.83
153,-82.12
165,-82.21
177,-75.94
189,-63.53
201,-46.57
213,-27.56
225,-9.09
237,6.85
249,19.2
261,27.79
273,32.98
285,35.26
297,35.02
309,32.58
321,28.34
332,22.9
343,17.12
355,11.86
367,7.79
379,5.16
391,3.76
403,3.13
415,2.71
427,2.1
439,1.14
451,-0.1
463,-1.48
475,-2.87
487,-4.27
499,-5.82
511,-7.76
522,-10.35
533,-13.8
545,-18.17
557,-23.45
569,-29.5
581,-36.08
593,-42.76
605,-48.78
617,-53.04
629,-54.17
641,-50.96
653,-42.72
665,-29.64
677,-12.85
689,5.84
701,24.46
712,41.29
723,55.22
735,65.68
747,72.52
759,75.86
771,75.99
783,73.48
795,69.28
807,64.63
819,60.98
831,59.64
843,61.55
855,67.05
867,75.74
879,86.52
891,97.65
902,107.06
913,112.72
925,113.15
937,107.7
949,96.68
961,81.11
973,62.39
985,41.93
997,21.04
1009,0.96
1021,-17.23
1033,-32.76
1045,-45.41
1057,-55.51
1069,-63.68
1081,-70.37
1092,-75.39
1103,-77.93
1115,-76.86
1127,-71.3
1139,-61.07
1151,-46.85
1163,-30.21
1175,-13.35
1187,1.3
1199,11.61
1211,16.39
1223,15.88
1235,11.77
1247,6.72
1259,3.47
1271,3.94
1282,8.73
1293,17.22
1305,27.95
1317,39.02
1329,48.18
1341,52.86
1353,50.31
1365,38.09
1377,14.92
1389,-18.66
1401,-60.11
1413,-105.4
1425,-150.1
1437,-190.48
1449,-224.28
1461,-250.98
1472,-271.44
1483,-287.2
1495,-299.75
1507,-310.04
1519,-318.15
1531,-323.36
1543,-324.32
1555,-319.4
1567,-307.09
1579,-286.41
1591,-257.33
1603,-220.9
1615,-179.16
1627,-134.67
1639,-89.96
1651,-47.07
1662,-7.5
1673,27.56
1685,56.76
1697,78.52
1709,91.36
1721,94.57
1733,89.1
1745,77.95
1757,65.69
1769,57.44
1781,57.27
1793,66.92
1805,85.3
1817,108.87
1829,132.92
1841,153.06
1852,166.3
1863,171.45
1875,168.58
1887,158.19
1899,140.54
1911,115.89
1923,85.19
1935,50.97
1947,17.36
1959,-10.87
1971,-30.04
1983,-39.04
1995,-39.65
2007,-35.56
2019,-30.58
2031,-26.93
2042,-24.81
2053,-22.93
2065,-19.86
2077,-14.95
2089,-8.48
2101,-1.12
2113,6.79
2125,15.47
2137,25.31
2149,36.21
2161,47.09
2173,56.1
2185,61.31
2197,61.69
2209,57.59
2221,50.64
2232,43.0
2243,36.4
2255,31.41
2267,27.3
2279,22.46
2291,15.23
2303,4.63
2315,-9.13
2327,-24.76
2339,-40.31
2351,-53.94
2363,-64.57
2375,-72.26
2387,-78.28
2399,-84.6
2411,-93.34
2422,-105.94
2433,-122.63
2445,-142.05
2457,-161.21
2469,-175.88
2481,-181.4
2493,-173.98
2505,-152.06
2517,-117.35
2529,-74.79
2541,-31.31
2553,6.37
2565,34.0
2577,51.06
2589,60.42
2601,66.5
2612,72.88
2623,80.51
2635,87.5
2647,90.4
2659,86.35
2671,74.83
2683,58.05
2695,39.99
2707,24.67
2719,14.61
2731,10.16
2743,10.12
2755,12.74
2767,16.78
2779,21.75
2791,27.53
2802,33.68
2813,39.01
2825,41.92
2837,41.04
2849,36.05
2861,27.83
2873,18.09
2885,8.39
2897,-0.67
2909,-9.66
2921,-19.89
2933,-32.25
2945,-46.24
2957,-59.5
2969,-68.32
2981,-68.88
2992,-58.75
3003,-37.98
3015,-9.22
3027,22.98
3039,53.59
3051,78.6
3063,95.95
3075,105.88
3087,110.46
3099,112.76
3111,115.78
3123,121.59
3135,130.68
3147,141.72
3159,151.67
3171,156.6
3182,152.77
3193,138.09
3205,113.07
3217,80.97
3229,46.89
3241,16.1
3253,-7.67
3265,-23.21
3277,-31.69
3289,-35.56
3301,-37.18
3313,-37.9
3325,-37.98
3337,-37.15
3349,-35.36
3361,-33.13
3372,-31.39
3383,-31.15
3395,-33.01
3407,-37.16
3419,-43.32
3431,-50.94
3443,-59.14
3455,-66.71
3467,-72.19
3479,-74.09
3491,-71.31
3503,-63.51
3515,-51.36
3527,-36.37
3539,-20.54
3551,-5.83
3562,6.14
3573,14.32
3585,18.26
3597,18.04
3609,14.19
3621,7.55
3633,-0.74
3645,-9.41
3657,-17.13
3669,-22.72
3681,-25.36
3693,-24.77
3705,-21.24
3717,-15.58
3729,-8.72
3741,-1.45
3752,5.91
3763,13.54
3775,21.88
3787,31.21
3799,41.18
3811,50.68
3823,58.04
3835,61.66
3847,60.57
3859,54.83
3871,45.37
3883,33.5
3895,20.4
3907,6.88
3919,-6.39
3931,-18.41
3942,-27.57
3953,-31.9
3965,-29.8
3977,-20.93
3989,-6.62
4001,10.38
4013,26.85
4025,40.14
4037,48.89
4049,53.08
4061,53.5
4073,51.12
4085,46.66
4097,40.5
4109,32.93
4121,24.4
4132,15.65
4143,7.58
4155,0.99
4167,-3.66
4179,-6.45
4191,-7.89
4203,-8.76
4215,-9.79
4227,-11.46
4239,-13.84
4251,-16.68
4263,-19.53
4275,-22.08
4287,-24.25
4299,-26.14
4311,-27.91
4322,-29.52
4333,-30.76
4345,-31.43
4357,-31.72
4369,-32.34
4381,-34.34
4393,-38.54
4405,-44.88
4417,-52.1
4429,-57.94
4441,-59.8
4453,-55.64
4465,-44.62
4477,-27.35
4489,-5.57
4501,18.28
4512,41.67
4523,62.36
4535,78.64
4547,89.44
4559,94.39
4571,93.8
4583,88.71
4595,80.67
4607,71.47
4619,62.81
4631,55.93
4643,51.36
4655,48.95
4667,47.9
4679,47.18
4691,45.78
4702,43.04
4713,38.75
4725,33.17
4737,26.96
4749,20.93
4761,15.77
4773,11.76
4785,8.63
4797,5.57
4809,1.52
4821,-4.51
4833,-13.05
4845,-24.04
4857,-36.82
4869,-50.26
4881,-62.91
4892,-73.2
4903,-79.68
4915,-81.33
4927,-77.85
4939,-69.76
4951,-58.36
4963,-45.48
4975,-33.07
4987,-22.81
4999,-15.86
5011,-12.78
5023,-13.58
5035,-17.87
5047,-24.93
5059,-33.81
5071,-43.3
5082,-51.95
5093,-58.05
5105,-59.87
5117,-56.03
5129,-45.98
5141,-30.35
5153,-10.99
5165,9.36
5177,27.88
5189,42.41
5201,51.98
5213,56.84
5225,58.04
5237,56.84
5249,54.2
5261,50.63
5272,46.23
5283,40.99
5295,34.86
5307,27.8
5319,19.69
5331,10.37
5343,-0.22
5355,-11.66
5367,-22.85
5379,-32.11
5391,-37.6
5403,-37.98
5415,-33.0
5427,-23.65
5439,-11.89
5451,0.02
5462,10.15
5473,17.34
5485,21.29
5497,22.28
5509,20.9
5521,17.73
5533,13.25
5545,7.86
5557,1.83
5569,-4.56
5581,-11.06
5593,-17.32
5605,-22.95
5617,-27.47
5629,-30.47
5641,-31.75
5652,-31.43
5663,-29.93
5675,-27.85
5687,-25.8
5699,-24.23
5711,-23.33
5723,-23.08
5735,-23.31
5747,-23.79
5759,-24.3
5771,-24.63
5783,-24.58
5795,-24.07
5807,-23.15
5819,-22.14
5831,-21.54
5842,-21.83
5853,-23.2
5865,-25.29
5877,-27.05
5889,-26.99
5901,-23.63
5913,-16.06
5925,-4.32
5937,10.52
5949,26.78
5961,42.58
5973,56.42
5985,67.32
5997,74.85
6009,78.96
6021,79.82
6032,77.78
6043,73.38
6055,67.35
6067,60.51
6079,53.63
6091,47.29
6103,41.77
6115,37.15
6127,33.35
6139,30.26
6151,27.73
6163,25.54
6175,23.44
6187,21.11
6199,18.26
6211,14.7
6222,10.42
6233,5.59
6245,0.51
6257,-4.55
6269,-9.41
6281,-14.06
6293,-18.68
6305,-23.57
6317,-29.03
6329,-35.27
6341,-42.27
6353,-49.75
6365,-57.19
6377,-63.89
6389,-69.09
6401,-72.13
6412,-72.58
6423,-70.4
6435,-65.94
6447,-59.89
6459,-53.12
6471,-46.43
6483,-40.47
6495,-35.64
6507,-32.19
6519,-30.26
6531,-29.8
6543,-30.46
6555,-31.42
6567,-31.43
6579,-29.1
6591,-23.38
6602,-13.99
6613,-1.59
6625,12.4
6637,26.25
6649,38.4
6661,47.87
6673,54.32
6685,57.97
6697,59.49
6709,59.71
6721,59.52
6733,59.59
6745,60.22
6757,61.25
6769,62.2
6781,62.46
6792,61.62
6803,59.58
6815,56.5
6827,52.72
6839,48.47
6851,43.85
6863,38.87
6875,33.63
6887,28.44
6899,23.86
6911,20.61
6923,19.32
6935,20.32
6947,23.46
6959,28.09
6971,33.19
6982,37.61
6993,40.38
7005,40.94
7017,39.22
7029,35.54
7041,30.32
7053,23.87
7065,16.22
7077,7.22
7089,-3.24
7101,-14.95
7113,-27.15
7125,-38.63
7137,-48.03
7149,-54.23
7161,-56.81
7172,-56.21
7183,-53.57
7195,-50.41
7207,-48.09
7219,-47.43
7231,-48.43
7243,-50.32
7255,-51.78
7267,-51.23
7279,-47.29
7291,-39.18
7303,-27.08
7315,-12.24
7327,3.28
7339,17.09
7351,27.2
7362,32.56
7373,33.36
7385,30.86
7397,26.94
7409,23.55
7421,22.31
7433,24.13
7445,29.23
7457,37.11
7469,46.78
7481,56.94
7493,66.29
7505,73.74
7517,78.61
7529,80.69
7541,80.09
7552,77.17
7563,72.39
7575,66.15
7587,58.82
7599,50.7
7611,42.01
7623,33.04
7635,24.11
7647,15.6
7659,7.89
7671,1.29
7683,-4.04
7695,-8.08
7707,-11.04
7719,-13.31
7731,-15.42
7742,-17.97
7753,-21.46
7765,-26.12
7777,-31.81
7789,-38.06
7801,-44.24
7813,-49.81
7825,-54.56
7837,-58.65
7849,-62.56
7861,-66.88
7873,-72.1
7885,-78.4
7897,-85.58
7909,-93.04
7921,-99.72
7932,-104.3
7943,-105.35
7955,-101.76
7967,-93.11
7979,-79.99
7991,-63.97
8003,-47.18
8015,-31.68
8027,-18.86
8039,-9.15
8051,-2.2
8063,2.6
8075,5.51
8087,6.16
8099,3.83
8111,-1.98
8122,-10.91
8133,-21.55
8145,-31.79
8157,-39.6
8169,-43.78
8181,-44.32
8193,-42.21
8205,-38.88
8217,-35.53
8229,-32.86
8241,-31.07
8253,-30.0
8265,-29.3
8277,-28.36
8289,-26.24
8301,-21.82
8312,-14.28
8323,-3.57
8335,9.16
8347,21.83
8359,32.07
8371,38.06
8383,39.16
8395,35.99
8407,30.17
8419,23.6
8431,18.06
8443,14.9
8455,14.95
8467,18.61
8479,25.78
8491,35.77
8502,47.34
8513,58.86
8525,68.64
8537,75.33
8549,78.12
8561,76.83
8573,71.72
8585,63.33
8597,52.33
8609,39.43
8621,25.44
8633,11.23
8645,-2.23
8657,-14.04
8669,-23.46
8681,-30.07
8692,-33.86
8703,-35.16
8715,-34.66
8727,-33.19
8739,-31.52
8751,-30.07
8763,-28.71
8775,-26.72
8787,-23.09
8799,-17.03
8811,-8.43
8823,1.88
8835,12.32
8847,21.06
8859,26.75
8871,28.75
8882,27.25
8893,22.8
8905,15.99
8917,7.36
8929,-2.35
8941,-11.92
8953,-19.56
8965,-23.35
8977,-21.95
8989,-15.26
9001,-4.58
9013,7.87
9025,19.69
9037,29.15
9049,35.44
9061,38.61
9072,39.09
9083,37.3
9095,33.49
9107,27.87
9119,20.83
9131,13.05
9143,5.39
9155,-1.38
9167,-6.79
9179,-10.79
9191,-13.67
9203,-15.85
9215,-17.67
9227,-19.3
9239,-20.69
9251,-21.71
9262,-22.19
9273,-21.97
9285,-20.97
9297,-19.16
9309,-16.59
9321,-13.45
9333,-10.06
9345,-6.85
9357,-4.26
9369,-2.71
9381,-2.55
9393,-4.06
9405,-7.45
9417,-12.79
9429,-19.94
9441,-28.37
9452,-37.09
9463,-44.62
9475,-49.3
9487,-49.72
9499,-45.16
9511,-35.93
9523,-23.35
9535,-9.32
9547,4.21
9559,15.77
9571,24.69
9583,30.99
9595,35.06
9607,37.34
9619,38.07
9631,37.28
9642,35.0
9653,31.45
9665,27.28
9677,23.56
9689,21.67
9701,23.09
9713,29.0
9725,39.97
9737,55.72
9749,75.08
9761,96.18
9773,116.91
9785,135.09
9797,148.67
9809,155.76
9821,154.74
9832,144.73
9843,126.23
9855,101.58
9867,74.69
9879,50.11
9891,31.48
9903,20.34
9915,15.67
9927,14.51
9939,13.22
9951,8.85
9963,-0.1
9975,-13.59
9987,-30.3
9999,-48.15
10011,-64.54
10022,-76.71
10033,-82.17
10045,-79.31
10057,-68.04
10069,-49.96
10081,-28.12
10093,-6.09
10105,12.89
10117,26.75
10129,34.81
10141,37.61
10153,36.4
10165,32.61
10177,27.42
10189,21.56
10201,15.41
10212,9.05
10223,2.5
10235,-4.12
10247,-10.54
10259,-16.34
10271,-21.03
10283,-24.24
10295,-25.82
10307,-25.94
10319,-24.91
10331,-23.03
10343,-20.31
10355,-16.47
10367,-10.99
10379,-3.49
10391,6.09
10402,17.35
10413,29.56
10425,41.81
10437,52.99
10449,61.67
10461,65.93
10473,63.65
10485,53.25
10497,34.58
10509,9.53
10521,-18.37
10533,-45.25
10545,-68.42
10557,-87.53
10569,-104.47
10581,-122.21
10592,-143.18
10603,-168.01
10615,-195.19
10627,-221.57
10639,-243.44
10651,-257.59
10663,-262.04
10675,-256.36
10687,-241.73
10699,-220.64
10711,-196.38
10723,-172.25
10735,-150.8
10747,-133.24
10759,-119.35
10771,-107.87
10782,-97.11
10793,-85.68
10805,-72.8
10817,-58.38
10829,-42.74
10841,-26.44
10853,-9.97
10865,6.22
10877,21.74
10889,36.28
10901,49.67
10913,62.03
10925,73.74
10937,85.32
10949,97.11
10961,108.93
10972,119.89
10983,128.55
10995,133.29
11007,132.94
11019,127.19
11031,116.79
11043,103.3
11055,88.63
11067,74.39
11079,61.57
11091,50.38
11103,40.5
11115,31.35
11127,22.4
11139,13.33
11151,4.1
11162,-4.97
11173,-13.06
11185,-18.85
11197,-20.62
11209,-16.73
11221,-6.16
11233,10.88
11245,32.7
11257,56.41
11269,78.52
11281,95.82
11293,106.12
11305,108.61
11317,103.77
11329,93.0
11341,78.16
11352,61.13
11363,43.67
11375,27.22
11387,12.9
11399,1.4
11411,-7.12
11423,-13.03
11435,-17.05
11447,-19.94
11459,-22.28
11471,-24.3
11483,-25.85
11495,-26.68
11507,-26.54
11519,-25.42
11531,-23.54
11542,-21.36
11553,-19.44
11565,-18.3
11577,-18.26
11589,-19.45
11601,-21.73
11613,-24.85
11625,-28.57
11637,-32.73
11649,-37.29
11661,-42.3
11673,-47.89
11685,-54.19
11697,-61.33
11709,-69.31
11721,-77.78
11732,-85.96
11743,-92.49
11755,-95.71
11767,-94.1
11779,-86.85
11791,-74.18
11803,-57.41
11815,-38.63
11827,-20.11
11839,-3.88
11851,8.57
11863,16.24
11875,18.52
11887,15.1
11899,6.07
11911,-7.95
11922,-25.61
11933,-44.93
11945,-63.58
11957,-79.34
11969,-90.65
11981,-96.78
11993,-97.92
12005,-94.82
12017,-88.52
12029,-80.08
12041,-70.44
12053,-60.5
12065,-51.14
12077,-43.17
12089,-37.19
12101,-33.39
12112,-31.53
12123,-31.05
12135,-31.26
12147,-31.7
12159,-32.23
12171,-33.05
12183,-34.57
12195,-37.23
12207,-41.4
12219,-47.19
12231,-54.39
12243,-62.23
12255,-69.42
12267,-74.17
12279,-74.61
12291,-69.28
12302,-57.69
12313,-40.56
12325,-19.71
12337,2.42
12349,23.42
12361,41.51
12373,55.76
12385,66.1
12397,73.0
12409,77.07
12421,78.83
12433,78.54
12445,76.31
12457,72.27
12469,66.7
12481,60.11
12492,53.15
12503,46.58
12515,41.24
12527,38.03
12539,37.85
12551,41.41
12563,49.0
12575,60.13
12587,73.49
12599,87.17
12611,99.12
12623,107.77
12635,112.35
12647,112.95
12659,110.26
12671,105.14
12682,98.27
12693,90.09
12705,80.76
12717,70.41
12729,59.25
12741,47.75
12753,36.68
12765,27.08
12777,20.1
12789,16.66
12801,17.24
12813,21.65
12825,29.08
12837,38.3
12849,47.8
12861,56.21
12872,62.34
12883,65.46
12895,65.27
12907,62.01
12919,56.35
12931,49.33
12943,42.24
12955,36.4
12967,32.93
12979,32.44
12991,34.81
13003,39.22
13015,44.36
13027,48.87
13039,51.82
13051,52.93
13062,52.44
13073,50.8
13085,48.26
13097,44.75
13109,40.03
13121,34.02
13133,26.98
13145,19.51
13157,12.26
13169,5.55
13181,-0.78
13193,-7.31
13205,-14.76
13217,-23.61
13229,-33.98
13241,-45.42
13252,-57.04
13263,-67.61
13275,-75.73
13287,-80.12
13299,-79.86
13311,-74.68
13323,-65.08
13335,-52.24
13347,-37.77
13359,-23.34
13371,-10.29
13383,0.52
13395,8.73
13407,14.29
13419,17.27
13431,17.74
13442,15.86
13453,12.08
13465,7.2
13477,2.35
13489,-1.37
13501,-3.17
13513,-2.82
13525,-0.55
13537,3.16
13549,7.97
13561,13.75
13573,20.49
13585,28.02
13597,35.87
13609,43.27
13621,49.43
13632,53.86
13643,56.59
13655,58.05
13667,58.91
13679,59.69
13691,60.5
13703,60.94
13715,60.15
13727,57.03
13739,50.52
13751,39.89
13763,25.06
13775,6.66
13787,-13.82
13799,-34.28
13811,-52.22
13822,-65.29
13833,-71.82
13845,-71.3
13857,-64.59
13869,-53.76
13881,-41.42
13893,-29.98
13905,-20.9
13917,-14.48
13929,-10.04
13941,-6.41
13953,-2.46
13965,2.58
13977,9.06
13989,16.99
14001,26.17
14012,36.16
14023,46.19
14035,55.22
14047,62.09
14059,65.91
14071,66.45
14083,64.22
14095,60.31
14107,55.93
14119,51.88
14131,48.26
14143,44.55
14155,39.87
14167,33.51
14179,25.3
14191,15.65
14202,5.43
14213,-4.41
14225,-13.14
14237,-20.46
14249,-26.56
14261,-31.9
14273,-37.14
14285,-42.89
14297,-49.69
14309,-57.84
14321,-67.26
14333,-77.32
14345,-86.7
14357,-93.47
14369,-95.55
14381,-91.31
14392,-80.28
14403,-63.48
14415,-43.19
14427,-22.26
14439,-3.21
14451,12.38
14463,24.09
14475,32.36
14487,37.94
14499,41.56
14511,43.8
14523,45.17
14535,46.28
14547,47.77
14559,50.12
14571,53.52
14582,57.77
14593,62.41
14605,66.88
14617,70.69
14629,73.46
14641,74.9
14653,74.81
14665,73.18
14677,70.11
14689,65.8
14701,60.39
14713,53.88
14725,46.17
14737,37.24
14749,27.39
14761,17.3
14772,7.83
14783,-0.26
14795,-6.59
14807,-11.32
14819,-14.98
14831,-18.21
14843,-21.62
14855,-25.63
14867,-30.52
14879,-36.4
14891,-43.11
14903,-50.15
14915,-56.55
14927,-61.06
14939,-62.48
14951,-60.07
14962,-53.92
14973,-44.97
14985,-34.68
14997,-24.65
15009,-16.08
15021,-9.53
15033,-5.02
15045,-2.23
15057,-0.81
15069,-0.54
15081,-1.34
15093,-3.12
15105,-5.67
15117,-8.61
15129,-11.55
15141,-14.19
15152,-16.47
15163,-18.54
15175,-20.63
15187,-22.88
15199,-25.23
15211,-27.45
15223,-29.24
15235,-30.38
15247,-30.91
15259,-31.1
15271,-31.36
15283,-32.05
15295,-33.29
15307,-34.96
15319,-36.75
15331,-38.4
15342,-39.83
15353,-41.24
15365,-43.01
15377,-45.57
15389,-49.23
15401,-54.12
15413,-60.1
15425,-66.76
15437,-73.29
15449,-78.54
15461,-81.07
15473,-79.49
15485,-72.93
15497,-61.41
15509,-46.03
15521,-28.69
15532,-11.5
15543,3.85
15555,16.61
15567,26.93
15579,35.48
15591,42.93
15603,49.6
15615,55.45
15627,60.24
15639,63.87
15651,66.47
15663,68.23
15675,69.28
15687,69.48
15699,68.56
15711,66.29
15722,62.79
15733,58.51
15745,54.16
15757,50.29
15769,47.12
15781,44.38
15793,41.48
15805,37.79
15817,32.94
15829,26.99
15841,20.41
15853,13.85
15865,7.89
15877,2.75
15889,-1.81
15901,-6.41
15912,-11.81
15923,-18.69
15935,-27.4
15947,-37.89
15959,-49.64
15971,-61.68
15983,-72.65
15995,-80.99
16007,-85.26
16019,-84.54
16031,-78.77
16043,-68.91
16055,-56.66
16067,-44.0
16079,-32.6
16091,-23.42
16102,-16.7
16113,-12.15
16125,-9.35
16137,-7.99
16149,-7.9
16161,-8.83
16173,-10.34
16185,-11.73
16197,-12.23
16209,-11.35
16221,-9.1
16233,-5.98
16245,-2.74
16257,-0.03
16269,1.83
16281,2.98
16292,3.75
16303,4.42
16315,5.06
16327,5.47
16339,5.33
16351,4.42
16363,2.78
16375,0.72
16387,-1.25
16399,-2.65
16411,-3.17
16423,-2.81
16435,-1.91
16447,-1.14
16459,-1.34
16471,-3.32
16482,-7.67
16493,-14.42
16505,-22.9
16517,-31.68
16529,-38.85
16541,-42.53
16553,-41.44
16565,-35.4
16577,-25.36
16589,-13.16
16601,-0.92
16613,9.64
16625,17.46
16637,22.19
16649,23.93
16661,22.93
16672,19.42
16683,13.69
16695,6.2
16707,-2.32
16719,-10.96
16731,-18.76
16743,-24.97
16755,-29.11
16767,-31.04
16779,-30.85
16791,-28.72
16803,-24.92
16815,-19.68
16827,-13.28
16839,-6.0
16851,1.76
16862,9.49
16873,16.58
16885,22.42
16897,26.58
16909,28.94
16921,29.71
16933,29.38
16945,28.49
16957,27.51
16969,26.65
16981,25.85
16993,24.9
17005,23.52
17017,21.47
17029,18.54
17041,14.63
17052,9.75
17063,4.1
17075,-1.82
17087,-7.22
17099,-11.13
17111,-12.68
17123,-11.41
17135,-7.52
17147,-1.9
17159,4.13
17171,9.15
17183,12.04
17195,12.2
17207,9.58
17219,4.55
17231,-2.28
17242,-10.25
17253,-18.72
17265,-27.11
17277,-34.87
17289,-41.5
17301,-46.59
17313,-49.86
17325,-51.29
17337,-51.12
17349,-49.77
17361,-47.72
17373,-45.4
17385,-43.09
17397,-40.94
17409,-39.1
17421,-37.83
17432,-37.51
17443,-38.49
17455,-40.94
17467,-44.68
17479,-49.18
17491,-53.67
17503,-57.43
17515,-59.99
17527,-61.31
17539,-61.75
17551,-61.85
17563,-62.12
17575,-62.8
17587,-63.78
17599,-64.64
17611,-64.68
17622,-62.98
17633,-58.51
17645,-50.21
17657,-37.33
17669,-19.68
17681,2.1
17693,26.51
17705,51.48
17717,74.85
17729,94.84
17741,110.38
17753,121.05
17765,126.86
17777,127.97
17789,124.57
17801,116.93
17812,105.57
17823,91.4
17835,75.69
17847,59.83
17859,45.02
17871,32.04
17883,21.14
17895,12.25
17907,5.15
17919,-0.28
17931,-4.08
17943,-6.28
17955,-7.18
17967,-7.33
17979,-7.5
17991,-8.42
18002,-10.48
18013,-13.64
18025,-17.49
18037,-21.5
18049,-25.24
18061,-28.62
18073,-31.75
18085,-34.84
18097,-37.92
18109,-40.85
18121,-43.3
18133,-44.92
18145,-45.39
18157,-44.38
18169,-41.44
18181,-35.91
18192,-27.09
18203,-14.51
18215,1.73
18227,20.8
18239,41.21
18251,61.27
18263,79.49
18275,94.95
18287,107.36
18299,116.8
18311,123.47
18323,127.51
18335,128.99
18347,128.14
18359,125.42
18371,121.66
18382,117.72
18393,114.34
18405,111.74
18417,109.61
18429,107.19
18441,103.58
18453,98.1
18465,90.46
18477,80.88
18489,69.83
18501,57.94
18513,45.66
18525,33.26
18537,20.83
18549,8.47
18561,-3.59
18572,-15.0
18583,-25.44
18595,-34.81
18607,-43.35
18619,-51.63
18631,-60.35
18643,-70.04
18655,-80.95
18667,-92.93
18679,-105.49
18691,-117.76
18703,-128.55
18715,-136.37
18727,-139.65
18739,-137.19
18751,-128.53
18762,-114.35
18773,-96.37
18785,-76.84
18797,-57.99
18809,-41.32
18821,-27.42
18833,-16.14
18845,-6.98
18857,0.47
18869,6.42
18881,10.99
18893,14.4
18905,17.16
18917,19.96
18929,23.46
18941,28.01
18952,33.49
18963,39.42
18975,45.15
18987,50.2
18999,54.36
19011,57.76
19023,60.67
19035,63.35
19047,65.9
19059,68.2
19071,69.97
19083,70.86
19095,70.6
19107,69.1
19119,66.45
19131,62.89
19142,58.74
19153,54.22
19165,49.44
19177,44.37
19189,38.83
19201,32.47
19213,24.82
19225,15.29
19237,3.39
19249,-10.97
19261,-27.18
19273,-43.84
19285,-58.91
19297,-70.21
19309,-76.1
19321,-76.02
19332,-70.61
19343,-61.53
19355,-50.79
19367,-40.21
19379,-31.04
19391,-23.88
19403,-18.88
19415,-16.01
19427,-15.19
19439,-16.31
19451,-19.07
19463,-22.91
19475,-27.01
19487,-30.43
19499,-32.46
19511,-32.8
19522,-31.69
19533,-29.77
19545,-27.81
19557,-26.38
19569,-25.63
19581,-25.21
19593,-24.48
19605,-22.76
19617,-19.57
19629,-14.92
19641,-9.2
19653,-3.08
19665,2.75
19677,7.81
19689,11.9
19701,15.11
19712,17.7
19723,19.87
19735,21.69
19747,22.96
19759,23.26
19771,22.04
19783,18.85
19795,13.51
19807,6.27
19819,-2.07
19831,-10.23
19843,-16.64
19855,-19.87
19867,-19.04
19879,-14.13
19891,-6.04
19902,3.78
19913,13.66
19925,22.24
19937,28.66
19949,32.47
19961,33.53
19973,31.82
19985,27.39
19997,20.51
20009,11.77
20021,2.09
20033,-7.49
20045,-16.07
20057,-23.13
20069,-28.6
20081,-32.75
20092,-35.91
20103,-38.36
20115,-40.17
20127,-41.26
20139,-41.5
20151,-40.86
20163,-39.51
20175,-37.81
20187,-36.25
20199,-35.27
20211,-35.16
20223,-35.95
20235,-37.42
20247,-39.23
20259,-41.02
20271,-42.58
20282,-43.89
20293,-45.09
20305,-46.39
20317,-47.96
20329,-49.81
20341,-51.78
20353,-53.53
20365,-54.46
20377,-53.77
20389,-50.49
20401,-43.72
20413,-32.95
20425,-18.31
20437,-0.69
20449,18.46
20461,37.53
20472,55.13
20483,70.33
20495,82.64
20507,91.8
20519,97.66
20531,100.11
20543,99.27
20555,95.62
20567,90.02
20579,83.51
20591,76.98
20603,70.9
20615,65.25
20627,59.62
20639,53.43
20651,46.24
20662,37.84
20673,28.28
20685,17.85
20697,6.89
20709,-4.26
20721,-15.37
20733,-26.3
20745,-37.01
20757,-47.37
20769,-57.1
20781,-65.79
20793,-72.92
20805,-78.07
20817,-81.16
20829,-82.48
20841,-82.73
20852,-82.78
20863,-83.4
20875,-84.95
20887,-87.13
20899,-88.96
20911,-88.95
20923,-85.53
20935,-77.49
20947,-64.46
20959,-47.03
20971,-26.58
20983,-4.87
20995,16.4
