seconds,BVP
8,20.41
20,16.64
31,12.7
42,8.92
54,5.55
66,2.73
78,0.44
90,-1.43
102,-3.06
114,-4.66
126,-6.43
138,-8.46
150,-10.78
162,-13.3
174,-15.88
186,-18.44
198,-20.89
210,-23.25
221,-25.57
232,-28.04
244,-30.86
256,-34.28
268,-38.31
280,-42.68
292,-46.68
304,-49.29
316,-49.54
328,-46.81
340,-41.13
352,-33.18
364,-24.05
376,-14.8
388,-6.14
400,1.68
411,8.78
422,15.37
434,21.54
446,27.15
458,32.0
470,35.89
482,38.82
494,40.93
506,42.41
518,43.42
530,44.0
542,44.11
554,43.8
566,43.16
578,42.42
590,41.8
601,41.47
612,41.42
624,41.5
636,41.46
648,41.08
660,40.21
672,38.8
684,36.87
696,34.54
708,31.94
720,29.23
732,26.52
744,23.89
756,21.31
768,18.65
780,15.77
791,12.58
802,9.07
814,5.36
826,1.64
838,-1.92
850,-5.22
862,-8.26
874,-11.12
886,-13.98
898,-17.05
910,-20.64
922,-25.0
934,-30.25
946,-36.2
958,-42.22
970,-47.31
981,-50.3
992,-50.24
1004,-46.7
1016,-39.98
1028,-30.97
1040,-20.86
1052,-10.81
1064,-1.6
1076,6.39
1088,13.1
1100,18.66
1112,23.22
1124,26.92
1136,29.84
1148,32.07
1160,33.69
1171,34.77
1182,35.4
1194,35.67
1206,35.71
1218,35.61
1230,35.47
1242,35.33
1254,35.2
1266,35.09
1278,35.07
1290,35.16
1302,35.36
1314,35.58
1326,35.58
1338,35.14
1350,34.06
1361,32.33
1372,30.05
1384,27.38
1396,24.48
1408,21.48
1420,18.45
1432,15.47
1444,12.63
1456,9.92
1468,7.3
1480,4.58
1492,1.55
1504,-1.87
1516,-5.61
1528,-9.41
1540,-12.94
1551,-16.01
1562,-18.62
1574,-21.04
1586,-23.65
1598,-26.87
1610,-30.94
1622,-35.87
1634,-41.37
1646,-46.8
1658,-51.28
1670,-53.8
1682,-53.53
1694,-50.06
1706,-43.56
1718,-34.78
1730,-24.81
1741,-14.77
1752,-5.52
1764,2.45
1776,9.01
1788,14.28
1800,18.43
1812,21.63
1824,23.97
1836,25.51
1848,26.33
1860,26.51
1872,26.24
1884,25.76
1896,25.3
1908,25.03
1920,24.97
1931,25.01
1942,25.0
1954,24.87
1966,24.63
1978,24.39
1990,24.17
2002,23.83
2014,23.04
2026,21.47
2038,19.0
2050,15.77
2062,12.23
2074,8.85
2086,6.04
2098,3.85
2110,2.07
2121,0.31
2132,-1.75
2144,-4.26
2156,-7.18
2168,-10.32
2180,-13.44
2192,-16.33
2204,-18.9
2216,-21.19
2228,-23.41
2240,-25.91
2252,-29.05
2264,-33.04
2276,-37.71
2288,-42.46
2300,-46.33
2311,-48.26
2322,-47.41
2334,-43.49
2346,-36.85
2358,-28.35
2370,-19.09
2382,-10.09
2394,-2.07
2406,4.7
2418,10.23
2430,14.74
2442,18.41
2454,21.36
2466,23.64
2478,25.24
2490,26.22
2501,26.73
2512,26.96
2524,27.07
2536,27.17
2548,27.26
2560,27.29
2572,27.24
2584,27.12
2596,27.02
2608,27.01
2620,27.08
2632,27.1
2644,26.84
2656,26.09
2668,24.7
2680,22.66
2691,20.12
2702,17.3
2714,14.42
2726,11.66
2738,9.03
2750,6.48
2762,3.86
2774,1.0
2786,-2.16
2798,-5.58
2810,-9.11
2822,-12.53
2834,-15.7
2846,-18.56
2858,-21.25
2870,-23.98
2881,-27.05
2892,-30.7
2904,-35.1
2916,-40.23
2928,-45.76
2940,-51.03
2952,-55.09
2964,-56.93
2976,-55.77
2988,-51.38
3000,-44.17
3012,-35.08
3024,-25.27
3036,-15.7
3048,-6.99
3060,0.68
3071,7.37
3082,13.21
3094,18.24
3106,22.41
3118,25.68
3130,28.08
3142,29.71
3154,30.73
3166,31.29
3178,31.5
3190,31.46
3202,31.26
3214,30.98
3226,30.68
3238,30.4
3250,30.16
3261,29.95
3272,29.77
3284,29.55
3296,29.23
3308,28.65
3320,27.68
3332,26.21
3344,24.25
3356,21.85
3368,19.19
3380,16.4
3392,13.61
3404,10.86
3416,8.14
3428,5.37
3440,2.49
3451,-0.6
3462,-3.92
3474,-7.38
3486,-10.81
3498,-14.04
3510,-16.91
3522,-19.45
3534,-21.85
3546,-24.43
3558,-27.57
3570,-31.57
3582,-36.55
3594,-42.32
3606,-48.34
3618,-53.71
3630,-57.35
3641,-58.28
3652,-55.92
3664,-50.28
3676,-42.06
3688,-32.33
3700,-22.26
3712,-12.75
3724,-4.33
3736,2.83
3748,8.79
3760,13.67
3772,17.56
3784,20.61
3796,22.96
3808,24.79
3820,26.27
3831,27.47
3842,28.41
3854,29.04
3866,29.35
3878,29.39
3890,29.3
3902,29.24
3914,29.28
3926,29.39
3938,29.48
3950,29.39
3962,29.02
3974,28.3
3986,27.28
3998,26.01
4010,24.58
4021,23.04
4032,21.4
4044,19.6
4056,17.6
4068,15.38
4080,12.97
4092,10.49
4104,8.03
4116,5.62
4128,3.18
4140,0.55
4152,-2.41
4164,-5.7
4176,-9.2
4188,-12.66
4200,-15.87
4211,-18.71
4222,-21.3
4234,-23.89
4246,-26.78
4258,-30.26
4270,-34.46
4282,-39.39
4294,-44.81
4306,-50.22
4318,-54.87
4330,-57.82
4342,-58.2
4354,-55.49
4366,-49.73
4378,-41.59
4390,-32.16
4401,-22.58
4412,-13.71
4424,-5.96
4436,0.69
4448,6.41
4460,11.41
4472,15.73
4484,19.3
4496,22.05
4508,24.0
4520,25.27
4532,26.04
4544,26.52
4556,26.85
4568,27.14
4580,27.44
4591,27.72
4602,27.91
4614,27.92
4626,27.66
4638,27.15
4650,26.47
4662,25.76
4674,25.06
4686,24.28
4698,23.23
4710,21.72
4722,19.71
4734,17.31
4746,14.82
4758,12.52
4770,10.53
4781,8.7
4792,6.73
4804,4.31
4816,1.3
4828,-2.17
4840,-5.78
4852,-9.19
4864,-12.23
4876,-14.92
4888,-17.49
4900,-20.22
4912,-23.3
4924,-26.86
4936,-30.96
4948,-35.61
4960,-40.8
4971,-46.36
4982,-51.77
4994,-56.18
5006,-58.57
5018,-58.01
5030,-54.12
5042,-47.18
5054,-38.07
5066,-28.0
5078,-18.07
5090,-8.99
5102,-1.02
5114,5.91
5126,11.94
5138,17.12
5150,21.34
5161,24.49
5172,26.5
5184,27.54
5196,27.96
5208,28.18
5220,28.54
5232,29.17
5244,29.99
5256,30.8
5268,31.38
5280,31.61
5292,31.53
5304,31.22
5316,30.76
5328,30.16
5340,29.34
5351,28.26
5362,26.89
5374,25.26
5386,23.45
5398,21.52
5410,19.47
5422,17.3
5434,14.97
5446,12.55
5458,10.11
5470,7.71
5482,5.43
5494,3.24
5506,1.02
5518,-1.36
5530,-4.05
5541,-7.07
5552,-10.38
5564,-13.81
5576,-17.19
5588,-20.37
5600,-23.34
5612,-26.19
5624,-29.14
5636,-32.47
5648,-36.51
5660,-41.43
5672,-47.16
5684,-53.23
5696,-58.73
5708,-62.52
5720,-63.52
5731,-61.12
5742,-55.33
5754,-46.89
5766,-36.96
5778,-26.72
5790,-17.1
5802,-8.54
5814,-1.09
5826,5.43
5838,11.23
5850,16.4
5862,20.92
5874,24.66
5886,27.54
5898,29.58
5910,30.88
5921,31.63
5932,32.03
5944,32.21
5956,32.24
5968,32.16
5980,32.04
5992,32.02
6004,32.24
6016,32.73
6028,33.35
6040,33.8
6052,33.75
6064,32.98
6076,31.49
6088,29.52
6100,27.41
6111,25.4
6122,23.57
6134,21.79
6146,19.89
6158,17.67
6170,15.12
6182,12.36
6194,9.58
6206,6.96
6218,4.57
6230,2.34
6242,0.1
6254,-2.38
6266,-5.26
6278,-8.58
6290,-12.19
6301,-15.87
6312,-19.39
6324,-22.59
6336,-25.51
6348,-28.34
6360,-31.38
6372,-34.97
6384,-39.37
6396,-44.62
6408,-50.46
6420,-56.24
6432,-61.03
6444,-63.74
6456,-63.53
6468,-59.95
6480,-53.17
6491,-43.93
6502,-33.31
6514,-22.46
6526,-12.29
6538,-3.32
6550,4.31
6562,10.69
6574,16.0
6586,20.38
6598,23.88
6610,26.57
6622,28.55
6634,30.0
6646,31.13
6658,32.09
6670,32.9
6681,33.45
6692,33.64
6704,33.45
6716,33.03
6728,32.64
6740,32.48
6752,32.59
6764,32.8
6776,32.82
6788,32.37
6800,31.32
6812,29.72
6824,27.79
6836,25.71
6848,23.62
6860,21.54
6871,19.42
6882,17.19
6894,14.82
6906,12.35
6918,9.86
6930,7.45
6942,5.19
6954,3.06
6966,0.96
6978,-1.29
6990,-3.86
7002,-6.85
7014,-10.24
7026,-13.86
7038,-17.47
7050,-20.89
7061,-24.05
7072,-27.0
7084,-29.91
7096,-32.99
7108,-36.47
7120,-40.54
7132,-45.25
7144,-50.42
7156,-55.51
7168,-59.62
7180,-61.69
7192,-60.86
7204,-56.74
7216,-49.66
7228,-40.51
7240,-30.46
7251,-20.59
7262,-11.63
7274,-3.91
7286,2.54
7298,7.82
7310,12.07
7322,15.41
7334,17.93
7346,19.73
7358,20.92
7370,21.63
7382,22.02
7394,22.23
7406,22.39
7418,22.58
7430,22.79
7441,22.95
7452,23.0
7464,22.92
7476,22.79
7488,22.72
7500,22.76
7512,22.85
7524,22.81
7536,22.4
7548,21.44
7560,19.85
7572,17.7
7584,15.18
7596,12.58
7608,10.11
7620,7.89
7631,5.94
7642,4.12
7654,2.21
7666,0.05
7678,-2.46
7690,-5.28
7702,-8.28
7714,-11.33
7726,-14.3
7738,-17.23
7750,-20.21
7762,-23.46
7774,-27.17
7786,-31.56
7798,-36.79
7810,-42.82
7821,-49.38
7832,-55.8
7844,-61.08
7856,-64.14
7868,-64.04
7880,-60.4
7892,-53.53
7904,-44.31
7916,-33.99
7928,-23.76
7940,-14.44
7952,-6.45
7964,0.25
7976,5.9
7988,10.8
8000,15.19
8011,19.19
8022,22.88
8034,26.29
8046,29.49
8058,32.57
8070,35.6
8082,38.65
8094,41.7
8106,44.71
8118,47.62
8130,50.37
8142,52.94
8154,55.34
8166,57.52
8178,59.38
8190,60.74
8201,61.43
8212,61.23
8224,60.02
8236,57.75
8248,54.5
8260,50.46
8272,45.96
8284,41.32
8296,36.79
8308,32.47
8320,28.26
8332,23.97
8344,19.35
8356,14.26
8368,8.71
8380,2.88
8391,-2.93
8402,-8.38
8414,-13.23
8426,-17.43
8438,-21.09
8450,-24.53
8462,-28.16
8474,-32.34
8486,-37.31
8498,-43.08
8510,-49.31
8522,-55.32
8534,-60.16
8546,-62.79
8558,-62.38
8570,-58.56
8581,-51.6
8592,-42.38
8604,-32.13
8616,-22.04
8628,-12.94
8640,-5.14
8652,1.49
8664,7.29
8676,12.5
8688,17.19
8700,21.2
8712,24.34
8724,26.49
8736,27.76
8748,28.36
8760,28.57
8771,28.58
8782,28.48
8794,28.27
8806,27.95
8818,27.59
8830,27.29
8842,27.14
8854,27.14
8866,27.17
8878,27.04
8890,26.55
8902,25.58
8914,24.12
8926,22.24
8938,20.1
8950,17.84
8961,15.57
8972,13.38
8984,11.34
8996,9.48
9008,7.82
9020,6.32
9032,4.84
9044,3.24
9056,1.31
9068,-1.04
9080,-3.82
9092,-6.92
9104,-10.16
9116,-13.37
9128,-16.45
9140,-19.4
9151,-22.28
9162,-25.25
9174,-28.49
9186,-32.26
9198,-36.76
9210,-41.96
9222,-47.45
9234,-52.37
9246,-55.57
9258,-55.95
9270,-52.85
9282,-46.36
9294,-37.29
9306,-26.87
9318,-16.3
9330,-6.45
9341,2.31
9352,10.02
9364,16.81
9376,22.77
9388,27.83
9400,31.89
9412,34.88
9424,36.93
9436,38.28
9448,39.22
9460,39.99
9472,40.68
9484,41.27
9496,41.67
9508,41.83
9520,41.74
9531,41.46
9542,41.08
9554,40.66
9566,40.17
9578,39.5
9590,38.49
9602,36.96
9614,34.81
9626,32.03
9638,28.71
9650,25.03
9662,21.21
9674,17.42
9686,13.79
9698,10.3
9710,6.89
9721,3.4
9732,-0.28
9744,-4.15
9756,-8.14
9768,-12.08
9780,-15.8
9792,-19.23
9804,-22.43
9816,-25.61
9828,-29.1
9840,-33.24
9852,-38.26
9864,-44.26
9876,-51.03
9888,-58.02
9900,-64.34
9911,-68.99
9922,-71.04
9934,-69.96
9946,-65.75
9958,-58.98
9970,-50.58
9982,-41.58
9994,-32.88
10006,-25.04
10018,-18.33
10030,-12.78
10042,-8.33
10054,-4.87
10066,-2.33
10078,-0.59
10090,0.5
10101,1.15
10112,1.55
10124,1.85
10136,2.16
10148,2.52
10160,2.93
10172,3.41
10184,3.99
10196,4.71
10208,5.57
10220,6.53
10232,7.44
10244,8.04
10256,8.04
10268,7.2
10280,5.46
10291,2.97
10302,0.11
10314,-2.68
10326,-5.08
10338,-7.01
10350,-8.7
10362,-10.52
10374,-12.83
10386,-15.74
10398,-19.09
10410,-22.51
10422,-25.63
10434,-28.23
10446,-30.34
10458,-32.24
10470,-34.37
10481,-37.19
10492,-40.98
10504,-45.75
10516,-51.12
10528,-56.31
10540,-60.21
10552,-61.72
10564,-60.05
10576,-54.97
10588,-46.96
10600,-37.01
10612,-26.33
10624,-16.01
10636,-6.72
10648,1.29
10660,8.12
10671,14.0
10682,19.14
10694,23.67
10706,27.54
10718,30.68
10730,32.96
10742,34.36
10754,34.96
10766,34.99
10778,34.77
10790,34.59
10802,34.59
10814,34.77
10826,34.98
10838,35.06
10850,34.94
10861,34.62
10872,34.13
10884,33.48
10896,32.55
10908,31.19
10920,29.33
10932,26.96
10944,24.2
10956,21.27
10968,18.34
10980,15.5
10992,12.78
11004,10.07
11016,7.3
11028,4.38
11040,1.25
11051,-2.09
11062,-5.6
11074,-9.15
11086,-12.63
11098,-15.93
11110,-19.04
11122,-22.04
11134,-25.13
11146,-28.56
11158,-32.62
11170,-37.5
11182,-43.27
11194,-49.74
11206,-56.36
11218,-62.26
11230,-66.32
11241,-67.49
11252,-65.08
11264,-58.99
11276,-49.77
11288,-38.49
11300,-26.42
11312,-14.7
11324,-4.11
11336,4.99
11348,12.63
11360,19.05
11372,24.56
11384,29.38
11396,33.58
11408,37.13
11420,39.99
11431,42.15
11442,43.71
11454,44.86
11466,45.72
11478,46.42
11490,46.98
11502,47.41
11514,47.7
11526,47.85
11538,47.81
11550,47.49
11562,46.76
11574,45.48
11586,43.62
11598,41.27
11610,38.63
11621,35.93
11632,33.3
11644,30.79
11656,28.33
11668,25.84
11680,23.24
11692,20.53
11704,17.71
11716,14.82
11728,11.91
11740,8.98
11752,6.0
11764,2.88
11776,-0.51
11788,-4.3
11800,-8.51
11811,-13.08
11822,-17.8
11834,-22.43
11846,-26.79
11858,-30.9
11870,-35.06
11882,-39.74
11894,-45.44
11906,-52.46
11918,-60.59
11930,-69.11
11942,-76.76
11954,-82.09
11966,-83.84
11978,-81.35
11990,-74.77
12001,-65.09
12012,-53.78
12024,-42.32
12036,-31.84
12048,-22.86
12060,-15.39
12072,-9.12
12084,-3.72
12096,0.99
12108,5.06
12120,8.5
12132,11.35
12144,13.76
12156,15.9
12168,17.88
12180,19.76
12191,21.48
12202,23.0
12214,24.32
12226,25.51
12238,26.62
12250,27.69
12262,28.68
12274,29.48
12286,29.96
12298,30.03
12310,29.64
12322,28.79
12334,27.52
12346,25.93
12358,24.12
12370,22.19
12381,20.22
12392,18.25
12404,16.25
12416,14.13
12428,11.78
12440,9.07
12452,5.92
12464,2.38
12476,-1.4
12488,-5.18
12500,-8.72
12512,-11.91
12524,-14.88
12536,-17.91
12548,-21.38
12560,-25.58
12571,-30.64
12582,-36.43
12594,-42.57
12606,-48.45
12618,-53.24
12630,-55.99
12642,-55.83
12654,-52.21
12666,-45.15
12678,-35.31
12690,-23.8
12702,-11.89
12714,-0.62
12726,9.42
12738,18.1
12750,25.56
12761,31.97
12772,37.36
12784,41.64
12796,44.68
12808,46.43
12820,47.04
12832,46.85
12844,46.24
12856,45.54
12868,44.98
12880,44.61
12892,44.42
12904,44.34
12916,44.32
12928,44.29
12940,44.18
12951,43.89
12962,43.31
12974,42.31
12986,40.78
12998,38.63
13010,35.85
13022,32.55
13034,29.01
13046,25.61
13058,22.68
13070,20.35
13082,18.4
13094,16.46
13106,14.06
13118,10.96
13130,7.26
13141,3.3
13152,-0.48
13164,-3.77
13176,-6.54
13188,-9.05
13200,-11.66
13212,-14.79
13224,-18.72
13236,-23.63
13248,-29.51
13260,-36.05
13272,-42.62
13284,-48.24
13296,-51.79
13308,-52.28
13320,-49.22
13331,-42.82
13342,-33.98
13354,-24.0
13366,-14.16
13378,-5.35
13390,2.07
13402,8.23
13414,13.49
13426,18.2
13438,22.49
13450,26.25
13462,29.24
13474,31.22
13486,32.14
13498,32.2
13510,31.75
13521,31.18
13532,30.73
13544,30.46
13556,30.28
13568,30.06
13580,29.8
13592,29.54
13604,29.4
13616,29.35
13628,29.24
13640,28.81
13652,27.83
13664,26.23
13676,24.07
13688,21.54
13700,18.79
13711,15.93
13722,12.98
13734,9.93
13746,6.78
13758,3.59
13770,0.39
13782,-2.86
13794,-6.25
13806,-9.89
13818,-13.83
13830,-17.96
13842,-22.07
13854,-25.9
13866,-29.31
13878,-32.35
13890,-35.33
13901,-38.72
13912,-42.93
13924,-48.19
13936,-54.43
13948,-61.17
13960,-67.56
13972,-72.51
13984,-74.88
13996,-73.79
14008,-68.88
14020,-60.51
14032,-49.66
14044,-37.72
14056,-26.03
14068,-15.57
14080,-6.77
14091,0.46
14102,6.48
14114,11.68
14126,16.28
14138,20.28
14150,23.57
14162,26.05
14174,27.72
14186,28.75
14198,29.44
14210,30.06
14222,30.79
14234,31.63
14246,32.45
14258,33.11
14270,33.55
14281,33.82
14292,34.05
14304,34.31
14316,34.52
14328,34.46
14340,33.83
14352,32.42
14364,30.18
14376,27.24
14388,23.93
14400,20.57
14412,17.39
14424,14.46
14436,11.68
14448,8.82
14460,5.68
14471,2.15
14482,-1.74
14494,-5.81
14506,-9.85
14518,-13.65
14530,-17.11
14542,-20.23
14554,-23.16
14566,-26.13
14578,-29.4
14590,-33.23
14602,-37.82
14614,-43.2
14626,-49.11
14638,-54.97
14650,-59.9
14661,-62.81
14672,-62.75
14684,-59.19
14696,-52.22
14708,-42.6
14720,-31.6
14732,-20.58
14744,-10.63
14756,-2.33
14768,4.26
14780,9.44
14792,13.57
14804,16.89
14816,19.49
14828,21.33
14840,22.45
14851,23.01
14862,23.23
14874,23.38
14886,23.57
14898,23.78
14910,23.92
14922,23.9
14934,23.76
14946,23.64
14958,23.67
14970,23.91
14982,24.19
14994,24.2
15006,23.58
15018,22.12
15030,19.83
15041,16.96
15052,13.88
15064,10.91
15076,8.21
15088,5.69
15100,3.12
15112,0.2
15124,-3.27
15136,-7.31
15148,-11.75
15160,-16.33
15172,-20.77
15184,-24.98
15196,-29.03
15208,-33.17
15220,-37.77
15231,-43.11
15242,-49.29
15254,-56.03
15266,-62.66
15278,-68.17
15290,-71.43
15302,-71.5
15314,-67.95
15326,-60.98
15338,-51.41
15350,-40.37
15362,-29.03
15374,-18.23
15386,-8.43
15398,0.26
15410,7.95
15421,14.77
15432,20.84
15444,26.18
15456,30.84
15468,34.88
15480,38.41
15492,41.59
15504,44.51
15516,47.26
15528,49.82
15540,52.11
15552,54.05
15564,55.6
15576,56.77
15588,57.6
15600,58.13
15611,58.31
15622,58.0
15634,56.99
15646,55.06
15658,52.07
15670,48.03
15682,43.19
15694,37.91
15706,32.63
15718,27.68
15730,23.16
15742,18.93
15754,14.75
15766,10.37
15778,5.71
15790,0.85
15801,-4.02
15812,-8.7
15824,-13.04
15836,-17.05
15848,-20.8
15860,-24.47
15872,-28.35
15884,-32.78
15896,-38.07
15908,-44.36
15920,-51.38
15932,-58.35
15944,-64.09
15956,-67.29
15968,-66.96
15980,-62.75
15991,-55.13
16002,-45.21
16014,-34.37
16026,-23.86
16038,-14.5
16050,-6.54
16062,0.17
16074,6.0
16086,11.22
16098,15.9
16110,19.92
16122,23.03
16134,25.05
16146,25.95
16158,25.91
16170,25.24
16181,24.28
16192,23.28
16204,22.37
16216,21.58
16228,20.91
16240,20.32
16252,19.8
16264,19.34
16276,18.9
16288,18.42
16300,17.78
16312,16.87
16324,15.61
16336,13.94
16348,11.9
16360,9.6
16371,7.21
16382,4.9
16394,2.77
16406,0.81
16418,-1.16
16430,-3.36
16442,-5.97
16454,-9.05
16466,-12.46
16478,-15.93
16490,-19.18
16502,-22.03
16514,-24.54
16526,-26.94
16538,-29.65
16550,-33.1
16561,-37.6
16572,-43.22
16584,-49.64
16596,-56.13
16608,-61.64
16620,-65.02
16632,-65.28
16644,-61.93
16656,-55.15
16668,-45.77
16680,-35.0
16692,-24.11
16704,-14.04
16716,-5.26
16728,2.21
16740,8.63
16751,14.3
16762,19.34
16774,23.72
16786,27.27
16798,29.88
16810,31.56
16822,32.48
16834,32.92
16846,33.1
16858,33.19
16870,33.17
16882,33.02
16894,32.7
16906,32.28
16918,31.9
16930,31.68
16941,31.62
16952,31.59
16964,31.3
16976,30.43
16988,28.77
17000,26.32
17012,23.3
17024,20.09
17036,17.11
17048,14.64
17060,12.69
17072,11.05
17084,9.31
17096,7.08
17108,4.17
17120,0.62
17131,-3.25
17142,-7.0
17154,-10.28
17166,-12.95
17178,-15.12
17190,-17.16
17202,-19.51
17214,-22.64
17226,-26.81
17238,-32.02
17250,-37.92
17262,-43.79
17274,-48.61
17286,-51.28
17298,-50.86
17310,-46.93
17321,-39.71
17332,-30.07
17344,-19.25
17356,-8.52
17368,1.16
17380,9.32
17392,15.97
17404,21.34
17416,25.69
17428,29.16
17440,31.72
17452,33.35
17464,34.08
17476,34.09
17488,33.6
17500,32.88
17511,32.1
17522,31.32
17534,30.54
17546,29.79
17558,29.13
17570,28.65
17582,28.38
17594,28.22
17606,27.93
17618,27.22
17630,25.82
17642,23.65
17654,20.82
17666,17.59
17678,14.29
17690,11.16
17701,8.33
17712,5.74
17724,3.19
17736,0.45
17748,-2.69
17760,-6.28
17772,-10.19
17784,-14.06
17796,-17.52
17808,-20.31
17820,-22.42
17832,-24.2
17844,-26.23
17856,-29.12
17868,-33.28
17880,-38.72
17891,-44.92
17902,-50.88
17914,-55.33
17926,-57.09
17938,-55.43
17950,-50.31
17962,-42.38
17974,-32.82
17986,-22.87
17998,-13.52
18010,-5.29
18022,1.75
18034,7.76
18046,12.91
18058,17.25
18070,20.7
18081,23.22
18092,24.9
18104,25.96
18116,26.74
18128,27.49
18140,28.33
18152,29.21
18164,29.95
18176,30.38
18188,30.47
18200,30.28
18212,30.03
18224,29.89
18236,29.88
18248,29.89
18260,29.68
18271,28.97
18282,27.57
18294,25.48
18306,22.82
18318,19.83
18330,16.74
18342,13.75
18354,10.91
18366,8.23
18378,5.63
18390,2.96
18402,0.09
18414,-3.08
18426,-6.6
18438,-10.38
18450,-14.23
18461,-17.92
18472,-21.27
18484,-24.21
18496,-26.86
18508,-29.51
18520,-32.57
18532,-36.42
18544,-41.32
18556,-47.15
18568,-53.38
18580,-59.06
18592,-62.99
18604,-64.05
18616,-61.53
18628,-55.48
18640,-46.6
18651,-36.14
18662,-25.37
18674,-15.34
18686,-6.58
18698,0.86
18710,7.16
18722,12.61
18734,17.41
18746,21.66
18758,25.37
18770,28.54
18782,31.12
18794,33.08
18806,34.4
18818,35.1
18830,35.3
18841,35.16
18852,34.88
18864,34.62
18876,34.5
18888,34.55
18900,34.72
18912,34.94
18924,35.06
18936,34.96
18948,34.47
18960,33.51
18972,32.01
18984,30.02
18996,27.66
19008,25.11
19020,22.56
19031,20.16
19042,18.01
19054,16.05
19066,14.17
19078,12.14
19090,9.79
19102,7.06
19114,4.06
19126,1.02
19138,-1.74
19150,-4.08
19162,-6.01
19174,-7.75
19186,-9.67
19198,-12.14
19210,-15.42
19221,-19.64
19232,-24.73
19244,-30.34
19256,-35.91
19268,-40.6
19280,-43.43
19292,-43.56
19304,-40.55
19316,-34.53
19328,-26.26
19340,-16.86
19352,-7.53
19364,0.82
19376,7.7
19388,13.04
19400,17.03
19411,19.9
19422,21.84
19434,22.98
19446,23.38
19458,23.2
19470,22.62
19482,21.91
19494,21.28
19506,20.87
19518,20.65
19530,20.5
19542,20.25
19554,19.83
19566,19.22
19578,18.48
19590,17.72
19601,16.96
19612,16.21
19624,15.34
19636,14.19
19648,12.61
19660,10.49
19672,7.83
19684,4.75
19696,1.48
19708,-1.75
19720,-4.7
19732,-7.23
19744,-9.34
19756,-11.14
19768,-12.84
19780,-14.68
19791,-16.8
19802,-19.23
19814,-21.88
19826,-24.51
19838,-26.91
19850,-28.94
19862,-30.64
19874,-32.27
19886,-34.15
19898,-36.64
19910,-39.96
19922,-44.09
19934,-48.73
19946,-53.23
19958,-56.72
19970,-58.22
19981,-56.97
19992,-52.63
20004,-45.48
20016,-36.38
20028,-26.52
20040,-17.07
20052,-8.79
20064,-1.98
20076,3.53
20088,8.05
20100,11.84
20112,14.99
20124,17.41
20136,19.04
20148,19.92
20160,20.27
20171,20.38
20182,20.52
20194,20.8
20206,21.19
20218,21.57
20230,21.85
20242,22.0
20254,22.07
20266,22.08
20278,21.97
20290,21.61
20302,20.8
20314,19.45
20326,17.58
20338,15.34
20350,12.94
20361,10.56
20372,8.25
20384,5.99
20396,3.7
20408,1.33
20420,-1.14
20432,-3.66
20444,-6.21
20456,-8.76
20468,-11.32
20480,-13.9
20492,-16.55
20504,-19.34
20516,-22.38
20528,-25.81
20540,-29.75
20551,-34.17
20562,-38.8
20574,-43.08
20586,-46.21
20598,-47.34
20610,-45.83
20622,-41.47
20634,-34.62
20646,-26.11
20658,-16.96
20670,-8.15
20682,-0.35
20694,6.21
20706,11.57
20718,15.92
20730,19.4
20741,22.07
20752,23.88
20764,24.86
20776,25.1
20788,24.83
20800,24.35
20812,23.88
20824,23.52
20836,23.26
20848,23.0
20860,22.68
20872,22.31
20884,21.95
20896,21.67
20908,21.45
20920,21.16
20931,20.58
20942,19.51
20954,17.85
20966,15.66
20978,13.11
20990,10.47
