seconds,BVP
8,-1.58
20,-1.44
32,-1.2
44,-1.12
55,-1.37
66,-1.97
78,-2.86
90,-3.89
102,-4.96
114,-5.98
126,-6.91
138,-7.73
150,-8.44
162,-8.97
174,-9.22
186,-9.02
198,-8.23
210,-6.78
222,-4.78
234,-2.43
245,-0.01
256,2.21
268,4.06
280,5.5
292,6.47
304,6.95
316,6.91
328,6.34
340,5.33
352,4.1
364,2.93
376,2.08
388,1.74
400,1.95
412,2.59
424,3.45
435,4.28
446,4.87
458,5.11
470,4.99
482,4.57
494,3.97
506,3.3
518,2.63
530,2.0
542,1.4
554,0.83
566,0.29
578,-0.21
590,-0.67
602,-1.09
614,-1.53
625,-2.08
636,-2.8
648,-3.7
660,-4.65
672,-5.47
684,-6.01
696,-6.25
708,-6.37
720,-6.63
732,-7.26
744,-8.26
756,-9.44
768,-10.41
780,-10.82
792,-10.41
804,-9.13
815,-7.12
826,-4.63
838,-1.95
850,0.56
862,2.63
874,4.08
886,4.87
898,5.11
910,5.03
922,4.8
934,4.55
946,4.32
958,4.11
970,3.95
982,3.91
994,4.03
1005,4.32
1016,4.69
1028,5.02
1040,5.19
1052,5.19
1064,5.07
1076,4.88
1088,4.67
1100,4.42
1112,4.06
1124,3.57
1136,2.96
1148,2.29
1160,1.65
1172,1.04
1184,0.44
1195,-0.22
1206,-1.0
1218,-1.88
1230,-2.8
1242,-3.65
1254,-4.39
1266,-5.0
1278,-5.53
1290,-6.08
1302,-6.71
1314,-7.47
1326,-8.36
1338,-9.31
1350,-10.19
1362,-10.79
1374,-10.9
1385,-10.33
1396,-8.99
1408,-6.95
1420,-4.39
1432,-1.6
1444,1.12
1456,3.48
1468,5.26
1480,6.35
1492,6.72
1504,6.47
1516,5.82
1528,5.03
1540,4.32
1552,3.79
1564,3.44
1575,3.17
1586,2.94
1598,2.81
1610,2.87
1622,3.17
1634,3.66
1646,4.17
1658,4.49
1670,4.49
1682,4.19
1694,3.75
1706,3.34
1718,3.04
1730,2.78
1742,2.42
1754,1.84
1765,1.02
1776,0.09
1788,-0.77
1800,-1.42
1812,-1.89
1824,-2.24
1836,-2.61
1848,-3.05
1860,-3.56
1872,-4.06
1884,-4.5
1896,-4.96
1908,-5.53
1920,-6.35
1932,-7.42
1944,-8.56
1955,-9.49
1966,-9.89
1978,-9.57
1990,-8.49
2002,-6.78
2014,-4.66
2026,-2.35
2038,-0.04
2050,2.13
2062,4.01
2074,5.49
2086,6.44
2098,6.81
2110,6.58
2122,5.9
2134,4.99
2145,4.12
2156,3.49
2168,3.25
2180,3.37
2192,3.75
2204,4.24
2216,4.69
2228,4.99
2240,5.11
2252,5.0
2264,4.68
2276,4.18
2288,3.54
2300,2.84
2312,2.17
2324,1.61
2335,1.16
2346,0.81
2358,0.48
2370,0.09
2382,-0.37
2394,-0.9
2406,-1.43
2418,-1.91
2430,-2.3
2442,-2.63
2454,-2.98
2466,-3.43
2478,-4.04
2490,-4.82
2502,-5.69
2514,-6.53
2525,-7.26
2536,-7.81
2548,-8.16
2560,-8.23
2572,-7.97
2584,-7.27
2596,-6.06
2608,-4.35
2620,-2.25
2632,0.01
2644,2.18
2656,3.99
2668,5.27
2680,5.94
2692,6.0
2704,5.54
2715,4.68
2726,3.61
2738,2.51
2750,1.59
2762,0.99
2774,0.81
2786,1.06
2798,1.7
2810,2.6
2822,3.61
2834,4.55
2846,5.21
2858,5.46
2870,5.19
2882,4.45
2894,3.35
2905,2.11
2916,0.92
2928,-0.05
2940,-0.75
2952,-1.2
2964,-1.51
2976,-1.76
2988,-2.06
3000,-2.43
3012,-2.88
3024,-3.38
3036,-3.89
3048,-4.4
3060,-4.88
3072,-5.34
3084,-5.83
3095,-6.38
3106,-7.02
3118,-7.75
3130,-8.46
3142,-8.97
3154,-9.07
3166,-8.56
3178,-7.36
3190,-5.54
3202,-3.29
3214,-0.88
3226,1.42
3238,3.43
3250,5.0
3262,6.07
3274,6.62
3285,6.66
3296,6.26
3308,5.5
3320,4.56
3332,3.59
3344,2.78
3356,2.3
3368,2.23
3380,2.62
3392,3.37
3404,4.28
3416,5.09
3428,5.53
3440,5.46
3452,4.88
3464,3.97
3475,2.97
3486,2.12
3498,1.55
3510,1.24
3522,1.03
3534,0.74
3546,0.24
3558,-0.5
3570,-1.41
3582,-2.34
3594,-3.14
3606,-3.7
3618,-4.05
3630,-4.3
3642,-4.58
3654,-5.04
3665,-5.73
3676,-6.63
3688,-7.63
3700,-8.62
3712,-9.49
3724,-10.09
3736,-10.29
3748,-9.9
3760,-8.81
3772,-7.05
3784,-4.78
3796,-2.35
3808,-0.1
3820,1.69
3832,2.96
3844,3.78
3855,4.32
3866,4.67
3878,4.84
3890,4.8
3902,4.51
3914,4.03
3926,3.52
3938,3.19
3950,3.2
3962,3.56
3974,4.15
3986,4.79
3998,5.23
4010,5.34
4022,5.09
4034,4.55
4045,3.86
4056,3.16
4068,2.55
4080,2.05
4092,1.64
4104,1.26
4116,0.86
4128,0.41
4140,-0.08
4152,-0.59
4164,-1.06
4176,-1.51
4188,-1.94
4200,-2.41
4212,-2.93
4224,-3.52
4235,-4.15
4246,-4.79
4258,-5.45
4270,-6.16
4282,-6.96
4294,-7.83
4306,-8.68
4318,-9.34
4330,-9.57
4342,-9.15
4354,-7.96
4366,-6.02
4378,-3.53
4390,-0.84
4402,1.63
4414,3.51
4425,4.61
4436,4.94
4448,4.75
4460,4.34
4472,3.95
4484,3.66
4496,3.45
4508,3.23
4520,3.01
4532,2.89
4544,3.04
4556,3.55
4568,4.35
4580,5.23
4592,5.93
4604,6.22
4615,6.05
4626,5.52
4638,4.81
4650,4.1
4662,3.52
4674,3.1
4686,2.8
4698,2.55
4710,2.25
4722,1.79
4734,1.13
4746,0.25
4758,-0.76
4770,-1.78
4782,-2.66
4794,-3.31
4805,-3.73
4816,-4.0
4828,-4.27
4840,-4.64
4852,-5.18
4864,-5.92
4876,-6.8
4888,-7.76
4900,-8.65
4912,-9.27
4924,-9.44
4936,-8.99
4948,-7.83
4960,-6.05
4972,-3.82
4984,-1.44
4995,0.8
5006,2.7
5018,4.14
5030,5.1
5042,5.6
5054,5.69
5066,5.44
5078,4.93
5090,4.29
5102,3.65
5114,3.16
5126,2.89
5138,2.9
5150,3.12
5162,3.49
5174,3.92
5185,4.38
5196,4.83
5208,5.18
5220,5.31
5232,5.1
5244,4.44
5256,3.42
5268,2.21
5280,1.08
5292,0.23
5304,-0.27
5316,-0.52
5328,-0.7
5340,-0.97
5352,-1.41
5364,-1.95
5375,-2.5
5386,-2.94
5398,-3.25
5410,-3.49
5422,-3.76
5434,-4.14
5446,-4.7
5458,-5.42
5470,-6.3
5482,-7.24
5494,-8.11
5506,-8.71
5518,-8.81
5530,-8.21
5542,-6.88
5554,-4.94
5565,-2.67
5576,-0.41
5588,1.58
5600,3.14
5612,4.23
5624,4.86
5636,5.07
5648,4.87
5660,4.35
5672,3.66
5684,2.99
5696,2.53
5708,2.34
5720,2.36
5732,2.45
5744,2.51
5755,2.54
5766,2.65
5778,2.96
5790,3.52
5802,4.22
5814,4.81
5826,5.06
5838,4.85
5850,4.21
5862,3.31
5874,2.34
5886,1.45
5898,0.68
5910,0.0
5922,-0.65
5934,-1.28
5945,-1.84
5956,-2.24
5968,-2.43
5980,-2.47
5992,-2.52
6004,-2.8
6016,-3.46
6028,-4.51
6040,-5.79
6052,-7.05
6064,-8.03
6076,-8.61
6088,-8.76
6100,-8.57
6112,-8.07
6124,-7.2
6135,-5.89
6146,-4.06
6158,-1.8
6170,0.68
6182,3.05
6194,5.02
6206,6.4
6218,7.16
6230,7.38
6242,7.18
6254,6.7
6266,6.03
6278,5.3
6290,4.6
6302,4.04
6314,3.69
6325,3.59
6336,3.76
6348,4.18
6360,4.79
6372,5.47
6384,6.06
6396,6.39
6408,6.37
6420,6.0
6432,5.38
6444,4.66
6456,3.89
6468,3.06
6480,2.1
6492,1.02
6504,-0.09
6515,-1.1
6526,-1.87
6538,-2.43
6550,-2.89
6562,-3.41
6574,-4.01
6586,-4.61
6598,-5.08
6610,-5.35
6622,-5.52
6634,-5.8
6646,-6.37
6658,-7.23
6670,-8.15
6682,-8.79
6694,-8.85
6705,-8.22
6716,-6.97
6728,-5.27
6740,-3.32
6752,-1.27
6764,0.74
6776,2.57
6788,4.04
6800,5.0
6812,5.41
6824,5.34
6836,4.98
6848,4.55
6860,4.18
6872,3.9
6884,3.67
6895,3.45
6906,3.24
6918,3.1
6930,3.12
6942,3.31
6954,3.62
6966,3.89
6978,3.98
6990,3.79
7002,3.3
7014,2.6
7026,1.84
7038,1.1
7050,0.45
7062,-0.13
7074,-0.66
7085,-1.18
7096,-1.69
7108,-2.19
7120,-2.73
7132,-3.35
7144,-4.11
7156,-4.98
7168,-5.89
7180,-6.71
7192,-7.34
7204,-7.78
7216,-8.1
7228,-8.39
7240,-8.72
7252,-9.01
7264,-9.13
7275,-8.87
7286,-8.12
7298,-6.84
7310,-5.11
7322,-3.1
7334,-0.99
7346,1.05
7358,2.9
7370,4.44
7382,5.55
7394,6.16
7406,6.22
7418,5.82
7430,5.13
7442,4.46
7454,4.09
7465,4.18
7476,4.7
7488,5.49
7500,6.27
7512,6.86
7524,7.13
7536,7.1
7548,6.86
7560,6.47
7572,6.03
7584,5.58
7596,5.17
7608,4.81
7620,4.46
7632,4.05
7644,3.46
7655,2.66
7666,1.61
7678,0.38
7690,-0.97
7702,-2.34
7714,-3.62
7726,-4.74
7738,-5.64
7750,-6.32
7762,-6.85
7774,-7.31
7786,-7.81
7798,-8.41
7810,-9.13
7822,-9.92
7834,-10.63
7845,-11.06
7856,-10.95
7868,-10.11
7880,-8.5
7892,-6.26
7904,-3.68
7916,-1.08
7928,1.29
7940,3.34
7952,5.07
7964,6.45
7976,7.38
7988,7.75
8000,7.5
8012,6.75
8024,5.79
8035,4.96
8046,4.52
8058,4.56
8070,4.95
8082,5.45
8094,5.87
8106,6.08
8118,6.07
8130,5.93
8142,5.74
8154,5.54
8166,5.3
8178,4.95
8190,4.42
8202,3.67
8214,2.73
8225,1.68
8236,0.67
8248,-0.15
8260,-0.7
8272,-0.96
8284,-1.03
8296,-1.09
8308,-1.36
8320,-1.93
8332,-2.82
8344,-3.88
8356,-4.92
8368,-5.76
8380,-6.35
8392,-6.74
8404,-7.08
8415,-7.51
8426,-8.08
8438,-8.78
8450,-9.45
8462,-9.91
8474,-9.93
8486,-9.34
8498,-8.07
8510,-6.19
8522,-3.89
8534,-1.4
8546,1.02
8558,3.17
8570,4.9
8582,6.1
8594,6.72
8605,6.82
8616,6.49
8628,5.94
8640,5.35
8652,4.87
8664,4.58
8676,4.48
8688,4.55
8700,4.77
8712,5.13
8724,5.59
8736,6.09
8748,6.53
8760,6.83
8772,6.93
8784,6.82
8795,6.55
8806,6.15
8818,5.64
8830,5.04
8842,4.36
8854,3.63
8866,2.88
8878,2.17
8890,1.52
8902,0.92
8914,0.3
8926,-0.42
8938,-1.29
8950,-2.3
8962,-3.37
8974,-4.35
8985,-5.09
8996,-5.52
9008,-5.69
9020,-5.76
9032,-5.94
9044,-6.4
9056,-7.13
9068,-7.99
9080,-8.72
9092,-9.05
9104,-8.76
9116,-7.75
9128,-6.0
9140,-3.63
9152,-0.81
9164,2.18
9175,5.05
9186,7.49
9198,9.26
9210,10.26
9222,10.51
9234,10.11
9246,9.2
9258,7.92
9270,6.42
9282,4.83
9294,3.34
9306,2.13
9318,1.29
9330,0.79
9342,0.49
9354,0.19
9365,-0.26
9376,-0.9
9388,-1.67
9400,-2.45
9412,-3.09
9424,-3.53
9436,-3.74
9448,-3.74
9460,-3.61
9472,-3.43
9484,-3.26
9496,-3.13
9508,-3.03
9520,-2.93
9532,-2.8
9544,-2.63
9555,-2.48
9566,-2.46
9578,-2.64
9590,-3.04
9602,-3.58
9614,-4.11
9626,-4.5
9638,-4.71
9650,-4.77
9662,-4.81
9674,-4.87
9686,-4.94
9698,-4.87
9710,-4.44
9722,-3.47
9734,-1.88
9745,0.22
9756,2.59
9768,4.91
9780,6.87
9792,8.31
9804,9.18
9816,9.59
9828,9.67
9840,9.55
9852,9.28
9864,8.87
9876,8.37
9888,7.92
9900,7.68
9912,7.86
9924,8.51
9935,9.54
9946,10.72
9958,11.72
9970,12.33
9982,12.45
9994,12.15
10006,11.58
10018,10.89
10030,10.14
10042,9.32
10054,8.4
10066,7.35
10078,6.25
10090,5.17
10102,4.19
10114,3.3
10125,2.4
10136,1.38
10148,0.16
10160,-1.19
10172,-2.54
10184,-3.73
10196,-4.72
10208,-5.55
10220,-6.37
10232,-7.29
10244,-8.35
10256,-9.5
10268,-10.63
10280,-11.57
10292,-12.19
10304,-12.33
10315,-11.89
10326,-10.83
10338,-9.24
10350,-7.32
10362,-5.32
10374,-3.51
10386,-2.06
10398,-1.03
10410,-0.37
10422,-0.03
10434,0.05
10446,-0.1
10458,-0.43
10470,-0.87
10482,-1.3
10494,-1.65
10505,-1.89
10516,-2.04
10528,-2.08
10540,-2.03
10552,-1.85
10564,-1.48
10576,-0.95
10588,-0.33
10600,0.23
10612,0.59
10624,0.63
10636,0.3
10648,-0.37
10660,-1.23
10672,-2.11
10684,-2.83
10695,-3.26
10706,-3.39
10718,-3.35
10730,-3.34
10742,-3.53
10754,-3.98
10766,-4.62
10778,-5.3
10790,-5.92
10802,-6.43
10814,-6.9
10826,-7.39
10838,-7.94
10850,-8.53
10862,-9.1
10874,-9.59
10885,-9.97
10896,-10.19
10908,-10.13
10920,-9.63
10932,-8.55
10944,-6.86
10956,-4.68
10968,-2.26
10980,0.13
10992,2.25
11004,3.95
11016,5.18
11028,5.86
11040,5.97
11052,5.55
11064,4.74
11075,3.8
11086,2.98
11098,2.5
11110,2.42
11122,2.69
11134,3.16
11146,3.67
11158,4.12
11170,4.43
11182,4.61
11194,4.67
11206,4.68
11218,4.7
11230,4.75
11242,4.82
11254,4.82
11265,4.6
11276,4.06
11288,3.2
11300,2.13
11312,1.07
11324,0.23
11336,-0.3
11348,-0.57
11360,-0.75
11372,-1.03
11384,-1.5
11396,-2.14
11408,-2.82
11420,-3.42
11432,-3.9
11444,-4.29
11455,-4.68
11466,-5.16
11478,-5.74
11490,-6.39
11502,-7.08
11514,-7.76
11526,-8.36
11538,-8.78
11550,-8.83
11562,-8.33
11574,-7.13
11586,-5.25
11598,-2.88
11610,-0.36
11622,1.96
11634,3.79
11645,5.01
11656,5.67
11668,5.88
11680,5.8
11692,5.54
11704,5.14
11716,4.64
11728,4.09
11740,3.59
11752,3.22
11764,3.1
11776,3.22
11788,3.53
11800,3.91
11812,4.21
11824,4.39
11835,4.43
11846,4.41
11858,4.37
11870,4.35
11882,4.29
11894,4.12
11906,3.79
11918,3.31
11930,2.71
11942,2.03
11954,1.3
11966,0.52
11978,-0.31
11990,-1.13
12002,-1.88
12014,-2.44
12025,-2.77
12036,-2.87
12048,-2.85
12060,-2.89
12072,-3.11
12084,-3.6
12096,-4.33
12108,-5.18
12120,-5.99
12132,-6.6
12144,-6.87
12156,-6.74
12168,-6.15
12180,-5.08
12192,-3.52
12204,-1.56
12215,0.66
12226,2.9
12238,4.87
12250,6.38
12262,7.33
12274,7.7
12286,7.58
12298,7.03
12310,6.15
12322,5.03
12334,3.82
12346,2.75
12358,2.07
12370,1.94
12382,2.37
12394,3.22
12405,4.2
12416,5.05
12428,5.53
12440,5.57
12452,5.17
12464,4.42
12476,3.39
12488,2.22
12500,1.01
12512,-0.09
12524,-0.96
12536,-1.58
12548,-2.04
12560,-2.49
12572,-3.07
12584,-3.84
12595,-4.68
12606,-5.43
12618,-5.96
12630,-6.29
12642,-6.56
12654,-6.94
12666,-7.59
12678,-8.51
12690,-9.6
12702,-10.7
12714,-11.64
12726,-12.21
12738,-12.21
12750,-11.48
12762,-9.9
12774,-7.55
12785,-4.69
12796,-1.71
12808,0.99
12820,3.11
12832,4.55
12844,5.35
12856,5.65
12868,5.6
12880,5.32
12892,4.86
12904,4.27
12916,3.6
12928,2.97
12940,2.53
12952,2.41
12964,2.66
12975,3.2
12986,3.86
12998,4.42
13010,4.73
13022,4.73
13034,4.5
13046,4.18
13058,3.89
13070,3.66
13082,3.44
13094,3.13
13106,2.66
13118,1.99
13130,1.18
13142,0.28
13154,-0.64
13165,-1.54
13176,-2.42
13188,-3.27
13200,-4.11
13212,-4.94
13224,-5.74
13236,-6.47
13248,-7.15
13260,-7.8
13272,-8.47
13284,-9.16
13296,-9.84
13308,-10.36
13320,-10.56
13332,-10.27
13344,-9.4
13355,-7.95
13366,-6.04
13378,-3.86
13390,-1.65
13402,0.4
13414,2.17
13426,3.49
13438,4.23
13450,4.28
13462,3.66
13474,2.49
13486,1.05
13498,-0.33
13510,-1.35
13522,-1.82
13534,-1.86
13545,-1.75
13556,-1.78
13568,-2.08
13580,-2.56
13592,-2.96
13604,-2.95
13616,-2.25
13628,-0.85
13640,0.86
13652,2.21
13664,2.7
13676,2.21
13688,1.02
13700,-0.36
13712,-1.29
13724,-1.16
13735,0.47
13746,3.21
13758,5.95
13770,7.32
13782,6.15
13794,1.72
13806,-5.93
13818,-15.6
13830,-24.8
13842,-30.06
13854,-28.43
13866,-17.9
13878,2.37
13890,31.76
13902,67.61
13914,105.07
13925,137.91
13936,160.05
13948,167.07
13960,156.55
13972,128.95
13984,87.9
13996,39.33
14008,-10.64
14020,-57.41
14032,-98.41
14044,-132.94
14056,-156.33
14068,-164.26
14080,-157.23
14092,-141.5
14104,-124.27
14115,-109.14
14126,-95.52
14138,-80.69
14150,-62.16
14162,-39.24
14174,-14.39
14186,8.1
14198,24.45
14210,33.72
14222,37.21
14234,36.9
14246,34.84
14258,32.7
14270,31.54
14282,31.01
14294,30.15
14305,28.56
14316,26.99
14328,26.8
14340,29.16
14352,34.67
14364,42.16
14376,50.33
14388,57.21
14400,61.0
14412,60.79
14424,56.99
14436,50.73
14448,43.18
14460,35.12
14472,26.8
14484,18.34
14495,9.63
14506,0.81
14518,-7.48
14530,-14.23
14542,-18.71
14554,-20.81
14566,-21.1
14578,-20.61
14590,-20.27
14602,-20.78
14614,-22.36
14626,-24.71
14638,-27.27
14650,-29.56
14662,-31.4
14674,-32.87
14685,-34.15
14696,-35.26
14708,-36.04
14720,-36.24
14732,-35.61
14744,-34.06
14756,-31.67
14768,-28.72
14780,-25.52
14792,-22.36
14804,-19.45
14816,-16.95
14828,-14.94
14840,-13.39
14852,-12.22
14864,-11.28
14875,-10.46
14886,-9.73
14898,-9.16
14910,-8.87
14922,-8.94
14934,-9.36
14946,-10.0
14958,-10.63
14970,-11.06
14982,-11.19
14994,-11.04
15006,-10.79
15018,-10.61
15030,-10.53
15042,-10.42
15054,-9.96
15065,-8.78
15076,-6.67
15088,-3.68
15100,-0.14
15112,3.47
15124,6.68
15136,9.21
15148,10.96
15160,12.01
15172,12.54
15184,12.7
15196,12.61
15208,12.31
15220,11.78
15232,11.0
15244,9.99
15255,8.89
15266,7.92
15278,7.41
15290,7.62
15302,8.63
15314,10.21
15326,11.88
15338,13.02
15350,13.08
15362,11.79
15374,9.29
15386,6.21
15398,3.55
15410,2.5
15422,4.09
15434,8.83
15445,16.39
15456,25.63
15468,34.81
15480,42.29
15492,47.15
15504,49.63
15516,51.01
15528,53.11
15540,57.48
15552,64.78
15564,74.56
15576,85.54
15588,96.15
15600,105.05
15612,111.35
15624,114.65
15635,114.9
15646,112.27
15658,107.1
15670,99.88
15682,91.15
15694,81.43
15706,71.02
15718,59.94
15730,48.08
15742,35.41
15754,22.17
15766,8.91
15778,-3.66
15790,-14.96
15802,-24.79
15814,-33.37
15825,-41.15
15836,-48.56
15848,-55.78
15860,-62.71
15872,-69.1
15884,-74.77
15896,-79.67
15908,-83.79
15920,-87.04
15932,-89.13
15944,-89.76
15956,-88.86
15968,-86.78
15980,-84.3
15992,-82.37
16004,-81.6
16015,-82.09
16026,-83.28
16038,-84.17
16050,-83.8
16062,-81.48
16074,-77.02
16086,-70.64
16098,-62.71
16110,-53.6
16122,-43.49
16134,-32.4
16146,-20.29
16158,-7.25
16170,6.38
16182,19.98
16194,32.72
16205,43.76
16216,52.46
16228,58.52
16240,61.99
16252,63.2
16264,62.55
16276,60.44
16288,57.17
16300,52.98
16312,48.09
16324,42.76
16336,37.25
16348,31.75
16360,26.34
16372,20.98
16384,15.52
16395,9.81
16406,3.78
16418,-2.45
16430,-8.62
16442,-14.29
16454,-19.04
16466,-22.55
16478,-24.8
16490,-26.13
16502,-27.13
16514,-28.42
16526,-30.47
16538,-33.4
16550,-36.91
16562,-40.51
16574,-43.61
16585,-45.77
16596,-46.71
16608,-46.33
16620,-44.62
16632,-41.63
16644,-37.56
16656,-32.68
16668,-27.41
16680,-22.22
16692,-17.5
16704,-13.48
16716,-10.22
16728,-7.64
16740,-5.65
16752,-4.18
16764,-3.16
16775,-2.52
16786,-2.09
16798,-1.65
16810,-1.02
16822,-0.11
16834,1.03
16846,2.23
16858,3.3
16870,4.12
16882,4.69
16894,5.06
16906,5.29
16918,5.35
16930,5.19
16942,4.76
16954,4.03
16965,3.05
16976,1.94
16988,0.78
17000,-0.35
17012,-1.4
17024,-2.41
17036,-3.42
17048,-4.5
17060,-5.69
17072,-6.97
17084,-8.25
17096,-9.4
17108,-10.22
17120,-10.49
17132,-10.01
17144,-8.63
17155,-6.32
17166,-3.2
17178,0.4
17190,4.01
17202,7.14
17214,9.43
17226,10.74
17238,11.15
17250,10.9
17262,10.3
17274,9.55
17286,8.81
17298,8.15
17310,7.62
17322,7.3
17334,7.29
17345,7.63
17356,8.27
17368,9.07
17380,9.77
17392,10.16
17404,10.1
17416,9.56
17428,8.63
17440,7.47
17452,6.19
17464,4.88
17476,3.58
17488,2.31
17500,1.13
17512,0.06
17524,-0.93
17535,-1.92
17546,-3.06
17558,-4.46
17570,-6.06
17582,-7.6
17594,-8.72
17606,-9.01
17618,-8.28
17630,-6.54
17642,-4.04
17654,-1.15
17666,1.78
17678,4.51
17690,6.9
17702,8.87
17714,10.39
17725,11.35
17736,11.7
17748,11.42
17760,10.64
17772,9.58
17784,8.53
17796,7.72
17808,7.28
17820,7.19
17832,7.32
17844,7.54
17856,7.73
17868,7.84
17880,7.82
17892,7.66
17904,7.32
17915,6.79
17926,6.1
17938,5.26
17950,4.3
17962,3.24
17974,2.09
17986,0.84
17998,-0.46
18010,-1.78
18022,-3.12
18034,-4.48
18046,-5.89
18058,-7.32
18070,-8.61
18082,-9.48
18094,-9.61
18105,-8.74
18116,-6.83
18128,-4.09
18140,-0.9
18152,2.25
18164,4.99
18176,7.06
18188,8.39
18200,9.03
18212,9.07
18224,8.63
18236,7.81
18248,6.73
18260,5.52
18272,4.34
18284,3.39
18295,2.82
18306,2.72
18318,3.05
18330,3.66
18342,4.34
18354,4.85
18366,5.03
18378,4.81
18390,4.21
18402,3.36
18414,2.39
18426,1.42
18438,0.51
18450,-0.36
18462,-1.27
18474,-2.33
18485,-3.59
18496,-5.06
18508,-6.65
18520,-8.2
18532,-9.53
18544,-10.49
18556,-10.94
18568,-10.81
18580,-10.06
18592,-8.67
18604,-6.71
18616,-4.29
18628,-1.62
18640,1.07
18652,3.58
18664,5.77
18675,7.54
18686,8.82
18698,9.56
18710,9.74
18722,9.39
18734,8.65
18746,7.69
18758,6.72
18770,5.92
18782,5.41
18794,5.26
18806,5.45
18818,5.91
18830,6.49
18842,6.96
18854,7.1
18865,6.74
18876,5.82
18888,4.43
18900,2.77
18912,1.09
18924,-0.4
18936,-1.55
18948,-2.32
18960,-2.79
18972,-3.13
18984,-3.56
18996,-4.3
19008,-5.46
19020,-7.0
19032,-8.68
19044,-10.12
19055,-10.92
19066,-10.75
19078,-9.48
19090,-7.22
19102,-4.28
19114,-1.05
19126,2.04
19138,4.71
19150,6.8
19162,8.27
19174,9.21
19186,9.69
19198,9.85
19210,9.78
19222,9.55
19234,9.19
19245,8.75
19256,8.28
19268,7.88
19280,7.67
19292,7.71
19304,7.97
19316,8.31
19328,8.54
19340,8.55
19352,8.32
19364,7.91
19376,7.42
19388,6.86
19400,6.15
19412,5.21
19424,3.96
19435,2.44
19446,0.76
19458,-0.91
19470,-2.44
19482,-3.71
19494,-4.68
19506,-5.36
19518,-5.82
19530,-6.23
19542,-6.77
19554,-7.63
19566,-8.86
19578,-10.39
19590,-11.97
19602,-13.23
19614,-13.79
19625,-13.37
19636,-11.89
19648,-9.46
19660,-6.36
19672,-2.95
19684,0.42
19696,3.46
19708,5.99
19720,7.88
19732,9.13
19744,9.82
19756,10.07
19768,10.05
19780,9.9
19792,9.69
19804,9.47
19815,9.24
19826,9.03
19838,8.86
19850,8.75
19862,8.67
19874,8.61
19886,8.52
19898,8.44
19910,8.4
19922,8.42
19934,8.43
19946,8.32
19958,7.93
19970,7.16
19982,6.03
19994,4.65
20005,3.2
20016,1.88
20028,0.82
20040,0.08
20052,-0.36
20064,-0.6
20076,-0.82
20088,-1.16
20100,-1.75
20112,-2.56
20124,-3.49
20136,-4.37
20148,-5.07
20160,-5.57
20172,-5.96
20184,-6.4
20195,-7.06
20206,-8.05
20218,-9.34
20230,-10.76
20242,-12.06
20254,-12.95
20266,-13.12
20278,-12.36
20290,-10.62
20302,-8.01
20314,-4.81
20326,-1.38
20338,1.91
20350,4.77
20362,7.05
20374,8.7
20385,9.75
20396,10.29
20408,10.37
20420,10.06
20432,9.46
20444,8.7
20456,7.95
20468,7.39
20480,7.12
20492,7.17
20504,7.44
20516,7.81
20528,8.16
20540,8.41
20552,8.49
20564,8.4
20575,8.1
20586,7.61
20598,6.9
20610,5.99
20622,4.91
20634,3.75
20646,2.6
20658,1.56
20670,0.69
20682,-0.05
20694,-0.7
20706,-1.37
20718,-2.12
20730,-2.94
20742,-3.78
20754,-4.57
20765,-5.28
20776,-5.94
20788,-6.58
20800,-7.24
20812,-7.88
20824,-8.47
20836,-9.05
20848,-9.66
20860,-10.39
20872,-11.27
20884,-12.17
20896,-12.86
20908,-13.02
20920,-12.38
20932,-10.83
20944,-8.48
20955,-5.59
20966,-2.54
20978,0.3
20990,2.7
