seconds,BVP
9,-73.34
21,-75.96
33,-78.93
45,-81.14
57,-81.04
69,-77.46
81,-70.31
93,-60.54
105,-49.62
117,-38.89
128,-29.0
139,-19.89
151,-11.15
163,-2.33
175,6.72
187,15.72
199,24.05
211,30.83
223,35.28
235,37.13
247,36.93
259,35.91
271,35.63
283,37.1
295,40.18
307,43.55
318,45.26
329,43.71
341,38.58
353,31.03
365,23.01
377,16.42
389,12.08
401,9.61
413,7.78
425,5.4
437,2.04
449,-1.78
461,-4.94
473,-6.58
485,-6.65
497,-6.08
508,-6.21
519,-7.95
531,-11.2
543,-14.79
555,-17.18
567,-17.36
579,-15.44
591,-12.46
603,-9.75
615,-8.01
627,-7.03
639,-6.05
651,-4.54
663,-2.72
675,-1.6
687,-2.43
698,-5.79
709,-11.21
721,-17.32
733,-22.47
745,-25.53
757,-26.26
769,-25.11
781,-22.76
793,-19.76
805,-16.32
817,-12.28
829,-7.51
841,-1.92
853,4.32
865,10.73
877,16.69
888,21.61
899,25.12
911,27.2
923,28.11
935,28.13
947,27.37
959,25.68
971,22.88
983,18.99
995,14.57
1007,10.47
1019,7.66
1031,6.71
1043,7.48
1055,9.26
1067,11.08
1078,12.12
1089,12.08
1101,11.35
1113,10.66
1125,10.8
1137,12.15
1149,14.28
1161,16.21
1173,16.77
1185,15.15
1197,11.41
1209,6.41
1221,1.36
1233,-2.72
1245,-5.49
1257,-7.39
1268,-9.0
1279,-10.8
1291,-12.92
1303,-15.03
1315,-16.8
1327,-18.07
1339,-18.96
1351,-19.72
1363,-20.76
1375,-22.22
1387,-24.04
1399,-25.97
1411,-27.55
1423,-28.37
1435,-28.32
1447,-27.58
1458,-26.62
1469,-26.12
1481,-26.36
1493,-27.13
1505,-27.62
1517,-26.7
1529,-23.4
1541,-17.33
1553,-8.82
1565,1.27
1577,11.91
1589,22.29
1601,31.88
1613,40.45
1625,47.78
1637,53.52
1648,57.34
1659,59.2
1671,59.43
1683,58.67
1695,57.67
1707,56.9
1719,56.42
1731,56.01
1743,55.38
1755,54.32
1767,52.94
1779,51.38
1791,49.73
1803,48.03
1815,46.24
1827,44.47
1838,42.88
1849,41.54
1861,40.25
1873,38.52
1885,35.75
1897,31.4
1909,25.54
1921,18.78
1933,12.32
1945,7.47
1957,5.16
1969,5.59
1981,8.04
1993,11.16
2005,13.33
2017,13.4
2028,10.9
2039,6.27
2051,0.48
2063,-5.38
2075,-10.55
2087,-14.68
2099,-17.74
2111,-20.02
2123,-21.74
2135,-23.4
2147,-25.47
2159,-28.26
2171,-31.66
2183,-34.98
2195,-37.1
2207,-36.89
2218,-33.68
2229,-27.47
2241,-19.04
2253,-9.46
2265,0.24
2277,9.23
2289,16.99
2301,23.22
2313,27.85
2325,31.05
2337,33.12
2349,34.32
2361,34.64
2373,33.81
2385,31.51
2397,27.66
2408,22.74
2419,17.65
2431,13.3
2443,10.12
2455,7.83
2467,5.69
2479,2.99
2491,-0.52
2503,-4.53
2515,-8.55
2527,-12.35
2539,-16.22
2551,-20.75
2563,-26.3
2575,-32.6
2587,-38.7
2598,-43.32
2609,-45.35
2621,-44.22
2633,-39.91
2645,-32.89
2657,-23.78
2669,-13.28
2681,-2.32
2693,7.99
2705,16.41
2717,21.87
2729,23.86
2741,22.58
2753,18.77
2765,13.5
2777,7.69
2788,1.84
2799,-3.9
2811,-9.58
2823,-15.27
2835,-20.86
2847,-26.08
2859,-30.65
2871,-34.35
2883,-36.99
2895,-38.34
2907,-38.08
2919,-35.92
2931,-31.93
2943,-26.52
2955,-20.34
2967,-14.08
2978,-8.1
2989,-2.33
3001,3.31
3013,8.81
3025,13.73
3037,17.31
3049,19.07
3061,19.16
3073,18.34
3085,17.54
3097,17.32
3109,17.44
3121,17.3
3133,16.42
3145,14.96
3157,13.86
3168,14.24
3179,16.65
3191,20.75
3203,25.31
3215,28.89
3227,30.54
3239,30.24
3251,28.58
3263,26.44
3275,24.28
3287,21.97
3299,19.17
3311,15.6
3323,11.46
3335,7.55
3347,4.85
3358,3.96
3369,4.81
3381,6.45
3393,7.48
3405,6.73
3417,3.74
3429,-1.02
3441,-6.45
3453,-11.35
3465,-14.99
3477,-17.27
3489,-18.74
3501,-20.21
3513,-22.27
3525,-25.13
3537,-28.47
3548,-31.62
3559,-34.02
3571,-35.35
3583,-35.74
3595,-35.54
3607,-35.1
3619,-34.44
3631,-33.28
3643,-31.21
3655,-27.91
3667,-23.41
3679,-17.98
3691,-12.05
3703,-6.0
3715,-0.12
3727,5.32
3738,9.87
3749,12.92
3761,14.0
3773,12.84
3785,9.78
3797,5.53
3809,1.03
3821,-2.85
3833,-5.47
3845,-6.6
3857,-6.46
3869,-5.53
3881,-4.49
3893,-3.92
3905,-4.11
3917,-4.98
3928,-6.09
3939,-6.99
3951,-7.33
3963,-7.15
3975,-6.79
3987,-6.54
3999,-6.51
4011,-6.45
4023,-6.09
4035,-5.25
4047,-4.19
4059,-3.38
4071,-3.19
4083,-3.54
4095,-3.9
4107,-3.59
4118,-2.16
4129,0.13
4141,2.53
4153,4.05
4165,3.97
4177,2.17
4189,-0.99
4201,-4.98
4213,-9.42
4225,-14.0
4237,-18.47
4249,-22.59
4261,-26.03
4273,-28.79
4285,-31.14
4297,-33.58
4308,-36.5
4319,-39.88
4331,-43.23
4343,-45.79
4355,-47.03
4367,-46.68
4379,-44.82
4391,-41.48
4403,-36.48
4415,-29.57
4427,-20.76
4439,-10.6
4451,-0.08
4463,9.67
4475,17.98
4487,24.85
4498,30.68
4509,35.94
4521,40.65
4533,44.49
4545,47.02
4557,48.13
4569,48.26
4581,48.25
4593,48.96
4605,50.79
4617,53.68
4629,57.13
4641,60.68
4653,64.12
4665,67.48
4677,70.87
4688,74.26
4699,77.39
4711,79.85
4723,81.36
4735,81.66
4747,80.6
4759,78.01
4771,73.65
4783,67.5
4795,59.84
4807,51.32
4819,42.66
4831,34.54
4843,27.22
4855,20.78
4867,15.29
4878,11.08
4889,8.63
4901,8.31
4913,9.93
4925,12.58
4937,14.97
4949,15.97
4961,15.07
4973,12.69
4985,9.8
4997,7.5
5009,6.51
5021,6.95
5033,8.36
5045,9.97
5057,10.8
5068,10.01
5079,7.06
5091,1.95
5103,-4.59
5115,-11.48
5127,-17.57
5139,-22.1
5151,-24.8
5163,-25.75
5175,-25.26
5187,-23.48
5199,-20.61
5211,-16.87
5223,-12.86
5235,-9.41
5247,-7.45
5258,-7.55
5269,-9.71
5281,-13.4
5293,-17.55
5305,-21.13
5317,-23.2
5329,-23.21
5341,-21.04
5353,-17.0
5365,-11.77
5377,-6.15
5389,-0.75
5401,4.15
5413,8.48
5425,12.36
5437,15.78
5448,18.55
5459,20.44
5471,21.07
5483,20.11
5495,17.31
5507,12.66
5519,6.4
5531,-0.77
5543,-7.92
5555,-14.27
5567,-19.45
5579,-23.82
5591,-28.23
5603,-33.62
5615,-40.45
5627,-48.48
5638,-56.74
5649,-63.95
5661,-69.03
5673,-71.35
5685,-71.0
5697,-68.65
5709,-65.43
5721,-62.62
5733,-61.21
5745,-61.65
5757,-63.66
5769,-66.25
5781,-68.15
5793,-68.41
5805,-66.65
5817,-63.23
5828,-59.1
5839,-55.21
5851,-52.25
5863,-50.23
5875,-48.52
5887,-46.06
5899,-41.96
5911,-35.81
5923,-27.87
5935,-19.05
5947,-10.31
5959,-2.54
5971,3.7
5983,8.05
5995,10.38
6007,10.71
6018,9.55
6029,7.87
6041,6.91
6053,7.66
6065,10.35
6077,14.32
6089,18.33
6101,21.28
6113,22.71
6125,23.07
6137,23.14
6149,23.64
6161,24.84
6173,26.59
6185,28.61
6197,30.83
6208,33.29
6219,35.96
6231,38.54
6243,40.43
6255,41.1
6267,40.41
6279,38.87
6291,37.45
6303,37.25
6315,38.72
6327,41.51
6339,44.49
6351,46.35
6363,46.08
6375,43.43
6387,38.86
6398,33.14
6409,27.02
6421,20.84
6433,14.67
6445,8.39
6457,2.01
6469,-4.39
6481,-10.71
6493,-17.07
6505,-23.76
6517,-30.96
6529,-38.54
6541,-45.81
6553,-51.86
6565,-55.91
6577,-57.71
6588,-57.39
6599,-55.33
6611,-51.63
6623,-45.96
6635,-37.77
6647,-26.82
6659,-13.61
6671,0.55
6683,13.98
6695,25.24
6707,33.52
6719,38.57
6731,40.32
6743,38.62
6755,33.25
6767,24.35
6778,12.94
6789,1.29
6801,-7.58
6813,-10.67
6825,-6.44
6837,4.44
6849,18.98
6861,32.86
6873,42.24
6885,45.12
6897,42.23
6909,36.1
6921,29.64
6933,24.42
6945,20.0
6957,14.67
6968,6.88
6979,-3.38
6991,-14.52
7003,-24.28
7015,-31.46
7027,-36.68
7039,-42.14
7051,-50.15
7063,-61.47
7075,-74.67
7087,-86.77
7099,-94.74
7111,-97.0
7123,-94.04
7135,-87.95
7147,-81.34
7158,-76.39
7169,-74.19
7181,-74.93
7193,-78.13
7205,-83.14
7217,-89.05
7229,-94.8
7241,-99.35
7253,-101.78
7265,-101.92
7277,-100.22
7289,-97.65
7301,-95.13
7313,-93.08
7325,-91.34
7337,-89.26
7348,-85.96
7359,-80.61
7371,-72.59
7383,-61.43
7395,-46.94
7407,-29.18
7419,-8.51
7431,14.36
7443,38.62
7455,63.48
7467,88.26
7479,112.41
7491,135.27
7503,156.17
7515,174.5
7527,190.01
7538,202.81
7549,213.24
7561,221.65
7573,228.15
7585,232.67
7597,234.97
7609,234.98
7621,232.67
7633,228.22
7645,221.84
7657,213.84
7669,204.72
7681,195.16
7693,186.14
7705,178.6
7717,173.22
7728,170.1
7739,168.83
7751,168.48
7763,167.97
7775,166.41
7787,163.29
7799,158.71
7811,153.05
7823,146.64
7835,139.4
7847,130.69
7859,119.67
7871,105.84
7883,89.54
7895,71.85
7907,54.24
7918,37.76
7929,22.7
7941,8.87
7953,-4.17
7965,-16.36
7977,-27.17
7989,-36.14
8001,-43.41
8013,-49.96
8025,-56.97
8037,-65.23
8049,-74.2
8061,-82.29
8073,-87.33
8085,-87.55
8097,-82.36
8108,-72.46
8119,-59.25
8131,-44.31
8143,-29.08
8155,-14.7
8167,-2.38
8179,6.99
8191,13.1
8203,16.26
8215,17.33
8227,17.43
8239,17.35
8251,17.01
8263,15.48
8275,10.64
8287,0.56
8298,-15.8
8309,-38.61
8321,-67.43
8333,-101.43
8345,-139.79
8357,-181.91
8369,-227.22
8381,-276.3
8393,-329.54
8405,-387.06
8417,-448.81
8429,-514.01
8441,-579.54
8453,-639.43
8465,-685.55
8477,-709.49
8488,-707.35
8499,-679.53
8511,-630.75
8523,-568.54
8535,-500.98
8547,-433.4
8559,-368.07
8571,-305.51
8583,-245.24
8595,-189.64
8607,-140.56
8619,-97.89
8631,-59.29
8643,-21.32
8655,20.66
8667,70.06
8678,127.58
8689,204.04
8701,295.74
8713,388.13
8725,464.73
8737,517.41
8749,547.44
8761,562.26
8773,575.0
8785,590.92
8797,612.04
8809,636.75
8821,663.78
8833,692.48
8845,722.51
8857,742.54
8868,744.43
8879,722.8
8891,676.23
8903,609.48
8915,529.61
8927,445.56
8939,365.46
8951,294.68
8963,234.91
8975,186.96
8987,150.52
8999,124.43
9011,107.67
9023,97.49
9035,91.09
9047,86.28
9058,81.95
9069,77.54
9081,73.89
9093,71.49
9105,69.71
9117,67.4
9129,62.4
9141,53.01
9153,38.62
9165,19.92
9177,-1.74
9189,-24.24
9201,-46.13
9213,-67.24
9225,-88.12
9237,-109.8
9248,-132.83
9259,-156.85
9271,-180.51
9283,-202.35
9295,-221.21
9307,-237.31
9319,-252.29
9331,-268.45
9343,-287.72
9355,-310.7
9367,-336.38
9379,-362.69
9391,-387.52
9403,-409.75
9415,-430.0
9427,-450.26
9438,-473.11
9449,-500.92
9461,-535.28
9473,-576.75
9485,-624.13
9497,-673.78
9509,-719.35
9521,-752.57
9533,-765.59
9545,-753.95
9557,-719.03
9569,-667.96
9581,-611.12
9593,-557.79
9605,-512.66
9617,-474.65
9628,-438.97
9639,-401.01
9651,-359.59
9663,-317.84
9675,-281.03
9687,-253.44
9699,-235.45
9711,-223.49
9723,-212.05
9735,-196.52
9747,-175.34
9759,-150.29
9771,-124.78
9783,-101.55
9795,-81.3
9807,-62.56
9818,-43.22
9829,-21.93
9841,0.87
9853,23.2
9865,42.71
9877,57.9
9889,68.91
9901,77.33
9913,85.48
9925,95.31
9937,107.61
9949,121.97
9961,136.99
9973,151.13
9985,163.4
9997,173.8
10008,183.17
10019,192.73
10031,203.44
10043,215.67
10055,229.19
10067,243.4
10079,257.83
10091,272.48
10103,287.69
10115,303.58
10127,319.66
10139,334.49
10151,345.95
10163,352.17
10175,351.99
10187,345.5
10198,333.89
10209,318.95
10221,302.51
10233,286.12
10245,270.92
10257,257.51
10269,246.21
10281,236.85
10293,228.92
10305,221.71
10317,214.56
10329,206.99
10341,198.84
10353,190.08
10365,180.67
10377,170.61
10388,160.02
10399,149.12
10411,138.34
10423,128.14
10435,118.8
10447,110.5
10459,103.18
10471,96.68
10483,90.87
10495,85.54
10507,80.46
10519,75.48
10531,70.45
10543,65.35
10555,60.41
10567,55.94
10578,52.24
10589,49.4
10601,47.23
10613,45.21
10625,42.91
10637,39.9
10649,36.12
10661,32.05
10673,28.48
10685,26.35
10697,26.37
10709,28.66
10721,32.79
10733,38.01
10745,43.41
10757,48.16
10768,51.82
10779,54.08
10791,54.85
10803,54.19
10815,52.16
10827,48.91
10839,44.85
10851,40.5
10863,36.6
10875,33.85
10887,32.43
10899,32.05
10911,31.81
10923,30.64
10935,27.73
10947,22.93
10958,16.72
10969,9.99
10981,3.64
10993,-1.79
11005,-6.04
11017,-9.14
11029,-11.21
11041,-12.4
11053,-12.95
11065,-13.2
11077,-13.45
11089,-13.9
11101,-14.64
11113,-15.62
11125,-16.89
11137,-18.69
11148,-21.18
11159,-24.21
11171,-27.33
11183,-29.86
11195,-31.33
11207,-31.84
11219,-31.95
11231,-32.32
11243,-33.23
11255,-34.21
11267,-34.25
11279,-32.18
11291,-27.3
11303,-19.67
11315,-10.16
11327,-0.08
11338,9.24
11349,16.83
11361,22.18
11373,25.28
11385,26.53
11397,26.5
11409,25.84
11421,25.08
11433,24.57
11445,24.52
11457,25.06
11469,26.3
11481,28.23
11493,30.66
11505,33.16
11517,35.15
11528,36.02
11539,35.43
11551,33.32
11563,29.87
11575,25.39
11587,20.15
11599,14.33
11611,8.17
11623,1.94
11635,-3.97
11647,-9.21
11659,-13.66
11671,-17.4
11683,-20.64
11695,-23.51
11707,-25.88
11718,-27.4
11729,-27.77
11741,-26.92
11753,-25.2
11765,-23.32
11777,-22.13
11789,-22.2
11801,-23.59
11813,-25.82
11825,-28.15
11837,-29.84
11849,-30.43
11861,-29.76
11873,-27.77
11885,-24.53
11897,-19.99
11908,-14.14
11919,-7.13
11931,0.6
11943,8.36
11955,15.43
11967,21.21
11979,25.47
11991,28.29
12003,29.88
12015,30.43
12027,29.96
12039,28.42
12051,25.81
12063,22.42
12075,18.7
12087,15.12
12098,11.96
12109,9.1
12121,6.11
12133,2.6
12145,-1.56
12157,-6.03
12169,-10.02
12181,-12.76
12193,-13.8
12205,-13.3
12217,-12.01
12229,-10.88
12241,-10.7
12253,-11.64
12265,-13.32
12277,-14.98
12288,-16.03
12299,-16.27
12311,-16.05
12323,-16.05
12335,-16.9
12347,-18.88
12359,-21.81
12371,-25.23
12383,-28.7
12395,-32.0
12407,-35.18
12419,-38.39
12431,-41.8
12443,-45.41
12455,-49.08
12467,-52.57
12478,-55.59
12489,-57.82
12501,-58.78
12513,-57.9
12525,-54.59
12537,-48.55
12549,-39.86
12561,-29.16
12573,-17.46
12585,-5.92
12597,4.47
12609,12.99
12621,19.29
12633,23.34
12645,25.43
12657,26.02
12668,25.6
12679,24.66
12691,23.46
12703,22.07
12715,20.42
12727,18.38
12739,15.87
12751,13.01
12763,9.91
12775,6.77
12787,3.73
12799,0.86
12811,-1.78
12823,-4.15
12835,-6.14
12847,-7.7
12858,-8.7
12869,-9.08
12881,-8.77
12893,-7.74
12905,-6.09
12917,-3.93
12929,-1.45
12941,1.24
12953,4.02
12965,6.78
12977,9.34
12989,11.49
13001,13.05
13013,13.86
13025,14.08
13037,13.97
13048,13.92
13059,14.17
13071,14.77
13083,15.42
13095,15.67
13107,15.03
13119,13.17
13131,10.16
13143,6.35
13155,2.4
13167,-1.03
13179,-3.38
13191,-4.27
13203,-3.56
13215,-1.26
13227,2.43
13238,7.29
13249,12.97
13261,18.99
13273,24.87
13285,30.05
13297,34.1
13309,36.69
13321,37.79
13333,37.44
13345,35.83
13357,33.16
13369,29.65
13381,25.6
13393,21.48
13405,17.89
13417,15.43
13428,14.55
13439,15.27
13451,17.21
13463,19.6
13475,21.7
13487,22.78
13499,22.6
13511,21.18
13523,18.82
13535,15.94
13547,12.91
13559,9.95
13571,7.12
13583,4.53
13595,2.27
13607,0.54
13618,-0.55
13629,-1.04
13641,-1.27
13653,-1.81
13665,-3.23
13677,-5.95
13689,-9.88
13701,-14.52
13713,-19.15
13725,-23.18
13737,-26.31
13749,-28.61
13761,-30.35
13773,-31.76
13785,-33.02
13797,-34.21
13808,-35.39
13819,-36.61
13831,-37.96
13843,-39.39
13855,-40.48
13867,-40.6
13879,-39.03
13891,-35.27
13903,-29.34
13915,-21.79
13927,-13.5
13939,-5.49
13951,1.45
13963,6.95
13975,11.0
13987,13.84
13998,15.73
14009,16.84
14021,17.14
14033,16.65
14045,15.42
14057,13.76
14069,12.14
14081,10.98
14093,10.64
14105,11.17
14117,12.4
14129,13.99
14141,15.64
14153,16.96
14165,17.68
14177,17.63
14188,16.65
14199,14.86
14211,12.56
14223,10.18
14235,8.05
14247,6.41
14259,5.16
14271,4.16
14283,3.27
14295,2.42
14307,1.65
14319,0.91
14331,0.02
14343,-1.27
14355,-3.04
14367,-5.17
14378,-7.2
14389,-8.44
14401,-8.44
14413,-7.02
14425,-4.58
14437,-1.92
14449,0.01
14461,0.33
14473,-1.51
14485,-5.6
14497,-11.52
14509,-18.57
14521,-25.65
14533,-31.81
14545,-36.4
14557,-39.24
14568,-40.74
14579,-41.71
14591,-42.83
14603,-44.3
14615,-45.69
14627,-45.89
14639,-43.73
14651,-38.53
14663,-30.47
14675,-20.61
14687,-10.56
14699,-1.83
14711,4.62
14723,8.44
14735,10.07
14747,10.19
14758,9.5
14769,8.56
14781,7.67
14793,6.94
14805,6.4
14817,5.99
14829,5.52
14841,4.76
14853,3.52
14865,1.76
14877,0.0
14889,-0.89
14901,0.1
14913,3.6
14925,9.22
14937,15.64
14948,20.82
14959,22.94
14971,20.96
14983,15.11
14995,6.52
15007,-3.17
15019,-12.46
15031,-20.31
15043,-26.05
15055,-29.3
15067,-29.85
15079,-27.83
15091,-23.8
15103,-18.86
15115,-14.3
15127,-11.2
15138,-10.2
15149,-11.23
15161,-13.73
15173,-16.89
15185,-20.0
15197,-22.66
15209,-24.89
15221,-27.1
15233,-29.69
15245,-32.86
15257,-36.08
15269,-38.35
15281,-38.41
15293,-35.51
15305,-29.91
15317,-22.95
15328,-16.65
15339,-12.78
15351,-12.31
15363,-14.89
15375,-19.38
15387,-24.3
15399,-28.41
15411,-30.85
15423,-30.99
15435,-28.32
15447,-22.52
15459,-13.8
15471,-3.05
15483,8.1
15495,17.82
15507,24.64
15518,28.02
15529,28.49
15541,27.36
15553,26.07
15565,25.69
15577,26.67
15589,28.84
15601,31.73
15613,34.88
15625,37.9
15637,40.57
15649,42.65
15661,43.86
15673,43.89
15685,42.62
15697,40.24
15708,37.34
15719,34.83
15731,33.54
15743,33.98
15755,36.0
15767,38.85
15779,41.42
15791,42.71
15803,42.31
15815,40.47
15827,37.98
15839,35.66
15851,34.06
15863,33.11
15875,32.34
15887,31.15
15898,29.13
15909,26.17
15921,22.47
15933,18.4
15945,14.31
15957,10.59
15969,7.53
15981,5.42
15993,4.52
16005,5.05
16017,7.15
16029,10.72
16041,15.46
16053,20.74
16065,25.69
16077,29.33
16088,31.03
16099,30.62
16111,28.5
16123,25.27
16135,21.41
16147,17.05
16159,12.06
16171,6.28
16183,0.03
16195,-5.85
16207,-10.16
16219,-11.79
16231,-10.11
16243,-5.11
16255,2.71
16267,12.72
16278,24.22
16289,36.43
16301,48.18
16313,57.7
16325,62.79
16337,61.45
16349,52.73
16361,37.4
16373,17.91
16385,-2.36
16397,-19.99
16409,-32.88
16421,-40.65
16433,-44.56
16445,-46.72
16457,-49.21
16468,-53.25
16479,-58.92
16491,-65.47
16503,-71.78
16515,-76.8
16527,-80.0
16539,-81.27
16551,-80.75
16563,-78.58
16575,-74.5
16587,-67.94
16599,-58.33
16611,-45.58
16623,-30.34
16635,-14.21
16647,0.69
16658,12.31
16669,19.18
16681,21.1
16693,19.15
16705,15.29
16717,11.69
16729,10.06
16741,11.0
16753,14.07
16765,18.12
16777,21.78
16789,23.98
16801,24.07
16813,21.66
16825,16.46
16837,8.21
16848,-3.09
16859,-16.69
16871,-31.11
16883,-44.53
16895,-55.49
16907,-63.42
16919,-68.69
16931,-71.95
16943,-73.5
16955,-72.84
16967,-68.84
16979,-60.48
16991,-47.76
17003,-31.87
17015,-14.88
17027,0.91
17038,13.97
17049,23.69
17061,30.27
17073,34.31
17085,36.38
17097,36.67
17109,35.33
17121,32.64
17133,29.07
17145,25.56
17157,23.0
17169,21.98
17181,22.61
17193,24.42
17205,26.61
17217,28.47
17228,29.58
17239,29.72
17251,29.07
17263,27.79
17275,25.96
17287,23.67
17299,21.08
17311,18.42
17323,15.97
17335,13.89
17347,12.01
17359,10.04
17371,7.52
17383,4.1
17395,-0.21
17407,-5.11
17418,-10.09
17429,-14.7
17441,-18.72
17453,-22.3
17465,-25.66
17477,-29.11
17489,-32.77
17501,-36.53
17513,-40.13
17525,-43.37
17537,-46.12
17549,-48.57
17561,-51.13
17573,-54.24
17585,-58.24
17597,-63.14
17608,-68.39
17619,-73.35
17631,-77.39
17643,-80.35
17655,-82.57
17667,-84.64
17679,-86.91
17691,-89.07
17703,-89.99
17715,-88.02
17727,-81.74
17739,-70.49
17751,-54.81
17763,-36.31
17775,-17.11
17787,0.74
17798,15.72
17809,27.04
17821,34.46
17833,38.28
17845,39.13
17857,37.96
17869,35.95
17881,34.13
17893,33.26
17905,33.41
17917,34.16
17929,34.89
17941,35.2
17953,35.03
17965,34.71
17977,34.41
17988,34.02
17999,33.1
18011,31.23
18023,28.36
18035,24.94
18047,21.76
18059,19.37
18071,17.81
18083,16.59
18095,15.01
18107,12.59
18119,9.37
18131,5.77
18143,2.15
18155,-1.3
18167,-4.79
18178,-8.63
18189,-12.91
18201,-17.37
18213,-21.42
18225,-24.4
18237,-26.0
18249,-26.45
18261,-26.4
18273,-26.61
18285,-27.63
18297,-29.61
18309,-32.25
18321,-34.98
18333,-37.14
18345,-38.22
18357,-38.01
18368,-36.66
18379,-34.63
18391,-32.51
18403,-30.8
18415,-29.66
18427,-28.58
18439,-26.5
18451,-21.99
18463,-13.78
18475,-1.28
18487,15.09
18499,33.9
18511,53.21
18523,70.99
18535,85.75
18547,96.74
18558,104.04
18569,108.24
18581,110.14
18593,110.2
18605,108.36
18617,104.11
18629,96.72
18641,85.85
18653,71.97
18665,56.5
18677,41.49
18689,28.98
18701,20.16
18713,14.87
18725,11.9
18737,9.44
18748,6.06
18759,1.28
18771,-4.43
18783,-10.12
18795,-15.09
18807,-19.29
18819,-23.3
18831,-27.84
18843,-33.29
18855,-39.42
18867,-45.44
18879,-50.44
18891,-53.77
18903,-55.27
18915,-55.15
18927,-53.75
18938,-51.15
18949,-47.14
18961,-41.39
18973,-33.83
18985,-25.02
18997,-16.21
19009,-9.06
19021,-5.02
19033,-4.62
19045,-7.31
19057,-11.68
19069,-16.07
19081,-19.37
19093,-21.37
19105,-22.59
19117,-23.62
19128,-24.51
19139,-24.45
19151,-22.11
19163,-16.28
19175,-6.51
19187,6.57
19199,21.47
19211,36.42
19223,49.9
19235,61.03
19247,69.46
19259,75.1
19271,77.89
19283,77.85
19295,75.15
19307,70.44
19318,64.84
19329,59.71
19341,56.16
19353,54.72
19365,55.25
19377,57.17
19389,59.73
19401,62.17
19413,63.88
19425,64.45
19437,63.65
19449,61.7
19461,59.31
19473,57.59
19485,57.67
19497,59.99
19508,63.81
19519,67.27
19531,68.08
19543,64.34
19555,55.23
19567,41.18
19579,23.48
19591,3.53
19603,-17.47
19615,-38.66
19627,-59.12
19639,-77.6
19651,-92.75
19663,-103.59
19675,-110.13
19687,-113.37
19698,-114.97
19709,-116.32
19721,-117.98
19733,-119.56
19745,-120.36
19757,-120.1
19769,-119.25
19781,-118.77
19793,-119.55
19805,-121.47
19817,-123.16
19829,-122.3
19841,-116.43
19853,-103.94
19865,-84.67
19877,-60.02
19888,-32.67
19899,-5.91
19911,17.27
19923,34.95
19935,46.69
19947,53.55
19959,57.5
19971,60.44
19983,63.48
19995,66.57
20007,68.83
20019,69.53
20031,68.72
20043,67.41
20055,66.93
20067,68.03
20078,70.16
20089,71.38
20101,69.22
20113,61.73
20125,48.47
20137,30.76
20149,11.08
20161,-7.81
20173,-23.87
20185,-36.29
20197,-45.42
20209,-52.21
20221,-57.37
20233,-61.06
20245,-62.75
20257,-61.82
20268,-58.27
20279,-52.99
20291,-47.61
20303,-43.72
20315,-42.07
20327,-42.14
20339,-42.54
20351,-41.92
20363,-39.78
20375,-36.88
20387,-34.78
20399,-34.95
20411,-38.04
20423,-43.6
20435,-50.48
20447,-57.43
20458,-63.53
20469,-68.03
20481,-70.2
20493,-69.05
20505,-63.54
20517,-53.11
20529,-38.18
20541,-20.31
20553,-1.98
20565,14.25
20577,26.42
20589,33.69
20601,36.45
20613,35.94
20625,33.8
20637,31.52
20648,30.07
20659,29.65
20671,30.16
20683,31.35
20695,33.24
20707,36.03
20719,39.88
20731,44.48
20743,48.97
20755,52.15
20767,53.03
20779,51.43
20791,48.07
20803,44.08
20815,40.43
20827,37.35
20838,34.19
20849,30.08
20861,24.46
20873,17.57
20885,10.3
20897,3.65
20909,-1.77
20921,-6.09
20933,-9.96
20945,-14.08
20957,-18.84
20969,-24.19
20981,-29.71
20993,-34.95
