seconds,BVP
5,-36.76
17,-34.61
29,-30.98
41,-26.8
53,-22.96
65,-20.14
77,-18.7
89,-18.62
101,-19.47
113,-20.68
125,-21.67
137,-22.17
148,-22.24
159,-22.28
171,-23.02
183,-25.42
195,-30.54
207,-39.08
219,-50.95
231,-64.75
243,-77.68
255,-86.28
267,-87.36
279,-79.25
291,-62.54
303,-39.84
315,-14.91
327,8.56
338,27.92
349,41.92
361,50.42
373,54.12
385,53.97
397,51.01
409,46.41
421,41.4
433,36.99
445,33.97
457,32.47
469,32.16
481,32.4
493,32.33
505,31.33
517,29.16
528,26.01
539,22.35
551,18.77
563,15.76
575,13.44
587,11.66
599,9.91
611,7.68
623,4.69
635,0.96
647,-3.19
659,-7.26
671,-10.81
683,-13.58
695,-15.53
707,-16.86
718,-17.72
729,-18.28
741,-18.71
753,-19.25
765,-20.11
777,-21.57
789,-23.84
801,-26.97
813,-30.93
825,-35.44
837,-40.34
849,-45.47
861,-50.9
873,-56.76
885,-63.22
897,-70.1
908,-76.77
919,-81.94
931,-83.87
943,-80.93
955,-72.09
967,-57.43
979,-38.18
991,-16.58
1003,4.84
1015,23.75
1027,38.35
1039,47.71
1051,51.61
1063,50.59
1075,45.77
1087,38.71
1098,31.08
1109,24.27
1121,19.26
1133,16.35
1145,15.37
1157,15.75
1169,16.79
1181,17.82
1193,18.29
1205,18.12
1217,17.51
1229,17.03
1241,17.12
1253,17.99
1265,19.28
1277,20.28
1288,20.25
1299,18.69
1311,15.79
1323,12.14
1335,8.57
1347,5.51
1359,2.94
1371,0.3
1383,-3.07
1395,-7.47
1407,-12.75
1419,-18.24
1431,-23.01
1443,-26.23
1455,-27.49
1467,-26.82
1478,-24.66
1489,-21.7
1501,-18.65
1513,-16.24
1525,-15.17
1537,-16.05
1549,-19.38
1561,-25.33
1573,-33.55
1585,-42.91
1597,-51.57
1609,-57.26
1621,-57.95
1633,-52.51
1645,-41.09
1657,-25.12
1668,-6.8
1679,11.63
1691,28.4
1703,42.48
1715,53.31
1727,60.44
1739,63.5
1751,62.24
1763,57.0
1775,48.95
1787,40.1
1799,32.59
1811,28.04
1823,26.87
1835,28.14
1847,30.15
1858,31.17
1869,30.32
1881,27.8
1893,24.81
1905,22.82
1917,22.83
1929,24.92
1941,28.21
1953,31.34
1965,33.04
1977,32.62
1989,30.07
2001,26.0
2013,21.23
2025,16.37
2037,11.73
2048,7.13
2059,2.32
2071,-2.92
2083,-8.44
2095,-13.73
2107,-18.14
2119,-21.04
2131,-22.22
2143,-21.89
2155,-20.59
2167,-18.89
2179,-17.26
2191,-16.04
2203,-15.55
2215,-16.28
2227,-18.65
2238,-22.88
2249,-28.54
2261,-34.55
2273,-39.39
2285,-41.54
2297,-40.03
2309,-34.59
2321,-25.63
2333,-13.97
2345,-0.52
2357,13.85
2369,28.16
2381,41.07
2393,51.06
2405,56.64
2417,56.95
2428,52.08
2439,43.3
2451,32.79
2463,23.09
2475,16.29
2487,13.38
2499,13.98
2511,16.79
2523,20.12
2535,22.56
2547,23.56
2559,23.36
2571,22.69
2583,22.18
2595,21.92
2607,21.36
2618,19.81
2629,16.76
2641,12.24
2653,6.95
2665,1.97
2677,-1.74
2689,-3.63
2701,-3.94
2713,-3.5
2725,-3.44
2737,-4.86
2749,-8.34
2761,-13.79
2773,-20.51
2785,-27.47
2797,-33.46
2808,-37.78
2819,-40.06
2831,-40.41
2843,-39.39
2855,-37.85
2867,-36.75
2879,-37.13
2891,-39.88
2903,-45.07
2915,-51.94
2927,-58.58
2939,-62.48
2951,-61.34
2963,-53.98
2975,-40.61
2987,-22.99
2998,-3.7
3009,14.78
3021,30.38
3033,41.87
3045,48.69
3057,50.81
3069,48.63
3081,43.09
3093,35.57
3105,27.73
3117,21.29
3129,17.34
3141,16.14
3153,17.04
3165,18.71
3177,19.83
3188,19.51
3199,17.7
3211,15.18
3223,13.29
3235,13.07
3247,14.92
3259,18.32
3271,21.98
3283,24.52
3295,24.9
3307,22.83
3319,18.79
3331,13.87
3343,9.0
3355,4.8
3367,1.26
3378,-2.24
3389,-6.41
3401,-11.76
3413,-18.19
3425,-25.1
3437,-31.36
3449,-36.0
3461,-38.42
3473,-38.61
3485,-37.16
3497,-34.9
3509,-32.87
3521,-31.84
3533,-32.5
3545,-35.06
3557,-39.25
3568,-44.2
3579,-48.38
3591,-49.96
3603,-47.2
3615,-39.26
3627,-26.36
3639,-9.99
3651,7.52
3663,23.56
3675,35.85
3687,42.96
3699,44.54
3711,41.49
3723,35.57
3735,29.1
3747,24.26
3758,22.49
3769,24.15
3781,28.39
3793,33.63
3805,38.11
3817,40.7
3829,41.15
3841,40.15
3853,38.77
3865,38.11
3877,38.74
3889,40.54
3901,42.84
3913,44.67
3925,45.28
3937,44.26
3948,41.86
3959,38.66
3971,35.58
3983,33.5
3995,32.81
4007,33.09
4019,33.1
4031,31.15
4043,25.68
4055,16.1
4067,3.05
4079,-11.55
4091,-25.17
4103,-35.71
4115,-42.16
4127,-44.92
4138,-45.39
4149,-45.37
4161,-46.19
4173,-48.58
4185,-52.66
4197,-57.93
4209,-63.55
4221,-68.01
4233,-69.4
4245,-65.77
4257,-55.86
4269,-39.73
4281,-18.93
4293,3.78
4305,25.55
4317,44.1
4328,58.26
4339,67.73
4351,72.6
4363,73.01
4375,69.26
4387,62.02
4399,52.55
4411,42.51
4423,33.22
4435,25.19
4447,17.97
4459,10.43
4471,1.64
4483,-8.51
4495,-19.08
4507,-28.51
4518,-35.19
4529,-38.41
4541,-38.34
4553,-35.99
4565,-32.78
4577,-29.83
4589,-27.78
4601,-26.71
4613,-26.28
4625,-26.11
4637,-26.03
4649,-26.2
4661,-27.06
4673,-28.99
4685,-32.13
4697,-35.98
4708,-39.66
4719,-42.05
4731,-42.43
4743,-40.72
4755,-37.64
4767,-34.39
4779,-32.3
4791,-32.38
4803,-35.08
4815,-40.37
4827,-47.64
4839,-55.95
4851,-64.07
4863,-70.64
4875,-74.45
4887,-74.66
4898,-70.96
4909,-63.56
4921,-53.06
4933,-40.16
4945,-25.6
4957,-10.26
4969,4.84
4981,18.23
4993,28.35
5005,33.72
5017,33.64
5029,28.44
5041,19.77
5053,10.13
5065,2.04
5077,-2.56
5088,-3.21
5099,-0.59
5111,3.71
5123,8.18
5135,11.92
5147,14.82
5159,17.39
5171,20.06
5183,22.89
5195,25.22
5207,26.24
5219,25.22
5231,22.17
5243,17.8
5255,13.2
5267,9.44
5278,7.04
5289,5.99
5301,5.65
5313,5.43
5325,4.83
5337,3.74
5349,2.43
5361,1.25
5373,0.56
5385,0.47
5397,1.06
5409,2.09
5421,3.31
5433,4.21
5445,4.05
5457,1.98
5468,-2.79
5479,-10.33
5491,-19.88
5503,-29.54
5515,-36.7
5527,-38.85
5539,-34.35
5551,-23.13
5563,-6.6
5575,12.73
5587,32.08
5599,48.91
5611,61.19
5623,67.71
5635,67.95
5647,62.47
5658,53.08
5669,42.92
5681,35.59
5693,34.15
5705,39.7
5717,50.72
5729,63.5
5741,73.74
5753,78.41
5765,76.77
5777,70.58
5789,62.63
5801,55.33
5813,49.5
5825,44.35
5837,38.24
5848,29.96
5859,19.59
5871,8.36
5883,-1.94
5895,-9.98
5907,-15.45
5919,-19.0
5931,-21.97
5943,-25.67
5955,-30.87
5967,-37.57
5979,-45.05
5991,-52.18
6003,-57.69
6015,-60.61
6027,-60.45
6038,-57.45
6049,-52.43
6061,-46.69
6073,-41.65
6085,-38.54
6097,-38.11
6109,-40.51
6121,-45.24
6133,-51.11
6145,-56.4
6157,-58.98
6169,-56.83
6181,-48.65
6193,-34.27
6205,-14.87
6217,7.22
6228,28.95
6239,47.54
6251,60.97
6263,68.4
6275,70.19
6287,67.41
6299,61.69
6311,54.69
6323,48.02
6335,42.77
6347,39.57
6359,38.25
6371,37.95
6383,37.4
6395,35.26
6407,30.91
6418,24.66
6429,17.86
6441,12.22
6453,9.13
6465,8.8
6477,10.18
6489,11.51
6501,11.12
6513,8.41
6525,4.03
6537,-0.59
6549,-3.96
6561,-5.35
6573,-5.25
6585,-5.02
6597,-6.13
6608,-9.61
6619,-15.34
6631,-22.35
6643,-29.26
6655,-34.83
6667,-38.37
6679,-39.99
6691,-40.24
6703,-39.72
6715,-39.11
6727,-38.85
6739,-39.43
6751,-41.23
6763,-44.44
6775,-48.58
6787,-52.43
6798,-54.08
6809,-51.49
6821,-43.48
6833,-30.12
6845,-13.0
6857,5.62
6869,23.49
6881,39.07
6893,51.77
6905,61.65
6917,68.82
6929,72.97
6941,73.66
6953,70.54
6965,64.04
6977,55.55
6988,46.9
6999,39.72
7011,34.77
7023,31.51
7035,28.55
7047,24.45
7059,18.51
7071,11.24
7083,4.23
7095,-0.66
7107,-2.18
7119,-0.24
7131,4.03
7143,8.85
7155,12.58
7167,14.19
7178,13.75
7189,12.19
7201,10.71
7213,10.36
7225,11.37
7237,13.25
7249,15.11
7261,16.18
7273,16.12
7285,15.33
7297,14.65
7309,14.71
7321,15.69
7333,17.09
7345,18.07
7357,17.84
7368,16.02
7379,12.56
7391,7.72
7403,1.73
7415,-5.1
7427,-12.22
7439,-18.66
7451,-23.0
7463,-23.82
7475,-20.25
7487,-12.51
7499,-1.79
7511,10.29
7523,22.44
7535,34.31
7547,46.22
7558,58.5
7569,70.61
7581,80.76
7593,86.32
7605,84.91
7617,75.72
7629,60.0
7641,41.02
7653,22.69
7665,8.11
7677,-1.4
7689,-6.42
7701,-8.71
7713,-10.25
7725,-12.32
7737,-15.29
7748,-18.77
7759,-22.22
7771,-25.26
7783,-27.96
7795,-30.56
7807,-33.34
7819,-36.43
7831,-39.74
7843,-42.98
7855,-45.6
7867,-46.99
7879,-46.58
7891,-44.18
7903,-40.04
7915,-34.88
7927,-29.7
7938,-25.5
7949,-23.09
7961,-22.86
7973,-24.65
7985,-27.8
7997,-31.21
8009,-33.7
8021,-34.38
8033,-32.95
8045,-30.01
8057,-26.96
8069,-25.5
8081,-27.15
8093,-32.78
8105,-42.21
8117,-54.43
8128,-67.63
8139,-79.44
8151,-87.2
8163,-88.63
8175,-82.34
8187,-68.55
8199,-49.13
8211,-27.13
8223,-5.8
8235,12.22
8247,25.5
8259,33.89
8271,38.04
8283,39.01
8295,38.01
8307,36.21
8318,34.73
8329,34.45
8341,35.8
8353,38.61
8365,42.25
8377,45.67
8389,47.95
8401,48.49
8413,47.26
8425,44.87
8437,42.24
8449,40.35
8461,39.67
8473,39.96
8485,40.22
8497,39.17
8508,35.75
8519,29.69
8531,21.63
8543,12.74
8555,4.3
8567,-2.84
8579,-8.48
8591,-13.14
8603,-17.4
8615,-21.75
8627,-25.99
8639,-29.49
8651,-31.31
8663,-30.86
8675,-28.27
8687,-24.36
8698,-20.54
8709,-18.12
8721,-17.87
8733,-19.84
8745,-23.44
8757,-27.89
8769,-32.76
8781,-38.05
8793,-44.12
8805,-51.41
8817,-60.18
8829,-70.22
8841,-80.91
8853,-90.91
8865,-98.35
8877,-101.13
8888,-97.54
8899,-86.86
8911,-69.88
8923,-48.8
8935,-26.73
8947,-6.86
8959,8.45
8971,18.01
8983,22.06
8995,21.47
9007,17.73
9019,12.26
9031,6.54
9043,1.99
9055,-0.17
9067,0.88
9078,5.24
9089,12.18
9101,20.08
9113,27.04
9125,31.56
9137,33.2
9149,32.83
9161,32.24
9173,33.39
9185,37.29
9197,43.5
9209,50.23
9221,55.08
9233,56.0
9245,52.22
9257,44.49
9268,34.63
9279,24.98
9291,17.37
9303,12.58
9315,10.24
9327,9.23
9339,8.01
9351,5.33
9363,0.75
9375,-5.31
9387,-11.52
9399,-16.2
9411,-17.97
9423,-16.23
9435,-11.47
9447,-5.22
9458,0.46
9469,3.81
9481,3.85
9493,0.61
9505,-4.95
9517,-11.67
9529,-18.57
9541,-25.36
9553,-32.47
9565,-40.64
9577,-50.65
9589,-62.78
9601,-76.72
9613,-91.41
9625,-105.16
9637,-115.93
9648,-121.71
9659,-120.93
9671,-112.79
9683,-97.56
9695,-76.68
9707,-52.36
9719,-27.14
9731,-3.38
9743,17.02
9755,32.67
9767,42.59
9779,46.29
9791,43.75
9803,35.6
9815,23.45
9827,9.59
9838,-3.43
9849,-13.8
9861,-21.09
9873,-26.5
9885,-32.15
9897,-39.99
9909,-50.75
9921,-63.12
9933,-74.52
9945,-82.18
9957,-84.7
9969,-82.79
9981,-79.41
9993,-78.32
10005,-82.49
10017,-92.87
10028,-107.84
10039,-124.01
10051,-137.44
10063,-145.09
10075,-145.67
10087,-140.13
10099,-130.83
10111,-120.63
10123,-111.8
10135,-105.16
10147,-99.98
10159,-94.29
10171,-85.69
10183,-72.39
10195,-54.0
10207,-31.77
10218,-8.27
10229,13.42
10241,30.87
10253,42.94
10265,50.02
10277,53.65
10289,55.76
10301,57.92
10313,61.16
10325,65.84
10337,71.68
10349,78.02
10361,83.77
10373,87.62
10385,88.42
10397,86.02
10408,81.62
10419,77.72
10431,77.41
10443,82.99
10455,95.17
10467,112.59
10479,132.53
10491,151.86
10503,168.21
10515,180.48
10527,188.63
10539,193.44
10551,195.76
10563,196.45
10575,196.09
10587,195.11
10598,193.71
10609,191.95
10621,189.62
10633,186.34
10645,181.93
10657,176.33
10669,169.99
10681,163.72
10693,158.41
10705,154.7
10717,152.79
10729,152.14
10741,151.71
10753,150.35
10765,147.06
10777,141.4
10788,133.75
10799,125.06
10811,116.56
10823,109.33
10835,103.82
10847,99.52
10859,95.25
10871,89.31
10883,79.87
10895,65.82
10907,46.86
10919,23.69
10931,-2.13
10943,-28.55
10955,-53.33
10967,-74.36
10978,-90.19
10989,-100.38
11001,-105.52
11013,-107.36
11025,-108.22
11037,-110.45
11049,-115.56
11061,-123.83
11073,-134.05
11085,-144.33
11097,-152.77
11109,-158.45
11121,-161.99
11133,-165.2
11145,-170.13
11157,-177.93
11168,-187.97
11179,-197.74
11191,-203.91
11203,-203.67
11215,-195.72
11227,-180.8
11239,-160.97
11251,-138.45
11263,-114.95
11275,-91.39
11287,-68.17
11299,-45.98
11311,-25.93
11323,-9.26
11335,3.17
11347,11.64
11358,17.54
11369,22.75
11381,28.79
11393,36.32
11405,44.76
11417,52.85
11429,59.19
11441,62.65
11453,62.91
11465,60.27
11477,55.56
11489,49.75
11501,43.85
11513,38.51
11525,34.1
11537,30.69
11548,27.99
11559,25.73
11571,23.81
11583,22.37
11595,21.78
11607,22.31
11619,23.69
11631,25.0
11643,24.84
11655,21.81
11667,15.3
11679,5.85
11691,-4.98
11703,-15.22
11715,-23.34
11727,-29.01
11738,-33.09
11749,-37.02
11761,-42.15
11773,-48.78
11785,-56.26
11797,-63.2
11809,-68.17
11821,-70.29
11833,-69.67
11845,-67.21
11857,-64.16
11869,-61.97
11881,-61.65
11893,-63.68
11905,-67.8
11917,-73.02
11928,-77.58
11939,-79.38
11951,-76.57
11963,-68.15
11975,-54.54
11987,-37.36
11999,-18.8
12011,-0.8
12023,15.55
12035,30.12
12047,43.22
12059,54.96
12071,64.83
12083,71.7
12095,74.38
12107,72.31
12118,65.85
12129,56.33
12141,45.73
12153,36.06
12165,28.8
12177,24.68
12189,23.5
12201,24.42
12213,26.43
12225,28.72
12237,30.98
12249,33.37
12261,36.12
12273,39.05
12285,41.51
12297,42.59
12308,41.55
12319,38.39
12331,33.79
12343,28.82
12355,24.4
12367,20.85
12379,18.02
12391,15.47
12403,12.88
12415,10.29
12427,8.08
12439,6.52
12451,5.61
12463,4.99
12475,4.1
12487,2.55
12498,0.29
12509,-2.34
12521,-4.76
12533,-6.28
12545,-6.49
12557,-5.38
12569,-3.45
12581,-1.64
12593,-1.21
12605,-3.26
12617,-8.2
12629,-15.48
12641,-23.29
12653,-29.1
12665,-30.45
12677,-25.78
12688,-15.01
12699,0.42
12711,18.41
12723,37.03
12735,55.08
12747,72.17
12759,88.28
12771,102.98
12783,115.07
12795,122.96
12807,125.17
12819,121.25
12831,111.97
12843,99.11
12855,84.77
12867,70.91
12878,58.9
12889,49.62
12901,43.53
12913,40.57
12925,40.03
12937,40.48
12949,39.99
12961,37.01
12973,31.03
12985,22.94
12997,14.77
13009,8.74
13021,6.11
13033,6.6
13045,8.54
13057,9.48
13068,7.52
13079,1.9
13091,-6.78
13103,-16.95
13115,-26.82
13127,-35.14
13139,-41.36
13151,-45.57
13163,-48.26
13175,-49.58
13187,-49.37
13199,-47.29
13211,-43.22
13223,-37.71
13235,-32.25
13247,-28.89
13258,-29.85
13269,-36.85
13281,-50.53
13293,-70.65
13305,-96.2
13317,-125.65
13329,-156.88
13341,-187.06
13353,-212.28
13365,-228.16
13377,-230.77
13389,-217.95
13401,-190.52
13413,-152.26
13425,-109.12
13437,-67.51
13448,-32.82
13459,-7.98
13471,6.6
13483,12.69
13495,13.39
13507,12.09
13519,11.75
13531,14.39
13543,20.82
13555,30.74
13567,43.21
13579,56.98
13591,70.88
13603,84.0
13615,95.59
13627,105.11
13638,112.12
13649,116.27
13661,117.38
13673,115.58
13685,111.16
13697,104.48
13709,95.98
13721,85.9
13733,74.61
13745,62.42
13757,49.78
13769,37.41
13781,26.14
13793,16.83
13805,9.91
13817,5.27
13828,2.03
13839,-1.11
13851,-5.4
13863,-11.4
13875,-18.71
13887,-26.01
13899,-31.81
13911,-35.23
13923,-36.35
13935,-36.09
13947,-35.59
13959,-35.55
13971,-35.78
13983,-35.53
13995,-34.05
14007,-31.23
14018,-27.57
14029,-23.62
14041,-19.2
14053,-12.99
14065,-2.97
14077,12.84
14089,35.14
14101,62.71
14113,92.62
14125,121.04
14137,144.38
14149,159.92
14161,165.85
14173,160.75
14185,143.53
14197,113.51
14208,71.61
14219,21.29
14231,-31.34
14243,-78.63
14255,-113.86
14267,-133.74
14279,-139.62
14291,-136.73
14303,-131.94
14315,-130.67
14327,-134.98
14339,-143.55
14351,-153.09
14363,-160.49
14375,-164.39
14387,-165.33
14398,-164.9
14409,-164.55
14421,-164.6
14433,-164.16
14445,-162.0
14457,-157.16
14469,-149.73
14481,-140.66
14493,-131.3
14505,-122.67
14517,-115.08
14529,-108.04
14541,-100.52
14553,-91.92
14565,-82.09
14577,-71.57
14588,-61.15
14599,-51.32
14611,-42.1
14623,-33.18
14635,-24.22
14647,-15.17
14659,-6.58
14671,0.89
14683,6.76
14695,11.19
14707,15.09
14719,19.87
14731,26.99
14743,37.43
14755,51.23
14767,67.41
14778,84.41
14789,100.22
14801,113.02
14813,121.51
14825,124.93
14837,123.11
14849,116.3
14861,105.13
14873,90.6
14885,74.4
14897,58.67
14909,45.73
14921,37.59
14933,35.13
14945,38.09
14957,45.06
14968,54.36
14979,64.68
14991,75.58
15003,87.45
15015,100.7
15027,115.21
15039,129.67
15051,141.92
15063,149.7
15075,151.56
15087,147.46
15099,138.66
15111,127.26
15123,115.26
15135,104.05
15147,94.0
15158,84.78
15169,75.87
15181,66.87
15193,57.84
15205,49.15
15217,41.38
15229,35.01
15241,30.49
15253,27.95
15265,27.17
15277,27.46
15289,27.49
15301,25.74
15313,20.76
15325,12.13
15337,0.85
15348,-10.48
15359,-18.6
15371,-20.73
15383,-15.73
15395,-4.6
15407,10.15
15419,25.36
15431,38.62
15443,48.66
15455,55.38
15467,59.04
15479,59.62
15491,56.72
15503,49.89
15515,39.31
15527,26.15
15538,12.49
15549,0.51
15561,-8.2
15573,-13.26
15585,-15.48
15597,-16.27
15609,-16.98
15621,-18.29
15633,-20.15
15645,-22.21
15657,-24.32
15669,-26.91
15681,-30.64
15693,-36.14
15705,-43.34
15717,-51.44
15728,-59.11
15739,-65.14
15751,-69.07
15763,-71.35
15775,-73.3
15787,-76.31
15799,-81.4
15811,-88.33
15823,-95.73
15835,-101.4
15847,-103.09
15859,-99.38
15871,-90.46
15883,-78.09
15895,-65.1
15907,-54.49
15918,-48.23
15929,-46.83
15941,-49.34
15953,-53.55
15965,-56.77
15977,-56.58
15989,-51.46
16001,-40.98
16013,-25.93
16025,-7.77
16037,11.56
16049,30.17
16061,46.47
16073,59.17
16085,67.28
16097,70.02
16108,67.17
16119,59.1
16131,47.15
16143,33.33
16155,20.02
16167,9.5
16179,3.12
16191,1.09
16203,2.43
16215,5.36
16227,7.81
16239,8.29
16251,6.32
16263,2.36
16275,-2.42
16287,-6.93
16298,-10.62
16309,-13.47
16321,-15.85
16333,-18.09
16345,-20.14
16357,-21.72
16369,-22.85
16381,-24.13
16393,-26.92
16405,-32.71
16417,-42.39
16429,-55.48
16441,-70.14
16453,-83.66
16465,-93.47
16477,-98.18
16488,-97.95
16499,-94.54
16511,-90.52
16523,-88.47
16535,-90.07
16547,-95.47
16559,-103.11
16571,-110.12
16583,-113.17
16595,-109.54
16607,-98.17
16619,-80.0
16631,-57.69
16643,-34.56
16655,-13.44
16667,4.28
16678,18.79
16689,31.1
16701,41.95
16713,51.09
16725,57.03
16737,57.93
16749,52.58
16761,41.31
16773,26.32
16785,11.27
16797,0.01
16809,-4.4
16821,-0.68
16833,10.49
16845,26.88
16857,45.28
16868,62.28
16879,74.89
16891,81.24
16903,80.63
16915,73.71
16927,62.09
16939,47.84
16951,33.15
16963,19.97
16975,9.89
16987,4.27
16999,4.12
17011,9.76
17023,20.63
17035,35.08
17047,50.56
17058,64.47
17069,74.92
17081,81.07
17093,83.16
17105,81.8
17117,77.35
17129,69.66
17141,58.48
17153,43.89
17165,27.12
17177,10.5
17189,-3.11
17201,-11.11
17213,-12.3
17225,-6.98
17237,3.12
17248,15.73
17259,28.63
17271,40.27
17283,49.82
17295,56.82
17307,61.14
17319,62.45
17331,60.55
17343,55.55
17355,48.05
17367,39.29
17379,30.91
17391,24.39
17403,20.63
17415,19.69
17427,20.73
17438,22.44
17449,23.57
17461,23.33
17473,21.71
17485,19.31
17497,16.97
17509,15.2
17521,14.08
17533,13.14
17545,11.69
17557,9.23
17569,5.63
17581,1.26
17593,-3.48
17605,-8.28
17617,-13.26
17628,-18.77
17639,-25.03
17651,-31.88
17663,-38.54
17675,-43.93
17687,-47.13
17699,-47.81
17711,-46.48
17723,-44.35
17735,-43.05
17747,-43.84
17759,-47.3
17771,-52.79
17783,-58.51
17795,-62.12
17807,-61.41
17818,-55.06
17829,-43.16
17841,-27.21
17853,-9.39
17865,8.0
17877,23.33
17889,35.71
17901,44.84
17913,50.55
17925,52.8
17937,51.63
17949,47.47
17961,41.29
17973,34.44
17985,28.38
17997,24.06
18008,21.65
18019,20.57
18031,19.84
18043,18.54
18055,16.39
18067,13.79
18079,11.61
18091,10.76
18103,11.58
18115,13.67
18127,16.14
18139,17.86
18151,17.97
18163,16.24
18175,13.15
18187,9.53
18198,6.15
18209,3.34
18221,0.72
18233,-2.41
18245,-6.8
18257,-12.69
18269,-19.65
18281,-26.52
18293,-32.05
18305,-35.28
18317,-36.06
18329,-35.07
18341,-33.53
18353,-32.75
18365,-33.63
18377,-36.35
18388,-40.24
18399,-44.03
18411,-46.06
18423,-44.76
18435,-39.12
18447,-29.04
18459,-15.42
18471,0.08
18483,15.39
18495,28.64
18507,38.55
18519,44.61
18531,47.17
18543,46.91
18555,44.59
18567,40.85
18578,36.33
18589,31.69
18601,27.68
18613,25.07
18625,24.26
18637,25.06
18649,26.56
18661,27.6
18673,27.25
18685,25.5
18697,23.11
18709,21.13
18721,20.19
18733,19.87
18745,18.94
18757,15.87
18768,9.85
18779,1.19
18791,-8.76
18803,-18.09
18815,-25.23
18827,-29.28
18839,-30.31
18851,-28.98
18863,-26.35
18875,-23.63
18887,-21.89
18899,-21.99
18911,-24.06
18923,-27.57
18935,-31.26
18947,-33.73
18958,-33.98
18969,-31.83
18981,-28.21
18993,-24.65
19005,-22.85
19017,-23.97
19029,-28.42
19041,-35.53
19053,-43.8
19065,-51.11
19077,-55.33
19089,-54.77
19101,-48.71
19113,-37.6
19125,-22.81
19137,-6.31
19148,10.04
19159,24.81
19171,37.07
19183,46.13
19195,51.36
19207,52.14
19219,48.14
19231,39.79
19243,28.46
19255,16.36
19267,5.94
19279,-0.9
19291,-3.5
19303,-2.62
19315,-0.11
19327,1.87
19338,1.85
19349,-0.37
19361,-3.7
19373,-6.36
19385,-6.83
19397,-4.61
19409,-0.47
19421,3.94
19433,6.78
19445,7.01
19457,4.67
19469,0.93
19481,-2.6
19493,-4.57
19505,-4.51
19517,-2.95
19528,-1.13
19539,-0.42
19551,-1.57
19563,-4.62
19575,-8.82
19587,-13.13
19599,-16.69
19611,-19.07
19623,-20.32
19635,-20.76
19647,-20.76
19659,-20.52
19671,-20.36
19683,-20.68
19695,-21.98
19707,-24.63
19718,-28.56
19729,-33.04
19741,-36.83
19753,-38.49
19765,-36.79
19777,-31.28
19789,-22.19
19801,-10.34
19813,3.18
19825,17.28
19837,30.97
19849,43.34
19861,53.44
19873,60.41
19885,63.35
19897,61.71
19908,55.71
19919,46.28
19931,35.3
19943,25.07
19955,17.82
19967,14.85
19979,16.23
19991,20.69
20003,26.12
20015,30.46
20027,32.28
20039,31.37
20051,28.33
20063,24.32
20075,20.27
20087,16.71
20098,13.69
20109,10.95
20121,8.32
20133,5.7
20145,3.19
20157,0.76
20169,-1.74
20181,-4.58
20193,-7.95
20205,-11.8
20217,-15.84
20229,-19.6
20241,-22.69
20253,-24.93
20265,-26.53
20277,-27.92
20288,-29.54
20299,-31.66
20311,-34.15
20323,-36.67
20335,-38.77
20347,-40.21
20359,-41.02
20371,-41.65
20383,-42.75
20395,-45.08
20407,-49.02
20419,-54.23
20431,-59.42
20443,-62.6
20455,-61.65
20467,-55.16
20478,-42.96
20489,-26.24
20501,-7.2
20513,11.84
20525,28.87
20537,42.58
20549,52.28
20561,57.65
20573,58.74
20585,55.95
20597,50.15
20609,42.55
20621,34.58
20633,27.39
20645,21.63
20657,17.42
20668,14.5
20679,12.37
20691,10.61
20703,9.05
20715,7.74
20727,6.98
20739,7.19
20751,8.56
20763,11.03
20775,14.03
20787,16.67
20799,17.96
20811,17.29
20823,14.53
20835,10.25
20847,5.34
20858,0.67
20869,-3.21
20881,-6.42
20893,-9.26
20905,-12.22
20917,-15.53
20929,-19.01
20941,-22.11
20953,-24.25
20965,-25.17
20977,-25.11
20989,-24.84
