seconds,BVP
6,12.18
18,12.75
29,12.66
40,11.98
52,10.92
64,9.74
76,8.73
88,8.06
100,7.77
112,7.71
124,7.71
136,7.58
148,7.26
160,6.76
172,6.12
184,5.39
196,4.54
208,3.52
219,2.27
230,0.76
242,-1.04
254,-3.13
266,-5.51
278,-8.15
290,-10.93
302,-13.61
314,-15.82
326,-17.15
338,-17.25
350,-15.98
362,-13.41
374,-9.86
386,-5.8
398,-1.68
409,2.12
420,5.37
432,7.93
444,9.76
456,10.81
468,11.05
480,10.55
492,9.49
504,8.18
516,6.97
528,6.18
540,5.95
552,6.24
564,6.83
576,7.43
588,7.77
599,7.71
610,7.22
622,6.42
634,5.45
646,4.48
658,3.59
670,2.77
682,1.94
694,0.97
706,-0.28
718,-1.96
730,-4.14
742,-6.75
754,-9.61
766,-12.38
778,-14.57
789,-15.69
800,-15.4
812,-13.6
824,-10.53
836,-6.63
848,-2.48
860,1.44
872,4.73
884,7.2
896,8.75
908,9.38
920,9.21
932,8.43
944,7.29
956,6.06
968,4.99
979,4.23
990,3.88
1002,3.94
1014,4.29
1026,4.76
1038,5.12
1050,5.22
1062,4.99
1074,4.47
1086,3.8
1098,3.1
1110,2.39
1122,1.6
1134,0.59
1146,-0.78
1158,-2.56
1169,-4.78
1180,-7.37
1192,-10.22
1204,-13.06
1216,-15.55
1228,-17.22
1240,-17.69
1252,-16.76
1264,-14.49
1276,-11.2
1288,-7.35
1300,-3.41
1312,0.23
1324,3.31
1336,5.63
1348,7.12
1359,7.77
1370,7.68
1382,7.06
1394,6.18
1406,5.32
1418,4.7
1430,4.39
1442,4.36
1454,4.5
1466,4.66
1478,4.7
1490,4.52
1502,4.1
1514,3.42
1526,2.54
1538,1.48
1549,0.31
1560,-0.94
1572,-2.22
1584,-3.52
1596,-4.9
1608,-6.55
1620,-8.68
1632,-11.43
1644,-14.73
1656,-18.19
1668,-21.18
1680,-22.99
1692,-23.11
1704,-21.34
1716,-17.95
1728,-13.46
1739,-8.51
1750,-3.65
1762,0.76
1774,4.54
1786,7.63
1798,9.96
1810,11.48
1822,12.15
1834,12.01
1846,11.26
1858,10.27
1870,9.43
1882,9.04
1894,9.16
1906,9.57
1918,9.9
1929,9.79
1940,9.14
1952,8.1
1964,6.99
1976,6.1
1988,5.49
2000,5.02
2012,4.37
2024,3.29
2036,1.68
2048,-0.37
2060,-2.75
2072,-5.36
2084,-8.2
2096,-11.2
2108,-14.16
2119,-16.6
2130,-17.92
2142,-17.56
2154,-15.31
2166,-11.4
2178,-6.41
2190,-1.07
2202,4.01
2214,8.46
2226,12.13
2238,14.98
2250,17.03
2262,18.27
2274,18.7
2286,18.38
2298,17.46
2309,16.13
2320,14.69
2332,13.41
2344,12.52
2356,12.15
2368,12.24
2380,12.61
2392,12.95
2404,13.0
2416,12.63
2428,11.9
2440,10.97
2452,9.95
2464,8.84
2476,7.52
2488,5.84
2499,3.72
2510,1.24
2522,-1.46
2534,-4.23
2546,-7.02
2558,-9.85
2570,-12.7
2582,-15.34
2594,-17.34
2606,-18.08
2618,-17.07
2630,-14.17
2642,-9.67
2654,-4.23
2666,1.33
2678,6.35
2689,10.41
2700,13.42
2712,15.47
2724,16.69
2736,17.23
2748,17.19
2760,16.73
2772,16.02
2784,15.28
2796,14.69
2808,14.35
2820,14.29
2832,14.43
2844,14.65
2856,14.8
2868,14.81
2879,14.61
2890,14.21
2902,13.61
2914,12.79
2926,11.72
2938,10.35
2950,8.7
2962,6.87
2974,4.97
2986,3.1
2998,1.27
3010,-0.59
3022,-2.59
3034,-4.86
3046,-7.43
3058,-10.22
3069,-13.02
3080,-15.46
3092,-17.1
3104,-17.5
3116,-16.43
3128,-13.9
3140,-10.25
3152,-5.99
3164,-1.67
3176,2.34
3188,5.8
3200,8.65
3212,10.82
3224,12.21
3236,12.77
3248,12.55
3259,11.78
3270,10.85
3282,10.11
3294,9.79
3306,9.89
3318,10.24
3330,10.62
3342,10.87
3354,10.89
3366,10.67
3378,10.2
3390,9.46
3402,8.45
3414,7.19
3426,5.77
3438,4.27
3449,2.79
3460,1.38
3472,0.04
3484,-1.24
3496,-2.49
3508,-3.79
3520,-5.29
3532,-7.12
3544,-9.36
3556,-11.91
3568,-14.46
3580,-16.5
3592,-17.54
3604,-17.27
3616,-15.69
3628,-13.11
3639,-9.95
3650,-6.64
3662,-3.45
3674,-0.51
3686,2.05
3698,4.11
3710,5.54
3722,6.2
3734,6.15
3746,5.58
3758,4.79
3770,4.05
3782,3.49
3794,3.13
3806,2.9
3818,2.77
3829,2.73
3840,2.8
3852,2.92
3864,2.98
3876,2.81
3888,2.29
3900,1.43
3912,0.34
3924,-0.77
3936,-1.77
3948,-2.59
3960,-3.31
3972,-4.08
3984,-5.1
3996,-6.52
4008,-8.41
4019,-10.73
4030,-13.24
4042,-15.56
4054,-17.21
4066,-17.76
4078,-16.96
4090,-14.85
4102,-11.77
4114,-8.23
4126,-4.74
4138,-1.64
4150,0.88
4162,2.82
4174,4.2
4186,5.06
4198,5.4
4209,5.22
4220,4.6
4232,3.72
4244,2.8
4256,2.1
4268,1.74
4280,1.74
4292,1.99
4304,2.29
4316,2.44
4328,2.31
4340,1.87
4352,1.19
4364,0.34
4376,-0.57
4388,-1.5
4399,-2.47
4410,-3.55
4422,-4.78
4434,-6.18
4446,-7.75
4458,-9.51
4470,-11.53
4482,-13.85
4494,-16.38
4506,-18.83
4518,-20.7
4530,-21.45
4542,-20.75
4554,-18.61
4566,-15.4
4578,-11.68
4589,-7.97
4600,-4.55
4612,-1.46
4624,1.33
4636,3.84
4648,5.92
4660,7.35
4672,7.97
4684,7.8
4696,7.04
4708,6.01
4720,5.05
4732,4.37
4744,4.06
4756,4.07
4768,4.24
4779,4.44
4790,4.52
4802,4.41
4814,4.03
4826,3.38
4838,2.47
4850,1.34
4862,0.07
4874,-1.25
4886,-2.54
4898,-3.76
4910,-4.99
4922,-6.39
4934,-8.19
4946,-10.56
4958,-13.47
4969,-16.63
4980,-19.48
4992,-21.36
5004,-21.76
5016,-20.45
5028,-17.6
5040,-13.72
5052,-9.42
5064,-5.25
5076,-1.59
5088,1.39
5100,3.64
5112,5.2
5124,6.15
5136,6.63
5148,6.8
5159,6.85
5170,6.89
5182,6.95
5194,7.01
5206,7.02
5218,6.99
5230,6.94
5242,6.93
5254,6.94
5266,6.95
5278,6.92
5290,6.81
5302,6.61
5314,6.33
5326,5.91
5338,5.27
5349,4.32
5360,3.05
5372,1.52
5384,-0.18
5396,-2.03
5408,-4.09
5420,-6.44
5432,-9.07
5444,-11.73
5456,-13.99
5468,-15.31
5480,-15.33
5492,-13.94
5504,-11.39
5516,-8.14
5528,-4.64
5539,-1.24
5550,1.89
5562,4.65
5574,6.93
5586,8.6
5598,9.5
5610,9.62
5622,9.09
5634,8.17
5646,7.13
5658,6.21
5670,5.54
5682,5.16
5694,4.98
5706,4.89
5718,4.74
5729,4.43
5740,3.92
5752,3.3
5764,2.75
5776,2.39
5788,2.2
5800,2.04
5812,1.67
5824,0.94
5836,-0.19
5848,-1.63
5860,-3.28
5872,-5.1
5884,-7.14
5896,-9.42
5908,-11.79
5919,-13.91
5930,-15.32
5942,-15.61
5954,-14.6
5966,-12.43
5978,-9.42
5990,-6.04
6002,-2.66
6014,0.46
6026,3.19
6038,5.48
6050,7.33
6062,8.72
6074,9.63
6086,10.07
6098,10.07
6109,9.74
6120,9.24
6132,8.73
6144,8.3
6156,7.92
6168,7.49
6180,6.94
6192,6.27
6204,5.59
6216,5.08
6228,4.79
6240,4.64
6252,4.41
6264,3.82
6276,2.76
6288,1.28
6299,-0.4
6310,-2.05
6322,-3.54
6334,-4.92
6346,-6.31
6358,-7.8
6370,-9.28
6382,-10.47
6394,-11.01
6406,-10.59
6418,-9.16
6430,-6.88
6442,-4.11
6454,-1.25
6466,1.38
6478,3.55
6489,5.16
6500,6.13
6512,6.46
6524,6.2
6536,5.46
6548,4.42
6560,3.31
6572,2.35
6584,1.68
6596,1.32
6608,1.22
6620,1.26
6632,1.3
6644,1.22
6656,1.0
6668,0.67
6679,0.33
6690,0.04
6702,-0.2
6714,-0.48
6726,-0.93
6738,-1.72
6750,-2.93
6762,-4.55
6774,-6.52
6786,-8.69
6798,-10.87
6810,-12.79
6822,-14.14
6834,-14.66
6846,-14.19
6858,-12.73
6869,-10.45
6880,-7.68
6892,-4.73
6904,-1.89
6916,0.65
6928,2.78
6940,4.46
6952,5.67
6964,6.4
6976,6.67
6988,6.55
7000,6.11
7012,5.49
7024,4.82
7036,4.21
7048,3.7
7059,3.25
7070,2.76
7082,2.13
7094,1.29
7106,0.26
7118,-0.87
7130,-1.99
7142,-3.04
7154,-3.99
7166,-4.91
7178,-5.88
7190,-7.06
7202,-8.59
7214,-10.57
7226,-13.02
7238,-15.74
7249,-18.32
7260,-20.21
7272,-20.87
7284,-20.02
7296,-17.73
7308,-14.37
7320,-10.49
7332,-6.53
7344,-2.82
7356,0.5
7368,3.34
7380,5.56
7392,6.97
7404,7.45
7416,7.02
7428,5.95
7439,4.66
7450,3.54
7462,2.89
7474,2.75
7486,2.97
7498,3.32
7510,3.57
7522,3.55
7534,3.21
7546,2.57
7558,1.7
7570,0.7
7582,-0.32
7594,-1.31
7606,-2.28
7618,-3.38
7629,-4.81
7640,-6.82
7652,-9.51
7664,-12.75
7676,-16.14
7688,-19.07
7700,-20.95
7712,-21.32
7724,-20.06
7736,-17.34
7748,-13.58
7760,-9.23
7772,-4.7
7784,-0.29
7796,3.76
7808,7.21
7819,9.81
7830,11.35
7842,11.77
7854,11.21
7866,10.07
7878,8.82
7890,7.88
7902,7.44
7914,7.47
7926,7.74
7938,7.96
7950,7.9
7962,7.46
7974,6.69
7986,5.71
7998,4.7
8009,3.81
8020,3.12
8032,2.58
8044,2.05
8056,1.23
8068,-0.15
8080,-2.3
8092,-5.26
8104,-8.83
8116,-12.62
8128,-16.04
8140,-18.49
8152,-19.46
8164,-18.71
8176,-16.35
8188,-12.78
8199,-8.57
8210,-4.26
8222,-0.18
8234,3.5
8246,6.74
8258,9.47
8270,11.57
8282,12.88
8294,13.34
8306,13.02
8318,12.19
8330,11.15
8342,10.25
8354,9.7
8366,9.59
8378,9.91
8389,10.5
8400,11.14
8412,11.57
8424,11.58
8436,11.09
8448,10.17
8460,8.98
8472,7.71
8484,6.44
8496,5.18
8508,3.82
8520,2.28
8532,0.44
8544,-1.8
8556,-4.49
8568,-7.56
8579,-10.75
8590,-13.54
8602,-15.3
8614,-15.45
8626,-13.76
8638,-10.41
8650,-5.96
8662,-1.13
8674,3.48
8686,7.53
8698,10.89
8710,13.52
8722,15.35
8734,16.3
8746,16.33
8758,15.56
8769,14.26
8780,12.78
8792,11.45
8804,10.45
8816,9.83
8828,9.54
8840,9.51
8852,9.6
8864,9.68
8876,9.56
8888,9.08
8900,8.15
8912,6.78
8924,5.17
8936,3.52
8948,2.05
8959,0.81
8970,-0.27
8982,-1.38
8994,-2.78
9006,-4.67
9018,-7.16
9030,-10.13
9042,-13.2
9054,-15.83
9066,-17.38
9078,-17.33
9090,-15.47
9102,-11.99
9114,-7.4
9126,-2.35
9138,2.49
9149,6.67
9160,9.98
9172,12.41
9184,14.07
9196,15.08
9208,15.51
9220,15.43
9232,14.94
9244,14.19
9256,13.39
9268,12.78
9280,12.53
9292,12.65
9304,13.01
9316,13.33
9328,13.34
9339,12.84
9350,11.84
9362,10.49
9374,9.01
9386,7.6
9398,6.32
9410,5.09
9422,3.77
9434,2.23
9446,0.4
9458,-1.7
9470,-4.0
9482,-6.38
9494,-8.76
9506,-10.93
9518,-12.62
9529,-13.52
9540,-13.33
9552,-11.92
9564,-9.42
9576,-6.15
9588,-2.6
9600,0.84
9612,3.84
9624,6.29
9636,8.11
9648,9.28
9660,9.75
9672,9.52
9684,8.71
9696,7.54
9708,6.34
9719,5.44
9730,5.04
9742,5.16
9754,5.65
9766,6.22
9778,6.61
9790,6.64
9802,6.29
9814,5.62
9826,4.81
9838,4.02
9850,3.34
9862,2.78
9874,2.2
9886,1.45
9898,0.37
9909,-1.13
9920,-3.04
9932,-5.21
9944,-7.4
9956,-9.33
9968,-10.75
9980,-11.49
9992,-11.45
10004,-10.65
10016,-9.12
10028,-6.99
10040,-4.46
10052,-1.78
10064,0.71
10076,2.71
10088,4.0
10099,4.57
10110,4.53
10122,4.12
10134,3.57
10146,3.03
10158,2.6
10170,2.29
10182,2.07
10194,1.87
10206,1.58
10218,1.1
10230,0.41
10242,-0.43
10254,-1.29
10266,-2.03
10278,-2.59
10289,-3.06
10300,-3.63
10312,-4.48
10324,-5.78
10336,-7.57
10348,-9.85
10360,-12.52
10372,-15.42
10384,-18.26
10396,-20.64
10408,-22.09
10420,-22.22
10432,-20.87
10444,-18.16
10456,-14.51
10468,-10.46
10479,-6.51
10490,-2.99
10502,-0.05
10514,2.28
10526,3.98
10538,5.0
10550,5.32
10562,4.98
10574,4.21
10586,3.34
10598,2.74
10610,2.59
10622,2.81
10634,3.13
10646,3.23
10658,2.92
10669,2.23
10680,1.36
10692,0.52
10704,-0.18
10716,-0.81
10728,-1.53
10740,-2.49
10752,-3.78
10764,-5.42
10776,-7.44
10788,-9.9
10800,-12.86
10812,-16.22
10824,-19.67
10836,-22.64
10848,-24.48
10859,-24.7
10870,-23.14
10882,-20.05
10894,-15.96
10906,-11.49
10918,-7.1
10930,-3.05
10942,0.58
10954,3.76
10966,6.4
10978,8.35
10990,9.46
11002,9.72
11014,9.29
11026,8.46
11038,7.59
11049,6.92
11060,6.57
11072,6.45
11084,6.4
11096,6.22
11108,5.84
11120,5.27
11132,4.64
11144,4.02
11156,3.46
11168,2.86
11180,2.11
11192,1.07
11204,-0.35
11216,-2.19
11228,-4.49
11239,-7.21
11250,-10.23
11262,-13.27
11274,-15.88
11286,-17.57
11298,-17.93
11310,-16.84
11322,-14.49
11334,-11.27
11346,-7.6
11358,-3.8
11370,-0.02
11382,3.64
11394,7.01
11406,9.82
11418,11.75
11429,12.62
11440,12.46
11452,11.56
11464,10.38
11476,9.31
11488,8.61
11500,8.31
11512,8.31
11524,8.44
11536,8.55
11548,8.53
11560,8.29
11572,7.77
11584,6.95
11596,5.89
11608,4.67
11619,3.38
11630,2.09
11642,0.72
11654,-0.85
11666,-2.83
11678,-5.33
11690,-8.35
11702,-11.67
11714,-14.89
11726,-17.48
11738,-18.89
11750,-18.76
11762,-16.99
11774,-13.8
11786,-9.67
11798,-5.15
11809,-0.73
11820,3.26
11832,6.66
11844,9.38
11856,11.35
11868,12.49
11880,12.77
11892,12.31
11904,11.39
11916,10.41
11928,9.72
11940,9.54
11952,9.84
11964,10.41
11976,10.96
11988,11.22
11999,11.1
12010,10.63
12022,9.95
12034,9.17
12046,8.36
12058,7.52
12070,6.59
12082,5.52
12094,4.25
12106,2.74
12118,0.89
12130,-1.38
12142,-4.11
12154,-7.17
12166,-10.28
12178,-12.93
12189,-14.6
12200,-14.85
12212,-13.5
12224,-10.69
12236,-6.82
12248,-2.41
12260,2.01
12272,6.01
12284,9.35
12296,11.91
12308,13.68
12320,14.68
12332,14.93
12344,14.51
12356,13.56
12368,12.37
12379,11.22
12390,10.4
12402,10.02
12414,10.0
12426,10.11
12438,10.11
12450,9.86
12462,9.38
12474,8.79
12486,8.23
12498,7.73
12510,7.21
12522,6.52
12534,5.5
12546,4.04
12558,2.16
12569,-0.1
12580,-2.6
12592,-5.21
12604,-7.75
12616,-10.05
12628,-11.89
12640,-13.04
12652,-13.23
12664,-12.26
12676,-10.12
12688,-6.98
12700,-3.26
12712,0.5
12724,3.85
12736,6.49
12748,8.39
12759,9.62
12770,10.31
12782,10.56
12794,10.41
12806,9.93
12818,9.25
12830,8.58
12842,8.11
12854,7.95
12866,8.03
12878,8.18
12890,8.14
12902,7.72
12914,6.87
12926,5.68
12938,4.35
12949,3.07
12960,1.96
12972,1.05
12984,0.22
12996,-0.68
13008,-1.8
13020,-3.25
13032,-5.05
13044,-7.13
13056,-9.36
13068,-11.5
13080,-13.26
13092,-14.32
13104,-14.39
13116,-13.36
13128,-11.3
13139,-8.47
13150,-5.24
13162,-2.0
13174,0.96
13186,3.47
13198,5.4
13210,6.71
13222,7.36
13234,7.4
13246,6.92
13258,6.15
13270,5.3
13282,4.59
13294,4.07
13306,3.66
13318,3.21
13329,2.55
13340,1.65
13352,0.59
13364,-0.44
13376,-1.24
13388,-1.72
13400,-1.9
13412,-1.93
13424,-2.03
13436,-2.41
13448,-3.25
13460,-4.62
13472,-6.54
13484,-8.87
13496,-11.33
13508,-13.53
13519,-15.01
13530,-15.39
13542,-14.49
13554,-12.43
13566,-9.59
13578,-6.44
13590,-3.34
13602,-0.43
13614,2.32
13626,5.01
13638,7.67
13650,10.11
13662,12.03
13674,13.15
13686,13.35
13698,12.76
13709,11.64
13720,10.35
13732,9.11
13744,8.0
13756,6.93
13768,5.8
13780,4.47
13792,2.96
13804,1.37
13816,-0.16
13828,-1.5
13840,-2.65
13852,-3.73
13864,-5.0
13876,-6.66
13888,-8.83
13899,-11.47
13910,-14.41
13922,-17.42
13934,-20.26
13946,-22.65
13958,-24.29
13970,-24.87
13982,-24.11
13994,-21.97
14006,-18.64
14018,-14.58
14030,-10.36
14042,-6.48
14054,-3.25
14066,-0.74
14078,1.1
14089,2.36
14100,3.11
14112,3.41
14124,3.37
14136,3.12
14148,2.9
14160,2.86
14172,3.03
14184,3.32
14196,3.59
14208,3.72
14220,3.71
14232,3.63
14244,3.57
14256,3.55
14268,3.48
14279,3.23
14290,2.69
14302,1.78
14314,0.5
14326,-1.18
14338,-3.3
14350,-5.95
14362,-9.14
14374,-12.73
14386,-16.35
14398,-19.44
14410,-21.43
14422,-21.87
14434,-20.58
14446,-17.75
14458,-13.79
14469,-9.28
14480,-4.77
14492,-0.68
14504,2.79
14516,5.57
14528,7.69
14540,9.18
14552,10.05
14564,10.3
14576,9.99
14588,9.29
14600,8.41
14612,7.6
14624,7.03
14636,6.73
14648,6.62
14659,6.53
14670,6.31
14682,5.9
14694,5.31
14706,4.63
14718,3.92
14730,3.21
14742,2.48
14754,1.62
14766,0.53
14778,-0.87
14790,-2.66
14802,-4.86
14814,-7.45
14826,-10.34
14838,-13.29
14849,-15.91
14860,-17.69
14872,-18.13
14884,-16.92
14896,-14.09
14908,-10.03
14920,-5.42
14932,-0.95
14944,2.92
14956,6.01
14968,8.41
14980,10.32
14992,11.81
15004,12.85
15016,13.31
15028,13.19
15039,12.62
15050,11.89
15062,11.31
15074,11.06
15086,11.11
15098,11.27
15110,11.32
15122,11.14
15134,10.68
15146,10.02
15158,9.23
15170,8.35
15182,7.35
15194,6.22
15206,4.97
15218,3.6
15229,2.15
15240,0.59
15252,-1.15
15264,-3.19
15276,-5.6
15288,-8.32
15300,-11.11
15312,-13.51
15324,-15.02
15336,-15.22
15348,-13.94
15360,-11.3
15372,-7.68
15384,-3.59
15396,0.46
15408,4.09
15419,7.04
15430,9.2
15442,10.56
15454,11.21
15466,11.31
15478,11.04
15490,10.6
15502,10.14
15514,9.81
15526,9.63
15538,9.59
15550,9.63
15562,9.68
15574,9.67
15586,9.56
15598,9.32
15609,8.93
15620,8.35
15632,7.54
15644,6.5
15656,5.27
15668,3.94
15680,2.6
15692,1.26
15704,-0.13
15716,-1.71
15728,-3.57
15740,-5.72
15752,-7.98
15764,-10.04
15776,-11.53
15788,-12.11
15799,-11.6
15810,-10.02
15822,-7.58
15834,-4.64
15846,-1.55
15858,1.39
15870,3.98
15882,6.12
15894,7.76
15906,8.84
15918,9.3
15930,9.17
15942,8.57
15954,7.74
15966,6.97
15978,6.46
15989,6.27
16000,6.33
16012,6.47
16024,6.52
16036,6.43
16048,6.21
16060,5.92
16072,5.58
16084,5.18
16096,4.67
16108,4.01
16120,3.21
16132,2.28
16144,1.25
16156,0.06
16168,-1.39
16179,-3.23
16190,-5.51
16202,-8.09
16214,-10.7
16226,-12.87
16238,-14.18
16250,-14.29
16262,-13.15
16274,-10.93
16286,-8.05
16298,-4.95
16310,-2.0
16322,0.55
16334,2.65
16346,4.29
16358,5.51
16369,6.31
16380,6.67
16392,6.64
16404,6.3
16416,5.81
16428,5.32
16440,4.98
16452,4.82
16464,4.77
16476,4.67
16488,4.38
16500,3.84
16512,3.06
16524,2.18
16536,1.28
16548,0.45
16559,-0.37
16570,-1.27
16582,-2.36
16594,-3.68
16606,-5.26
16618,-7.11
16630,-9.24
16642,-11.65
16654,-14.21
16666,-16.67
16678,-18.57
16690,-19.47
16702,-19.07
16714,-17.33
16726,-14.55
16738,-11.14
16749,-7.55
16760,-4.07
16772,-0.9
16784,1.84
16796,4.0
16808,5.43
16820,6.06
16832,5.97
16844,5.39
16856,4.67
16868,4.11
16880,3.83
16892,3.79
16904,3.81
16916,3.71
16928,3.4
16939,2.9
16950,2.24
16962,1.49
16974,0.66
16986,-0.26
16998,-1.24
17010,-2.26
17022,-3.29
17034,-4.38
17046,-5.65
17058,-7.24
17070,-9.31
17082,-11.89
17094,-14.81
17106,-17.73
17118,-20.16
17129,-21.63
17140,-21.79
17152,-20.55
17164,-18.07
17176,-14.69
17188,-10.82
17200,-6.84
17212,-3.02
17224,0.43
17236,3.32
17248,5.51
17260,6.87
17272,7.37
17284,7.15
17296,6.49
17308,5.72
17319,5.18
17330,5.04
17342,5.29
17354,5.75
17366,6.15
17378,6.24
17390,5.87
17402,5.11
17414,4.14
17426,3.18
17438,2.39
17450,1.76
17462,1.15
17474,0.39
17486,-0.65
17498,-2.02
17509,-3.7
17520,-5.67
17532,-7.94
17544,-10.45
17556,-13.0
17568,-15.23
17580,-16.64
17592,-16.76
17604,-15.36
17616,-12.55
17628,-8.78
17640,-4.63
17652,-0.64
17664,2.85
17676,5.72
17688,7.98
17699,9.68
17710,10.82
17722,11.39
17734,11.36
17746,10.83
17758,10.02
17770,9.19
17782,8.62
17794,8.47
17806,8.71
17818,9.14
17830,9.5
17842,9.58
17854,9.31
17866,8.74
17878,7.98
17889,7.14
17900,6.24
17912,5.26
17924,4.17
17936,2.95
17948,1.58
17960,-0.01
17972,-1.89
17984,-4.2
17996,-6.89
18008,-9.74
18020,-12.29
18032,-13.97
18044,-14.3
18056,-13.05
18068,-10.38
18079,-6.74
18090,-2.75
18102,1.09
18114,4.42
18126,7.1
18138,9.19
18150,10.77
18162,11.9
18174,12.58
18186,12.79
18198,12.55
18210,11.93
18222,11.09
18234,10.2
18246,9.41
18258,8.78
18269,8.33
18280,8.0
18292,7.78
18304,7.6
18316,7.44
18328,7.22
18340,6.88
18352,6.33
18364,5.56
18376,4.57
18388,3.44
18400,2.23
18412,0.96
18424,-0.45
18436,-2.07
18448,-3.97
18459,-6.09
18470,-8.23
18482,-10.08
18494,-11.3
18506,-11.61
18518,-10.83
18530,-8.97
18542,-6.2
18554,-2.82
18566,0.76
18578,4.13
18590,6.94
18602,8.98
18614,10.19
18626,10.64
18638,10.5
18649,9.98
18660,9.25
18672,8.51
18684,7.87
18696,7.43
18708,7.24
18720,7.24
18732,7.29
18744,7.23
18756,6.91
18768,6.29
18780,5.42
18792,4.46
18804,3.57
18816,2.84
18828,2.28
18839,1.8
18850,1.22
18862,0.41
18874,-0.77
18886,-2.38
18898,-4.44
18910,-6.85
18922,-9.39
18934,-11.71
18946,-13.42
18958,-14.12
18970,-13.59
18982,-11.84
18994,-9.16
19006,-6.01
19018,-2.88
19029,-0.16
19040,1.94
19052,3.37
19064,4.19
19076,4.53
19088,4.51
19100,4.25
19112,3.91
19124,3.6
19136,3.42
19148,3.39
19160,3.46
19172,3.5
19184,3.34
19196,2.83
19208,1.94
19219,0.75
19230,-0.5
19242,-1.57
19254,-2.31
19266,-2.7
19278,-2.9
19290,-3.18
19302,-3.79
19314,-4.89
19326,-6.55
19338,-8.72
19350,-11.26
19362,-13.94
19374,-16.4
19386,-18.21
19398,-18.93
19409,-18.27
19420,-16.23
19432,-13.1
19444,-9.45
19456,-5.84
19468,-2.68
19480,-0.14
19492,1.85
19504,3.43
19516,4.67
19528,5.54
19540,5.97
19552,5.98
19564,5.68
19576,5.28
19588,5.0
19599,4.89
19610,4.85
19622,4.7
19634,4.31
19646,3.67
19658,2.91
19670,2.2
19682,1.63
19694,1.15
19706,0.57
19718,-0.27
19730,-1.49
19742,-3.03
19754,-4.75
19766,-6.54
19778,-8.34
19789,-10.22
19800,-12.26
19812,-14.41
19824,-16.41
19836,-17.83
19848,-18.15
19860,-17.08
19872,-14.65
19884,-11.2
19896,-7.3
19908,-3.48
19920,-0.06
19932,2.89
19944,5.44
19956,7.61
19968,9.33
19979,10.42
19990,10.72
20002,10.28
20014,9.33
20026,8.25
20038,7.38
20050,6.86
20062,6.65
20074,6.54
20086,6.37
20098,6.06
20110,5.66
20122,5.27
20134,4.94
20146,4.63
20158,4.23
20169,3.62
20180,2.77
20192,1.68
20204,0.38
20216,-1.11
20228,-2.86
20240,-4.91
20252,-7.25
20264,-9.73
20276,-12.05
20288,-13.79
20300,-14.54
20312,-14.06
20324,-12.34
20336,-9.65
20348,-6.38
20359,-2.96
20370,0.31
20382,3.24
20394,5.74
20406,7.7
20418,9.03
20430,9.68
20442,9.73
20454,9.39
20466,8.95
20478,8.58
20490,8.32
20502,8.08
20514,7.76
20526,7.29
20538,6.77
20549,6.32
20560,6.01
20572,5.85
20584,5.74
20596,5.6
20608,5.35
20620,4.97
20632,4.46
20644,3.77
20656,2.88
20668,1.75
20680,0.39
20692,-1.16
20704,-2.88
20716,-4.79
20728,-6.89
20739,-9.08
20750,-11.11
20762,-12.62
20774,-13.21
20786,-12.62
20798,-10.83
20810,-8.11
20822,-4.89
20834,-1.67
20846,1.16
20858,3.39
20870,5.01
20882,6.1
20894,6.78
20906,7.11
20918,7.14
20929,6.9
20940,6.48
20952,6.04
20964,5.7
20976,5.5
20988,5.35
