seconds,BVP
10,3.88
22,3.57
34,3.98
46,5.06
58,6.54
70,8.03
82,9.06
93,9.31
104,8.79
116,7.76
128,6.69
140,5.89
152,5.43
164,5.04
176,4.31
188,2.95
200,0.91
212,-1.55
224,-4.01
236,-6.11
248,-7.67
260,-8.7
272,-9.39
283,-9.99
294,-10.72
306,-11.76
318,-13.09
330,-14.45
342,-15.35
354,-15.15
366,-13.36
378,-9.85
390,-5.03
402,0.32
414,5.25
426,9.07
438,11.49
450,12.66
462,12.95
473,12.73
484,12.21
496,11.39
508,10.22
520,8.7
532,6.98
544,5.33
556,4.02
568,3.2
580,2.81
592,2.64
604,2.45
616,2.08
628,1.57
640,1.09
652,0.87
663,1.0
674,1.4
686,1.78
698,1.8
710,1.21
722,-0.04
734,-1.78
746,-3.68
758,-5.37
770,-6.58
782,-7.15
794,-7.13
806,-6.68
818,-6.05
830,-5.5
842,-5.26
853,-5.41
864,-5.89
876,-6.43
888,-6.58
900,-5.88
912,-3.92
924,-0.62
936,3.76
948,8.61
960,13.16
972,16.72
984,18.87
996,19.59
1008,19.14
1020,17.92
1032,16.29
1043,14.52
1054,12.77
1066,11.17
1078,9.91
1090,9.19
1102,9.18
1114,9.81
1126,10.86
1138,11.95
1150,12.75
1162,13.09
1174,13.01
1186,12.7
1198,12.32
1210,11.92
1222,11.36
1233,10.37
1244,8.72
1256,6.34
1268,3.39
1280,0.25
1292,-2.55
1304,-4.59
1316,-5.64
1328,-5.76
1340,-5.28
1352,-4.65
1364,-4.33
1376,-4.57
1388,-5.42
1400,-6.63
1412,-7.81
1423,-8.42
1434,-7.94
1446,-6.05
1458,-2.74
1470,1.59
1482,6.25
1494,10.4
1506,13.39
1518,14.89
1530,14.95
1542,13.86
1554,11.99
1566,9.64
1578,7.05
1590,4.45
1602,2.1
1613,0.36
1624,-0.52
1636,-0.43
1648,0.43
1660,1.63
1672,2.63
1684,3.03
1696,2.65
1708,1.6
1720,0.21
1732,-1.15
1744,-2.22
1756,-2.97
1768,-3.58
1780,-4.32
1792,-5.37
1803,-6.76
1814,-8.36
1826,-9.96
1838,-11.39
1850,-12.63
1862,-13.81
1874,-15.09
1886,-16.62
1898,-18.48
1910,-20.65
1922,-23.03
1934,-25.43
1946,-27.5
1958,-28.79
1970,-28.8
1982,-27.2
1993,-24.02
2004,-19.73
2016,-15.09
2028,-10.93
2040,-7.85
2052,-6.04
2064,-5.32
2076,-5.32
2088,-5.56
2100,-5.71
2112,-5.59
2124,-5.23
2136,-4.81
2148,-4.49
2160,-4.37
2172,-4.44
2183,-4.53
2194,-4.39
2206,-3.83
2218,-2.87
2230,-1.79
2242,-0.95
2254,-0.61
2266,-0.78
2278,-1.3
2290,-1.89
2302,-2.19
2314,-1.91
2326,-0.98
2338,0.35
2350,1.6
2362,2.36
2373,2.4
2384,1.43
2396,-0.51
2408,-2.93
2420,-5.13
2432,-6.75
2444,-8.14
2456,-10.24
2468,-13.76
2480,-19.16
2492,-26.97
2504,-37.1
2516,-48.11
2528,-56.86
2540,-59.21
2552,-51.27
2563,-30.66
2574,2.75
2586,45.73
2598,91.38
2610,132.11
2622,162.69
2634,181.83
2646,191.14
2658,192.85
2670,188.21
2682,177.73
2694,160.67
2706,134.64
2718,98.58
2730,54.43
2742,6.94
2753,-38.95
2764,-80.47
2776,-117.56
2788,-150.85
2800,-172.29
2812,-174.81
2824,-157.42
2836,-126.88
2848,-91.21
2860,-54.67
2872,-18.38
2884,13.29
2896,41.86
2908,66.79
2920,82.8
2932,85.28
2943,73.76
2954,52.38
2966,28.49
2978,7.6
2990,-8.77
3002,-20.26
3014,-28.45
3026,-39.57
3038,-59.35
3050,-90.02
3062,-129.46
3074,-173.28
3086,-216.25
3098,-253.85
3110,-279.51
3122,-268.95
3133,-210.79
3144,-115.66
3156,-11.25
3168,76.23
3180,130.36
3192,158.06
3204,168.04
3216,168.54
3228,164.91
3240,156.32
3252,140.93
3264,118.39
3276,90.71
3288,60.57
3300,30.34
3312,0.25
3323,-28.73
3334,-55.17
3346,-79.96
3358,-103.69
3370,-125.35
3382,-142.32
3394,-152.16
3406,-153.57
3418,-147.96
3430,-137.26
3442,-123.65
3454,-110.64
3466,-100.86
3478,-94.87
3490,-91.03
3502,-86.82
3513,-80.09
3524,-70.56
3536,-58.87
3548,-46.13
3560,-34.28
3572,-24.68
3584,-17.51
3596,-11.71
3608,-5.95
3620,0.73
3632,8.12
3644,15.53
3656,22.17
3668,27.16
3680,30.07
3692,31.01
3703,30.62
3714,29.6
3726,28.52
3738,27.49
3750,26.46
3762,25.28
3774,23.84
3786,22.17
3798,20.53
3810,19.42
3822,19.44
3834,21.06
3846,24.37
3858,28.9
3870,33.68
3882,37.56
3893,39.56
3904,39.2
3916,36.56
3928,32.17
3940,26.72
3952,20.88
3964,15.11
3976,9.77
3988,5.1
4000,1.29
4012,-1.56
4024,-3.55
4036,-4.99
4048,-6.36
4060,-7.98
4072,-9.87
4083,-11.57
4094,-12.23
4106,-10.98
4118,-7.38
4130,-1.66
4142,5.26
4154,12.08
4166,17.69
4178,21.47
4190,23.46
4202,24.21
4214,24.27
4226,24.03
4238,23.52
4250,22.6
4262,21.19
4273,19.42
4284,17.61
4296,16.06
4308,14.95
4320,14.19
4332,13.53
4344,12.78
4356,11.93
4368,11.18
4380,10.8
4392,10.91
4404,11.34
4416,11.6
4428,11.14
4440,9.53
4452,6.76
4463,3.18
4474,-0.63
4486,-4.1
4498,-6.91
4510,-8.99
4522,-10.58
4534,-12.04
4546,-13.74
4558,-16.0
4570,-18.93
4582,-22.38
4594,-25.87
4606,-28.59
4618,-29.53
4630,-27.89
4642,-23.32
4653,-16.17
4664,-7.41
4676,1.67
4688,9.9
4700,16.54
4712,21.4
4724,24.71
4736,26.81
4748,27.96
4760,28.25
4772,27.7
4784,26.43
4796,24.7
4808,22.88
4820,21.29
4832,20.05
4843,19.07
4854,18.14
4866,17.05
4878,15.72
4890,14.21
4902,12.71
4914,11.4
4926,10.37
4938,9.57
4950,8.87
4962,8.04
4974,6.88
4986,5.27
4998,3.21
5010,0.83
5022,-1.66
5033,-4.08
5044,-6.34
5056,-8.49
5068,-10.68
5080,-13.08
5092,-15.75
5104,-18.79
5116,-22.16
5128,-25.74
5140,-29.25
5152,-32.16
5164,-33.69
5176,-33.06
5188,-29.75
5200,-23.77
5212,-15.75
5223,-6.82
5234,1.84
5246,9.26
5258,14.98
5270,19.04
5282,21.79
5294,23.57
5306,24.59
5318,24.86
5330,24.33
5342,23.05
5354,21.24
5366,19.24
5378,17.42
5390,16.02
5402,15.08
5413,14.49
5424,14.05
5436,13.6
5448,13.09
5460,12.49
5472,11.82
5484,11.04
5496,10.09
5508,8.89
5520,7.38
5532,5.55
5544,3.43
5556,1.09
5568,-1.35
5580,-3.76
5592,-6.0
5603,-7.94
5614,-9.53
5626,-10.79
5638,-11.81
5650,-12.75
5662,-13.88
5674,-15.43
5686,-17.56
5698,-20.21
5710,-22.95
5722,-24.99
5734,-25.44
5746,-23.52
5758,-18.96
5770,-12.1
5782,-3.84
5793,4.67
5804,12.36
5816,18.52
5828,22.9
5840,25.59
5852,26.89
5864,27.09
5876,26.4
5888,25.0
5900,23.06
5912,20.87
5924,18.74
5936,16.99
5948,15.77
5960,15.08
5972,14.69
5983,14.33
5994,13.79
6006,12.97
6018,11.95
6030,10.88
6042,9.93
6054,9.14
6066,8.5
6078,7.86
6090,7.04
6102,5.89
6114,4.33
6126,2.41
6138,0.28
6150,-1.78
6162,-3.57
6173,-4.98
6184,-6.01
6196,-6.8
6208,-7.4
6220,-7.87
6232,-8.22
6244,-8.51
6256,-8.88
6268,-9.48
6280,-10.35
6292,-11.22
6304,-11.53
6316,-10.55
6328,-7.72
6340,-2.88
6352,3.58
6363,10.93
6374,18.22
6386,24.7
6398,29.79
6410,33.19
6422,34.71
6434,34.29
6446,31.91
6458,27.75
6470,22.23
6482,16.01
6494,9.91
6506,4.66
6518,0.76
6530,-1.7
6542,-2.94
6553,-3.44
6564,-3.62
6576,-3.75
6588,-3.81
6600,-3.66
6612,-3.15
6624,-2.29
6636,-1.31
6648,-0.52
6660,-0.17
6672,-0.28
6684,-0.68
6696,-1.12
6708,-1.43
6720,-1.66
6732,-1.95
6743,-2.54
6754,-3.53
6766,-4.9
6778,-6.56
6790,-8.41
6802,-10.32
6814,-12.12
6826,-13.42
6838,-13.66
6850,-12.27
6862,-8.9
6874,-3.64
6886,2.91
6898,9.8
6910,16.05
6922,20.95
6933,24.16
6944,25.75
6956,25.96
6968,25.15
6980,23.64
6992,21.72
7004,19.61
7016,17.53
7028,15.66
7040,14.02
7052,12.59
7064,11.26
7076,9.91
7088,8.48
7100,6.99
7112,5.54
7123,4.28
7134,3.37
7146,2.84
7158,2.61
7170,2.45
7182,2.02
7194,1.08
7206,-0.46
7218,-2.43
7230,-4.51
7242,-6.34
7254,-7.68
7266,-8.52
7278,-9.07
7290,-9.68
7302,-10.7
7313,-12.32
7324,-14.47
7336,-16.8
7348,-18.65
7360,-19.3
7372,-18.12
7384,-14.86
7396,-9.78
7408,-3.63
7420,2.51
7432,7.71
7444,11.4
7456,13.51
7468,14.39
7480,14.57
7492,14.46
7503,14.21
7514,13.76
7526,12.9
7538,11.54
7550,9.76
7562,7.83
7574,6.08
7586,4.78
7598,4.04
7610,3.76
7622,3.78
7634,3.92
7646,4.11
7658,4.32
7670,4.51
7682,4.55
7693,4.23
7704,3.32
7716,1.75
7728,-0.38
7740,-2.68
7752,-4.71
7764,-6.09
7776,-6.64
7788,-6.46
7800,-5.88
7812,-5.32
7824,-5.14
7836,-5.59
7848,-6.75
7860,-8.52
7872,-10.58
7883,-12.41
7894,-13.29
7906,-12.49
7918,-9.58
7930,-4.62
7942,1.71
7954,8.31
7966,13.95
7978,17.77
7990,19.43
8002,19.22
8014,17.77
8026,15.73
8038,13.57
8050,11.41
8062,9.18
8073,6.77
8084,4.21
8096,1.74
8108,-0.38
8120,-1.95
8132,-3.05
8144,-3.95
8156,-5.02
8168,-6.46
8180,-8.19
8192,-9.89
8204,-11.14
8216,-11.7
8228,-11.67
8240,-11.36
8252,-11.23
8263,-11.6
8274,-12.52
8286,-13.8
8298,-15.11
8310,-16.11
8322,-16.6
8334,-16.57
8346,-16.14
8358,-15.57
8370,-15.17
8382,-15.17
8394,-15.67
8406,-16.44
8418,-16.97
8430,-16.59
8442,-14.67
8453,-10.91
8464,-5.47
8476,1.02
8488,7.67
8500,13.49
8512,17.74
8524,20.01
8536,20.36
8548,19.17
8560,17.04
8572,14.53
8584,12.05
8596,9.83
8608,7.96
8620,6.5
8632,5.5
8643,5.03
8654,5.06
8666,5.48
8678,6.0
8690,6.36
8702,6.37
8714,6.07
8726,5.57
8738,5.03
8750,4.5
8762,3.83
8774,2.82
8786,1.3
8798,-0.74
8810,-3.14
8822,-5.58
8833,-7.76
8844,-9.47
8856,-10.7
8868,-11.55
8880,-12.18
8892,-12.72
8904,-13.28
8916,-13.98
8928,-14.88
8940,-15.98
8952,-17.05
8964,-17.66
8976,-17.25
8988,-15.35
9000,-11.85
9012,-7.11
9023,-1.92
9034,2.85
9046,6.52
9058,8.89
9070,10.21
9082,10.96
9094,11.62
9106,12.37
9118,13.13
9130,13.6
9142,13.52
9154,12.84
9166,11.69
9178,10.38
9190,9.2
9202,8.23
9213,7.36
9224,6.35
9236,5.0
9248,3.29
9260,1.45
9272,-0.24
9284,-1.56
9296,-2.53
9308,-3.42
9320,-4.6
9332,-6.32
9344,-8.61
9356,-11.23
9368,-13.82
9380,-16.03
9392,-17.72
9403,-18.93
9414,-19.86
9426,-20.77
9438,-21.9
9450,-23.43
9462,-25.46
9474,-28.0
9486,-31.02
9498,-34.36
9510,-37.72
9522,-40.69
9534,-42.81
9546,-43.66
9558,-43.05
9570,-40.97
9582,-37.69
9593,-33.55
9604,-28.76
9616,-23.3
9628,-16.83
9640,-8.91
9652,0.78
9664,12.17
9676,24.7
9688,37.48
9700,49.59
9712,60.4
9724,69.72
9736,77.77
9748,84.98
9760,91.75
9772,98.32
9783,104.83
9794,111.38
9806,118.04
9818,124.71
9830,130.9
9842,135.68
9854,137.81
9866,136.11
9878,129.84
9890,118.98
9902,104.18
9914,86.56
9926,67.36
9938,47.67
9950,28.34
9962,9.97
9973,-7.02
9984,-22.33
9996,-35.72
10008,-46.89
10020,-55.59
10032,-61.54
10044,-64.7
10056,-65.31
10068,-64.01
10080,-61.68
10092,-59.29
10104,-57.53
10116,-56.71
10128,-56.75
10140,-57.31
10152,-58.07
10163,-58.77
10174,-59.29
10186,-59.6
10198,-59.61
10210,-59.19
10222,-58.13
10234,-56.34
10246,-53.82
10258,-50.81
10270,-47.61
10282,-44.53
10294,-41.72
10306,-39.15
10318,-36.68
10330,-34.17
10342,-31.67
10353,-29.36
10364,-27.57
10376,-26.51
10388,-26.22
10400,-26.47
10412,-26.86
10424,-26.95
10436,-26.5
10448,-25.5
10460,-24.2
10472,-22.92
10484,-21.82
10496,-20.67
10508,-18.85
10520,-15.53
10532,-10.04
10543,-2.3
10554,7.09
10566,16.94
10578,25.85
10590,32.71
10602,37.03
10614,38.94
10626,38.95
10638,37.65
10650,35.38
10662,32.29
10674,28.41
10686,23.86
10698,18.95
10710,14.08
10722,9.67
10733,5.96
10744,2.98
10756,0.61
10768,-1.33
10780,-2.99
10792,-4.47
10804,-5.81
10816,-7.06
10828,-8.3
10840,-9.57
10852,-10.92
10864,-12.32
10876,-13.72
10888,-15.03
10900,-16.16
10912,-17.07
10923,-17.84
10934,-18.67
10946,-19.77
10958,-21.33
10970,-23.28
10982,-25.26
10994,-26.73
11006,-27.05
11018,-25.78
11030,-22.83
11042,-18.52
11054,-13.4
11066,-8.13
11078,-3.23
11090,1.01
11102,4.47
11113,7.16
11124,9.1
11136,10.3
11148,10.82
11160,10.75
11172,10.3
11184,9.74
11196,9.38
11208,9.47
11220,10.16
11232,11.52
11244,13.51
11256,16.06
11268,19.02
11280,22.27
11292,25.7
11303,29.29
11314,33.05
11326,37.08
11338,41.54
11350,46.55
11362,52.19
11374,58.44
11386,65.13
11398,71.98
11410,78.48
11422,84.02
11434,87.88
11446,89.36
11458,87.85
11470,83.03
11482,74.99
11493,64.27
11504,51.85
11516,38.95
11528,26.73
11540,16.03
11552,7.19
11564,0.12
11576,-5.52
11588,-10.1
11600,-13.89
11612,-16.98
11624,-19.43
11636,-21.25
11648,-22.54
11660,-23.4
11672,-23.93
11683,-24.15
11694,-24.01
11706,-23.51
11718,-22.63
11730,-21.43
11742,-19.99
11754,-18.38
11766,-16.68
11778,-14.94
11790,-13.17
11802,-11.39
11814,-9.59
11826,-7.73
11838,-5.79
11850,-3.75
11862,-1.6
11873,0.63
11884,2.84
11896,4.92
11908,6.77
11920,8.3
11932,9.56
11944,10.6
11956,11.53
11968,12.44
11980,13.26
11992,13.76
12004,13.56
12016,12.31
12028,9.87
12040,6.46
12052,2.67
12063,-0.67
12074,-2.71
12086,-2.85
12098,-0.77
12110,3.66
12122,10.6
12134,20.23
12146,32.62
12158,47.25
12170,62.73
12182,76.87
12194,87.28
12206,92.09
12218,90.77
12230,84.39
12242,75.21
12253,65.88
12264,58.7
12276,55.32
12288,56.88
12300,64.14
12312,77.28
12324,95.32
12336,115.67
12348,134.15
12360,146.0
12372,147.41
12384,136.59
12396,114.06
12408,81.7
12420,41.65
12432,-4.47
12443,-55.45
12454,-109.76
12466,-165.09
12478,-218.45
12490,-266.91
12502,-308.04
12514,-339.71
12526,-359.01
12538,-361.8
12550,-343.51
12562,-301.03
12574,-234.95
12586,-150.62
12598,-57.52
12610,33.11
12622,110.84
12633,167.99
12644,200.37
12656,207.13
12668,190.44
12680,155.34
12692,109.4
12704,61.65
12716,20.81
12728,-6.95
12740,-19.57
12752,-19.3
12764,-11.52
12776,-2.69
12788,1.46
12800,-2.63
12812,-15.9
12823,-36.77
12834,-61.78
12846,-86.59
12858,-106.95
12870,-119.7
12882,-123.37
12894,-118.5
12906,-107.23
12918,-92.61
12930,-77.78
12942,-65.14
12954,-56.11
12966,-50.94
12978,-49.08
12990,-49.52
13002,-51.08
13013,-52.78
13024,-53.89
13036,-54.0
13048,-52.96
13060,-50.85
13072,-47.86
13084,-44.28
13096,-40.41
13108,-36.56
13120,-32.93
13132,-29.71
13144,-26.99
13156,-24.91
13168,-23.64
13180,-23.27
13192,-23.64
13203,-24.29
13214,-24.49
13226,-23.49
13238,-20.88
13250,-16.75
13262,-11.64
13274,-6.36
13286,-1.54
13298,2.54
13310,6.02
13322,9.26
13334,12.6
13346,16.18
13358,19.85
13370,23.35
13382,26.34
13393,28.57
13404,29.88
13416,30.24
13428,29.72
13440,28.42
13452,26.51
13464,24.17
13476,21.55
13488,18.77
13500,15.93
13512,13.09
13524,10.33
13536,7.69
13548,5.26
13560,3.13
13572,1.38
13583,0.13
13594,-0.6
13606,-0.85
13618,-0.76
13630,-0.58
13642,-0.52
13654,-0.73
13666,-1.25
13678,-2.05
13690,-3.05
13702,-4.22
13714,-5.57
13726,-7.17
13738,-9.16
13750,-11.66
13762,-14.74
13773,-18.23
13784,-21.69
13796,-24.38
13808,-25.41
13820,-24.04
13832,-20.03
13844,-13.74
13856,-6.13
13868,1.56
13880,8.24
13892,13.22
13904,16.36
13916,17.91
13928,18.26
13940,17.79
13952,16.78
13963,15.41
13974,13.86
13986,12.27
13998,10.77
14010,9.47
14022,8.43
14034,7.63
14046,6.99
14058,6.44
14070,5.89
14082,5.39
14094,5.01
14106,4.91
14118,5.2
14130,5.81
14142,6.55
14153,7.09
14164,7.17
14176,6.65
14188,5.68
14200,4.52
14212,3.44
14224,2.61
14236,1.96
14248,1.29
14260,0.34
14272,-1.09
14284,-3.05
14296,-5.47
14308,-8.09
14320,-10.48
14332,-12.1
14343,-12.44
14354,-11.17
14366,-8.26
14378,-4.05
14390,0.89
14402,5.86
14414,10.24
14426,13.64
14438,15.88
14450,17.03
14462,17.27
14474,16.8
14486,15.8
14498,14.46
14510,12.88
14522,11.18
14533,9.52
14544,8.0
14556,6.72
14568,5.7
14580,4.88
14592,4.1
14604,3.29
14616,2.4
14628,1.5
14640,0.7
14652,0.06
14664,-0.44
14676,-0.94
14688,-1.68
14700,-2.87
14712,-4.62
14723,-6.88
14734,-9.43
14746,-11.93
14758,-14.07
14770,-15.66
14782,-16.7
14794,-17.42
14806,-18.18
14818,-19.4
14830,-21.39
14842,-24.12
14854,-27.14
14866,-29.62
14878,-30.55
14890,-29.14
14902,-25.17
14913,-19.09
14924,-11.98
14936,-5.1
14948,0.44
14960,4.08
14972,5.86
14984,6.36
14996,6.37
15008,6.69
15020,7.84
15032,9.97
15044,12.91
15056,16.25
15068,19.65
15080,23.05
15092,26.82
15103,31.68
15114,38.39
15126,47.2
15138,57.45
15150,67.35
15162,74.27
15174,75.41
15186,68.69
15198,53.41
15210,30.61
15222,2.78
15234,-26.67
15246,-54.28
15258,-77.17
15270,-93.55
15282,-102.88
15293,-105.63
15304,-102.87
15316,-95.44
15328,-83.39
15340,-65.62
15352,-40.27
15364,-5.77
15376,38.01
15388,88.78
15400,141.74
15412,190.51
15424,228.55
15436,250.87
15448,255.11
15460,241.89
15472,214.3
15483,177.02
15494,135.24
15506,93.76
15518,56.39
15530,25.66
15542,2.71
15554,-12.57
15566,-21.27
15578,-25.07
15590,-25.88
15602,-25.5
15614,-25.29
15626,-26.1
15638,-28.23
15650,-31.41
15662,-35.03
15673,-38.13
15684,-39.73
15696,-39.11
15708,-36.15
15720,-31.48
15732,-26.23
15744,-21.47
15756,-17.62
15768,-14.07
15780,-9.52
15792,-2.65
15804,7.05
15816,18.81
15828,30.88
15840,41.29
15852,48.85
15863,53.66
15874,57.04
15886,60.86
15898,66.83
15910,75.77
15922,87.51
15934,101.16
15946,115.53
15958,129.59
15970,142.82
15982,155.17
15994,166.95
16006,178.64
16018,190.68
16030,203.35
16042,216.51
16053,229.26
16064,239.66
16076,244.99
16088,242.45
16100,230.27
16112,208.67
16124,179.99
16136,147.91
16148,116.06
16160,86.71
16172,60.38
16184,36.38
16196,13.91
16208,-7.12
16220,-26.13
16232,-42.65
16243,-57.08
16254,-70.88
16266,-86.08
16278,-104.21
16290,-125.41
16302,-148.54
16314,-171.74
16326,-193.41
16338,-212.51
16350,-228.32
16362,-240.05
16374,-247.24
16386,-250.66
16398,-253.01
16410,-258.51
16422,-270.78
16433,-290.35
16444,-313.16
16456,-331.45
16468,-336.89
16480,-324.23
16492,-293.56
16504,-249.67
16516,-199.23
16528,-147.66
16540,-97.62
16552,-49.7
16564,-4.41
16576,36.28
16588,69.03
16600,90.53
16612,99.19
16623,96.13
16634,84.9
16646,69.9
16658,54.7
16670,40.88
16682,27.86
16694,13.93
16706,-2.43
16718,-21.41
16730,-41.57
16742,-60.43
16754,-75.5
16766,-85.35
16778,-90.12
16790,-91.24
16802,-90.53
16813,-89.26
16824,-87.55
16836,-84.68
16848,-79.57
16860,-71.58
16872,-60.91
16884,-48.58
16896,-36.22
16908,-25.44
16920,-17.41
16932,-12.58
16944,-10.67
16956,-11.0
16968,-12.73
16980,-15.19
16992,-17.98
17003,-20.91
17014,-23.75
17026,-26.12
17038,-27.39
17050,-26.93
17062,-24.31
17074,-19.54
17086,-13.17
17098,-6.09
17110,0.77
17122,6.75
17134,11.62
17146,15.47
17158,18.56
17170,21.11
17182,23.17
17193,24.68
17204,25.52
17216,25.6
17228,24.98
17240,23.82
17252,22.36
17264,20.81
17276,19.27
17288,17.7
17300,15.98
17312,13.91
17324,11.37
17336,8.24
17348,4.49
17360,0.22
17372,-4.3
17383,-8.53
17394,-11.69
17406,-12.97
17418,-11.84
17430,-8.32
17442,-3.03
17454,3.0
17466,8.63
17478,13.07
17490,16.02
17502,17.59
17514,18.03
17526,17.58
17538,16.3
17550,14.21
17562,11.44
17573,8.29
17584,5.24
17596,2.79
17608,1.29
17620,0.93
17632,1.62
17644,3.14
17656,5.21
17668,7.53
17680,9.86
17692,12.03
17704,13.94
17716,15.49
17728,16.65
17740,17.32
17752,17.41
17763,16.85
17774,15.63
17786,13.85
17798,11.73
17810,9.52
17822,7.44
17834,5.62
17846,4.02
17858,2.53
17870,1.07
17882,-0.35
17894,-1.71
17906,-2.94
17918,-4.09
17930,-5.24
17942,-6.39
17953,-7.44
17964,-8.04
17976,-7.71
17988,-5.98
18000,-2.63
18012,2.14
18024,7.82
18036,13.64
18048,18.86
18060,22.95
18072,25.67
18084,27.08
18096,27.38
18108,26.82
18120,25.59
18132,23.81
18143,21.63
18154,19.28
18166,17.04
18178,15.23
18190,14.08
18202,13.55
18214,13.46
18226,13.48
18238,13.34
18250,12.99
18262,12.55
18274,12.19
18286,12.05
18298,12.05
18310,12.0
18322,11.68
18333,10.96
18344,9.92
18356,8.78
18368,7.77
18380,7.04
18392,6.59
18404,6.24
18416,5.78
18428,5.01
18440,3.85
18452,2.38
18464,0.92
18476,-0.03
18488,0.08
18500,1.66
18512,4.77
18523,9.08
18534,13.85
18546,18.22
18558,21.48
18570,23.28
18582,23.69
18594,23.08
18606,21.88
18618,20.38
18630,18.71
18642,16.88
18654,14.93
18666,13.01
18678,11.33
18690,10.12
18702,9.41
18713,9.11
18724,8.91
18736,8.54
18748,7.85
18760,6.84
18772,5.71
18784,4.61
18796,3.61
18808,2.61
18820,1.45
18832,0.01
18844,-1.68
18856,-3.39
18868,-4.9
18880,-6.03
18892,-6.77
18903,-7.33
18914,-7.98
18926,-9.0
18938,-10.46
18950,-12.21
18962,-13.79
18974,-14.62
18986,-14.11
18998,-11.89
19010,-7.99
19022,-2.84
19034,2.84
19046,8.24
19058,12.75
19070,16.12
19082,18.46
19093,20.13
19104,21.51
19116,22.83
19128,24.14
19140,25.31
19152,26.26
19164,26.98
19176,27.62
19188,28.4
19200,29.46
19212,30.8
19224,32.26
19236,33.67
19248,35.01
19260,36.5
19272,38.51
19283,41.37
19294,45.21
19306,49.84
19318,54.81
19330,59.57
19342,63.7
19354,67.04
19366,69.79
19378,72.33
19390,75.11
19402,78.32
19414,81.81
19426,85.15
19438,87.86
19450,89.8
19462,91.25
19473,93.01
19484,95.97
19496,100.93
19508,108.37
19520,118.4
19532,130.89
19544,145.3
19556,160.61
19568,175.22
19580,187.26
19592,195.0
19604,197.34
19616,193.9
19628,184.69
19640,169.49
19652,147.55
19663,117.72
19674,79.24
19686,32.66
19698,-19.82
19710,-74.6
19722,-127.77
19734,-176.33
19746,-218.86
19758,-255.77
19770,-288.61
19782,-319.29
19794,-349.09
19806,-378.07
19818,-404.65
19830,-425.71
19842,-437.17
19853,-434.92
19864,-416.01
19876,-379.7
19888,-327.95
19900,-265.1
19912,-196.54
19924,-127.15
19936,-60.03
19948,3.74
19960,64.46
19972,122.36
19984,176.46
19996,224.26
20008,262.48
20020,288.38
20032,300.86
20043,300.96
20054,291.47
20066,276.0
20078,257.96
20090,239.78
20102,222.72
20114,206.89
20126,191.59
20138,175.69
20150,157.94
20162,137.28
20174,112.98
20186,84.72
20198,52.64
20210,17.51
20222,-19.23
20233,-55.47
20244,-88.76
20256,-116.8
20268,-138.1
20280,-152.36
20292,-160.36
20304,-163.67
20316,-163.82
20328,-161.99
20340,-158.74
20352,-154.17
20364,-148.24
20376,-141.09
20388,-133.25
20400,-125.44
20412,-118.49
20423,-112.92
20434,-108.98
20446,-106.39
20458,-104.49
20470,-102.29
20482,-98.75
20494,-93.07
20506,-84.89
20518,-74.48
20530,-62.67
20542,-50.64
20554,-39.5
20566,-30.07
20578,-22.71
20590,-17.41
20602,-13.96
20613,-12.11
20624,-11.6
20636,-12.14
20648,-13.31
20660,-14.59
20672,-15.46
20684,-15.5
20696,-14.56
20708,-12.72
20720,-10.28
20732,-7.58
20744,-4.98
20756,-2.71
20768,-0.87
20780,0.55
20792,1.57
20803,2.22
20814,2.46
20826,2.21
20838,1.4
20850,0.0
20862,-1.87
20874,-3.98
20886,-6.05
20898,-7.81
20910,-9.08
20922,-9.8
20934,-10.0
20946,-9.87
20958,-9.69
20970,-9.74
20982,-10.26
20993,-11.35
