seconds,BVP
4,27.56
16,52.73
28,78.29
40,104.11
52,129.21
64,151.92
76,170.43
88,183.43
100,190.71
112,193.27
124,192.99
136,191.98
147,191.95
158,193.76
170,197.55
182,202.99
194,209.62
206,217.03
218,224.71
230,231.79
242,236.92
254,238.47
266,234.89
278,225.28
290,209.74
302,189.43
314,166.26
326,142.41
337,119.81
348,99.69
360,82.49
372,67.95
384,55.48
396,44.38
408,34.19
420,24.73
432,15.97
444,7.88
456,0.27
468,-7.17
480,-14.72
492,-22.44
504,-30.04
516,-36.94
527,-42.53
538,-46.45
550,-48.78
562,-50.05
574,-51.01
586,-52.33
598,-54.31
610,-56.76
622,-59.06
634,-60.28
646,-59.52
658,-56.08
670,-49.64
682,-40.4
694,-29.11
706,-16.91
717,-5.13
728,5.01
740,12.72
752,17.68
764,20.01
776,20.09
788,18.35
800,15.19
812,11.04
824,6.34
836,1.68
848,-2.42
860,-5.6
872,-7.85
884,-9.52
896,-11.18
907,-13.44
918,-16.7
930,-21.09
942,-26.55
954,-32.98
966,-40.29
978,-48.46
990,-57.33
1002,-66.55
1014,-75.49
1026,-83.35
1038,-89.55
1050,-93.89
1062,-96.78
1074,-99.09
1086,-101.82
1097,-105.59
1108,-110.33
1120,-115.18
1132,-118.62
1144,-119.02
1156,-114.97
1168,-105.76
1180,-91.55
1192,-73.36
1204,-52.85
1216,-31.93
1228,-12.39
1240,4.45
1252,17.92
1264,27.94
1276,34.89
1287,39.29
1298,41.64
1310,42.32
1322,41.62
1334,39.9
1346,37.54
1358,35.03
1370,32.8
1382,31.11
1394,29.94
1406,29.1
1418,28.18
1430,26.78
1442,24.64
1454,21.64
1466,17.87
1477,13.55
1488,8.99
1500,4.51
1512,0.41
1524,-3.1
1536,-5.97
1548,-8.3
1560,-10.4
1572,-12.67
1584,-15.51
1596,-19.11
1608,-23.37
1620,-27.76
1632,-31.38
1644,-33.2
1656,-32.32
1667,-28.34
1678,-21.45
1690,-12.47
1702,-2.51
1714,7.33
1726,16.35
1738,24.26
1750,31.12
1762,37.08
1774,42.19
1786,46.4
1798,49.58
1810,51.73
1822,53.03
1834,53.83
1846,54.49
1857,55.35
1868,56.56
1880,58.13
1892,59.92
1904,61.74
1916,63.32
1928,64.51
1940,65.28
1952,65.7
1964,65.86
1976,65.75
1988,65.23
2000,64.04
2012,61.96
2024,58.86
2036,54.84
2047,50.06
2058,44.73
2070,39.03
2082,33.24
2094,27.79
2106,23.27
2118,20.31
2130,19.27
2142,20.15
2154,22.43
2166,25.36
2178,28.23
2190,30.54
2202,32.16
2214,33.12
2226,33.39
2237,32.77
2248,30.91
2260,27.54
2272,22.68
2284,16.75
2296,10.4
2308,4.25
2320,-1.4
2332,-6.71
2344,-12.17
2356,-18.28
2368,-25.23
2380,-32.8
2392,-40.45
2404,-47.61
2416,-53.97
2427,-59.7
2438,-65.35
2450,-71.67
2462,-79.31
2474,-88.57
2486,-99.25
2498,-110.56
2510,-121.07
2522,-128.73
2534,-131.19
2546,-126.25
2558,-112.53
2570,-90.14
2582,-60.95
2594,-28.29
2606,3.87
2617,32.05
2628,54.08
2640,69.45
2652,78.99
2664,84.18
2676,86.46
2688,86.9
2700,86.09
2712,84.5
2724,82.51
2736,80.52
2748,78.79
2760,77.28
2772,75.72
2784,73.61
2796,70.62
2807,66.62
2818,61.82
2830,56.67
2842,51.59
2854,46.87
2866,42.43
2878,37.96
2890,32.98
2902,27.17
2914,20.54
2926,13.44
2938,6.46
2950,0.14
2962,-5.21
2974,-9.57
2986,-13.02
2997,-15.56
3008,-16.94
3020,-16.72
3032,-14.57
3044,-10.43
3056,-4.71
3068,1.88
3080,8.57
3092,14.81
3104,20.32
3116,25.11
3128,29.24
3140,32.68
3152,35.31
3164,36.93
3176,37.4
3187,36.74
3198,35.19
3210,33.16
3222,31.1
3234,29.4
3246,28.22
3258,27.5
3270,26.97
3282,26.37
3294,25.53
3306,24.42
3318,23.14
3330,21.74
3342,20.16
3354,18.26
3366,15.9
3377,13.07
3388,10.01
3400,7.01
3412,4.4
3424,2.3
3436,0.67
3448,-0.71
3460,-2.07
3472,-3.65
3484,-5.7
3496,-8.39
3508,-11.81
3520,-15.84
3532,-19.99
3544,-23.46
3556,-25.27
3567,-24.66
3578,-21.34
3590,-15.69
3602,-8.58
3614,-1.1
3626,5.86
3638,11.78
3650,16.49
3662,20.03
3674,22.47
3686,23.88
3698,24.37
3710,24.19
3722,23.75
3734,23.54
3746,23.9
3757,24.9
3768,26.36
3780,27.95
3792,29.46
3804,30.84
3816,32.23
3828,33.8
3840,35.62
3852,37.57
3864,39.4
3876,40.85
3888,41.82
3900,42.46
3912,43.06
3924,43.8
3936,44.81
3947,46.14
3958,47.78
3970,49.69
3982,51.72
3994,53.6
4006,55.16
4018,56.21
4030,56.65
4042,56.6
4054,56.37
4066,56.33
4078,56.67
4090,57.22
4102,57.55
4114,57.48
4126,56.9
4137,55.89
4148,54.84
4160,54.31
4172,54.81
4184,56.55
4196,59.23
4208,62.27
4220,65.87
4232,70.04
4244,74.61
4256,79.42
4268,84.59
4280,90.2
4292,96.3
4304,102.49
4316,108.23
4327,114.77
4338,122.84
4350,132.42
4362,143.19
4374,155.24
4386,168.89
4398,184.61
4410,201.8
4422,218.65
4434,234.87
4446,247.91
4458,253.59
4470,248.07
4482,230.1
4494,201.08
4506,164.69
4517,124.26
4528,81.98
4540,42.13
4552,6.09
4564,-27.2
4576,-59.52
4588,-91.35
4600,-122.17
4612,-150.48
4624,-175.92
4636,-218.93
4648,-283.47
4660,-358.31
4672,-426.25
4684,-477.14
4696,-507.65
4707,-523.64
4718,-526.32
4730,-514.14
4742,-485.2
4754,-433.27
4766,-358.85
4778,-269.0
4790,-173.84
4802,-81.5
4814,3.74
4826,81.57
4838,151.62
4850,211.3
4862,258.04
4874,286.71
4886,292.66
4897,274.97
4908,237.95
4920,188.93
4932,135.53
4944,82.3
4956,30.93
4968,-16.08
4980,-56.42
4992,-87.44
5004,-106.98
5016,-114.41
5028,-111.72
5040,-102.62
5052,-91.42
5064,-80.9
5076,-70.59
5087,-58.76
5098,-43.75
5110,-25.03
5122,-3.12
5134,21.06
5146,47.09
5158,75.03
5170,105.2
5182,138.0
5194,172.82
5206,208.03
5218,241.29
5230,270.38
5242,293.66
5254,310.41
5266,320.61
5277,324.63
5288,323.01
5300,316.2
5312,304.59
5324,288.66
5336,269.08
5348,246.69
5360,222.3
5372,196.43
5384,169.14
5396,140.04
5408,108.7
5420,74.97
5432,39.23
5444,2.38
5456,-34.46
5467,-70.28
5478,-104.49
5490,-136.97
5502,-167.99
5514,-198.04
5526,-227.78
5538,-257.93
5550,-289.16
5562,-321.79
5574,-355.39
5586,-388.51
5598,-418.81
5610,-443.7
5622,-461.18
5634,-470.73
5646,-473.49
5657,-471.83
5668,-468.34
5680,-464.89
5692,-462.13
5704,-459.7
5716,-456.91
5728,-453.39
5740,-449.32
5752,-445.17
5764,-441.11
5776,-436.64
5788,-430.7
5800,-422.06
5812,-409.87
5824,-393.79
5836,-373.89
5847,-350.04
5858,-321.76
5870,-288.24
5882,-248.84
5894,-203.7
5906,-153.88
5918,-101.08
5930,-47.09
5942,6.69
5954,59.26
5966,109.47
5978,155.51
5990,194.79
6002,224.55
6014,242.84
6026,249.39
6037,245.96
6048,235.68
6060,222.04
6072,207.8
6084,194.58
6096,182.9
6108,172.79
6120,164.24
6132,157.33
6144,152.04
6156,147.98
6168,144.24
6180,139.62
6192,133.11
6204,124.22
6216,113.21
6227,100.92
6238,88.36
6250,76.26
6262,64.88
6274,53.98
6286,43.17
6298,32.21
6310,21.28
6322,10.97
6334,2.02
6346,-4.99
6358,-9.88
6370,-12.92
6382,-14.73
6394,-16.1
6406,-17.76
6417,-20.21
6428,-23.57
6440,-27.49
6452,-31.12
6464,-33.27
6476,-32.76
6488,-28.9
6500,-21.79
6512,-12.33
6524,-1.93
6536,8.16
6548,17.23
6560,25.36
6572,33.23
6584,41.61
6596,50.95
6607,61.16
6618,71.77
6630,82.32
6642,92.63
6654,103.02
6666,113.88
6678,125.27
6690,136.52
6702,146.13
6714,152.17
6726,152.92
6738,147.61
6750,136.77
6762,122.21
6774,106.44
6786,91.95
6797,80.53
6808,72.88
6820,68.7
6832,67.07
6844,66.85
6856,67.2
6868,67.78
6880,68.97
6892,71.78
6904,77.59
6916,87.78
6928,103.14
6940,123.39
6952,146.97
6964,171.12
6976,192.51
6987,208.01
6998,215.47
7010,214.06
7022,204.23
7034,187.3
7046,164.83
7058,138.31
7070,109.04
7082,78.18
7094,47.05
7106,17.14
7118,-9.92
7130,-32.74
7142,-50.63
7154,-63.66
7166,-72.56
7177,-78.14
7188,-80.78
7200,-80.22
7212,-75.8
7224,-67.05
7236,-54.32
7248,-38.94
7260,-22.99
7272,-8.64
7284,2.37
7296,9.17
7308,11.56
7320,9.79
7332,4.27
7344,-4.61
7356,-16.39
7367,-30.57
7378,-46.59
7390,-63.95
7402,-82.29
7414,-101.23
7426,-120.41
7438,-139.13
7450,-156.44
7462,-171.15
7474,-182.09
7486,-188.37
7498,-189.57
7510,-185.82
7522,-177.75
7534,-166.39
7546,-152.96
7557,-138.7
7568,-124.74
7580,-111.96
7592,-100.96
7604,-91.94
7616,-84.86
7628,-79.47
7640,-75.47
7652,-72.57
7664,-70.6
7676,-69.47
7688,-69.19
7700,-69.89
7712,-71.89
7724,-75.64
7736,-81.58
7747,-89.92
7758,-100.34
7770,-111.81
7782,-122.7
7794,-131.17
7806,-135.76
7818,-135.88
7830,-132.08
7842,-125.8
7854,-118.85
7866,-112.8
7878,-108.43
7890,-105.68
7902,-103.75
7914,-101.51
7926,-97.86
7937,-91.99
7948,-83.42
7960,-71.95
7972,-57.59
7984,-40.46
7996,-20.83
8008,0.8
8020,23.75
8032,47.1
8044,69.72
8056,90.23
8068,107.1
8080,118.72
8092,123.82
8104,121.94
8116,113.82
8127,101.55
8138,88.12
8150,76.66
8162,69.42
8174,67.1
8186,68.84
8198,72.68
8210,76.41
8222,78.29
8234,77.33
8246,73.24
8258,66.19
8270,56.48
8282,44.46
8294,30.56
8306,15.3
8317,-0.68
8328,-16.54
8340,-31.32
8352,-43.93
8364,-53.28
8376,-58.59
8388,-59.65
8400,-56.98
8412,-51.77
8424,-45.43
8436,-39.14
8448,-33.48
8460,-28.28
8472,-22.86
8484,-16.37
8496,-8.23
8507,1.67
8518,12.84
8530,24.32
8542,34.82
8554,42.94
8566,47.5
8578,47.61
8590,42.92
8602,33.65
8614,20.64
8626,5.36
8638,-10.23
8650,-24.05
8662,-34.3
8674,-39.96
8686,-40.99
8697,-38.15
8708,-32.38
8720,-24.36
8732,-14.2
8744,-1.75
8756,12.83
8768,28.64
8780,44.09
8792,57.44
8804,67.66
8816,74.87
8828,80.31
8840,85.67
8852,92.22
8864,100.26
8876,109.12
8887,117.61
8898,124.73
8910,130.05
8922,133.78
8934,136.4
8946,138.28
8958,139.43
8970,139.53
8982,138.26
8994,135.51
9006,131.58
9018,127.07
9030,122.61
9042,118.61
9054,115.03
9066,111.47
9077,107.31
9088,101.99
9100,95.23
9112,87.16
9124,78.22
9136,69.02
9148,60.05
9160,51.54
9172,43.29
9184,34.88
9196,25.8
9208,15.7
9220,4.56
9232,-7.34
9244,-19.6
9256,-31.78
9267,-43.38
9278,-53.75
9290,-62.05
9302,-67.33
9314,-68.8
9326,-66.17
9338,-59.78
9350,-50.58
9362,-39.75
9374,-28.38
9386,-17.22
9398,-6.75
9410,2.71
9422,10.74
9434,16.91
9446,20.86
9457,22.58
9468,22.41
9480,21.06
9492,19.26
9504,17.58
9516,16.24
9528,15.15
9540,14.01
9552,12.48
9564,10.36
9576,7.55
9588,4.13
9600,0.15
9612,-4.35
9624,-9.39
9636,-14.95
9647,-20.98
9658,-27.23
9670,-33.38
9682,-39.15
9694,-44.45
9706,-49.42
9718,-54.36
9730,-59.45
9742,-64.6
9754,-69.34
9766,-73.07
9778,-75.25
9790,-75.73
9802,-74.82
9814,-73.13
9826,-71.26
9837,-69.58
9848,-68.02
9860,-66.26
9872,-63.92
9884,-60.85
9896,-57.21
9908,-53.48
9920,-50.19
9932,-47.8
9944,-46.53
9956,-46.36
9968,-46.93
9980,-47.55
9992,-47.18
10004,-44.54
10016,-38.37
10027,-27.89
10038,-13.07
10050,5.21
10062,25.47
10074,46.09
10086,65.81
10098,83.94
10110,100.29
10122,114.83
10134,127.49
10146,138.02
10158,146.25
10170,152.26
10182,156.5
10194,159.68
10206,162.5
10217,165.41
10228,168.54
10240,171.8
10252,175.09
10264,178.41
10276,181.9
10288,185.65
10300,189.55
10312,193.16
10324,195.86
10336,197.08
10348,196.5
10360,194.13
10372,190.26
10384,185.17
10396,178.97
10407,171.31
10418,161.44
10430,148.34
10442,131.08
10454,109.11
10466,82.44
10478,51.68
10490,17.89
10502,-17.76
10514,-54.41
10526,-91.83
10538,-130.38
10550,-170.59
10562,-212.73
10574,-256.37
10586,-300.17
10597,-341.92
10608,-379.04
10620,-409.52
10632,-432.5
10644,-448.17
10656,-457.42
10668,-461.27
10680,-460.58
10692,-455.74
10704,-446.19
10716,-430.79
10728,-408.76
10740,-380.28
10752,-346.27
10764,-307.96
10776,-266.64
10787,-223.73
10798,-180.88
10810,-139.39
10822,-100.48
10834,-65.94
10846,-38.17
10858,-18.9
10870,-8.19
10882,-4.32
10894,-4.3
10906,-4.78
10918,-1.57
10930,9.46
10942,30.87
10954,62.47
10966,101.74
10977,144.96
10988,188.44
11000,230.02
11012,264.17
11024,284.61
11036,290.55
11048,287.41
11060,279.73
11072,267.41
11084,248.29
11096,221.92
11108,190.87
11120,159.34
11132,131.81
11144,110.89
11156,96.74
11167,87.11
11178,79.48
11190,72.49
11202,65.72
11214,58.99
11226,52.02
11238,46.53
11250,42.47
11262,39.89
11274,37.88
11286,35.1
11298,30.69
11310,24.67
11322,17.47
11334,9.79
11346,2.64
11357,-3.35
11368,-7.91
11380,-11.77
11392,-15.81
11404,-20.44
11416,-25.35
11428,-29.81
11440,-33.09
11452,-34.46
11464,-34.33
11476,-32.77
11488,-30.29
11500,-27.48
11512,-24.81
11524,-22.53
11536,-20.85
11547,-19.88
11558,-19.65
11570,-20.14
11582,-21.02
11594,-22.05
11606,-23.11
11618,-24.02
11630,-24.65
11642,-24.83
11654,-24.4
11666,-23.34
11678,-21.87
11690,-20.31
11702,-19.1
11714,-18.65
11726,-19.13
11737,-20.47
11748,-22.45
11760,-24.85
11772,-27.49
11784,-30.25
11796,-32.94
11808,-35.39
11820,-37.52
11832,-39.41
11844,-41.25
11856,-43.3
11868,-45.68
11880,-48.27
11892,-50.66
11904,-52.21
11916,-52.26
11927,-50.33
11938,-46.26
11950,-40.23
11962,-32.72
11974,-24.31
11986,-15.5
11998,-6.58
12010,2.39
12022,11.37
12034,20.16
12046,28.35
12058,35.37
12070,40.73
12082,44.25
12094,46.12
12106,46.73
12117,46.52
12128,45.73
12140,44.4
12152,42.51
12164,40.12
12176,37.42
12188,34.73
12200,32.35
12212,30.38
12224,28.7
12236,27.0
12248,24.92
12260,22.28
12272,19.13
12284,15.77
12296,12.62
12307,10.02
12318,8.13
12330,6.84
12342,5.97
12354,5.33
12366,4.81
12378,4.38
12390,3.92
12402,3.25
12414,2.04
12426,0.04
12438,-2.88
12450,-6.59
12462,-10.79
12474,-15.15
12486,-19.44
12497,-23.59
12508,-27.7
12520,-31.81
12532,-35.92
12544,-39.89
12556,-43.54
12568,-46.68
12580,-49.08
12592,-50.43
12604,-50.28
12616,-48.15
12628,-43.68
12640,-36.84
12652,-28.07
12664,-18.14
12676,-7.94
12687,1.82
12698,10.77
12710,18.87
12722,26.25
12734,32.98
12746,38.98
12758,44.04
12770,47.93
12782,50.58
12794,52.12
12806,52.83
12818,53.11
12830,53.25
12842,53.26
12854,53.01
12866,52.3
12877,51.08
12888,49.42
12900,47.55
12912,45.61
12924,43.73
12936,41.82
12948,39.66
12960,37.07
12972,34.08
12984,30.93
12996,27.96
13008,25.42
13020,23.44
13032,22.09
13044,21.29
13056,20.76
13067,20.14
13078,19.11
13090,17.53
13102,15.53
13114,13.56
13126,12.36
13138,13.04
13150,16.15
13162,21.08
13174,26.39
13186,30.67
13198,33.5
13210,35.84
13222,39.72
13234,47.38
13246,60.62
13257,78.75
13268,98.21
13280,114.05
13292,122.73
13304,123.42
13316,117.94
13328,109.46
13340,101.12
13352,95.77
13364,94.13
13376,94.96
13388,96.73
13400,99.08
13412,102.34
13424,105.86
13436,107.39
13447,104.21
13458,96.47
13470,86.72
13482,78.73
13494,76.02
13506,80.47
13518,90.33
13530,99.76
13542,101.2
13554,80.29
13566,35.71
13578,-16.26
13590,-53.04
13602,-62.84
13614,-48.88
13626,-23.1
13637,1.8
13648,17.93
13660,23.9
13672,24.05
13684,22.03
13696,18.04
13708,9.39
13720,-6.08
13732,-28.06
13744,-54.15
13756,-81.78
13768,-104.24
13780,-118.05
13792,-123.95
13804,-126.29
13816,-130.65
13827,-140.73
13838,-156.99
13850,-177.53
13862,-199.63
13874,-220.97
13886,-240.61
13898,-259.61
13910,-281.23
13922,-309.48
13934,-346.61
13946,-391.02
13958,-436.72
13970,-474.22
13982,-493.19
13994,-486.16
14006,-451.21
14017,-393.02
14028,-321.12
14040,-246.35
14052,-177.5
14064,-119.66
14076,-74.31
14088,-40.58
14100,-16.85
14112,-1.08
14124,9.31
14136,17.71
14148,28.03
14160,43.58
14172,65.65
14184,92.82
14196,121.45
14207,146.79
14218,165.12
14230,174.93
14242,177.19
14254,174.4
14266,169.39
14278,164.16
14290,159.53
14302,155.42
14314,151.36
14326,147.14
14338,142.89
14350,138.95
14362,135.38
14374,131.85
14386,127.66
14397,122.09
14408,114.9
14420,106.67
14432,98.72
14444,92.51
14456,88.97
14468,87.82
14480,87.53
14492,85.99
14504,81.5
14516,73.7
14528,63.92
14540,54.66
14552,48.77
14564,48.3
14576,54.04
14587,65.54
14598,81.37
14610,99.28
14622,116.39
14634,129.57
14646,136.67
14658,138.09
14670,137.95
14682,143.49
14694,162.26
14706,198.14
14718,248.11
14730,301.87
14742,345.05
14754,364.41
14766,352.77
14777,311.02
14788,246.77
14800,170.35
14812,91.16
14824,15.38
14836,-53.99
14848,-115.81
14860,-169.8
14872,-216.33
14884,-257.0
14896,-294.7
14908,-332.32
14920,-370.63
14932,-406.18
14944,-431.17
14956,-435.57
14967,-410.97
14978,-354.28
14990,-269.63
15002,-167.16
15014,-59.67
15026,41.71
15038,130.68
15050,206.61
15062,272.94
15074,334.23
15086,393.24
15098,449.37
15110,498.83
15122,536.15
15134,556.33
15146,556.72
15157,537.74
15168,502.54
15180,455.55
15192,401.16
15204,342.89
15216,283.37
15228,224.83
15240,169.43
15252,119.16
15264,75.21
15276,37.55
15288,4.68
15300,-25.89
15312,-56.66
15324,-89.32
15336,-124.48
15347,-161.91
15358,-201.09
15370,-241.33
15382,-281.19
15394,-317.84
15406,-346.93
15418,-363.49
15430,-363.72
15442,-346.51
15454,-313.94
15466,-270.28
15478,-220.36
15490,-168.06
15502,-115.99
15514,-66.15
15526,-20.93
15537,16.52
15548,42.82
15560,55.65
15572,54.84
15584,42.58
15596,22.62
15608,-0.94
15620,-24.8
15632,-46.93
15644,-66.65
15656,-84.15
15668,-100.14
15680,-115.56
15692,-131.7
15704,-150.33
15716,-173.57
15727,-202.96
15738,-238.07
15750,-275.42
15762,-308.36
15774,-328.72
15786,-329.5
15798,-307.58
15810,-265.04
15822,-208.56
15834,-147.04
15846,-88.79
15858,-39.5
15870,-1.61
15882,24.91
15894,41.21
15906,48.5
15917,47.65
15928,39.4
15940,24.83
15952,5.64
15964,-15.84
15976,-36.85
15988,-54.66
16000,-67.01
16012,-72.47
16024,-70.53
16036,-61.6
16048,-46.89
16060,-28.19
16072,-7.61
16084,12.57
16096,30.17
16107,43.33
16118,50.81
16130,52.21
16142,48.01
16154,39.54
16166,28.67
16178,17.36
16190,7.14
16202,-1.16
16214,-7.52
16226,-12.27
16238,-15.73
16250,-17.75
16262,-17.68
16274,-14.63
16286,-7.97
16297,2.28
16308,15.19
16320,29.09
16332,41.87
16344,51.41
16356,56.06
16368,55.01
16380,48.49
16392,37.85
16404,25.21
16416,12.94
16428,2.96
16440,-3.68
16452,-6.93
16464,-7.37
16476,-5.88
16487,-3.4
16498,-0.9
16510,0.51
16522,-0.3
16534,-4.1
16546,-10.91
16558,-19.6
16570,-28.13
16582,-34.12
16594,-35.71
16606,-32.15
16618,-23.9
16630,-12.31
16642,1.02
16654,14.69
16666,27.82
16677,40.01
16688,51.13
16700,61.19
16712,70.22
16724,78.24
16736,85.49
16748,92.49
16760,100.04
16772,108.97
16784,119.75
16796,132.24
16808,145.53
16820,158.32
16832,169.34
16844,177.77
16856,183.5
16867,186.86
16878,188.36
16890,188.36
16902,186.96
16914,184.11
16926,179.8
16938,174.23
16950,167.78
16962,160.81
16974,153.42
16986,145.37
16998,136.09
17010,124.93
17022,111.35
17034,95.1
17046,76.2
17057,54.77
17068,30.85
17080,4.29
17092,-25.24
17104,-58.09
17116,-94.46
17128,-134.34
17140,-177.43
17152,-223.14
17164,-270.38
17176,-317.46
17188,-362.12
17200,-401.77
17212,-434.02
17224,-457.07
17236,-469.97
17247,-472.66
17258,-465.69
17270,-450.08
17282,-427.08
17294,-398.15
17306,-364.86
17318,-328.69
17330,-290.86
17342,-252.1
17354,-212.87
17366,-173.52
17378,-134.61
17390,-97.07
17402,-61.97
17414,-30.21
17426,-2.19
17437,22.27
17448,43.78
17460,63.07
17472,80.59
17484,96.39
17496,110.09
17508,121.03
17520,128.43
17532,131.57
17544,129.95
17556,123.52
17568,112.68
17580,98.23
17592,81.07
17604,61.88
17616,40.87
17627,17.84
17638,-7.49
17650,-34.99
17662,-63.73
17674,-91.95
17686,-117.39
17698,-137.85
17710,-151.82
17722,-158.8
17734,-159.33
17746,-154.7
17758,-146.54
17770,-136.35
17782,-125.21
17794,-113.68
17806,-101.99
17817,-90.21
17828,-78.55
17840,-67.45
17852,-57.44
17864,-48.93
17876,-42.06
17888,-36.75
17900,-32.71
17912,-29.71
17924,-27.63
17936,-26.28
17948,-25.22
17960,-23.64
17972,-20.54
17984,-15.1
17996,-7.22
18007,2.4
18018,12.41
18030,21.26
18042,27.8
18054,31.53
18066,32.54
18078,31.19
18090,27.88
18102,22.91
18114,16.68
18126,9.97
18138,3.96
18150,0.07
18162,-0.46
18174,3.0
18186,10.16
18197,19.98
18208,31.02
18220,41.85
18232,51.53
18244,59.66
18256,66.31
18268,71.64
18280,75.67
18292,78.26
18304,79.19
18316,78.48
18328,76.45
18340,73.72
18352,70.95
18364,68.58
18376,66.7
18387,65.03
18398,63.13
18410,60.58
18422,57.09
18434,52.62
18446,47.27
18458,41.3
18470,35.03
18482,28.77
18494,22.8
18506,17.24
18518,12.02
18530,6.87
18542,1.51
18554,-4.26
18566,-10.38
18577,-16.54
18588,-22.18
18600,-26.58
18612,-28.92
18624,-28.5
18636,-24.81
18648,-17.76
18660,-7.84
18672,3.95
18684,16.33
18696,27.98
18708,37.97
18720,45.89
18732,51.87
18744,56.33
18756,59.73
18767,62.36
18778,64.32
18790,65.62
18802,66.37
18814,66.8
18826,67.27
18838,68.15
18850,69.62
18862,71.61
18874,73.72
18886,75.31
18898,75.64
18910,74.16
18922,70.63
18934,65.22
18946,58.43
18957,50.92
18968,43.31
18980,35.99
18992,29.18
19004,22.9
19016,17.08
19028,11.59
19040,6.2
19052,0.64
19064,-5.35
19076,-11.76
19088,-18.18
19100,-23.4
19112,-26.02
19124,-24.94
19136,-19.82
19147,-11.19
19158,-0.28
19170,11.28
19182,21.89
19194,30.36
19206,36.33
19218,39.92
19230,41.48
19242,41.44
19254,40.29
19266,38.55
19278,36.64
19290,34.76
19302,32.84
19314,31.22
19326,30.01
19337,28.86
19348,27.18
19360,24.54
19372,20.91
19384,16.45
19396,11.2
19408,5.05
19420,-0.56
19432,-4.7
19444,-7.69
19456,-10.89
19468,-15.5
19480,-21.92
19492,-29.93
19504,-39.08
19516,-48.94
19527,-55.64
19538,-56.66
19550,-52.77
19562,-47.55
19574,-44.34
19586,-44.04
19598,-45.04
19610,-44.31
19622,-38.88
19634,-21.3
19646,12.27
19658,59.13
19670,111.59
19682,162.08
19694,206.55
19706,244.41
19717,276.84
19728,305.22
19740,337.75
19752,379.75
19764,429.85
19776,481.58
19788,528.81
19800,569.3
19812,603.99
19824,634.79
19836,616.42
19848,524.56
19860,370.88
19872,196.11
19884,38.47
19896,-83.96
19907,-169.1
19918,-222.49
19930,-252.51
19942,-268.29
19954,-270.66
19966,-258.73
19978,-237.46
19990,-214.61
20002,-196.6
20014,-186.21
20026,-183.35
20038,-186.86
20050,-195.43
20062,-202.01
20074,-201.19
20086,-192.44
20097,-180.26
20108,-168.62
20120,-159.22
20132,-151.85
20144,-145.65
20156,-139.93
20168,-130.8
20180,-115.71
20192,-95.51
20204,-73.54
20216,-53.19
20228,-36.4
20240,-23.76
20252,-15.16
20264,-10.24
20276,-6.79
20287,-2.85
20298,2.07
20310,7.38
20322,12.36
20334,16.65
20346,20.25
20358,23.16
20370,25.26
20382,26.93
20394,28.26
20406,28.75
20418,27.73
20430,24.95
20442,20.83
20454,16.22
20466,11.81
20477,7.66
20488,2.98
20500,-3.52
20512,-12.96
20524,-25.51
20536,-40.14
20548,-54.95
20560,-67.93
20572,-77.71
20584,-83.97
20596,-87.37
20608,-89.04
20620,-90.04
20632,-91.03
20644,-92.16
20656,-93.29
20667,-94.04
20678,-93.91
20690,-92.29
20702,-88.57
20714,-82.45
20726,-74.21
20738,-65.05
20750,-56.97
20762,-52.36
20774,-53.23
20786,-60.24
20798,-72.01
20810,-84.86
20822,-93.72
20834,-93.58
20846,-81.12
20857,-55.65
20868,-18.99
20880,25.38
20892,73.22
20904,120.18
20916,161.83
20928,193.87
20940,212.62
20952,216.09
20964,205.03
20976,183.07
20988,155.88
