seconds,BVP
8,32.91
20,26.39
32,20.16
44,14.5
56,9.47
68,4.97
80,0.81
92,-3.12
104,-6.89
116,-10.49
128,-13.88
140,-17.04
152,-19.95
164,-22.61
176,-25.08
187,-27.43
198,-29.81
210,-32.39
222,-35.29
234,-38.53
246,-41.98
258,-45.32
270,-48.17
282,-50.12
294,-50.83
306,-50.14
318,-48.19
330,-45.39
342,-42.43
354,-40.08
366,-38.9
377,-39.13
388,-40.61
400,-42.92
412,-45.58
424,-48.26
436,-50.78
448,-53.08
460,-55.06
472,-56.53
484,-57.28
496,-57.17
508,-56.3
520,-55.03
532,-53.9
544,-53.37
556,-53.71
567,-54.84
578,-56.43
590,-58.0
602,-59.12
614,-59.55
626,-59.24
638,-58.32
650,-56.99
662,-55.44
674,-53.83
686,-52.27
698,-50.8
710,-49.39
722,-47.9
734,-46.16
746,-43.97
757,-41.29
768,-38.25
780,-35.14
792,-32.34
804,-30.15
816,-28.73
828,-28.06
840,-27.96
852,-28.19
864,-28.47
876,-28.62
888,-28.51
900,-28.15
912,-27.64
924,-27.13
936,-26.79
947,-26.67
958,-26.8
970,-27.14
982,-27.69
994,-28.5
1006,-29.61
1018,-30.95
1030,-32.35
1042,-33.49
1054,-34.06
1066,-33.9
1078,-33.1
1090,-31.98
1102,-31.0
1114,-30.54
1126,-30.74
1137,-31.43
1148,-32.2
1160,-32.5
1172,-31.87
1184,-30.08
1196,-27.21
1208,-23.63
1220,-19.87
1232,-16.43
1244,-13.7
1256,-11.81
1268,-10.73
1280,-10.28
1292,-10.26
1304,-10.46
1316,-10.76
1327,-11.09
1338,-11.4
1350,-11.72
1362,-12.1
1374,-12.66
1386,-13.45
1398,-14.49
1410,-15.66
1422,-16.78
1434,-17.7
1446,-18.34
1458,-18.74
1470,-19.04
1482,-19.37
1494,-19.85
1506,-20.48
1517,-21.21
1528,-21.95
1540,-22.57
1552,-22.89
1564,-22.76
1576,-21.96
1588,-20.34
1600,-17.74
1612,-14.09
1624,-9.38
1636,-3.67
1648,2.91
1660,10.14
1672,17.73
1684,25.35
1696,32.65
1707,39.37
1718,45.34
1730,50.52
1742,54.99
1754,58.86
1766,62.31
1778,65.48
1790,68.53
1802,71.59
1814,74.73
1826,78.01
1838,81.47
1850,85.08
1862,88.8
1874,92.52
1886,96.13
1897,99.56
1908,102.74
1920,105.69
1932,108.4
1944,110.8
1956,112.75
1968,114.06
1980,114.54
1992,114.06
2004,112.67
2016,110.53
2028,107.8
2040,104.61
2052,100.9
2064,96.44
2076,90.88
2087,83.88
2098,75.17
2110,64.65
2122,52.4
2134,38.59
2146,23.53
2158,7.56
2170,-8.82
2182,-24.94
2194,-39.99
2206,-53.16
2218,-63.89
2230,-72.1
2242,-78.23
2254,-82.97
2266,-86.92
2277,-90.31
2288,-92.98
2300,-94.57
2312,-94.85
2324,-93.96
2336,-92.25
2348,-90.18
2360,-87.94
2372,-85.44
2384,-82.42
2396,-78.71
2408,-74.38
2420,-69.74
2432,-65.2
2444,-61.08
2456,-57.51
2467,-54.43
2478,-51.69
2490,-49.12
2502,-46.65
2514,-44.25
2526,-41.95
2538,-39.73
2550,-37.5
2562,-35.11
2574,-32.32
2586,-28.89
2598,-24.65
2610,-19.59
2622,-13.94
2634,-8.11
2646,-2.59
2657,2.17
2668,5.95
2680,8.76
2692,10.85
2704,12.53
2716,14.11
2728,15.78
2740,17.61
2752,19.62
2764,21.84
2776,24.28
2788,26.94
2800,29.78
2812,32.7
2824,35.6
2836,38.41
2847,41.08
2858,43.6
2870,45.96
2882,48.12
2894,50.06
2906,51.73
2918,53.13
2930,54.29
2942,55.29
2954,56.25
2966,57.22
2978,58.19
2990,59.06
3002,59.6
3014,59.58
3026,58.83
3037,57.36
3048,55.43
3060,53.43
3072,51.79
3084,50.71
3096,50.1
3108,49.54
3120,48.4
3132,46.14
3144,42.37
3156,36.94
3168,29.92
3180,21.45
3192,11.75
3204,1.09
3216,-10.08
3227,-21.16
3238,-31.41
3250,-40.22
3262,-47.28
3274,-52.61
3286,-56.54
3298,-59.47
3310,-61.7
3322,-63.29
3334,-64.18
3346,-64.29
3358,-63.71
3370,-62.65
3382,-61.42
3394,-60.22
3406,-59.1
3417,-57.97
3428,-56.65
3440,-55.05
3452,-53.19
3464,-51.25
3476,-49.47
3488,-48.0
3500,-46.86
3512,-45.8
3524,-44.44
3536,-42.34
3548,-39.2
3560,-34.98
3572,-29.92
3584,-24.51
3596,-19.29
3607,-14.7
3618,-11.01
3630,-8.24
3642,-6.3
3654,-5.03
3666,-4.3
3678,-3.97
3690,-3.88
3702,-3.81
3714,-3.51
3726,-2.79
3738,-1.6
3750,-0.12
3762,1.32
3774,2.36
3786,2.72
3797,2.36
3808,1.44
3820,0.31
3832,-0.62
3844,-1.01
3856,-0.75
3868,0.07
3880,1.11
3892,1.96
3904,2.24
3916,1.8
3928,0.71
3940,-0.69
3952,-1.95
3964,-2.65
3976,-2.46
3987,-1.22
3998,1.04
4010,4.13
4022,7.77
4034,11.6
4046,15.29
4058,18.51
4070,21.05
4082,22.77
4094,23.65
4106,23.76
4118,23.27
4130,22.43
4142,21.54
4154,20.86
4166,20.59
4177,20.77
4188,21.3
4200,21.98
4212,22.56
4224,22.8
4236,22.57
4248,21.9
4260,20.93
4272,19.85
4284,18.86
4296,18.08
4308,17.51
4320,17.05
4332,16.53
4344,15.81
4356,14.78
4367,13.47
4378,12.08
4390,10.92
4402,10.4
4414,10.88
4426,12.61
4438,15.6
4450,19.63
4462,24.26
4474,28.96
4486,33.22
4498,36.72
4510,39.38
4522,41.33
4534,42.84
4546,44.16
4557,45.49
4568,46.93
4580,48.5
4592,50.24
4604,52.13
4616,54.14
4628,56.1
4640,57.81
4652,58.99
4664,59.44
4676,59.11
4688,58.12
4700,56.68
4712,54.98
4724,53.06
4736,50.8
4747,48.03
4758,44.6
4770,40.56
4782,36.06
4794,31.39
4806,26.9
4818,22.92
4830,19.73
4842,17.58
4854,16.62
4866,16.78
4878,17.76
4890,19.01
4902,19.88
4914,19.83
4926,18.61
4937,16.34
4948,13.44
4960,10.39
4972,7.62
4984,5.36
4996,3.66
5008,2.48
5020,1.76
5032,1.46
5044,1.57
5056,2.05
5068,2.79
5080,3.64
5092,4.47
5104,5.16
5116,5.6
5127,5.69
5138,5.26
5150,4.11
5162,2.03
5174,-1.06
5186,-5.05
5198,-9.58
5210,-14.23
5222,-18.56
5234,-22.34
5246,-25.5
5258,-28.17
5270,-30.44
5282,-32.37
5294,-33.93
5306,-35.1
5317,-36.0
5328,-36.89
5340,-38.13
5352,-39.94
5364,-42.29
5376,-44.87
5388,-47.23
5400,-49.04
5412,-50.21
5424,-50.88
5436,-51.18
5448,-51.05
5460,-50.15
5472,-48.05
5484,-44.48
5496,-39.58
5507,-33.93
5518,-28.37
5530,-23.66
5542,-20.26
5554,-18.2
5566,-17.24
5578,-16.99
5590,-17.15
5602,-17.52
5614,-18.11
5626,-18.96
5638,-20.15
5650,-21.72
5662,-23.64
5674,-25.86
5686,-28.26
5697,-30.71
5708,-32.97
5720,-34.73
5732,-35.59
5744,-35.29
5756,-33.77
5768,-31.31
5780,-28.38
5792,-25.51
5804,-22.97
5816,-20.77
5828,-18.68
5840,-16.56
5852,-14.49
5864,-12.75
5876,-11.66
5887,-11.36
5898,-11.62
5910,-12.0
5922,-12.08
5934,-11.68
5946,-10.97
5958,-10.31
5970,-10.02
5982,-10.21
5994,-10.69
6006,-11.13
6018,-11.27
6030,-11.02
6042,-10.5
6054,-9.93
6066,-9.6
6077,-9.7
6088,-10.4
6100,-11.77
6112,-13.76
6124,-16.2
6136,-18.71
6148,-20.83
6160,-22.07
6172,-22.15
6184,-21.02
6196,-18.89
6208,-16.07
6220,-12.88
6232,-9.53
6244,-6.15
6256,-2.83
6267,0.33
6278,3.2
6290,5.65
6302,7.59
6314,9.03
6326,10.06
6338,10.89
6350,11.73
6362,12.73
6374,13.95
6386,15.29
6398,16.55
6410,17.49
6422,17.98
6434,18.05
6446,17.89
6457,17.73
6468,17.73
6480,17.89
6492,18.04
6504,17.96
6516,17.43
6528,16.37
6540,14.74
6552,12.59
6564,10.01
6576,7.14
6588,4.18
6600,1.36
6612,-1.08
6624,-2.98
6636,-4.25
6647,-4.92
6658,-5.06
6670,-4.79
6682,-4.27
6694,-3.63
6706,-2.99
6718,-2.36
6730,-1.77
6742,-1.16
6754,-0.51
6766,0.17
6778,0.87
6790,1.61
6802,2.48
6814,3.56
6826,4.86
6837,6.24
6848,7.56
6860,8.68
6872,9.62
6884,10.53
6896,11.65
6908,13.13
6920,14.94
6932,16.94
6944,18.93
6956,20.82
6968,22.62
6980,24.43
6992,26.34
7004,28.33
7016,30.29
7027,32.08
7038,33.57
7050,34.79
7062,35.9
7074,37.19
7086,38.95
7098,41.35
7110,44.31
7122,47.58
7134,50.77
7146,53.52
7158,55.65
7170,57.16
7182,58.16
7194,58.73
7206,58.85
7217,58.43
7228,57.42
7240,55.92
7252,54.16
7264,52.43
7276,50.89
7288,49.46
7300,47.82
7312,45.53
7324,42.2
7336,37.65
7348,31.94
7360,25.34
7372,18.31
7384,11.38
7396,5.0
7407,-0.48
7418,-4.9
7430,-8.3
7442,-10.82
7454,-12.65
7466,-14.02
7478,-15.14
7490,-16.33
7502,-17.96
7514,-20.43
7526,-24.03
7538,-28.89
7550,-34.89
7562,-41.7
7574,-48.85
7586,-55.75
7597,-61.83
7608,-66.57
7620,-69.62
7632,-71.01
7644,-71.08
7656,-70.47
7668,-69.8
7680,-69.49
7692,-69.55
7704,-69.74
7716,-69.74
7728,-69.32
7740,-68.46
7752,-67.25
7764,-65.7
7776,-63.76
7787,-61.38
7798,-58.65
7810,-55.93
7822,-53.73
7834,-52.41
7846,-51.93
7858,-51.8
7870,-51.22
7882,-49.5
7894,-46.35
7906,-42.04
7918,-37.19
7930,-32.48
7942,-28.34
7954,-24.84
7966,-21.76
7977,-18.87
7988,-16.06
8000,-13.46
8012,-11.32
8024,-9.84
8036,-9.04
8048,-8.7
8060,-8.46
8072,-7.89
8084,-6.65
8096,-4.53
8108,-1.52
8120,2.23
8132,6.41
8144,10.65
8156,14.65
8167,18.17
8178,21.19
8190,23.78
8202,26.1
8214,28.23
8226,30.23
8238,32.07
8250,33.7
8262,35.07
8274,36.16
8286,36.96
8298,37.5
8310,37.85
8322,38.11
8334,38.42
8346,38.81
8357,39.19
8368,39.35
8380,39.01
8392,37.97
8404,36.16
8416,33.65
8428,30.58
8440,27.07
8452,23.26
8464,19.26
8476,15.27
8488,11.47
8500,7.98
8512,4.84
8524,1.95
8536,-0.8
8547,-3.5
8558,-6.1
8570,-8.48
8582,-10.41
8594,-11.71
8606,-12.14
8618,-11.44
8630,-9.36
8642,-5.7
8654,-0.54
8666,5.74
8678,12.44
8690,18.72
8702,23.93
8714,27.77
8726,30.35
8737,32.06
8748,33.42
8760,34.83
8772,36.62
8784,39.02
8796,42.24
8808,46.39
8820,51.38
8832,56.8
8844,62.0
8856,66.29
8868,69.19
8880,70.6
8892,70.8
8904,70.27
8916,69.41
8927,68.4
8938,67.14
8950,65.34
8962,62.79
8974,59.38
8986,55.21
8998,50.47
9010,45.35
9022,39.93
9034,34.13
9046,27.77
9058,20.69
9070,12.94
9082,4.84
9094,-3.01
9106,-10.0
9117,-15.71
9128,-20.09
9140,-23.54
9152,-26.62
9164,-29.83
9176,-33.39
9188,-37.16
9200,-40.82
9212,-44.02
9224,-46.66
9236,-48.88
9248,-51.0
9260,-53.28
9272,-55.78
9284,-58.34
9296,-60.57
9307,-62.11
9318,-62.7
9330,-62.34
9342,-61.24
9354,-59.76
9366,-58.31
9378,-57.2
9390,-56.53
9402,-56.17
9414,-55.86
9426,-55.22
9438,-54.01
9450,-52.16
9462,-49.85
9474,-47.42
9486,-45.21
9497,-43.39
9508,-41.88
9520,-40.43
9532,-38.71
9544,-36.43
9556,-33.41
9568,-29.59
9580,-25.08
9592,-20.15
9604,-15.32
9616,-11.21
9628,-8.42
9640,-7.32
9652,-7.77
9664,-9.21
9676,-10.79
9687,-11.71
9698,-11.5
9710,-10.09
9722,-7.74
9734,-4.85
9746,-1.83
9758,0.95
9770,3.18
9782,4.55
9794,4.77
9806,3.63
9818,1.06
9830,-2.87
9842,-8.03
9854,-14.26
9866,-21.37
9877,-29.15
9888,-37.22
9900,-45.08
9912,-52.15
9924,-57.93
9936,-62.17
9948,-64.89
9960,-66.35
9972,-66.87
9984,-66.78
9996,-66.24
10008,-65.32
10020,-64.1
10032,-62.57
10044,-60.74
10056,-58.51
10067,-55.68
10078,-52.02
10090,-47.32
10102,-41.59
10114,-35.04
10126,-28.13
10138,-21.36
10150,-15.12
10162,-9.61
10174,-4.77
10186,-0.41
10198,3.68
10210,7.58
10222,11.23
10234,14.47
10246,17.17
10257,19.29
10268,20.94
10280,22.32
10292,23.6
10304,24.9
10316,26.21
10328,27.44
10340,28.44
10352,29.09
10364,29.33
10376,29.22
10388,28.93
10400,28.65
10412,28.51
10424,28.51
10436,28.5
10447,28.26
10458,27.66
10470,26.72
10482,25.6
10494,24.57
10506,23.86
10518,23.65
10530,24.04
10542,25.1
10554,26.87
10566,29.32
10578,32.29
10590,35.48
10602,38.52
10614,41.05
10626,42.87
10637,43.94
10648,44.35
10660,44.21
10672,43.62
10684,42.66
10696,41.3
10708,39.53
10720,37.29
10732,34.6
10744,31.52
10756,28.24
10768,25.02
10780,22.18
10792,19.95
10804,18.47
10816,17.76
10827,17.73
10838,18.28
10850,19.23
10862,20.41
10874,21.61
10886,22.68
10898,23.51
10910,24.12
10922,24.59
10934,25.05
10946,25.56
10958,26.09
10970,26.54
10982,26.71
10994,26.47
11006,25.78
11017,24.64
11028,23.13
11040,21.27
11052,19.03
11064,16.39
11076,13.41
11088,10.26
11100,7.16
11112,4.26
11124,1.59
11136,-0.95
11148,-3.38
11160,-5.5
11172,-6.79
11184,-6.54
11196,-4.24
11207,0.17
11218,6.13
11230,12.6
11242,18.42
11254,22.66
11266,24.87
11278,25.06
11290,23.59
11302,20.95
11314,17.65
11326,14.08
11338,10.55
11350,7.27
11362,4.39
11374,2.04
11386,0.3
11397,-0.85
11408,-1.57
11420,-2.12
11432,-2.83
11444,-3.96
11456,-5.56
11468,-7.45
11480,-9.32
11492,-10.86
11504,-11.9
11516,-12.42
11528,-12.48
11540,-12.15
11552,-11.4
11564,-10.19
11576,-8.49
11587,-6.43
11598,-4.26
11610,-2.22
11622,-0.52
11634,0.84
11646,2.06
11658,3.4
11670,5.12
11682,7.34
11694,10.08
11706,13.28
11718,16.86
11730,20.72
11742,24.72
11754,28.69
11766,32.4
11777,35.68
11788,38.48
11800,40.93
11812,43.29
11824,45.81
11836,48.6
11848,51.62
11860,54.68
11872,57.59
11884,60.29
11896,62.86
11908,65.39
11920,67.96
11932,70.49
11944,72.76
11956,74.46
11967,75.22
11978,74.7
11990,72.63
12002,68.8
12014,63.11
12026,55.58
12038,46.34
12050,35.78
12062,24.53
12074,13.45
12086,3.49
12098,-4.51
12110,-9.96
12122,-12.71
12134,-12.96
12146,-11.21
12157,-8.1
12168,-4.29
12180,-0.36
12192,3.25
12204,6.23
12216,8.4
12228,9.7
12240,10.13
12252,9.75
12264,8.67
12276,7.02
12288,4.98
12300,2.69
12312,0.29
12324,-2.16
12336,-4.56
12347,-6.79
12358,-8.61
12370,-9.75
12382,-10.0
12394,-9.34
12406,-8.02
12418,-6.48
12430,-5.22
12442,-4.59
12454,-4.68
12466,-5.37
12478,-6.37
12490,-7.46
12502,-8.5
12514,-9.45
12526,-10.32
12537,-11.03
12548,-11.53
12560,-11.8
12572,-11.94
12584,-12.15
12596,-12.66
12608,-13.59
12620,-14.94
12632,-16.58
12644,-18.36
12656,-20.23
12668,-22.26
12680,-24.62
12692,-27.49
12704,-31.07
12716,-35.44
12727,-40.57
12738,-46.16
12750,-51.74
12762,-56.69
12774,-60.45
12786,-62.73
12798,-63.65
12810,-63.68
12822,-63.42
12834,-63.41
12846,-63.88
12858,-64.81
12870,-65.98
12882,-67.2
12894,-68.37
12906,-69.57
12917,-70.99
12928,-72.74
12940,-74.78
12952,-76.87
12964,-78.66
12976,-79.88
12988,-80.49
13000,-80.71
13012,-80.92
13024,-81.46
13036,-82.49
13048,-83.94
13060,-85.61
13072,-87.28
13084,-88.86
13096,-90.38
13107,-91.87
13118,-93.22
13130,-94.18
13142,-94.31
13154,-93.12
13166,-90.18
13178,-85.27
13190,-78.43
13202,-70.07
13214,-60.85
13226,-51.56
13238,-42.89
13250,-35.25
13262,-28.73
13274,-23.15
13286,-18.26
13297,-13.88
13308,-9.95
13320,-6.45
13332,-3.31
13344,-0.32
13356,2.86
13368,6.54
13380,10.89
13392,15.83
13404,21.06
13416,26.17
13428,30.79
13440,34.74
13452,38.03
13464,40.87
13476,43.51
13487,46.09
13498,48.58
13510,50.69
13522,52.03
13534,52.22
13546,51.07
13558,48.66
13570,45.3
13582,41.41
13594,37.39
13606,33.53
13618,30.01
13630,26.93
13642,24.44
13654,22.68
13666,21.75
13677,21.54
13688,21.65
13700,21.42
13712,20.04
13724,16.87
13736,11.54
13748,4.13
13760,-4.9
13772,-14.84
13784,-24.84
13796,-34.0
13808,-41.49
13820,-46.66
13832,-49.17
13844,-49.16
13856,-47.24
13867,-44.37
13878,-41.51
13890,-39.36
13902,-38.16
13914,-37.67
13926,-37.51
13938,-37.29
13950,-36.83
13962,-36.09
13974,-35.07
13986,-33.68
13998,-31.72
14010,-28.98
14022,-25.36
14034,-20.95
14046,-16.0
14057,-10.8
14068,-5.56
14080,-0.44
14092,4.47
14104,9.05
14116,13.13
14128,16.55
14140,19.22
14152,21.16
14164,22.52
14176,23.49
14188,24.31
14200,25.18
14212,26.22
14224,27.47
14236,28.79
14247,29.89
14258,30.4
14270,30.02
14282,28.66
14294,26.5
14306,23.93
14318,21.37
14330,19.12
14342,17.25
14354,15.66
14366,14.15
14378,12.49
14390,10.49
14402,8.0
14414,5.06
14426,1.89
14437,-1.03
14448,-3.11
14460,-3.84
14472,-2.98
14484,-0.72
14496,2.43
14508,5.76
14520,8.68
14532,10.89
14544,12.34
14556,13.21
14568,13.69
14580,13.88
14592,13.78
14604,13.37
14616,12.69
14627,11.9
14638,11.21
14650,10.81
14662,10.77
14674,11.02
14686,11.42
14698,11.83
14710,12.24
14722,12.7
14734,13.32
14746,14.11
14758,14.97
14770,15.68
14782,16.03
14794,15.92
14806,15.49
14817,14.99
14828,14.74
14840,14.93
14852,15.5
14864,16.16
14876,16.55
14888,16.34
14900,15.44
14912,14.03
14924,12.44
14936,11.06
14948,10.26
14960,10.29
14972,11.33
14984,13.38
14996,16.29
15007,19.71
15018,23.23
15030,26.44
15042,29.1
15054,31.19
15066,32.88
15078,34.3
15090,35.52
15102,36.44
15114,36.93
15126,36.99
15138,36.78
15150,36.63
15162,36.86
15174,37.63
15186,38.88
15197,40.35
15208,41.7
15220,42.68
15232,43.15
15244,43.14
15256,42.8
15268,42.27
15280,41.68
15292,41.11
15304,40.52
15316,39.9
15328,39.22
15340,38.51
15352,37.84
15364,37.25
15376,36.73
15387,36.17
15398,35.45
15410,34.47
15422,33.33
15434,32.31
15446,31.76
15458,31.96
15470,32.97
15482,34.59
15494,36.42
15506,38.07
15518,39.25
15530,39.92
15542,40.22
15554,40.35
15566,40.46
15577,40.58
15588,40.66
15600,40.59
15612,40.3
15624,39.69
15636,38.69
15648,37.27
15660,35.42
15672,33.18
15684,30.69
15696,28.08
15708,25.48
15720,22.94
15732,20.43
15744,17.83
15756,15.04
15767,11.98
15778,8.7
15790,5.3
15802,1.88
15814,-1.51
15826,-4.89
15838,-8.34
15850,-11.93
15862,-15.63
15874,-19.31
15886,-22.73
15898,-25.66
15910,-28.0
15922,-29.88
15934,-31.63
15946,-33.76
15957,-36.77
15968,-40.94
15980,-46.19
15992,-51.96
16004,-57.34
16016,-61.32
16028,-63.1
16040,-62.37
16052,-59.48
16064,-55.22
16076,-50.52
16088,-46.1
16100,-42.24
16112,-38.86
16124,-35.81
16136,-32.99
16147,-30.61
16158,-28.91
16170,-28.08
16182,-28.0
16194,-28.29
16206,-28.45
16218,-28.11
16230,-27.16
16242,-25.77
16254,-24.23
16266,-22.75
16278,-21.44
16290,-20.28
16302,-19.26
16314,-18.45
16326,-17.97
16337,-17.98
16348,-18.52
16360,-19.52
16372,-20.77
16384,-22.01
16396,-23.04
16408,-23.76
16420,-24.21
16432,-24.57
16444,-25.04
16456,-25.77
16468,-26.83
16480,-28.22
16492,-29.91
16504,-31.83
16516,-33.95
16527,-36.14
16538,-38.16
16550,-39.64
16562,-40.13
16574,-39.32
16586,-37.14
16598,-33.88
16610,-30.06
16622,-26.24
16634,-22.81
16646,-19.93
16658,-17.55
16670,-15.57
16682,-13.91
16694,-12.59
16706,-11.67
16717,-11.17
16728,-11.02
16740,-11.04
16752,-11.05
16764,-10.92
16776,-10.57
16788,-10.0
16800,-9.25
16812,-8.36
16824,-7.37
16836,-6.34
16848,-5.34
16860,-4.45
16872,-3.73
16884,-3.2
16896,-2.83
16907,-2.6
16918,-2.53
16930,-2.73
16942,-3.33
16954,-4.4
16966,-5.85
16978,-7.41
16990,-8.69
17002,-9.27
17014,-8.87
17026,-7.41
17038,-5.06
17050,-2.15
17062,0.93
17074,3.84
17086,6.36
17097,8.4
17108,9.98
17120,11.16
17132,12.03
17144,12.64
17156,13.01
17168,13.15
17180,13.08
17192,12.86
17204,12.6
17216,12.4
17228,12.31
17240,12.34
17252,12.41
17264,12.44
17276,12.35
17287,12.13
17298,11.77
17310,11.3
17322,10.73
17334,10.04
17346,9.2
17358,8.17
17370,6.98
17382,5.71
17394,4.47
17406,3.31
17418,2.23
17430,1.13
17442,-0.12
17454,-1.53
17466,-2.98
17477,-4.19
17488,-4.82
17500,-4.59
17512,-3.35
17524,-1.16
17536,1.73
17548,4.93
17560,8.04
17572,10.71
17584,12.71
17596,13.99
17608,14.63
17620,14.79
17632,14.67
17644,14.37
17656,13.99
17667,13.56
17678,13.12
17690,12.71
17702,12.39
17714,12.15
17726,11.92
17738,11.55
17750,10.92
17762,9.93
17774,8.55
17786,6.88
17798,5.05
17810,3.18
17822,1.33
17834,-0.52
17846,-2.49
17857,-4.67
17868,-7.09
17880,-9.72
17892,-12.43
17904,-15.12
17916,-17.69
17928,-20.15
17940,-22.41
17952,-24.36
17964,-25.77
17976,-26.46
17988,-26.35
18000,-25.51
18012,-24.2
18024,-22.71
18036,-21.3
18047,-20.09
18058,-19.06
18070,-18.14
18082,-17.26
18094,-16.38
18106,-15.53
18118,-14.72
18130,-13.94
18142,-13.09
18154,-12.01
18166,-10.53
18178,-8.52
18190,-5.91
18202,-2.7
18214,1.08
18226,5.42
18237,10.32
18248,15.78
18260,21.77
18272,28.16
18284,34.78
18296,41.43
18308,47.87
18320,53.83
18332,59.08
18344,63.39
18356,66.7
18368,69.12
18380,70.91
18392,72.38
18404,73.67
18416,74.7
18427,75.17
18438,74.84
18450,73.69
18462,72.05
18474,70.54
18486,69.76
18498,70.14
18510,71.82
18522,74.68
18534,78.52
18546,83.21
18558,88.71
18570,95.04
18582,102.28
18594,110.49
18606,119.71
18617,129.94
18628,141.18
18640,153.35
18652,166.24
18664,179.49
18676,192.62
18688,205.13
18700,216.58
18712,226.67
18724,235.22
18736,241.99
18748,246.6
18760,248.42
18772,246.66
18784,240.61
18796,229.94
18807,214.91
18818,196.38
18830,175.65
18842,154.07
18854,132.7
18866,112.11
18878,92.37
18890,73.19
18902,54.04
18914,34.42
18926,14.03
18938,-7.08
18950,-28.4
18962,-48.98
18974,-67.58
18986,-82.97
18997,-94.3
19008,-101.36
19020,-104.68
19032,-105.33
19044,-104.54
19056,-103.35
19068,-102.38
19080,-101.78
19092,-101.41
19104,-100.99
19116,-100.27
19128,-99.03
19140,-97.1
19152,-94.31
19164,-90.51
19176,-85.71
19187,-80.12
19198,-74.24
19210,-68.74
19222,-64.27
19234,-61.3
19246,-59.89
19258,-59.73
19270,-60.2
19282,-60.68
19294,-60.71
19306,-60.22
19318,-59.41
19330,-58.63
19342,-58.15
19354,-58.08
19366,-58.37
19377,-59.04
19388,-60.25
19400,-62.45
19412,-66.12
19424,-71.58
19436,-78.7
19448,-86.86
19460,-95.09
19472,-102.32
19484,-107.67
19496,-110.69
19508,-111.35
19520,-109.93
19532,-106.89
19544,-102.63
19556,-97.5
19567,-91.76
19578,-85.67
19590,-79.51
19602,-73.53
19614,-67.89
19626,-62.63
19638,-57.69
19650,-53.03
19662,-48.8
19674,-45.4
19686,-43.39
19698,-43.26
19710,-45.15
19722,-48.68
19734,-53.06
19746,-57.33
19757,-60.67
19768,-62.67
19780,-63.41
19792,-63.3
19804,-62.95
19816,-62.98
19828,-63.91
19840,-66.12
19852,-69.82
19864,-74.99
19876,-81.25
19888,-87.87
19900,-93.89
19912,-98.27
19924,-100.27
19936,-99.58
19947,-96.41
19958,-91.33
19970,-85.05
19982,-78.27
19994,-71.56
20006,-65.46
20018,-60.48
20030,-57.09
20042,-55.52
20054,-55.54
20066,-56.43
20078,-57.18
20090,-56.91
20102,-55.21
20114,-52.3
20126,-48.87
20137,-45.69
20148,-43.3
20160,-41.87
20172,-41.31
20184,-41.52
20196,-42.49
20208,-44.26
20220,-46.74
20232,-49.61
20244,-52.33
20256,-54.35
20268,-55.36
20280,-55.36
20292,-54.65
20304,-53.59
20316,-52.5
20327,-51.62
20338,-51.1
20350,-51.03
20362,-51.42
20374,-52.06
20386,-52.47
20398,-51.94
20410,-49.75
20422,-45.4
20434,-38.81
20446,-30.42
20458,-21.09
20470,-11.83
20482,-3.57
20494,3.07
20506,7.89
20517,11.02
20528,12.8
20540,13.58
20552,13.58
20564,12.93
20576,11.72
20588,10.11
20600,8.4
20612,6.91
20624,5.87
20636,5.25
20648,4.84
20660,4.35
20672,3.62
20684,2.58
20696,1.27
20707,-0.37
20718,-2.45
20730,-5.18
20742,-8.61
20754,-12.63
20766,-16.91
20778,-21.08
20790,-24.82
20802,-27.94
20814,-30.34
20826,-32.02
20838,-33.02
20850,-33.51
20862,-33.79
20874,-34.26
20886,-35.38
20897,-37.44
20908,-40.5
20920,-44.29
20932,-48.25
20944,-51.69
20956,-53.89
20968,-54.37
20980,-52.92
20992,-49.72
