seconds,BVP
6,-45.46
18,-50.31
30,-55.37
42,-61.39
54,-69.15
66,-79.08
78,-90.84
90,-102.99
102,-113.07
114,-118.08
126,-115.44
137,-103.89
148,-84.0
160,-58.04
172,-29.23
184,-0.73
196,25.1
208,47.0
220,64.63
232,78.1
244,87.7
256,93.67
268,96.41
280,96.5
292,94.82
304,92.41
316,90.16
327,88.7
338,88.3
350,88.93
362,90.45
374,92.79
386,96.06
398,100.52
410,106.34
422,113.5
434,121.56
446,129.71
458,136.97
470,142.45
482,145.71
494,146.92
506,146.79
517,146.3
528,146.39
540,147.6
552,149.91
564,152.97
576,156.25
588,159.49
600,162.88
612,167.0
624,172.75
636,180.97
648,192.05
660,205.62
672,220.6
684,235.33
696,247.94
707,256.72
718,260.35
730,258.01
742,249.45
754,234.92
766,215.09
778,191.0
790,163.9
802,135.09
814,105.81
826,77.21
838,50.52
850,27.14
862,8.51
874,-4.26
886,-11.03
897,-13.06
908,-12.87
920,-13.57
932,-17.79
944,-26.77
956,-39.96
968,-55.42
980,-70.75
992,-84.15
1004,-94.94
1016,-103.65
1028,-111.48
1040,-119.53
1052,-128.27
1064,-137.35
1076,-145.82
1087,-152.56
1098,-156.7
1110,-157.85
1122,-156.22
1134,-152.51
1146,-147.84
1158,-143.62
1170,-141.43
1182,-142.87
1194,-149.19
1206,-161.02
1218,-178.03
1230,-198.84
1242,-221.34
1254,-243.36
1266,-263.32
1277,-280.81
1288,-296.64
1300,-312.34
1312,-329.44
1324,-348.68
1336,-369.7
1348,-391.13
1360,-411.13
1372,-427.87
1384,-439.92
1396,-446.37
1408,-446.7
1420,-440.67
1432,-428.21
1444,-409.49
1456,-384.99
1467,-355.51
1478,-322.19
1490,-286.32
1502,-249.26
1514,-212.21
1526,-175.99
1538,-140.96
1550,-106.89
1562,-72.93
1574,-37.63
1586,0.74
1598,43.44
1610,90.11
1622,137.9
1634,181.3
1646,213.39
1657,228.1
1668,222.46
1680,198.0
1692,160.1
1704,116.11
1716,72.78
1728,34.61
1740,3.57
1752,-19.95
1764,-35.88
1776,-44.0
1788,-44.13
1800,-36.93
1812,-24.33
1824,-9.32
1836,5.06
1847,16.56
1858,24.4
1870,29.14
1882,32.14
1894,34.66
1906,37.25
1918,39.54
1930,40.5
1942,39.04
1954,34.66
1966,27.82
1978,19.82
1990,12.27
2002,6.46
2014,2.85
2026,0.88
2037,-0.74
2048,-3.55
2060,-8.79
2072,-16.91
2084,-27.28
2096,-38.14
2108,-46.93
2120,-50.77
2132,-47.28
2144,-35.27
2156,-15.15
2168,11.07
2180,40.3
2192,69.18
2204,94.8
2216,115.18
2227,129.42
2238,137.52
2250,140.09
2262,138.06
2274,132.43
2286,124.19
2298,114.23
2310,103.32
2322,92.14
2334,81.27
2346,71.2
2358,62.36
2370,55.08
2382,49.56
2394,45.82
2406,43.65
2417,42.69
2428,42.43
2440,42.36
2452,42.05
2464,41.13
2476,39.34
2488,36.48
2500,32.39
2512,26.98
2524,20.24
2536,12.34
2548,3.57
2560,-5.67
2572,-14.94
2584,-23.87
2596,-32.21
2607,-39.91
2618,-47.09
2630,-54.07
2642,-61.33
2654,-69.43
2666,-78.83
2678,-89.55
2690,-100.85
2702,-111.11
2714,-117.99
2726,-119.05
2738,-112.49
2750,-97.79
2762,-76.05
2774,-49.55
2786,-21.17
2797,6.39
2808,31.14
2820,51.91
2832,68.23
2844,80.01
2856,87.4
2868,90.72
2880,90.45
2892,87.26
2904,81.95
2916,75.35
2928,68.21
2940,61.13
2952,54.59
2964,48.98
2976,44.63
2987,41.78
2998,40.52
3010,40.74
3022,42.0
3034,43.65
3046,44.91
3058,45.12
3070,43.93
3082,41.34
3094,37.66
3106,33.24
3118,28.31
3130,22.86
3142,16.67
3154,9.59
3166,1.63
3177,-6.92
3188,-15.56
3200,-23.8
3212,-31.31
3224,-38.06
3236,-44.34
3248,-50.63
3260,-57.59
3272,-65.82
3284,-75.6
3296,-86.52
3308,-97.24
3320,-105.6
3332,-109.08
3344,-105.53
3356,-93.97
3367,-74.97
3378,-50.49
3390,-23.27
3402,3.92
3414,28.93
3426,50.41
3438,67.74
3450,80.7
3462,89.31
3474,93.65
3486,94.03
3498,90.99
3510,85.31
3522,77.99
3534,70.08
3546,62.53
3557,56.09
3568,51.23
3580,48.16
3592,46.89
3604,47.31
3616,49.2
3628,52.28
3640,56.06
3652,59.91
3664,63.09
3676,64.92
3688,64.94
3700,63.01
3712,59.29
3724,54.14
3736,48.01
3747,41.3
3758,34.35
3770,27.45
3782,20.79
3794,14.51
3806,8.63
3818,3.02
3830,-2.6
3842,-8.52
3854,-14.95
3866,-21.93
3878,-29.28
3890,-36.63
3902,-43.53
3914,-49.6
3926,-54.7
3937,-59.04
3948,-63.22
3960,-68.16
3972,-74.86
3984,-84.04
3996,-95.57
4008,-108.21
4020,-119.57
4032,-126.61
4044,-126.49
4056,-117.53
4068,-99.75
4080,-74.88
4092,-45.78
4104,-15.58
4116,13.05
4127,38.29
4138,59.18
4150,75.32
4162,86.63
4174,93.2
4186,95.36
4198,93.74
4210,89.28
4222,83.14
4234,76.42
4246,70.08
4258,64.78
4270,60.91
4282,58.65
4294,58.07
4306,59.18
4317,61.89
4328,65.87
4340,70.57
4352,75.17
4364,78.78
4376,80.63
4388,80.3
4400,77.85
4412,73.76
4424,68.78
4436,63.67
4448,58.93
4460,54.74
4472,50.89
4484,46.97
4496,42.59
4507,37.51
4518,31.78
4530,25.65
4542,19.46
4554,13.52
4566,8.01
4578,2.85
4590,-2.2
4602,-7.44
4614,-13.17
4626,-19.47
4638,-26.2
4650,-33.0
4662,-39.43
4674,-45.16
4686,-50.18
4697,-54.85
4708,-59.88
4720,-66.17
4732,-74.5
4744,-85.1
4756,-97.32
4768,-109.4
4780,-118.7
4792,-122.34
4804,-118.07
4816,-105.07
4828,-84.29
4840,-58.14
4852,-29.8
4864,-2.25
4876,22.33
4887,42.73
4898,58.51
4910,69.6
4922,76.04
4934,77.93
4946,75.55
4958,69.53
4970,60.91
4982,51.0
4994,41.21
5006,32.7
5018,26.24
5030,22.17
5042,20.41
5054,20.72
5066,22.73
5077,26.1
5088,30.48
5100,35.42
5112,40.42
5124,44.85
5136,48.15
5148,49.85
5160,49.78
5172,48.01
5184,44.87
5196,40.82
5208,36.35
5220,31.83
5232,27.37
5244,22.84
5256,17.88
5267,12.08
5278,5.17
5290,-2.81
5302,-11.52
5314,-20.39
5326,-28.83
5338,-36.41
5350,-42.95
5362,-48.58
5374,-53.65
5386,-58.67
5398,-64.27
5410,-71.01
5422,-79.09
5434,-88.0
5446,-96.39
5457,-102.15
5468,-102.98
5480,-97.1
5492,-83.98
5504,-64.56
5516,-40.96
5528,-15.81
5540,8.42
5552,29.97
5564,47.88
5576,61.81
5588,71.78
5600,77.98
5612,80.62
5624,80.05
5636,76.84
5647,71.74
5658,65.65
5670,59.42
5682,53.68
5694,48.81
5706,44.97
5718,42.25
5730,40.74
5742,40.56
5754,41.71
5766,43.97
5778,46.76
5790,49.39
5802,51.13
5814,51.56
5826,50.56
5837,48.3
5848,45.02
5860,40.96
5872,36.31
5884,31.22
5896,25.88
5908,20.5
5920,15.3
5932,10.4
5944,5.86
5956,1.65
5968,-2.41
5980,-6.52
5992,-10.98
6004,-15.98
6016,-21.56
6027,-27.53
6038,-33.52
6050,-39.11
6062,-44.07
6074,-48.46
6086,-52.63
6098,-57.23
6110,-62.93
6122,-70.23
6134,-79.15
6146,-88.91
6158,-97.91
6170,-103.94
6182,-104.72
6194,-98.63
6206,-85.28
6217,-65.74
6228,-42.19
6240,-17.32
6252,6.4
6264,27.19
6276,44.13
6288,56.94
6300,65.78
6312,70.94
6324,72.86
6336,72.04
6348,69.07
6360,64.65
6372,59.52
6384,54.37
6396,49.76
6407,46.12
6418,43.66
6430,42.47
6442,42.53
6454,43.75
6466,45.97
6478,48.91
6490,52.15
6502,55.16
6514,57.37
6526,58.4
6538,58.12
6550,56.73
6562,54.59
6574,52.08
6586,49.38
6597,46.43
6608,43.04
6620,39.08
6632,34.57
6644,29.77
6656,24.98
6668,20.42
6680,16.18
6692,12.16
6704,8.22
6716,4.23
6728,0.21
6740,-3.72
6752,-7.38
6764,-10.66
6776,-13.63
6787,-16.52
6798,-19.67
6810,-23.43
6822,-28.02
6834,-33.35
6846,-39.1
6858,-44.81
6870,-50.02
6882,-54.51
6894,-58.35
6906,-61.92
6918,-65.83
6930,-70.8
6942,-77.41
6954,-85.82
6966,-95.38
6977,-104.58
6988,-111.17
7000,-112.75
7012,-107.56
7024,-95.11
7036,-76.46
7048,-53.85
7060,-30.06
7072,-7.58
7084,11.9
7096,27.6
7108,39.44
7120,47.62
7132,52.4
7144,54.03
7156,52.79
7167,49.12
7178,43.71
7190,37.36
7202,30.84
7214,24.81
7226,19.69
7238,15.71
7250,13.07
7262,11.91
7274,12.38
7286,14.51
7298,18.05
7310,22.46
7322,26.95
7334,30.66
7346,32.94
7357,33.45
7368,32.31
7380,29.95
7392,26.96
7404,23.8
7416,20.71
7428,17.66
7440,14.34
7452,10.45
7464,5.82
7476,0.54
7488,-5.0
7500,-10.27
7512,-14.85
7524,-18.58
7536,-21.68
7547,-24.64
7558,-27.99
7570,-32.07
7582,-36.85
7594,-42.0
7606,-46.98
7618,-51.38
7630,-55.06
7642,-58.2
7654,-61.25
7666,-64.82
7678,-69.52
7690,-75.76
7702,-83.5
7714,-91.96
7726,-99.62
7737,-104.36
7748,-104.06
7760,-97.25
7772,-83.74
7784,-64.73
7796,-42.46
7808,-19.55
7820,1.75
7832,19.99
7844,34.55
7856,45.46
7868,52.92
7880,57.17
7892,58.36
7904,56.76
7916,52.82
7927,47.34
7938,41.27
7950,35.57
7962,30.99
7974,27.85
7986,26.13
7998,25.65
8010,26.2
8022,27.69
8034,30.09
8046,33.31
8058,36.97
8070,40.45
8082,43.02
8094,44.03
8106,43.22
8117,40.72
8128,36.98
8140,32.62
8152,28.09
8164,23.61
8176,19.13
8188,14.47
8200,9.45
8212,4.05
8224,-1.56
8236,-7.04
8248,-12.06
8260,-16.39
8272,-20.05
8284,-23.29
8296,-26.52
8307,-30.11
8318,-34.29
8330,-39.08
8342,-44.27
8354,-49.49
8366,-54.34
8378,-58.62
8390,-62.42
8402,-66.22
8414,-70.79
8426,-76.98
8438,-85.41
8450,-95.95
8462,-107.52
8474,-118.04
8486,-124.88
8497,-125.6
8508,-118.72
8520,-104.24
8532,-83.62
8544,-59.32
8556,-34.08
8568,-10.25
8580,10.57
8592,27.56
8604,40.46
8616,49.39
8628,54.62
8640,56.58
8652,55.82
8664,52.98
8676,48.74
8687,43.73
8698,38.57
8710,33.78
8722,29.88
8734,27.3
8746,26.35
8758,27.19
8770,29.69
8782,33.51
8794,38.11
8806,42.8
8818,46.96
8830,50.08
8842,51.87
8854,52.27
8866,51.33
8877,49.25
8888,46.23
8900,42.54
8912,38.43
8924,34.13
8936,29.83
8948,25.61
8960,21.5
8972,17.49
8984,13.57
8996,9.79
9008,6.22
9020,2.95
9032,-0.01
9044,-2.67
9056,-5.11
9067,-7.45
9078,-9.76
9090,-12.18
9102,-14.8
9114,-17.73
9126,-21.04
9138,-24.73
9150,-28.71
9162,-32.8
9174,-36.81
9186,-40.62
9198,-44.26
9210,-47.97
9222,-52.11
9234,-57.02
9246,-62.78
9257,-69.07
9268,-75.05
9280,-79.6
9292,-81.45
9304,-79.68
9316,-73.85
9328,-64.18
9340,-51.42
9352,-36.68
9364,-21.14
9376,-5.93
9388,8.03
9400,20.01
9412,29.52
9424,36.26
9436,40.12
9447,41.22
9458,39.9
9470,36.7
9482,32.28
9494,27.44
9506,23.0
9518,19.63
9530,17.89
9542,18.03
9554,20.02
9566,23.57
9578,28.18
9590,33.27
9602,38.23
9614,42.57
9626,45.9
9637,48.02
9648,48.89
9660,48.56
9672,47.22
9684,45.12
9696,42.55
9708,39.82
9720,37.17
9732,34.72
9744,32.46
9756,30.25
9768,27.93
9780,25.36
9792,22.56
9804,19.66
9816,16.9
9827,14.5
9838,12.55
9850,10.99
9862,9.52
9874,7.78
9886,5.4
9898,2.24
9910,-1.61
9922,-5.83
9934,-10.07
9946,-14.11
9958,-18.0
9970,-22.02
9982,-26.57
9994,-31.98
10006,-38.32
10017,-45.36
10028,-52.67
10040,-59.72
10052,-66.12
10064,-71.74
10076,-76.74
10088,-81.64
10100,-87.15
10112,-94.04
10124,-102.76
10136,-113.1
10148,-123.87
10160,-132.95
10172,-137.71
10184,-135.75
10196,-125.78
10207,-108.02
10218,-84.24
10230,-57.18
10242,-29.79
10254,-4.52
10266,17.0
10278,33.99
10290,46.27
10302,54.03
10314,57.74
10326,58.03
10338,55.72
10350,51.66
10362,46.63
10374,41.32
10386,36.32
10397,32.14
10408,29.27
10420,28.08
10432,28.78
10444,31.31
10456,35.38
10468,40.51
10480,46.13
10492,51.7
10504,56.71
10516,60.72
10528,63.34
10540,64.36
10552,63.69
10564,61.5
10576,58.14
10587,54.04
10598,49.6
10610,45.1
10622,40.67
10634,36.36
10646,32.2
10658,28.26
10670,24.58
10682,21.22
10694,18.16
10706,15.27
10718,12.39
10730,9.37
10742,6.1
10754,2.53
10766,-1.37
10777,-5.66
10788,-10.52
10800,-16.08
10812,-22.4
10824,-29.35
10836,-36.57
10848,-43.55
10860,-49.85
10872,-55.28
10884,-60.0
10896,-64.56
10908,-69.72
10920,-76.23
10932,-84.41
10944,-93.87
10956,-103.26
10967,-110.44
10978,-112.98
10990,-108.92
11002,-97.42
11014,-79.13
11026,-56.03
11038,-30.8
11050,-6.13
11062,15.92
11074,34.15
11086,48.15
11098,57.97
11110,63.95
11122,66.5
11134,66.1
11146,63.36
11157,59.08
11168,54.09
11180,49.24
11192,45.19
11204,42.33
11216,40.76
11228,40.37
11240,41.0
11252,42.56
11264,45.02
11276,48.28
11288,52.1
11300,55.99
11312,59.32
11324,61.52
11336,62.25
11347,61.5
11358,59.57
11370,56.86
11382,53.74
11394,50.45
11406,47.04
11418,43.51
11430,39.9
11442,36.33
11454,33.0
11466,30.08
11478,27.63
11490,25.54
11502,23.55
11514,21.36
11526,18.69
11537,15.48
11548,11.79
11560,7.87
11572,3.97
11584,0.24
11596,-3.37
11608,-7.06
11620,-11.16
11632,-15.96
11644,-21.52
11656,-27.67
11668,-34.07
11680,-40.35
11692,-46.28
11704,-51.85
11716,-57.29
11727,-62.98
11738,-69.43
11750,-77.11
11762,-86.29
11774,-96.7
11786,-107.26
11798,-116.08
11810,-120.71
11822,-118.9
11834,-109.37
11846,-92.35
11858,-69.62
11870,-43.95
11882,-18.25
11894,5.12
11906,24.76
11917,40.12
11928,51.22
11940,58.35
11952,61.91
11964,62.39
11976,60.38
11988,56.6
12000,51.79
12012,46.64
12024,41.77
12036,37.66
12048,34.69
12060,33.12
12072,33.07
12084,34.45
12096,37.01
12107,40.4
12118,44.14
12130,47.76
12142,50.77
12154,52.73
12166,53.34
12178,52.51
12190,50.27
12202,46.85
12214,42.57
12226,37.76
12238,32.72
12250,27.74
12262,22.97
12274,18.49
12286,14.3
12297,10.29
12308,6.33
12320,2.37
12332,-1.55
12344,-5.29
12356,-8.64
12368,-11.5
12380,-13.92
12392,-16.16
12404,-18.55
12416,-21.46
12428,-25.06
12440,-29.38
12452,-34.18
12464,-39.14
12476,-43.93
12487,-48.33
12498,-52.35
12510,-56.21
12522,-60.41
12534,-65.58
12546,-72.25
12558,-80.48
12570,-89.54
12582,-97.88
12594,-103.26
12606,-103.54
12618,-97.24
12630,-84.2
12642,-65.56
12654,-43.43
12666,-20.26
12677,1.88
12688,21.5
12700,37.84
12712,50.59
12724,59.64
12736,65.03
12748,66.88
12760,65.55
12772,61.67
12784,56.12
12796,49.87
12808,43.88
12820,38.86
12832,35.23
12844,33.12
12856,32.49
12867,33.19
12878,34.99
12890,37.64
12902,40.75
12914,43.82
12926,46.36
12938,47.9
12950,48.22
12962,47.32
12974,45.42
12986,42.81
12998,39.74
13010,36.32
13022,32.59
13034,28.55
13046,24.25
13057,19.83
13068,15.44
13080,11.25
13092,7.34
13104,3.76
13116,0.58
13128,-2.17
13140,-4.5
13152,-6.5
13164,-8.34
13176,-10.26
13188,-12.47
13200,-15.11
13212,-18.25
13224,-21.91
13236,-26.07
13247,-30.73
13258,-35.87
13270,-41.38
13282,-47.09
13294,-52.77
13306,-58.23
13318,-63.43
13330,-68.51
13342,-73.88
13354,-80.19
13366,-88.07
13378,-97.74
13390,-108.62
13402,-119.06
13414,-126.62
13426,-128.73
13437,-123.48
13448,-110.38
13460,-90.48
13472,-66.12
13484,-40.13
13496,-15.08
13508,7.24
13520,25.92
13532,40.72
13544,51.78
13556,59.34
13568,63.65
13580,65.01
13592,63.78
13604,60.5
13616,55.84
13627,50.57
13638,45.44
13650,41.0
13662,37.57
13674,35.25
13686,34.0
13698,33.81
13710,34.66
13722,36.54
13734,39.26
13746,42.44
13758,45.48
13770,47.79
13782,49.0
13794,49.02
13806,48.08
13817,46.56
13828,44.8
13840,42.97
13852,41.08
13864,39.0
13876,36.61
13888,33.82
13900,30.61
13912,27.0
13924,23.07
13936,19.01
13948,15.1
13960,11.68
13972,9.03
13984,7.25
13996,6.18
14007,5.41
14018,4.4
14030,2.72
14042,0.16
14054,-3.17
14066,-6.96
14078,-10.82
14090,-14.5
14102,-18.02
14114,-21.61
14126,-25.62
14138,-30.26
14150,-35.55
14162,-41.21
14174,-46.81
14186,-51.95
14197,-56.43
14208,-60.33
14220,-63.98
14232,-67.9
14244,-72.68
14256,-78.9
14268,-86.97
14280,-96.8
14292,-107.5
14304,-117.31
14316,-123.76
14328,-124.3
14340,-117.21
14352,-102.12
14364,-80.31
14376,-54.29
14387,-27.07
14398,-1.32
14410,21.08
14422,39.21
14434,52.89
14446,62.34
14458,68.02
14470,70.44
14482,70.24
14494,68.14
14506,64.87
14518,61.09
14530,57.38
14542,54.15
14554,51.64
14566,49.97
14577,49.28
14588,49.61
14600,51.02
14612,53.46
14624,56.71
14636,60.36
14648,63.87
14660,66.72
14672,68.48
14684,68.94
14696,68.16
14708,66.38
14720,63.93
14732,61.12
14744,58.09
14756,54.85
14767,51.28
14778,47.29
14790,42.9
14802,38.24
14814,33.57
14826,29.17
14838,25.19
14850,21.62
14862,18.3
14874,15.03
14886,11.64
14898,8.06
14910,4.33
14922,0.56
14934,-3.18
14946,-6.91
14957,-10.78
14968,-15.03
14980,-19.87
14992,-25.38
15004,-31.43
15016,-37.65
15028,-43.67
15040,-49.16
15052,-54.05
15064,-58.57
15076,-63.23
15088,-68.71
15100,-75.59
15112,-84.08
15124,-93.74
15136,-103.25
15147,-110.55
15158,-113.29
15170,-109.55
15182,-98.56
15194,-81.02
15206,-58.94
15218,-34.99
15230,-11.75
15242,8.95
15254,26.14
15266,39.55
15278,49.27
15290,55.46
15302,58.29
15314,58.05
15326,55.28
15337,50.74
15348,45.28
15360,39.67
15372,34.53
15384,30.2
15396,26.92
15408,24.81
15420,23.92
15432,24.32
15444,25.93
15456,28.5
15468,31.61
15480,34.65
15492,36.99
15504,38.06
15516,37.56
15527,35.44
15538,31.99
15550,27.62
15562,22.81
15574,17.92
15586,13.13
15598,8.47
15610,3.9
15622,-0.59
15634,-4.93
15646,-9.0
15658,-12.73
15670,-16.13
15682,-19.37
15694,-22.67
15706,-26.21
15717,-30.0
15728,-33.89
15740,-37.66
15752,-41.13
15764,-44.28
15776,-47.34
15788,-50.72
15800,-54.96
15812,-60.6
15824,-67.99
15836,-76.96
15848,-86.62
15860,-95.31
15872,-100.85
15884,-101.12
15896,-94.74
15907,-81.55
15918,-62.77
15930,-40.63
15942,-17.69
15954,3.78
15966,22.26
15978,37.01
15990,47.94
16002,55.22
16014,59.11
16026,59.87
16038,57.87
16050,53.66
16062,48.01
16074,41.82
16086,35.95
16097,31.06
16108,27.55
16120,25.55
16132,25.04
16144,25.95
16156,28.15
16168,31.39
16180,35.2
16192,38.95
16204,41.94
16216,43.61
16228,43.75
16240,42.42
16252,39.97
16264,36.71
16276,32.86
16287,28.45
16298,23.45
16310,17.87
16322,11.86
16334,5.72
16346,-0.2
16358,-5.65
16370,-10.56
16382,-15.07
16394,-19.46
16406,-23.98
16418,-28.76
16430,-33.78
16442,-38.85
16454,-43.75
16466,-48.29
16477,-52.42
16488,-56.32
16500,-60.29
16512,-64.89
16524,-70.7
16536,-78.26
16548,-87.65
16560,-98.22
16572,-108.36
16584,-115.74
16596,-117.87
16608,-112.9
16620,-100.25
16632,-80.85
16644,-56.87
16656,-31.04
16667,-5.95
16678,16.51
16690,35.28
16702,49.96
16714,60.55
16726,67.24
16738,70.34
16750,70.29
16762,67.74
16774,63.46
16786,58.27
16798,52.97
16810,48.16
16822,44.24
16834,41.41
16846,39.76
16857,39.32
16868,40.11
16880,42.11
16892,45.19
16904,49.0
16916,52.95
16928,56.31
16940,58.35
16952,58.57
16964,56.88
16976,53.64
16988,49.47
17000,45.03
17012,40.78
17024,36.79
17036,32.83
17047,28.53
17058,23.64
17070,18.16
17082,12.31
17094,6.5
17106,1.14
17118,-3.52
17130,-7.46
17142,-10.9
17154,-14.22
17166,-17.85
17178,-22.04
17190,-26.8
17202,-31.89
17214,-36.95
17226,-41.69
17237,-46.0
17248,-50.04
17260,-54.16
17272,-58.88
17284,-64.78
17296,-72.32
17308,-81.53
17320,-91.77
17332,-101.48
17344,-108.39
17356,-110.05
17368,-104.64
17380,-91.58
17392,-71.84
17404,-47.63
17416,-21.73
17427,3.22
17438,25.27
17450,43.37
17462,57.23
17474,67.07
17486,73.34
17498,76.51
17510,77.04
17522,75.36
17534,71.97
17546,67.46
17558,62.55
17570,57.94
17582,54.22
17594,51.74
17606,50.62
17617,50.79
17628,52.1
17640,54.32
17652,57.22
17664,60.44
17676,63.5
17688,65.9
17700,67.17
17712,67.08
17724,65.59
17736,62.93
17748,59.43
17760,55.49
17772,51.39
17784,47.27
17796,43.12
17807,38.81
17818,34.27
17830,29.51
17842,24.67
17854,19.9
17866,15.37
17878,11.16
17890,7.31
17902,3.83
17914,0.7
17926,-2.22
17938,-5.14
17950,-8.4
17962,-12.25
17974,-16.8
17986,-21.89
17997,-27.16
18008,-32.26
18020,-36.95
18032,-41.24
18044,-45.35
18056,-49.66
18068,-54.63
18080,-60.74
18092,-68.33
18104,-77.37
18116,-87.09
18128,-95.91
18140,-101.62
18152,-102.04
18164,-95.76
18176,-82.68
18187,-64.14
18198,-42.43
18210,-20.09
18222,0.81
18234,18.97
18246,33.81
18258,45.14
18270,52.9
18282,57.01
18294,57.5
18306,54.66
18318,49.21
18330,42.17
18342,34.74
18354,27.94
18366,22.5
18377,18.68
18388,16.51
18400,15.85
18412,16.58
18424,18.63
18436,21.84
18448,25.93
18460,30.33
18472,34.33
18484,37.21
18496,38.46
18508,37.93
18520,35.89
18532,32.89
18544,29.55
18556,26.36
18567,23.5
18578,20.86
18590,18.14
18602,14.99
18614,11.28
18626,7.12
18638,2.85
18650,-1.09
18662,-4.38
18674,-6.91
18686,-8.83
18698,-10.54
18710,-12.47
18722,-14.96
18734,-18.12
18746,-21.78
18757,-25.58
18768,-29.15
18780,-32.32
18792,-35.24
18804,-38.38
18816,-42.45
18828,-48.19
18840,-56.15
18852,-66.51
18864,-78.82
18876,-91.83
18888,-103.53
18900,-111.45
18912,-113.26
18924,-107.46
18936,-93.95
18947,-74.13
18958,-50.58
18970,-26.21
18982,-3.56
18994,15.73
19006,30.99
19018,42.22
19030,49.71
19042,53.82
19054,54.94
19066,53.54
19078,50.25
19090,45.89
19102,41.2
19114,36.84
19126,33.22
19137,30.55
19148,28.93
19160,28.4
19172,28.97
19184,30.6
19196,33.11
19208,36.14
19220,39.23
19232,41.84
19244,43.54
19256,44.0
19268,43.12
19280,41.02
19292,37.92
19304,34.14
19316,29.95
19327,25.58
19338,21.13
19350,16.71
19362,12.43
19374,8.46
19386,4.87
19398,1.67
19410,-1.28
19422,-4.25
19434,-7.44
19446,-10.96
19458,-14.73
19470,-18.52
19482,-22.11
19494,-25.42
19506,-28.58
19517,-31.92
19528,-35.78
19540,-40.45
19552,-45.98
19564,-52.19
19576,-58.67
19588,-64.98
19600,-70.74
19612,-75.81
19624,-80.31
19636,-84.66
19648,-89.45
19660,-95.35
19672,-102.81
19684,-111.76
19696,-121.2
19707,-129.29
19718,-133.59
19730,-131.78
19742,-122.48
19754,-105.72
19766,-83.06
19778,-56.99
19790,-30.24
19802,-5.06
19814,17.11
19826,35.52
19838,49.92
19850,60.27
19862,66.74
19874,69.68
19886,69.76
19897,67.84
19908,64.84
19920,61.55
19932,58.46
19944,55.84
19956,53.74
19968,52.22
19980,51.37
19992,51.36
20004,52.39
20016,54.54
20028,57.66
20040,61.3
20052,64.79
20064,67.38
20076,68.47
20087,67.77
20098,65.34
20110,61.56
20122,56.92
20134,51.88
20146,46.8
20158,41.85
20170,37.13
20182,32.7
20194,28.62
20206,24.91
20218,21.56
20230,18.47
20242,15.43
20254,12.2
20266,8.61
20277,4.6
20288,0.32
20300,-3.9
20312,-7.78
20324,-11.12
20336,-14.07
20348,-17.03
20360,-20.48
20372,-24.78
20384,-29.91
20396,-35.49
20408,-40.97
20420,-45.85
20432,-49.95
20444,-53.53
20456,-57.19
20467,-61.67
20478,-67.65
20490,-75.43
20502,-84.73
20514,-94.51
20526,-103.02
20538,-108.13
20550,-107.93
20562,-101.29
20574,-88.24
20586,-69.99
20598,-48.54
20610,-26.06
20622,-4.41
20634,15.07
20646,31.55
20657,44.6
20668,53.98
20680,59.66
20692,61.86
20704,61.01
20716,57.83
20728,53.11
20740,47.67
20752,42.27
20764,37.54
20776,33.94
20788,31.76
20800,31.13
20812,32.02
20824,34.24
20836,37.49
20847,41.31
20858,45.13
20870,48.33
20882,50.37
20894,50.95
20906,50.06
20918,47.93
20930,44.81
20942,40.89
20954,36.19
20966,30.67
20978,24.31
20990,17.27
