seconds,BVP
2,-33.1
14,-40.24
26,-48.26
38,-56.7
50,-64.9
62,-72.37
74,-78.95
86,-84.77
98,-90.0
110,-94.73
122,-99.92
134,-105.95
146,-112.35
157,-117.86
168,-121.28
180,-122.04
192,-120.27
204,-116.56
216,-111.69
228,-107.86
240,-106.35
252,-106.9
264,-108.01
276,-108.21
288,-106.93
300,-104.43
312,-101.4
324,-98.45
336,-97.91
347,-100.97
358,-106.9
370,-113.58
382,-118.91
394,-121.83
406,-122.21
418,-120.28
430,-104.64
442,-70.86
454,-23.87
466,24.56
478,64.36
490,91.58
502,107.08
514,113.96
526,115.33
537,114.5
548,111.42
560,105.78
572,98.36
584,91.06
596,85.9
608,84.08
620,85.9
632,90.75
644,97.46
656,103.04
668,105.35
680,104.08
692,100.58
704,96.58
716,93.11
727,90.37
738,88.08
750,86.09
762,83.65
774,80.87
786,78.76
798,78.66
810,81.17
822,85.89
834,91.87
846,98.36
858,105.19
870,112.01
882,118.46
894,123.85
906,127.02
917,126.52
928,121.15
940,110.58
952,95.56
964,77.69
976,58.6
988,39.65
1000,21.76
1012,5.42
1024,-9.23
1036,-22.2
1048,-33.67
1060,-43.91
1072,-53.24
1084,-62.12
1096,-71.04
1107,-80.51
1118,-90.95
1130,-102.62
1142,-115.55
1154,-129.41
1166,-143.55
1178,-156.91
1190,-168.13
1202,-175.7
1214,-178.23
1226,-174.72
1238,-164.93
1250,-149.43
1262,-129.67
1274,-107.71
1286,-85.96
1297,-66.69
1308,-51.67
1320,-41.76
1332,-36.76
1344,-35.67
1356,-37.07
1368,-39.66
1380,-42.59
1392,-45.49
1404,-48.2
1416,-50.43
1428,-51.49
1440,-50.49
1452,-46.58
1464,-39.44
1476,-29.48
1487,-17.66
1498,-5.27
1510,6.55
1522,16.94
1534,25.39
1546,31.66
1558,35.66
1570,37.52
1582,37.51
1594,36.1
1606,33.85
1618,31.28
1630,28.7
1642,26.21
1654,23.74
1666,21.12
1677,18.26
1688,15.1
1700,11.72
1712,8.27
1724,5.03
1736,2.35
1748,0.5
1760,-0.39
1772,-0.49
1784,-0.18
1796,0.04
1808,-0.2
1820,-1.06
1832,-2.41
1844,-3.96
1856,-5.45
1867,-6.73
1878,-7.8
1890,-8.71
1902,-9.51
1914,-10.15
1926,-10.56
1938,-10.73
1950,-10.76
1962,-10.85
1974,-11.27
1986,-12.16
1998,-13.53
2010,-15.18
2022,-16.77
2034,-17.97
2046,-18.41
2057,-17.8
2068,-15.86
2080,-12.36
2092,-7.19
2104,-0.44
2116,7.5
2128,16.0
2140,24.32
2152,31.84
2164,38.18
2176,43.29
2188,47.36
2200,50.6
2212,53.18
2224,55.03
2236,56.02
2247,56.03
2258,55.07
2270,53.35
2282,51.19
2294,48.87
2306,46.56
2318,44.29
2330,41.97
2342,39.55
2354,36.98
2366,34.36
2378,31.72
2390,29.05
2402,26.27
2414,23.24
2426,19.91
2437,16.4
2448,12.92
2460,9.67
2472,6.72
2484,3.92
2496,1.01
2508,-2.3
2520,-6.16
2532,-10.47
2544,-14.95
2556,-19.25
2568,-23.05
2580,-26.19
2592,-28.59
2604,-30.23
2616,-30.97
2627,-30.52
2638,-28.49
2650,-24.46
2662,-18.2
2674,-9.75
2686,0.47
2698,11.78
2710,23.42
2722,34.72
2734,45.21
2746,54.57
2758,62.57
2770,68.95
2782,73.52
2794,76.21
2806,77.22
2817,77.0
2828,76.1
2840,74.96
2852,73.78
2864,72.48
2876,70.81
2888,68.57
2900,65.74
2912,62.57
2924,59.43
2936,56.76
2948,54.88
2960,53.9
2972,53.65
2984,53.71
2996,53.5
3007,52.43
3018,50.09
3030,46.34
3042,41.33
3054,35.49
3066,29.41
3078,23.73
3090,18.96
3102,15.25
3114,12.35
3126,9.6
3138,6.15
3150,1.26
3162,-5.41
3174,-13.71
3186,-23.17
3197,-33.27
3208,-43.65
3220,-54.14
3232,-64.66
3244,-74.9
3256,-84.22
3268,-91.78
3280,-96.72
3292,-98.55
3304,-97.32
3316,-93.68
3328,-88.67
3340,-83.46
3352,-79.02
3364,-75.93
3376,-74.37
3387,-74.12
3398,-74.74
3410,-75.71
3422,-76.5
3434,-76.72
3446,-76.13
3458,-74.67
3470,-72.45
3482,-69.67
3494,-66.53
3506,-63.11
3518,-59.33
3530,-54.94
3542,-49.67
3554,-43.36
3566,-36.08
3577,-28.16
3588,-20.16
3600,-12.72
3612,-6.44
3624,-1.69
3636,1.57
3648,3.71
3660,5.35
3672,7.06
3684,9.08
3696,11.28
3708,13.17
3720,14.22
3732,14.11
3744,12.84
3756,10.63
3767,7.8
3778,4.57
3790,0.99
3802,-2.95
3814,-7.18
3826,-11.52
3838,-15.61
3850,-18.96
3862,-21.0
3874,-21.14
3886,-18.84
3898,-13.77
3910,-5.89
3922,4.43
3934,16.39
3946,29.03
3957,41.32
3968,52.48
3980,62.05
3992,69.9
4004,76.16
4016,81.09
4028,85.06
4040,88.4
4052,91.39
4064,94.14
4076,96.5
4088,98.11
4100,98.5
4112,97.28
4124,94.44
4136,90.36
4147,85.81
4158,81.66
4170,78.63
4182,77.04
4194,76.7
4206,76.98
4218,76.95
4230,75.67
4242,72.45
4254,67.07
4266,59.84
4278,51.46
4290,42.74
4302,34.32
4314,26.47
4326,19.04
4337,11.63
4348,3.85
4360,-4.56
4372,-13.52
4384,-22.73
4396,-31.76
4408,-40.2
4420,-47.79
4432,-54.42
4444,-60.22
4456,-65.46
4468,-70.47
4480,-75.47
4492,-80.5
4504,-85.24
4516,-89.07
4527,-91.22
4538,-90.96
4550,-87.93
4562,-82.27
4574,-74.54
4586,-65.48
4598,-55.77
4610,-45.75
4622,-35.51
4634,-24.95
4646,-13.95
4658,-2.52
4670,9.28
4682,21.25
4694,33.09
4706,44.31
4717,54.2
4728,62.0
4740,67.05
4752,69.13
4764,68.45
4776,65.63
4788,61.38
4800,56.32
4812,50.83
4824,45.13
4836,39.32
4848,33.47
4860,27.62
4872,21.7
4884,15.6
4896,9.17
4907,2.35
4918,-4.77
4930,-11.88
4942,-18.64
4954,-24.68
4966,-29.8
4978,-33.98
4990,-37.31
5002,-39.98
5014,-42.09
5026,-43.66
5038,-44.68
5050,-45.12
5062,-44.95
5074,-44.09
5086,-42.31
5097,-39.16
5108,-34.1
5120,-26.66
5132,-16.7
5144,-4.6
5156,8.86
5168,22.65
5180,35.82
5192,47.67
5204,57.85
5216,66.32
5228,73.22
5240,78.79
5252,83.19
5264,86.53
5276,88.7
5287,89.48
5298,88.57
5310,85.67
5322,80.62
5334,73.41
5346,64.25
5358,53.47
5370,41.6
5382,29.31
5394,17.39
5406,6.54
5418,-2.89
5430,-11.16
5442,-19.07
5454,-27.67
5466,-37.69
5477,-49.09
5488,-60.97
5500,-71.84
5512,-80.27
5524,-85.56
5536,-87.93
5548,-88.3
5560,-87.76
5572,-87.02
5584,-86.19
5596,-85.06
5608,-83.41
5620,-81.39
5632,-79.54
5644,-78.48
5656,-78.59
5667,-79.77
5678,-81.56
5690,-83.34
5702,-84.7
5714,-85.52
5726,-85.92
5738,-86.03
5750,-85.84
5762,-85.19
5774,-83.92
5786,-82.01
5798,-79.63
5810,-77.06
5822,-74.55
5834,-72.28
5846,-70.34
5857,-68.88
5868,-68.12
5880,-68.24
5892,-69.31
5904,-71.1
5916,-73.19
5928,-75.05
5940,-76.29
5952,-76.68
5964,-76.16
5976,-74.74
5988,-72.4
6000,-69.14
6012,-64.96
6024,-60.0
6036,-54.5
6047,-48.74
6058,-42.95
6070,-37.28
6082,-31.82
6094,-26.55
6106,-21.41
6118,-16.29
6130,-11.14
6142,-5.94
6154,-0.76
6166,4.27
6178,9.07
6190,13.62
6202,17.93
6214,22.03
6226,25.87
6237,29.31
6248,32.2
6260,34.38
6272,35.77
6284,36.4
6296,36.47
6308,36.34
6320,36.5
6332,37.55
6344,40.07
6356,44.44
6368,50.71
6380,58.54
6392,67.25
6404,76.05
6416,84.17
6427,91.02
6438,96.26
6450,99.71
6462,101.31
6474,101.13
6486,99.3
6498,96.13
6510,92.16
6522,88.05
6534,84.48
6546,81.88
6558,80.21
6570,78.99
6582,77.43
6594,74.84
6606,70.87
6617,65.62
6628,59.56
6640,53.23
6652,47.06
6664,41.17
6676,35.5
6688,29.94
6700,24.47
6712,19.21
6724,14.36
6736,10.05
6748,6.29
6760,2.91
6772,-0.31
6784,-3.6
6796,-7.0
6807,-10.42
6818,-13.62
6830,-16.33
6842,-18.32
6854,-19.49
6866,-19.88
6878,-19.65
6890,-19.06
6902,-18.44
6914,-18.06
6926,-18.24
6938,-19.21
6950,-21.12
6962,-24.01
6974,-27.69
6986,-31.67
6997,-35.21
7008,-37.44
7020,-37.58
7032,-35.2
7044,-30.33
7056,-23.51
7068,-15.57
7080,-7.41
7092,0.24
7104,6.95
7116,12.57
7128,17.17
7140,20.89
7152,23.9
7164,26.28
7176,28.07
7187,29.26
7198,29.86
7210,29.96
7222,29.67
7234,29.2
7246,28.71
7258,28.45
7270,28.55
7282,29.03
7294,29.73
7306,30.32
7318,30.43
7330,29.8
7342,28.42
7354,26.5
7366,24.35
7377,22.23
7388,20.14
7400,17.99
7412,15.59
7424,12.96
7436,10.23
7448,7.65
7460,5.39
7472,3.41
7484,1.54
7496,-0.48
7508,-2.81
7520,-5.47
7532,-8.35
7544,-11.29
7556,-14.19
7567,-17.04
7578,-19.86
7590,-22.75
7602,-25.79
7614,-29.06
7626,-32.65
7638,-36.58
7650,-40.76
7662,-44.9
7674,-48.5
7686,-50.85
7698,-51.18
7710,-48.91
7722,-43.85
7734,-36.24
7746,-26.82
7757,-16.55
7768,-6.48
7780,2.52
7792,9.89
7804,15.52
7816,19.55
7828,22.32
7840,24.14
7852,25.25
7864,25.78
7876,25.81
7888,25.42
7900,24.73
7912,23.93
7924,23.07
7936,22.05
7947,20.69
7958,18.93
7970,16.93
7982,15.07
7994,13.78
8006,13.3
8018,13.75
8030,14.89
8042,16.29
8054,17.55
8066,18.58
8078,19.55
8090,20.59
8102,21.68
8114,22.59
8126,23.42
8137,24.16
8148,24.77
8160,25.29
8172,25.98
8184,27.11
8196,28.75
8208,30.6
8220,32.13
8232,33.4
8244,34.28
8256,34.52
8268,34.01
8280,33.07
8292,32.36
8304,32.58
8316,34.16
8327,37.15
8338,42.05
8350,48.56
8362,55.48
8374,61.17
8386,64.39
8398,64.52
8410,61.57
8422,56.05
8434,43.85
8446,24.74
8458,1.85
8470,-20.55
8482,-39.91
8494,-55.71
8506,-68.08
8517,-76.88
8528,-81.71
8540,-83.67
8552,-82.51
8564,-78.56
8576,-72.91
8588,-66.78
8600,-60.86
8612,-55.19
8624,-49.71
8636,-44.73
8648,-39.86
8660,-34.9
8672,-30.17
8684,-26.23
8696,-23.38
8707,-21.41
8718,-19.8
8730,-18.22
8742,-16.79
8754,-15.93
8766,-15.75
8778,-16.39
8790,-17.98
8802,-20.42
8814,-23.41
8826,-26.48
8838,-29.31
8850,-31.85
8862,-34.07
8874,-35.95
8886,-37.85
8897,-40.42
8908,-44.38
8920,-49.99
8932,-56.84
8944,-63.95
8956,-70.13
8968,-73.96
8980,-74.3
8992,-70.77
9004,-63.81
9016,-54.45
9028,-43.92
9040,-33.33
9052,-23.46
9064,-14.69
9076,-6.57
9087,1.84
9098,11.34
9110,22.4
9122,34.99
9134,48.81
9146,63.53
9158,78.94
9170,92.28
9182,100.46
9194,101.67
9206,96.59
9218,87.66
9230,77.27
9242,66.98
9254,57.65
9266,49.65
9277,42.98
9288,37.74
9300,34.84
9312,33.64
9324,33.43
9336,33.6
9348,33.71
9360,33.55
9372,33.13
9384,32.56
9396,32.24
9408,32.69
9420,34.03
9432,35.66
9444,37.05
9456,37.86
9467,38.06
9478,37.83
9490,37.5
9502,37.44
9514,37.82
9526,38.38
9538,38.65
9550,38.16
9562,36.56
9574,33.74
9586,29.75
9598,24.73
9610,18.96
9622,12.92
9634,7.18
9646,2.42
9657,-0.7
9668,-1.89
9680,-1.31
9692,0.36
9704,2.23
9716,3.49
9728,3.68
9740,2.72
9752,0.9
9764,-1.38
9776,-3.83
9788,-6.33
9800,-8.86
9812,-11.43
9824,-14.0
9836,-16.5
9847,-18.9
9858,-21.21
9870,-23.43
9882,-25.54
9894,-27.49
9906,-29.12
9918,-30.33
9930,-31.05
9942,-31.3
9954,-31.14
9966,-30.58
9978,-29.61
9990,-28.23
10002,-26.47
10014,-24.42
10026,-22.2
10037,-19.84
10048,-17.3
10060,-14.46
10072,-11.32
10084,-8.01
10096,-4.88
10108,-2.29
10120,-0.55
10132,0.26
10144,0.3
10156,-0.11
10168,-0.61
10180,-0.93
10192,-0.99
10204,-0.9
10216,-0.92
10227,-1.39
10238,-2.58
10250,-4.57
10262,-7.19
10274,-9.87
10286,-11.85
10298,-12.25
10310,-10.34
10322,-5.76
10334,1.35
10346,10.39
10358,20.45
10370,30.55
10382,39.84
10394,47.7
10406,53.92
10417,58.67
10428,62.32
10440,65.1
10452,66.98
10464,67.51
10476,65.97
10488,61.57
10500,53.61
10512,41.86
10524,26.81
10536,9.58
10548,-8.37
10560,-25.59
10572,-40.95
10584,-53.73
10596,-63.66
10607,-71.01
10618,-76.06
10630,-78.91
10642,-79.55
10654,-78.16
10666,-75.25
10678,-71.65
10690,-68.27
10702,-65.83
10714,-65.53
10726,-67.8
10738,-72.1
10750,-77.18
10762,-81.83
10774,-85.4
10786,-87.75
10797,-89.15
10808,-90.04
10820,-92.55
10832,-98.02
10844,-106.2
10856,-115.39
10868,-123.6
10880,-129.36
10892,-131.71
10904,-130.24
10916,-125.01
10928,-119.1
10940,-114.92
10952,-112.91
10964,-111.8
10976,-110.37
10987,-108.34
10998,-106.0
11010,-103.89
11022,-102.36
11034,-104.77
11046,-112.94
11058,-125.74
11070,-139.89
11082,-152.41
11094,-161.93
11106,-168.13
11118,-171.14
11130,-150.04
11142,-96.44
11154,-19.12
11166,61.25
11177,127.13
11188,171.23
11200,194.21
11212,200.88
11224,197.05
11236,188.12
11248,174.67
11260,156.87
11272,136.27
11284,116.01
11296,99.07
11308,86.05
11320,78.0
11332,74.9
11344,75.95
11356,77.27
11367,75.93
11378,71.53
11390,65.96
11402,61.46
11414,59.35
11426,59.94
11438,62.51
11450,65.86
11462,67.2
11474,64.79
11486,58.76
11498,50.97
11510,43.68
11522,38.51
11534,36.28
11546,36.72
11557,38.98
11568,41.17
11580,41.82
11592,40.44
11604,37.46
11616,33.47
11628,28.79
11640,23.53
11652,17.64
11664,11.35
11676,4.9
11688,-1.15
11700,-6.08
11712,-9.38
11724,-11.03
11736,-11.54
11747,-11.56
11758,-11.63
11770,-11.93
11782,-12.43
11794,-13.05
11806,-13.85
11818,-15.04
11830,-16.84
11842,-19.33
11854,-22.34
11866,-25.51
11878,-28.43
11890,-30.81
11902,-32.63
11914,-34.12
11926,-35.69
11937,-37.77
11948,-40.65
11960,-44.36
11972,-48.72
11984,-53.39
11996,-58.0
12008,-62.26
12020,-66.05
12032,-69.41
12044,-72.49
12056,-75.54
12068,-78.77
12080,-82.26
12092,-85.83
12104,-89.02
12116,-91.27
12127,-92.01
12138,-90.95
12150,-87.98
12162,-83.18
12174,-76.68
12186,-68.69
12198,-59.53
12210,-49.85
12222,-40.54
12234,-32.47
12246,-26.18
12258,-21.65
12270,-18.39
12282,-15.8
12294,-13.41
12306,-11.09
12317,-8.77
12328,-6.17
12340,-2.6
12352,2.78
12364,10.54
12376,20.54
12388,31.99
12400,43.74
12412,54.95
12424,65.35
12436,75.29
12448,85.26
12460,95.53
12472,105.91
12484,115.76
12496,124.33
12507,130.97
12518,135.3
12530,137.26
12542,137.02
12554,134.96
12566,131.61
12578,127.55
12590,123.18
12602,118.67
12614,113.84
12626,108.35
12638,101.86
12650,94.24
12662,85.62
12674,76.35
12686,66.83
12697,57.4
12708,48.23
12720,39.36
12732,30.76
12744,22.51
12756,14.87
12768,8.28
12780,3.32
12792,0.44
12804,-0.25
12816,0.99
12828,3.56
12840,6.78
12852,10.12
12864,13.32
12876,16.33
12887,19.08
12898,21.39
12910,22.96
12922,23.43
12934,22.66
12946,20.74
12958,17.95
12970,14.69
12982,11.35
12994,8.27
13006,5.76
13018,4.02
13030,3.13
13042,2.94
13054,3.15
13066,3.33
13077,3.12
13088,2.35
13100,1.03
13112,-0.75
13124,-2.94
13136,-5.59
13148,-8.71
13160,-12.26
13172,-15.96
13184,-19.47
13196,-22.55
13208,-25.15
13220,-27.53
13232,-30.07
13244,-33.07
13256,-36.61
13267,-40.53
13278,-44.45
13290,-48.0
13302,-50.97
13314,-53.34
13326,-55.3
13338,-57.11
13350,-58.95
13362,-60.85
13374,-62.55
13386,-63.53
13398,-63.1
13410,-60.59
13422,-55.6
13434,-48.13
13446,-38.69
13457,-28.08
13468,-17.21
13480,-6.82
13492,2.59
13504,10.78
13516,17.63
13528,23.07
13540,27.12
13552,29.94
13564,31.84
13576,33.25
13588,34.52
13600,35.81
13612,37.08
13624,38.15
13636,38.91
13647,39.37
13658,39.68
13670,39.96
13682,40.15
13694,40.0
13706,39.23
13718,37.62
13730,35.11
13742,31.79
13754,27.79
13766,23.25
13778,18.27
13790,13.0
13802,7.68
13814,2.63
13826,-1.88
13837,-5.7
13848,-8.81
13860,-11.34
13872,-13.47
13884,-15.3
13896,-16.86
13908,-18.09
13920,-18.89
13932,-19.2
13944,-19.1
13956,-18.76
13968,-18.45
13980,-18.36
13992,-18.41
14004,-18.11
14016,-16.67
14027,-13.16
14038,-6.89
14050,2.25
14062,13.72
14074,26.37
14086,38.86
14098,49.99
14110,59.06
14122,65.93
14134,70.89
14146,74.41
14158,76.85
14170,78.36
14182,78.91
14194,78.41
14206,76.89
14217,74.56
14228,71.69
14240,68.53
14252,65.15
14264,61.48
14276,57.41
14288,52.95
14300,48.31
14312,43.86
14324,39.95
14336,36.77
14348,34.18
14360,31.75
14372,28.94
14384,25.39
14396,20.97
14407,15.97
14418,10.85
14430,6.13
14442,2.12
14454,-1.17
14466,-4.04
14478,-6.87
14490,-10.0
14502,-13.58
14514,-17.44
14526,-21.27
14538,-24.7
14550,-27.47
14562,-29.55
14574,-31.17
14586,-32.8
14597,-34.98
14608,-38.14
14620,-42.44
14632,-47.54
14644,-52.64
14656,-56.61
14668,-58.38
14680,-57.21
14692,-53.01
14704,-46.36
14716,-38.27
14728,-29.88
14740,-22.09
14752,-15.45
14764,-10.1
14776,-6.02
14787,-3.04
14798,-1.02
14810,0.17
14822,0.68
14834,0.72
14846,0.46
14858,0.06
14870,-0.41
14882,-0.93
14894,-1.48
14906,-2.02
14918,-2.5
14930,-2.81
14942,-2.91
14954,-2.83
14966,-2.69
14977,-2.64
14988,-2.82
15000,-3.24
15012,-3.83
15024,-4.49
15036,-5.12
15048,-5.69
15060,-6.2
15072,-6.66
15084,-7.07
15096,-7.37
15108,-7.59
15120,-7.78
15132,-8.03
15144,-8.46
15156,-9.15
15167,-10.09
15178,-11.18
15190,-12.3
15202,-13.29
15214,-14.06
15226,-14.63
15238,-15.17
15250,-15.99
15262,-17.51
15274,-20.06
15286,-23.73
15298,-28.27
15310,-33.07
15322,-37.24
15334,-39.88
15346,-40.28
15357,-38.11
15368,-33.51
15380,-26.96
15392,-19.17
15404,-10.91
15416,-2.83
15428,4.55
15440,10.92
15452,16.14
15464,20.13
15476,22.92
15488,24.58
15500,25.29
15512,25.27
15524,24.76
15536,23.95
15547,22.94
15558,21.77
15570,20.45
15582,19.04
15594,17.63
15606,16.38
15618,15.33
15630,14.5
15642,13.8
15654,13.06
15666,12.14
15678,10.91
15690,9.28
15702,7.22
15714,4.79
15726,2.17
15737,-0.41
15748,-2.74
15760,-4.78
15772,-6.7
15784,-8.83
15796,-11.5
15808,-14.84
15820,-18.68
15832,-22.67
15844,-26.39
15856,-29.56
15868,-32.12
15880,-34.27
15892,-36.33
15904,-38.7
15916,-41.63
15927,-45.17
15938,-49.01
15950,-52.53
15962,-54.84
15974,-55.05
15986,-52.57
15998,-47.29
16010,-39.65
16022,-30.54
16034,-21.0
16046,-11.97
16058,-4.08
16070,2.35
16082,7.32
16094,10.94
16106,13.39
16117,14.87
16128,15.58
16140,15.75
16152,15.64
16164,15.44
16176,15.26
16188,15.04
16200,14.68
16212,14.07
16224,13.27
16236,12.49
16248,12.02
16260,12.09
16272,12.69
16284,13.56
16296,14.25
16307,14.36
16318,13.68
16330,12.33
16342,10.62
16354,8.91
16366,7.39
16378,5.95
16390,4.35
16402,2.3
16414,-0.27
16426,-3.18
16438,-6.07
16450,-8.61
16462,-10.67
16474,-12.41
16486,-14.19
16497,-16.44
16508,-19.39
16520,-23.0
16532,-26.93
16544,-30.64
16556,-33.5
16568,-34.9
16580,-34.33
16592,-31.49
16604,-26.36
16616,-19.32
16628,-11.11
16640,-2.72
16652,4.88
16664,11.04
16676,15.57
16687,18.7
16698,20.85
16710,22.41
16722,23.58
16734,24.4
16746,24.86
16758,25.03
16770,25.03
16782,24.95
16794,24.76
16806,24.28
16818,23.32
16830,21.86
16842,20.13
16854,18.51
16866,17.34
16877,16.75
16888,16.58
16900,16.42
16912,15.88
16924,14.72
16936,12.94
16948,10.79
16960,8.53
16972,6.37
16984,4.31
16996,2.2
17008,-0.16
17020,-2.91
17032,-5.99
17044,-9.23
17056,-12.42
17067,-15.38
17078,-18.1
17090,-20.7
17102,-23.34
17114,-26.23
17126,-29.52
17138,-33.32
17150,-37.61
17162,-42.19
17174,-46.6
17186,-50.09
17198,-51.77
17210,-50.91
17222,-47.16
17234,-40.72
17246,-32.33
17257,-23.02
17268,-13.79
17280,-5.4
17292,1.79
17304,7.75
17316,12.7
17328,16.84
17340,20.31
17352,23.16
17364,25.32
17376,26.77
17388,27.56
17400,27.85
17412,27.85
17424,27.76
17436,27.65
17447,27.46
17458,27.08
17470,26.44
17482,25.59
17494,24.68
17506,23.93
17518,23.4
17530,23.02
17542,22.5
17554,21.54
17566,19.96
17578,17.81
17590,15.4
17602,13.09
17614,11.12
17626,9.44
17637,7.76
17648,5.7
17660,3.0
17672,-0.33
17684,-4.09
17696,-7.98
17708,-11.79
17720,-15.48
17732,-19.08
17744,-22.68
17756,-26.31
17768,-30.0
17780,-33.73
17792,-37.5
17804,-41.18
17816,-44.48
17827,-46.83
17838,-47.51
17850,-45.84
17862,-41.51
17874,-34.73
17886,-26.27
17898,-17.15
17910,-8.35
17922,-0.54
17934,6.1
17946,11.71
17958,16.57
17970,20.9
17982,24.72
17994,27.93
18006,30.43
18017,32.27
18028,33.6
18040,34.64
18052,35.5
18064,36.15
18076,36.44
18088,36.18
18100,35.31
18112,33.96
18124,32.47
18136,31.21
18148,30.43
18160,30.09
18172,29.93
18184,29.5
18196,28.35
18207,26.15
18218,22.79
18230,18.4
18242,13.38
18254,8.35
18266,4.02
18278,0.93
18290,-0.71
18302,-1.22
18314,-1.28
18326,-1.72
18338,-3.17
18350,-5.84
18362,-9.54
18374,-13.88
18386,-18.52
18397,-23.26
18408,-28.04
18420,-32.8
18432,-37.43
18444,-41.8
18456,-45.81
18468,-49.47
18480,-52.87
18492,-56.01
18504,-58.59
18516,-60.03
18528,-59.55
18540,-56.53
18552,-50.75
18564,-42.52
18576,-32.66
18587,-22.16
18598,-11.96
18610,-2.76
18622,5.08
18634,11.4
18646,16.25
18658,19.77
18670,22.15
18682,23.61
18694,24.37
18706,24.61
18718,24.44
18730,23.94
18742,23.13
18754,22.06
18766,20.81
18777,19.53
18788,18.36
18800,17.48
18812,16.98
18824,16.9
18836,17.11
18848,17.39
18860,17.43
18872,16.98
18884,15.89
18896,14.19
18908,12.05
18920,9.68
18932,7.23
18944,4.71
18956,2.01
18967,-1.0
18978,-4.37
18990,-7.95
19002,-11.42
19014,-14.45
19026,-16.82
19038,-18.56
19050,-19.99
19062,-21.54
19074,-23.68
19086,-26.68
19098,-30.47
19110,-34.64
19122,-38.41
19134,-40.86
19146,-41.16
19157,-38.83
19168,-33.92
19180,-27.02
19192,-19.09
19204,-11.07
19216,-3.66
19228,2.91
19240,8.81
19252,14.39
19264,19.96
19276,25.6
19288,31.06
19300,35.98
19312,39.89
19324,42.5
19336,43.7
19347,43.6
19358,42.46
19370,40.7
19382,38.75
19394,37.05
19406,35.98
19418,35.71
19430,36.26
19442,37.47
19454,39.04
19466,40.67
19478,42.11
19490,43.2
19502,43.85
19514,44.05
19526,43.78
19537,43.01
19548,41.65
19560,39.63
19572,36.85
19584,33.35
19596,29.32
19608,25.05
19620,20.93
19632,17.21
19644,13.87
19656,10.58
19668,6.8
19680,1.96
19692,-4.39
19704,-12.43
19716,-22.03
19727,-32.7
19738,-43.62
19750,-53.65
19762,-61.55
19774,-66.23
19786,-67.12
19798,-64.33
19810,-58.65
19822,-51.29
19834,-43.47
19846,-36.14
19858,-29.79
19870,-24.58
19882,-20.45
19894,-17.26
19906,-14.9
19917,-13.21
19928,-12.08
19940,-11.37
19952,-11.03
19964,-10.96
19976,-11.09
19988,-11.26
20000,-11.25
20012,-10.82
20024,-9.79
20036,-8.13
20048,-5.94
20060,-3.43
20072,-0.87
20084,1.49
20096,3.45
20107,4.83
20118,5.57
20130,5.65
20142,5.18
20154,4.36
20166,3.39
20178,2.49
20190,1.71
20202,0.98
20214,0.12
20226,-1.07
20238,-2.69
20250,-4.69
20262,-6.94
20274,-9.26
20286,-11.58
20297,-13.89
20308,-16.3
20320,-18.96
20332,-22.04
20344,-25.69
20356,-29.98
20368,-34.91
20380,-40.22
20392,-45.37
20404,-49.56
20416,-51.92
20428,-51.72
20440,-48.68
20452,-43.06
20464,-35.64
20476,-27.43
20487,-19.38
20498,-12.03
20510,-5.56
20522,0.2
20534,5.44
20546,10.21
20558,14.39
20570,17.8
20582,20.34
20594,22.13
20606,23.41
20618,24.44
20630,25.34
20642,26.08
20654,26.52
20666,26.58
20677,26.34
20688,25.97
20700,25.73
20712,25.72
20724,25.9
20736,26.11
20748,26.11
20760,25.69
20772,24.76
20784,23.33
20796,21.5
20808,19.41
20820,17.22
20832,14.99
20844,12.72
20856,10.36
20867,7.83
20878,5.07
20890,2.13
20902,-0.86
20914,-3.75
20926,-6.42
20938,-8.87
20950,-11.2
20962,-13.6
20974,-16.3
20986,-19.53
20998,-23.37
