seconds,BVP
2,32.17
14,31.54
26,30.15
38,28.25
50,26.12
62,23.97
74,21.95
86,20.16
98,18.68
110,17.57
122,16.88
134,16.58
146,16.59
158,16.78
169,16.97
180,16.97
192,16.63
204,15.86
216,14.67
228,13.15
240,11.49
252,9.89
264,8.53
276,7.51
288,6.82
300,6.34
312,5.88
324,5.2
336,4.13
348,2.61
359,0.76
370,-1.17
382,-2.89
394,-4.23
406,-5.25
418,-6.21
430,-7.42
442,-9.1
454,-11.2
466,-13.43
478,-15.48
490,-17.1
502,-18.3
514,-19.36
526,-20.62
538,-22.42
549,-24.91
560,-28.0
572,-31.37
584,-34.5
596,-36.74
608,-37.48
620,-36.3
632,-33.07
644,-28.02
656,-21.68
668,-14.74
680,-7.85
692,-1.51
704,3.98
716,8.46
728,11.89
739,14.27
750,15.69
762,16.3
774,16.36
786,16.17
798,16.01
810,16.07
822,16.37
834,16.83
846,17.32
858,17.72
870,18.05
882,18.4
894,18.9
906,19.58
918,20.38
929,21.12
940,21.56
952,21.56
964,21.06
976,20.14
988,18.95
1000,17.61
1012,16.27
1024,14.97
1036,13.76
1048,12.63
1060,11.56
1072,10.46
1084,9.24
1096,7.79
1108,6.11
1119,4.29
1130,2.5
1142,0.9
1154,-0.42
1166,-1.57
1178,-2.74
1190,-4.13
1202,-5.88
1214,-7.91
1226,-10.0
1238,-11.87
1250,-13.28
1262,-14.23
1274,-14.93
1286,-15.75
1298,-17.1
1309,-19.22
1320,-22.13
1332,-25.57
1344,-29.1
1356,-32.2
1368,-34.31
1380,-34.99
1392,-33.92
1404,-31.02
1416,-26.48
1428,-20.79
1440,-14.6
1452,-8.56
1464,-3.13
1476,1.5
1488,5.37
1499,8.61
1510,11.24
1522,13.2
1534,14.33
1546,14.58
1558,14.04
1570,12.98
1582,11.8
1594,10.85
1606,10.37
1618,10.41
1630,10.85
1642,11.52
1654,12.24
1666,12.92
1678,13.53
1689,14.09
1700,14.6
1712,14.99
1724,15.19
1736,15.11
1748,14.73
1760,14.06
1772,13.17
1784,12.12
1796,10.97
1808,9.76
1820,8.46
1832,7.05
1844,5.51
1856,3.83
1868,2.04
1879,0.2
1890,-1.62
1902,-3.39
1914,-5.12
1926,-6.84
1938,-8.54
1950,-10.16
1962,-11.63
1974,-12.95
1986,-14.19
1998,-15.55
2010,-17.2
2022,-19.25
2034,-21.67
2046,-24.3
2058,-26.85
2069,-29.0
2080,-30.33
2092,-30.45
2104,-29.04
2116,-25.92
2128,-21.23
2140,-15.39
2152,-9.08
2164,-2.98
2176,2.34
2188,6.58
2200,9.7
2212,11.89
2224,13.38
2236,14.36
2248,14.92
2259,15.07
2270,14.8
2282,14.19
2294,13.44
2306,12.83
2318,12.65
2330,13.07
2342,14.1
2354,15.59
2366,17.33
2378,19.11
2390,20.79
2402,22.27
2414,23.51
2426,24.53
2438,25.36
2449,26.1
2460,26.88
2472,27.82
2484,29.01
2496,30.38
2508,31.8
2520,33.08
2532,34.1
2544,34.95
2556,35.88
2568,37.22
2580,39.21
2592,41.88
2604,44.98
2616,48.09
2628,50.83
2639,53.06
2650,54.96
2662,56.99
2674,59.8
2686,63.92
2698,69.68
2710,77.01
2722,85.37
2734,93.62
2746,100.28
2758,103.79
2770,103.05
2782,97.86
2794,89.18
2806,78.83
2818,68.88
2829,60.95
2840,55.63
2852,52.46
2864,50.29
2876,47.88
2888,44.39
2900,39.61
2912,33.84
2924,27.6
2936,21.35
2948,15.36
2960,9.76
2972,4.6
2984,-0.08
2996,-4.18
3008,-7.66
3019,-10.56
3030,-13.06
3042,-15.48
3054,-18.19
3066,-21.43
3078,-25.25
3090,-29.39
3102,-33.4
3114,-36.75
3126,-39.12
3138,-40.49
3150,-41.16
3162,-41.58
3174,-42.14
3186,-42.96
3198,-43.87
3209,-44.48
3220,-44.45
3232,-43.6
3244,-42.05
3256,-40.09
3268,-38.06
3280,-36.28
3292,-34.95
3304,-34.18
3316,-34.07
3328,-34.72
3340,-36.24
3352,-38.63
3364,-41.83
3376,-45.64
3388,-49.79
3399,-54.04
3410,-58.14
3422,-61.96
3434,-65.4
3446,-68.42
3458,-70.98
3470,-73.06
3482,-74.6
3494,-75.56
3506,-75.89
3518,-75.52
3530,-74.34
3542,-72.15
3554,-68.66
3566,-63.63
3578,-57.0
3589,-49.09
3600,-40.57
3612,-32.25
3624,-24.86
3636,-18.72
3648,-13.72
3660,-9.4
3672,-5.26
3684,-0.99
3696,3.42
3708,7.74
3720,11.72
3732,15.2
3744,18.23
3756,20.92
3768,23.45
3779,25.88
3790,28.25
3802,30.57
3814,32.87
3826,35.18
3838,37.47
3850,39.69
3862,41.74
3874,43.49
3886,44.86
3898,45.82
3910,46.37
3922,46.53
3934,46.35
3946,45.87
3958,45.1
3969,43.96
3980,42.27
3992,39.71
4004,36.0
4016,31.03
4028,25.0
4040,18.41
4052,11.81
4064,5.64
4076,0.01
4088,-5.24
4100,-10.37
4112,-15.56
4124,-20.8
4136,-25.98
4148,-31.0
4159,-35.84
4170,-40.62
4182,-45.43
4194,-50.26
4206,-54.89
4218,-58.96
4230,-62.04
4242,-63.69
4254,-63.57
4266,-61.49
4278,-57.51
4290,-51.98
4302,-45.51
4314,-38.84
4326,-32.68
4338,-27.56
4349,-23.8
4360,-21.46
4372,-20.52
4384,-20.87
4396,-22.35
4408,-24.71
4420,-27.58
4432,-30.54
4444,-33.23
4456,-35.47
4468,-37.31
4480,-38.96
4492,-40.72
4504,-42.86
4516,-45.57
4528,-48.87
4539,-52.67
4550,-56.77
4562,-60.95
4574,-64.99
4586,-68.74
4598,-72.08
4610,-74.9
4622,-77.17
4634,-78.86
4646,-80.1
4658,-81.1
4670,-82.07
4682,-83.01
4694,-83.61
4706,-83.13
4718,-80.68
4729,-75.52
4740,-67.37
4752,-56.52
4764,-43.76
4776,-30.05
4788,-16.25
4800,-3.06
4812,9.03
4824,19.62
4836,28.38
4848,35.12
4860,39.91
4872,43.14
4884,45.47
4896,47.59
4908,50.01
4919,52.84
4930,55.78
4942,58.24
4954,59.59
4966,59.32
4978,57.24
4990,53.49
5002,48.42
5014,42.57
5026,36.51
5038,30.75
5050,25.71
5062,21.61
5074,18.49
5086,16.26
5098,14.77
5109,13.87
5120,13.45
5132,13.42
5144,13.64
5156,13.95
5168,14.19
5180,14.29
5192,14.25
5204,14.18
5216,14.18
5228,14.27
5240,14.41
5252,14.51
5264,14.52
5276,14.45
5288,14.3
5299,14.01
5310,13.47
5322,12.53
5334,11.12
5346,9.26
5358,7.03
5370,4.57
5382,1.95
5394,-0.78
5406,-3.53
5418,-6.18
5430,-8.5
5442,-10.31
5454,-11.57
5466,-12.47
5478,-13.36
5489,-14.64
5500,-16.6
5512,-19.23
5524,-22.21
5536,-25.03
5548,-27.09
5560,-27.96
5572,-27.46
5584,-25.75
5596,-23.21
5608,-20.29
5620,-17.35
5632,-14.58
5644,-11.99
5656,-9.54
5668,-7.24
5679,-5.22
5690,-3.65
5702,-2.63
5714,-2.11
5726,-1.84
5738,-1.5
5750,-0.86
5762,0.11
5774,1.29
5786,2.47
5798,3.57
5810,4.63
5822,5.83
5834,7.29
5846,8.97
5858,10.71
5869,12.28
5880,13.48
5892,14.27
5904,14.68
5916,14.76
5928,14.56
5940,14.1
5952,13.42
5964,12.68
5976,12.05
5988,11.66
6000,11.45
6012,11.2
6024,10.63
6036,9.54
6048,7.94
6059,5.96
6070,3.86
6082,1.85
6094,0.07
6106,-1.48
6118,-2.86
6130,-4.23
6142,-5.78
6154,-7.6
6166,-9.57
6178,-11.34
6190,-12.3
6202,-11.85
6214,-9.58
6226,-5.49
6238,0.03
6249,6.3
6260,12.65
6272,18.6
6284,23.9
6296,28.49
6308,32.37
6320,35.6
6332,38.25
6344,40.43
6356,42.28
6368,43.9
6380,45.32
6392,46.49
6404,47.36
6416,47.93
6428,48.33
6439,48.75
6450,49.39
6462,50.4
6474,51.77
6486,53.38
6498,55.06
6510,56.58
6522,57.69
6534,58.21
6546,58.02
6558,57.13
6570,55.63
6582,53.6
6594,51.02
6606,47.68
6618,43.28
6629,37.59
6640,30.61
6652,22.62
6664,14.13
6676,5.71
6688,-2.14
6700,-9.08
6712,-14.97
6724,-19.76
6736,-23.5
6748,-26.38
6760,-28.78
6772,-31.21
6784,-34.16
6796,-37.94
6808,-42.59
6819,-47.86
6830,-53.31
6842,-58.49
6854,-62.96
6866,-66.26
6878,-67.97
6890,-67.73
6902,-65.37
6914,-61.11
6926,-55.58
6938,-49.67
6950,-44.33
6962,-40.21
6974,-37.59
6986,-36.28
6998,-35.82
7009,-35.51
7020,-34.57
7032,-32.15
7044,-27.44
7056,-19.86
7068,-9.13
7080,4.51
7092,20.34
7104,37.18
7116,53.69
7128,68.55
7140,80.78
7152,89.72
7164,94.98
7176,96.27
7188,93.27
7199,85.68
7210,73.45
7222,57.03
7234,37.54
7246,16.59
7258,-4.03
7270,-22.8
7282,-38.81
7294,-51.82
7306,-62.16
7318,-70.5
7330,-77.56
7342,-83.95
7354,-90.0
7366,-95.6
7378,-100.29
7389,-103.34
7400,-104.02
7412,-101.89
7424,-96.89
7436,-89.5
7448,-80.52
7460,-71.06
7472,-62.24
7484,-54.93
7496,-49.46
7508,-45.46
7520,-42.02
7532,-38.05
7544,-33.07
7556,-27.61
7568,-23.27
7579,-22.0
7590,-25.06
7602,-31.94
7614,-40.09
7626,-45.72
7638,-45.28
7650,-36.92
7662,-21.18
7674,-0.43
7686,22.39
7698,45.04
7710,66.65
7722,87.39
7734,107.67
7746,127.46
7758,146.22
7769,163.33
7780,178.5
7792,191.61
7804,202.11
7816,208.27
7828,207.19
7840,195.86
7852,172.9
7864,139.96
7876,101.95
7888,65.47
7900,36.54
7912,18.31
7924,10.25
7936,8.98
7948,10.2
7959,10.59
7970,8.79
7982,5.06
7994,0.07
8006,-6.01
8018,-13.8
8030,-24.03
8042,-36.57
8054,-49.91
8066,-61.43
8078,-68.47
8090,-69.41
8102,-64.36
8114,-54.92
8126,-43.41
8138,-31.76
8149,-20.92
8160,-10.84
8172,-1.02
8184,8.81
8196,18.33
8208,26.66
8220,32.77
8232,35.99
8244,36.27
8256,34.13
8268,30.41
8280,25.92
8292,21.19
8304,16.36
8316,11.27
8328,5.67
8339,-0.57
8350,-7.44
8362,-14.73
8374,-22.14
8386,-29.41
8398,-36.33
8410,-42.73
8422,-48.52
8434,-53.52
8446,-57.57
8458,-60.41
8470,-61.82
8482,-61.64
8494,-59.84
8506,-56.6
8518,-52.31
8529,-47.46
8540,-42.61
8552,-38.23
8564,-34.69
8576,-32.25
8588,-31.09
8600,-31.36
8612,-33.06
8624,-35.85
8636,-39.14
8648,-42.04
8660,-43.8
8672,-43.94
8684,-42.53
8696,-40.01
8708,-36.95
8719,-33.68
8730,-30.14
8742,-25.92
8754,-20.54
8766,-13.75
8778,-5.75
8790,2.82
8802,11.1
8814,18.32
8826,24.08
8838,28.34
8850,31.3
8862,33.21
8874,34.27
8886,34.57
8898,34.19
8909,33.3
8920,32.18
8932,31.1
8944,30.23
8956,29.55
8968,28.89
8980,28.06
8992,26.96
9004,25.59
9016,24.1
9028,22.58
9040,21.06
9052,19.49
9064,17.77
9076,15.83
9088,13.59
9099,11.03
9110,8.18
9122,5.11
9134,1.97
9146,-1.02
9158,-3.66
9170,-5.78
9182,-7.42
9194,-8.84
9206,-10.45
9218,-12.76
9230,-16.16
9242,-20.86
9254,-26.75
9266,-33.33
9278,-39.79
9289,-45.11
9300,-48.41
9312,-49.1
9324,-47.23
9336,-43.39
9348,-38.63
9360,-34.06
9372,-30.57
9384,-28.64
9396,-28.3
9408,-29.29
9420,-31.21
9432,-33.7
9444,-36.52
9456,-39.47
9468,-42.3
9479,-44.68
9490,-46.17
9502,-46.27
9514,-44.53
9526,-40.7
9538,-34.78
9550,-27.07
9562,-18.12
9574,-8.6
9586,0.77
9598,9.26
9610,16.18
9622,20.91
9634,23.08
9646,22.6
9658,19.8
9669,15.35
9680,10.1
9692,4.84
9704,0.19
9716,-3.6
9728,-6.54
9740,-8.79
9752,-10.59
9764,-12.11
9776,-13.45
9788,-14.66
9800,-15.79
9812,-16.91
9824,-18.06
9836,-19.31
9848,-20.71
9859,-22.33
9870,-24.08
9882,-25.77
9894,-26.97
9906,-27.13
9918,-25.7
9930,-22.36
9942,-17.19
9954,-10.64
9966,-3.46
9978,3.6
9990,9.95
10002,15.3
10014,19.57
10026,22.75
10038,24.79
10049,25.55
10060,24.94
10072,23.01
10084,20.09
10096,16.65
10108,13.26
10120,10.33
10132,8.1
10144,6.6
10156,5.8
10168,5.6
10180,5.9
10192,6.53
10204,7.26
10216,7.81
10228,7.95
10239,7.59
10250,6.82
10262,5.8
10274,4.64
10286,3.36
10298,1.86
10310,-0.01
10322,-2.35
10334,-5.2
10346,-8.44
10358,-11.88
10370,-15.34
10382,-18.64
10394,-21.71
10406,-24.57
10418,-27.29
10429,-30.01
10440,-32.93
10452,-36.25
10464,-40.14
10476,-44.54
10488,-49.1
10500,-53.06
10512,-55.38
10524,-55.09
10536,-51.58
10548,-44.86
10560,-35.58
10572,-24.78
10584,-13.55
10596,-2.73
10608,7.14
10619,15.8
10630,23.11
10642,28.93
10654,33.13
10666,35.62
10678,36.5
10690,36.04
10702,34.7
10714,32.95
10726,31.25
10738,29.84
10750,28.84
10762,28.28
10774,28.15
10786,28.48
10798,29.29
10809,30.52
10820,31.98
10832,33.39
10844,34.42
10856,34.81
10868,34.46
10880,33.41
10892,31.8
10904,29.83
10916,27.68
10928,25.53
10940,23.54
10952,21.84
10964,20.42
10976,19.2
10988,17.97
10999,16.5
11010,14.64
11022,12.3
11034,9.53
11046,6.39
11058,2.98
11070,-0.65
11082,-4.48
11094,-8.51
11106,-12.81
11118,-17.48
11130,-22.54
11142,-27.86
11154,-32.95
11166,-37.0
11178,-39.06
11189,-38.3
11200,-34.38
11212,-27.57
11224,-18.63
11236,-8.53
11248,1.82
11260,11.82
11272,21.1
11284,29.39
11296,36.44
11308,41.92
11320,45.6
11332,47.47
11344,47.77
11356,46.99
11368,45.7
11379,44.35
11390,43.17
11402,42.18
11414,41.33
11426,40.52
11438,39.82
11450,39.36
11462,39.32
11474,39.77
11486,40.62
11498,41.6
11510,42.36
11522,42.6
11534,42.14
11546,40.96
11558,39.22
11569,37.15
11580,34.95
11592,32.77
11604,30.59
11616,28.25
11628,25.53
11640,22.25
11652,18.44
11664,14.34
11676,10.28
11688,6.54
11700,3.25
11712,0.29
11724,-2.57
11736,-5.56
11748,-8.81
11759,-12.32
11770,-16.08
11782,-20.02
11794,-23.93
11806,-27.39
11818,-29.73
11830,-30.25
11842,-28.46
11854,-24.34
11866,-18.4
11878,-11.46
11890,-4.35
11902,2.34
11914,8.34
11926,13.55
11938,17.89
11949,21.18
11960,23.23
11972,23.92
11984,23.33
11996,21.78
12008,19.66
12020,17.35
12032,15.11
12044,13.1
12056,11.39
12068,10.07
12080,9.24
12092,8.94
12104,9.09
12116,9.54
12128,10.03
12139,10.39
12150,10.56
12162,10.62
12174,10.73
12186,10.95
12198,11.23
12210,11.39
12222,11.2
12234,10.56
12246,9.49
12258,8.14
12270,6.7
12282,5.25
12294,3.8
12306,2.2
12318,0.34
12329,-1.89
12340,-4.49
12352,-7.32
12364,-10.17
12376,-12.72
12388,-14.6
12400,-15.47
12412,-15.07
12424,-13.34
12436,-10.38
12448,-6.48
12460,-1.98
12472,2.81
12484,7.63
12496,12.28
12508,16.53
12519,20.11
12530,22.73
12542,24.21
12554,24.55
12566,23.97
12578,22.84
12590,21.53
12602,20.32
12614,19.34
12626,18.6
12638,18.07
12650,17.69
12662,17.4
12674,17.18
12686,17.0
12698,16.84
12709,16.65
12720,16.33
12732,15.76
12744,14.76
12756,13.28
12768,11.33
12780,9.08
12792,6.75
12804,4.55
12816,2.55
12828,0.71
12840,-1.07
12852,-2.88
12864,-4.77
12876,-6.78
12888,-8.94
12899,-11.22
12910,-13.55
12922,-15.73
12934,-17.44
12946,-18.36
12958,-18.21
12970,-16.88
12982,-14.46
12994,-11.23
13006,-7.52
13018,-3.73
13030,-0.14
13042,3.07
13054,5.79
13066,7.96
13078,9.51
13089,10.35
13100,10.43
13112,9.73
13124,8.48
13136,7.0
13148,5.71
13160,4.94
13172,4.77
13184,5.03
13196,5.38
13208,5.51
13220,5.28
13232,4.76
13244,4.13
13256,3.59
13268,3.19
13279,2.88
13290,2.5
13302,1.89
13314,0.97
13326,-0.27
13338,-1.79
13350,-3.51
13362,-5.34
13374,-7.2
13386,-9.03
13398,-10.85
13410,-12.72
13422,-14.79
13434,-17.18
13446,-19.98
13458,-23.17
13469,-26.55
13480,-29.77
13492,-32.3
13504,-33.6
13516,-33.18
13528,-30.8
13540,-26.53
13552,-20.73
13564,-13.97
13576,-6.88
13588,-0.04
13600,6.09
13612,11.19
13624,15.07
13636,17.71
13648,19.17
13659,19.67
13670,19.45
13682,18.76
13694,17.77
13706,16.58
13718,15.24
13730,13.79
13742,12.32
13754,10.95
13766,9.84
13778,9.15
13790,8.92
13802,9.08
13814,9.44
13826,9.71
13838,9.63
13849,9.04
13860,7.99
13872,6.65
13884,5.24
13896,3.93
13908,2.77
13920,1.66
13932,0.44
13944,-1.08
13956,-2.99
13968,-5.26
13980,-7.76
13992,-10.28
14004,-12.61
14016,-14.61
14028,-16.3
14039,-17.8
14050,-19.38
14062,-21.3
14074,-23.67
14086,-26.45
14098,-29.24
14110,-31.46
14122,-32.45
14134,-31.64
14146,-28.77
14158,-23.95
14170,-17.66
14182,-10.61
14194,-3.57
14206,2.81
14218,8.15
14229,12.29
14240,15.25
14252,17.15
14264,18.13
14276,18.33
14288,17.89
14300,16.98
14312,15.81
14324,14.57
14336,13.43
14348,12.48
14360,11.76
14372,11.25
14384,10.88
14396,10.6
14408,10.39
14419,10.24
14430,10.2
14442,10.25
14454,10.37
14466,10.43
14478,10.26
14490,9.69
14502,8.6
14514,7.04
14526,5.16
14538,3.22
14550,1.47
14562,0.04
14574,-1.1
14586,-2.06
14598,-3.07
14609,-4.3
14620,-5.87
14632,-7.75
14644,-9.81
14656,-11.87
14668,-13.76
14680,-15.36
14692,-16.67
14704,-17.8
14716,-18.9
14728,-20.19
14740,-21.81
14752,-23.82
14764,-26.08
14776,-28.21
14788,-29.68
14799,-29.96
14810,-28.61
14822,-25.45
14834,-20.65
14846,-14.69
14858,-8.21
14870,-1.83
14882,3.92
14894,8.74
14906,12.55
14918,15.34
14930,17.18
14942,18.15
14954,18.35
14966,17.9
14978,16.96
14989,15.72
15000,14.35
15012,13.03
15024,11.85
15036,10.87
15048,10.06
15060,9.39
15072,8.81
15084,8.33
15096,8.03
15108,8.0
15120,8.32
15132,8.95
15144,9.73
15156,10.38
15168,10.61
15179,10.26
15190,9.35
15202,8.07
15214,6.65
15226,5.3
15238,4.07
15250,2.89
15262,1.65
15274,0.27
15286,-1.21
15298,-2.65
15310,-3.92
15322,-5.01
15334,-6.04
15346,-7.2
15358,-8.63
15369,-10.31
15380,-12.08
15392,-13.67
15404,-14.93
15416,-15.87
15428,-16.7
15440,-17.76
15452,-19.24
15464,-21.15
15476,-23.15
15488,-24.66
15500,-25.04
15512,-23.82
15524,-20.86
15536,-16.42
15548,-11.07
15559,-5.49
15570,-0.25
15582,4.29
15594,8.0
15606,10.91
15618,13.05
15630,14.45
15642,15.09
15654,14.99
15666,14.26
15678,13.1
15690,11.74
15702,10.4
15714,9.26
15726,8.37
15738,7.74
15749,7.3
15760,7.01
15772,6.82
15784,6.74
15796,6.83
15808,7.11
15820,7.58
15832,8.12
15844,8.56
15856,8.73
15868,8.52
15880,7.92
15892,6.97
15904,5.77
15916,4.41
15928,2.93
15939,1.39
15950,-0.15
15962,-1.6
15974,-2.89
15986,-4.04
15998,-5.17
16010,-6.44
16022,-7.95
16034,-9.66
16046,-11.42
16058,-13.0
16070,-14.25
16082,-15.11
16094,-15.72
16106,-16.3
16118,-17.06
16129,-18.15
16140,-19.57
16152,-21.18
16164,-22.74
16176,-23.95
16188,-24.54
16200,-24.23
16212,-22.87
16224,-20.41
16236,-16.94
16248,-12.69
16260,-7.98
16272,-3.21
16284,1.23
16296,5.03
16308,8.01
16319,10.1
16330,11.37
16342,11.92
16354,11.84
16366,11.21
16378,10.09
16390,8.6
16402,6.94
16414,5.37
16426,4.14
16438,3.45
16450,3.35
16462,3.74
16474,4.37
16486,4.96
16498,5.3
16509,5.29
16520,4.97
16532,4.46
16544,3.91
16556,3.4
16568,2.97
16580,2.58
16592,2.17
16604,1.68
16616,1.08
16628,0.37
16640,-0.46
16652,-1.4
16664,-2.43
16676,-3.54
16688,-4.67
16699,-5.75
16710,-6.67
16722,-7.39
16734,-7.96
16746,-8.5
16758,-9.16
16770,-10.09
16782,-11.29
16794,-12.62
16806,-13.89
16818,-14.99
16830,-15.95
16842,-16.87
16854,-17.84
16866,-18.77
16878,-19.37
16889,-19.19
16900,-17.89
16912,-15.39
16924,-11.9
16936,-7.86
16948,-3.73
16960,0.12
16972,3.52
16984,6.45
16996,8.9
17008,10.84
17020,12.2
17032,12.87
17044,12.82
17056,12.09
17068,10.82
17079,9.2
17090,7.48
17102,5.9
17114,4.63
17126,3.76
17138,3.31
17150,3.2
17162,3.32
17174,3.58
17186,3.9
17198,4.23
17210,4.54
17222,4.83
17234,5.07
17246,5.22
17258,5.2
17269,4.95
17280,4.43
17292,3.69
17304,2.82
17316,1.96
17328,1.23
17340,0.59
17352,-0.1
17364,-1.02
17376,-2.32
17388,-3.98
17400,-5.79
17412,-7.46
17424,-8.77
17436,-9.66
17448,-10.29
17459,-10.92
17470,-11.83
17482,-13.13
17494,-14.78
17506,-16.58
17518,-18.18
17530,-19.24
17542,-19.48
17554,-18.79
17566,-17.19
17578,-14.84
17590,-11.94
17602,-8.66
17614,-5.11
17626,-1.39
17638,2.35
17649,5.83
17660,8.69
17672,10.55
17684,11.24
17696,10.84
17708,9.68
17720,8.21
17732,6.82
17744,5.72
17756,4.91
17768,4.29
17780,3.81
17792,3.48
17804,3.36
17816,3.48
17828,3.76
17839,4.03
17850,4.1
17862,3.86
17874,3.39
17886,2.85
17898,2.45
17910,2.29
17922,2.31
17934,2.38
17946,2.31
17958,2.0
17970,1.42
17982,0.55
17994,-0.59
18006,-1.97
18018,-3.55
18029,-5.17
18040,-6.61
18052,-7.68
18064,-8.3
18076,-8.58
18088,-8.76
18100,-9.14
18112,-9.96
18124,-11.32
18136,-13.09
18148,-15.03
18160,-16.76
18172,-17.89
18184,-18.1
18196,-17.16
18208,-15.08
18219,-12.04
18230,-8.41
18242,-4.59
18254,-0.99
18266,2.12
18278,4.54
18290,6.16
18302,6.89
18314,6.68
18326,5.58
18338,3.78
18350,1.57
18362,-0.68
18374,-2.64
18386,-4.11
18398,-5.13
18409,-5.89
18420,-6.66
18432,-7.65
18444,-8.87
18456,-10.17
18468,-11.34
18480,-12.21
18492,-12.8
18504,-13.19
18516,-13.52
18528,-13.93
18540,-14.52
18552,-15.44
18564,-16.83
18576,-18.71
18588,-20.88
18599,-22.79
18610,-23.68
18622,-22.8
18634,-19.75
18646,-14.69
18658,-8.26
18670,-1.34
18682,5.27
18694,11.06
18706,15.81
18718,19.5
18730,22.11
18742,23.61
18754,24.05
18766,23.65
18778,22.87
18789,22.27
18800,22.34
18812,23.3
18824,25.0
18836,27.0
18848,28.74
18860,29.73
18872,29.69
18884,28.61
18896,26.67
18908,24.15
18920,21.32
18932,18.37
18944,15.39
18956,12.42
18968,9.51
18979,6.75
18990,4.3
19002,2.3
19014,0.88
19026,0.04
19038,-0.28
19050,-0.25
19062,-0.06
19074,0.14
19086,0.22
19098,0.13
19110,-0.1
19122,-0.41
19134,-0.69
19146,-0.86
19158,-0.9
19169,-0.87
19180,-0.9
19192,-1.12
19204,-1.64
19216,-2.5
19228,-3.61
19240,-4.84
19252,-6.03
19264,-7.04
19276,-7.87
19288,-8.57
19300,-9.31
19312,-10.24
19324,-11.49
19336,-13.06
19348,-14.82
19359,-16.56
19370,-17.92
19382,-18.57
19394,-18.17
19406,-16.57
19418,-13.77
19430,-10.03
19442,-5.82
19454,-1.69
19466,1.88
19478,4.54
19490,6.16
19502,6.82
19514,6.68
19526,5.96
19538,4.84
19549,3.48
19560,2.02
19572,0.56
19584,-0.78
19596,-1.88
19608,-2.7
19620,-3.22
19632,-3.47
19644,-3.47
19656,-3.2
19668,-2.72
19680,-2.11
19692,-1.59
19704,-1.42
19716,-1.77
19728,-2.65
19739,-3.86
19750,-5.02
19762,-5.77
19774,-5.93
19786,-5.55
19798,-4.91
19810,-4.32
19822,-4.02
19834,-4.09
19846,-4.45
19858,-4.92
19870,-5.41
19882,-5.88
19894,-6.41
19906,-7.2
19918,-8.42
19929,-10.17
19940,-12.44
19952,-15.03
19964,-17.64
19976,-19.9
19988,-21.44
20000,-21.93
20012,-21.17
20024,-19.05
20036,-15.65
20048,-11.18
20060,-5.99
20072,-0.56
20084,4.62
20096,9.15
20108,12.76
20119,15.34
20130,16.91
20142,17.54
20154,17.3
20166,16.32
20178,14.82
20190,13.09
20202,11.5
20214,10.37
20226,9.87
20238,9.95
20250,10.38
20262,10.84
20274,11.08
20286,11.02
20298,10.75
20309,10.46
20320,10.3
20332,10.3
20344,10.31
20356,10.15
20368,9.61
20380,8.65
20392,7.34
20404,5.84
20416,4.33
20428,2.87
20440,1.44
20452,-0.06
20464,-1.72
20476,-3.5
20488,-5.29
20499,-6.95
20510,-8.39
20522,-9.67
20534,-10.93
20546,-12.36
20558,-14.07
20570,-16.08
20582,-18.34
20594,-20.7
20606,-23.02
20618,-25.04
20630,-26.43
20642,-26.77
20654,-25.67
20666,-22.91
20678,-18.63
20689,-13.3
20700,-7.56
20712,-2.04
20724,2.88
20736,7.01
20748,10.33
20760,12.79
20772,14.3
20784,14.79
20796,14.32
20808,13.16
20820,11.7
20832,10.38
20844,9.44
20856,8.94
20868,8.73
20879,8.64
20890,8.59
20902,8.61
20914,8.8
20926,9.29
20938,10.11
20950,11.18
20962,12.32
20974,13.29
20986,13.85
20998,13.8
