seconds,BVP
4,-67.89
16,-76.03
28,-82.42
40,-86.28
52,-86.07
64,-80.36
76,-68.86
88,-52.7
100,-34.1
111,-15.8
122,-0.06
134,11.93
146,18.11
158,18.22
170,14.47
182,10.03
194,7.44
206,8.08
218,12.04
230,18.51
242,26.03
254,33.0
266,38.44
278,41.79
290,42.44
301,39.69
312,33.17
324,23.15
336,10.95
348,-1.09
360,-10.34
372,-14.63
384,-13.38
396,-8.28
408,-2.2
420,2.27
432,3.9
444,3.16
456,1.68
468,1.23
480,3.17
491,8.07
502,15.25
514,23.39
526,30.81
538,35.66
550,36.42
562,32.5
574,24.65
586,14.57
598,5.21
610,-1.96
622,-7.27
634,-12.21
646,-18.13
658,-25.01
670,-30.99
681,-33.2
692,-29.78
704,-19.96
716,-5.86
728,8.59
740,19.16
752,22.68
764,18.04
776,6.26
788,-10.14
800,-27.96
812,-43.3
824,-53.52
836,-57.15
848,-53.81
860,-44.32
871,-30.71
882,-15.79
894,-2.41
906,7.5
918,13.38
930,16.08
942,16.96
954,17.46
966,18.59
978,20.85
990,24.4
1002,29.06
1014,34.41
1026,39.59
1038,43.24
1050,44.07
1061,41.47
1072,35.75
1084,28.1
1096,20.15
1108,13.47
1120,9.27
1132,8.09
1144,9.88
1156,13.92
1168,18.92
1180,23.12
1192,24.75
1204,22.43
1216,15.42
1228,3.87
1240,-11.77
1251,-30.77
1262,-52.31
1274,-75.3
1286,-98.02
1298,-118.17
1310,-133.19
1322,-140.96
1334,-140.49
1346,-132.37
1358,-118.3
1370,-100.47
1382,-81.16
1394,-62.52
1406,-46.3
1418,-33.42
1430,-23.61
1441,-15.32
1452,-6.41
1464,5.91
1476,24.49
1488,51.02
1500,84.94
1512,122.91
1524,158.85
1536,184.76
1548,192.64
1560,176.94
1572,138.48
1584,85.09
1596,28.77
1608,-19.02
1620,-51.29
1631,-66.58
1642,-67.37
1654,-57.48
1666,-41.1
1678,-21.53
1690,-2.45
1702,10.94
1714,13.07
1726,1.48
1738,-20.02
1750,-41.19
1762,-46.98
1774,-29.83
1786,4.65
1798,43.15
1810,73.39
1821,88.76
1832,88.33
1844,74.89
1856,52.48
1868,27.12
1880,-0.05
1892,-26.21
1904,-46.77
1916,-57.88
1928,-58.83
1940,-52.79
1952,-45.31
1964,-41.81
1976,-45.26
1988,-55.2
2000,-67.18
2011,-73.93
2022,-68.93
2034,-49.73
2046,-19.09
2058,16.41
2070,49.27
2082,74.2
2094,89.07
2106,95.55
2118,97.22
2130,97.04
2142,95.89
2154,92.82
2166,86.3
2178,75.71
2190,62.03
2201,47.15
2212,33.09
2224,20.83
2236,9.7
2248,-1.9
2260,-14.97
2272,-28.94
2284,-41.38
2296,-48.93
2308,-49.34
2320,-42.74
2332,-31.85
2344,-20.75
2356,-12.86
2368,-9.54
2380,-9.65
2391,-12.32
2402,-17.2
2414,-24.05
2426,-32.4
2438,-41.61
2450,-51.03
2462,-60.04
2474,-68.4
2486,-76.54
2498,-84.2
2510,-88.99
2522,-86.21
2534,-70.78
2546,-40.31
2558,2.06
2570,47.6
2581,86.99
2592,111.25
2604,115.83
2616,102.44
2628,77.63
2640,49.29
2652,23.26
2664,1.48
2676,-16.67
2688,-32.43
2700,-46.28
2712,-57.2
2724,-63.46
2736,-64.29
2748,-60.96
2760,-54.56
2771,-48.22
2782,-44.56
2794,-44.55
2806,-47.6
2818,-51.79
2830,-54.81
2842,-54.85
2854,-51.15
2866,-43.8
2878,-33.61
2890,-21.25
2902,-7.38
2914,6.99
2926,20.4
2938,31.07
2950,37.6
2961,39.63
2972,38.24
2984,35.28
2996,32.69
3008,31.46
3020,31.17
3032,30.58
3044,28.41
3056,23.96
3068,17.07
3080,7.88
3092,-3.61
3104,-17.14
3116,-31.7
3128,-45.41
3140,-55.87
3151,-61.08
3162,-60.36
3174,-54.64
3186,-45.91
3198,-36.17
3210,-26.42
3222,-16.47
3234,-5.67
3246,6.21
3258,18.27
3270,28.56
3282,34.68
3294,34.83
3306,28.41
3318,16.23
3330,0.03
3341,-18.34
3352,-37.67
3364,-57.59
3376,-78.05
3388,-98.45
3400,-116.83
3412,-129.86
3424,-133.62
3436,-125.12
3448,-103.66
3460,-71.61
3472,-33.89
3484,3.49
3496,35.46
3508,59.38
3520,75.6
3531,86.64
3542,95.43
3554,103.59
3566,110.12
3578,111.51
3590,103.21
3602,81.57
3614,45.71
3626,-1.74
3638,-55.36
3650,-108.6
3662,-155.48
3674,-191.66
3686,-214.52
3698,-222.82
3710,-216.33
3721,-195.72
3732,-162.78
3744,-120.54
3756,-72.94
3768,-24.12
3780,22.37
3792,64.19
3804,100.11
3816,129.6
3828,152.26
3840,167.52
3852,174.72
3864,173.49
3876,164.32
3888,148.63
3900,128.81
3911,107.75
3922,88.22
3934,72.47
3946,61.95
3958,57.16
3970,57.59
3982,61.6
3994,66.55
4006,69.48
4018,68.12
4030,62.08
4042,53.29
4054,45.47
4066,42.66
4078,47.37
4090,59.48
4101,76.09
4112,92.63
4124,104.53
4136,108.41
4148,102.7
4160,87.48
4172,64.21
4184,35.48
4196,4.98
4208,-22.88
4220,-43.61
4232,-53.88
4244,-52.63
4256,-41.58
4268,-24.66
4280,-6.68
4291,8.38
4302,18.55
4314,24.09
4326,26.78
4338,28.69
4350,31.16
4362,34.46
4374,37.98
4386,40.86
4398,42.47
4410,42.66
4422,41.55
4434,39.35
4446,36.1
4458,31.7
4470,26.1
4481,19.46
4492,12.29
4504,5.23
4516,-1.1
4528,-6.41
4540,-10.72
4552,-14.25
4564,-17.12
4576,-19.13
4588,-19.9
4600,-19.11
4612,-16.66
4624,-12.78
4636,-7.93
4648,-2.66
4660,2.6
4671,7.54
4682,12.07
4694,16.13
4706,19.66
4718,22.63
4730,25.09
4742,27.1
4754,28.7
4766,29.82
4778,30.32
4790,30.2
4802,29.46
4814,28.11
4826,26.26
4838,24.2
4850,22.24
4861,20.64
4872,19.46
4884,18.54
4896,17.96
4908,17.46
4920,16.5
4932,14.5
4944,11.29
4956,7.13
4968,2.5
4980,-2.06
4992,-6.12
5004,-8.62
5016,-9.19
5028,-8.36
5040,-7.06
5051,-5.89
5062,-4.99
5074,-4.21
5086,-3.28
5098,-1.81
5110,1.95
5122,8.82
5134,18.12
5146,28.13
5158,37.18
5170,44.03
5182,47.98
5194,48.94
5206,47.45
5218,45.99
5230,45.9
5241,46.59
5252,46.51
5264,44.75
5276,41.56
5288,37.85
5300,34.63
5312,21.75
5324,-2.93
5336,-33.3
5348,-61.11
5360,-82.69
5372,-98.17
5384,-108.52
5396,-114.28
5408,-115.69
5420,-113.29
5431,-106.57
5442,-97.33
5454,-88.15
5466,-81.64
5478,-78.55
5490,-77.68
5502,-76.96
5514,-74.55
5526,-69.6
5538,-61.22
5550,-50.55
5562,-40.28
5574,-32.63
5586,-28.48
5598,-27.2
5610,-27.51
5621,-28.24
5632,-28.75
5644,-28.13
5656,-26.86
5668,-26.14
5680,-26.45
5692,-26.77
5704,-25.34
5716,-20.84
5728,-12.85
5740,-2.04
5752,10.65
5764,23.2
5776,33.14
5788,38.46
5800,37.93
5811,30.19
5822,14.12
5834,-9.97
5846,-39.61
5858,-65.0
5870,-74.82
5882,-65.06
5894,-40.86
5906,-11.51
5918,14.55
5930,33.24
5942,45.5
5954,54.94
5966,64.74
5978,74.41
5990,79.98
6001,76.87
6012,62.78
6024,39.69
6036,10.97
6048,-18.03
6060,-42.1
6072,-57.61
6084,-63.87
6096,-62.59
6108,-56.35
6120,-45.55
6132,-33.98
6144,-24.81
6156,-18.96
6168,-15.63
6180,-13.15
6191,-10.5
6202,-7.58
6214,-4.73
6226,-2.11
6238,0.2
6250,2.81
6262,6.54
6274,11.67
6286,17.55
6298,22.69
6310,25.56
6322,25.61
6334,23.12
6346,19.15
6358,15.48
6370,13.71
6381,14.45
6392,17.2
6404,20.53
6416,22.88
6428,23.2
6440,21.33
6452,17.82
6464,13.75
6476,10.25
6488,7.98
6500,7.0
6512,6.94
6524,7.39
6536,8.04
6548,8.79
6560,9.63
6571,10.65
6582,11.85
6594,13.0
6606,14.06
6618,14.63
6630,14.39
6642,13.14
6654,10.85
6666,7.67
6678,3.89
6690,-0.17
6702,-4.14
6714,-7.65
6726,-10.36
6738,-11.85
6750,-11.78
6761,-10.0
6772,-6.61
6784,-1.94
6796,3.48
6808,9.11
6820,14.41
6832,18.95
6844,22.4
6856,24.62
6868,25.58
6880,25.35
6892,24.11
6904,22.04
6916,19.34
6928,16.2
6940,12.76
6951,9.19
6962,5.59
6974,1.99
6986,-1.62
6998,-5.32
7010,-9.21
7022,-13.42
7034,-18.05
7046,-23.15
7058,-28.65
7070,-34.19
7082,-39.17
7094,-42.79
7106,-44.38
7118,-43.62
7130,-40.78
7141,-36.68
7152,-32.43
7164,-29.1
7176,-27.26
7188,-26.76
7200,-26.71
7212,-25.78
7224,-22.77
7236,-17.08
7248,-9.06
7260,0.09
7272,8.86
7284,15.93
7296,20.64
7308,23.0
7320,23.51
7331,22.75
7342,21.16
7354,19.04
7366,16.64
7378,14.24
7390,12.1
7402,10.34
7414,8.84
7426,7.33
7438,5.56
7450,3.49
7462,1.27
7474,-0.86
7486,-2.75
7498,-4.41
7510,-5.95
7521,-7.51
7532,-9.16
7544,-10.96
7556,-12.99
7568,-15.33
7580,-18.01
7592,-20.84
7604,-23.39
7616,-25.08
7628,-25.37
7640,-24.04
7652,-21.25
7664,-17.39
7676,-12.93
7688,-8.11
7700,-2.86
7711,3.13
7722,10.23
7734,18.68
7746,28.51
7758,39.45
7770,51.07
7782,62.84
7794,74.29
7806,85.11
7818,95.22
7830,104.75
7842,113.78
7854,122.1
7866,128.87
7878,132.66
7890,131.67
7901,124.35
7912,110.05
7924,89.48
7936,64.66
7948,38.45
7960,13.66
7972,-7.65
7984,-24.61
7996,-37.3
8008,-46.39
8020,-52.57
8032,-56.38
8044,-58.31
8056,-58.92
8068,-59.0
8080,-59.35
8091,-60.54
8102,-62.68
8114,-65.47
8126,-68.49
8138,-71.62
8150,-75.28
8162,-80.3
8174,-87.61
8186,-97.86
8198,-111.05
8210,-126.3
8222,-141.85
8234,-155.15
8246,-163.31
8258,-163.71
8270,-154.85
8281,-136.88
8292,-111.82
8304,-83.0
8316,-54.17
8328,-28.52
8340,-8.01
8352,6.79
8364,16.39
8376,21.87
8388,24.44
8400,25.12
8412,24.68
8424,23.65
8436,22.24
8448,20.38
8460,17.74
8471,13.89
8482,8.6
8494,2.12
8506,-4.53
8518,-9.81
8530,-12.0
8542,-9.92
8554,-3.38
8566,6.67
8578,18.48
8590,30.06
8602,39.85
8614,47.02
8626,51.49
8638,53.76
8650,54.62
8661,54.92
8672,55.42
8684,56.67
8696,58.92
8708,62.07
8720,65.74
8732,69.42
8744,72.56
8756,74.71
8768,75.53
8780,74.81
8792,72.54
8804,68.96
8816,64.63
8828,60.36
8840,57.09
8851,55.57
8862,56.13
8874,58.44
8886,61.53
8898,63.92
8910,64.08
8922,60.85
8934,53.8
8946,43.23
8958,29.97
8970,15.02
8982,-0.78
8994,-16.84
9006,-32.77
9018,-48.17
9030,-62.55
9041,-75.43
9052,-86.42
9064,-95.4
9076,-102.56
9088,-108.32
9100,-113.06
9112,-117.06
9124,-120.31
9136,-122.64
9148,-123.81
9160,-123.61
9172,-121.88
9184,-118.44
9196,-112.95
9208,-104.96
9220,-94.09
9231,-80.22
9242,-63.8
9254,-45.8
9266,-27.54
9278,-10.3
9290,4.98
9302,17.84
9314,28.23
9326,36.29
9338,42.24
9350,46.37
9362,49.0
9374,50.57
9386,51.47
9398,51.97
9410,52.09
9421,51.64
9432,50.33
9444,47.94
9456,44.44
9468,40.05
9480,35.13
9492,30.09
9504,25.23
9516,20.71
9528,16.48
9540,12.35
9552,8.12
9564,3.64
9576,-1.09
9588,-5.91
9600,-10.58
9611,-14.87
9622,-18.62
9634,-21.79
9646,-24.46
9658,-26.81
9670,-29.1
9682,-31.63
9694,-34.57
9706,-37.87
9718,-41.11
9730,-43.56
9742,-44.28
9754,-42.56
9766,-38.14
9778,-31.39
9790,-23.23
9801,-14.84
9812,-7.29
9824,-1.31
9836,2.86
9848,5.35
9860,6.56
9872,6.92
9884,6.85
9896,6.65
9908,6.52
9920,6.55
9932,6.74
9944,7.08
9956,7.54
9968,8.17
9980,8.99
9991,10.03
10002,11.25
10014,12.6
10026,13.97
10038,15.32
10050,16.64
10062,17.9
10074,19.03
10086,19.85
10098,20.13
10110,19.63
10122,18.26
10134,16.09
10146,13.31
10158,10.26
10170,7.24
10181,4.51
10192,2.22
10204,0.4
10216,-1.03
10228,-2.19
10240,-3.17
10252,-4.03
10264,-4.78
10276,-5.4
10288,-5.94
10300,-6.48
10312,-7.11
10324,-7.91
10336,-8.91
10348,-10.06
10360,-11.3
10371,-12.54
10382,-13.69
10394,-14.64
10406,-15.32
10418,-15.69
10430,-15.83
10442,-15.88
10454,-16.08
10466,-16.64
10478,-17.68
10490,-19.17
10502,-20.85
10514,-22.25
10526,-22.79
10538,-21.95
10550,-19.45
10561,-15.4
10572,-10.28
10584,-4.82
10596,0.32
10608,4.65
10620,8.0
10632,10.42
10644,12.05
10656,13.03
10668,13.45
10680,13.51
10692,13.4
10704,13.35
10716,13.49
10728,13.83
10740,14.28
10751,14.72
10762,15.11
10774,15.48
10786,15.94
10798,16.61
10810,17.54
10822,18.67
10834,19.87
10846,21.0
10858,21.9
10870,22.48
10882,22.69
10894,22.51
10906,21.93
10918,20.97
10930,19.7
10941,18.23
10952,16.68
10964,15.21
10976,13.9
10988,12.76
11000,11.75
11012,10.82
11024,9.94
11036,9.18
11048,8.63
11060,8.36
11072,8.35
11084,8.46
11096,8.51
11108,8.28
11120,7.62
11131,6.54
11142,5.16
11154,3.69
11166,2.31
11178,1.14
11190,0.12
11202,-0.89
11214,-2.05
11226,-3.45
11238,-5.08
11250,-6.84
11262,-8.58
11274,-10.21
11286,-11.69
11298,-13.11
11310,-14.59
11321,-16.29
11332,-18.36
11344,-20.84
11356,-23.58
11368,-26.19
11380,-28.12
11392,-28.76
11404,-27.62
11416,-24.53
11428,-19.69
11440,-13.64
11452,-7.09
11464,-0.8
11476,4.66
11488,8.91
11500,11.81
11511,13.45
11522,14.1
11534,14.15
11546,13.98
11558,13.89
11570,14.0
11582,14.26
11594,14.56
11606,14.8
11618,15.01
11630,15.32
11642,15.83
11654,16.54
11666,17.3
11678,17.88
11690,18.13
11701,18.05
11712,17.82
11724,17.65
11736,17.69
11748,17.92
11760,18.18
11772,18.23
11784,17.94
11796,17.33
11808,16.5
11820,15.59
11832,14.7
11844,13.84
11856,12.97
11868,12.1
11880,11.27
11891,10.53
11902,9.91
11914,9.36
11926,8.79
11938,8.15
11950,7.42
11962,6.71
11974,6.14
11986,5.78
11998,5.58
12010,5.41
12022,5.07
12034,4.46
12046,3.58
12058,2.52
12070,1.38
12081,0.27
12092,-0.79
12104,-1.82
12116,-2.88
12128,-4.02
12140,-5.27
12152,-6.57
12164,-7.79
12176,-8.76
12188,-9.35
12200,-9.55
12212,-9.51
12224,-9.54
12236,-10.0
12248,-11.28
12260,-13.7
12271,-17.54
12282,-22.91
12294,-29.61
12306,-36.99
12318,-43.91
12330,-49.11
12342,-51.59
12354,-51.09
12366,-48.22
12378,-44.26
12390,-40.66
12402,-38.59
12414,-38.63
12426,-40.79
12438,-44.6
12450,-49.37
12461,-54.23
12472,-58.22
12484,-60.47
12496,-60.36
12508,-57.64
12520,-52.53
12532,-45.55
12544,-37.38
12556,-28.66
12568,-19.95
12580,-11.61
12592,-3.76
12604,3.81
12616,11.67
12628,20.54
12640,31.0
12651,43.17
12662,56.51
12674,70.05
12686,82.68
12698,93.51
12710,102.09
12722,108.34
12734,112.38
12746,114.38
12758,114.48
12770,112.79
12782,109.55
12794,105.1
12806,99.87
12818,94.25
12830,88.55
12841,83.07
12852,78.02
12864,73.48
12876,69.42
12888,65.72
12900,62.18
12912,58.53
12924,54.49
12936,49.86
12948,44.63
12960,38.9
12972,32.75
12984,26.14
12996,18.98
13008,11.19
13020,2.66
13031,-6.61
13042,-16.47
13054,-26.27
13066,-35.16
13078,-42.33
13090,-47.19
13102,-49.45
13114,-49.18
13126,-46.89
13138,-43.45
13150,-39.84
13162,-36.62
13174,-34.01
13186,-31.89
13198,-29.96
13210,-27.67
13221,-24.47
13232,-20.03
13244,-14.4
13256,-9.8
13268,-7.98
13280,-9.32
13292,-12.78
13304,-17.11
13316,-21.52
13328,-25.64
13340,-29.16
13352,-31.73
13364,-33.2
13376,-33.19
13388,-31.47
13400,-28.43
13411,-25.07
13422,-22.54
13434,-21.66
13446,-22.63
13458,-25.07
13470,-27.65
13482,-28.88
13494,-27.8
13506,-24.42
13518,-19.67
13530,-14.8
13542,-10.79
13554,-8.17
13566,-7.01
13578,-7.27
13590,-8.87
13601,-11.84
13612,-16.19
13624,-21.67
13636,-27.65
13648,-33.17
13660,-37.39
13672,-39.86
13684,-40.65
13696,-40.16
13708,-38.75
13720,-36.64
13732,-33.76
13744,-30.01
13756,-25.43
13768,-20.43
13780,-15.77
13791,-12.29
13802,-10.57
13814,-10.65
13826,-12.0
13838,-13.64
13850,-14.47
13862,-13.63
13874,-10.74
13886,-6.01
13898,-0.08
13910,6.2
13922,12.08
13934,17.07
13946,21.03
13958,24.01
13970,26.19
13981,27.72
13992,28.73
14004,29.39
14016,29.91
14028,30.58
14040,31.64
14052,33.21
14064,35.25
14076,37.6
14088,40.04
14100,42.4
14112,44.56
14124,46.4
14136,47.79
14148,48.63
14160,48.92
14171,48.78
14182,48.4
14194,47.94
14206,47.35
14218,46.4
14230,44.77
14242,42.35
14254,39.35
14266,36.3
14278,33.77
14290,32.06
14302,31.0
14314,30.02
14326,28.36
14338,25.42
14350,21.04
14361,15.4
14372,9.01
14384,2.42
14396,-4.02
14408,-10.2
14420,-16.23
14432,-22.33
14444,-28.65
14456,-35.14
14468,-41.59
14480,-47.67
14492,-53.11
14504,-57.76
14516,-61.63
14528,-64.77
14540,-67.22
14551,-68.95
14562,-69.91
14574,-70.15
14586,-69.81
14598,-69.05
14610,-67.96
14622,-66.4
14634,-63.97
14646,-60.11
14658,-54.37
14670,-46.56
14682,-37.04
14694,-26.39
14706,-15.29
14718,-4.49
14730,5.38
14741,13.8
14752,20.48
14764,25.26
14776,28.26
14788,29.57
14800,29.72
14812,29.57
14824,29.82
14836,30.66
14848,31.68
14860,32.1
14872,31.11
14884,28.59
14896,24.48
14908,20.26
14920,17.9
14931,18.42
14942,21.47
14954,25.91
14966,30.62
14978,34.33
14990,35.37
15002,31.6
15014,21.05
15026,3.68
15038,-18.06
15050,-39.62
15062,-55.82
15074,-62.68
15086,-59.32
15098,-44.26
15110,-21.82
15121,1.27
15132,19.77
15144,32.01
15156,39.28
15168,43.64
15180,47.59
15192,51.07
15204,52.91
15216,51.68
15228,47.21
15240,40.53
15252,32.9
15264,25.17
15276,16.97
15288,8.67
15300,0.78
15311,-6.83
15322,-15.24
15334,-25.4
15346,-37.54
15358,-51.28
15370,-65.84
15382,-80.18
15394,-92.97
15406,-99.32
15418,-95.9
15430,-83.56
15442,-66.55
15454,-49.02
15466,-32.81
15478,-17.95
15490,-4.16
15501,8.61
15512,19.93
15524,28.92
15536,35.06
15548,38.8
15560,41.36
15572,43.78
15584,46.85
15596,49.82
15608,51.84
15620,52.31
15632,50.8
15644,47.22
15656,41.97
15668,36.02
15680,30.51
15691,26.31
15702,23.7
15714,22.52
15726,22.28
15738,21.98
15750,20.6
15762,17.08
15774,11.44
15786,4.47
15798,-2.58
15810,-8.64
15822,-12.98
15834,-15.32
15846,-15.93
15858,-15.54
15870,-15.39
15881,-16.38
15892,-18.76
15904,-22.13
15916,-25.85
15928,-29.32
15940,-32.06
15952,-33.85
15964,-32.44
15976,-27.24
15988,-19.65
16000,-12.13
16012,-6.25
16024,-2.29
16036,0.14
16048,0.93
16060,0.74
16071,0.02
16082,-1.35
16094,-3.41
16106,-6.0
16118,-8.77
16130,-10.66
16142,-11.37
16154,-11.02
16166,-9.78
16178,-7.84
16190,-5.64
16202,-3.38
16214,-1.05
16226,1.81
16238,5.52
16250,10.05
16261,15.03
16272,19.91
16284,24.07
16296,26.7
16308,27.2
16320,25.0
16332,20.36
16344,14.14
16356,7.46
16368,1.12
16380,-5.35
16392,-12.13
16404,-19.37
16416,-27.09
16428,-35.81
16440,-44.21
16451,-51.32
16462,-56.31
16474,-58.65
16486,-58.14
16498,-54.69
16510,-48.51
16522,-37.44
16534,-21.88
16546,-4.17
16558,12.36
16570,25.48
16582,34.61
16594,40.34
16606,43.85
16618,46.11
16630,47.62
16641,48.03
16652,47.92
16664,46.87
16676,44.73
16688,41.59
16700,37.68
16712,33.19
16724,28.11
16736,22.35
16748,15.66
16760,8.22
16772,0.3
16784,-7.85
16796,-15.81
16808,-23.24
16820,-29.78
16831,-35.16
16842,-39.15
16854,-41.89
16866,-43.6
16878,-42.71
16890,-39.08
16902,-33.96
16914,-28.63
16926,-23.29
16938,-17.26
16950,-10.08
16962,-2.22
16974,5.11
16986,10.44
16998,12.54
17010,11.51
17021,8.88
17032,6.93
17044,7.66
17056,11.93
17068,19.07
17080,27.3
17092,34.81
17104,39.64
17116,41.12
17128,39.79
17140,36.7
17152,32.6
17164,27.57
17176,21.28
17188,13.44
17200,4.15
17211,-6.01
17222,-15.47
17234,-22.18
17246,-24.58
17258,-22.3
17270,-16.24
17282,-8.11
17294,0.2
17306,7.21
17318,11.24
17330,11.56
17342,8.39
17354,2.45
17366,-5.15
17378,-12.92
17390,-18.76
17401,-19.45
17412,-12.74
17424,-0.12
17436,13.94
17448,24.98
17460,30.57
17472,30.56
17484,26.32
17496,19.84
17508,12.78
17520,5.77
17532,-1.23
17544,-8.25
17556,-14.75
17568,-19.92
17580,-23.24
17591,-24.85
17602,-25.22
17614,-24.95
17626,-24.61
17638,-24.49
17650,-24.24
17662,-23.12
17674,-20.56
17686,-15.63
17698,-8.86
17710,-1.45
17722,5.23
17734,9.96
17746,12.16
17758,12.1
17770,10.72
17781,9.04
17792,7.72
17804,6.87
17816,6.43
17828,6.38
17840,6.81
17852,7.9
17864,9.77
17876,12.41
17888,15.47
17900,18.36
17912,20.41
17924,21.27
17936,20.9
17948,19.47
17960,17.16
17971,14.15
17982,10.6
17994,6.77
18006,3.01
18018,-0.36
18030,-3.11
18042,-5.23
18054,-6.91
18066,-8.43
18078,-9.99
18090,-11.53
18102,-12.91
18114,-14.04
18126,-15.16
18138,-16.72
18150,-19.24
18161,-22.95
18172,-27.62
18184,-32.49
18196,-36.46
18208,-38.44
18220,-37.74
18232,-34.25
18244,-28.49
18256,-21.44
18268,-14.24
18280,-7.92
18292,-3.17
18304,-0.3
18316,0.75
18328,0.29
18340,-1.17
18351,-3.01
18362,-4.59
18374,-5.33
18386,-4.85
18398,-3.14
18410,-0.49
18422,2.53
18434,5.35
18446,7.55
18458,9.0
18470,9.81
18482,10.24
18494,10.55
18506,10.91
18518,11.36
18530,11.93
18541,12.57
18552,13.21
18564,13.78
18576,14.1
18588,14.06
18600,13.55
18612,12.61
18624,11.41
18636,10.2
18648,9.21
18660,8.51
18672,8.03
18684,7.57
18696,6.91
18708,5.93
18720,4.66
18731,3.2
18742,1.76
18754,0.49
18766,-0.47
18778,-1.08
18790,-1.34
18802,-1.36
18814,-1.31
18826,-1.45
18838,-1.99
18850,-3.1
18862,-4.72
18874,-6.64
18886,-8.51
18898,-10.06
18910,-11.14
18921,-11.87
18932,-12.53
18944,-13.47
18956,-14.97
18968,-17.16
18980,-19.99
18992,-23.2
19004,-26.31
19016,-28.7
19028,-29.68
19040,-28.73
19052,-25.7
19064,-20.94
19076,-15.26
19088,-9.68
19100,-5.06
19111,-1.89
19122,-0.17
19134,0.51
19146,0.71
19158,0.88
19170,1.32
19182,2.09
19194,3.15
19206,4.44
19218,5.9
19230,7.49
19242,9.14
19254,10.78
19266,12.29
19278,13.59
19290,14.68
19301,15.6
19312,16.47
19324,17.42
19336,18.49
19348,19.62
19360,20.64
19372,21.33
19384,21.49
19396,21.05
19408,20.07
19420,18.77
19432,17.44
19444,16.35
19456,15.61
19468,15.15
19480,14.79
19491,14.33
19502,13.64
19514,12.71
19526,11.67
19538,10.61
19550,9.57
19562,8.48
19574,7.21
19586,5.6
19598,3.59
19610,1.24
19622,-1.23
19634,-3.56
19646,-5.55
19658,-7.15
19670,-8.49
19681,-9.8
19692,-11.3
19704,-13.04
19716,-14.95
19728,-16.85
19740,-18.57
19752,-19.94
19764,-20.82
19776,-21.0
19788,-20.22
19800,-18.25
19812,-15.02
19824,-10.73
19836,-5.9
19848,-1.17
19860,2.87
19871,5.85
19882,7.71
19894,8.64
19906,8.94
19918,8.92
19930,8.79
19942,8.68
19954,8.6
19966,8.54
19978,8.5
19990,8.48
20002,8.53
20014,8.66
20026,8.91
20038,9.25
20050,9.66
20061,10.1
20072,10.5
20084,10.83
20096,11.04
20108,11.07
20120,10.91
20132,10.54
20144,9.96
20156,9.21
20168,8.33
20180,7.38
20192,6.39
20204,5.36
20216,4.27
20228,3.08
20240,1.8
20251,0.47
20262,-0.82
20274,-1.98
20286,-2.94
20298,-3.75
20310,-4.47
20322,-5.23
20334,-6.11
20346,-7.12
20358,-8.18
20370,-9.23
20382,-10.19
20394,-11.08
20406,-12.02
20418,-13.2
20430,-14.8
20441,-16.92
20452,-19.48
20464,-22.16
20476,-24.4
20488,-25.53
20500,-24.96
20512,-22.44
20524,-18.16
20536,-12.73
20548,-7.05
20560,-1.97
20572,1.94
20584,4.49
20596,5.89
20608,6.52
20620,6.8
20631,7.05
20642,7.46
20654,8.1
20666,8.99
20678,10.06
20690,11.19
20702,12.23
20714,12.99
20726,13.36
20738,13.34
20750,13.06
20762,12.73
20774,12.54
20786,12.59
20798,12.83
20810,13.13
20821,13.34
20832,13.36
20844,13.21
20856,12.93
20868,12.58
20880,12.14
20892,11.49
20904,10.5
20916,9.13
20928,7.45
20940,5.63
20952,3.95
20964,2.6
20976,1.7
20988,1.19
