seconds,BVP
1,2.24
13,1.52
25,0.74
37,-0.18
49,-1.23
61,-2.4
73,-3.63
85,-4.87
96,-6.03
107,-7.02
119,-7.74
131,-8.13
143,-8.32
155,-8.58
167,-9.25
179,-10.54
191,-12.32
203,-14.14
215,-15.33
227,-15.31
239,-13.88
251,-11.3
263,-8.09
275,-4.78
286,-1.74
297,0.94
309,3.33
321,5.45
333,7.27
345,8.61
357,9.34
369,9.47
381,9.18
393,8.71
405,8.28
417,7.97
429,7.78
441,7.62
453,7.47
465,7.33
476,7.18
487,6.93
499,6.45
511,5.71
523,4.72
535,3.66
547,2.69
559,1.91
571,1.31
583,0.75
595,0.09
607,-0.73
619,-1.72
631,-2.82
643,-3.97
655,-5.17
666,-6.4
677,-7.62
689,-8.78
701,-9.8
713,-10.77
725,-11.86
737,-13.3
749,-15.16
761,-17.23
773,-19.03
785,-19.97
797,-19.64
809,-17.95
821,-15.24
833,-12.0
845,-8.7
856,-5.63
867,-2.89
879,-0.49
891,1.55
903,3.13
915,4.18
927,4.66
939,4.72
951,4.58
963,4.43
975,4.4
987,4.53
999,4.74
1011,4.96
1023,5.09
1035,5.08
1046,4.87
1057,4.48
1069,4.0
1081,3.54
1093,3.2
1105,3.05
1117,3.11
1129,3.29
1141,3.44
1153,3.33
1165,2.77
1177,1.68
1189,0.19
1201,-1.41
1213,-2.82
1225,-3.9
1236,-4.74
1247,-5.67
1259,-7.06
1271,-9.08
1283,-11.62
1295,-14.29
1307,-16.54
1319,-17.87
1331,-18.0
1343,-16.9
1355,-14.77
1367,-11.92
1379,-8.72
1391,-5.49
1403,-2.43
1415,0.31
1426,2.68
1437,4.66
1449,6.18
1461,7.19
1473,7.63
1485,7.54
1497,7.03
1509,6.35
1521,5.75
1533,5.44
1545,5.47
1557,5.75
1569,6.14
1581,6.47
1593,6.65
1605,6.68
1616,6.62
1627,6.5
1639,6.32
1651,6.06
1663,5.59
1675,4.86
1687,3.82
1699,2.54
1711,1.13
1723,-0.32
1735,-1.77
1747,-3.28
1759,-4.93
1771,-6.8
1783,-8.89
1795,-11.08
1806,-13.26
1817,-15.31
1829,-17.17
1841,-18.82
1853,-20.16
1865,-21.02
1877,-21.19
1889,-20.47
1901,-18.77
1913,-16.16
1925,-12.82
1937,-8.99
1949,-4.98
1961,-1.1
1973,2.34
1985,5.08
1996,6.99
2007,8.1
2019,8.59
2031,8.69
2043,8.63
2055,8.49
2067,8.29
2079,8.04
2091,7.8
2103,7.68
2115,7.81
2127,8.22
2139,8.82
2151,9.38
2163,9.69
2175,9.64
2186,9.3
2197,8.84
2209,8.42
2221,8.06
2233,7.66
2245,7.01
2257,5.99
2269,4.6
2281,2.98
2293,1.28
2305,-0.35
2317,-1.85
2329,-3.27
2341,-4.7
2353,-6.26
2365,-8.06
2376,-10.18
2387,-12.59
2399,-15.17
2411,-17.65
2423,-19.73
2435,-21.1
2447,-21.63
2459,-21.26
2471,-20.05
2483,-18.11
2495,-15.52
2507,-12.39
2519,-8.85
2531,-5.08
2543,-1.32
2555,2.2
2566,5.28
2577,7.73
2589,9.44
2601,10.39
2613,10.66
2625,10.43
2637,9.95
2649,9.44
2661,9.08
2673,8.99
2685,9.19
2697,9.69
2709,10.44
2721,11.32
2733,12.16
2745,12.75
2756,12.94
2767,12.7
2779,12.14
2791,11.4
2803,10.57
2815,9.65
2827,8.56
2839,7.32
2851,6.0
2863,4.74
2875,3.62
2887,2.53
2899,1.27
2911,-0.39
2923,-2.51
2935,-4.93
2946,-7.34
2957,-9.48
2969,-11.24
2981,-12.76
2993,-14.36
3005,-16.32
3017,-18.72
3029,-21.4
3041,-23.97
3053,-25.95
3065,-26.89
3077,-26.49
3089,-24.65
3101,-21.49
3113,-17.32
3125,-12.54
3136,-7.61
3147,-2.96
3159,1.1
3171,4.32
3183,6.61
3195,8.04
3207,8.79
3219,9.13
3231,9.36
3243,9.65
3255,10.09
3267,10.64
3279,11.18
3291,11.61
3303,11.84
3315,11.91
3326,11.86
3337,11.79
3349,11.77
3361,11.85
3373,12.07
3385,12.4
3397,12.83
3409,13.25
3421,13.5
3433,13.35
3445,12.62
3457,11.23
3469,9.34
3481,7.23
3493,5.26
3505,3.7
3516,2.59
3527,1.79
3539,1.05
3551,0.14
3563,-1.03
3575,-2.43
3587,-3.91
3599,-5.39
3611,-6.83
3623,-8.3
3635,-9.95
3647,-11.92
3659,-14.32
3671,-17.14
3683,-20.24
3695,-23.25
3706,-25.61
3717,-26.82
3729,-26.49
3741,-24.57
3753,-21.3
3765,-17.16
3777,-12.66
3789,-8.16
3801,-3.9
3813,0.0
3825,3.42
3837,6.23
3849,8.33
3861,9.74
3873,10.67
3885,11.43
3896,12.31
3907,13.44
3919,14.74
3931,15.98
3943,16.92
3955,17.42
3967,17.58
3979,17.58
3991,17.61
4003,17.75
4015,17.84
4027,17.68
4039,17.09
4051,16.09
4063,14.83
4075,13.59
4086,12.54
4097,11.69
4109,10.85
4121,9.81
4133,8.45
4145,6.81
4157,5.08
4169,3.45
4181,2.0
4193,0.63
4205,-0.82
4217,-2.52
4229,-4.46
4241,-6.51
4253,-8.46
4265,-10.15
4276,-11.57
4287,-12.85
4299,-14.24
4311,-15.95
4323,-18.06
4335,-20.44
4347,-22.72
4359,-24.45
4371,-25.17
4383,-24.62
4395,-22.77
4407,-19.83
4419,-16.18
4431,-12.2
4443,-8.16
4455,-4.24
4466,-0.55
4477,2.79
4489,5.6
4501,7.7
4513,8.99
4525,9.51
4537,9.49
4549,9.32
4561,9.36
4573,9.86
4585,10.86
4597,12.14
4609,13.38
4621,14.3
4633,14.8
4645,14.95
4656,14.97
4667,15.02
4679,15.1
4691,15.06
4703,14.69
4715,13.83
4727,12.5
4739,10.87
4751,9.16
4763,7.57
4775,6.2
4787,5.03
4799,4.03
4811,3.07
4823,2.03
4835,0.79
4846,-0.71
4857,-2.47
4869,-4.41
4881,-6.39
4893,-8.29
4905,-10.09
4917,-11.93
4929,-14.0
4941,-16.45
4953,-19.27
4965,-22.18
4977,-24.69
4989,-26.22
5001,-26.34
5013,-24.85
5025,-21.92
5036,-17.92
5047,-13.35
5059,-8.62
5071,-4.01
5083,0.27
5095,4.08
5107,7.27
5119,9.71
5131,11.43
5143,12.55
5155,13.29
5167,13.81
5179,14.2
5191,14.4
5203,14.35
5215,14.08
5226,13.75
5237,13.55
5249,13.61
5261,13.94
5273,14.36
5285,14.71
5297,14.8
5309,14.6
5321,14.11
5333,13.39
5345,12.47
5357,11.4
5369,10.22
5381,8.98
5393,7.7
5405,6.36
5416,4.92
5427,3.33
5439,1.59
5451,-0.23
5463,-2.08
5475,-3.86
5487,-5.56
5499,-7.14
5511,-8.61
5523,-10.04
5535,-11.53
5547,-13.27
5559,-15.43
5571,-18.03
5583,-20.92
5595,-23.72
5606,-25.97
5617,-27.23
5629,-27.24
5641,-25.92
5653,-23.39
5665,-19.85
5677,-15.56
5689,-10.78
5701,-5.82
5713,-1.03
5725,3.22
5737,6.67
5749,9.19
5761,10.78
5773,11.61
5785,11.92
5796,11.94
5807,11.89
5819,11.87
5831,11.91
5843,11.95
5855,11.97
5867,11.96
5879,12.0
5891,12.22
5903,12.67
5915,13.32
5927,13.95
5939,14.35
5951,14.37
5963,13.97
5975,13.27
5986,12.39
5997,11.4
6009,10.22
6021,8.72
6033,6.79
6045,4.45
6057,1.91
6069,-0.55
6081,-2.61
6093,-4.1
6105,-5.01
6117,-5.55
6129,-6.09
6141,-7.04
6153,-8.72
6165,-11.26
6176,-14.52
6187,-18.13
6199,-21.55
6211,-24.2
6223,-25.62
6235,-25.57
6247,-24.01
6259,-21.12
6271,-17.23
6283,-12.75
6295,-8.04
6307,-3.47
6319,0.65
6331,4.12
6343,6.83
6355,8.79
6366,10.16
6377,11.13
6389,11.85
6401,12.36
6413,12.63
6425,12.59
6437,12.24
6449,11.73
6461,11.25
6473,11.02
6485,11.15
6497,11.56
6509,12.11
6521,12.59
6533,12.89
6545,12.94
6556,12.77
6567,12.33
6579,11.59
6591,10.43
6603,8.88
6615,7.02
6627,5.04
6639,3.17
6651,1.51
6663,0.07
6675,-1.26
6687,-2.65
6699,-4.21
6711,-5.96
6723,-7.86
6735,-9.83
6746,-11.84
6757,-13.95
6769,-16.24
6781,-18.73
6793,-21.27
6805,-23.55
6817,-25.13
6829,-25.54
6841,-24.56
6853,-22.15
6865,-18.58
6877,-14.26
6889,-9.62
6901,-5.0
6913,-0.61
6925,3.34
6936,6.65
6947,9.1
6959,10.57
6971,11.07
6983,10.81
6995,10.13
7007,9.46
7019,9.12
7031,9.25
7043,9.83
7055,10.62
7067,11.31
7079,11.67
7091,11.64
7103,11.32
7115,10.93
7126,10.7
7137,10.74
7149,11.03
7161,11.44
7173,11.81
7185,11.98
7197,11.84
7209,11.32
7221,10.37
7233,9.02
7245,7.37
7257,5.58
7269,3.78
7281,2.09
7293,0.47
7305,-1.17
7316,-2.94
7327,-4.97
7339,-7.3
7351,-9.93
7363,-12.81
7375,-15.86
7387,-18.9
7399,-21.74
7411,-24.09
7423,-25.71
7435,-26.38
7447,-25.93
7459,-24.31
7471,-21.54
7483,-17.75
7495,-13.22
7506,-8.36
7517,-3.63
7529,0.62
7541,4.19
7553,7.07
7565,9.38
7577,11.2
7589,12.57
7601,13.43
7613,13.74
7625,13.55
7637,13.06
7649,12.61
7661,12.53
7673,12.99
7685,13.96
7696,15.17
7707,16.28
7719,17.03
7731,17.29
7743,17.08
7755,16.57
7767,15.97
7779,15.42
7791,14.94
7803,14.44
7815,13.76
7827,12.72
7839,11.27
7851,9.44
7863,7.4
7875,5.36
7886,3.51
7897,1.89
7909,0.43
7921,-1.03
7933,-2.59
7945,-4.25
7957,-5.96
7969,-7.58
7981,-9.06
7993,-10.45
8005,-11.9
8017,-13.62
8029,-15.77
8041,-18.43
8053,-21.53
8065,-24.88
8076,-28.1
8087,-30.72
8099,-32.23
8111,-32.19
8123,-30.42
8135,-27.02
8147,-22.44
8159,-17.21
8171,-11.93
8183,-6.99
8195,-2.63
8207,1.09
8219,4.14
8231,6.5
8243,8.2
8255,9.32
8266,9.99
8277,10.38
8289,10.61
8301,10.68
8313,10.55
8325,10.23
8337,9.88
8349,9.84
8361,10.52
8373,12.19
8385,14.8
8397,17.91
8409,20.88
8421,23.16
8433,24.45
8445,24.83
8456,24.59
8467,24.04
8479,23.28
8491,22.23
8503,20.74
8515,18.7
8527,16.21
8539,13.57
8551,11.08
8563,8.98
8575,7.25
8587,5.7
8599,4.1
8611,2.26
8623,0.16
8635,-2.05
8646,-4.17
8657,-6.05
8669,-7.67
8681,-9.07
8693,-10.4
8705,-11.75
8717,-13.22
8729,-14.88
8741,-16.8
8753,-19.0
8765,-21.45
8777,-23.97
8789,-26.29
8801,-28.05
8813,-28.86
8825,-28.39
8836,-26.47
8847,-23.11
8859,-18.63
8871,-13.56
8883,-8.56
8895,-4.17
8907,-0.67
8919,2.0
8931,4.14
8943,6.08
8955,7.97
8967,9.8
8979,11.4
8991,12.63
9003,13.47
9015,13.99
9026,14.31
9037,14.49
9049,14.52
9061,14.36
9073,13.99
9085,13.42
9097,12.82
9109,12.35
9121,12.17
9133,12.32
9145,12.71
9157,13.12
9169,13.31
9181,13.11
9193,12.52
9205,11.67
9216,10.71
9227,9.71
9239,8.69
9251,7.55
9263,6.23
9275,4.75
9287,3.22
9299,1.75
9311,0.45
9323,-0.68
9335,-1.69
9347,-2.63
9359,-3.6
9371,-4.65
9383,-5.85
9395,-7.25
9406,-8.86
9417,-10.62
9429,-12.46
9441,-14.31
9453,-16.2
9465,-18.28
9477,-20.68
9489,-23.36
9501,-26.03
9513,-28.14
9525,-29.03
9537,-28.25
9549,-25.68
9561,-21.7
9573,-16.96
9585,-12.14
9596,-7.71
9607,-3.83
9619,-0.43
9631,2.64
9643,5.4
9655,7.77
9667,9.58
9679,10.72
9691,11.22
9703,11.27
9715,11.17
9727,11.23
9739,11.63
9751,12.36
9763,13.25
9775,14.06
9786,14.55
9797,14.64
9809,14.43
9821,14.1
9833,13.82
9845,13.64
9857,13.48
9869,13.25
9881,12.9
9893,12.42
9905,11.89
9917,11.27
9929,10.52
9941,9.53
9953,8.31
9965,6.93
9976,5.57
9987,4.34
9999,3.24
10011,2.1
10023,0.68
10035,-1.14
10047,-3.37
10059,-5.81
10071,-8.18
10083,-10.21
10095,-11.82
10107,-13.03
10119,-14.05
10131,-15.09
10143,-16.38
10155,-18.05
10166,-20.17
10177,-22.69
10189,-25.43
10201,-28.02
10213,-29.93
10225,-30.55
10237,-29.43
10249,-26.42
10261,-21.77
10273,-16.14
10285,-10.32
10297,-5.05
10309,-0.79
10321,2.36
10333,4.58
10345,6.17
10356,7.4
10367,8.46
10379,9.43
10391,10.34
10403,11.17
10415,11.91
10427,12.52
10439,12.94
10451,13.15
10463,13.2
10475,13.15
10487,13.1
10499,13.13
10511,13.27
10523,13.49
10535,13.7
10546,13.8
10557,13.68
10569,13.28
10581,12.61
10593,11.62
10605,10.32
10617,8.75
10629,7.01
10641,5.31
10653,3.86
10665,2.82
10677,2.18
10689,1.81
10701,1.46
10713,0.89
10725,-0.05
10736,-1.38
10747,-3.04
10759,-4.93
10771,-6.94
10783,-8.99
10795,-10.98
10807,-12.8
10819,-14.44
10831,-15.96
10843,-17.47
10855,-19.12
10867,-20.92
10879,-22.75
10891,-24.35
10903,-25.37
10915,-25.48
10926,-24.45
10937,-22.19
10949,-18.78
10961,-14.51
10973,-9.81
10985,-5.14
10997,-0.96
11009,2.48
11021,5.1
11033,6.99
11045,8.29
11057,9.13
11069,9.65
11081,9.91
11093,10.0
11105,10.03
11116,10.07
11127,10.21
11139,10.47
11151,10.84
11163,11.29
11175,11.8
11187,12.39
11199,13.05
11211,13.77
11223,14.49
11235,15.06
11247,15.32
11259,15.12
11271,14.4
11283,13.19
11295,11.63
11306,9.91
11317,8.24
11329,6.73
11341,5.43
11353,4.23
11365,3.0
11377,1.57
11389,-0.15
11401,-2.1
11413,-4.11
11425,-5.93
11437,-7.39
11449,-8.52
11461,-9.61
11473,-11.11
11485,-13.3
11496,-16.16
11507,-19.25
11519,-21.86
11531,-23.29
11543,-23.17
11555,-21.52
11567,-18.7
11579,-15.16
11591,-11.3
11603,-7.37
11615,-3.57
11627,-0.09
11639,2.87
11651,5.16
11663,6.75
11675,7.77
11686,8.43
11697,8.88
11709,9.19
11721,9.34
11733,9.36
11745,9.31
11757,9.31
11769,9.41
11781,9.55
11793,9.55
11805,9.25
11817,8.62
11829,7.77
11841,6.94
11853,6.31
11865,5.92
11876,5.62
11887,5.19
11899,4.42
11911,3.29
11923,1.89
11935,0.41
11947,-1.02
11959,-2.34
11971,-3.61
11983,-4.93
11995,-6.38
12007,-8.03
12019,-9.9
12031,-11.98
12043,-14.25
12055,-16.63
12066,-18.95
12077,-20.93
12089,-22.25
12101,-22.56
12113,-21.64
12125,-19.47
12137,-16.26
12149,-12.37
12161,-8.26
12173,-4.39
12185,-1.1
12197,1.4
12209,3.13
12221,4.21
12233,4.89
12245,5.47
12256,6.15
12267,6.99
12279,7.88
12291,8.61
12303,8.96
12315,8.82
12327,8.25
12339,7.45
12351,6.7
12363,6.24
12375,6.2
12387,6.5
12399,6.91
12411,7.12
12423,6.86
12435,5.98
12446,4.61
12457,2.95
12469,1.24
12481,-0.38
12493,-1.95
12505,-3.6
12517,-5.43
12529,-7.43
12541,-9.48
12553,-11.42
12565,-13.22
12577,-14.94
12589,-16.69
12601,-18.47
12613,-20.05
12625,-21.05
12636,-21.01
12647,-19.64
12659,-16.96
12671,-13.32
12683,-9.23
12695,-5.17
12707,-1.47
12719,1.79
12731,4.61
12743,6.96
12755,8.73
12767,9.76
12779,9.97
12791,9.49
12803,8.61
12815,7.71
12826,7.1
12837,6.87
12849,6.96
12861,7.2
12873,7.44
12885,7.59
12897,7.66
12909,7.69
12921,7.65
12933,7.46
12945,7.01
12957,6.14
12969,4.77
12981,2.95
12993,0.9
13005,-1.09
13016,-2.75
13027,-4.01
13039,-5.05
13051,-6.22
13063,-7.91
13075,-10.25
13087,-13.11
13099,-16.08
13111,-18.63
13123,-20.3
13135,-20.81
13147,-20.13
13159,-18.37
13171,-15.74
13183,-12.49
13195,-8.9
13206,-5.26
13217,-1.82
13229,1.24
13241,3.84
13253,6.03
13265,7.86
13277,9.35
13289,10.43
13301,11.04
13313,11.13
13325,10.78
13337,10.2
13349,9.66
13361,9.34
13373,9.34
13385,9.57
13396,9.87
13407,10.09
13419,10.17
13431,10.14
13443,10.05
13455,9.95
13467,9.8
13479,9.43
13491,8.63
13503,7.22
13515,5.14
13527,2.58
13539,-0.15
13551,-2.7
13563,-4.85
13575,-6.63
13586,-8.27
13597,-10.11
13609,-12.35
13621,-15.01
13633,-17.86
13645,-20.56
13657,-22.77
13669,-24.14
13681,-24.42
13693,-23.42
13705,-21.05
13717,-17.49
13729,-13.09
13741,-8.38
13753,-3.86
13765,0.13
13776,3.5
13787,6.33
13799,8.73
13811,10.77
13823,12.45
13835,13.73
13847,14.65
13859,15.25
13871,15.64
13883,15.85
13895,15.88
13907,15.8
13919,15.68
13931,15.68
13943,15.87
13955,16.26
13966,16.68
13977,16.9
13989,16.7
14001,16.0
14013,14.83
14025,13.39
14037,11.89
14049,10.46
14061,9.19
14073,8.0
14085,6.78
14097,5.45
14109,3.91
14121,2.11
14133,0.06
14145,-2.2
14156,-4.56
14167,-6.91
14179,-9.07
14191,-10.94
14203,-12.51
14215,-13.97
14227,-15.64
14239,-17.86
14251,-20.75
14263,-24.09
14275,-27.26
14287,-29.46
14299,-30.01
14311,-28.54
14323,-25.22
14335,-20.53
14346,-15.18
14357,-9.77
14369,-4.72
14381,-0.2
14393,3.75
14405,7.09
14417,9.8
14429,11.85
14441,13.34
14453,14.43
14465,15.35
14477,16.29
14489,17.29
14501,18.24
14513,18.98
14525,19.4
14536,19.54
14547,19.63
14559,19.89
14571,20.44
14583,21.21
14595,21.98
14607,22.46
14619,22.5
14631,22.09
14643,21.36
14655,20.41
14667,19.32
14679,18.11
14691,16.75
14703,15.28
14715,13.73
14726,12.1
14737,10.43
14749,8.72
14761,7.02
14773,5.36
14785,3.8
14797,2.36
14809,0.97
14821,-0.44
14833,-1.98
14845,-3.73
14857,-5.65
14869,-7.69
14881,-9.74
14893,-11.67
14905,-13.37
14916,-14.89
14927,-16.35
14939,-18.02
14951,-20.18
14963,-22.91
14975,-26.02
14987,-29.03
14999,-31.26
15011,-32.08
15023,-31.15
15035,-28.41
15047,-24.17
15059,-18.91
15071,-13.13
15083,-7.31
15095,-1.83
15106,2.98
15117,6.96
15129,10.09
15141,12.48
15153,14.36
15165,15.97
15177,17.47
15189,18.87
15201,20.07
15213,20.98
15225,21.53
15237,21.8
15249,21.94
15261,22.07
15273,22.25
15285,22.43
15296,22.53
15307,22.49
15319,22.31
15331,22.04
15343,21.7
15355,21.29
15367,20.7
15379,19.86
15391,18.76
15403,17.54
15415,16.4
15427,15.56
15439,15.14
15451,15.02
15463,14.96
15475,14.61
15486,13.71
15497,12.22
15509,10.34
15521,8.45
15533,6.91
15545,5.95
15557,5.51
15569,5.34
15581,5.06
15593,4.36
15605,3.11
15617,1.4
15629,-0.62
15641,-2.75
15653,-4.88
15665,-6.99
15676,-9.01
15687,-10.9
15699,-12.58
15711,-14.07
15723,-15.49
15735,-17.08
15747,-19.06
15759,-21.51
15771,-24.25
15783,-26.84
15795,-28.74
15807,-29.46
15819,-28.76
15831,-26.69
15843,-23.53
15855,-19.72
15866,-15.72
15877,-11.89
15889,-8.4
15901,-5.27
15913,-2.42
15925,0.27
15937,2.88
15949,5.4
15961,7.72
15973,9.69
15985,11.21
15997,12.26
16009,12.96
16021,13.49
16033,14.05
16045,14.74
16056,15.58
16067,16.46
16079,17.27
16091,17.87
16103,18.19
16115,18.2
16127,17.92
16139,17.39
16151,16.71
16163,16.01
16175,15.4
16187,14.93
16199,14.52
16211,13.95
16223,13.02
16235,11.61
16246,9.84
16257,8.04
16269,6.57
16281,5.6
16293,5.09
16305,4.68
16317,4.06
16329,3.06
16341,1.81
16353,0.61
16365,-0.25
16377,-0.71
16389,-0.95
16401,-1.3
16413,-2.06
16425,-3.28
16436,-4.84
16447,-6.5
16459,-8.09
16471,-9.58
16483,-11.04
16495,-12.58
16507,-14.23
16519,-15.98
16531,-17.77
16543,-19.54
16555,-21.22
16567,-22.7
16579,-23.82
16591,-24.32
16603,-23.86
16615,-22.25
16626,-19.48
16637,-15.79
16649,-11.7
16661,-7.74
16673,-4.36
16685,-1.73
16697,0.2
16709,1.66
16721,2.87
16733,3.92
16745,4.79
16757,5.4
16769,5.69
16781,5.76
16793,5.76
16805,5.92
16816,6.35
16827,7.02
16839,7.81
16851,8.51
16863,8.95
16875,9.06
16887,8.86
16899,8.47
16911,8.0
16923,7.56
16935,7.22
16947,6.98
16959,6.82
16971,6.69
16983,6.55
16995,6.3
17006,5.91
17017,5.35
17029,4.64
17041,3.83
17053,2.96
17065,2.04
17077,1.06
17089,0.03
17101,-0.99
17113,-1.97
17125,-2.89
17137,-3.81
17149,-4.76
17161,-5.79
17173,-6.85
17185,-7.87
17196,-8.8
17207,-9.7
17219,-10.69
17231,-11.93
17243,-13.51
17255,-15.36
17267,-17.3
17279,-19.08
17291,-20.45
17303,-21.24
17315,-21.37
17327,-20.79
17339,-19.5
17351,-17.53
17363,-14.95
17375,-11.95
17386,-8.69
17397,-5.4
17409,-2.29
17421,0.49
17433,2.76
17445,4.46
17457,5.59
17469,6.25
17481,6.62
17493,6.81
17505,6.91
17517,6.89
17529,6.8
17541,6.7
17553,6.73
17565,6.99
17576,7.47
17587,8.01
17599,8.39
17611,8.42
17623,8.1
17635,7.58
17647,7.08
17659,6.76
17671,6.63
17683,6.59
17695,6.46
17707,6.16
17719,5.67
17731,5.04
17743,4.35
17755,3.65
17766,2.98
17777,2.37
17789,1.81
17801,1.26
17813,0.68
17825,0.01
17837,-0.71
17849,-1.46
17861,-2.22
17873,-3.03
17885,-3.94
17897,-5.0
17909,-6.18
17921,-7.38
17933,-8.46
17945,-9.41
17956,-10.37
17967,-11.55
17979,-13.17
17991,-15.23
18003,-17.48
18015,-19.47
18027,-20.74
18039,-21.02
18051,-20.26
18063,-18.64
18075,-16.44
18087,-13.93
18099,-11.33
18111,-8.83
18123,-6.56
18135,-4.57
18146,-2.85
18157,-1.32
18169,0.09
18181,1.37
18193,2.44
18205,3.2
18217,3.56
18229,3.61
18241,3.52
18253,3.48
18265,3.64
18277,4.04
18289,4.6
18301,5.25
18313,5.91
18325,6.53
18336,7.07
18347,7.46
18359,7.62
18371,7.51
18383,7.1
18395,6.49
18407,5.79
18419,5.13
18431,4.58
18443,4.16
18455,3.82
18467,3.48
18479,3.06
18491,2.51
18503,1.84
18515,1.08
18526,0.27
18537,-0.56
18549,-1.4
18561,-2.27
18573,-3.13
18585,-3.94
18597,-4.69
18609,-5.45
18621,-6.34
18633,-7.53
18645,-9.13
18657,-11.07
18669,-13.12
18681,-15.02
18693,-16.51
18705,-17.51
18716,-18.05
18727,-18.17
18739,-17.8
18751,-16.76
18763,-14.91
18775,-12.28
18787,-9.13
18799,-5.88
18811,-2.91
18823,-0.43
18835,1.5
18847,2.93
18859,3.91
18871,4.42
18883,4.49
18895,4.2
18906,3.78
18917,3.47
18929,3.48
18941,3.78
18953,4.22
18965,4.61
18977,4.85
18989,5.01
19001,5.26
19013,5.77
19025,6.53
19037,7.38
19049,8.07
19061,8.39
19073,8.23
19085,7.62
19096,6.7
19107,5.65
19119,4.63
19131,3.75
19143,3.02
19155,2.38
19167,1.77
19179,1.13
19191,0.45
19203,-0.22
19215,-0.86
19227,-1.52
19239,-2.35
19251,-3.56
19263,-5.29
19275,-7.54
19286,-10.18
19297,-12.94
19309,-15.56
19321,-17.83
19333,-19.64
19345,-20.87
19357,-21.44
19369,-21.19
19381,-20.04
19393,-17.97
19405,-15.14
19417,-11.82
19429,-8.35
19441,-5.12
19453,-2.43
19465,-0.41
19476,0.91
19487,1.72
19499,2.27
19511,2.81
19523,3.46
19535,4.19
19547,4.86
19559,5.32
19571,5.49
19583,5.39
19595,5.17
19607,4.96
19619,4.89
19631,4.98
19643,5.19
19655,5.48
19666,5.79
19677,6.11
19689,6.35
19701,6.42
19713,6.14
19725,5.42
19737,4.27
19749,2.87
19761,1.47
19773,0.31
19785,-0.51
19797,-1.04
19809,-1.49
19821,-2.08
19833,-2.99
19845,-4.23
19856,-5.7
19867,-7.23
19879,-8.66
19891,-9.91
19903,-11.06
19915,-12.28
19927,-13.71
19939,-15.33
19951,-16.9
19963,-18.02
19975,-18.24
19987,-17.33
19999,-15.31
20011,-12.45
20023,-9.2
20035,-5.95
20046,-2.99
20057,-0.45
20069,1.63
20081,3.29
20093,4.51
20105,5.32
20117,5.76
20129,5.88
20141,5.83
20153,5.74
20165,5.75
20177,5.95
20189,6.34
20201,6.83
20213,7.27
20225,7.52
20236,7.56
20247,7.48
20259,7.43
20271,7.56
20283,7.82
20295,8.07
20307,8.11
20319,7.83
20331,7.28
20343,6.55
20355,5.76
20367,4.9
20379,3.85
20391,2.54
20403,0.97
20415,-0.64
20426,-2.0
20437,-2.93
20449,-3.42
20461,-3.74
20473,-4.28
20485,-5.39
20497,-7.18
20509,-9.53
20521,-12.06
20533,-14.37
20545,-16.11
20557,-17.09
20569,-17.29
20581,-16.72
20593,-15.43
20605,-13.47
20616,-10.91
20627,-7.93
20639,-4.82
20651,-1.96
20663,0.32
20675,1.87
20687,2.77
20699,3.33
20711,3.95
20723,4.93
20735,6.31
20747,7.88
20759,9.27
20771,10.11
20783,10.29
20795,9.95
20806,9.43
20817,9.1
20829,9.14
20841,9.48
20853,9.85
20865,9.98
20877,9.74
20889,9.19
20901,8.52
20913,7.9
20925,7.38
20937,6.89
20949,6.27
20961,5.4
20973,4.25
20985,2.85
20996,1.34
