seconds,BVP
6,22.8
18,21.57
30,19.55
42,17.16
54,14.81
66,12.75
78,11.09
90,9.8
102,8.78
114,7.98
126,7.4
138,7.09
150,7.11
162,7.46
174,8.07
185,8.82
196,9.51
208,9.96
220,10.02
232,9.59
244,8.66
256,7.26
268,5.41
280,3.25
292,0.98
304,-1.18
316,-3.03
328,-4.5
340,-5.71
352,-6.91
364,-8.34
375,-10.16
386,-12.29
398,-14.43
410,-16.29
422,-17.67
434,-18.63
446,-19.42
458,-20.34
470,-21.55
482,-23.01
494,-24.46
506,-25.42
518,-25.46
530,-24.21
542,-21.44
554,-17.12
565,-11.43
576,-4.76
588,2.28
600,8.94
612,14.55
624,18.65
636,21.11
648,22.14
660,22.07
672,21.22
684,19.77
696,17.8
708,15.43
720,12.87
732,10.46
744,8.51
755,7.17
766,6.31
778,5.63
790,4.88
802,3.95
814,2.97
826,2.23
838,1.91
850,2.05
862,2.4
874,2.59
886,2.22
898,1.11
910,-0.77
922,-3.26
934,-6.12
945,-9.1
956,-12.01
968,-14.66
980,-16.98
992,-19.0
1004,-20.82
1016,-22.67
1028,-24.73
1040,-27.1
1052,-29.68
1064,-32.17
1076,-34.14
1088,-35.17
1100,-34.97
1112,-33.43
1124,-30.75
1135,-27.37
1146,-23.82
1158,-20.54
1170,-17.6
1182,-14.64
1194,-10.98
1206,-5.99
1218,0.61
1230,8.55
1242,17.23
1254,26.01
1266,34.4
1278,42.01
1290,48.48
1302,53.31
1314,56.14
1325,57.1
1336,56.97
1348,57.0
1360,58.26
1372,60.92
1384,64.33
1396,67.15
1408,68.14
1420,66.73
1432,63.13
1444,57.99
1456,51.98
1468,45.59
1480,39.11
1492,32.98
1504,27.58
1515,23.14
1526,19.68
1538,17.08
1550,15.13
1562,13.76
1574,12.99
1586,12.72
1598,13.12
1610,14.29
1622,16.31
1634,19.28
1646,22.97
1658,26.75
1670,29.78
1682,31.38
1694,30.85
1705,28.98
1716,26.44
1728,23.71
1740,20.63
1752,16.48
1764,10.37
1776,1.93
1788,-8.33
1800,-19.86
1812,-29.47
1824,-34.94
1836,-34.89
1848,-29.52
1860,-20.67
1872,-10.75
1884,-1.28
1895,7.87
1906,16.85
1918,29.17
1930,45.42
1942,63.98
1954,81.34
1966,93.14
1978,96.49
1990,91.09
2002,78.64
2014,59.43
2026,37.08
2038,12.31
2050,-14.35
2062,-42.05
2074,-70.42
2085,-98.52
2096,-125.07
2108,-136.3
2120,-146.83
2132,-154.57
2144,-159.36
2156,-160.31
2168,-156.62
2180,-149.63
2192,-141.0
2204,-131.88
2216,-122.55
2228,-114.89
2240,-106.84
2252,-98.72
2264,-91.08
2275,-85.36
2286,-85.18
2298,-92.42
2310,-105.85
2322,-121.5
2334,-136.51
2346,-146.53
2358,-150.95
2370,-150.75
2382,-133.48
2394,-94.57
2406,-39.15
2418,21.06
2430,76.25
2442,121.41
2454,156.98
2465,181.61
2476,198.32
2488,208.76
2500,212.29
2512,209.45
2524,202.43
2536,193.82
2548,184.99
2560,176.07
2572,165.97
2584,154.66
2596,142.88
2608,130.53
2620,118.04
2632,106.02
2644,95.15
2655,85.69
2666,78.12
2678,73.22
2690,72.31
2702,75.64
2714,81.05
2726,85.48
2738,86.2
2750,81.86
2762,72.86
2774,60.79
2786,47.83
2798,35.91
2810,25.57
2822,15.64
2834,4.63
2845,-8.23
2856,-22.51
2868,-36.9
2880,-50.07
2892,-61.13
2904,-69.9
2916,-77.02
2928,-83.6
2940,-90.5
2952,-98.08
2964,-106.15
2976,-114.09
2988,-121.08
3000,-126.18
3012,-128.48
3024,-127.56
3035,-123.59
3046,-117.37
3058,-110.02
3070,-102.51
3082,-95.16
3094,-87.76
3106,-79.92
3118,-71.8
3130,-64.42
3142,-59.46
3154,-58.34
3166,-61.35
3178,-67.05
3190,-72.74
3202,-75.57
3214,-73.85
3225,-67.76
3236,-58.97
3248,-49.46
3260,-40.29
3272,-31.0
3284,-20.06
3296,-6.21
3308,10.5
3320,28.24
3332,44.12
3344,55.41
3356,60.9
3368,61.18
3380,58.23
3392,54.25
3404,50.55
3415,47.2
3426,43.44
3438,38.55
3450,32.53
3462,26.34
3474,21.27
3486,18.25
3498,17.3
3510,17.42
3522,17.03
3534,14.52
3546,8.75
3558,-0.73
3570,-13.54
3582,-28.6
3594,-44.26
3605,-58.63
3616,-70.05
3628,-77.57
3640,-81.1
3652,-81.24
3664,-78.84
3676,-74.79
3688,-70.09
3700,-66.11
3712,-64.82
3724,-68.43
3736,-78.45
3748,-94.61
3760,-114.34
3772,-133.18
3784,-146.24
3795,-150.01
3806,-143.59
3818,-128.76
3830,-108.92
3842,-87.59
3854,-67.22
3866,-48.89
3878,-32.74
3890,-18.69
3902,-6.75
3914,3.07
3926,11.07
3938,17.94
3950,24.49
3962,31.24
3974,38.05
3985,44.21
3996,48.83
4008,51.22
4020,51.17
4032,48.71
4044,44.0
4056,37.16
4068,28.44
4080,18.38
4092,7.82
4104,-2.41
4116,-11.74
4128,-20.11
4140,-27.81
4152,-35.18
4164,-42.27
4175,-48.67
4186,-53.56
4198,-56.01
4210,-55.16
4222,-50.45
4234,-41.75
4246,-29.35
4258,-14.11
4270,2.56
4282,18.87
4294,33.04
4306,43.93
4318,51.49
4330,56.72
4342,61.12
4354,65.82
4365,71.09
4376,76.27
4388,80.29
4400,82.44
4412,82.75
4424,81.93
4436,80.78
4448,79.61
4460,78.16
4472,75.87
4484,72.51
4496,68.46
4508,64.5
4520,61.36
4532,59.26
4544,57.88
4555,56.71
4566,55.4
4578,53.95
4590,52.48
4602,50.91
4614,48.78
4626,45.45
4638,40.45
4650,33.87
4662,26.26
4674,18.33
4686,10.42
4698,2.38
4710,-6.16
4722,-15.32
4734,-24.7
4745,-33.54
4756,-41.24
4768,-47.76
4780,-53.54
4792,-59.02
4804,-63.97
4816,-67.2
4828,-66.96
4840,-61.73
4852,-51.08
4864,-35.96
4876,-18.25
4888,0.09
4900,17.74
4912,34.18
4924,49.41
4935,63.28
4946,75.12
4958,83.95
4970,88.98
4982,90.19
4994,88.51
5006,85.5
5018,82.61
5030,80.67
5042,79.64
5054,78.83
5066,77.58
5078,75.56
5090,73.05
5102,70.68
5114,69.05
5125,68.31
5136,68.19
5148,68.08
5160,67.41
5172,65.98
5184,63.95
5196,61.63
5208,59.18
5220,56.35
5232,52.63
5244,47.6
5256,41.34
5268,34.46
5280,27.92
5292,22.48
5304,18.25
5315,14.77
5326,11.27
5338,7.13
5350,2.25
5362,-3.04
5374,-8.28
5386,-13.15
5398,-17.59
5410,-21.74
5422,-25.63
5434,-29.06
5446,-31.71
5458,-33.32
5470,-34.13
5482,-34.97
5494,-37.19
5505,-42.2
5516,-50.81
5528,-62.69
5540,-76.35
5552,-89.63
5564,-100.62
5576,-108.47
5588,-113.57
5600,-116.99
5612,-119.64
5624,-121.5
5636,-121.45
5648,-117.88
5660,-109.6
5672,-96.47
5684,-79.49
5695,-60.39
5706,-40.97
5718,-22.61
5730,-6.12
5742,8.22
5754,20.42
5766,30.67
5778,39.24
5790,46.43
5802,52.54
5814,57.87
5826,62.7
5838,67.24
5850,71.61
5862,75.77
5874,79.63
5885,83.04
5896,85.94
5908,88.33
5920,90.21
5932,91.5
5944,92.01
5956,91.5
5968,89.98
5980,87.71
5992,85.21
6004,83.05
6016,81.52
6028,80.52
6040,79.57
6052,78.02
6064,75.07
6075,69.73
6086,60.84
6098,47.36
6110,29.03
6122,6.99
6134,-15.89
6146,-35.72
6158,-48.89
6170,-53.61
6182,-50.8
6194,-43.6
6206,-36.02
6218,-31.11
6230,-29.86
6242,-31.23
6254,-33.19
6265,-34.11
6276,-33.57
6288,-32.48
6300,-32.2
6312,-33.6
6324,-36.49
6336,-39.73
6348,-41.82
6360,-41.57
6372,-38.59
6384,-33.2
6396,-26.12
6408,-17.99
6420,-9.09
6432,0.61
6444,11.28
6455,22.79
6466,34.6
6478,45.7
6490,54.83
6502,60.84
6514,63.03
6526,61.51
6538,57.17
6550,51.54
6562,46.26
6574,42.59
6586,40.91
6598,40.83
6610,41.47
6622,42.1
6634,42.3
6645,41.87
6656,40.33
6668,36.6
6680,29.18
6692,16.8
6704,-0.73
6716,-22.07
6728,-44.46
6740,-64.44
6752,-78.9
6764,-85.91
6776,-85.14
6788,-77.83
6800,-66.23
6812,-52.97
6824,-40.63
6835,-31.34
6846,-26.82
6858,-28.43
6870,-37.14
6882,-53.32
6894,-76.42
6906,-104.59
6918,-134.88
6930,-163.94
6942,-188.87
6954,-207.87
6966,-220.13
6978,-225.29
6990,-222.99
7002,-212.97
7014,-195.53
7025,-172.18
7036,-145.73
7048,-119.35
7060,-95.64
7072,-75.62
7084,-58.72
7096,-43.48
7108,-28.53
7120,-13.25
7132,2.31
7144,17.75
7156,32.74
7168,47.07
7180,60.33
7192,71.79
7204,80.42
7215,85.35
7226,86.31
7238,83.91
7250,79.49
7262,74.64
7274,70.61
7286,67.85
7298,66.05
7310,64.34
7322,61.86
7334,58.31
7346,54.15
7358,50.41
7370,48.29
7382,48.49
7394,50.77
7405,54.03
7416,56.61
7428,57.02
7440,54.36
7452,48.5
7464,39.95
7476,29.44
7488,17.79
7500,5.8
7512,-5.63
7524,-15.59
7536,-23.36
7548,-28.69
7560,-31.99
7572,-34.06
7584,-35.77
7595,-37.65
7606,-39.63
7618,-41.24
7630,-41.83
7642,-40.85
7654,-37.96
7666,-33.03
7678,-26.0
7690,-17.02
7702,-6.46
7714,5.07
7726,16.87
7738,28.26
7750,38.67
7762,47.52
7774,54.11
7785,57.73
7796,57.87
7808,54.64
7820,48.84
7832,41.89
7844,35.33
7856,30.31
7868,27.28
7880,25.99
7892,25.87
7904,26.38
7916,27.31
7928,28.89
7940,31.47
7952,35.37
7964,40.58
7975,46.74
7986,53.15
7998,58.96
8010,63.36
8022,65.77
8034,66.13
8046,64.87
8058,62.93
8070,61.42
8082,61.27
8094,62.84
8106,65.66
8118,68.62
8130,70.37
8142,70.01
8154,67.51
8165,63.69
8176,59.76
8188,56.63
8200,54.28
8212,51.81
8224,47.86
8236,41.22
8248,31.32
8260,18.23
8272,2.46
8284,-15.19
8296,-33.67
8308,-51.36
8320,-66.18
8332,-76.3
8344,-81.29
8355,-83.07
8366,-85.95
8378,-95.35
8390,-115.41
8402,-146.73
8414,-185.21
8426,-222.96
8438,-250.82
8450,-261.35
8462,-250.93
8474,-220.23
8486,-173.29
8498,-115.78
8510,-53.69
8522,7.46
8534,62.9
8545,108.67
8556,142.0
8568,161.86
8580,169.23
8592,167.02
8604,159.17
8616,149.56
8628,140.86
8640,133.89
8652,127.79
8664,120.77
8676,110.98
8688,97.41
8700,80.18
8712,60.3
8724,39.17
8735,17.96
8746,-2.46
8758,-21.49
8770,-38.37
8782,-52.29
8794,-62.71
8806,-69.7
8818,-74.15
8830,-77.43
8842,-80.75
8854,-84.6
8866,-88.53
8878,-91.54
8890,-92.58
8902,-90.96
8914,-86.42
8925,-79.05
8936,-69.11
8948,-57.01
8960,-43.41
8972,-29.25
8984,-15.74
8996,-4.14
9008,4.59
9020,10.0
9032,12.34
9044,12.41
9056,11.31
9068,10.15
9080,9.62
9092,9.78
9104,10.15
9115,9.98
9126,8.74
9138,6.41
9150,3.4
9162,0.31
9174,-2.48
9186,-4.97
9198,-7.35
9210,-9.66
9222,-11.62
9234,-12.71
9246,-12.54
9258,-11.21
9270,-9.4
9282,-8.17
9294,-8.3
9305,-9.83
9316,-11.88
9328,-13.06
9340,-12.24
9352,-9.16
9364,-4.64
9376,-0.17
9388,2.93
9400,4.18
9412,4.09
9424,3.68
9436,3.64
9448,3.75
9460,2.96
9472,0.1
9484,-5.25
9495,-12.28
9506,-19.17
9518,-23.85
9530,-24.93
9542,-22.08
9554,-15.9
9566,-7.51
9578,1.91
9590,11.34
9602,19.87
9614,26.71
9626,31.35
9638,33.61
9650,33.93
9662,33.08
9674,31.96
9685,31.19
9696,30.9
9708,30.79
9720,30.39
9732,29.34
9744,27.61
9756,25.54
9768,23.71
9780,22.69
9792,22.86
9804,24.23
9816,26.34
9828,28.37
9840,29.4
9852,28.58
9864,25.49
9875,20.31
9886,13.73
9898,6.9
9910,0.94
9922,-3.41
9934,-6.06
9946,-7.59
9958,-8.98
9970,-11.1
9982,-14.34
9994,-18.49
10006,-22.97
10018,-27.25
10030,-31.21
10042,-35.09
10054,-39.3
10065,-44.08
10076,-49.34
10088,-54.69
10100,-59.64
10112,-63.63
10124,-66.01
10136,-65.97
10148,-62.58
10160,-55.15
10172,-43.64
10184,-28.99
10196,-12.92
10208,2.58
10220,16.13
10232,27.42
10244,37.22
10255,46.81
10266,57.14
10278,68.19
10290,78.92
10302,87.75
10314,93.27
10326,94.94
10338,93.35
10350,90.0
10362,86.76
10374,85.23
10386,86.12
10398,89.05
10410,92.54
10422,94.24
10434,91.32
10445,80.84
10456,60.6
10468,30.28
10480,-7.61
10492,-47.46
10504,-81.63
10516,-102.93
10528,-107.52
10540,-96.67
10552,-76.23
10564,-53.89
10576,-35.63
10588,-23.63
10600,-16.5
10612,-11.76
10624,-8.45
10635,-8.21
10646,-13.85
10658,-26.82
10670,-45.29
10682,-64.47
10694,-78.95
10706,-85.52
10718,-84.45
10730,-78.75
10742,-71.87
10754,-65.57
10766,-59.23
10778,-50.91
10790,-38.99
10802,-23.27
10814,-4.95
10825,14.23
10836,32.69
10848,49.28
10860,63.0
10872,72.56
10884,76.54
10896,73.84
10908,64.27
10920,48.83
10932,29.61
10944,9.44
10956,-8.59
10968,-21.79
10980,-28.37
10992,-28.0
11004,-22.01
11015,-13.02
11026,-3.85
11038,3.85
11050,10.47
11062,18.28
11074,30.59
11086,50.27
11098,78.53
11110,114.2
11122,153.81
11134,192.03
11146,222.79
11158,240.58
11170,241.66
11182,224.63
11194,190.37
11205,141.85
11216,83.91
11228,23.21
11240,-32.48
11252,-75.78
11264,-101.88
11276,-110.04
11288,-103.95
11300,-89.94
11312,-74.51
11324,-62.05
11336,-53.93
11348,-49.44
11360,-47.52
11372,-47.85
11384,-50.56
11395,-55.13
11406,-59.42
11418,-60.29
11430,-55.45
11442,-45.21
11454,-32.87
11466,-23.56
11478,-22.29
11490,-31.76
11502,-51.34
11514,-76.91
11526,-102.84
11538,-124.33
11550,-138.88
11562,-146.16
11574,-147.75
11585,-146.43
11596,-145.1
11608,-146.23
11620,-150.12
11632,-156.01
11644,-162.86
11656,-169.5
11668,-173.57
11680,-172.87
11692,-166.96
11704,-158.07
11716,-151.12
11728,-149.24
11740,-153.36
11752,-161.73
11764,-169.59
11775,-168.74
11786,-151.32
11798,-113.67
11810,-58.54
11822,4.8
11834,67.77
11846,122.78
11858,164.26
11870,190.03
11882,203.94
11894,213.3
11906,225.67
11918,246.1
11930,274.78
11942,313.02
11954,359.89
11965,411.13
11976,444.13
11988,438.11
12000,387.56
12012,306.79
12024,230.54
12036,163.74
12048,104.77
12060,51.51
12072,0.88
12084,-45.45
12096,-82.15
12108,-104.13
12120,-110.11
12132,-104.11
12144,-95.17
12155,-88.28
12166,-85.39
12178,-86.28
12190,-89.08
12202,-90.07
12214,-86.2
12226,-77.1
12238,-65.52
12250,-57.08
12262,-53.67
12274,-55.25
12286,-61.05
12298,-69.93
12310,-79.96
12322,-88.95
12334,-95.54
12345,-99.64
12356,-102.76
12368,-104.57
12380,-104.53
12392,-102.79
12404,-100.08
12416,-96.84
12428,-92.59
12440,-86.67
12452,-79.01
12464,-70.67
12476,-61.99
12488,-52.98
12500,-43.27
12512,-32.2
12524,-18.89
12535,-2.24
12546,17.6
12558,38.96
12570,59.29
12582,77.15
12594,92.48
12606,106.02
12618,118.31
12630,129.12
12642,138.41
12654,145.76
12666,150.53
12678,152.35
12690,151.65
12702,149.48
12714,146.92
12725,144.66
12736,136.36
12748,119.29
12760,95.79
12772,71.54
12784,50.98
12796,35.35
12808,23.71
12820,14.88
12832,8.29
12844,4.75
12856,4.69
12868,7.82
12880,12.36
12892,15.56
12904,15.36
12915,11.28
12926,4.17
12938,-4.78
12950,-14.86
12962,-24.79
12974,-33.72
12986,-41.98
12998,-50.34
13010,-58.91
13022,-66.86
13034,-73.02
13046,-76.55
13058,-77.24
13070,-74.99
13082,-70.0
13094,-63.61
13105,-57.5
13116,-52.66
13128,-48.9
13140,-45.26
13152,-40.62
13164,-34.14
13176,-25.41
13188,-14.52
13200,-3.42
13212,5.16
13224,8.88
13236,6.72
13248,-1.13
13260,-13.46
13272,-28.15
13284,-42.7
13295,-49.47
13306,-43.16
13318,-24.7
13330,-1.45
13342,18.33
13354,30.03
13366,33.57
13378,31.74
13390,26.45
13402,20.21
13414,13.32
13426,5.05
13438,-4.99
13450,-16.1
13462,-27.04
13474,-36.98
13485,-43.03
13496,-44.8
13508,-43.02
13520,-40.02
13532,-38.29
13544,-39.11
13556,-41.9
13568,-44.7
13580,-45.08
13592,-41.04
13604,-32.03
13616,-18.52
13628,-2.46
13640,13.75
13652,28.23
13664,40.38
13675,50.61
13686,59.81
13698,68.7
13710,77.16
13722,84.69
13734,90.38
13746,93.52
13758,93.92
13770,91.84
13782,87.43
13794,80.35
13806,69.94
13818,55.61
13830,37.83
13842,17.99
13854,-1.98
13865,-20.6
13876,-37.51
13888,-53.56
13900,-70.03
13912,-87.56
13924,-105.54
13936,-122.01
13948,-134.5
13960,-141.0
13972,-140.56
13984,-133.51
13996,-121.24
14008,-105.84
14020,-89.74
14032,-75.41
14044,-64.77
14055,-58.8
14066,-57.45
14078,-59.81
14090,-64.57
14102,-70.5
14114,-76.52
14126,-81.46
14138,-83.99
14150,-82.76
14162,-76.96
14174,-66.89
14186,-53.97
14198,-40.24
14210,-27.45
14222,-16.53
14234,-7.37
14245,0.73
14256,8.49
14268,16.37
14280,24.43
14292,32.48
14304,40.25
14316,47.44
14328,53.79
14340,59.13
14352,63.53
14364,67.3
14376,70.76
14388,73.97
14400,76.52
14412,77.71
14424,76.85
14435,73.83
14446,69.09
14458,63.5
14470,57.93
14482,53.0
14494,49.0
14506,46.09
14518,44.45
14530,44.16
14542,45.12
14554,46.7
14566,47.85
14578,47.42
14590,44.65
14602,39.53
14614,32.79
14625,25.58
14636,18.87
14648,13.14
14660,8.35
14672,4.1
14684,0.04
14696,-3.87
14708,-7.25
14720,-9.47
14732,-9.93
14744,-8.36
14756,-5.03
14768,-0.67
14780,3.78
14792,7.52
14804,10.09
14815,11.53
14826,12.14
14838,12.31
14850,12.38
14862,12.53
14874,12.86
14886,13.42
14898,14.26
14910,15.34
14922,16.47
14934,17.21
14946,16.95
14958,15.11
14970,11.38
14982,5.91
14994,-0.7
15005,-7.51
15016,-13.63
15028,-18.52
15040,-22.12
15052,-24.75
15064,-26.73
15076,-28.12
15088,-28.54
15100,-27.41
15112,-24.32
15124,-19.28
15136,-12.84
15148,-5.89
15160,0.64
15172,6.08
15184,10.13
15195,12.86
15206,14.63
15218,15.91
15230,17.11
15242,18.51
15254,20.18
15266,22.02
15278,23.84
15290,25.44
15302,26.7
15314,27.58
15326,28.07
15338,28.2
15350,28.01
15362,27.62
15374,27.14
15385,26.68
15396,26.27
15408,25.81
15420,25.18
15432,24.19
15444,22.74
15456,20.75
15468,18.29
15480,15.46
15492,12.36
15504,9.11
15516,5.83
15528,2.63
15540,-0.42
15552,-3.3
15564,-5.95
15575,-8.32
15586,-10.3
15598,-11.84
15610,-12.91
15622,-13.63
15634,-14.28
15646,-15.25
15658,-16.91
15670,-19.43
15682,-22.73
15694,-26.46
15706,-30.15
15718,-33.39
15730,-36.06
15742,-38.31
15754,-40.57
15765,-43.31
15776,-46.74
15788,-50.66
15800,-54.34
15812,-56.71
15824,-56.7
15836,-53.57
15848,-47.19
15860,-38.04
15872,-27.04
15884,-15.29
15896,-3.81
15908,6.57
15920,15.29
15932,22.02
15944,26.75
15955,29.64
15966,31.07
15978,31.44
15990,31.13
16002,30.42
16014,29.47
16026,28.38
16038,27.18
16050,25.85
16062,24.28
16074,22.44
16086,20.4
16098,18.41
16110,16.8
16122,15.86
16134,15.66
16145,16.02
16156,16.51
16168,16.65
16180,16.21
16192,15.14
16204,13.68
16216,12.11
16228,10.63
16240,9.26
16252,7.89
16264,6.31
16276,4.4
16288,2.16
16300,-0.29
16312,-2.73
16324,-4.95
16335,-6.87
16346,-8.52
16358,-10.02
16370,-11.5
16382,-13.07
16394,-14.74
16406,-16.48
16418,-18.21
16430,-19.8
16442,-21.13
16454,-22.18
16466,-23.12
16478,-24.31
16490,-26.25
16502,-29.32
16514,-33.62
16525,-38.72
16536,-43.71
16548,-47.39
16560,-48.61
16572,-46.63
16584,-41.33
16596,-33.24
16608,-23.42
16620,-13.14
16632,-3.61
16644,4.36
16656,10.38
16668,14.54
16680,17.13
16692,18.54
16704,19.07
16715,18.97
16726,18.43
16738,17.72
16750,17.15
16762,16.96
16774,17.23
16786,17.83
16798,18.47
16810,18.84
16822,18.77
16834,18.23
16846,17.37
16858,16.4
16870,15.47
16882,14.68
16894,14.05
16905,13.49
16916,12.93
16928,12.26
16940,11.39
16952,10.28
16964,8.92
16976,7.41
16988,5.86
17000,4.43
17012,3.22
17024,2.27
17036,1.5
17048,0.77
17060,-0.14
17072,-1.38
17084,-3.01
17095,-4.94
17106,-7.02
17118,-9.08
17130,-11.0
17142,-12.74
17154,-14.33
17166,-15.81
17178,-17.22
17190,-18.63
17202,-20.05
17214,-21.51
17226,-22.91
17238,-23.99
17250,-24.37
17262,-23.63
17274,-21.49
17285,-17.94
17296,-13.25
17308,-7.9
17320,-2.5
17332,2.42
17344,6.48
17356,9.51
17368,11.52
17380,12.67
17392,13.15
17404,13.16
17416,12.81
17428,12.19
17440,11.4
17452,10.56
17464,9.81
17475,9.28
17486,9.06
17498,9.07
17510,9.16
17522,9.17
17534,9.02
17546,8.74
17558,8.43
17570,8.16
17582,7.93
17594,7.65
17606,7.23
17618,6.64
17630,5.88
17642,5.02
17654,4.09
17665,3.15
17676,2.2
17688,1.21
17700,0.22
17712,-0.76
17724,-1.7
17736,-2.61
17748,-3.55
17760,-4.58
17772,-5.7
17784,-6.86
17796,-7.98
17808,-8.97
17820,-9.77
17832,-10.42
17844,-11.05
17855,-11.77
17866,-12.73
17878,-13.95
17890,-15.34
17902,-16.73
17914,-17.86
17926,-18.44
17938,-18.23
17950,-17.07
17962,-14.92
17974,-11.91
17986,-8.31
17998,-4.43
18010,-0.63
18022,2.85
18034,5.87
18045,8.37
18056,10.37
18068,11.87
18080,12.87
18092,13.37
18104,13.4
18116,13.05
18128,12.46
18140,11.72
18152,10.9
18164,10.02
18176,9.09
18188,8.15
18200,7.26
18212,6.5
18224,5.96
18235,5.68
18246,5.61
18258,5.66
18270,5.71
18282,5.67
18294,5.45
18306,5.03
18318,4.4
18330,3.58
18342,2.62
18354,1.57
18366,0.43
18378,-0.76
18390,-1.97
18402,-3.18
18414,-4.35
18425,-5.45
18436,-6.5
18448,-7.48
18460,-8.39
18472,-9.25
18484,-10.1
18496,-10.95
18508,-11.84
18520,-12.8
18532,-13.85
18544,-15.05
18556,-16.45
18568,-18.1
18580,-19.95
18592,-21.81
18604,-23.32
18615,-24.05
18626,-23.56
18638,-21.66
18650,-18.44
18662,-14.26
18674,-9.62
18686,-5.0
18698,-0.68
18710,3.18
18722,6.49
18734,9.17
18746,11.08
18758,12.07
18770,12.17
18782,11.55
18794,10.53
18805,9.45
18816,8.58
18828,8.04
18840,7.83
18852,7.86
18864,8.05
18876,8.28
18888,8.42
18900,8.4
18912,8.18
18924,7.87
18936,7.63
18948,7.6
18960,7.81
18972,8.17
18984,8.49
18995,8.57
19006,8.32
19018,7.75
19030,6.98
19042,6.16
19054,5.41
19066,4.77
19078,4.17
19090,3.5
19102,2.6
19114,1.38
19126,-0.21
19138,-2.12
19150,-4.15
19162,-6.1
19174,-7.77
19185,-9.04
19196,-9.99
19208,-10.77
19220,-11.57
19232,-12.54
19244,-13.7
19256,-14.98
19268,-16.24
19280,-17.29
19292,-17.95
19304,-18.06
19316,-17.42
19328,-15.83
19340,-13.12
19352,-9.27
19364,-4.49
19375,0.81
19386,6.05
19398,10.68
19410,14.35
19422,16.95
19434,18.62
19446,19.63
19458,20.25
19470,20.63
19482,20.79
19494,20.66
19506,20.2
19518,19.38
19530,18.35
19542,17.22
19554,16.17
19565,15.29
19576,14.63
19588,14.17
19600,13.89
19612,13.73
19624,13.63
19636,13.54
19648,13.4
19660,13.18
19672,12.89
19684,12.57
19696,12.3
19708,12.07
19720,11.86
19732,11.53
19744,10.97
19755,10.07
19766,8.82
19778,7.24
19790,5.41
19802,3.44
19814,1.41
19826,-0.59
19838,-2.46
19850,-4.13
19862,-5.6
19874,-6.96
19886,-8.39
19898,-10.07
19910,-12.08
19922,-14.29
19934,-16.35
19945,-17.78
19956,-18.06
19968,-16.85
19980,-14.04
19992,-9.78
20004,-4.45
20016,1.41
20028,7.25
20040,12.57
20052,17.0
20064,20.38
20076,22.7
20088,24.08
20100,24.69
20112,24.67
20124,24.09
20135,23.03
20146,21.58
20158,19.86
20170,18.07
20182,16.35
20194,14.8
20206,13.45
20218,12.25
20230,11.16
20242,10.17
20254,9.33
20266,8.7
20278,8.31
20290,8.1
20302,7.98
20314,7.84
20325,7.62
20336,7.35
20348,7.12
20360,6.97
20372,6.84
20384,6.63
20396,6.11
20408,5.11
20420,3.6
20432,1.6
20444,-0.69
20456,-3.07
20468,-5.33
20480,-7.32
20492,-8.97
20504,-10.33
20515,-11.5
20526,-12.67
20538,-13.98
20550,-15.56
20562,-17.42
20574,-19.45
20586,-21.41
20598,-22.97
20610,-23.7
20622,-23.24
20634,-21.32
20646,-17.87
20658,-13.08
20670,-7.32
20682,-1.09
20694,5.1
20705,10.78
20716,15.59
20728,19.29
20740,21.75
20752,22.96
20764,23.03
20776,22.2
20788,20.71
20800,18.88
20812,16.89
20824,14.9
20836,13.0
20848,11.27
20860,9.77
20872,8.56
20884,7.63
20895,6.91
20906,6.33
20918,5.81
20930,5.35
20942,5.0
20954,4.8
20966,4.78
20978,4.87
20990,4.94
