seconds,BVP
1,-25.12
13,-26.45
25,-28.7
37,-31.22
48,-33.16
59,-33.96
71,-33.67
83,-32.92
95,-32.68
107,-33.87
119,-36.97
131,-41.77
143,-47.47
155,-52.64
167,-55.59
179,-54.78
191,-49.1
203,-38.4
215,-23.47
227,-5.87
238,12.5
249,29.8
261,44.45
273,55.36
285,61.78
297,63.63
309,61.23
321,55.68
333,48.43
345,41.09
357,34.93
369,30.51
381,27.72
393,25.77
405,23.9
417,21.44
428,18.34
439,15.1
451,12.68
463,12.04
475,13.79
487,17.74
499,22.73
511,27.28
523,29.87
535,29.72
547,26.98
559,22.61
571,17.88
583,13.72
595,10.47
607,7.7
618,4.75
629,1.02
641,-3.68
653,-8.85
665,-13.7
677,-17.21
689,-18.83
701,-18.52
713,-16.99
725,-15.32
737,-14.58
749,-15.37
761,-17.52
773,-20.41
785,-23.28
797,-25.67
808,-27.56
819,-29.27
831,-31.3
843,-34.04
855,-37.8
867,-42.6
879,-48.41
891,-54.69
903,-60.37
915,-63.91
927,-63.65
939,-58.5
951,-48.32
963,-34.11
975,-17.4
987,0.04
998,16.94
1009,32.36
1021,45.54
1033,55.65
1045,61.74
1057,63.14
1069,59.91
1081,53.24
1093,45.09
1105,37.75
1117,32.89
1129,31.06
1141,31.61
1153,33.18
1165,34.4
1177,34.65
1188,34.17
1199,33.9
1211,34.64
1223,36.55
1235,38.74
1247,39.69
1259,37.98
1271,33.03
1283,25.67
1295,17.72
1307,11.33
1319,8.06
1331,8.32
1343,11.18
1355,14.92
1367,17.72
1378,18.29
1389,16.34
1401,12.45
1413,7.73
1425,3.33
1437,0.01
1449,-2.2
1461,-3.82
1473,-5.7
1485,-8.55
1497,-12.57
1509,-17.34
1521,-22.13
1533,-26.25
1545,-29.31
1557,-31.55
1568,-33.62
1579,-36.45
1591,-40.97
1603,-47.67
1615,-56.21
1627,-65.5
1639,-73.74
1651,-78.8
1663,-78.91
1675,-73.12
1687,-61.65
1699,-45.81
1711,-27.45
1723,-8.3
1735,10.18
1747,26.88
1758,40.88
1769,51.23
1781,57.15
1793,58.38
1805,55.31
1817,49.1
1829,41.36
1841,33.58
1853,26.86
1865,21.71
1877,17.99
1889,15.31
1901,13.29
1913,11.59
1925,10.08
1937,8.78
1948,7.81
1959,7.22
1971,7.07
1983,7.11
1995,7.14
2007,7.02
2019,6.64
2031,6.19
2043,5.75
2055,5.3
2067,4.55
2079,3.1
2091,0.37
2103,-3.87
2115,-9.58
2127,-16.32
2138,-23.07
2149,-28.58
2161,-31.72
2173,-31.87
2185,-29.08
2197,-24.35
2209,-19.07
2221,-14.69
2233,-12.22
2245,-11.81
2257,-12.92
2269,-14.75
2281,-16.51
2293,-17.68
2305,-18.34
2317,-18.96
2328,-20.22
2339,-22.91
2351,-27.31
2363,-33.08
2375,-38.96
2387,-43.08
2399,-43.53
2411,-39.09
2423,-29.53
2435,-15.7
2447,0.8
2459,18.2
2471,34.64
2483,48.64
2495,58.9
2507,64.55
2518,65.36
2529,61.97
2541,55.88
2553,49.03
2565,43.22
2577,39.53
2589,38.15
2601,38.44
2613,39.38
2625,40.13
2637,40.31
2649,40.11
2661,40.12
2673,40.96
2685,42.91
2697,45.66
2708,48.43
2719,50.19
2731,50.25
2743,48.49
2755,45.47
2767,42.02
2779,38.79
2791,35.85
2803,32.71
2815,28.67
2827,23.29
2839,16.86
2851,10.26
2863,4.84
2875,1.98
2887,2.62
2898,6.78
2909,13.23
2921,19.24
2933,21.3
2945,16.18
2957,2.45
2969,-18.44
2981,-42.18
2993,-63.2
3005,-76.89
3017,-81.43
3029,-78.55
3041,-72.4
3053,-67.57
3065,-67.17
3077,-71.9
3088,-80.37
3099,-90.13
3111,-98.72
3123,-104.28
3135,-105.49
3147,-101.56
3159,-92.14
3171,-77.35
3183,-57.86
3195,-35.11
3207,-11.08
3219,11.83
3231,31.11
3243,44.58
3255,50.94
3267,50.27
3278,44.12
3289,35.14
3301,26.21
3313,19.8
3325,17.08
3337,18.0
3349,21.43
3361,25.83
3373,29.9
3385,32.89
3397,34.73
3409,35.77
3421,36.46
3433,36.88
3445,36.62
3457,34.74
3468,30.13
3479,22.1
3491,10.73
3503,-3.17
3515,-18.22
3527,-33.13
3539,-47.17
3551,-60.19
3563,-72.33
3575,-83.8
3587,-94.38
3599,-103.41
3611,-110.11
3623,-113.89
3635,-114.74
3647,-113.35
3658,-110.75
3669,-107.97
3681,-105.67
3693,-103.79
3705,-101.83
3717,-99.22
3729,-95.78
3741,-92.17
3753,-89.7
3765,-89.81
3777,-93.38
3789,-100.17
3801,-108.56
3813,-115.99
3825,-119.72
3837,-117.32
3848,-107.29
3859,-88.92
3871,-61.87
3883,-26.11
3895,18.3
3907,70.87
3919,130.12
3931,193.04
3943,255.26
3955,311.49
3967,356.56
3979,386.83
3991,400.87
4003,400.11
4015,388.22
4027,369.97
4038,349.41
4049,328.61
4061,307.05
4073,282.01
4085,250.35
4097,210.07
4109,162.0
4121,109.76
4133,58.88
4145,14.78
4157,-18.92
4169,-41.39
4181,-54.31
4193,-60.52
4205,-62.89
4217,-63.21
4228,-62.28
4239,-60.31
4251,-57.45
4263,-54.19
4275,-51.25
4287,-49.22
4299,-48.09
4311,-47.09
4323,-45.03
4335,-40.83
4347,-34.19
4359,-25.69
4371,-16.97
4383,-9.98
4395,-6.53
4407,-7.5
4418,-12.81
4429,-21.59
4441,-32.71
4453,-45.53
4465,-60.07
4477,-76.95
4489,-96.52
4501,-118.26
4513,-140.1
4525,-158.8
4537,-170.68
4549,-172.93
4561,-164.67
4573,-147.46
4585,-124.75
4597,-100.65
4608,-78.88
4619,-61.7
4631,-49.89
4643,-42.89
4655,-39.44
4667,-38.02
4679,-37.25
4691,-36.05
4703,-33.69
4715,-29.97
4727,-25.4
4739,-21.1
4751,-18.35
4763,-18.06
4775,-20.19
4787,-23.57
4798,-26.43
4809,-27.25
4821,-25.5
4833,-21.83
4845,-17.91
4857,-15.45
4869,-15.38
4881,-17.4
4893,-20.1
4905,-21.78
4917,-21.33
4929,-18.76
4941,-15.02
4953,-11.76
4965,-10.31
4977,-11.18
4988,-13.82
4999,-16.9
5011,-19.06
5023,-19.52
5035,-18.57
5047,-17.17
5059,-16.51
5071,-17.35
5083,-19.77
5095,-23.46
5107,-28.06
5119,-33.54
5131,-39.97
5143,-47.11
5155,-53.82
5167,-58.16
5178,-57.72
5189,-50.69
5201,-36.63
5213,-16.75
5225,6.29
5237,29.28
5249,49.06
5261,63.42
5273,71.21
5285,72.49
5297,68.23
5309,60.0
5321,49.67
5333,39.04
5345,29.65
5357,22.43
5368,17.8
5379,15.59
5391,15.21
5403,15.85
5415,16.69
5427,17.17
5439,17.28
5451,17.27
5463,17.56
5475,18.29
5487,19.14
5499,19.41
5511,18.33
5523,15.48
5535,11.11
5547,6.13
5558,1.71
5569,-1.29
5581,-2.7
5593,-3.24
5605,-4.09
5617,-6.27
5629,-10.16
5641,-15.13
5653,-19.9
5665,-23.08
5677,-24.01
5689,-22.92
5701,-20.89
5713,-19.29
5725,-19.21
5737,-21.22
5748,-25.36
5759,-31.5
5771,-39.31
5783,-48.4
5795,-57.78
5807,-65.92
5819,-70.78
5831,-70.51
5843,-64.13
5855,-52.0
5867,-35.73
5879,-17.6
5891,0.26
5903,16.42
5915,30.22
5927,41.46
5938,49.93
5949,55.17
5961,56.56
5973,53.98
5985,48.06
5997,40.44
6009,33.27
6021,28.36
6033,26.54
6045,27.39
6057,29.47
6069,31.0
6081,30.89
6093,29.15
6105,26.74
6117,24.98
6128,24.66
6139,25.56
6151,26.68
6163,26.79
6175,25.04
6187,21.63
6199,17.5
6211,14.01
6223,12.12
6235,11.88
6247,12.4
6259,12.19
6271,9.91
6283,4.94
6295,-2.24
6307,-10.33
6318,-17.51
6329,-22.32
6341,-24.09
6353,-23.04
6365,-20.17
6377,-16.75
6389,-13.97
6401,-12.72
6413,-13.57
6425,-16.7
6437,-21.84
6449,-28.25
6461,-34.55
6473,-39.02
6485,-39.89
6497,-35.88
6508,-26.51
6519,-12.16
6531,6.0
6543,26.29
6555,46.71
6567,65.16
6579,79.61
6591,88.58
6603,91.32
6615,88.28
6627,81.04
6639,72.04
6651,63.89
6663,58.6
6675,56.96
6687,58.26
6698,60.96
6709,63.23
6721,63.81
6733,62.49
6745,60.03
6757,57.67
6769,56.54
6781,57.12
6793,59.01
6805,61.3
6817,62.86
6829,62.77
6841,60.61
6853,56.59
6865,51.44
6877,46.17
6888,41.62
6899,38.18
6911,35.75
6923,33.83
6935,31.97
6947,30.01
6959,28.13
6971,26.62
6983,25.35
6995,23.54
7007,19.82
7019,12.92
7031,2.28
7043,-11.68
7055,-27.89
7067,-45.36
7078,-63.58
7089,-82.28
7101,-100.62
7113,-116.61
7125,-127.15
7137,-129.15
7149,-121.07
7161,-103.86
7173,-80.78
7185,-56.19
7197,-33.86
7209,-15.79
7221,-2.33
7233,7.15
7245,13.26
7257,16.14
7268,15.74
7279,12.27
7291,6.59
7303,0.19
7315,-5.25
7327,-8.44
7339,-8.89
7351,-7.08
7363,-4.36
7375,-2.14
7387,-1.57
7399,-2.8
7411,-4.92
7423,-6.63
7435,-6.91
7447,-5.81
7458,-4.48
7469,-4.83
7481,-8.3
7493,-15.16
7505,-24.23
7517,-33.49
7529,-41.05
7541,-46.17
7553,-49.52
7565,-52.57
7577,-56.83
7589,-62.82
7601,-69.95
7613,-76.71
7625,-81.55
7637,-83.51
7648,-82.41
7659,-78.89
7671,-73.87
7683,-68.26
7695,-63.01
7707,-59.25
7719,-58.28
7731,-61.25
7743,-68.85
7755,-80.45
7767,-94.1
7779,-106.66
7791,-114.52
7803,-114.7
7815,-105.73
7827,-88.09
7838,-63.9
7849,-36.35
7861,-8.72
7873,16.16
7885,36.41
7897,51.06
7909,60.09
7921,64.25
7933,64.9
7945,63.76
7957,62.52
7969,62.46
7981,64.0
7993,66.79
8005,69.89
8017,72.03
8028,72.4
8039,70.73
8051,67.52
8063,63.89
8075,61.18
8087,60.29
8099,61.34
8111,63.74
8123,66.15
8135,67.43
8147,66.84
8159,64.31
8171,60.32
8183,55.54
8195,50.42
8207,45.09
8218,39.61
8229,33.85
8241,27.9
8253,21.86
8265,15.74
8277,9.41
8289,2.71
8301,-4.38
8313,-11.66
8325,-18.58
8337,-24.69
8349,-29.49
8361,-32.89
8373,-35.15
8385,-36.78
8397,-38.47
8408,-40.88
8419,-44.67
8431,-50.49
8443,-58.77
8455,-69.2
8467,-80.52
8479,-90.48
8491,-96.33
8503,-95.74
8515,-87.72
8527,-72.94
8539,-53.4
8551,-31.73
8563,-9.96
8575,10.67
8587,29.58
8598,46.17
8609,59.37
8621,67.58
8633,69.51
8645,64.94
8657,55.24
8669,43.21
8681,32.03
8693,24.06
8705,20.15
8717,19.34
8729,19.67
8741,19.23
8753,17.15
8765,13.92
8777,11.03
8788,10.06
8799,11.82
8811,16.06
8823,21.49
8835,26.55
8847,30.06
8859,31.75
8871,32.07
8883,31.86
8895,31.74
8907,31.59
8919,30.79
8931,28.28
8943,23.5
8955,16.56
8967,8.56
8978,1.1
8989,-4.24
9001,-6.68
9013,-6.63
9025,-5.35
9037,-4.62
9049,-5.7
9061,-9.05
9073,-14.22
9085,-20.25
9097,-26.32
9109,-32.19
9121,-38.26
9133,-45.16
9145,-53.27
9157,-62.09
9168,-70.14
9179,-75.32
9191,-75.61
9203,-69.88
9215,-58.2
9227,-41.83
9239,-22.54
9251,-2.19
9263,17.94
9275,37.11
9287,54.74
9299,70.06
9311,81.79
9323,88.59
9335,89.55
9347,84.83
9358,75.79
9369,64.86
9381,54.72
9393,47.43
9405,43.94
9417,43.66
9429,45.11
9441,46.56
9453,46.65
9465,45.05
9477,42.18
9489,38.91
9501,35.89
9513,33.32
9525,30.71
9537,27.45
9548,23.13
9559,17.8
9571,12.15
9583,6.97
9595,2.81
9607,-0.31
9619,-2.88
9631,-5.9
9643,-10.14
9655,-15.91
9667,-22.74
9679,-29.48
9691,-34.8
9703,-37.84
9715,-38.67
9727,-38.21
9738,-37.97
9749,-39.16
9761,-42.23
9773,-46.72
9785,-51.62
9797,-55.89
9809,-59.02
9821,-61.22
9833,-63.18
9845,-65.65
9857,-69.13
9869,-73.57
9881,-78.34
9893,-82.2
9905,-83.39
9917,-80.23
9928,-71.53
9939,-57.08
9951,-37.79
9963,-15.35
9975,8.1
9987,30.43
9999,49.81
10011,64.72
10023,74.11
10035,77.6
10047,75.67
10059,69.66
10071,61.6
10083,53.45
10095,46.62
10107,41.6
10118,38.11
10129,35.41
10141,32.73
10153,29.67
10165,26.08
10177,22.31
10189,19.03
10201,17.11
10213,17.13
10225,19.12
10237,22.31
10249,25.42
10261,27.15
10273,26.7
10285,24.23
10297,20.68
10308,17.23
10319,14.67
10331,12.93
10343,11.16
10355,8.19
10367,3.23
10379,-3.77
10391,-11.84
10403,-19.47
10415,-25.2
10427,-28.17
10439,-28.75
10451,-28.19
10463,-28.19
10475,-30.18
10487,-34.65
10498,-41.03
10509,-47.9
10521,-53.67
10533,-57.17
10545,-58.31
10557,-57.95
10569,-57.53
10581,-58.46
10593,-61.52
10605,-66.67
10617,-73.23
10629,-79.92
10641,-85.22
10653,-87.52
10665,-85.33
10677,-77.6
10688,-64.07
10699,-45.39
10711,-23.06
10723,0.89
10735,24.41
10747,45.71
10759,63.38
10771,76.44
10783,84.38
10795,87.07
10807,85.17
10819,79.96
10831,73.15
10843,66.49
10855,61.24
10867,57.91
10878,56.22
10889,55.38
10901,54.35
10913,52.36
10925,49.18
10937,45.18
10949,41.29
10961,38.58
10973,37.74
10985,38.79
10997,40.91
11009,42.85
11021,43.34
11033,41.68
11045,37.89
11057,32.73
11068,27.27
11079,22.38
11091,18.47
11103,15.24
11115,12.0
11127,7.94
11139,2.63
11151,-3.91
11163,-11.23
11175,-18.86
11187,-26.48
11199,-33.99
11211,-41.27
11223,-47.97
11235,-53.39
11247,-56.68
11258,-57.25
11269,-55.24
11281,-51.46
11293,-47.3
11305,-44.08
11317,-42.65
11329,-43.24
11341,-45.52
11353,-48.81
11365,-52.36
11377,-55.44
11389,-57.24
11401,-57.21
11413,-54.99
11425,-50.61
11437,-44.44
11448,-36.83
11459,-27.84
11471,-17.03
11483,-3.67
11495,12.71
11507,31.4
11519,50.43
11531,66.88
11543,77.84
11555,81.62
11567,78.45
11579,70.16
11591,59.52
11603,49.12
11615,40.57
11627,34.42
11638,30.51
11649,28.3
11661,27.35
11673,27.43
11685,28.37
11697,29.98
11709,31.98
11721,33.98
11733,35.55
11745,36.36
11757,36.19
11769,35.16
11781,33.59
11793,31.9
11805,30.44
11817,29.28
11828,28.09
11839,26.39
11851,23.53
11863,19.09
11875,13.01
11887,5.75
11899,-1.79
11911,-8.42
11923,-13.05
11935,-15.32
11947,-15.55
11959,-14.97
11971,-15.03
11983,-16.9
11995,-20.87
12007,-26.34
12018,-32.27
12029,-37.58
12041,-41.88
12053,-45.36
12065,-48.59
12077,-52.08
12089,-56.14
12101,-60.82
12113,-66.22
12125,-72.54
12137,-79.65
12149,-86.72
12161,-91.94
12173,-92.9
12185,-87.43
12197,-74.53
12208,-55.03
12219,-31.23
12231,-6.15
12243,17.44
12255,37.49
12267,52.76
12279,62.52
12291,66.46
12303,64.82
12315,58.5
12327,49.26
12339,39.2
12351,30.36
12363,23.87
12375,19.86
12387,17.61
12398,16.13
12409,14.61
12421,12.83
12433,11.06
12445,9.95
12457,10.4
12469,13.14
12481,18.53
12493,26.24
12505,35.14
12517,43.48
12529,49.51
12541,52.09
12553,51.23
12565,48.05
12577,44.21
12588,41.12
12599,39.29
12611,38.19
12623,36.67
12635,33.75
12647,29.31
12659,24.17
12671,19.73
12683,17.28
12695,17.35
12707,19.36
12719,21.9
12731,23.26
12743,22.05
12755,17.93
12767,11.45
12778,4.05
12789,-2.41
12801,-6.31
12813,-6.7
12825,-3.72
12837,1.27
12849,6.04
12861,8.23
12873,6.21
12885,0.03
12897,-8.13
12909,-14.25
12921,-13.62
12933,-2.53
12945,20.19
12957,52.3
12968,88.36
12979,121.22
12991,143.67
13003,150.65
13015,140.47
13027,115.28
13039,80.5
13051,43.12
13063,9.81
13075,-15.16
13087,-31.1
13099,-40.97
13111,-49.87
13123,-63.0
13135,-83.2
13147,-109.58
13158,-137.76
13169,-161.21
13181,-173.97
13193,-172.82
13205,-158.53
13217,-135.34
13229,-109.31
13241,-85.74
13253,-67.35
13265,-53.73
13277,-42.27
13289,-30.22
13301,-16.14
13313,-0.7
13325,13.92
13337,25.17
13348,31.03
13359,30.28
13371,22.28
13383,6.8
13395,-15.72
13407,-43.39
13419,-72.56
13431,-98.31
13443,-116.0
13455,-123.01
13467,-119.82
13479,-109.78
13491,-97.42
13503,-86.77
13515,-80.0
13527,-77.69
13538,-79.54
13549,-85.47
13561,-96.12
13573,-112.38
13585,-134.59
13597,-161.6
13609,-190.63
13621,-217.65
13633,-238.46
13645,-249.72
13657,-249.66
13669,-238.44
13681,-217.5
13693,-188.79
13705,-154.18
13717,-115.14
13728,-73.32
13739,-31.1
13751,7.9
13763,39.43
13775,59.79
13787,67.44
13799,63.92
13811,53.57
13823,42.2
13835,35.26
13847,36.02
13859,44.84
13871,59.45
13883,76.13
13895,91.44
13907,103.2
13918,111.06
13929,116.11
13941,119.95
13953,123.53
13965,126.52
13977,127.32
13989,123.88
14001,114.75
14013,99.97
14025,81.32
14037,62.3
14049,47.27
14061,40.5
14073,45.23
14085,62.56
14097,91.16
14108,127.4
14119,166.49
14131,203.87
14143,236.45
14155,263.03
14167,283.74
14179,299.12
14191,308.73
14203,310.92
14215,303.18
14227,283.21
14239,250.59
14251,207.96
14263,161.41
14275,119.53
14287,91.22
14298,82.31
14309,92.94
14321,116.96
14333,143.83
14345,162.94
14357,168.07
14369,159.67
14381,143.79
14393,128.39
14405,118.54
14417,113.95
14429,109.65
14441,99.38
14453,79.64
14465,51.74
14477,20.9
14488,-7.09
14499,-29.2
14511,-46.79
14523,-64.34
14535,-86.47
14547,-115.0
14559,-147.49
14571,-178.5
14583,-202.1
14595,-214.61
14607,-216.04
14619,-209.66
14631,-200.12
14643,-191.51
14655,-186.01
14667,-183.4
14678,-182.06
14689,-179.98
14701,-175.76
14713,-169.28
14725,-161.59
14737,-154.21
14749,-148.37
14761,-144.56
14773,-142.27
14785,-140.4
14797,-137.83
14809,-133.67
14821,-127.45
14833,-119.01
14845,-108.34
14857,-95.71
14868,-81.75
14879,-67.49
14891,-54.14
14903,-42.43
14915,-32.07
14927,-21.42
14939,-8.0
14951,10.46
14963,34.93
14975,64.56
14987,97.0
14999,129.36
15011,159.16
15023,184.89
15035,205.81
15047,221.5
15058,231.2
15069,233.97
15081,229.18
15093,217.43
15105,200.63
15117,181.69
15129,163.62
15141,148.54
15153,137.27
15165,129.38
15177,123.8
15189,119.51
15201,115.99
15213,112.92
15225,109.93
15237,106.26
15248,101.21
15259,94.72
15271,87.97
15283,83.28
15295,83.24
15307,89.69
15319,103.03
15331,122.24
15343,145.39
15355,170.21
15367,194.14
15379,214.2
15391,227.03
15403,229.08
15415,217.75
15427,192.51
15438,155.33
15449,110.12
15461,61.45
15473,13.13
15485,-32.61
15497,-74.88
15509,-113.72
15521,-149.49
15533,-182.47
15545,-213.13
15557,-242.41
15569,-271.88
15581,-303.64
15593,-339.54
15605,-380.13
15617,-424.02
15628,-467.78
15639,-506.59
15651,-535.96
15663,-553.06
15675,-557.59
15687,-551.72
15699,-538.96
15711,-522.71
15723,-505.55
15735,-488.8
15747,-472.6
15759,-456.49
15771,-439.22
15783,-419.02
15795,-393.75
15807,-361.45
15818,-321.06
15829,-273.09
15841,-219.72
15853,-164.19
15865,-110.0
15877,-59.74
15889,-14.6
15901,25.83
15913,63.37
15925,100.61
15937,139.85
15949,182.04
15961,225.81
15973,267.28
15985,301.05
15997,321.91
16008,326.73
16019,315.94
16031,293.26
16043,264.38
16055,234.88
16067,208.51
16079,186.43
16091,167.62
16103,150.05
16115,131.72
16127,111.72
16139,90.19
16151,68.47
16163,48.68
16175,33.26
16187,24.46
16198,23.59
16209,30.61
16221,44.03
16233,61.33
16245,79.48
16257,95.84
16269,108.88
16281,118.02
16293,123.62
16305,126.13
16317,125.73
16329,122.14
16341,114.89
16353,103.97
16365,90.2
16377,75.46
16388,61.91
16399,51.36
16411,44.46
16423,40.69
16435,38.79
16447,37.52
16459,36.4
16471,35.54
16483,35.4
16495,36.09
16507,36.98
16519,36.76
16531,34.02
16543,27.92
16555,18.64
16567,7.65
16578,-2.84
16589,-10.53
16601,-13.89
16613,-12.79
16625,-8.57
16637,-3.54
16649,0.13
16661,1.2
16673,-0.09
16685,-2.44
16697,-4.21
16709,-4.33
16721,-2.73
16733,-0.24
16745,1.55
16757,1.09
16768,-2.67
16779,-10.05
16791,-20.61
16803,-33.16
16815,-46.23
16827,-58.15
16839,-67.23
16851,-71.95
16863,-71.0
16875,-63.38
16887,-48.67
16899,-27.61
16911,-2.03
16923,25.11
16935,50.48
16947,71.25
16958,85.66
16969,93.32
16981,94.75
16993,90.9
17005,82.7
17017,70.99
17029,56.74
17041,41.28
17053,26.34
17065,13.65
17077,4.52
17089,-0.69
17101,-2.65
17113,-2.44
17125,-1.1
17137,0.95
17148,3.98
17159,8.44
17171,14.4
17183,21.39
17195,28.31
17207,34.13
17219,38.4
17231,41.35
17243,43.79
17255,46.38
17267,49.22
17279,51.57
17291,52.23
17303,50.12
17315,44.89
17327,37.23
17338,28.48
17349,20.3
17361,13.8
17373,9.14
17385,5.52
17397,1.76
17409,-2.95
17421,-8.42
17433,-13.41
17445,-16.43
17457,-16.5
17469,-14.01
17481,-10.74
17493,-9.1
17505,-11.11
17517,-17.59
17528,-27.93
17539,-40.55
17551,-53.59
17563,-65.36
17575,-74.65
17587,-80.57
17599,-82.52
17611,-80.29
17623,-74.22
17635,-64.99
17647,-53.46
17659,-40.29
17671,-25.8
17683,-10.23
17695,6.0
17707,22.04
17718,36.63
17729,48.6
17741,57.36
17753,62.95
17765,65.76
17777,66.2
17789,64.37
17801,60.29
17813,54.28
17825,47.17
17837,40.36
17849,35.23
17861,32.57
17873,32.24
17885,33.34
17897,34.76
17908,35.65
17919,35.63
17931,34.57
17943,32.68
17955,30.04
17967,26.82
17979,23.28
17991,19.81
18003,16.73
18015,14.01
18027,11.22
18039,7.5
18051,2.27
18063,-4.72
18075,-12.95
18087,-21.28
18098,-28.49
18109,-33.64
18121,-36.62
18133,-37.92
18145,-38.48
18157,-39.19
18169,-40.53
18181,-42.49
18193,-44.54
18205,-46.2
18217,-47.18
18229,-47.72
18241,-48.49
18253,-50.23
18265,-53.45
18277,-58.06
18288,-63.41
18299,-68.59
18311,-73.04
18323,-76.69
18335,-80.26
18347,-84.84
18359,-91.33
18371,-100.14
18383,-110.69
18395,-121.48
18407,-130.23
18419,-134.48
18431,-131.94
18443,-121.34
18455,-102.75
18467,-77.56
18478,-48.41
18489,-18.31
18501,9.78
18513,33.73
18525,52.33
18537,65.5
18549,73.93
18561,78.75
18573,81.16
18585,81.89
18597,81.21
18609,78.88
18621,74.69
18633,68.78
18645,61.96
18657,55.3
18668,49.83
18679,45.93
18691,43.1
18703,40.59
18715,37.81
18727,34.89
18739,32.64
18751,32.08
18763,33.57
18775,36.6
18787,39.78
18799,41.41
18811,40.44
18823,36.72
18835,31.07
18847,24.84
18858,19.3
18869,15.26
18881,12.74
18893,11.27
18905,10.12
18917,8.78
18929,7.01
18941,5.0
18953,3.08
18965,1.57
18977,0.6
18989,-0.06
19001,-0.68
19013,-1.64
19025,-3.18
19037,-5.58
19048,-8.93
19059,-13.29
19071,-18.64
19083,-24.78
19095,-31.45
19107,-38.36
19119,-45.16
19131,-51.51
19143,-57.06
19155,-61.35
19167,-64.02
19179,-65.03
19191,-64.75
19203,-63.93
19215,-63.56
19227,-64.36
19238,-66.76
19249,-70.57
19261,-75.16
19273,-79.63
19285,-82.82
19297,-83.41
19309,-79.98
19321,-71.25
19333,-56.39
19345,-35.56
19357,-9.84
19369,18.68
19381,47.3
19393,73.26
19405,94.22
19417,108.59
19428,115.91
19439,116.74
19451,112.39
19463,104.53
19475,94.75
19487,84.2
19499,73.65
19511,63.63
19523,54.62
19535,47.2
19547,41.91
19559,39.03
19571,38.37
19583,39.38
19595,41.19
19607,43.11
19618,44.53
19629,45.05
19641,44.4
19653,42.37
19665,38.97
19677,34.54
19689,29.77
19701,25.44
19713,22.5
19725,21.44
19737,22.13
19749,23.74
19761,24.9
19773,24.19
19785,20.71
19797,14.31
19808,5.8
19819,-3.28
19831,-11.31
19843,-17.11
19855,-20.35
19867,-21.75
19879,-22.49
19891,-23.72
19903,-26.09
19915,-29.47
19927,-33.26
19939,-36.8
19951,-39.78
19963,-42.36
19975,-45.11
19987,-48.39
19998,-52.11
20009,-55.65
20021,-58.19
20033,-59.19
20045,-58.77
20057,-57.66
20069,-57.05
20081,-58.18
20093,-61.96
20105,-68.77
20117,-78.21
20129,-89.11
20141,-99.43
20153,-106.6
20165,-107.84
20177,-101.13
20188,-85.78
20199,-62.78
20211,-34.58
20223,-4.48
20235,24.37
20247,49.44
20259,69.1
20271,82.7
20283,90.35
20295,92.84
20307,91.54
20319,88.07
20331,83.91
20343,80.03
20355,76.69
20367,73.41
20378,69.45
20389,64.23
20401,57.71
20413,50.44
20425,43.33
20437,37.46
20449,33.58
20461,32.16
20473,33.12
20485,35.93
20497,39.69
20509,43.23
20521,45.37
20533,45.22
20545,42.49
20557,37.61
20568,31.55
20579,25.46
20591,20.18
20603,15.95
20615,12.31
20627,8.51
20639,3.89
20651,-1.77
20663,-8.03
20675,-14.15
20687,-19.22
20699,-22.62
20711,-24.28
20723,-24.7
20735,-24.74
20747,-25.5
20758,-27.85
20769,-32.11
20781,-38.03
20793,-44.77
20805,-51.45
20817,-57.46
20829,-62.77
20841,-67.75
20853,-72.95
20865,-78.61
20877,-84.42
20889,-89.65
20901,-93.4
20913,-94.98
20925,-94.2
20937,-91.44
20948,-87.61
20959,-83.94
20971,-81.78
20983,-82.23
20995,-85.71
