seconds,BVP
8,-38.64
20,-44.17
32,-48.41
44,-49.9
56,-47.5
68,-40.9
80,-30.76
92,-18.51
103,-5.85
114,5.8
126,15.59
138,23.26
150,28.87
162,32.6
174,34.55
186,34.77
198,33.43
210,30.86
222,27.61
234,24.26
246,21.31
258,18.98
270,17.32
282,16.24
293,15.62
304,15.42
316,15.7
328,16.47
340,17.63
352,18.89
364,19.82
376,20.02
388,19.22
400,17.44
412,14.94
424,12.1
436,9.31
448,6.8
460,4.62
472,2.58
483,0.38
494,-2.31
506,-5.69
518,-9.66
530,-13.9
542,-17.91
554,-21.24
566,-23.71
578,-25.47
590,-27.02
602,-29.02
614,-32.06
626,-36.47
638,-42.15
650,-48.46
662,-54.25
673,-58.11
684,-58.73
696,-55.33
708,-48.0
720,-37.69
732,-25.91
744,-14.19
756,-3.67
768,5.1
780,12.09
792,17.49
804,21.45
816,24.01
828,25.17
840,25.02
852,23.83
863,22.06
874,20.22
886,18.79
898,18.11
910,18.29
922,19.25
934,20.76
946,22.47
958,24.13
970,25.6
982,26.9
994,28.11
1006,29.25
1018,30.19
1030,30.63
1042,30.21
1053,28.75
1064,26.28
1076,23.17
1088,19.88
1100,16.84
1112,14.22
1124,11.86
1136,9.44
1148,6.57
1160,3.05
1172,-1.05
1184,-5.42
1196,-9.61
1208,-13.24
1220,-16.09
1232,-18.16
1243,-19.71
1254,-21.17
1266,-22.98
1278,-25.53
1290,-29.02
1302,-33.41
1314,-38.35
1326,-43.23
1338,-47.15
1350,-49.11
1362,-48.24
1374,-44.03
1386,-36.55
1398,-26.52
1410,-15.11
1422,-3.65
1433,6.72
1444,15.28
1456,21.79
1468,26.26
1480,28.85
1492,29.68
1504,28.91
1516,26.77
1528,23.71
1540,20.35
1552,17.3
1564,15.05
1576,13.79
1588,13.43
1600,13.73
1612,14.43
1623,15.43
1634,16.68
1646,18.21
1658,19.94
1670,21.66
1682,23.02
1694,23.66
1706,23.33
1718,21.96
1730,19.75
1742,17.08
1754,14.33
1766,11.79
1778,9.54
1790,7.37
1802,5.02
1813,2.2
1824,-1.14
1836,-4.8
1848,-8.41
1860,-11.58
1872,-14.04
1884,-15.79
1896,-17.0
1908,-18.01
1920,-19.21
1932,-21.01
1944,-23.63
1956,-27.1
1968,-31.01
1980,-34.58
1992,-36.77
2003,-36.55
2014,-33.28
2026,-26.98
2038,-18.31
2050,-8.42
2062,1.46
2074,10.32
2086,17.55
2098,22.91
2110,26.37
2122,28.04
2134,27.97
2146,26.32
2158,23.38
2170,19.61
2182,15.6
2193,11.97
2204,9.18
2216,7.44
2228,6.71
2240,6.8
2252,7.48
2264,8.55
2276,9.88
2288,11.28
2300,12.49
2312,13.22
2324,13.2
2336,12.34
2348,10.78
2360,8.78
2372,6.64
2383,4.49
2394,2.32
2406,-0.03
2418,-2.66
2430,-5.58
2442,-8.63
2454,-11.64
2466,-14.47
2478,-17.07
2490,-19.46
2502,-21.72
2514,-23.99
2526,-26.48
2538,-29.47
2550,-33.26
2562,-37.92
2573,-43.06
2584,-47.78
2596,-50.76
2608,-50.7
2620,-46.84
2632,-39.3
2644,-29.02
2656,-17.46
2668,-6.06
2680,4.18
2692,12.8
2704,19.71
2716,24.96
2728,28.51
2740,30.28
2752,30.2
2763,28.44
2774,25.45
2786,21.91
2798,18.46
2810,15.62
2822,13.6
2834,12.35
2846,11.67
2858,11.38
2870,11.41
2882,11.81
2894,12.6
2906,13.69
2918,14.81
2930,15.58
2942,15.71
2953,15.1
2964,13.92
2976,12.44
2988,10.87
3000,9.23
3012,7.33
3024,4.96
3036,1.96
3048,-1.62
3060,-5.53
3072,-9.48
3084,-13.19
3096,-16.54
3108,-19.49
3120,-22.13
3132,-24.65
3143,-27.31
3154,-30.42
3166,-34.28
3178,-38.97
3190,-44.17
3202,-49.05
3214,-52.42
3226,-53.03
3238,-49.98
3250,-43.09
3262,-33.0
3274,-20.94
3286,-8.43
3298,3.23
3310,13.15
3322,20.96
3333,26.69
3344,30.54
3356,32.7
3368,33.33
3380,32.56
3392,30.61
3404,27.85
3416,24.78
3428,21.94
3440,19.74
3452,18.36
3464,17.74
3476,17.68
3488,18.02
3500,18.73
3512,19.85
3523,21.41
3534,23.23
3546,24.92
3558,25.96
3570,25.94
3582,24.74
3594,22.58
3606,19.89
3618,17.12
3630,14.46
3642,11.85
3654,9.06
3666,5.82
3678,2.07
3690,-2.08
3702,-6.34
3713,-10.38
3724,-13.98
3736,-16.97
3748,-19.34
3760,-21.19
3772,-22.78
3784,-24.53
3796,-26.94
3808,-30.4
3820,-34.96
3832,-40.07
3844,-44.58
3856,-47.03
3868,-46.13
3880,-41.21
3892,-32.59
3903,-21.41
3914,-9.32
3926,2.13
3938,11.82
3950,19.35
3962,24.79
3974,28.5
3986,30.78
3998,31.76
4010,31.5
4022,30.1
4034,27.85
4046,25.2
4058,22.63
4070,20.51
4082,18.98
4093,17.99
4104,17.39
4116,17.12
4128,17.22
4140,17.84
4152,19.04
4164,20.71
4176,22.47
4188,23.81
4200,24.23
4212,23.42
4224,21.39
4236,18.45
4248,15.08
4260,11.75
4272,8.77
4283,6.19
4294,3.84
4306,1.41
4318,-1.38
4330,-4.63
4342,-8.19
4354,-11.76
4366,-14.97
4378,-17.53
4390,-19.4
4402,-20.75
4414,-21.98
4426,-23.55
4438,-25.9
4450,-29.31
4462,-33.8
4473,-39.01
4484,-44.17
4496,-48.14
4508,-49.68
4520,-47.8
4532,-42.15
4544,-33.21
4556,-22.17
4568,-10.53
4580,0.37
4592,9.67
4604,17.11
4616,22.77
4628,26.86
4640,29.43
4652,30.4
4663,29.72
4674,27.51
4686,24.22
4698,20.46
4710,16.92
4722,14.1
4734,12.29
4746,11.49
4758,11.55
4770,12.25
4782,13.4
4794,14.82
4806,16.33
4818,17.71
4830,18.71
4842,19.1
4853,18.76
4864,17.78
4876,16.39
4888,14.9
4900,13.49
4912,12.21
4924,10.84
4936,9.1
4948,6.76
4960,3.79
4972,0.41
4984,-3.0
4996,-6.06
5008,-8.51
5020,-10.37
5032,-11.88
5043,-13.5
5054,-15.69
5066,-18.8
5078,-22.8
5090,-27.22
5102,-31.12
5114,-33.36
5126,-32.93
5138,-29.38
5150,-22.96
5162,-14.51
5174,-5.26
5186,3.68
5198,11.53
5210,17.97
5222,22.96
5233,26.56
5244,28.74
5256,29.38
5268,28.35
5280,25.7
5292,21.79
5304,17.27
5316,12.95
5328,9.57
5340,7.6
5352,7.1
5364,7.72
5376,8.94
5388,10.23
5400,11.24
5412,11.89
5423,12.25
5434,12.41
5446,12.37
5458,11.93
5470,10.81
5482,8.76
5494,5.71
5506,1.82
5518,-2.55
5530,-6.98
5542,-11.1
5554,-14.77
5566,-18.04
5578,-21.13
5590,-24.33
5602,-27.95
5613,-32.19
5624,-37.18
5636,-42.76
5648,-48.44
5660,-53.24
5672,-55.93
5684,-55.32
5696,-50.78
5708,-42.5
5720,-31.53
5732,-19.43
5744,-7.72
5756,2.5
5768,10.74
5780,17.0
5792,21.5
5803,24.4
5814,25.73
5826,25.48
5838,23.71
5850,20.7
5862,16.91
5874,12.96
5886,9.47
5898,6.9
5910,5.44
5922,4.99
5934,5.21
5946,5.71
5958,6.14
5970,6.37
5982,6.39
5993,6.29
6004,6.11
6016,5.77
6028,5.01
6040,3.57
6052,1.18
6064,-2.2
6076,-6.36
6088,-10.92
6100,-15.41
6112,-19.48
6124,-23.0
6136,-26.06
6148,-28.95
6160,-31.98
6172,-35.48
6183,-39.69
6194,-44.71
6206,-50.4
6218,-56.21
6230,-61.12
6242,-63.83
6254,-63.04
6266,-58.04
6278,-48.94
6290,-36.78
6302,-23.15
6314,-9.74
6326,2.19
6338,11.96
6350,19.42
6362,24.68
6373,27.89
6384,29.15
6396,28.56
6408,26.38
6420,23.06
6432,19.19
6444,15.43
6456,12.34
6468,10.25
6480,9.3
6492,9.36
6504,10.23
6516,11.62
6528,13.3
6540,15.11
6552,16.89
6563,18.49
6574,19.77
6586,20.5
6598,20.53
6610,19.72
6622,18.0
6634,15.34
6646,11.83
6658,7.61
6670,2.96
6682,-1.75
6694,-6.16
6706,-10.05
6718,-13.4
6730,-16.41
6742,-19.36
6753,-22.59
6764,-26.37
6776,-30.85
6788,-36.07
6800,-41.74
6812,-47.22
6824,-51.43
6836,-53.07
6848,-51.05
6860,-44.87
6872,-34.91
6884,-22.35
6896,-8.82
6908,4.1
6920,15.31
6932,24.28
6943,30.98
6954,35.6
6966,38.34
6978,39.3
6990,38.62
7002,36.51
7014,33.4
7026,29.86
7038,26.49
7050,23.74
7062,21.85
7074,20.82
7086,20.54
7098,20.86
7110,21.66
7122,22.79
7133,24.04
7144,25.08
7156,25.55
7168,25.16
7180,23.86
7192,21.8
7204,19.3
7216,16.66
7228,13.99
7240,11.24
7252,8.24
7264,4.82
7276,1.0
7288,-3.07
7300,-7.14
7312,-10.95
7323,-14.39
7334,-17.51
7346,-20.49
7358,-23.61
7370,-27.2
7382,-31.48
7394,-36.51
7406,-41.94
7418,-46.97
7430,-50.46
7442,-51.13
7454,-48.03
7466,-40.89
7478,-30.28
7490,-17.49
7502,-4.11
7513,8.43
7524,19.18
7536,27.75
7548,34.17
7560,38.63
7572,41.24
7584,42.03
7596,41.01
7608,38.43
7620,34.74
7632,30.63
7644,26.79
7656,23.7
7668,21.57
7680,20.32
7692,19.74
7703,19.68
7714,20.07
7726,20.88
7738,21.97
7750,23.06
7762,23.71
7774,23.53
7786,22.38
7798,20.42
7810,18.05
7822,15.71
7834,13.62
7846,11.74
7858,9.8
7870,7.45
7882,4.48
7893,0.91
7904,-3.04
7916,-7.03
7928,-10.74
7940,-13.99
7952,-16.7
7964,-19.0
7976,-21.15
7988,-23.54
8000,-26.6
8012,-30.62
8024,-35.56
8036,-40.88
8048,-45.56
8060,-48.28
8072,-47.83
8083,-43.55
8094,-35.62
8106,-24.96
8118,-13.03
8130,-1.26
8142,9.27
8154,18.01
8166,24.86
8178,29.93
8190,33.27
8202,34.84
8214,34.56
8226,32.51
8238,29.06
8250,24.86
8262,20.69
8273,17.22
8284,14.85
8296,13.69
8308,13.58
8320,14.24
8332,15.39
8344,16.78
8356,18.18
8368,19.38
8380,20.18
8392,20.41
8404,20.05
8416,19.16
8428,17.89
8440,16.34
8452,14.54
8463,12.39
8474,9.83
8486,6.85
8498,3.64
8510,0.44
8522,-2.46
8534,-4.9
8546,-6.87
8558,-8.51
8570,-10.06
8582,-11.83
8594,-14.12
8606,-17.09
8618,-20.65
8630,-24.3
8642,-27.12
8653,-27.94
8664,-25.73
8676,-20.0
8688,-11.04
8700,0.12
8712,12.02
8724,23.24
8736,32.81
8748,40.29
8760,45.7
8772,49.22
8784,50.99
8796,51.04
8808,49.36
8820,46.0
8832,41.23
8843,35.49
8854,29.37
8866,23.37
8878,17.9
8890,13.1
8902,8.94
8914,5.29
8926,2.02
8938,-0.87
8950,-3.32
8962,-5.24
8974,-6.65
8986,-7.74
8998,-8.92
9010,-10.63
9022,-13.22
9033,-16.73
9044,-20.9
9056,-25.24
9068,-29.27
9080,-32.69
9092,-35.53
9104,-38.08
9116,-40.76
9128,-43.95
9140,-47.91
9152,-52.65
9164,-57.95
9176,-63.23
9188,-67.58
9200,-69.84
9212,-68.88
9223,-63.98
9234,-55.19
9246,-43.42
9258,-30.21
9270,-17.25
9282,-5.82
9294,3.44
9306,10.53
9318,15.77
9330,19.45
9342,21.7
9354,22.45
9366,21.69
9378,19.65
9390,16.88
9402,14.13
9413,12.11
9424,11.28
9436,11.75
9448,13.24
9460,15.28
9472,17.38
9484,19.18
9496,20.54
9508,21.49
9520,22.17
9532,22.7
9544,23.06
9556,23.11
9568,22.63
9580,21.44
9592,19.48
9603,16.93
9614,14.09
9626,11.3
9638,8.81
9650,6.64
9662,4.58
9674,2.29
9686,-0.64
9698,-4.54
9710,-9.64
9722,-15.99
9734,-23.35
9746,-31.08
9758,-38.14
9770,-43.18
9782,-44.94
9793,-42.64
9804,-36.32
9816,-26.91
9828,-15.91
9840,-4.95
9852,4.69
9864,12.37
9876,17.94
9888,21.58
9900,23.5
9912,23.78
9924,22.52
9936,19.98
9948,16.6
9960,13.02
9972,9.8
9983,7.32
9994,5.63
10006,4.62
10018,4.11
10030,4.06
10042,4.57
10054,5.69
10066,7.38
10078,9.32
10090,11.03
10102,12.0
10114,11.95
10126,10.84
10138,8.93
10150,6.59
10162,4.19
10173,1.88
10184,-0.37
10196,-2.8
10208,-5.65
10220,-9.05
10232,-12.9
10244,-16.89
10256,-20.61
10268,-23.77
10280,-26.3
10292,-28.39
10304,-30.49
10316,-33.11
10328,-36.72
10340,-41.5
10352,-47.23
10363,-53.14
10374,-58.03
10386,-60.4
10398,-59.01
10410,-53.27
10422,-43.5
10434,-30.93
10446,-17.28
10458,-4.28
10470,6.79
10482,15.35
10494,21.37
10506,25.19
10518,27.19
10530,27.71
10542,26.98
10553,25.24
10564,22.82
10576,20.14
10588,17.68
10600,15.86
10612,14.91
10624,14.88
10636,15.62
10648,16.85
10660,18.36
10672,20.0
10684,21.71
10696,23.43
10708,25.02
10720,26.27
10732,26.84
10743,26.46
10754,24.95
10766,22.35
10778,18.94
10790,15.16
10802,11.5
10814,8.35
10826,5.81
10838,3.68
10850,1.58
10862,-0.92
10874,-4.03
10886,-7.66
10898,-11.46
10910,-15.02
10922,-18.02
10933,-20.39
10944,-22.31
10956,-24.07
10968,-26.0
10980,-28.42
10992,-31.6
11004,-35.72
11016,-40.68
11028,-45.95
11040,-50.43
11052,-52.71
11064,-51.42
11076,-45.85
11088,-36.28
11100,-23.94
11112,-10.58
11123,2.13
11134,13.08
11146,21.83
11158,28.46
11170,33.22
11182,36.23
11194,37.48
11206,36.99
11218,35.01
11230,32.02
11242,28.68
11254,25.6
11266,23.19
11278,21.65
11290,20.96
11302,21.05
11313,21.81
11324,23.11
11336,24.79
11348,26.59
11360,28.23
11372,29.47
11384,30.12
11396,30.12
11408,29.5
11420,28.32
11432,26.64
11444,24.52
11456,22.03
11468,19.33
11480,16.55
11492,13.86
11503,11.32
11514,8.91
11526,6.55
11538,4.15
11550,1.68
11562,-0.87
11574,-3.44
11586,-5.94
11598,-8.29
11610,-10.43
11622,-12.35
11634,-14.07
11646,-15.68
11658,-17.3
11670,-19.15
11682,-21.49
11693,-24.59
11704,-28.56
11716,-33.19
11728,-37.8
11740,-41.29
11752,-42.35
11764,-39.94
11776,-33.68
11788,-24.04
11800,-12.28
11812,0.05
11824,11.53
11836,21.27
11848,28.95
11860,34.62
11872,38.45
11883,40.57
11894,41.02
11906,39.9
11918,37.44
11930,34.1
11942,30.45
11954,27.06
11966,24.36
11978,22.52
11990,21.43
12002,20.76
12014,20.2
12026,19.56
12038,18.87
12050,18.33
12062,18.12
12073,18.25
12084,18.43
12096,18.24
12108,17.27
12120,15.33
12132,12.58
12144,9.42
12156,6.29
12168,3.47
12180,0.97
12192,-1.44
12204,-4.08
12216,-7.18
12228,-10.76
12240,-14.56
12252,-18.17
12263,-21.17
12274,-23.33
12286,-24.72
12298,-25.66
12310,-26.63
12322,-28.08
12334,-30.36
12346,-33.57
12358,-37.52
12370,-41.6
12382,-44.95
12394,-46.46
12406,-45.19
12418,-40.64
12430,-33.01
12442,-23.19
12453,-12.44
12464,-2.05
12476,7.04
12488,14.34
12500,19.72
12512,23.2
12524,24.87
12536,24.8
12548,23.16
12560,20.25
12572,16.54
12584,12.59
12596,8.96
12608,6.12
12620,4.36
12632,3.8
12643,4.34
12654,5.7
12666,7.47
12678,9.24
12690,10.68
12702,11.62
12714,12.02
12726,11.97
12738,11.53
12750,10.76
12762,9.62
12774,8.06
12786,6.0
12798,3.43
12810,0.38
12822,-3.06
12833,-6.76
12844,-10.55
12856,-14.25
12868,-17.7
12880,-20.85
12892,-23.77
12904,-26.66
12916,-29.86
12928,-33.65
12940,-38.16
12952,-43.12
12964,-47.81
12976,-51.09
12988,-51.71
13000,-48.75
13012,-41.99
13023,-32.04
13034,-20.22
13046,-8.12
13058,2.87
13070,11.92
13082,18.8
13094,23.67
13106,26.81
13118,28.37
13130,28.37
13142,26.84
13154,23.97
13166,20.23
13178,16.24
13190,12.6
13202,9.76
13213,7.92
13224,7.05
13236,7.05
13248,7.77
13260,9.06
13272,10.74
13284,12.53
13296,14.07
13308,15.03
13320,15.17
13332,14.44
13344,12.97
13356,10.95
13368,8.56
13380,5.87
13392,2.88
13403,-0.47
13414,-4.21
13426,-8.24
13438,-12.4
13450,-16.45
13462,-20.2
13474,-23.54
13486,-26.56
13498,-29.49
13510,-32.71
13522,-36.65
13534,-41.52
13546,-47.19
13558,-53.0
13570,-57.74
13582,-59.98
13593,-58.47
13604,-52.66
13616,-42.95
13628,-30.59
13640,-17.28
13652,-4.59
13664,6.38
13676,15.19
13688,21.84
13700,26.53
13712,29.42
13724,30.6
13736,30.17
13748,28.39
13760,25.67
13772,22.58
13783,19.64
13794,17.26
13806,15.64
13818,14.8
13830,14.68
13842,15.19
13854,16.25
13866,17.74
13878,19.43
13890,20.96
13902,21.91
13914,21.95
13926,20.97
13938,19.17
13950,16.93
13962,14.66
13973,12.55
13984,10.51
13996,8.22
14008,5.34
14020,1.68
14032,-2.66
14044,-7.35
14056,-11.94
14068,-16.03
14080,-19.36
14092,-21.87
14104,-23.77
14116,-25.43
14128,-27.38
14140,-30.19
14152,-34.23
14163,-39.46
14174,-45.21
14186,-50.22
14198,-52.98
14210,-52.15
14222,-47.12
14234,-38.26
14246,-26.77
14258,-14.28
14270,-2.31
14282,8.15
14294,16.67
14306,23.24
14318,27.98
14330,30.99
14342,32.27
14353,31.92
14364,30.19
14376,27.59
14388,24.77
14400,22.33
14412,20.67
14424,19.9
14436,19.84
14448,20.25
14460,20.91
14472,21.71
14484,22.65
14496,23.76
14508,24.94
14520,25.97
14532,26.5
14543,26.25
14554,25.08
14566,23.08
14578,20.5
14590,17.67
14602,14.9
14614,12.39
14626,10.17
14638,8.11
14650,5.94
14662,3.36
14674,0.2
14686,-3.51
14698,-7.49
14710,-11.3
14722,-14.54
14733,-17.01
14744,-18.82
14756,-20.35
14768,-22.11
14780,-24.55
14792,-27.97
14804,-32.37
14816,-37.37
14828,-42.16
14840,-45.6
14852,-46.43
14864,-43.65
14876,-37.0
14888,-27.07
14900,-15.22
14912,-3.13
14923,7.71
14934,16.47
14946,22.96
14958,27.42
14970,30.18
14982,31.44
14994,31.22
15006,29.55
15018,26.65
15030,23.05
15042,19.44
15054,16.49
15066,14.6
15078,13.8
15090,13.86
15102,14.4
15113,15.13
15124,15.92
15136,16.83
15148,17.91
15160,19.11
15172,20.19
15184,20.79
15196,20.58
15208,19.45
15220,17.53
15232,15.17
15244,12.77
15256,10.62
15268,8.73
15280,6.92
15292,4.91
15303,2.49
15314,-0.36
15326,-3.42
15338,-6.36
15350,-8.88
15362,-10.84
15374,-12.32
15386,-13.58
15398,-14.97
15410,-16.9
15422,-19.7
15434,-23.54
15446,-28.27
15458,-33.3
15470,-37.59
15482,-39.83
15493,-38.9
15504,-34.32
15516,-26.44
15528,-16.45
15540,-5.89
15552,3.82
15564,11.81
15576,17.81
15588,21.98
15600,24.59
15612,25.8
15624,25.62
15636,24.04
15648,21.26
15660,17.73
15672,14.07
15683,10.96
15694,8.86
15706,7.94
15718,8.06
15730,8.91
15742,10.09
15754,11.27
15766,12.2
15778,12.74
15790,12.83
15802,12.47
15814,11.72
15826,10.65
15838,9.33
15850,7.78
15862,5.98
15873,3.84
15884,1.33
15896,-1.55
15908,-4.68
15920,-7.88
15932,-10.95
15944,-13.75
15956,-16.27
15968,-18.62
15980,-21.01
15992,-23.69
16004,-26.91
16016,-30.83
16028,-35.34
16040,-39.99
16052,-43.91
16063,-45.98
16074,-45.12
16086,-40.76
16098,-33.06
16110,-22.97
16122,-11.93
16134,-1.37
16146,7.69
16158,14.83
16170,20.11
16182,23.75
16194,25.91
16206,26.57
16218,25.69
16230,23.34
16242,19.88
16253,15.95
16264,12.23
16276,9.31
16288,7.52
16300,6.87
16312,7.17
16324,8.12
16336,9.44
16348,10.89
16360,12.24
16372,13.26
16384,13.73
16396,13.42
16408,12.27
16420,10.38
16432,7.99
16443,5.4
16454,2.85
16466,0.37
16478,-2.17
16490,-4.98
16502,-8.2
16514,-11.81
16526,-15.62
16538,-19.33
16550,-22.66
16562,-25.54
16574,-28.08
16586,-30.58
16598,-33.47
16610,-37.1
16622,-41.67
16633,-47.01
16644,-52.46
16656,-56.93
16668,-59.06
16680,-57.7
16692,-52.25
16704,-42.97
16716,-30.95
16728,-17.79
16740,-5.08
16752,6.03
16764,15.02
16776,21.92
16788,27.02
16800,30.56
16812,32.67
16823,33.37
16834,32.74
16846,31.08
16858,28.87
16870,26.63
16882,24.81
16894,23.57
16906,22.9
16918,22.59
16930,22.54
16942,22.71
16954,23.14
16966,23.87
16978,24.79
16990,25.64
17002,26.06
17013,25.74
17024,24.48
17036,22.3
17048,19.36
17060,16.0
17072,12.58
17084,9.38
17096,6.53
17108,3.96
17120,1.4
17132,-1.46
17144,-4.81
17156,-8.63
17168,-12.67
17180,-16.57
17192,-20.01
17203,-22.87
17214,-25.29
17226,-27.57
17238,-30.13
17250,-33.37
17262,-37.59
17274,-42.77
17286,-48.5
17298,-53.89
17310,-57.7
17322,-58.63
17334,-55.8
17346,-49.05
17358,-39.13
17370,-27.37
17382,-15.3
17393,-4.17
17404,5.36
17416,13.11
17428,19.2
17440,23.76
17452,26.78
17464,28.22
17476,28.11
17488,26.72
17500,24.55
17512,22.2
17524,20.19
17536,18.83
17548,18.23
17560,18.32
17572,18.96
17583,20.02
17594,21.31
17606,22.68
17618,23.96
17630,25.05
17642,25.88
17654,26.43
17666,26.68
17678,26.56
17690,25.98
17702,24.84
17714,23.12
17726,20.91
17738,18.41
17750,15.86
17762,13.43
17773,11.17
17784,9.01
17796,6.81
17808,4.45
17820,1.91
17832,-0.71
17844,-3.24
17856,-5.52
17868,-7.43
17880,-9.02
17892,-10.47
17904,-12.03
17916,-13.96
17928,-16.51
17940,-19.87
17952,-24.16
17963,-29.27
17974,-34.76
17986,-39.72
17998,-42.87
18010,-42.93
18022,-39.05
18034,-31.19
18046,-20.24
18058,-7.72
18070,4.71
18082,15.76
18094,24.77
18106,31.66
18118,36.63
18130,39.93
18142,41.73
18153,42.12
18164,41.25
18176,39.41
18188,37.05
18200,34.65
18212,32.59
18224,31.06
18236,30.04
18248,29.41
18260,29.0
18272,28.71
18284,28.51
18296,28.45
18308,28.54
18320,28.7
18332,28.71
18343,28.32
18354,27.31
18366,25.55
18378,23.04
18390,19.92
18402,16.39
18414,12.72
18426,9.14
18438,5.81
18450,2.76
18462,-0.12
18474,-3.07
18486,-6.32
18498,-9.99
18510,-14.01
18522,-18.14
18533,-22.05
18544,-25.4
18556,-28.04
18568,-29.95
18580,-31.34
18592,-32.57
18604,-34.11
18616,-36.48
18628,-40.0
18640,-44.63
18652,-49.72
18664,-54.09
18676,-56.27
18688,-55.0
18700,-49.7
18712,-40.71
18723,-29.22
18734,-16.79
18746,-4.94
18758,5.34
18770,13.59
18782,19.79
18794,24.08
18806,26.6
18818,27.39
18830,26.54
18842,24.27
18854,21.02
18866,17.41
18878,14.1
18890,11.61
18902,10.23
18913,9.95
18924,10.6
18936,11.92
18948,13.69
18960,15.74
18972,17.92
18984,20.04
18996,21.8
19008,22.86
19020,22.96
19032,22.04
19044,20.27
19056,18.01
19068,15.63
19080,13.38
19092,11.21
19103,8.93
19114,6.23
19126,2.93
19138,-0.91
19150,-5.0
19162,-8.94
19174,-12.36
19186,-15.08
19198,-17.13
19210,-18.81
19222,-20.49
19234,-22.62
19246,-25.52
19258,-29.27
19270,-33.53
19282,-37.51
19293,-40.1
19304,-40.14
19316,-36.81
19328,-30.01
19340,-20.46
19352,-9.48
19364,1.43
19376,11.01
19388,18.54
19400,23.86
19412,27.17
19424,28.78
19436,28.91
19448,27.65
19460,25.14
19472,21.57
19483,17.37
19494,13.07
19506,9.25
19518,6.34
19530,4.57
19542,3.9
19554,4.09
19566,4.77
19578,5.59
19590,6.29
19602,6.8
19614,7.18
19626,7.51
19638,7.83
19650,8.0
19662,7.77
19673,6.85
19684,5.05
19696,2.42
19708,-0.78
19720,-4.22
19732,-7.59
19744,-10.78
19756,-13.86
19768,-16.98
19780,-20.28
19792,-23.84
19804,-27.7
19816,-31.89
19828,-36.4
19840,-41.04
19852,-45.24
19863,-48.06
19874,-48.38
19886,-45.27
19898,-38.46
19910,-28.5
19922,-16.71
19934,-4.72
19946,6.06
19958,14.77
19970,21.21
19982,25.64
19994,28.4
20006,29.73
20018,29.66
20030,28.19
20042,25.43
20053,21.7
20064,17.51
20076,13.47
20088,10.05
20100,7.6
20112,6.16
20124,5.63
20136,5.75
20148,6.26
20160,6.89
20172,7.45
20184,7.84
20196,7.99
20208,7.88
20220,7.44
20232,6.56
20243,5.1
20254,2.93
20266,0.04
20278,-3.43
20290,-7.26
20302,-11.17
20314,-14.88
20326,-18.2
20338,-21.05
20350,-23.5
20362,-25.71
20374,-28.0
20386,-30.78
20398,-34.42
20410,-39.09
20422,-44.49
20433,-49.78
20444,-53.64
20456,-54.67
20468,-51.84
20480,-44.94
20492,-34.68
20504,-22.51
20516,-10.1
20528,1.16
20540,10.5
20552,17.76
20564,23.15
20576,26.87
20588,28.96
20600,29.22
20612,27.46
20623,23.79
20634,18.8
20646,13.44
20658,8.83
20670,5.79
20682,4.56
20694,4.75
20706,5.55
20718,6.21
20730,6.4
20742,6.43
20754,7.04
20766,8.99
20778,12.62
20790,17.52
20802,22.59
20813,26.36
20824,27.44
20836,24.98
20848,18.96
20860,10.27
20872,0.56
20884,-8.09
20896,-13.75
20908,-15.11
20920,-11.94
20932,-5.21
20944,3.09
20956,10.39
20968,14.23
20980,13.01
20992,6.44
