seconds,BVP
6,-35.7
18,-24.77
30,-14.08
42,-4.51
54,3.53
66,10.03
78,15.18
89,19.24
100,22.36
112,24.58
124,25.95
136,26.56
148,26.62
160,26.37
172,26.04
184,25.78
196,25.64
208,25.65
220,25.84
232,26.28
244,27.01
256,28.02
268,29.15
279,30.14
290,30.75
302,30.8
314,30.26
326,29.15
338,27.61
350,25.78
362,23.81
374,21.9
386,20.21
398,18.78
410,17.58
422,16.41
434,15.05
446,13.33
458,11.19
469,8.76
480,6.25
492,3.92
504,1.94
516,0.38
528,-0.87
540,-2.02
552,-3.31
564,-4.98
576,-7.13
588,-9.74
600,-12.65
612,-15.63
624,-18.48
636,-21.03
648,-23.27
659,-25.34
670,-27.47
682,-29.99
694,-33.18
706,-37.17
718,-41.9
730,-46.97
742,-51.72
754,-55.23
766,-56.57
778,-55.05
790,-50.43
802,-43.06
814,-33.75
826,-23.56
838,-13.53
849,-4.43
860,3.32
872,9.64
884,14.63
896,18.44
908,21.21
920,23.03
932,23.98
944,24.19
956,23.82
968,23.12
980,22.32
992,21.68
1004,21.33
1016,21.3
1028,21.52
1039,21.9
1050,22.39
1062,22.97
1074,23.63
1086,24.32
1098,24.92
1110,25.27
1122,25.21
1134,24.66
1146,23.66
1158,22.3
1170,20.76
1182,19.21
1194,17.76
1206,16.42
1218,15.11
1229,13.68
1240,12.0
1252,10.0
1264,7.72
1276,5.31
1288,2.98
1300,0.91
1312,-0.82
1324,-2.26
1336,-3.59
1348,-5.02
1360,-6.69
1372,-8.67
1384,-10.88
1396,-13.14
1408,-15.24
1419,-17.05
1430,-18.56
1442,-19.91
1454,-21.39
1466,-23.32
1478,-26.01
1490,-29.56
1502,-33.77
1514,-38.06
1526,-41.54
1538,-43.23
1550,-42.33
1562,-38.51
1574,-32.02
1586,-23.61
1598,-14.3
1609,-5.1
1620,3.24
1632,10.28
1644,15.85
1656,19.95
1668,22.59
1680,23.85
1692,23.85
1704,22.83
1716,21.2
1728,19.45
1740,18.01
1752,17.17
1764,16.96
1776,17.27
1788,17.86
1799,18.57
1810,19.31
1822,20.11
1834,20.99
1846,21.9
1858,22.69
1870,23.11
1882,22.93
1894,22.0
1906,20.37
1918,18.29
1930,16.1
1942,14.14
1954,12.56
1966,11.31
1978,10.14
1989,8.76
2000,6.97
2012,4.8
2024,2.44
2036,0.14
2048,-1.92
2060,-3.69
2072,-5.27
2084,-6.81
2096,-8.47
2108,-10.33
2120,-12.45
2132,-14.81
2144,-17.34
2156,-19.94
2168,-22.43
2179,-24.65
2190,-26.48
2202,-28.01
2214,-29.51
2226,-31.43
2238,-34.16
2250,-37.91
2262,-42.47
2274,-47.19
2286,-51.04
2298,-52.95
2310,-52.11
2322,-48.18
2334,-41.48
2346,-32.79
2358,-23.15
2369,-13.6
2380,-4.87
2392,2.63
2404,8.81
2416,13.78
2428,17.7
2440,20.65
2452,22.62
2464,23.63
2476,23.79
2488,23.37
2500,22.77
2512,22.33
2524,22.26
2536,22.5
2548,22.88
2559,23.2
2570,23.4
2582,23.59
2594,23.95
2606,24.6
2618,25.44
2630,26.21
2642,26.54
2654,26.19
2666,25.12
2678,23.55
2690,21.85
2702,20.31
2714,19.09
2726,18.08
2738,17.07
2749,15.84
2760,14.3
2772,12.52
2784,10.64
2796,8.78
2808,6.98
2820,5.2
2832,3.38
2844,1.53
2856,-0.28
2868,-1.94
2880,-3.36
2892,-4.55
2904,-5.61
2916,-6.7
2928,-8.0
2939,-9.64
2950,-11.66
2962,-14.0
2974,-16.52
2986,-19.09
2998,-21.58
3010,-23.95
3022,-26.21
3034,-28.39
3046,-30.58
3058,-32.89
3070,-35.54
3082,-38.75
3094,-42.63
3106,-46.95
3118,-51.06
3129,-53.91
3140,-54.42
3152,-51.88
3164,-46.2
3176,-38.0
3188,-28.34
3200,-18.39
3212,-9.04
3224,-0.8
3236,6.17
3248,11.94
3260,16.6
3272,20.19
3284,22.71
3296,24.1
3308,24.4
3319,23.75
3330,22.46
3342,20.95
3354,19.62
3366,18.77
3378,18.45
3390,18.55
3402,18.91
3414,19.41
3426,20.06
3438,20.91
3450,21.97
3462,23.13
3474,24.16
3486,24.79
3498,24.84
3509,24.25
3520,23.14
3532,21.73
3544,20.26
3556,18.87
3568,17.62
3580,16.44
3592,15.27
3604,14.07
3616,12.88
3628,11.69
3640,10.46
3652,9.06
3664,7.34
3676,5.25
3688,2.88
3699,0.52
3710,-1.59
3722,-3.25
3734,-4.49
3746,-5.45
3758,-6.34
3770,-7.36
3782,-8.67
3794,-10.38
3806,-12.48
3818,-14.9
3830,-17.42
3842,-19.81
3854,-21.86
3866,-23.55
3878,-25.05
3889,-26.63
3900,-28.6
3912,-31.19
3924,-34.44
3936,-38.2
3948,-42.01
3960,-45.19
3972,-46.86
3984,-46.21
3996,-42.79
4008,-36.68
4020,-28.52
4032,-19.3
4044,-9.98
4056,-1.27
4068,6.44
4079,12.99
4090,18.31
4102,22.3
4114,24.93
4126,26.32
4138,26.73
4150,26.51
4162,26.04
4174,25.55
4186,25.17
4198,24.94
4210,24.92
4222,25.17
4234,25.7
4246,26.45
4258,27.23
4269,27.83
4280,28.08
4292,27.89
4304,27.29
4316,26.32
4328,25.02
4340,23.38
4352,21.41
4364,19.1
4376,16.47
4388,13.54
4400,10.35
4412,6.96
4424,3.48
4436,0.09
4448,-3.04
4459,-5.73
4470,-7.93
4482,-9.74
4494,-11.37
4506,-13.05
4518,-14.88
4530,-16.85
4542,-18.78
4554,-20.52
4566,-21.95
4578,-23.12
4590,-24.21
4602,-25.49
4614,-27.23
4626,-29.61
4638,-32.61
4649,-35.97
4660,-39.11
4672,-41.26
4684,-41.58
4696,-39.48
4708,-34.78
4720,-27.85
4732,-19.54
4744,-10.89
4756,-2.85
4768,3.97
4780,9.37
4792,13.41
4804,16.28
4816,18.14
4828,19.07
4839,19.13
4850,18.46
4862,17.33
4874,16.05
4886,14.92
4898,14.1
4910,13.61
4922,13.39
4934,13.38
4946,13.58
4958,14.03
4970,14.75
4982,15.63
4994,16.49
5006,17.08
5018,17.21
5029,16.78
5040,15.82
5052,14.48
5064,12.94
5076,11.35
5088,9.75
5100,8.08
5112,6.22
5124,4.13
5136,1.86
5148,-0.4
5160,-2.48
5172,-4.33
5184,-6.14
5196,-8.18
5208,-10.69
5219,-13.66
5230,-16.78
5242,-19.62
5254,-21.88
5266,-23.56
5278,-25.0
5290,-26.69
5302,-29.05
5314,-32.23
5326,-36.1
5338,-40.29
5350,-44.23
5362,-47.26
5374,-48.68
5386,-47.88
5398,-44.52
5409,-38.62
5420,-30.63
5432,-21.35
5444,-11.71
5456,-2.62
5468,5.22
5480,11.43
5492,15.94
5504,18.94
5516,20.82
5528,21.95
5540,22.64
5552,22.98
5564,22.93
5576,22.45
5588,21.58
5599,20.49
5610,19.48
5622,18.79
5634,18.58
5646,18.85
5658,19.47
5670,20.29
5682,21.14
5694,21.82
5706,22.2
5718,22.12
5730,21.52
5742,20.47
5754,19.12
5766,17.69
5778,16.33
5789,15.02
5800,13.64
5812,11.98
5824,9.92
5836,7.5
5848,4.92
5860,2.44
5872,0.25
5884,-1.63
5896,-3.33
5908,-5.06
5920,-6.98
5932,-9.16
5944,-11.56
5956,-14.09
5968,-16.63
5979,-19.1
5990,-21.39
6002,-23.48
6014,-25.4
6026,-27.34
6038,-29.63
6050,-32.6
6062,-36.4
6074,-40.81
6086,-45.15
6098,-48.33
6110,-49.26
6122,-47.1
6134,-41.71
6146,-33.65
6158,-24.03
6169,-14.13
6180,-4.96
6192,2.96
6204,9.59
6216,15.12
6228,19.67
6240,23.19
6252,25.49
6264,26.47
6276,26.23
6288,25.16
6300,23.77
6312,22.52
6324,21.64
6336,21.19
6348,21.07
6359,21.2
6370,21.51
6382,21.98
6394,22.52
6406,23.04
6418,23.43
6430,23.59
6442,23.51
6454,23.17
6466,22.55
6478,21.62
6490,20.35
6502,18.77
6514,16.98
6526,15.12
6538,13.27
6549,11.45
6560,9.62
6572,7.69
6584,5.66
6596,3.56
6608,1.46
6620,-0.56
6632,-2.39
6644,-3.96
6656,-5.2
6668,-6.12
6680,-6.85
6692,-7.6
6704,-8.65
6716,-10.14
6728,-12.04
6739,-14.1
6750,-16.02
6762,-17.58
6774,-18.8
6786,-19.9
6798,-21.27
6810,-23.3
6822,-26.26
6834,-30.22
6846,-34.93
6858,-39.77
6870,-43.82
6882,-46.03
6894,-45.55
6906,-42.0
6918,-35.68
6929,-27.38
6940,-18.17
6952,-9.01
6964,-0.56
6976,6.83
6988,13.05
7000,18.06
7012,21.79
7024,24.22
7036,25.39
7048,25.51
7060,24.93
7072,23.99
7084,23.02
7096,22.21
7108,21.64
7119,21.36
7130,21.43
7142,21.93
7154,22.97
7166,24.6
7178,26.69
7190,28.99
7202,31.11
7214,32.67
7226,33.41
7238,33.32
7250,32.6
7262,31.61
7274,30.66
7286,29.92
7298,29.33
7309,28.71
7320,27.89
7332,26.83
7344,25.67
7356,24.68
7368,24.08
7380,23.93
7392,24.06
7404,24.13
7416,23.8
7428,22.87
7440,21.45
7452,19.85
7464,18.49
7476,17.62
7488,17.14
7499,16.46
7510,14.59
7522,10.41
7534,2.99
7546,-7.98
7558,-21.98
7570,-37.62
7582,-52.82
7594,-65.24
7606,-72.92
7618,-74.82
7630,-71.35
7642,-64.43
7654,-57.16
7666,-53.04
7678,-54.86
7689,-63.81
7700,-78.95
7712,-97.39
7724,-115.07
7736,-127.83
7748,-132.41
7760,-126.93
7772,-110.89
7784,-84.93
7796,-50.47
7808,-9.63
7820,34.77
7832,79.16
7844,119.56
7856,152.27
7868,174.81
7879,186.55
7890,188.86
7902,184.49
7914,176.58
7926,167.58
7938,158.73
7950,149.99
7962,140.52
7974,129.31
7986,115.61
7998,99.06
8010,79.77
8022,58.26
8034,35.61
8046,13.41
8058,-6.29
8069,-21.48
8080,-30.73
8092,-33.72
8104,-31.34
8116,-25.39
8128,-17.9
8140,-10.62
8152,-4.51
8164,0.16
8176,3.64
8188,6.36
8200,8.7
8212,10.86
8224,12.89
8236,14.76
8248,16.34
8259,17.46
8270,17.97
8282,17.8
8294,17.05
8306,16.08
8318,15.41
8330,15.43
8342,16.15
8354,17.0
8366,16.87
8378,14.44
8390,8.77
8402,-0.29
8414,-11.9
8426,-24.49
8438,-36.31
8449,-45.93
8460,-52.67
8472,-56.56
8484,-58.14
8496,-58.13
8508,-57.13
8520,-55.58
8532,-53.73
8544,-51.71
8556,-49.64
8568,-47.6
8580,-45.58
8592,-43.57
8604,-41.52
8616,-39.43
8628,-37.38
8639,-35.51
8650,-33.88
8662,-32.49
8674,-31.22
8686,-29.94
8698,-28.59
8710,-27.23
8722,-26.0
8734,-24.99
8746,-24.17
8758,-23.4
8770,-22.48
8782,-21.25
8794,-19.68
8806,-17.85
8818,-15.92
8829,-14.06
8840,-12.45
8852,-11.27
8864,-10.67
8876,-10.75
8888,-11.49
8900,-12.75
8912,-14.32
8924,-16.0
8936,-17.67
8948,-19.31
8960,-20.96
8972,-22.7
8984,-24.59
8996,-26.75
9008,-29.31
9019,-32.39
9030,-35.94
9042,-39.76
9054,-43.44
9066,-46.5
9078,-48.6
9090,-49.61
9102,-49.82
9114,-49.69
9126,-49.72
9138,-50.11
9150,-50.6
9162,-50.45
9174,-48.82
9186,-45.11
9198,-39.33
9209,-32.14
9220,-24.62
9232,-17.94
9244,-13.06
9256,-10.64
9268,-11.0
9280,-13.97
9292,-18.59
9304,-22.94
9316,-24.34
9328,-20.3
9340,-9.7
9352,6.17
9364,23.7
9376,38.17
9388,45.74
9399,45.12
9410,38.08
9422,28.32
9434,19.71
9446,14.64
9458,13.54
9470,15.49
9482,19.22
9494,23.74
9506,28.29
9518,31.75
9530,32.52
9542,29.09
9554,20.97
9566,9.45
9578,-2.59
9589,-11.94
9600,-16.61
9612,-16.68
9624,-13.99
9636,-10.89
9648,-8.97
9660,-8.46
9672,-8.61
9684,-8.65
9696,-8.42
9708,-8.42
9720,-9.19
9732,-10.74
9744,-12.38
9756,-13.13
9768,-12.48
9779,-10.7
9790,-8.81
9802,-7.92
9814,-8.6
9826,-10.58
9838,-12.97
9850,-14.84
9862,-15.71
9874,-15.8
9886,-15.78
9898,-16.46
9910,-18.41
9922,-21.79
9934,-26.45
9946,-31.93
9958,-37.53
9969,-42.32
9980,-45.21
9992,-45.29
10004,-42.07
10016,-35.8
10028,-27.37
10040,-18.03
10052,-8.95
10064,-0.85
10076,6.08
10088,12.0
10100,17.09
10112,21.45
10124,25.02
10136,27.75
10148,29.79
10159,31.43
10170,33.08
10182,34.99
10194,37.16
10206,39.39
10218,41.39
10230,43.01
10242,44.3
10254,45.52
10266,46.98
10278,48.85
10290,51.07
10302,53.3
10314,55.0
10326,55.63
10338,54.73
10349,52.09
10360,47.76
10372,42.04
10384,35.41
10396,28.41
10408,21.53
10420,15.1
10432,9.32
10444,4.25
10456,-0.13
10468,-3.85
10480,-6.98
10492,-9.64
10504,-12.02
10516,-14.34
10528,-16.76
10539,-19.3
10550,-21.81
10562,-24.02
10574,-25.74
10586,-26.98
10598,-27.98
10610,-29.18
10622,-30.96
10634,-33.44
10646,-36.35
10658,-39.07
10670,-40.78
10682,-40.79
10694,-38.74
10706,-34.67
10718,-29.04
10729,-22.49
10740,-15.69
10752,-9.1
10764,-2.98
10776,2.57
10788,7.5
10800,11.66
10812,14.89
10824,17.01
10836,17.95
10848,17.84
10860,16.93
10872,15.62
10884,14.27
10896,13.18
10908,12.55
10919,12.5
10930,13.06
10942,14.21
10954,15.85
10966,17.81
10978,19.88
10990,21.79
11002,23.37
11014,24.47
11026,25.01
11038,24.94
11050,24.2
11062,22.78
11074,20.78
11086,18.46
11098,16.15
11109,14.17
11120,12.58
11132,11.24
11144,9.8
11156,7.93
11168,5.56
11180,2.83
11192,0.07
11204,-2.42
11216,-4.56
11228,-6.53
11240,-8.62
11252,-11.05
11264,-13.8
11276,-16.63
11288,-19.21
11299,-21.32
11310,-22.94
11322,-24.27
11334,-25.64
11346,-27.34
11358,-29.56
11370,-32.27
11382,-35.3
11394,-38.35
11406,-41.05
11418,-42.96
11430,-43.66
11442,-42.7
11454,-39.84
11466,-35.07
11478,-28.73
11489,-21.43
11500,-13.9
11512,-6.76
11524,-0.35
11536,5.22
11548,10.04
11560,14.19
11572,17.66
11584,20.37
11596,22.23
11608,23.29
11620,23.75
11632,23.88
11644,23.91
11656,24.0
11668,24.15
11679,24.31
11690,24.5
11702,24.81
11714,25.38
11726,26.33
11738,27.65
11750,29.13
11762,30.45
11774,31.28
11786,31.39
11798,30.75
11810,29.52
11822,27.93
11834,26.23
11846,24.6
11858,23.13
11869,21.79
11880,20.5
11892,19.1
11904,17.48
11916,15.58
11928,13.47
11940,11.3
11952,9.25
11964,7.47
11976,5.99
11988,4.74
12000,3.57
12012,2.31
12024,0.86
12036,-0.82
12048,-2.69
12059,-4.69
12070,-6.78
12082,-8.9
12094,-11.02
12106,-13.09
12118,-15.07
12130,-16.95
12142,-18.74
12154,-20.51
12166,-22.36
12178,-24.44
12190,-26.91
12202,-29.93
12214,-33.57
12226,-37.71
12238,-41.96
12249,-45.69
12260,-48.11
12272,-48.45
12284,-46.25
12296,-41.46
12308,-34.52
12320,-26.16
12332,-17.27
12344,-8.61
12356,-0.72
12368,6.13
12380,11.86
12392,16.51
12404,20.11
12416,22.68
12428,24.23
12439,24.86
12450,24.79
12462,24.33
12474,23.82
12486,23.52
12498,23.55
12510,23.88
12522,24.39
12534,24.97
12546,25.58
12558,26.22
12570,26.92
12582,27.65
12594,28.31
12606,28.74
12618,28.78
12629,28.35
12640,27.48
12652,26.3
12664,25.01
12676,23.76
12688,22.6
12700,21.44
12712,20.15
12724,18.6
12736,16.78
12748,14.82
12760,12.91
12772,11.21
12784,9.78
12796,8.57
12808,7.47
12819,6.35
12830,5.17
12842,3.96
12854,2.78
12866,1.64
12878,0.45
12890,-0.92
12902,-2.56
12914,-4.45
12926,-6.44
12938,-8.29
12950,-9.81
12962,-10.96
12974,-11.9
12986,-12.98
12998,-14.54
13009,-16.84
13020,-19.89
13032,-23.32
13044,-26.51
13056,-28.59
13068,-28.75
13080,-26.43
13092,-21.5
13104,-14.3
13116,-5.51
13128,4.06
13140,13.69
13152,22.85
13164,31.22
13176,38.6
13188,44.89
13199,50.02
13210,54.03
13222,57.04
13234,59.28
13246,61.05
13258,62.66
13270,64.4
13282,66.58
13294,69.44
13306,73.12
13318,77.58
13330,82.51
13342,87.35
13354,91.4
13366,93.94
13378,94.28
13389,91.94
13400,86.66
13412,78.47
13424,67.69
13436,54.95
13448,41.12
13460,27.2
13472,14.13
13484,2.66
13496,-6.76
13508,-14.05
13520,-19.43
13532,-23.33
13544,-26.23
13556,-28.58
13568,-30.78
13579,-33.26
13590,-36.42
13602,-40.65
13614,-46.14
13626,-52.73
13638,-59.92
13650,-66.95
13662,-73.1
13674,-77.93
13686,-81.42
13698,-83.82
13710,-85.38
13722,-86.08
13734,-85.49
13746,-82.97
13758,-78.01
13769,-70.65
13780,-61.57
13792,-52.03
13804,-43.34
13816,-36.5
13828,-31.89
13840,-29.31
13852,-28.27
13864,-28.24
13876,-28.87
13888,-29.9
13900,-31.0
13912,-31.69
13924,-31.34
13936,-29.39
13948,-25.62
13959,-20.28
13970,-14.01
13982,-7.63
13994,-1.9
14006,2.67
14018,5.94
14030,8.07
14042,9.4
14054,10.29
14066,11.02
14078,11.7
14090,12.38
14102,13.07
14114,13.83
14126,14.73
14138,15.76
14149,16.76
14160,17.4
14172,17.28
14184,16.18
14196,14.12
14208,11.47
14220,8.8
14232,6.59
14244,5.1
14256,4.2
14268,3.47
14280,2.39
14292,0.54
14304,-2.23
14316,-5.82
14328,-9.96
14339,-14.36
14350,-18.8
14362,-23.25
14374,-27.86
14386,-32.88
14398,-38.63
14410,-45.36
14422,-53.19
14434,-62.12
14446,-71.87
14458,-81.98
14470,-91.78
14482,-100.47
14494,-107.24
14506,-111.43
14518,-112.67
14529,-110.95
14540,-106.49
14552,-99.68
14564,-90.84
14576,-80.23
14588,-68.07
14600,-54.65
14612,-40.35
14624,-25.68
14636,-11.13
14648,2.77
14660,15.48
14672,26.5
14684,35.56
14696,42.69
14708,48.28
14719,52.88
14730,56.89
14742,60.21
14754,62.35
14766,62.7
14778,61.07
14790,58.03
14802,54.77
14814,52.57
14826,52.13
14838,53.21
14850,54.79
14862,55.61
14874,54.85
14886,52.51
14898,49.29
14909,46.13
14920,43.82
14932,42.57
14944,42.11
14956,41.88
14968,41.38
14980,40.42
14992,39.2
15004,38.13
15016,37.56
15028,37.53
15040,37.65
15052,37.3
15064,35.92
15076,33.32
15088,29.84
15099,26.23
15110,23.28
15122,21.47
15134,20.75
15146,20.64
15158,20.52
15170,19.95
15182,18.88
15194,17.6
15206,16.54
15218,15.99
15230,15.98
15242,16.22
15254,16.23
15266,15.51
15278,13.67
15289,10.55
15300,6.12
15312,0.52
15324,-6.02
15336,-13.2
15348,-20.49
15360,-27.24
15372,-32.67
15384,-36.07
15396,-37.07
15408,-35.73
15420,-32.57
15432,-28.36
15444,-23.83
15456,-19.47
15468,-15.41
15479,-11.64
15490,-8.13
15502,-5.01
15514,-2.5
15526,-0.85
15538,-0.13
15550,-0.16
15562,-0.58
15574,-1.01
15586,-1.14
15598,-0.85
15610,-0.22
15622,0.62
15634,1.55
15646,2.46
15658,3.28
15669,3.96
15680,4.37
15692,4.38
15704,3.89
15716,2.93
15728,1.66
15740,0.33
15752,-0.79
15764,-1.52
15776,-1.82
15788,-1.73
15800,-1.38
15812,-0.89
15824,-0.34
15836,0.15
15848,0.46
15859,0.42
15870,-0.14
15882,-1.32
15894,-3.1
15906,-5.33
15918,-7.81
15930,-10.37
15942,-12.92
15954,-15.45
15966,-17.99
15978,-20.53
15990,-22.95
16002,-24.97
16014,-26.34
16026,-26.86
16038,-26.58
16049,-25.81
16060,-25.05
16072,-24.83
16084,-25.43
16096,-26.71
16108,-28.12
16120,-28.74
16132,-27.52
16144,-23.58
16156,-16.48
16168,-6.45
16180,5.6
16192,18.24
16204,29.91
16216,39.31
16228,45.75
16239,49.21
16250,50.17
16262,49.32
16274,47.28
16286,44.46
16298,41.14
16310,37.59
16322,34.1
16334,30.89
16346,28.01
16358,25.24
16370,22.22
16382,18.69
16394,14.72
16406,10.74
16418,7.35
16429,5.02
16440,3.95
16452,3.99
16464,4.79
16476,6.12
16488,7.83
16500,9.85
16512,12.03
16524,14.02
16536,15.34
16548,15.64
16560,14.82
16572,13.11
16584,10.88
16596,8.41
16608,5.72
16619,2.68
16630,-0.75
16642,-4.31
16654,-7.44
16666,-9.56
16678,-10.38
16690,-10.17
16702,-9.7
16714,-9.9
16726,-11.42
16738,-14.44
16750,-18.68
16762,-23.64
16774,-28.92
16786,-34.38
16798,-40.05
16809,-45.9
16820,-51.61
16832,-56.53
16844,-59.8
16856,-60.65
16868,-58.69
16880,-54.04
16892,-47.3
16904,-39.31
16916,-30.85
16928,-22.43
16940,-14.25
16952,-6.32
16964,1.3
16976,8.41
16988,14.59
16999,19.47
17010,22.83
17022,24.8
17034,25.8
17046,26.4
17058,27.16
17070,28.41
17082,30.27
17094,32.72
17106,35.72
17118,39.28
17130,43.48
17142,48.34
17154,53.67
17166,59.03
17178,63.79
17189,67.39
17200,69.54
17212,70.46
17224,70.69
17236,70.88
17248,71.43
17260,72.29
17272,72.99
17284,72.98
17296,71.91
17308,69.79
17320,66.96
17332,63.77
17344,60.4
17356,56.76
17368,52.48
17379,47.19
17390,40.59
17402,32.65
17414,23.48
17426,13.34
17438,2.58
17450,-8.47
17462,-19.43
17474,-29.95
17486,-39.81
17498,-48.94
17510,-57.47
17522,-65.68
17534,-73.91
17546,-82.36
17558,-90.93
17569,-99.17
17580,-106.25
17592,-111.16
17604,-113.05
17616,-111.52
17628,-106.81
17640,-99.8
17652,-91.76
17664,-84.01
17676,-77.51
17688,-72.69
17700,-69.41
17712,-67.13
17724,-65.18
17736,-62.95
17748,-60.02
17759,-56.17
17770,-51.3
17782,-45.43
17794,-38.59
17806,-30.85
17818,-22.24
17830,-12.78
17842,-2.49
17854,8.55
17866,20.13
17878,31.89
17890,43.31
17902,53.83
17914,62.92
17926,70.14
17938,75.22
17949,77.93
17960,78.18
17972,75.97
17984,71.47
17996,65.12
18008,57.54
18020,49.53
18032,41.76
18044,34.73
18056,28.56
18068,23.08
18080,17.92
18092,12.75
18104,7.44
18116,2.13
18128,-2.89
18139,-7.32
18150,-11.09
18162,-14.44
18174,-17.86
18186,-21.86
18198,-26.71
18210,-32.32
18222,-38.23
18234,-43.86
18246,-48.7
18258,-52.53
18270,-55.43
18282,-57.74
18294,-59.81
18306,-62.04
18318,-64.65
18329,-67.73
18340,-71.05
18352,-74.01
18364,-75.61
18376,-74.72
18388,-70.48
18400,-62.6
18412,-51.59
18424,-38.65
18436,-25.18
18448,-12.43
18460,-1.16
18472,8.34
18484,16.13
18496,22.35
18508,27.1
18519,30.42
18530,32.41
18542,33.24
18554,33.19
18566,32.63
18578,31.91
18590,31.31
18602,31.01
18614,31.05
18626,31.35
18638,31.83
18650,32.41
18662,33.05
18674,33.75
18686,34.46
18698,35.06
18709,35.37
18720,35.24
18732,34.61
18744,33.61
18756,32.46
18768,31.36
18780,30.39
18792,29.45
18804,28.36
18816,26.94
18828,25.16
18840,23.13
18852,21.03
18864,19.05
18876,17.27
18888,15.67
18899,14.13
18910,12.49
18922,10.66
18934,8.66
18946,6.56
18958,4.52
18970,2.67
18982,1.09
18994,-0.26
19006,-1.54
19018,-2.96
19030,-4.73
19042,-6.96
19054,-9.67
19066,-12.72
19078,-15.92
19089,-19.08
19100,-22.06
19112,-24.8
19124,-27.34
19136,-29.87
19148,-32.68
19160,-36.07
19172,-40.17
19184,-44.78
19196,-49.14
19208,-52.14
19220,-52.54
19232,-49.52
19244,-42.97
19256,-33.59
19268,-22.69
19279,-11.64
19290,-1.54
19302,7.03
19314,13.95
19326,19.28
19338,23.12
19350,25.48
19362,26.42
19374,26.09
19386,24.84
19398,23.11
19410,21.35
19422,19.91
19434,18.97
19446,18.58
19458,18.64
19469,19.05
19480,19.7
19492,20.47
19504,21.27
19516,22.02
19528,22.6
19540,22.87
19552,22.7
19564,22.04
19576,20.9
19588,19.41
19600,17.73
19612,16.01
19624,14.34
19636,12.7
19648,10.99
19659,9.1
19670,6.96
19682,4.58
19694,2.07
19706,-0.38
19718,-2.63
19730,-4.64
19742,-6.48
19754,-8.32
19766,-10.29
19778,-12.44
19790,-14.67
19802,-16.82
19814,-18.73
19826,-20.3
19838,-21.64
19849,-22.92
19860,-24.46
19872,-26.55
19884,-29.42
19896,-33.11
19908,-37.29
19920,-41.29
19932,-44.21
19944,-45.13
19956,-43.42
19968,-38.91
19980,-31.9
19992,-23.03
20004,-13.14
20016,-3.03
20028,6.55
20039,15.01
20050,21.89
20062,26.94
20074,30.11
20086,31.62
20098,31.85
20110,31.24
20122,30.17
20134,28.92
20146,27.66
20158,26.47
20170,25.39
20182,24.49
20194,23.81
20206,23.42
20218,23.4
20229,23.77
20240,24.5
20252,25.43
20264,26.27
20276,26.72
20288,26.46
20300,25.38
20312,23.56
20324,21.3
20336,18.99
20348,16.97
20360,15.38
20372,14.15
20384,13.0
20396,11.63
20408,9.8
20419,7.49
20430,4.86
20442,2.22
20454,-0.18
20466,-2.23
20478,-4.04
20490,-5.84
20502,-7.89
20514,-10.33
20526,-13.1
20538,-16.02
20550,-18.85
20562,-21.44
20574,-23.79
20586,-25.99
20598,-28.22
20609,-30.66
20620,-33.46
20632,-36.81
20644,-40.83
20656,-45.43
20668,-50.21
20680,-54.4
20692,-56.94
20704,-56.84
20716,-53.51
20728,-46.97
20740,-37.89
20752,-27.35
20764,-16.49
20776,-6.26
20788,2.8
20799,10.42
20810,16.57
20822,21.31
20834,24.71
20846,26.88
20858,27.91
20870,27.97
20882,27.22
20894,25.9
20906,24.31
20918,22.79
20930,21.67
20942,21.14
20954,21.24
20966,21.84
20978,22.7
20989,23.59
