seconds,BVP
7,8.49
19,10.7
31,12.04
43,12.19
55,11.23
66,9.51
77,7.5
89,5.65
101,4.25
113,3.36
125,2.82
137,2.31
149,1.46
161,0.14
173,-1.54
185,-3.1
197,-3.95
209,-3.67
221,-2.16
233,0.19
245,2.68
256,4.59
267,5.37
279,4.66
291,2.14
303,-2.45
315,-9.17
327,-17.53
339,-26.3
351,-33.85
363,-38.69
375,-40.16
387,-38.78
399,-35.93
411,-33.19
423,-31.59
435,-31.28
446,-31.73
457,-32.19
469,-32.13
481,-31.34
493,-29.76
505,-27.25
517,-23.55
529,-18.55
541,-12.52
553,-6.16
565,-0.35
577,4.28
589,7.58
601,10.03
613,12.43
625,15.5
636,19.55
647,24.31
659,29.17
671,33.45
683,36.69
695,38.74
707,39.75
719,39.99
731,39.69
743,39.05
755,38.12
767,36.78
779,34.72
791,31.54
803,26.81
815,20.44
826,12.73
837,4.41
849,-3.56
861,-10.34
873,-15.49
885,-19.13
897,-21.75
909,-23.95
921,-26.15
933,-28.44
945,-30.63
957,-32.42
969,-33.6
981,-34.15
993,-34.27
1005,-34.24
1016,-34.29
1027,-34.46
1039,-34.59
1051,-34.47
1063,-33.88
1075,-32.75
1087,-31.15
1099,-29.29
1111,-27.45
1123,-25.85
1135,-24.58
1147,-23.48
1159,-22.26
1171,-20.52
1183,-17.99
1195,-14.56
1206,-10.41
1217,-5.85
1229,-1.21
1241,3.29
1253,7.6
1265,11.76
1277,15.78
1289,19.57
1301,22.95
1313,25.66
1325,27.51
1337,28.43
1349,28.48
1361,27.83
1373,26.62
1385,24.95
1396,22.84
1407,20.27
1419,17.3
1431,14.06
1443,10.84
1455,7.93
1467,5.55
1479,3.82
1491,2.67
1503,1.93
1515,1.47
1527,1.25
1539,1.29
1551,1.59
1563,2.07
1575,2.55
1586,2.83
1597,2.81
1609,2.61
1621,2.46
1633,2.68
1645,3.5
1657,4.96
1669,6.95
1681,9.25
1693,11.64
1705,13.93
1717,15.94
1729,17.51
1741,18.51
1753,18.87
1765,18.61
1776,17.86
1787,16.8
1799,15.62
1811,14.43
1823,13.3
1835,12.22
1847,11.18
1859,10.18
1871,9.22
1883,8.31
1895,7.45
1907,6.63
1919,5.81
1931,4.95
1943,4.01
1955,2.96
1966,1.82
1977,0.68
1989,-0.32
2001,-1.0
2013,-1.2
2025,-0.83
2037,0.1
2049,1.46
2061,3.06
2073,4.7
2085,6.22
2097,7.62
2109,8.98
2121,10.5
2133,12.39
2145,14.8
2156,17.68
2167,20.81
2179,23.87
2191,26.59
2203,28.86
2215,30.78
2227,32.52
2239,34.28
2251,36.07
2263,37.74
2275,39.07
2287,39.87
2299,40.04
2311,39.64
2323,38.77
2335,37.61
2346,36.27
2357,34.84
2369,33.29
2381,31.56
2393,29.53
2405,27.04
2417,23.9
2429,19.98
2441,15.22
2453,9.68
2465,3.57
2477,-2.74
2489,-8.83
2501,-14.26
2513,-18.61
2525,-21.49
2536,-22.56
2547,-21.51
2559,-18.21
2571,-12.87
2583,-6.15
2595,0.86
2607,6.83
2619,10.65
2631,11.82
2643,10.57
2655,7.76
2667,4.43
2679,1.42
2691,-0.92
2703,-2.71
2715,-4.25
2726,-5.72
2737,-7.05
2749,-7.95
2761,-8.16
2773,-7.6
2785,-6.51
2797,-5.33
2809,-4.53
2821,-4.37
2833,-4.82
2845,-5.57
2857,-6.19
2869,-6.24
2881,-5.46
2893,-3.86
2905,-1.66
2916,0.77
2927,3.1
2939,5.13
2951,6.91
2963,8.65
2975,10.68
2987,13.19
2999,16.18
3011,19.36
3023,22.25
3035,24.32
3047,25.07
3059,24.12
3071,21.24
3083,16.44
3095,9.87
3106,1.95
3117,-6.75
3129,-15.56
3141,-23.79
3153,-30.91
3165,-36.6
3177,-40.77
3189,-43.5
3201,-45.04
3213,-45.71
3225,-45.87
3237,-45.84
3249,-45.77
3261,-45.65
3273,-45.29
3285,-44.55
3296,-43.46
3307,-42.32
3319,-41.64
3331,-41.91
3343,-43.44
3355,-46.23
3367,-49.98
3379,-54.33
3391,-58.91
3403,-63.39
3415,-67.41
3427,-70.51
3439,-72.14
3451,-71.9
3463,-69.71
3475,-65.9
3486,-61.01
3497,-55.59
3509,-49.91
3521,-44.07
3533,-38.15
3545,-32.52
3557,-27.8
3569,-24.54
3581,-22.86
3593,-22.17
3605,-21.31
3617,-18.97
3629,-14.27
3641,-7.09
3653,1.91
3665,11.58
3676,20.75
3687,28.48
3699,34.25
3711,37.89
3723,39.55
3735,39.7
3747,39.08
3759,38.65
3771,39.34
3783,41.73
3795,45.92
3807,51.43
3819,57.45
3831,63.07
3843,67.64
3855,70.89
3866,72.91
3877,73.99
3889,74.47
3901,74.64
3913,74.77
3925,75.08
3937,75.7
3949,76.64
3961,77.72
3973,78.55
3985,78.56
3997,77.16
4009,73.82
4021,68.25
4033,60.51
4045,51.02
4056,40.46
4067,29.59
4079,18.92
4091,8.63
4103,-1.5
4115,-11.81
4127,-22.49
4139,-33.32
4151,-43.72
4163,-52.96
4175,-60.45
4187,-65.96
4199,-69.7
4211,-72.13
4223,-73.77
4235,-74.98
4246,-75.95
4257,-76.77
4269,-77.41
4281,-77.79
4293,-77.71
4305,-76.79
4317,-74.58
4329,-70.69
4341,-64.93
4353,-57.46
4365,-48.78
4377,-39.59
4389,-30.57
4401,-22.23
4413,-14.82
4425,-8.4
4436,-2.91
4447,1.75
4459,5.65
4471,8.9
4483,11.57
4495,13.66
4507,15.07
4519,15.55
4531,14.91
4543,13.1
4555,10.44
4567,7.47
4579,4.87
4591,3.08
4603,2.2
4615,1.95
4626,1.92
4637,1.78
4649,1.42
4661,0.94
4673,0.47
4685,0.02
4697,-0.52
4709,-1.3
4721,-2.39
4733,-3.69
4745,-4.9
4757,-5.71
4769,-5.91
4781,-5.55
4793,-4.91
4805,-4.36
4816,-4.19
4827,-4.4
4839,-4.69
4851,-4.62
4863,-3.79
4875,-2.06
4887,0.37
4899,3.09
4911,5.62
4923,7.69
4935,9.22
4947,10.27
4959,10.95
4971,11.3
4983,11.26
4995,10.78
5006,9.93
5017,8.88
5029,7.89
5041,7.2
5053,6.97
5065,7.25
5077,7.97
5089,8.96
5101,10.02
5113,10.93
5125,11.56
5137,11.9
5149,12.03
5161,12.12
5173,12.33
5185,12.74
5196,13.31
5207,13.93
5219,14.59
5231,15.37
5243,16.48
5255,18.12
5267,20.3
5279,22.75
5291,24.98
5303,26.54
5315,27.17
5327,26.95
5339,26.2
5351,25.32
5363,24.57
5375,24.0
5386,23.49
5397,22.94
5409,22.29
5421,21.55
5433,20.67
5445,19.48
5457,17.69
5469,15.12
5481,11.83
5493,8.15
5505,4.56
5517,1.4
5529,-1.41
5541,-4.36
5553,-8.19
5565,-13.54
5576,-20.62
5587,-29.05
5599,-37.87
5611,-45.78
5623,-51.37
5635,-53.49
5647,-51.51
5659,-45.52
5671,-36.32
5683,-25.37
5695,-14.39
5707,-5.0
5719,1.75
5731,5.56
5743,6.91
5755,6.75
5766,6.15
5777,5.91
5789,6.42
5801,7.66
5813,9.37
5825,11.28
5837,13.21
5849,15.12
5861,17.02
5873,18.87
5885,20.55
5897,21.87
5909,22.74
5921,23.21
5933,23.46
5945,23.72
5956,24.1
5967,24.5
5979,24.66
5991,24.31
6003,23.26
6015,21.62
6027,19.79
6039,18.23
6051,17.34
6063,17.25
6075,17.78
6087,18.52
6099,19.01
6111,18.91
6123,18.12
6135,16.7
6146,14.85
6157,12.73
6169,10.36
6181,7.64
6193,4.3
6205,-0.01
6217,-5.57
6229,-12.49
6241,-20.53
6253,-29.05
6265,-37.06
6277,-43.46
6289,-47.42
6301,-48.58
6313,-47.19
6325,-44.0
6336,-39.91
6347,-35.64
6359,-31.55
6371,-27.64
6383,-23.69
6395,-19.46
6407,-14.84
6419,-9.9
6431,-4.87
6443,-0.05
6455,4.25
6467,7.78
6479,10.42
6491,12.15
6503,13.06
6515,13.31
6526,13.08
6537,12.55
6549,11.94
6561,11.41
6573,11.14
6585,11.2
6597,11.56
6609,12.08
6621,12.59
6633,12.95
6645,13.04
6657,12.82
6669,12.3
6681,11.56
6693,10.77
6705,10.17
6716,10.03
6727,10.48
6739,11.48
6751,12.74
6763,13.91
6775,14.72
6787,15.16
6799,15.45
6811,15.94
6823,16.81
6835,18.03
6847,19.34
6859,20.53
6871,21.61
6883,22.86
6895,24.67
6906,27.23
6917,30.3
6929,33.27
6941,35.29
6953,35.75
6965,34.44
6977,31.66
6989,28.02
7001,24.21
7013,20.73
7025,17.95
7037,16.05
7049,15.16
7061,15.28
7073,16.18
7085,17.31
7096,17.85
7107,16.92
7119,13.93
7131,8.86
7143,2.35
7155,-4.51
7167,-10.58
7179,-15.0
7191,-17.47
7203,-18.22
7215,-17.8
7227,-16.77
7239,-15.67
7251,-14.86
7263,-14.65
7275,-15.31
7286,-17.01
7297,-19.79
7309,-23.42
7321,-27.55
7333,-31.78
7345,-35.79
7357,-39.41
7369,-42.61
7381,-45.3
7393,-47.3
7405,-48.32
7417,-48.1
7429,-46.61
7441,-44.1
7453,-41.12
7465,-38.2
7476,-35.73
7487,-33.73
7499,-31.98
7511,-30.14
7523,-27.91
7535,-25.09
7547,-21.5
7559,-16.94
7571,-11.15
7583,-3.99
7595,4.43
7607,13.68
7619,23.05
7631,31.92
7643,39.94
7655,47.16
7666,53.89
7677,60.45
7689,66.73
7701,72.04
7713,75.14
7725,74.56
7737,69.18
7749,58.75
7761,44.14
7773,27.25
7785,10.58
7797,-3.53
7809,-13.42
7821,-18.5
7833,-19.2
7845,-16.64
7856,-12.26
7867,-7.44
7879,-3.35
7891,-0.78
7903,-0.17
7915,-1.47
7927,-4.27
7939,-7.81
7951,-11.24
7963,-13.85
7975,-15.2
7987,-15.21
7999,-14.09
8011,-12.27
8023,-10.31
8035,-8.78
8046,-8.22
8057,-8.95
8069,-10.95
8081,-13.83
8093,-16.94
8105,-19.61
8117,-21.5
8129,-22.73
8141,-23.87
8153,-25.61
8165,-28.38
8177,-32.15
8189,-36.42
8201,-40.44
8213,-43.6
8225,-45.61
8236,-46.57
8247,-46.86
8259,-46.9
8271,-47.01
8283,-47.33
8295,-47.74
8307,-47.92
8319,-47.37
8331,-45.6
8343,-42.28
8355,-37.46
8367,-31.61
8379,-25.47
8391,-19.84
8403,-15.19
8415,-11.52
8426,-8.45
8437,-5.48
8449,-2.27
8461,1.1
8473,4.23
8485,6.54
8497,7.49
8509,6.78
8521,4.38
8533,0.52
8545,-4.33
8557,-9.59
8569,-14.56
8581,-18.59
8593,-21.16
8605,-21.99
8616,-20.97
8627,-18.14
8639,-13.63
8651,-7.59
8663,-0.39
8675,7.35
8687,14.72
8699,20.76
8711,24.76
8723,26.54
8735,26.46
8747,25.25
8759,23.67
8771,22.16
8783,20.82
8795,19.48
8806,17.97
8817,16.28
8829,14.66
8841,13.46
8853,12.98
8865,13.32
8877,14.29
8889,15.53
8901,16.62
8913,17.3
8925,17.51
8937,17.39
8949,17.04
8961,16.39
8973,15.2
8985,13.14
8996,10.01
9007,5.96
9019,1.36
9031,-3.26
9043,-7.45
9055,-10.87
9067,-13.2
9079,-14.15
9091,-13.43
9103,-10.98
9115,-7.15
9127,-2.63
9139,1.69
9151,5.11
9163,7.41
9175,8.82
9186,9.85
9197,10.96
9209,12.36
9221,14.01
9233,15.73
9245,17.37
9257,18.86
9269,20.23
9281,21.47
9293,22.52
9305,23.26
9317,23.54
9329,23.32
9341,22.65
9353,21.67
9365,20.64
9376,19.82
9387,19.4
9399,19.44
9411,19.82
9423,20.26
9435,20.42
9447,20.06
9459,19.1
9471,17.59
9483,15.73
9495,13.7
9507,11.63
9519,9.62
9531,7.76
9543,6.12
9555,4.75
9566,3.55
9577,2.32
9589,0.74
9601,-1.47
9613,-4.49
9625,-8.22
9637,-12.35
9649,-16.39
9661,-19.79
9673,-22.03
9685,-22.7
9697,-21.54
9709,-18.53
9721,-13.84
9733,-7.83
9745,-0.92
9756,6.48
9767,14.0
9779,21.29
9791,27.96
9803,33.63
9815,38.05
9827,41.19
9839,43.3
9851,44.71
9863,45.66
9875,46.05
9887,45.42
9899,43.14
9911,38.71
9923,32.01
9935,23.32
9946,13.23
9957,2.36
9969,-8.72
9981,-19.58
9993,-29.87
10005,-39.31
10017,-47.75
10029,-55.2
10041,-61.89
10053,-68.15
10065,-74.25
10077,-80.17
10089,-85.48
10101,-89.49
10113,-91.48
10125,-90.96
10136,-87.8
10147,-82.26
10159,-74.82
10171,-66.09
10183,-56.64
10195,-46.92
10207,-37.11
10219,-27.26
10231,-17.35
10243,-7.67
10255,1.1
10267,7.84
10279,11.41
10291,11.1
10303,7.12
10315,0.56
10326,-6.87
10337,-13.49
10349,-18.2
10361,-20.63
10373,-21.04
10385,-19.89
10397,-17.62
10409,-14.47
10421,-10.55
10433,-6.03
10445,-1.21
10457,3.54
10469,7.79
10481,11.32
10493,14.11
10505,16.39
10516,18.5
10527,20.67
10539,22.91
10551,24.98
10563,26.56
10575,27.44
10587,27.64
10599,27.42
10611,27.14
10623,27.08
10635,27.36
10647,27.98
10659,28.83
10671,29.82
10683,30.84
10695,31.85
10706,32.8
10717,33.71
10729,34.69
10741,35.87
10753,37.43
10765,39.41
10777,41.69
10789,44.05
10801,46.17
10813,47.89
10825,49.2
10837,50.32
10849,51.58
10861,53.25
10873,55.36
10885,57.71
10896,59.94
10907,61.7
10919,62.82
10931,63.26
10943,62.99
10955,61.89
10967,59.63
10979,55.81
10991,50.12
11003,42.43
11015,32.84
11027,21.5
11039,8.6
11051,-5.64
11063,-20.78
11075,-35.94
11086,-49.88
11097,-61.28
11109,-69.18
11121,-73.42
11133,-74.67
11145,-74.09
11157,-72.8
11169,-71.38
11181,-69.74
11193,-67.34
11205,-63.6
11217,-58.38
11229,-52.09
11241,-45.51
11253,-39.43
11265,-34.32
11276,-30.17
11287,-26.65
11299,-23.35
11311,-19.98
11323,-16.48
11335,-12.93
11347,-9.43
11359,-6.02
11371,-2.65
11383,0.7
11395,4.04
11407,7.29
11419,10.37
11431,13.19
11443,15.71
11455,17.95
11466,19.98
11477,21.93
11489,23.9
11501,25.9
11513,27.8
11525,29.23
11537,29.77
11549,29.13
11561,27.33
11573,24.87
11585,22.49
11597,20.91
11609,20.31
11621,20.24
11633,19.63
11645,17.29
11656,12.39
11667,4.89
11679,-4.43
11691,-14.23
11703,-23.07
11715,-29.95
11727,-34.67
11739,-37.76
11751,-40.41
11763,-44.08
11775,-50.16
11787,-59.4
11799,-71.43
11811,-84.49
11823,-95.81
11835,-102.41
11846,-102.24
11857,-95.06
11869,-82.45
11881,-67.24
11893,-52.25
11905,-39.29
11917,-28.77
11929,-20.01
11941,-11.93
11953,-3.83
11965,4.4
11977,12.44
11989,19.92
12001,26.74
12013,33.01
12025,38.9
12036,44.39
12047,49.15
12059,52.64
12071,54.22
12083,53.57
12095,50.8
12107,46.53
12119,41.69
12131,37.14
12143,33.39
12155,30.48
12167,28.05
12179,25.63
12191,22.89
12203,19.82
12215,16.69
12226,13.91
12237,11.81
12249,10.51
12261,9.86
12273,9.58
12285,9.32
12297,8.91
12309,8.29
12321,7.63
12333,7.12
12345,6.98
12357,7.3
12369,8.08
12381,9.18
12393,10.43
12405,11.65
12416,12.64
12427,13.35
12439,13.76
12451,14.01
12463,14.39
12475,15.21
12487,16.74
12499,19.05
12511,22.02
12523,25.3
12535,28.46
12547,31.14
12559,33.12
12571,34.39
12583,35.01
12595,35.08
12606,34.63
12617,33.55
12629,31.64
12641,28.66
12653,24.36
12665,18.56
12677,11.18
12689,2.35
12701,-7.57
12713,-17.89
12725,-27.73
12737,-36.26
12749,-42.85
12761,-47.28
12773,-49.76
12785,-50.69
12796,-50.49
12807,-49.43
12819,-47.51
12831,-44.7
12843,-41.08
12855,-37.01
12867,-33.01
12879,-29.64
12891,-27.16
12903,-25.46
12915,-24.15
12927,-22.73
12939,-20.93
12951,-18.85
12963,-16.88
12975,-15.48
12986,-14.93
12997,-15.17
13009,-15.81
13021,-16.41
13033,-16.57
13045,-16.15
13057,-15.23
13069,-14.05
13081,-12.9
13093,-12.03
13105,-11.53
13117,-11.34
13129,-11.23
13141,-10.91
13153,-10.13
13165,-8.77
13176,-6.82
13187,-4.26
13199,-1.02
13211,3.04
13223,8.0
13235,13.72
13247,19.77
13259,25.54
13271,30.4
13283,33.93
13295,35.98
13307,36.61
13319,35.97
13331,34.25
13343,31.68
13355,28.56
13366,25.31
13377,22.33
13389,19.98
13401,18.37
13413,17.41
13425,16.91
13437,16.69
13449,16.65
13461,16.76
13473,17.01
13485,17.28
13497,17.34
13509,16.91
13521,15.8
13533,14.03
13545,11.91
13556,9.95
13567,8.66
13579,8.36
13591,8.93
13603,9.88
13615,10.49
13627,10.11
13639,8.4
13651,5.49
13663,1.93
13675,-1.65
13687,-4.68
13699,-6.97
13711,-8.68
13723,-10.17
13735,-11.93
13746,-14.48
13757,-18.39
13769,-24.2
13781,-32.08
13793,-41.47
13805,-50.98
13817,-58.63
13829,-62.6
13841,-61.98
13853,-57.2
13865,-49.75
13877,-41.53
13889,-33.95
13901,-27.54
13913,-22.06
13925,-17.02
13936,-12.22
13947,-7.88
13959,-4.45
13971,-2.2
13983,-1.05
13995,-0.59
14007,-0.4
14019,-0.33
14031,-0.55
14043,-1.44
14055,-3.33
14067,-6.31
14079,-10.07
14091,-14.11
14103,-17.88
14115,-21.05
14126,-23.61
14137,-25.76
14149,-27.84
14161,-30.07
14173,-32.49
14185,-34.96
14197,-37.21
14209,-38.93
14221,-39.83
14233,-39.68
14245,-38.36
14257,-35.89
14269,-32.38
14281,-28.02
14293,-22.96
14305,-17.38
14316,-11.43
14327,-5.36
14339,0.47
14351,5.65
14363,9.77
14375,12.67
14387,14.52
14399,15.84
14411,17.28
14423,19.4
14435,22.44
14447,26.2
14459,30.19
14471,33.77
14483,36.4
14495,37.82
14506,38.03
14517,37.27
14529,35.84
14541,33.97
14553,31.86
14565,29.63
14577,27.39
14589,25.26
14601,23.37
14613,21.84
14625,20.7
14637,19.92
14649,19.41
14661,19.02
14673,18.6
14685,18.04
14696,17.31
14707,16.44
14719,15.54
14731,14.77
14743,14.27
14755,14.07
14767,14.11
14779,14.26
14791,14.33
14803,14.23
14815,13.95
14827,13.59
14839,13.28
14851,13.14
14863,13.15
14875,13.24
14886,13.26
14897,13.09
14909,12.65
14921,12.02
14933,11.37
14945,10.97
14957,11.06
14969,11.8
14981,13.15
14993,14.9
15005,16.71
15017,18.25
15029,19.28
15041,19.68
15053,19.49
15065,18.83
15076,17.84
15087,16.71
15099,15.59
15111,14.64
15123,13.9
15135,13.37
15147,12.91
15159,12.46
15171,12.03
15183,11.78
15195,11.93
15207,12.64
15219,13.88
15231,15.47
15243,17.08
15255,18.44
15266,19.46
15277,20.21
15289,20.93
15301,21.86
15313,23.14
15325,24.78
15337,26.68
15349,28.67
15361,30.58
15373,32.19
15385,33.25
15397,33.51
15409,32.79
15421,31.06
15433,28.6
15445,25.76
15456,22.85
15467,19.84
15479,16.28
15491,11.53
15503,5.09
15515,-3.02
15527,-12.13
15539,-21.1
15551,-28.79
15563,-34.41
15575,-37.74
15587,-38.95
15599,-38.49
15611,-36.8
15623,-34.32
15635,-31.62
15646,-29.4
15657,-28.45
15669,-29.27
15681,-31.85
15693,-35.51
15705,-39.15
15717,-41.63
15729,-42.24
15741,-40.88
15753,-37.96
15765,-34.08
15777,-29.69
15789,-24.93
15801,-19.78
15813,-14.21
15825,-8.42
15836,-2.81
15847,2.12
15859,5.95
15871,8.42
15883,9.45
15895,9.01
15907,7.19
15919,4.2
15931,0.44
15943,-3.48
15955,-6.95
15967,-9.55
15979,-11.23
15991,-12.32
16003,-13.33
16015,-14.62
16026,-16.19
16037,-17.66
16049,-18.46
16061,-18.13
16073,-16.59
16085,-14.21
16097,-11.73
16109,-9.99
16121,-9.75
16133,-11.55
16145,-15.63
16157,-21.77
16169,-29.17
16181,-36.52
16193,-42.19
16205,-44.85
16216,-43.87
16227,-39.62
16239,-33.22
16251,-26.0
16263,-19.03
16275,-12.74
16287,-6.99
16299,-1.45
16311,4.08
16323,9.53
16335,14.62
16347,19.07
16359,22.74
16371,25.64
16383,27.87
16395,29.53
16406,30.66
16417,31.22
16429,31.18
16441,30.51
16453,29.32
16465,27.87
16477,26.55
16489,25.72
16501,25.55
16513,25.96
16525,26.59
16537,27.04
16549,27.04
16561,26.58
16573,25.9
16585,25.34
16596,25.13
16607,25.34
16619,25.82
16631,26.31
16643,26.55
16655,26.36
16667,25.65
16679,24.44
16691,22.77
16703,20.75
16715,18.44
16727,15.89
16739,13.09
16751,10.04
16763,6.77
16775,3.42
16786,0.26
16797,-2.35
16809,-4.1
16821,-4.82
16833,-4.56
16845,-3.55
16857,-2.09
16869,-0.49
16881,1.03
16893,2.37
16905,3.44
16917,4.16
16929,4.45
16941,4.28
16953,3.71
16965,2.98
16976,2.34
16987,1.97
16999,1.86
17011,1.75
17023,1.24
17035,-0.05
17047,-2.3
17059,-5.41
17071,-8.98
17083,-12.48
17095,-15.31
17107,-17.0
17119,-17.23
17131,-16.02
17143,-13.76
17155,-11.34
17166,-9.89
17177,-10.45
17189,-13.49
17201,-18.58
17213,-24.45
17225,-29.44
17237,-32.26
17249,-32.5
17261,-30.92
17273,-29.11
17285,-28.84
17297,-31.35
17309,-36.83
17321,-44.36
17333,-52.13
17345,-58.02
17356,-60.14
17367,-57.41
17379,-49.81
17391,-38.38
17403,-24.85
17415,-11.15
17427,1.13
17439,11.09
17451,18.48
17463,23.56
17475,26.71
17487,28.36
17499,28.93
17511,28.87
17523,28.68
17535,28.78
17546,29.34
17557,30.12
17569,30.57
17581,30.06
17593,28.24
17605,25.16
17617,21.35
17629,17.57
17641,14.44
17653,12.26
17665,10.88
17677,9.9
17689,8.85
17701,7.43
17713,5.61
17725,3.61
17736,1.69
17747,0.1
17759,-1.1
17771,-1.97
17783,-2.68
17795,-3.41
17807,-4.3
17819,-5.41
17831,-6.69
17843,-8.02
17855,-9.2
17867,-10.05
17879,-10.49
17891,-10.57
17903,-10.48
17915,-10.47
17926,-10.77
17937,-11.49
17949,-12.58
17961,-13.92
17973,-15.34
17985,-16.64
17997,-17.69
18009,-18.33
18021,-18.45
18033,-17.92
18045,-16.74
18057,-14.97
18069,-12.85
18081,-10.76
18093,-9.12
18105,-8.27
18116,-8.31
18127,-9.01
18139,-9.91
18151,-10.44
18163,-10.21
18175,-9.16
18187,-7.57
18199,-5.85
18211,-4.35
18223,-3.15
18235,-2.12
18247,-1.09
18259,-0.03
18271,0.96
18283,1.69
18295,2.12
18306,2.42
18317,2.94
18329,4.03
18341,5.81
18353,8.13
18365,10.67
18377,13.17
18389,15.49
18401,17.69
18413,19.89
18425,22.08
18437,24.12
18449,25.8
18461,26.94
18473,27.55
18485,27.74
18496,27.66
18507,27.32
18519,26.51
18531,24.91
18543,22.22
18555,18.36
18567,13.53
18579,8.17
18591,2.71
18603,-2.66
18615,-8.04
18627,-13.69
18639,-19.86
18651,-26.45
18663,-33.04
18675,-39.06
18686,-44.11
18697,-48.05
18709,-50.88
18721,-52.49
18733,-52.51
18745,-50.37
18757,-45.63
18769,-38.17
18781,-28.33
18793,-16.8
18805,-4.41
18817,7.97
18829,19.33
18841,28.49
18853,34.13
18865,35.25
18876,31.6
18887,24.06
18899,14.46
18911,5.03
18923,-2.35
18935,-6.71
18947,-8.1
18959,-7.26
18971,-5.21
18983,-2.86
18995,-0.76
19007,0.84
19019,1.85
19031,2.29
19043,2.2
19055,1.68
19066,0.95
19077,0.29
19089,-0.04
19101,0.15
19113,0.84
19125,1.87
19137,2.96
19149,3.8
19161,4.21
19173,4.21
19185,3.92
19197,3.59
19209,3.4
19221,3.42
19233,3.61
19245,3.89
19256,4.17
19267,4.43
19279,4.73
19291,5.09
19303,5.49
19315,5.85
19327,6.06
19339,6.05
19351,5.8
19363,5.4
19375,4.96
19387,4.57
19399,4.23
19411,3.89
19423,3.5
19435,3.03
19446,2.58
19457,2.28
19469,2.24
19481,2.48
19493,2.86
19505,3.15
19517,3.15
19529,2.76
19541,2.09
19553,1.31
19565,0.66
19577,0.26
19589,0.17
19601,0.37
19613,0.82
19625,1.47
19636,2.29
19647,3.17
19659,4.0
19671,4.65
19683,5.01
19695,5.03
19707,4.75
19719,4.31
19731,3.92
19743,3.73
19755,3.84
19767,4.19
19779,4.61
19791,4.84
19803,4.72
19815,4.19
19826,3.37
19837,2.48
19849,1.73
19861,1.2
19873,0.82
19885,0.46
19897,-0.03
19909,-0.66
19921,-1.29
19933,-1.72
19945,-1.78
19957,-1.43
19969,-0.79
19981,-0.11
19993,0.41
20005,0.67
20016,0.74
20027,0.75
20039,0.85
20051,1.09
20063,1.41
20075,1.7
20087,1.85
20099,1.82
20111,1.62
20123,1.3
20135,0.92
20147,0.53
20159,0.19
20171,-0.05
20183,-0.19
20195,-0.26
20206,-0.32
20217,-0.49
20229,-0.83
20241,-1.37
20253,-2.04
20265,-2.74
20277,-3.31
20289,-3.63
20301,-3.6
20313,-3.22
20325,-2.55
20337,-1.74
20349,-0.95
20361,-0.29
20373,0.2
20385,0.58
20396,0.93
20407,1.3
20419,1.59
20431,1.69
20443,1.5
20455,1.01
20467,0.35
20479,-0.27
20491,-0.67
20503,-0.75
20515,-0.54
20527,-0.15
20539,0.27
20551,0.57
20563,0.62
20575,0.36
20586,-0.19
20597,-0.91
20609,-1.64
20621,-2.16
20633,-2.36
20645,-2.22
20657,-1.85
20669,-1.43
20681,-1.07
20693,-0.83
20705,-0.63
20717,-0.38
20729,-0.05
20741,0.34
20753,0.71
20765,0.96
20776,1.06
20787,1.06
20799,1.03
20811,1.03
20823,1.07
20835,1.06
20847,0.89
20859,0.5
20871,-0.09
20883,-0.76
20895,-1.36
20907,-1.74
20919,-1.85
20931,-1.72
20943,-1.43
20955,-1.09
20966,-0.76
20977,-0.47
20989,-0.22
