seconds,BVP
9,11.4
21,10.55
33,9.39
45,7.98
57,6.39
69,4.78
81,3.24
93,1.9
105,0.85
117,0.16
129,-0.17
141,-0.18
152,0.0
163,0.27
175,0.54
187,0.78
199,0.99
211,1.24
223,1.54
235,1.85
247,2.11
259,2.2
271,2.06
283,1.7
295,1.17
307,0.61
319,0.2
331,0.04
342,0.13
353,0.42
365,0.77
377,1.1
389,1.39
401,1.68
413,2.05
425,2.5
437,3.03
449,3.53
461,3.95
473,4.27
485,4.45
497,4.52
509,4.45
521,4.26
532,3.97
543,3.62
555,3.27
567,2.95
579,2.67
591,2.4
603,2.12
615,1.83
627,1.5
639,1.14
651,0.71
663,0.17
675,-0.47
687,-1.15
699,-1.81
711,-2.36
722,-2.75
733,-3.02
745,-3.21
757,-3.37
769,-3.54
781,-3.79
793,-4.22
805,-4.9
817,-5.84
829,-6.96
841,-8.14
853,-9.27
865,-10.25
877,-11.07
889,-11.75
901,-12.3
912,-12.75
923,-13.14
935,-13.53
947,-13.99
959,-14.51
971,-15.01
983,-15.32
995,-15.27
1007,-14.76
1019,-13.87
1031,-12.77
1043,-11.65
1055,-10.57
1067,-9.45
1079,-8.16
1091,-6.66
1102,-5.06
1113,-3.61
1125,-2.56
1137,-2.01
1149,-1.9
1161,-2.03
1173,-2.22
1185,-2.43
1197,-2.69
1209,-3.09
1221,-3.59
1233,-4.08
1245,-4.45
1257,-4.6
1269,-4.54
1281,-4.33
1292,-4.01
1303,-3.64
1315,-3.2
1327,-2.77
1339,-2.4
1351,-2.22
1363,-2.31
1375,-2.69
1387,-3.31
1399,-4.1
1411,-4.99
1423,-5.9
1435,-6.81
1447,-7.68
1459,-8.46
1471,-9.08
1482,-9.45
1493,-9.46
1505,-9.03
1517,-8.15
1529,-6.89
1541,-5.44
1553,-4.06
1565,-2.95
1577,-2.24
1589,-2.01
1601,-2.2
1613,-2.74
1625,-3.51
1637,-4.39
1649,-5.25
1661,-5.99
1672,-6.51
1683,-6.77
1695,-6.79
1707,-6.61
1719,-6.27
1731,-5.76
1743,-5.06
1755,-4.18
1767,-3.17
1779,-2.1
1791,-1.03
1803,0.01
1815,0.96
1827,1.81
1839,2.49
1851,3.04
1862,3.47
1873,3.89
1885,4.35
1897,4.88
1909,5.44
1921,5.91
1933,6.18
1945,6.19
1957,6.08
1969,6.01
1981,6.24
1993,6.96
2005,8.2
2017,9.87
2029,11.76
2041,13.66
2052,15.35
2063,16.75
2075,17.83
2087,18.69
2099,19.37
2111,19.9
2123,20.27
2135,20.45
2147,20.5
2159,20.45
2171,20.33
2183,20.09
2195,19.64
2207,18.85
2219,17.6
2231,15.94
2242,13.98
2253,11.9
2265,9.82
2277,7.8
2289,5.8
2301,3.82
2313,1.89
2325,0.09
2337,-1.41
2349,-2.52
2361,-3.22
2373,-3.53
2385,-3.49
2397,-3.07
2409,-2.27
2421,-1.11
2432,0.33
2443,1.84
2455,3.22
2467,4.27
2479,4.93
2491,5.22
2503,5.24
2515,5.09
2527,4.86
2539,4.58
2551,4.28
2563,3.94
2575,3.51
2587,2.97
2599,2.26
2611,1.4
2622,0.41
2633,-0.63
2645,-1.67
2657,-2.69
2669,-3.68
2681,-4.64
2693,-5.52
2705,-6.35
2717,-7.13
2729,-7.92
2741,-8.78
2753,-9.76
2765,-10.88
2777,-12.05
2789,-13.17
2801,-14.14
2812,-14.88
2823,-15.32
2835,-15.4
2847,-15.06
2859,-14.22
2871,-12.89
2883,-11.16
2895,-9.23
2907,-7.34
2919,-5.74
2931,-4.53
2943,-3.7
2955,-3.17
2967,-2.84
2979,-2.62
2991,-2.47
3002,-2.38
3013,-2.28
3025,-2.13
3037,-1.82
3049,-1.32
3061,-0.68
3073,0.03
3085,0.67
3097,1.15
3109,1.42
3121,1.52
3133,1.46
3145,1.21
3157,0.7
3169,-0.16
3181,-1.36
3192,-2.84
3203,-4.4
3215,-5.86
3227,-7.04
3239,-7.86
3251,-8.33
3263,-8.52
3275,-8.53
3287,-8.38
3299,-8.06
3311,-7.52
3323,-6.77
3335,-5.81
3347,-4.73
3359,-3.61
3371,-2.49
3382,-1.42
3393,-0.38
3405,0.62
3417,1.51
3429,2.2
3441,2.58
3453,2.57
3465,2.18
3477,1.57
3489,0.92
3501,0.46
3513,0.33
3525,0.56
3537,1.07
3549,1.67
3561,2.2
3572,2.52
3583,2.63
3595,2.55
3607,2.33
3619,2.0
3631,1.58
3643,1.14
3655,0.75
3667,0.53
3679,0.57
3691,0.92
3703,1.48
3715,2.13
3727,2.68
3739,3.03
3751,3.16
3762,3.14
3773,3.06
3785,2.96
3797,2.89
3809,2.8
3821,2.65
3833,2.43
3845,2.11
3857,1.74
3869,1.39
3881,1.09
3893,0.79
3905,0.46
3917,0.08
3929,-0.3
3941,-0.52
3952,-0.46
3963,-0.05
3975,0.61
3987,1.36
3999,2.06
4011,2.67
4023,3.3
4035,4.07
4047,5.07
4059,6.23
4071,7.38
4083,8.29
4095,8.89
4107,9.19
4119,9.31
4131,9.36
4142,9.4
4153,9.37
4165,9.23
4177,8.92
4189,8.4
4201,7.68
4213,6.77
4225,5.67
4237,4.43
4249,3.13
4261,1.87
4273,0.74
4285,-0.17
4297,-0.83
4309,-1.27
4321,-1.51
4332,-1.63
4343,-1.72
4355,-1.89
4367,-2.2
4379,-2.67
4391,-3.3
4403,-4.03
4415,-4.8
4427,-5.6
4439,-6.39
4451,-7.12
4463,-7.81
4475,-8.41
4487,-8.93
4499,-9.41
4511,-9.86
4522,-10.26
4533,-10.6
4545,-10.84
4557,-10.94
4569,-10.87
4581,-10.65
4593,-10.29
4605,-9.79
4617,-9.13
4629,-8.29
4641,-7.33
4653,-6.33
4665,-5.37
4677,-4.54
4689,-3.87
4701,-3.35
4712,-2.96
4723,-2.66
4735,-2.39
4747,-2.16
4759,-1.95
4771,-1.76
4783,-1.57
4795,-1.34
4807,-1.0
4819,-0.57
4831,-0.04
4843,0.55
4855,1.14
4867,1.73
4879,2.28
4891,2.77
4902,3.2
4913,3.53
4925,3.74
4937,3.85
4949,3.88
4961,3.93
4973,4.06
4985,4.32
4997,4.69
5009,5.08
5021,5.43
5033,5.67
5045,5.79
5057,5.76
5069,5.59
5081,5.23
5092,4.66
5103,3.85
5115,2.82
5127,1.69
5139,0.57
5151,-0.37
5163,-1.05
5175,-1.48
5187,-1.71
5199,-1.81
5211,-1.81
5223,-1.77
5235,-1.68
5247,-1.54
5259,-1.28
5271,-0.82
5282,-0.06
5293,1.04
5305,2.45
5317,4.07
5329,5.72
5341,7.26
5353,8.6
5365,9.75
5377,10.75
5389,11.62
5401,12.35
5413,12.85
5425,13.07
5437,12.94
5449,12.5
5461,11.78
5472,10.91
5483,10.02
5495,9.22
5507,8.6
5519,8.18
5531,7.93
5543,7.81
5555,7.77
5567,7.75
5579,7.73
5591,7.7
5603,7.64
5615,7.48
5627,7.12
5639,6.49
5651,5.57
5662,4.41
5673,3.11
5685,1.76
5697,0.5
5709,-0.62
5721,-1.56
5733,-2.35
5745,-3.03
5757,-3.66
5769,-4.3
5781,-5.0
5793,-5.8
5805,-6.74
5817,-7.79
5829,-8.86
5841,-9.77
5852,-10.32
5863,-10.39
5875,-9.98
5887,-9.18
5899,-8.21
5911,-7.33
5923,-6.7
5935,-6.38
5947,-6.32
5959,-6.36
5971,-6.36
5983,-6.24
5995,-5.97
6007,-5.59
6019,-5.17
6031,-4.75
6042,-4.3
6053,-3.8
6065,-3.25
6077,-2.75
6089,-2.46
6101,-2.53
6113,-3.02
6125,-3.83
6137,-4.72
6149,-5.45
6161,-5.86
6173,-5.91
6185,-5.67
6197,-5.28
6209,-4.85
6221,-4.46
6232,-4.1
6243,-3.76
6255,-3.38
6267,-2.95
6279,-2.48
6291,-2.04
6303,-1.72
6315,-1.57
6327,-1.66
6339,-1.92
6351,-2.25
6363,-2.59
6375,-2.88
6387,-3.14
6399,-3.39
6411,-3.61
6422,-3.71
6433,-3.62
6445,-3.28
6457,-2.76
6469,-2.19
6481,-1.68
6493,-1.32
6505,-1.1
6517,-0.98
6529,-0.92
6541,-0.9
6553,-0.92
6565,-0.97
6577,-0.99
6589,-0.9
6601,-0.65
6612,-0.23
6623,0.26
6635,0.7
6647,0.97
6659,1.05
6671,0.97
6683,0.85
6695,0.79
6707,0.89
6719,1.15
6731,1.55
6743,1.98
6755,2.36
6767,2.6
6779,2.66
6791,2.54
6802,2.32
6813,2.04
6825,1.73
6837,1.29
6849,0.65
6861,-0.23
6873,-1.28
6885,-2.34
6897,-3.2
6909,-3.73
6921,-3.98
6933,-4.05
6945,-4.12
6957,-4.3
6969,-4.54
6981,-4.74
6992,-4.74
7003,-4.46
7015,-3.92
7027,-3.26
7039,-2.56
7051,-1.91
7063,-1.3
7075,-0.69
7087,-0.06
7099,0.63
7111,1.35
7123,2.06
7135,2.69
7147,3.19
7159,3.56
7171,3.79
7182,3.91
7193,3.88
7205,3.69
7217,3.32
7229,2.81
7241,2.25
7253,1.74
7265,1.39
7277,1.23
7289,1.22
7301,1.28
7313,1.3
7325,1.22
7337,0.98
7349,0.62
7361,0.07
7372,-0.64
7383,-1.53
7395,-2.55
7407,-3.64
7419,-4.79
7431,-5.96
7443,-7.15
7455,-8.31
7467,-9.32
7479,-9.95
7491,-10.0
7503,-9.4
7515,-8.24
7527,-6.78
7539,-5.28
7551,-3.92
7562,-2.65
7573,-1.34
7585,0.12
7597,1.7
7609,3.29
7621,4.74
7633,5.94
7645,6.9
7657,7.65
7669,8.29
7681,8.86
7693,9.34
7705,9.66
7717,9.74
7729,9.53
7741,9.01
7752,8.24
7763,7.32
7775,6.43
7787,5.78
7799,5.46
7811,5.45
7823,5.61
7835,5.71
7847,5.53
7859,4.92
7871,3.87
7883,2.47
7895,0.9
7907,-0.65
7919,-2.04
7931,-3.14
7942,-3.91
7953,-4.34
7965,-4.5
7977,-4.51
7989,-4.46
8001,-4.47
8013,-4.57
8025,-4.72
8037,-4.86
8049,-4.94
8061,-4.91
8073,-4.76
8085,-4.46
8097,-3.93
8109,-3.09
8121,-1.93
8132,-0.55
8143,0.84
8155,1.99
8167,2.77
8179,3.19
8191,3.39
8203,3.57
8215,3.87
8227,4.35
8239,4.94
8251,5.53
8263,6.0
8275,6.29
8287,6.34
8299,6.16
8311,5.83
8322,5.49
8333,5.28
8345,5.3
8357,5.5
8369,5.75
8381,5.89
8393,5.85
8405,5.64
8417,5.44
8429,5.5
8441,6.01
8453,7.07
8465,8.65
8477,10.63
8489,12.92
8501,15.38
8512,17.82
8523,20.14
8535,22.33
8547,24.41
8559,26.37
8571,28.16
8583,29.82
8595,31.43
8607,33.0
8619,34.42
8631,35.62
8643,36.58
8655,37.25
8667,37.41
8679,36.94
8691,35.84
8702,34.26
8713,32.13
8725,29.12
8737,25.06
8749,20.18
8761,15.07
8773,10.44
8785,7.18
8797,5.97
8809,7.1
8821,10.01
8833,13.32
8845,15.54
8857,15.42
8869,12.09
8881,5.0
8892,-5.6
8903,-19.35
8915,-33.73
8927,-45.05
8939,-51.87
8951,-55.27
8963,-57.31
8975,-58.82
8987,-60.5
8999,-62.37
9011,-63.68
9023,-63.19
9035,-59.76
9047,-52.95
9059,-42.69
9071,-29.39
9082,-14.13
9093,1.2
9105,14.59
9117,24.38
9129,29.8
9141,31.03
9153,28.9
9165,24.78
9177,20.05
9189,15.49
9201,11.12
9213,6.59
9225,1.67
9237,-3.6
9249,-8.96
9261,-14.2
9272,-19.15
9283,-23.72
9295,-27.91
9307,-31.71
9319,-34.95
9331,-37.18
9343,-37.96
9355,-37.01
9367,-34.48
9379,-30.79
9391,-26.59
9403,-22.65
9415,-19.78
9427,-18.65
9439,-19.49
9451,-22.09
9462,-25.59
9473,-28.77
9485,-30.38
9497,-29.52
9509,-26.04
9521,-20.67
9533,-14.6
9545,-9.1
9557,-5.08
9569,-2.87
9581,-2.33
9593,-3.01
9605,-4.47
9617,-6.3
9629,-8.19
9641,-9.82
9652,-10.89
9663,-11.18
9675,-10.66
9687,-9.5
9699,-8.05
9711,-6.71
9723,-5.74
9735,-5.2
9747,-4.92
9759,-4.6
9771,-3.99
9783,-2.95
9795,-1.49
9807,0.19
9819,1.88
9831,3.41
9842,4.67
9853,5.65
9865,6.5
9877,7.34
9889,8.25
9901,9.29
9913,10.36
9925,11.35
9937,12.14
9949,12.67
9961,12.93
9973,13.0
9985,12.95
9997,12.85
10009,12.72
10021,12.56
10032,12.35
10043,12.05
10055,11.63
10067,11.08
10079,10.42
10091,9.72
10103,9.05
10115,8.46
10127,7.96
10139,7.46
10151,6.85
10163,5.99
10175,4.81
10187,3.32
10199,1.64
10211,-0.09
10222,-1.76
10233,-3.28
10245,-4.69
10257,-6.05
10269,-7.45
10281,-8.92
10293,-10.39
10305,-11.71
10317,-12.67
10329,-13.09
10341,-12.89
10353,-12.16
10365,-11.03
10377,-9.64
10389,-8.04
10401,-6.17
10412,-3.96
10423,-1.43
10435,1.28
10447,3.9
10459,6.1
10471,7.7
10483,8.65
10495,9.07
10507,9.13
10519,9.02
10531,8.89
10543,8.84
10555,8.94
10567,9.24
10579,9.76
10591,10.4
10602,11.01
10613,11.43
10625,11.56
10637,11.45
10649,11.22
10661,11.0
10673,10.89
10685,10.87
10697,10.86
10709,10.73
10721,10.44
10733,9.97
10745,9.38
10757,8.71
10769,7.97
10781,7.16
10792,6.24
10803,5.2
10815,4.04
10827,2.84
10839,1.74
10851,0.87
10863,0.35
10875,0.21
10887,0.44
10899,0.99
10911,1.8
10923,2.84
10935,4.09
10947,5.5
10959,6.98
10971,8.4
10982,9.61
10993,10.5
11005,10.99
11017,11.12
11029,11.01
11041,10.79
11053,10.59
11065,10.52
11077,10.59
11089,10.77
11101,10.99
11113,11.17
11125,11.26
11137,11.19
11149,10.9
11161,10.32
11172,9.38
11183,8.16
11195,6.76
11207,5.38
11219,4.21
11231,3.38
11243,2.94
11255,2.86
11267,3.05
11279,3.35
11291,3.63
11303,3.69
11315,3.4
11327,2.61
11339,1.35
11351,-0.26
11362,-1.98
11373,-3.64
11385,-5.16
11397,-6.53
11409,-7.78
11421,-8.86
11433,-9.57
11445,-9.7
11457,-9.13
11469,-7.91
11481,-6.32
11493,-4.69
11505,-3.24
11517,-2.0
11529,-0.79
11541,0.6
11552,2.26
11563,4.06
11575,5.68
11587,6.78
11599,7.15
11611,6.85
11623,6.06
11635,5.09
11647,4.23
11659,3.64
11671,3.4
11683,3.48
11695,3.81
11707,4.33
11719,4.94
11731,5.54
11742,6.03
11753,6.39
11765,6.55
11777,6.48
11789,6.1
11801,5.39
11813,4.32
11825,2.99
11837,1.51
11849,0.11
11861,-1.1
11873,-2.04
11885,-2.78
11897,-3.38
11909,-3.94
11921,-4.48
11932,-4.94
11943,-5.31
11955,-5.55
11967,-5.72
11979,-5.92
11991,-6.29
12003,-6.92
12015,-7.8
12027,-8.87
12039,-9.91
12051,-10.71
12063,-11.09
12075,-10.99
12087,-10.48
12099,-9.71
12111,-8.78
12122,-7.74
12133,-6.55
12145,-5.2
12157,-3.78
12169,-2.42
12181,-1.26
12193,-0.41
12205,0.13
12217,0.45
12229,0.67
12241,0.87
12253,1.13
12265,1.46
12277,1.86
12289,2.34
12301,2.88
12312,3.47
12323,4.07
12335,4.67
12347,5.24
12359,5.73
12371,6.08
12383,6.19
12395,5.97
12407,5.41
12419,4.55
12431,3.52
12443,2.49
12455,1.55
12467,0.82
12479,0.33
12491,0.09
12502,0.05
12513,0.12
12525,0.17
12537,0.07
12549,-0.25
12561,-0.84
12573,-1.62
12585,-2.49
12597,-3.28
12609,-3.9
12621,-4.3
12633,-4.5
12645,-4.56
12657,-4.64
12669,-4.83
12681,-5.23
12692,-5.79
12703,-6.42
12715,-6.95
12727,-7.17
12739,-6.93
12751,-6.14
12763,-4.81
12775,-3.05
12787,-1.08
12799,0.83
12811,2.37
12823,3.36
12835,3.78
12847,3.71
12859,3.39
12871,3.09
12882,2.97
12893,3.16
12905,3.62
12917,4.28
12929,5.04
12941,5.76
12953,6.28
12965,6.43
12977,6.13
12989,5.35
13001,4.28
13013,3.15
13025,2.17
13037,1.43
13049,0.88
13061,0.32
13072,-0.44
13083,-1.39
13095,-2.5
13107,-3.55
13119,-4.38
13131,-4.89
13143,-5.12
13155,-5.14
13167,-5.05
13179,-4.94
13191,-4.85
13203,-4.82
13215,-4.86
13227,-5.01
13239,-5.27
13251,-5.57
13262,-5.86
13273,-6.04
13285,-6.11
13297,-6.08
13309,-6.05
13321,-6.05
13333,-6.1
13345,-6.14
13357,-6.03
13369,-5.7
13381,-5.06
13393,-4.13
13405,-2.93
13417,-1.57
13429,-0.19
13441,1.08
13452,2.05
13463,2.67
13475,2.93
13487,2.91
13499,2.7
13511,2.37
13523,1.96
13535,1.47
13547,0.93
13559,0.38
13571,-0.07
13583,-0.36
13595,-0.42
13607,-0.2
13619,0.3
13631,1.07
13642,2.0
13653,2.94
13665,3.67
13677,4.03
13689,3.92
13701,3.44
13713,2.75
13725,2.03
13737,1.45
13749,1.02
13761,0.78
13773,0.68
13785,0.69
13797,0.74
13809,0.78
13821,0.72
13832,0.51
13843,0.15
13855,-0.35
13867,-0.89
13879,-1.45
13891,-1.98
13903,-2.51
13915,-3.11
13927,-3.79
13939,-4.6
13951,-5.55
13963,-6.61
13975,-7.73
13987,-8.85
13999,-9.81
14011,-10.48
14022,-10.75
14033,-10.58
14045,-10.06
14057,-9.26
14069,-8.27
14081,-7.12
14093,-5.82
14105,-4.37
14117,-2.81
14129,-1.26
14141,0.16
14153,1.34
14165,2.23
14177,2.86
14189,3.31
14201,3.63
14212,3.87
14223,4.06
14235,4.18
14247,4.25
14259,4.26
14271,4.25
14283,4.28
14295,4.37
14307,4.51
14319,4.63
14331,4.6
14343,4.35
14355,3.93
14367,3.4
14379,2.97
14391,2.72
14402,2.64
14413,2.66
14425,2.69
14437,2.63
14449,2.42
14461,2.08
14473,1.62
14485,1.08
14497,0.52
14509,-0.04
14521,-0.53
14533,-0.92
14545,-1.28
14557,-1.71
14569,-2.32
14581,-3.18
14592,-4.25
14603,-5.45
14615,-6.62
14627,-7.61
14639,-8.28
14651,-8.52
14663,-8.25
14675,-7.49
14687,-6.33
14699,-4.94
14711,-3.53
14723,-2.26
14735,-1.23
14747,-0.46
14759,0.11
14771,0.64
14782,1.16
14793,1.69
14805,2.15
14817,2.43
14829,2.46
14841,2.28
14853,2.03
14865,1.86
14877,1.97
14889,2.37
14901,3.01
14913,3.76
14925,4.44
14937,4.9
14949,5.1
14961,5.05
14972,4.81
14983,4.51
14995,4.22
15007,4.02
15019,3.92
15031,3.83
15043,3.67
15055,3.38
15067,2.96
15079,2.48
15091,2.02
15103,1.6
15115,1.2
15127,0.71
15139,0.04
15151,-0.84
15162,-1.85
15173,-2.9
15185,-3.91
15197,-4.9
15209,-5.93
15221,-6.99
15233,-7.96
15245,-8.68
15257,-8.96
15269,-8.75
15281,-8.2
15293,-7.52
15305,-6.97
15317,-6.69
15329,-6.67
15341,-6.77
15352,-6.86
15363,-6.74
15375,-6.35
15387,-5.68
15399,-4.75
15411,-3.66
15423,-2.52
15435,-1.44
15447,-0.51
15459,0.2
15471,0.73
15483,1.15
15495,1.55
15507,1.97
15519,2.46
15531,2.99
15542,3.5
15553,3.96
15565,4.28
15577,4.42
15589,4.37
15601,4.16
15613,3.92
15625,3.82
15637,3.95
15649,4.33
15661,4.84
15673,5.23
15685,5.25
15697,4.81
15709,3.94
15721,2.82
15732,1.68
15743,0.72
15755,0.03
15767,-0.34
15779,-0.47
15791,-0.45
15803,-0.36
15815,-0.26
15827,-0.18
15839,-0.17
15851,-0.26
15863,-0.47
15875,-0.78
15887,-1.18
15899,-1.65
15911,-2.16
15922,-2.69
15933,-3.19
15945,-3.68
15957,-4.18
15969,-4.78
15981,-5.54
15993,-6.51
16005,-7.65
16017,-8.83
16029,-9.87
16041,-10.52
16053,-10.58
16065,-10.01
16077,-8.89
16089,-7.44
16101,-5.96
16112,-4.68
16123,-3.74
16135,-3.22
16147,-3.05
16159,-3.11
16171,-3.23
16183,-3.3
16195,-3.26
16207,-3.11
16219,-2.92
16231,-2.75
16243,-2.68
16255,-2.66
16267,-2.58
16279,-2.3
16291,-1.68
16302,-0.7
16313,0.58
16325,2.02
16337,3.46
16349,4.75
16361,5.75
16373,6.4
16385,6.64
16397,6.47
16409,5.92
16421,5.13
16433,4.33
16445,3.73
16457,3.46
16469,3.53
16481,3.82
16492,4.11
16503,4.26
16515,4.19
16527,3.95
16539,3.62
16551,3.24
16563,2.83
16575,2.4
16587,1.97
16599,1.53
16611,1.13
16623,0.68
16635,0.06
16647,-0.79
16659,-1.92
16671,-3.15
16682,-4.27
16693,-5.05
16705,-5.41
16717,-5.44
16729,-5.36
16741,-5.43
16753,-5.8
16765,-6.49
16777,-7.31
16789,-8.03
16801,-8.36
16813,-8.13
16825,-7.32
16837,-6.07
16849,-4.58
16861,-3.07
16872,-1.68
16883,-0.44
16895,0.67
16907,1.7
16919,2.67
16931,3.54
16943,4.29
16955,4.94
16967,5.56
16979,6.25
16991,7.02
17003,7.78
17015,8.38
17027,8.65
17039,8.55
17051,8.18
17062,7.74
17073,7.4
17085,7.27
17097,7.27
17109,7.25
17121,7.08
17133,6.74
17145,6.31
17157,5.92
17169,5.63
17181,5.45
17193,5.28
17205,5.07
17217,4.77
17229,4.42
17241,4.06
17252,3.76
17263,3.46
17275,3.08
17287,2.57
17299,1.9
17311,1.14
17323,0.37
17335,-0.25
17347,-0.63
17359,-0.69
17371,-0.49
17383,-0.22
17395,-0.08
17407,-0.25
17419,-0.78
17431,-1.57
17442,-2.4
17453,-3.03
17465,-3.34
17477,-3.36
17489,-3.29
17501,-3.4
17513,-3.91
17525,-4.9
17537,-6.32
17549,-7.93
17561,-9.44
17573,-10.58
17585,-11.17
17597,-11.19
17609,-10.69
17621,-9.82
17632,-8.63
17643,-7.25
17655,-5.75
17667,-4.24
17679,-2.84
17691,-1.64
17703,-0.65
17715,0.16
17727,0.88
17739,1.57
17751,2.28
17763,3.0
17775,3.71
17787,4.39
17799,5.08
17811,5.78
17822,6.53
17833,7.31
17845,8.08
17857,8.8
17869,9.41
17881,9.84
17893,10.04
17905,10.0
17917,9.71
17929,9.23
17941,8.64
17953,7.95
17965,7.21
17977,6.44
17989,5.66
18001,4.94
18012,4.37
18023,4.0
18035,3.83
18047,3.8
18059,3.79
18071,3.73
18083,3.56
18095,3.32
18107,3.04
18119,2.75
18131,2.42
18143,1.95
18155,1.29
18167,0.43
18179,-0.51
18191,-1.44
18202,-2.24
18213,-2.91
18225,-3.49
18237,-4.1
18249,-4.83
18261,-5.72
18273,-6.77
18285,-7.89
18297,-9.03
18309,-10.12
18321,-11.05
18333,-11.71
18345,-11.92
18357,-11.59
18369,-10.67
18381,-9.28
18392,-7.62
18403,-5.99
18415,-4.61
18427,-3.6
18439,-2.9
18451,-2.29
18463,-1.55
18475,-0.47
18487,0.99
18499,2.72
18511,4.51
18523,6.08
18535,7.25
18547,7.95
18559,8.25
18571,8.28
18582,8.19
18593,8.06
18605,7.93
18617,7.81
18629,7.72
18641,7.73
18653,7.8
18665,7.91
18677,7.98
18689,7.92
18701,7.74
18713,7.47
18725,7.21
18737,6.99
18749,6.79
18761,6.55
18772,6.19
18783,5.64
18795,4.92
18807,4.08
18819,3.2
18831,2.33
18843,1.52
18855,0.8
18867,0.15
18879,-0.48
18891,-1.13
18903,-1.86
18915,-2.68
18927,-3.57
18939,-4.44
18951,-5.23
18962,-5.91
18973,-6.54
18985,-7.15
18997,-7.79
19009,-8.47
19021,-9.12
19033,-9.71
19045,-10.2
19057,-10.61
19069,-10.96
19081,-11.24
19093,-11.42
19105,-11.47
19117,-11.38
19129,-11.15
19141,-10.78
19152,-10.22
19163,-9.42
19175,-8.39
19187,-7.15
19199,-5.76
19211,-4.29
19223,-2.79
19235,-1.22
19247,0.38
19259,1.97
19271,3.41
19283,4.56
19295,5.31
19307,5.69
19319,5.82
19331,5.8
19342,5.78
19353,5.72
19365,5.59
19377,5.33
19389,4.94
19401,4.51
19413,4.19
19425,4.12
19437,4.31
19449,4.71
19461,5.14
19473,5.45
19485,5.56
19497,5.48
19509,5.34
19521,5.24
19532,5.26
19543,5.32
19555,5.3
19567,5.04
19579,4.46
19591,3.62
19603,2.66
19615,1.75
19627,0.98
19639,0.28
19651,-0.51
19663,-1.51
19675,-2.79
19687,-4.26
19699,-5.69
19711,-6.83
19722,-7.47
19733,-7.57
19745,-7.26
19757,-6.8
19769,-6.46
19781,-6.53
19793,-7.14
19805,-8.23
19817,-9.59
19829,-10.89
19841,-11.83
19853,-12.24
19865,-12.16
19877,-11.73
19889,-11.17
19901,-10.62
19912,-10.11
19923,-9.58
19935,-8.94
19947,-8.1
19959,-7.01
19971,-5.64
19983,-4.01
19995,-2.19
20007,-0.27
20019,1.6
20031,3.23
20043,4.46
20055,5.27
20067,5.72
20079,5.95
20091,6.11
20102,6.24
20113,6.44
20125,6.69
20137,6.97
20149,7.27
20161,7.56
20173,7.81
20185,7.99
20197,8.04
20209,7.92
20221,7.66
20233,7.32
20245,6.96
20257,6.65
20269,6.41
20281,6.22
20292,6.05
20303,5.85
20315,5.6
20327,5.3
20339,4.97
20351,4.65
20363,4.31
20375,3.94
20387,3.49
20399,2.89
20411,2.18
20423,1.41
20435,0.68
20447,0.07
20459,-0.38
20471,-0.65
20482,-0.87
20493,-1.15
20505,-1.66
20517,-2.51
20529,-3.78
20541,-5.43
20553,-7.28
20565,-9.05
20577,-10.43
20589,-11.17
20601,-11.19
20613,-10.59
20625,-9.57
20637,-8.36
20649,-7.1
20661,-5.77
20672,-4.34
20683,-2.8
20695,-1.2
20707,0.3
20719,1.54
20731,2.43
20743,2.97
20755,3.26
20767,3.48
20779,3.73
20791,4.1
20803,4.57
20815,5.12
20827,5.73
20839,6.36
20851,7.01
20862,7.62
20873,8.12
20885,8.45
20897,8.58
20909,8.47
20921,8.15
20933,7.64
20945,7.02
20957,6.31
20969,5.58
20981,4.87
20993,4.24
