seconds,BVP
0,18.81
12,16.84
24,14.46
36,11.97
47,9.57
58,7.32
70,5.07
82,2.58
94,-0.43
106,-4.13
118,-8.48
130,-13.27
142,-18.13
154,-22.72
166,-26.8
178,-30.34
190,-33.53
202,-36.73
214,-40.43
226,-45.05
237,-50.69
248,-56.96
260,-62.86
272,-66.98
284,-67.85
296,-64.43
308,-56.52
320,-44.85
332,-30.82
344,-16.12
356,-2.23
368,9.9
380,19.83
392,27.58
404,33.42
416,37.7
427,40.79
438,42.99
450,44.52
462,45.49
474,45.89
486,45.6
498,44.48
510,42.47
522,39.65
534,36.23
546,32.58
558,29.09
570,26.11
582,23.77
594,21.97
606,20.36
617,18.5
628,16.0
640,12.71
652,8.71
664,4.3
676,-0.25
688,-4.79
700,-9.38
712,-14.24
724,-19.54
736,-25.35
748,-31.53
760,-37.76
772,-43.75
784,-49.3
796,-54.42
807,-59.3
818,-64.19
830,-69.33
842,-74.83
854,-80.59
866,-86.26
878,-91.17
890,-94.37
902,-94.73
914,-91.21
926,-83.16
938,-70.65
950,-54.5
962,-36.16
974,-17.38
986,0.32
997,15.86
1008,28.79
1020,39.14
1032,47.19
1044,53.31
1056,57.72
1068,60.58
1080,61.96
1092,61.93
1104,60.61
1116,58.2
1128,54.99
1140,51.29
1152,47.46
1164,43.84
1176,40.69
1187,38.22
1198,36.48
1210,35.45
1222,34.92
1234,34.61
1246,34.14
1258,33.13
1270,31.35
1282,28.73
1294,25.43
1306,21.67
1318,17.69
1330,13.59
1342,9.35
1354,4.91
1366,0.24
1377,-4.53
1388,-9.2
1400,-13.57
1412,-17.52
1424,-21.11
1436,-24.58
1448,-28.21
1460,-32.33
1472,-37.06
1484,-42.19
1496,-47.09
1508,-50.76
1520,-52.02
1532,-49.94
1544,-44.12
1556,-34.9
1567,-23.35
1578,-10.87
1590,1.11
1602,11.57
1614,20.02
1626,26.46
1638,31.21
1650,34.63
1662,37.04
1674,38.63
1686,39.54
1698,39.88
1710,39.79
1722,39.38
1734,38.72
1746,37.78
1757,36.53
1768,35.02
1780,33.41
1792,31.97
1804,30.96
1816,30.54
1828,30.68
1840,31.11
1852,31.47
1864,31.31
1876,30.32
1888,28.33
1900,25.41
1912,21.88
1924,18.18
1936,14.76
1947,11.86
1958,9.45
1970,7.23
1982,4.8
1994,1.86
2006,-1.71
2018,-5.81
2030,-10.23
2042,-14.76
2054,-19.32
2066,-23.9
2078,-28.56
2090,-33.47
2102,-38.83
2114,-44.87
2126,-51.73
2137,-59.28
2148,-66.95
2160,-73.71
2172,-78.3
2184,-79.49
2196,-76.62
2208,-69.71
2220,-59.6
2232,-47.62
2244,-35.25
2256,-23.71
2268,-13.79
2280,-5.74
2292,0.54
2304,5.38
2316,9.13
2327,12.11
2338,14.57
2350,16.69
2362,18.64
2374,20.49
2386,22.3
2398,24.01
2410,25.47
2422,26.59
2434,27.29
2446,27.63
2458,27.74
2470,27.81
2482,27.98
2494,28.27
2506,28.58
2517,28.72
2528,28.44
2540,27.49
2552,25.69
2564,22.98
2576,19.47
2588,15.42
2600,11.18
2612,7.09
2624,3.3
2636,-0.26
2648,-3.78
2660,-7.46
2672,-11.38
2684,-15.43
2696,-19.39
2707,-23.05
2718,-26.27
2730,-29.0
2742,-31.28
2754,-33.2
2766,-34.97
2778,-36.9
2790,-39.39
2802,-42.78
2814,-47.07
2826,-51.79
2838,-55.98
2850,-58.38
2862,-57.82
2874,-53.62
2886,-45.84
2897,-35.23
2908,-22.98
2920,-10.43
2932,1.31
2944,11.46
2956,19.7
2968,26.01
2980,30.59
2992,33.74
3004,35.77
3016,36.99
3028,37.62
3040,37.83
3052,37.67
3064,37.13
3076,36.17
3087,34.8
3098,33.11
3110,31.29
3122,29.55
3134,28.07
3146,26.9
3158,25.95
3170,25.0
3182,23.81
3194,22.17
3206,20.01
3218,17.39
3230,14.43
3242,11.29
3254,8.0
3266,4.53
3277,0.77
3288,-3.35
3300,-7.78
3312,-12.3
3324,-16.61
3336,-20.48
3348,-23.79
3360,-26.68
3372,-29.41
3384,-32.32
3396,-35.73
3408,-39.87
3420,-44.8
3432,-50.32
3444,-55.86
3456,-60.52
3467,-63.14
3478,-62.62
3490,-58.3
3502,-50.24
3514,-39.28
3526,-26.84
3538,-14.49
3550,-3.5
3562,5.4
3574,12.1
3586,16.97
3598,20.53
3610,23.23
3622,25.33
3634,26.88
3646,27.84
3657,28.17
3668,27.95
3680,27.35
3692,26.6
3704,25.87
3716,25.24
3728,24.7
3740,24.18
3752,23.63
3764,23.04
3776,22.36
3788,21.49
3800,20.25
3812,18.43
3824,15.99
3836,13.03
3847,9.81
3858,6.58
3870,3.44
3882,0.32
3894,-2.97
3906,-6.6
3918,-10.54
3930,-14.58
3942,-18.42
3954,-21.89
3966,-24.96
3978,-27.86
3990,-30.92
4002,-34.48
4014,-38.74
4026,-43.65
4037,-48.79
4048,-53.41
4060,-56.48
4072,-56.92
4084,-53.96
4096,-47.33
4108,-37.47
4120,-25.39
4132,-12.47
4144,-0.05
4156,10.8
4168,19.47
4180,25.8
4192,30.04
4204,32.68
4216,34.25
4227,35.19
4238,35.77
4250,36.08
4262,36.08
4274,35.66
4286,34.73
4298,33.31
4310,31.52
4322,29.56
4334,27.67
4346,26.02
4358,24.72
4370,23.73
4382,22.93
4394,22.13
4406,21.14
4417,19.77
4428,17.96
4440,15.71
4452,13.14
4464,10.41
4476,7.63
4488,4.86
4500,2.02
4512,-1.02
4524,-4.35
4536,-7.94
4548,-11.6
4560,-15.06
4572,-18.08
4584,-20.61
4596,-22.82
4607,-25.11
4618,-27.94
4630,-31.7
4642,-36.6
4654,-42.45
4666,-48.7
4678,-54.34
4690,-58.12
4702,-58.8
4714,-55.63
4726,-48.57
4738,-38.39
4750,-26.46
4762,-14.29
4774,-3.16
4786,6.19
4797,13.49
4808,18.91
4820,22.75
4832,25.4
4844,27.18
4856,28.38
4868,29.19
4880,29.74
4892,30.04
4904,30.06
4916,29.74
4928,29.1
4940,28.19
4952,27.1
4964,25.91
4976,24.75
4987,23.74
4998,22.94
5010,22.37
5022,21.92
5034,21.31
5046,20.22
5058,18.41
5070,15.78
5082,12.48
5094,8.85
5106,5.23
5118,1.86
5130,-1.24
5142,-4.22
5154,-7.33
5166,-10.74
5177,-14.48
5188,-18.4
5200,-22.24
5212,-25.75
5224,-28.75
5236,-31.24
5248,-33.41
5260,-35.58
5272,-38.15
5284,-41.48
5296,-45.72
5308,-50.67
5320,-55.72
5332,-59.85
5344,-61.87
5356,-60.7
5367,-55.71
5378,-46.99
5390,-35.39
5402,-22.27
5414,-9.13
5426,2.72
5438,12.5
5450,19.97
5462,25.33
5474,28.96
5486,31.29
5498,32.66
5510,33.31
5522,33.43
5534,33.21
5546,32.86
5557,32.54
5568,32.35
5580,32.28
5592,32.23
5604,32.05
5616,31.66
5628,31.07
5640,30.41
5652,29.82
5664,29.37
5676,28.95
5688,28.32
5700,27.22
5712,25.46
5724,23.09
5736,20.31
5747,17.41
5758,14.6
5770,11.9
5782,9.17
5794,6.25
5806,3.04
5818,-0.38
5830,-3.83
5842,-7.06
5854,-9.91
5866,-12.27
5878,-14.13
5890,-15.58
5902,-16.81
5914,-18.06
5926,-19.65
5937,-21.83
5948,-24.73
5960,-28.1
5972,-31.26
5984,-33.1
5996,-32.36
6008,-27.96
6020,-19.5
6032,-7.38
6044,7.23
6056,22.7
6068,37.44
6080,50.27
6092,60.57
6104,68.28
6116,73.61
6127,76.87
6138,78.35
6150,78.3
6162,76.95
6174,74.51
6186,71.18
6198,67.06
6210,62.18
6222,56.57
6234,50.29
6246,43.44
6258,36.24
6270,28.93
6282,21.75
6294,14.93
6306,8.61
6317,2.85
6328,-2.4
6340,-7.25
6352,-11.8
6364,-16.11
6376,-20.16
6388,-23.92
6400,-27.43
6412,-30.84
6424,-34.33
6436,-38.09
6448,-42.11
6460,-46.2
6472,-50.06
6484,-53.38
6496,-55.98
6507,-57.94
6518,-59.53
6530,-61.19
6542,-63.39
6554,-66.49
6566,-70.51
6578,-75.02
6590,-79.08
6602,-81.39
6614,-80.71
6626,-76.24
6638,-67.97
6650,-56.68
6662,-43.75
6674,-30.74
6686,-18.99
6697,-9.37
6708,-2.19
6720,2.67
6732,5.63
6744,7.17
6756,7.8
6768,7.84
6780,7.47
6792,6.69
6804,5.41
6816,3.55
6828,1.07
6840,-1.93
6852,-5.25
6864,-8.59
6876,-11.61
6887,-13.89
6898,-15.05
6910,-14.76
6922,-12.87
6934,-9.51
6946,-5.08
6958,-0.21
6970,4.45
6982,8.37
6994,11.34
7006,13.41
7018,14.82
7030,15.84
7042,16.57
7054,16.97
7066,16.88
7077,16.13
7088,14.71
7100,12.74
7112,10.52
7124,8.28
7136,6.16
7148,4.11
7160,1.93
7172,-0.68
7184,-4.06
7196,-8.53
7208,-14.35
7220,-21.64
7232,-30.11
7244,-38.94
7256,-46.8
7267,-52.07
7278,-53.39
7290,-50.18
7302,-42.87
7314,-32.79
7326,-21.7
7338,-11.17
7350,-2.21
7362,4.86
7374,10.18
7386,14.14
7398,17.14
7410,19.56
7422,21.72
7434,23.95
7446,26.46
7457,29.26
7468,32.13
7480,34.71
7492,36.67
7504,37.86
7516,38.36
7528,38.41
7540,38.27
7552,38.13
7564,38.03
7576,37.93
7588,37.76
7600,37.45
7612,36.87
7624,35.92
7636,34.48
7647,32.5
7658,30.02
7670,27.22
7682,24.28
7694,21.38
7706,18.59
7718,15.88
7730,13.12
7742,10.16
7754,6.85
7766,3.13
7778,-1.01
7790,-5.43
7802,-9.92
7814,-14.21
7826,-18.09
7837,-21.47
7848,-24.45
7860,-27.24
7872,-30.21
7884,-33.74
7896,-38.12
7908,-43.37
7920,-49.13
7932,-54.57
7944,-58.49
7956,-59.6
7968,-56.92
7980,-50.16
7992,-39.87
8004,-27.36
8016,-14.28
8027,-2.15
8038,8.01
8050,15.83
8062,21.45
8074,25.31
8086,27.84
8098,29.34
8110,29.92
8122,29.66
8134,28.66
8146,27.09
8158,25.17
8170,23.07
8182,20.93
8194,18.79
8206,16.69
8217,14.7
8228,12.92
8240,11.46
8252,10.39
8264,9.69
8276,9.24
8288,8.85
8300,8.29
8312,7.36
8324,5.97
8336,4.17
8348,2.13
8360,0.06
8372,-1.9
8384,-3.78
8396,-5.77
8407,-8.13
8418,-11.02
8430,-14.42
8442,-18.08
8454,-21.59
8466,-24.63
8478,-27.03
8490,-28.95
8502,-30.76
8514,-32.95
8526,-35.9
8538,-39.8
8550,-44.5
8562,-49.46
8574,-53.8
8586,-56.44
8597,-56.32
8608,-52.74
8620,-45.62
8632,-35.51
8644,-23.52
8656,-11.04
8668,0.64
8680,10.63
8692,18.52
8704,24.33
8716,28.38
8728,31.06
8740,32.72
8752,33.59
8764,33.8
8776,33.45
8787,32.63
8798,31.48
8810,30.15
8822,28.79
8834,27.49
8846,26.25
8858,25.12
8870,24.12
8882,23.42
8894,23.1
8906,23.15
8918,23.33
8930,23.22
8942,22.42
8954,20.71
8966,18.19
8977,15.24
8988,12.26
9000,9.48
9012,6.78
9024,3.84
9036,0.32
9048,-3.88
9060,-8.54
9072,-13.24
9084,-17.6
9096,-21.41
9108,-24.73
9120,-27.82
9132,-31.02
9144,-34.64
9156,-38.87
9167,-43.65
9178,-48.64
9190,-53.09
9202,-55.92
9214,-56.02
9226,-52.58
9238,-45.44
9250,-35.24
9262,-23.24
9274,-10.97
9286,0.23
9298,9.53
9310,16.72
9322,22.06
9334,26.0
9346,28.93
9357,31.12
9368,32.62
9380,33.43
9392,33.6
9404,33.22
9416,32.49
9428,31.55
9440,30.49
9452,29.27
9464,27.84
9476,26.22
9488,24.58
9500,23.18
9512,22.25
9524,21.82
9536,21.62
9547,21.21
9558,20.07
9570,17.9
9582,14.7
9594,10.78
9606,6.57
9618,2.48
9630,-1.32
9642,-4.89
9654,-8.4
9666,-12.06
9678,-15.97
9690,-20.09
9702,-24.22
9714,-28.1
9726,-31.5
9737,-34.35
9748,-36.76
9760,-39.06
9772,-41.7
9784,-45.04
9796,-49.23
9808,-53.96
9820,-58.46
9832,-61.62
9844,-62.22
9856,-59.37
9868,-52.73
9880,-42.7
9892,-30.35
9904,-17.13
9916,-4.47
9927,6.58
9938,15.52
9950,22.42
9962,27.68
9974,31.78
9986,35.06
9998,37.66
10010,39.52
10022,40.58
10034,40.8
10046,40.29
10058,39.24
10070,37.85
10082,36.28
10094,34.62
10106,32.92
10117,31.23
10128,29.7
10140,28.46
10152,27.62
10164,27.17
10176,26.91
10188,26.52
10200,25.62
10212,23.95
10224,21.47
10236,18.39
10248,15.11
10260,12.06
10272,9.5
10284,7.45
10296,5.67
10307,3.77
10318,1.39
10330,-1.65
10342,-5.2
10354,-8.87
10366,-12.23
10378,-15.0
10390,-17.2
10402,-19.14
10414,-21.32
10426,-24.19
10438,-28.07
10450,-32.99
10462,-38.68
10474,-44.54
10486,-49.63
10497,-52.85
10508,-53.15
10520,-49.85
10532,-42.93
10544,-33.1
10556,-21.63
10568,-10.0
10580,0.57
10592,9.34
10604,16.13
10616,21.14
10628,24.72
10640,27.27
10652,29.01
10664,30.07
10676,30.52
10687,30.44
10698,29.96
10710,29.22
10722,28.38
10734,27.52
10746,26.64
10758,25.67
10770,24.61
10782,23.48
10794,22.42
10806,21.58
10818,20.99
10830,20.48
10842,19.74
10854,18.46
10866,16.45
10877,13.79
10888,10.72
10900,7.59
10912,4.62
10924,1.86
10936,-0.8
10948,-3.6
10960,-6.71
10972,-10.19
10984,-13.93
10996,-17.71
11008,-21.33
11020,-24.62
11032,-27.55
11044,-30.24
11056,-32.92
11067,-35.89
11078,-39.41
11090,-43.66
11102,-48.58
11114,-53.8
11126,-58.64
11138,-62.12
11150,-63.23
11162,-61.13
11174,-55.51
11186,-46.72
11198,-35.77
11210,-24.03
11222,-12.88
11234,-3.32
11246,4.17
11257,9.65
11268,13.52
11280,16.28
11292,18.35
11304,19.93
11316,21.12
11328,21.97
11340,22.54
11352,22.95
11364,23.34
11376,23.8
11388,24.34
11400,24.87
11412,25.22
11424,25.36
11436,25.38
11447,25.37
11458,25.37
11470,25.25
11482,24.82
11494,23.86
11506,22.17
11518,19.56
11530,16.09
11542,12.01
11554,7.56
11566,2.85
11578,-2.06
11590,-7.11
11602,-12.2
11614,-17.34
11626,-22.81
11637,-28.62
11648,-34.6
11660,-40.55
11672,-46.3
11684,-51.79
11696,-56.96
11708,-61.78
11720,-66.13
11732,-69.88
11744,-72.07
11756,-71.13
11768,-65.56
11780,-54.39
11792,-37.62
11804,-16.07
11816,8.84
11827,36.33
11838,62.8
11850,83.53
11862,95.22
11874,97.07
11886,90.44
11898,77.62
11910,61.41
11922,45.02
11934,31.68
11946,23.72
11958,22.47
11970,27.9
11982,38.4
11994,51.5
12006,64.62
12017,75.7
12028,83.74
12040,88.56
12052,90.4
12064,89.95
12076,88.67
12088,86.73
12100,84.35
12112,81.79
12124,79.26
12136,77.04
12148,75.31
12160,73.93
12172,72.62
12184,71.22
12196,69.62
12207,68.27
12218,68.02
12230,69.72
12242,74.12
12254,81.37
12266,90.72
12278,100.87
12290,110.42
12302,118.26
12314,124.01
12326,129.82
12338,137.4
12350,148.19
12362,162.96
12374,181.44
12386,202.28
12397,223.12
12408,240.74
12420,251.64
12432,252.82
12444,242.24
12456,219.96
12468,188.06
12480,150.03
12492,109.58
12504,69.62
12516,31.66
12528,-3.93
12540,-37.24
12552,-68.44
12564,-97.34
12576,-123.61
12587,-147.35
12598,-169.28
12610,-190.53
12622,-212.24
12634,-235.1
12646,-259.29
12658,-284.61
12670,-310.28
12682,-334.86
12694,-356.12
12706,-371.31
12718,-377.93
12730,-374.8
12742,-362.7
12754,-344.16
12766,-322.48
12777,-300.18
12788,-278.1
12800,-255.43
12812,-230.68
12824,-202.84
12836,-172.13
12848,-139.77
12860,-107.4
12872,-76.4
12884,-47.77
12896,-22.33
12908,-1.09
12920,14.78
12932,24.38
12944,27.5
12956,24.86
12967,17.96
12978,8.62
12990,-1.51
13002,-11.28
13014,-20.11
13026,-27.96
13038,-35.09
13050,-41.93
13062,-48.74
13074,-55.46
13086,-61.56
13098,-66.19
13110,-68.45
13122,-67.85
13134,-64.48
13146,-59.1
13157,-52.78
13168,-46.53
13180,-40.96
13192,-36.15
13204,-31.87
13216,-27.78
13228,-23.72
13240,-19.83
13252,-16.43
13264,-13.88
13276,-12.4
13288,-11.93
13300,-12.31
13312,-13.32
13324,-14.85
13336,-16.91
13347,-19.56
13358,-22.75
13370,-26.21
13382,-29.43
13394,-31.92
13406,-33.31
13418,-33.6
13430,-33.12
13442,-32.29
13454,-31.33
13466,-29.93
13478,-27.11
13490,-21.39
13502,-11.15
13514,4.94
13526,27.46
13537,56.18
13548,90.14
13560,127.95
13572,167.9
13584,208.05
13596,246.25
13608,280.32
13620,308.34
13632,329.1
13644,342.27
13656,348.28
13668,347.9
13680,341.62
13692,329.38
13704,310.88
13716,286.32
13727,256.95
13738,225.21
13750,193.9
13762,165.4
13774,140.9
13786,120.18
13798,102.04
13810,84.94
13822,67.8
13834,50.11
13846,31.76
13858,12.46
13870,-8.11
13882,-30.09
13894,-53.3
13906,-77.15
13917,-100.66
13928,-122.73
13940,-142.54
13952,-159.71
13964,-174.86
13976,-188.34
13988,-199.8
14000,-208.53
14012,-214.1
14024,-216.74
14036,-217.23
14048,-216.64
14060,-215.89
14072,-216.63
14084,-219.31
14096,-223.18
14107,-227.34
14118,-231.57
14130,-236.05
14142,-240.28
14154,-242.44
14166,-239.61
14178,-230.63
14190,-214.28
14202,-189.71
14214,-157.76
14226,-121.81
14238,-86.78
14250,-57.35
14262,-36.85
14274,-26.81
14286,-29.46
14297,-43.64
14308,-64.32
14320,-84.41
14332,-97.53
14344,-99.68
14356,-89.62
14368,-68.9
14380,-26.02
14392,35.94
14404,101.56
14416,154.36
14428,187.94
14440,205.04
14452,211.13
14464,210.5
14476,205.6
14487,197.81
14498,185.96
14510,170.73
14522,154.98
14534,142.03
14546,133.49
14558,129.16
14570,127.84
14582,128.05
14594,128.03
14606,124.02
14618,114.3
14630,99.19
14642,81.02
14654,62.55
14666,46.14
14677,33.45
14688,25.11
14700,20.68
14712,17.78
14724,14.87
14736,11.78
14748,9.34
14760,7.99
14772,7.3
14784,6.4
14796,4.46
14808,1.15
14820,-3.73
14832,-9.53
14844,-15.09
14856,-19.15
14867,-21.47
14878,-22.85
14890,-24.54
14902,-27.66
14914,-32.57
14926,-38.89
14938,-45.22
14950,-49.64
14962,-50.34
14974,-46.45
14986,-38.27
14998,-27.0
15010,-14.35
15022,-1.89
15034,9.24
15046,18.41
15057,25.46
15068,30.49
15080,33.72
15092,35.33
15104,35.54
15116,34.58
15128,32.75
15140,30.34
15152,27.66
15164,24.95
15176,22.32
15188,19.81
15200,17.43
15212,15.2
15224,13.23
15236,11.65
15247,10.5
15258,9.74
15270,9.15
15282,8.47
15294,7.43
15306,5.94
15318,4.02
15330,1.82
15342,-0.52
15354,-2.98
15366,-5.59
15378,-8.43
15390,-11.59
15402,-15.02
15414,-18.63
15426,-22.22
15437,-25.6
15448,-28.63
15460,-31.22
15472,-33.42
15484,-35.4
15496,-37.46
15508,-39.99
15520,-43.29
15532,-47.37
15544,-51.68
15556,-55.12
15568,-56.23
15580,-53.66
15592,-46.7
15604,-35.59
15616,-21.54
15627,-6.34
15638,8.27
15650,21.05
15662,31.5
15674,39.7
15686,45.97
15698,50.64
15710,53.86
15722,55.71
15734,56.28
15746,55.77
15758,54.49
15770,52.7
15782,50.63
15794,48.36
15806,45.94
15817,43.4
15828,40.84
15840,38.39
15852,36.16
15864,34.19
15876,32.39
15888,30.59
15900,28.63
15912,26.43
15924,23.98
15936,21.32
15948,18.4
15960,15.12
15972,11.28
15984,6.76
15996,1.55
16007,-4.12
16018,-9.88
16030,-15.34
16042,-20.21
16054,-24.44
16066,-28.21
16078,-31.93
16090,-36.03
16102,-40.86
16114,-46.44
16126,-52.38
16138,-57.79
16150,-61.47
16162,-62.2
16174,-59.15
16186,-52.13
16197,-41.74
16208,-29.17
16220,-15.88
16232,-3.2
16244,7.9
16256,16.96
16268,23.93
16280,29.03
16292,32.59
16304,34.99
16316,36.53
16328,37.44
16340,37.84
16352,37.75
16364,37.08
16376,35.78
16387,33.84
16398,31.42
16410,28.83
16422,26.44
16434,24.56
16446,23.36
16458,22.78
16470,22.58
16482,22.4
16494,21.87
16506,20.69
16518,18.72
16530,16.02
16542,12.78
16554,9.27
16566,5.69
16577,2.1
16588,-1.59
16600,-5.55
16612,-9.89
16624,-14.62
16636,-19.55
16648,-24.36
16660,-28.75
16672,-32.51
16684,-35.66
16696,-38.47
16708,-41.38
16720,-44.87
16732,-49.28
16744,-54.57
16756,-60.19
16767,-65.07
16778,-67.8
16790,-67.07
16802,-62.05
16814,-52.77
16826,-40.18
16838,-25.87
16850,-11.54
16862,1.44
16874,12.4
16886,21.32
16898,28.66
16910,34.91
16922,40.4
16934,45.14
16946,48.99
16957,51.75
16968,53.32
16980,53.68
16992,52.95
17004,51.28
17016,48.92
17028,46.14
17040,43.27
17052,40.61
17064,38.39
17076,36.68
17088,35.46
17100,34.59
17112,33.81
17124,32.86
17136,31.43
17147,29.27
17158,26.29
17170,22.54
17182,18.27
17194,13.77
17206,9.37
17218,5.26
17230,1.47
17242,-2.13
17254,-5.75
17266,-9.6
17278,-13.78
17290,-18.29
17302,-22.94
17314,-27.41
17326,-31.42
17337,-34.79
17348,-37.49
17360,-39.69
17372,-41.65
17384,-43.69
17396,-46.04
17408,-48.86
17420,-52.14
17432,-55.59
17444,-58.59
17456,-60.22
17468,-59.36
17480,-55.16
17492,-47.33
17504,-36.34
17516,-23.33
17527,-9.78
17538,2.94
17550,13.9
17562,22.7
17574,29.35
17586,34.07
17598,37.17
17610,38.93
17622,39.75
17634,40.0
17646,40.09
17658,40.29
17670,40.64
17682,41.06
17694,41.31
17706,41.22
17717,40.76
17728,40.04
17740,39.26
17752,38.65
17764,38.37
17776,38.45
17788,38.76
17800,39.1
17812,39.21
17824,38.89
17836,38.0
17848,36.5
17860,34.44
17872,31.91
17884,29.04
17896,25.96
17907,22.74
17918,19.39
17930,15.85
17942,12.0
17954,7.74
17966,3.03
17978,-2.01
17990,-7.16
18002,-12.08
18014,-16.51
18026,-20.31
18038,-23.55
18050,-26.5
18062,-29.56
18074,-33.11
18086,-37.45
18097,-42.59
18108,-48.2
18120,-53.58
18132,-57.76
18144,-59.71
18156,-58.62
18168,-54.11
18180,-46.39
18192,-36.24
18204,-24.78
18216,-13.28
18228,-2.83
18240,5.85
18252,12.39
18264,16.87
18276,19.61
18287,21.07
18298,21.68
18310,21.8
18322,21.62
18334,21.22
18346,20.58
18358,19.67
18370,18.53
18382,17.26
18394,16.01
18406,14.95
18418,14.21
18430,13.81
18442,13.7
18454,13.75
18466,13.8
18477,13.64
18488,13.04
18500,11.83
18512,9.94
18524,7.48
18536,4.67
18548,1.76
18560,-1.08
18572,-3.82
18584,-6.56
18596,-9.46
18608,-12.58
18620,-15.82
18632,-19.02
18644,-22.05
18656,-24.88
18667,-27.61
18678,-30.45
18690,-33.58
18702,-37.18
18714,-41.28
18726,-45.72
18738,-50.1
18750,-53.68
18762,-55.51
18774,-54.67
18786,-50.64
18798,-43.48
18810,-33.97
18822,-23.32
18834,-12.79
18846,-3.36
18857,4.52
18868,10.88
18880,16.0
18892,20.18
18904,23.62
18916,26.34
18928,28.35
18940,29.65
18952,30.33
18964,30.5
18976,30.31
18988,29.81
19000,29.1
19012,28.23
19024,27.33
19036,26.52
19047,25.93
19058,25.58
19070,25.41
19082,25.25
19094,24.87
19106,24.11
19118,22.85
19130,21.09
19142,18.91
19154,16.48
19166,13.98
19178,11.55
19190,9.2
19202,6.79
19214,4.06
19226,0.78
19237,-3.09
19248,-7.37
19260,-11.69
19272,-15.72
19284,-19.32
19296,-22.67
19308,-26.23
19320,-30.49
19332,-35.75
19344,-41.83
19356,-48.06
19368,-53.39
19380,-56.62
19392,-56.8
19404,-53.47
19416,-46.78
19427,-37.47
19438,-26.7
19450,-15.69
19462,-5.56
19474,2.97
19486,9.58
19498,14.36
19510,17.67
19522,19.95
19534,21.61
19546,22.91
19558,23.96
19570,24.76
19582,25.28
19594,25.52
19606,25.52
19617,25.31
19628,24.96
19640,24.51
19652,24.05
19664,23.7
19676,23.64
19688,23.97
19700,24.69
19712,25.63
19724,26.45
19736,26.78
19748,26.33
19760,25.01
19772,22.98
19784,20.53
19796,17.99
19807,15.49
19818,13.01
19830,10.31
19842,7.12
19854,3.33
19866,-1.03
19878,-5.72
19890,-10.43
19902,-14.89
19914,-18.93
19926,-22.54
19938,-25.82
19950,-28.98
19962,-32.3
19974,-36.07
19986,-40.42
19997,-45.15
20008,-49.68
20020,-53.05
20032,-54.18
20044,-52.21
20056,-46.89
20068,-38.63
20080,-28.46
20092,-17.7
20104,-7.58
20116,1.09
20128,7.97
20140,13.18
20152,17.09
20164,20.11
20176,22.54
20187,24.49
20198,25.98
20210,26.98
20222,27.5
20234,27.65
20246,27.54
20258,27.3
20270,26.95
20282,26.45
20294,25.77
20306,24.94
20318,24.07
20330,23.36
20342,22.94
20354,22.82
20366,22.79
20377,22.56
20388,21.85
20400,20.52
20412,18.64
20424,16.4
20436,14.06
20448,11.81
20460,9.68
20472,7.6
20484,5.44
20496,3.06
20508,0.39
20520,-2.56
20532,-5.68
20544,-8.87
20556,-11.99
20567,-14.96
20578,-17.73
20590,-20.31
20602,-22.82
20614,-25.47
20626,-28.53
20638,-32.17
20650,-36.32
20662,-40.57
20674,-44.13
20686,-45.96
20698,-45.13
20710,-41.05
20722,-33.83
20734,-24.2
20746,-13.36
20757,-2.59
20768,7.08
20780,15.06
20792,21.23
20804,25.77
20816,28.97
20828,31.11
20840,32.39
20852,33.0
20864,33.13
20876,32.96
20888,32.63
20900,32.19
20912,31.59
20924,30.73
20936,29.53
20947,28.1
20958,26.62
20970,25.29
20982,24.22
20994,23.32
