seconds,BVP
9,-16.53
21,10.9
33,29.56
45,33.4
57,22.93
69,4.59
81,-12.43
93,-20.45
105,-15.92
117,-0.17
128,22.1
139,45.05
151,63.82
163,75.44
175,78.99
187,75.28
199,66.11
211,53.87
223,41.22
235,31.0
247,25.73
259,27.27
271,36.1
283,50.47
295,66.76
307,80.29
318,87.39
329,87.19
341,82.26
353,77.52
365,77.59
377,84.31
389,95.06
401,103.73
413,103.39
425,89.61
437,62.71
449,27.7
461,-7.73
473,-36.36
485,-54.0
497,-61.0
508,-61.25
519,-60.29
531,-62.87
543,-71.12
555,-84.25
567,-99.14
579,-112.19
591,-120.51
603,-123.27
615,-121.29
627,-116.33
639,-109.89
651,-102.3
663,-92.76
675,-80.03
687,-63.78
698,-45.18
709,-27.16
721,-13.35
733,-6.52
745,-7.38
757,-14.05
769,-22.86
781,-29.85
793,-32.1
805,-28.29
817,-18.47
829,-3.39
841,16.01
853,38.29
865,61.14
877,81.05
888,94.15
899,97.48
911,90.55
923,75.96
935,58.68
947,44.48
959,37.58
971,39.43
983,48.17
995,59.8
1007,69.35
1019,72.92
1031,68.91
1043,58.5
1055,45.55
1067,34.79
1078,30.0
1089,32.01
1101,38.23
1113,43.68
1125,43.51
1137,35.7
1149,22.2
1161,8.16
1173,-0.99
1185,-2.28
1197,3.2
1209,11.21
1221,16.86
1233,17.22
1245,12.64
1257,5.73
1268,-0.14
1279,-3.19
1291,-3.51
1303,-2.46
1315,-1.41
1327,-0.64
1339,0.54
1351,3.11
1363,7.15
1375,11.93
1387,15.97
1399,18.28
1411,18.95
1423,18.74
1435,18.61
1447,18.78
1458,18.78
1469,17.9
1481,15.8
1493,13.02
1505,10.7
1517,10.02
1529,11.52
1541,15.05
1553,19.53
1565,23.28
1577,24.5
1589,21.6
1601,14.04
1613,2.7
1625,-9.97
1637,-20.79
1648,-26.58
1659,-25.85
1671,-19.7
1683,-11.48
1695,-5.76
1707,-6.1
1719,-13.59
1731,-26.13
1743,-39.55
1755,-49.45
1767,-53.61
1779,-53.28
1791,-52.54
1803,-56.2
1815,-67.15
1827,-85.11
1838,-106.84
1849,-127.92
1861,-144.72
1873,-155.44
1885,-159.86
1897,-158.58
1909,-152.18
1921,-141.03
1933,-125.99
1945,-108.93
1957,-92.66
1969,-80.41
1981,-74.66
1993,-76.11
2005,-83.25
2017,-92.74
2028,-100.01
2039,-100.47
2051,-90.86
2063,-69.54
2075,-36.85
2087,5.43
2099,54.63
2111,107.21
2123,158.45
2135,202.24
2147,231.77
2159,241.3
2171,228.56
2183,196.28
2195,152.25
2207,107.16
2218,71.09
2229,50.08
2241,44.41
2253,48.78
2265,54.61
2277,53.18
2289,38.74
2301,10.9
2313,-25.1
2325,-59.96
2337,-83.7
2349,-89.08
2361,-74.52
2373,-44.64
2385,-8.54
2397,23.22
2408,41.84
2419,42.37
2431,24.33
2443,-8.47
2455,-48.62
2467,-86.66
2479,-113.28
2491,-122.03
2503,-111.86
2515,-87.6
2527,-58.44
2539,-34.19
2551,-21.17
2563,-19.76
2575,-24.61
2587,-27.31
2598,-19.89
2609,1.93
2621,37.14
2633,79.47
2645,118.91
2657,144.42
2669,147.17
2681,123.81
2693,78.41
2705,22.13
2717,-29.94
2729,-63.64
2741,-70.27
2753,-49.86
2765,-10.66
2777,33.91
2788,70.08
2799,87.87
2811,83.34
2823,58.4
2835,19.06
2847,-26.13
2859,-67.94
2871,-97.46
2883,-107.67
2895,-94.96
2907,-60.95
2919,-12.86
2931,37.85
2943,78.24
2955,98.39
2967,94.23
2978,69.17
2989,32.64
3001,-3.16
3013,-27.54
3025,-34.75
3037,-25.38
3049,-6.13
3061,13.48
3073,24.33
3085,21.54
3097,5.83
3109,-17.35
3121,-40.33
3133,-56.69
3145,-63.32
3157,-61.13
3168,-53.39
3179,-43.91
3191,-35.17
3203,-27.96
3215,-21.95
3227,-16.4
3239,-10.86
3251,-5.0
3263,1.44
3275,9.13
3287,18.5
3299,29.35
3311,40.59
3323,50.15
3335,55.94
3347,56.24
3358,50.63
3369,39.77
3381,25.14
3393,7.96
3405,-11.2
3417,-32.15
3429,-54.47
3441,-76.05
3453,-92.66
3465,-98.24
3477,-86.62
3489,-53.79
3501,-0.31
3513,67.83
3525,139.84
3537,202.42
3548,243.3
3559,254.49
3571,234.63
3583,189.61
3595,131.08
3607,73.23
3619,28.85
3631,6.09
3643,6.8
3655,26.81
3667,57.62
3679,88.57
3691,109.3
3703,111.46
3715,90.56
3727,47.18
3738,-12.61
3749,-77.96
3761,-135.81
3773,-174.48
3785,-187.09
3797,-173.35
3809,-139.38
3821,-95.66
3833,-53.58
3845,-22.74
3857,-9.13
3869,-14.44
3881,-36.42
3893,-69.51
3905,-106.05
3917,-137.4
3928,-155.91
3939,-156.52
3951,-138.62
3963,-106.61
3975,-69.25
3987,-37.2
3999,-19.81
4011,-22.0
4023,-41.97
4035,-71.72
4047,-99.58
4059,-114.51
4071,-109.98
4083,-85.96
4095,-48.02
4107,-4.6
4118,36.1
4129,68.62
4141,90.89
4153,103.7
4165,109.92
4177,113.56
4189,118.95
4201,129.64
4213,146.96
4225,168.99
4237,190.99
4249,207.24
4261,213.68
4273,209.88
4285,198.76
4297,184.65
4308,170.99
4319,158.64
4331,146.24
4343,131.78
4355,114.42
4367,94.98
4379,75.6
4391,57.76
4403,41.02
4415,23.1
4427,1.08
4439,-26.63
4451,-58.98
4463,-92.28
4475,-121.78
4487,-143.2
4498,-154.16
4509,-154.61
4521,-146.06
4533,-131.1
4545,-112.66
4557,-94.08
4569,-79.18
4581,-71.5
4593,-72.98
4605,-82.33
4617,-94.66
4629,-102.62
4641,-99.86
4653,-84.06
4665,-58.54
4677,-31.17
4688,-10.39
4699,-1.28
4711,-3.04
4723,-10.11
4735,-15.36
4747,-14.62
4759,-8.5
4771,-1.42
4783,1.47
4795,-2.39
4807,-11.82
4819,-23.03
4831,-32.25
4843,-37.58
4855,-39.67
4867,-40.47
4878,-41.5
4889,-43.22
4901,-44.95
4913,-45.72
4925,-44.29
4937,-39.3
4949,-28.88
4961,-11.6
4973,12.6
4985,41.25
4997,69.18
5009,90.34
5021,100.16
5033,97.97
5045,86.98
5057,72.88
5068,61.01
5079,54.33
5091,52.84
5103,54.45
5115,56.76
5127,58.02
5139,57.41
5151,54.69
5163,50.23
5175,45.65
5187,44.45
5199,51.9
5211,73.24
5223,111.24
5235,163.52
5247,221.61
5258,272.82
5269,304.22
5281,307.06
5293,280.12
5305,229.85
5317,167.19
5329,103.45
5341,46.3
5353,-1.62
5365,-41.21
5377,-74.07
5389,-100.36
5401,-118.59
5413,-126.99
5425,-125.66
5437,-116.67
5448,-102.65
5459,-84.29
5471,-59.42
5483,-24.51
5495,21.41
5507,73.49
5519,120.39
5531,147.69
5543,144.04
5555,106.59
5567,43.11
5579,-30.13
5591,-94.46
5603,-135.37
5615,-146.65
5627,-131.47
5638,-99.63
5649,-62.74
5661,-30.18
5673,-6.43
5685,9.09
5697,20.05
5709,30.37
5721,42.22
5733,54.98
5745,65.42
5757,69.92
5769,65.57
5781,51.18
5793,26.84
5805,-6.52
5817,-47.33
5828,-92.68
5839,-137.51
5851,-174.92
5863,-197.53
5875,-200.56
5887,-184.19
5899,-154.82
5911,-123.14
5923,-100.47
5935,-94.42
5947,-106.5
5959,-132.41
5971,-164.39
5983,-194.15
5995,-214.72
6007,-220.84
6018,-208.99
6029,-177.61
6041,-128.25
6053,-66.78
6065,-3.5
6077,48.74
6089,77.69
6101,75.56
6113,41.71
6125,-17.1
6137,-88.43
6149,-157.45
6161,-210.42
6173,-237.96
6185,-236.41
6197,-207.79
6208,-158.55
6219,-97.55
6231,-34.43
6243,21.25
6255,60.22
6267,74.67
6279,60.4
6291,19.66
6303,-37.1
6315,-92.5
6327,-126.84
6339,-125.21
6351,-84.07
6363,-13.34
6375,66.89
6387,133.72
6398,169.97
6409,169.84
6421,139.39
6433,92.51
6445,44.4
6457,5.77
6469,-19.67
6481,-34.18
6493,-42.76
6505,-49.61
6517,-56.07
6529,-60.11
6541,-57.19
6553,-42.28
6565,-12.04
6577,32.82
6588,86.31
6599,137.3
6611,172.41
6623,180.98
6635,159.87
6647,116.0
6659,64.85
6671,24.97
6683,10.97
6695,27.71
6707,68.64
6719,119.09
6731,161.89
6743,183.25
6755,176.6
6767,143.33
6778,91.32
6789,32.16
6801,-21.44
6813,-58.07
6825,-69.4
6837,-51.83
6849,-7.73
6861,54.93
6873,124.0
6885,186.15
6897,229.73
6909,247.13
6921,235.42
6933,196.03
6945,133.62
6957,54.92
6968,-31.5
6979,-115.64
6991,-186.71
7003,-234.7
7015,-252.92
7027,-240.73
7039,-205.06
7051,-159.58
7063,-120.71
7075,-102.58
7087,-112.35
7099,-148.24
7111,-201.1
7123,-258.68
7135,-310.43
7147,-349.8
7158,-374.02
7169,-382.0
7181,-372.6
7193,-344.72
7205,-298.45
7217,-236.42
7229,-164.17
7241,-88.97
7253,-17.82
7265,43.88
7277,92.63
7289,126.75
7301,145.96
7313,151.63
7325,147.27
7337,137.92
7348,129.31
7359,126.05
7371,130.28
7383,141.56
7395,157.99
7407,177.55
7419,199.02
7431,221.82
7443,245.21
7455,268.02
7467,288.71
7479,306.29
7491,320.66
7503,332.46
7515,341.63
7527,346.32
7538,342.52
7549,325.49
7561,292.07
7573,242.46
7585,181.0
7597,114.99
7609,52.48
7621,-0.26
7633,-39.87
7645,-66.25
7657,-81.56
7669,-88.85
7681,-90.92
7693,-89.99
7705,-87.53
7717,-84.99
7728,-83.87
7739,-85.27
7751,-89.0
7763,-93.07
7775,-93.86
7787,-88.19
7799,-75.27
7811,-57.94
7823,-41.75
7835,-32.04
7847,-30.6
7859,-34.41
7871,-37.3
7883,-33.47
7895,-21.15
7907,-3.71
7918,12.47
7929,21.84
7941,22.85
7953,18.4
7965,13.54
7977,11.77
7989,12.49
8001,11.27
8013,2.42
8025,-17.56
8037,-48.06
8049,-84.39
8061,-119.86
8073,-148.9
8085,-169.45
8097,-183.84
8108,-197.54
8119,-216.21
8131,-242.33
8143,-273.58
8155,-303.64
8167,-325.07
8179,-332.89
8191,-326.97
8203,-311.59
8215,-292.72
8227,-274.37
8239,-256.13
8251,-233.38
8263,-199.97
8275,-151.45
8287,-87.51
8298,-12.63
8309,65.52
8321,138.6
8333,199.84
8345,245.37
8357,274.4
8369,287.59
8381,286.18
8393,271.45
8405,245.58
8417,212.88
8429,180.4
8441,156.37
8453,147.03
8465,153.56
8477,170.49
8488,187.59
8499,194.33
8511,184.75
8523,160.34
8535,128.81
8547,100.03
8559,81.4
8571,75.1
8583,78.03
8595,84.54
8607,89.26
8619,89.12
8631,83.84
8643,74.92
8655,64.56
8667,54.98
8678,48.31
8689,45.94
8701,48.77
8713,56.46
8725,66.82
8737,75.89
8749,78.56
8761,70.13
8773,48.51
8785,15.74
8797,-22.36
8809,-57.48
8821,-81.57
8833,-90.16
8845,-83.79
8857,-68.11
8868,-51.46
8879,-41.71
8891,-43.17
8903,-55.3
8915,-73.35
8927,-90.56
8939,-100.7
8951,-99.83
8963,-87.45
8975,-65.88
8987,-39.54
8999,-13.51
9011,7.65
9023,20.89
9035,25.12
9047,21.56
9058,13.36
9069,4.42
9081,-2.15
9093,-5.21
9105,-5.67
9117,-5.65
9129,-6.98
9141,-10.44
9153,-15.61
9165,-21.35
9177,-26.75
9189,-31.22
9201,-33.89
9213,-32.78
9225,-24.97
9237,-7.75
9248,19.54
9259,53.97
9271,89.49
9283,119.2
9295,138.72
9307,148.31
9319,152.94
9331,159.24
9343,171.5
9355,188.86
9367,205.38
9379,213.39
9391,208.13
9403,190.77
9415,167.94
9427,148.13
9438,136.58
9449,132.15
9461,127.71
9473,113.82
9485,83.36
9497,35.21
9509,-25.2
9521,-88.2
9533,-143.23
9545,-182.6
9557,-203.73
9569,-209.67
9581,-207.87
9593,-207.01
9605,-213.72
9617,-229.72
9628,-251.15
9639,-270.16
9651,-278.44
9663,-270.63
9675,-246.18
9687,-209.08
9699,-165.61
9711,-122.45
9723,-85.55
9735,-59.97
9747,-49.71
9759,-56.79
9771,-79.53
9783,-111.67
9795,-143.49
9807,-165.0
9818,-170.19
9829,-159.95
9841,-141.8
9853,-125.94
9865,-119.87
9877,-124.44
9889,-133.59
9901,-138.57
9913,-133.43
9925,-118.82
9937,-101.15
9949,-88.23
9961,-84.11
9973,-86.87
9985,-90.82
9997,-90.77
10008,-85.95
10019,-79.81
10031,-76.25
10043,-75.24
10055,-70.78
10067,-53.19
10079,-14.49
10091,46.44
10103,122.08
10115,198.54
10127,261.17
10139,300.4
10151,315.12
10163,312.12
10175,302.18
10187,294.76
10198,293.83
10209,296.68
10221,295.93
10233,283.64
10245,255.22
10257,211.23
10269,156.69
10281,98.66
10293,44.1
10305,-1.42
10317,-34.24
10329,-52.89
10341,-58.73
10353,-55.72
10365,-49.25
10377,-43.59
10388,-39.98
10399,-36.08
10411,-27.26
10423,-9.63
10435,17.76
10447,52.11
10459,88.14
10471,120.29
10483,144.52
10495,159.18
10507,164.77
10519,163.45
10531,158.44
10543,153.47
10555,151.69
10567,154.91
10578,162.65
10589,172.12
10601,179.21
10613,180.16
10625,172.94
10637,158.19
10649,139.06
10661,119.49
10673,102.12
10685,86.8
10697,70.66
10709,50.15
10721,23.61
10733,-7.06
10745,-36.55
10757,-58.51
10768,-68.83
10779,-68.3
10791,-62.58
10803,-60.18
10815,-68.65
10827,-91.6
10839,-127.91
10851,-172.55
10863,-219.07
10875,-261.58
10887,-295.56
10899,-317.94
10911,-326.98
10923,-322.58
10935,-307.45
10947,-288.0
10958,-273.14
10969,-271.52
10981,-287.33
10993,-316.76
11005,-347.93
11017,-365.9
11029,-359.59
11041,-327.87
11053,-280.98
11065,-235.55
11077,-206.16
11089,-198.01
11101,-204.63
11113,-212.35
11125,-208.69
11137,-189.1
11148,-158.05
11159,-125.43
11171,-99.3
11183,-81.77
11195,-69.23
11207,-56.38
11219,-40.79
11231,-24.53
11243,-12.01
11255,-6.06
11267,-6.19
11279,-8.83
11291,-10.78
11303,-11.75
11315,-14.27
11327,-21.4
11338,-33.27
11349,-45.18
11361,-49.12
11373,-37.53
11385,-6.55
11397,41.92
11409,101.45
11421,164.09
11433,223.29
11445,275.72
11457,320.78
11469,359.35
11481,391.62
11493,416.64
11505,432.5
11517,437.39
11528,430.85
11539,413.6
11551,386.99
11563,352.06
11575,309.27
11587,258.72
11599,200.83
11611,136.97
11623,69.02
11635,-0.8
11647,-70.22
11659,-136.21
11671,-193.82
11683,-236.07
11695,-255.82
11707,-249.1
11718,-218.46
11729,-173.46
11741,-127.16
11753,-89.96
11765,-64.39
11777,-43.55
11789,-14.57
11801,34.5
11813,107.89
11825,199.19
11837,292.71
11849,369.25
11861,412.73
11873,414.92
11885,376.84
11897,307.03
11908,218.11
11919,123.15
11931,33.79
11943,-40.5
11955,-92.35
11967,-116.72
11979,-112.46
11991,-83.95
12003,-41.83
12015,-0.93
12027,24.89
12039,28.57
12051,12.91
12063,-11.34
12075,-31.97
12087,-42.29
12098,-44.68
12109,-48.01
12121,-60.85
12133,-84.3
12145,-109.59
12157,-122.27
12169,-110.81
12181,-74.18
12193,-24.08
12205,19.74
12217,38.77
12229,23.72
12241,-21.44
12253,-81.83
12265,-137.91
12277,-172.85
12288,-177.77
12299,-153.68
12311,-110.08
12323,-60.88
12335,-19.88
12347,3.22
12359,4.98
12371,-12.28
12383,-42.68
12395,-79.78
12407,-118.6
12419,-155.85
12431,-188.13
12443,-210.35
12455,-215.6
12467,-196.67
12478,-149.74
12489,-77.45
12501,9.89
12513,95.77
12525,161.64
12537,192.58
12549,182.19
12561,135.25
12573,66.69
12585,-3.19
12597,-54.96
12609,-76.01
12621,-63.11
12633,-21.89
12645,37.18
12657,102.6
12668,164.32
12679,214.17
12691,245.55
12703,254.26
12715,240.55
12727,210.78
12739,176.28
12751,149.49
12763,137.72
12775,139.44
12787,145.37
12799,143.86
12811,127.29
12823,95.78
12835,54.88
12847,10.21
12858,-36.65
12869,-89.08
12881,-151.83
12893,-226.07
12905,-306.8
12917,-383.9
12929,-445.63
12941,-482.7
12953,-491.02
12965,-472.03
12977,-432.57
12989,-383.66
13001,-338.04
13013,-306.83
13025,-295.63
13037,-302.32
13048,-317.68
13059,-330.01
13071,-330.29
13083,-316.28
13095,-292.32
13107,-265.74
13119,-242.36
13131,-223.45
13143,-206.47
13155,-188.19
13167,-168.19
13179,-149.64
13191,-137.64
13203,-135.32
13215,-141.06
13227,-148.73
13238,-150.77
13249,-142.43
13261,-124.31
13273,-101.58
13285,-80.4
13297,-63.76
13309,-49.56
13321,-31.75
13333,-4.01
13345,36.48
13357,87.48
13369,142.67
13381,194.69
13393,237.88
13405,269.77
13417,290.23
13428,300.29
13439,300.82
13451,292.36
13463,275.63
13475,252.53
13487,226.01
13499,199.38
13511,175.36
13523,155.13
13535,138.39
13547,124.25
13559,112.17
13571,102.81
13583,98.38
13595,101.65
13607,114.95
13618,139.27
13629,174.0
13641,216.96
13653,264.7
13665,312.31
13677,353.86
13689,383.16
13701,395.21
13713,388.34
13725,365.21
13737,332.26
13749,297.02
13761,265.01
13773,237.55
13785,212.32
13797,185.69
13808,155.97
13819,125.27
13831,98.67
13843,81.32
13855,75.36
13867,78.56
13879,85.43
13891,89.68
13903,86.53
13915,73.94
13927,52.22
13939,22.93
13951,-11.8
13963,-49.14
13975,-85.39
13987,-116.01
13998,-136.5
14009,-143.92
14021,-137.38
14033,-118.29
14045,-89.79
14057,-55.94
14069,-21.52
14081,8.26
14093,28.49
14105,36.27
14117,32.14
14129,21.02
14141,10.87
14153,9.43
14165,20.77
14177,43.09
14188,69.73
14199,92.42
14211,105.73
14223,109.08
14235,106.45
14247,102.95
14259,101.19
14271,99.82
14283,94.82
14295,83.11
14307,65.59
14319,47.63
14331,36.23
14343,35.93
14355,45.55
14367,58.47
14378,66.36
14389,63.61
14401,50.45
14413,32.49
14425,17.55
14437,11.6
14449,16.37
14461,29.09
14473,44.44
14485,57.34
14497,64.57
14509,65.15
14521,59.54
14533,48.69
14545,33.07
14557,12.51
14568,-13.32
14579,-44.25
14591,-78.72
14603,-113.57
14615,-144.8
14627,-169.42
14639,-187.2
14651,-201.27
14663,-217.06
14675,-239.69
14687,-270.88
14699,-307.1
14711,-340.11
14723,-359.2
14735,-354.74
14747,-321.62
14758,-261.78
14769,-184.42
14781,-103.96
14793,-35.6
14805,10.04
14817,31.09
14829,35.16
14841,35.72
14853,45.23
14865,68.4
14877,100.05
14889,128.01
14901,139.98
14913,129.65
14925,99.46
14937,57.96
14948,15.12
14959,-22.06
14971,-51.12
14983,-72.63
14995,-87.87
15007,-97.56
15019,-102.56
15031,-104.34
15043,-105.13
15055,-106.43
15067,-107.73
15079,-105.94
15091,-96.96
15103,-78.07
15115,-49.56
15127,-14.86
15138,21.07
15149,53.44
15161,78.44
15173,93.2
15185,95.35
15197,83.8
15209,60.03
15221,29.5
15233,0.98
15245,-16.39
15257,-17.19
15269,-2.94
15281,18.73
15293,37.8
15305,47.15
15317,45.17
15328,35.11
15339,21.17
15351,4.95
15363,-15.12
15375,-41.14
15387,-71.74
15399,-100.84
15411,-120.05
15423,-124.0
15435,-114.3
15447,-99.93
15459,-92.78
15471,-101.25
15483,-125.37
15495,-156.51
15507,-182.21
15518,-192.97
15529,-187.62
15541,-173.72
15553,-163.31
15565,-166.59
15577,-186.6
15589,-218.33
15601,-252.2
15613,-279.81
15625,-298.39
15637,-311.12
15649,-323.42
15661,-337.64
15673,-350.23
15685,-352.75
15697,-336.88
15708,-299.51
15719,-245.23
15731,-184.19
15743,-127.05
15755,-80.25
15767,-43.9
15779,-13.47
15791,16.48
15803,48.97
15815,83.63
15827,117.9
15839,149.28
15851,176.97
15863,202.07
15875,226.53
15887,251.68
15898,277.46
15909,302.55
15921,325.2
15933,344.27
15945,359.19
15957,369.64
15969,374.76
15981,372.99
15993,362.54
16005,342.61
16017,314.47
16029,281.74
16041,249.7
16053,223.7
16065,207.61
16077,202.69
16088,207.88
16099,220.2
16111,235.73
16123,250.37
16135,260.36
16147,262.67
16159,255.72
16171,239.74
16183,216.8
16195,190.54
16207,164.81
16219,142.77
16231,125.71
16243,112.83
16255,101.43
16267,88.3
16278,70.77
16289,47.88
16301,20.63
16313,-8.65
16325,-37.4
16337,-64.11
16349,-88.93
16361,-113.24
16373,-138.16
16385,-163.29
16397,-186.28
16409,-203.62
16421,-212.3
16433,-211.03
16445,-200.42
16457,-182.4
16468,-159.13
16479,-131.92
16491,-101.07
16503,-66.1
16515,-26.24
16527,18.44
16539,66.66
16551,115.1
16563,158.82
16575,192.4
16587,212.02
16599,217.17
16611,211.23
16623,200.27
16635,190.22
16647,184.55
16658,183.02
16669,182.85
16681,180.39
16693,173.02
16705,159.82
16717,140.93
16729,117.05
16741,88.65
16753,56.03
16765,19.37
16777,-20.94
16789,-64.32
16801,-109.49
16813,-154.0
16825,-193.75
16837,-223.18
16848,-236.99
16859,-231.9
16871,-208.3
16883,-170.36
16895,-124.42
16907,-77.03
16919,-32.95
16931,5.48
16943,37.84
16955,64.21
16967,84.43
16979,98.0
16991,104.88
17003,106.19
17015,104.54
17027,103.24
17038,105.24
17049,112.04
17061,123.28
17073,137.2
17085,151.74
17097,165.57
17109,178.46
17121,191.26
17133,204.8
17145,219.04
17157,232.55
17169,242.67
17181,246.59
17193,242.11
17205,228.61
17217,206.97
17228,179.12
17239,147.03
17251,112.04
17263,74.89
17275,35.89
17287,-4.12
17299,-43.89
17311,-82.02
17323,-117.7
17335,-151.28
17347,-183.88
17359,-216.31
17371,-247.61
17383,-274.86
17395,-293.89
17407,-301.76
17418,-298.63
17429,-288.44
17441,-277.5
17453,-271.75
17465,-273.98
17477,-282.23
17489,-290.81
17501,-292.59
17513,-282.4
17525,-258.77
17537,-223.87
17549,-181.26
17561,-133.15
17573,-79.3
17585,-18.0
17597,50.95
17608,124.48
17619,196.02
17631,257.27
17643,301.58
17655,326.44
17667,334.75
17679,333.16
17691,329.0
17703,326.55
17715,326.16
17727,325.06
17739,319.33
17751,306.09
17763,284.36
17775,255.44
17787,222.16
17798,187.91
17809,154.68
17821,124.21
17833,98.68
17845,80.6
17857,71.74
17869,71.68
17881,77.53
17893,84.66
17905,88.41
17917,82.6
17929,64.29
17941,35.55
17953,2.32
17965,-28.67
17977,-52.06
17988,-64.1
17999,-62.14
18011,-45.33
18023,-22.11
18035,-2.81
18047,4.75
18059,-2.11
18071,-22.73
18083,-54.9
18095,-94.97
18107,-138.18
18119,-180.11
18131,-228.21
18143,-289.14
18155,-362.5
18167,-439.34
18178,-509.17
18189,-565.99
18201,-609.13
18213,-641.31
18225,-666.79
18237,-703.64
18249,-765.7
18261,-854.97
18273,-960.48
18285,-1068.01
18297,-1168.24
18309,-1257.93
18321,-1337.14
18333,-1321.02
18345,-1160.68
18357,-872.81
18368,-533.31
18379,-216.42
18391,43.14
18403,243.4
18415,395.67
18427,512.18
18439,601.97
18451,655.6
18463,669.23
18475,646.42
18487,601.43
18499,550.78
18511,505.52
18523,470.24
18535,445.07
18547,427.94
18558,405.13
18569,366.45
18581,310.83
18593,247.25
18605,186.58
18617,135.43
18629,95.32
18641,64.95
18653,41.99
18665,17.82
18677,-13.92
18689,-54.52
18701,-99.39
18713,-142.15
18725,-177.4
18737,-200.46
18748,-206.35
18759,-191.16
18771,-157.36
18783,-111.68
18795,-63.53
18807,-22.16
18819,5.05
18831,14.18
18843,5.49
18855,-16.81
18867,-46.72
18879,-79.74
18891,-112.5
18903,-142.1
18915,-165.2
18927,-178.35
18938,-178.53
18949,-164.04
18961,-134.55
18973,-91.43
18985,-37.66
18997,22.71
19009,84.86
19021,144.29
19033,196.93
19045,239.83
19057,271.46
19069,292.15
19081,304.43
19093,312.84
19105,323.61
19117,342.24
19128,371.85
19139,410.94
19151,453.58
19163,491.03
19175,514.81
19187,519.77
19199,505.84
19211,478.54
19223,446.9
19235,420.77
19247,407.28
19259,408.58
19271,421.36
19283,438.0
19295,449.57
19307,448.55
19318,431.34
19329,398.28
19341,352.62
19353,298.38
19365,238.41
19377,174.25
19389,106.76
19401,37.86
19413,-29.16
19425,-90.25
19437,-142.18
19449,-183.66
19461,-215.72
19473,-241.23
19485,-263.01
19497,-283.26
19508,-302.7
19519,-321.22
19531,-338.2
19543,-352.68
19555,-362.6
19567,-364.19
19579,-352.9
19591,-325.07
19603,-280.66
19615,-224.72
19627,-166.9
19639,-118.71
19651,-89.87
19663,-85.06
19675,-102.6
19687,-135.78
19698,-175.54
19709,-213.99
19721,-246.29
19733,-270.8
19745,-288.02
19757,-299.07
19769,-304.97
19781,-307.11
19793,-308.02
19805,-311.68
19817,-322.46
19829,-342.79
19841,-371.12
19853,-401.19
19865,-423.67
19877,-429.54
19888,-413.7
19899,-376.67
19911,-324.08
19923,-263.76
19935,-202.84
19947,-145.81
19959,-94.44
19971,-48.36
19983,-6.34
19995,32.85
20007,70.37
20019,107.16
20031,143.88
20043,180.58
20055,216.29
20067,248.63
20078,274.26
20089,289.35
20101,290.11
20113,274.67
20125,243.76
20137,201.87
20149,156.97
20161,117.92
20173,91.4
20185,79.02
20197,76.48
20209,75.41
20221,67.64
20233,48.31
20245,17.72
20257,-19.47
20268,-57.04
20279,-89.17
20291,-112.0
20303,-123.54
20315,-123.37
20327,-112.57
20339,-94.77
20351,-76.29
20363,-65.29
20375,-69.27
20387,-91.36
20399,-128.36
20411,-170.92
20423,-206.73
20435,-224.47
20447,-218.12
20458,-188.29
20469,-141.0
20481,-84.95
20493,-27.75
20505,26.02
20517,74.95
20529,119.62
20541,161.19
20553,200.18
20565,236.67
20577,270.79
20589,302.36
20601,331.09
20613,356.03
20625,375.79
20637,389.1
20648,395.41
20659,395.2
20671,390.4
20683,384.14
20695,379.99
20707,380.83
20719,387.13
20731,396.01
20743,401.28
20755,395.47
20767,372.6
20779,330.83
20791,273.35
20803,207.02
20815,139.71
20827,77.17
20838,21.4
20849,-28.77
20861,-75.51
20873,-119.52
20885,-158.98
20897,-190.15
20909,-209.09
20921,-213.66
20933,-204.27
20945,-183.46
20957,-154.31
20969,-119.12
20981,-78.63
20993,-33.0
