seconds,BVP
7,37.43
19,37.35
31,36.8
42,35.56
53,33.46
65,30.43
77,26.6
89,22.22
101,17.65
113,13.24
125,9.16
137,5.38
149,1.64
161,-2.41
173,-7.05
185,-12.37
197,-18.11
209,-23.66
221,-28.14
232,-30.51
243,-29.82
255,-25.39
267,-17.09
279,-5.33
291,8.94
303,24.5
315,40.1
327,54.68
339,67.44
351,77.7
363,84.87
375,88.4
387,87.93
399,83.51
411,75.71
422,65.6
433,54.45
445,43.41
457,33.19
469,24.03
481,15.82
493,8.41
505,1.71
517,-4.19
529,-9.18
541,-13.31
553,-16.83
565,-20.17
577,-23.74
589,-27.73
601,-32.05
612,-36.36
623,-40.25
635,-43.35
647,-45.49
659,-46.69
671,-47.12
683,-47.06
695,-46.8
707,-46.65
719,-46.89
731,-47.67
743,-48.85
755,-49.88
767,-49.88
779,-47.8
791,-42.82
802,-34.68
813,-23.77
825,-11.01
837,2.49
849,15.76
861,28.19
873,39.48
885,49.51
897,58.11
909,65.07
921,70.17
933,73.41
945,75.1
957,75.87
969,76.53
981,77.83
992,80.27
1003,83.95
1015,88.63
1027,93.91
1039,99.35
1051,104.69
1063,109.86
1075,114.93
1087,119.99
1099,125.05
1111,129.98
1123,134.54
1135,138.52
1147,141.78
1159,144.4
1171,146.69
1182,149.2
1193,152.61
1205,157.6
1217,164.63
1229,173.57
1241,183.55
1253,192.86
1265,199.21
1277,200.32
1289,194.54
1301,181.49
1313,162.15
1325,138.54
1337,113.04
1349,87.65
1361,63.54
1372,41.07
1383,20.17
1395,0.63
1407,-17.55
1419,-34.33
1431,-49.76
1443,-64.14
1455,-77.86
1467,-91.18
1479,-103.99
1491,-115.74
1503,-125.66
1515,-133.02
1527,-137.51
1539,-139.33
1551,-139.09
1562,-137.63
1573,-135.67
1585,-133.64
1597,-131.66
1609,-129.59
1621,-127.26
1633,-124.54
1645,-121.5
1657,-118.31
1669,-115.2
1681,-112.34
1693,-109.81
1705,-107.57
1717,-105.52
1729,-103.55
1741,-101.52
1752,-99.27
1763,-96.64
1775,-93.5
1787,-89.85
1799,-85.84
1811,-81.74
1823,-77.85
1835,-74.34
1847,-71.17
1859,-68.1
1871,-64.8
1883,-60.98
1895,-56.58
1907,-51.78
1919,-47.09
1931,-43.23
1942,-41.07
1953,-41.37
1965,-44.63
1977,-50.75
1989,-59.0
2001,-68.0
2013,-76.02
2025,-81.4
2037,-82.87
2049,-79.94
2061,-72.94
2073,-62.94
2085,-51.43
2097,-39.91
2109,-29.6
2121,-21.2
2132,-14.85
2143,-10.3
2155,-7.09
2167,-4.8
2179,-3.23
2191,-2.33
2203,-2.15
2215,-2.55
2227,-3.16
2239,-3.46
2251,-2.96
2263,-1.48
2275,0.74
2287,3.2
2299,5.31
2311,6.8
2322,7.78
2333,8.6
2345,9.54
2357,10.48
2369,10.86
2381,9.95
2393,7.38
2405,3.43
2417,-0.86
2429,-4.13
2441,-5.3
2453,-4.0
2465,-0.78
2477,3.22
2489,6.69
2501,8.54
2512,8.09
2523,5.1
2535,-0.27
2547,-7.46
2559,-15.72
2571,-24.43
2583,-33.75
2595,-45.08
2607,-61.07
2619,-84.75
2631,-117.85
2643,-159.17
2655,-203.64
2667,-243.08
2679,-268.5
2691,-273.12
2702,-255.0
2713,-217.95
2725,-170.28
2737,-122.11
2749,-82.28
2761,-56.12
2773,-44.81
2785,-46.26
2797,-56.6
2809,-71.52
2821,-87.17
2833,-100.33
2845,-108.54
2857,-110.37
2869,-105.68
2881,-95.79
2892,-83.08
2903,-70.26
2915,-59.39
2927,-51.36
2939,-45.75
2951,-41.27
2963,-36.39
2975,-29.94
2987,-21.5
2999,-11.53
3011,-1.24
3023,7.73
3035,13.89
3047,16.36
3059,15.34
3071,11.98
3082,7.97
3093,4.87
3105,3.53
3117,3.86
3129,5.15
3141,6.67
3153,8.22
3165,10.33
3177,14.05
3189,20.41
3201,29.85
3213,42.0
3225,55.71
3237,69.45
3249,81.74
3261,91.54
3272,98.33
3283,102.0
3295,102.72
3307,100.74
3319,96.36
3331,89.93
3343,81.88
3355,72.75
3367,63.19
3379,53.88
3391,45.48
3403,38.62
3415,33.87
3427,31.65
3439,32.15
3451,35.27
3462,40.56
3473,47.29
3485,54.63
3497,61.87
3509,68.49
3521,74.24
3533,78.95
3545,82.45
3557,84.51
3569,84.91
3581,83.53
3593,80.55
3605,76.31
3617,71.31
3629,65.97
3641,60.59
3652,55.28
3663,50.05
3675,44.94
3687,39.95
3699,35.14
3711,30.5
3723,25.94
3735,21.3
3747,16.46
3759,11.38
3771,6.12
3783,0.83
3795,-4.37
3807,-9.49
3819,-14.69
3831,-20.32
3842,-26.7
3853,-33.96
3865,-41.81
3877,-49.49
3889,-55.85
3901,-59.7
3913,-60.07
3925,-56.53
3937,-49.32
3949,-39.2
3961,-27.31
3973,-14.81
3985,-2.78
3997,7.97
4009,16.88
4021,23.62
4032,28.11
4043,30.44
4055,30.88
4067,29.81
4079,27.65
4091,24.79
4103,21.55
4115,18.21
4127,14.97
4139,12.05
4151,9.62
4163,7.78
4175,6.49
4187,5.58
4199,4.77
4211,3.79
4222,2.42
4233,0.57
4245,-1.81
4257,-4.76
4269,-8.28
4281,-12.4
4293,-17.08
4305,-22.26
4317,-27.84
4329,-33.72
4341,-39.78
4353,-45.79
4365,-51.3
4377,-55.6
4389,-57.83
4401,-57.23
4412,-53.37
4423,-46.31
4435,-36.65
4447,-25.28
4459,-13.19
4471,-1.27
4483,9.78
4495,19.42
4507,27.24
4519,32.98
4531,36.55
4543,38.07
4555,37.89
4567,36.5
4579,34.42
4591,32.1
4602,29.79
4613,27.67
4625,25.77
4637,24.11
4649,22.65
4661,21.36
4673,20.16
4685,18.94
4697,17.59
4709,15.93
4721,13.85
4733,11.29
4745,8.31
4757,5.06
4769,1.69
4781,-1.75
4792,-5.36
4803,-9.42
4815,-14.21
4827,-19.81
4839,-25.94
4851,-31.9
4863,-36.7
4875,-39.33
4887,-39.05
4899,-35.62
4911,-29.33
4923,-20.96
4935,-11.49
4947,-1.89
4959,7.02
4971,14.7
4982,20.78
4993,25.15
5005,27.87
5017,29.19
5029,29.46
5041,29.11
5053,28.46
5065,27.66
5077,26.74
5089,25.69
5101,24.51
5113,23.3
5125,22.19
5137,21.31
5149,20.74
5161,20.47
5172,20.41
5183,20.41
5195,20.24
5207,19.67
5219,18.49
5231,16.61
5243,14.1
5255,11.21
5267,8.18
5279,5.21
5291,2.32
5303,-0.63
5315,-3.83
5327,-7.46
5339,-11.62
5351,-16.37
5362,-21.67
5373,-27.31
5385,-32.83
5397,-37.44
5409,-40.19
5421,-40.15
5433,-36.76
5445,-30.06
5457,-20.69
5469,-9.75
5481,1.49
5493,11.92
5505,20.78
5517,27.71
5529,32.7
5541,35.89
5552,37.44
5563,37.49
5575,36.23
5587,33.89
5599,30.9
5611,27.77
5623,24.94
5635,22.75
5647,21.29
5659,20.43
5671,20.05
5683,20.02
5695,20.28
5707,20.72
5719,21.14
5731,21.2
5742,20.57
5753,19.09
5765,16.8
5777,13.98
5789,10.97
5801,8.0
5813,5.13
5825,2.26
5837,-0.74
5849,-3.91
5861,-7.18
5873,-10.43
5885,-13.54
5897,-16.46
5909,-19.22
5921,-21.93
5932,-24.71
5943,-27.7
5955,-31.02
5967,-34.74
5979,-38.8
5991,-42.88
6003,-46.39
6015,-48.47
6027,-48.23
6039,-45.01
6051,-38.61
6063,-29.41
6075,-18.3
6087,-6.46
6099,4.98
6111,15.13
6122,23.43
6133,29.7
6145,33.98
6157,36.45
6169,37.42
6181,37.29
6193,36.5
6205,35.51
6217,34.74
6229,34.5
6241,34.94
6253,36.14
6265,38.05
6277,40.57
6289,43.61
6301,47.07
6312,50.91
6323,55.16
6335,59.88
6347,65.11
6359,70.81
6371,76.78
6383,82.67
6395,87.97
6407,92.13
6419,94.55
6431,94.64
6443,91.88
6455,85.92
6467,76.67
6479,64.47
6491,49.99
6502,34.04
6513,17.28
6525,0.07
6537,-17.53
6549,-35.47
6561,-53.42
6573,-70.55
6585,-85.72
6597,-97.81
6609,-106.13
6621,-110.5
6633,-111.15
6645,-108.43
6657,-102.63
6669,-94.01
6681,-83.09
6692,-70.84
6703,-58.58
6715,-47.7
6727,-39.1
6739,-32.91
6751,-28.57
6763,-25.12
6775,-21.75
6787,-18.14
6799,-14.48
6811,-11.27
6823,-8.99
6835,-7.85
6847,-7.68
6859,-8.06
6871,-8.48
6882,-8.53
6893,-8.02
6905,-6.92
6917,-5.38
6929,-3.64
6941,-1.9
6953,-0.32
6965,1.01
6977,2.07
6989,2.84
7001,3.26
7013,3.2
7025,2.56
7037,1.26
7049,-0.65
7061,-3.04
7072,-5.74
7083,-8.53
7095,-11.26
7107,-13.82
7119,-16.23
7131,-18.58
7143,-21.08
7155,-23.94
7167,-27.26
7179,-30.98
7191,-34.83
7203,-38.29
7215,-40.67
7227,-41.27
7239,-39.52
7251,-35.11
7262,-28.17
7273,-19.25
7285,-9.24
7297,0.89
7309,10.27
7321,18.37
7333,24.92
7345,29.89
7357,33.34
7369,35.27
7381,35.67
7393,34.66
7405,32.52
7417,29.72
7429,26.88
7441,24.53
7452,22.95
7463,22.17
7475,21.88
7487,21.72
7499,21.34
7511,20.55
7523,19.33
7535,17.78
7547,15.95
7559,13.83
7571,11.34
7583,8.43
7595,5.13
7607,1.55
7619,-2.11
7631,-5.68
7642,-9.02
7653,-12.05
7665,-14.79
7677,-17.23
7689,-19.42
7701,-21.4
7713,-23.26
7725,-25.2
7737,-27.45
7749,-30.26
7761,-33.66
7773,-37.33
7785,-40.54
7797,-42.35
7809,-41.86
7821,-38.55
7832,-32.52
7843,-24.33
7855,-14.92
7867,-5.26
7879,3.8
7891,11.66
7903,17.83
7915,21.97
7927,23.85
7939,23.5
7951,21.16
7963,17.39
7975,12.91
7987,8.44
7999,4.57
8011,1.61
8022,-0.37
8033,-1.49
8045,-1.88
8057,-1.64
8069,-0.73
8081,0.85
8093,3.01
8105,5.43
8117,7.6
8129,8.95
8141,9.03
8153,7.75
8165,5.31
8177,2.11
8189,-1.4
8201,-4.91
8212,-8.32
8223,-11.7
8235,-15.22
8247,-19.01
8259,-23.17
8271,-27.66
8283,-32.31
8295,-36.76
8307,-40.47
8319,-42.76
8331,-43.04
8343,-40.89
8355,-36.31
8367,-29.66
8379,-21.69
8391,-13.23
8402,-5.08
8413,2.16
8425,8.14
8437,12.63
8449,15.5
8461,16.71
8473,16.33
8485,14.61
8497,11.97
8509,8.95
8521,6.0
8533,3.46
8545,1.49
8557,0.13
8569,-0.6
8581,-0.73
8592,-0.32
8603,0.58
8615,1.75
8627,2.95
8639,3.86
8651,4.24
8663,3.93
8675,2.85
8687,0.99
8699,-1.56
8711,-4.66
8723,-8.09
8735,-11.64
8747,-15.18
8759,-18.74
8771,-22.51
8782,-26.74
8793,-31.58
8805,-36.92
8817,-42.25
8829,-46.72
8841,-49.27
8853,-48.93
8865,-45.13
8877,-37.87
8889,-27.72
8901,-15.71
8913,-3.04
8925,9.11
8937,19.81
8949,28.45
8961,34.73
8972,38.6
8983,40.21
8995,39.87
9007,37.95
9019,34.94
9031,31.33
9043,27.62
9055,24.22
9067,21.41
9079,19.22
9091,17.51
9103,16.05
9115,14.63
9127,13.17
9139,11.77
9151,10.51
9162,9.4
9173,8.25
9185,6.72
9197,4.46
9209,1.27
9221,-2.74
9233,-7.22
9245,-11.75
9257,-16.0
9269,-19.92
9281,-23.69
9293,-27.65
9305,-32.12
9317,-37.29
9329,-43.25
9341,-49.84
9352,-56.7
9363,-63.14
9375,-68.14
9387,-70.53
9399,-69.24
9411,-63.65
9423,-53.83
9435,-40.58
9447,-25.19
9459,-9.2
9471,6.0
9483,19.35
9495,30.18
9507,38.11
9519,43.08
9531,45.26
9542,45.0
9553,42.85
9565,39.42
9577,35.38
9589,31.39
9601,28.01
9613,25.7
9625,24.7
9637,24.94
9649,26.1
9661,27.65
9673,28.98
9685,29.59
9697,29.17
9709,27.67
9721,25.16
9732,21.77
9743,17.6
9755,12.73
9767,7.26
9779,1.43
9791,-4.4
9803,-9.85
9815,-14.61
9827,-18.64
9839,-22.19
9851,-25.78
9863,-30.0
9875,-35.33
9887,-42.02
9899,-49.86
9911,-58.19
9922,-65.92
9933,-71.72
9945,-74.25
9957,-72.47
9969,-65.91
9981,-54.83
9993,-40.15
10005,-23.31
10017,-5.89
10029,10.68
10041,25.32
10053,37.4
10065,46.7
10077,53.32
10089,57.44
10101,59.35
10112,59.39
10123,57.96
10135,55.63
10147,53.04
10159,50.83
10171,49.46
10183,49.1
10195,49.61
10207,50.56
10219,51.49
10231,51.99
10243,51.83
10255,50.98
10267,49.49
10279,47.41
10291,44.71
10302,41.35
10313,37.27
10325,32.57
10337,27.48
10349,22.41
10361,17.75
10373,13.73
10385,10.33
10397,7.19
10409,3.81
10421,-0.32
10433,-5.55
10445,-12.05
10457,-19.71
10469,-28.23
10481,-37.0
10492,-45.09
10503,-51.28
10515,-54.27
10527,-53.03
10539,-47.23
10551,-37.49
10563,-25.21
10575,-12.23
10587,-0.26
10599,9.5
10611,16.55
10623,20.89
10635,22.79
10647,22.55
10659,20.45
10671,16.79
10682,12.02
10693,6.65
10705,1.29
10717,-3.53
10729,-7.46
10741,-10.35
10753,-12.24
10765,-13.33
10777,-13.83
10789,-13.94
10801,-13.74
10813,-13.24
10825,-12.37
10837,-11.11
10849,-9.56
10861,-8.02
10872,-6.93
10883,-6.77
10895,-7.76
10907,-9.78
10919,-12.35
10931,-14.76
10943,-16.38
10955,-16.91
10967,-16.41
10979,-15.35
10991,-14.37
11003,-14.1
11015,-14.99
11027,-17.24
11039,-20.63
11051,-24.53
11062,-27.86
11073,-29.24
11085,-27.36
11097,-21.34
11109,-11.07
11121,2.7
11133,18.57
11145,34.82
11157,49.85
11169,62.38
11181,71.65
11193,77.31
11205,79.41
11217,78.29
11229,74.53
11241,68.84
11252,62.02
11263,54.73
11275,47.58
11287,41.04
11299,35.5
11311,31.23
11323,28.35
11335,26.74
11347,26.09
11359,25.98
11371,25.99
11383,25.85
11395,25.36
11407,24.43
11419,22.96
11431,20.86
11442,18.09
11453,14.71
11465,10.92
11477,7.0
11489,3.21
11501,-0.31
11513,-3.57
11525,-6.71
11537,-9.9
11549,-13.33
11561,-17.15
11573,-21.54
11585,-26.64
11597,-32.43
11609,-38.64
11621,-44.69
11632,-49.73
11643,-52.78
11655,-53.03
11667,-50.01
11679,-43.74
11691,-34.74
11703,-23.86
11715,-12.13
11727,-0.58
11739,9.93
11751,18.73
11763,25.43
11775,29.88
11787,32.12
11799,32.4
11811,31.09
11822,28.66
11833,25.62
11845,22.53
11857,19.91
11869,18.16
11881,17.49
11893,17.85
11905,18.99
11917,20.51
11929,22.07
11941,23.46
11953,24.66
11965,25.72
11977,26.6
11989,27.15
12001,27.12
12012,26.27
12023,24.53
12035,22.06
12047,19.16
12059,16.14
12071,13.18
12083,10.28
12095,7.34
12107,4.22
12119,0.81
12131,-2.94
12143,-7.09
12155,-11.72
12167,-16.87
12179,-22.37
12191,-27.74
12202,-32.09
12213,-34.4
12225,-33.75
12237,-29.73
12249,-22.59
12261,-13.15
12273,-2.49
12285,8.32
12297,18.44
12309,27.35
12321,34.63
12333,39.98
12345,43.11
12357,43.92
12369,42.52
12381,39.35
12392,35.06
12403,30.37
12415,25.89
12427,22.01
12439,18.86
12451,16.37
12463,14.33
12475,12.55
12487,10.92
12499,9.43
12511,8.13
12523,7.04
12535,6.07
12547,4.98
12559,3.44
12571,1.17
12582,-1.99
12593,-5.97
12605,-10.51
12617,-15.23
12629,-19.86
12641,-24.28
12653,-28.54
12665,-32.78
12677,-37.15
12689,-41.7
12701,-46.41
12713,-51.22
12725,-56.09
12737,-60.95
12749,-65.55
12761,-69.49
12772,-72.18
12783,-73.01
12795,-71.54
12807,-67.6
12819,-61.39
12831,-53.37
12843,-44.21
12855,-34.6
12867,-25.26
12879,-16.88
12891,-10.02
12903,-5.09
12915,-2.21
12927,-1.26
12939,-1.87
12951,-3.54
12962,-5.72
12973,-7.87
12985,-9.5
12997,-10.26
13009,-10.03
13021,-8.88
13033,-7.11
13045,-5.06
13057,-3.06
13069,-1.27
13081,0.27
13093,1.56
13105,2.49
13117,2.87
13129,2.46
13141,1.08
13152,-1.19
13163,-4.13
13175,-7.42
13187,-10.86
13199,-14.41
13211,-18.22
13223,-22.49
13235,-27.37
13247,-32.85
13259,-38.73
13271,-44.69
13283,-50.21
13295,-54.63
13307,-57.17
13319,-57.02
13331,-53.58
13342,-46.61
13353,-36.43
13365,-23.85
13377,-10.02
13389,3.87
13401,16.8
13413,28.04
13425,37.13
13437,43.83
13449,48.01
13461,49.7
13473,49.13
13485,46.76
13497,43.29
13509,39.48
13521,36.04
13532,33.41
13543,31.76
13555,31.0
13567,30.9
13579,31.24
13591,31.84
13603,32.54
13615,33.22
13627,33.62
13639,33.45
13651,32.34
13663,30.03
13675,26.47
13687,21.83
13699,16.52
13711,10.96
13722,5.51
13733,0.36
13745,-4.57
13757,-9.44
13769,-14.53
13781,-20.11
13793,-26.4
13805,-33.39
13817,-40.8
13829,-47.94
13841,-53.76
13853,-57.05
13865,-56.79
13877,-52.49
13889,-44.36
13901,-33.27
13912,-20.51
13923,-7.42
13935,4.89
13947,15.67
13959,24.5
13971,31.14
13983,35.52
13995,37.65
14007,37.69
14019,35.97
14031,32.99
14043,29.42
14055,25.91
14067,22.98
14079,20.98
14091,19.91
14102,19.6
14113,19.77
14125,20.16
14137,20.64
14149,21.15
14161,21.71
14173,22.22
14185,22.46
14197,22.06
14209,20.67
14221,18.12
14233,14.56
14245,10.38
14257,6.1
14269,2.1
14281,-1.54
14292,-5.07
14303,-8.93
14315,-13.54
14327,-19.16
14339,-25.74
14351,-33.01
14363,-40.51
14375,-47.56
14387,-53.38
14399,-57.01
14411,-57.49
14423,-54.13
14435,-46.73
14447,-35.83
14459,-22.57
14471,-8.41
14482,5.2
14493,17.27
14505,27.32
14517,35.25
14529,41.14
14541,45.05
14553,46.98
14565,46.98
14577,45.33
14589,42.62
14601,39.55
14613,36.87
14625,35.08
14637,34.34
14649,34.53
14661,35.3
14672,36.29
14683,37.22
14695,37.95
14707,38.48
14719,38.78
14731,38.74
14743,38.1
14755,36.52
14767,33.7
14779,29.62
14791,24.61
14803,19.3
14815,14.46
14827,10.6
14839,7.87
14851,5.96
14862,4.22
14873,1.87
14885,-1.8
14897,-7.18
14909,-14.32
14921,-22.75
14933,-31.55
14945,-39.49
14957,-45.26
14969,-47.77
14981,-46.51
14993,-41.52
15005,-33.43
15017,-23.19
15029,-11.85
15041,-0.38
15052,10.38
15063,19.75
15075,27.24
15087,32.59
15099,35.78
15111,37.08
15123,36.96
15135,36.02
15147,34.8
15159,33.68
15171,32.86
15183,32.33
15195,32.06
15207,32.02
15219,32.27
15231,32.88
15242,33.82
15253,34.97
15265,36.1
15277,36.99
15289,37.44
15301,37.37
15313,36.77
15325,35.64
15337,33.97
15349,31.8
15361,29.23
15373,26.44
15385,23.67
15397,21.02
15409,18.5
15421,15.89
15432,12.92
15443,9.4
15455,5.32
15467,0.94
15479,-3.34
15491,-7.03
15503,-9.71
15515,-11.11
15527,-11.17
15539,-9.97
15551,-7.69
15563,-4.66
15575,-1.24
15587,2.15
15599,5.1
15611,7.32
15622,8.64
15633,9.09
15645,8.68
15657,7.43
15669,5.29
15681,2.27
15693,-1.46
15705,-5.53
15717,-9.41
15729,-12.58
15741,-14.74
15753,-15.87
15765,-16.23
15777,-16.2
15789,-16.17
15801,-16.44
15812,-17.18
15823,-18.45
15835,-20.24
15847,-22.48
15859,-25.09
15871,-28.02
15883,-31.24
15895,-34.74
15907,-38.46
15919,-42.26
15931,-45.94
15943,-49.32
15955,-52.36
15967,-55.16
15979,-57.93
15991,-60.92
16002,-64.22
16013,-67.74
16025,-71.21
16037,-74.19
16049,-76.15
16061,-76.62
16073,-75.24
16085,-71.89
16097,-66.66
16109,-59.9
16121,-52.13
16133,-43.87
16145,-35.63
16157,-27.77
16169,-20.5
16181,-13.94
16192,-8.17
16203,-3.31
16215,0.54
16227,3.28
16239,4.95
16251,5.79
16263,6.16
16275,6.51
16287,7.21
16299,8.38
16311,9.96
16323,11.73
16335,13.43
16347,14.92
16359,16.17
16371,17.23
16382,18.12
16393,18.82
16405,19.2
16417,19.09
16429,18.38
16441,17.01
16453,15.02
16465,12.51
16477,9.64
16489,6.53
16501,3.26
16513,-0.17
16525,-3.83
16537,-7.8
16549,-12.12
16561,-16.79
16572,-21.72
16583,-26.75
16595,-31.63
16607,-35.95
16619,-39.14
16631,-40.57
16643,-39.64
16655,-35.99
16667,-29.64
16679,-21.05
16691,-11.02
16703,-0.5
16715,9.61
16727,18.64
16739,26.19
16751,32.13
16762,36.47
16773,39.27
16785,40.55
16797,40.35
16809,38.81
16821,36.25
16833,33.19
16845,30.27
16857,28.03
16869,26.71
16881,26.18
16893,26.03
16905,25.78
16917,25.14
16929,24.05
16941,22.66
16952,21.13
16963,19.51
16975,17.66
16987,15.36
16999,12.48
17011,9.05
17023,5.29
17035,1.46
17047,-2.21
17059,-5.66
17071,-8.96
17083,-12.32
17095,-15.99
17107,-20.12
17119,-24.84
17131,-30.14
17142,-35.86
17153,-41.66
17165,-46.96
17177,-50.97
17189,-52.8
17201,-51.74
17213,-47.52
17225,-40.47
17237,-31.47
17249,-21.7
17261,-12.29
17273,-4.03
17285,2.75
17297,8.04
17309,11.99
17321,14.69
17332,16.14
17343,16.36
17355,15.5
17367,13.95
17379,12.19
17391,10.68
17403,9.65
17415,9.07
17427,8.79
17439,8.71
17451,8.87
17463,9.43
17475,10.53
17487,12.16
17499,14.03
17511,15.74
17522,16.81
17533,16.93
17545,16.03
17557,14.25
17569,11.88
17581,9.26
17593,6.62
17605,4.07
17617,1.49
17629,-1.37
17641,-4.86
17653,-9.24
17665,-14.55
17677,-20.6
17689,-26.92
17701,-32.82
17712,-37.52
17723,-40.24
17735,-40.37
17747,-37.57
17759,-31.9
17771,-23.83
17783,-14.21
17795,-4.08
17807,5.48
17819,13.68
17831,20.06
17843,24.53
17855,27.29
17867,28.66
17879,28.96
17891,28.51
17902,27.57
17913,26.4
17925,25.24
17937,24.27
17949,23.59
17961,23.23
17973,23.17
17985,23.43
17997,24.06
18009,25.01
18021,26.2
18033,27.39
18045,28.3
18057,28.65
18069,28.25
18081,26.98
18092,24.82
18103,21.87
18115,18.34
18127,14.5
18139,10.62
18151,6.79
18163,2.9
18175,-1.29
18187,-6.04
18199,-11.29
18211,-16.66
18223,-21.39
18235,-24.69
18247,-25.91
18259,-24.8
18271,-21.5
18282,-16.41
18293,-10.05
18305,-2.9
18317,4.57
18329,11.88
18341,18.46
18353,23.65
18365,26.86
18377,27.72
18389,26.29
18401,22.99
18413,18.54
18425,13.7
18437,9.08
18449,4.99
18461,1.5
18472,-1.46
18483,-3.95
18495,-6.0
18507,-7.6
18519,-8.77
18531,-9.65
18543,-10.47
18555,-11.55
18567,-13.21
18579,-15.67
18591,-18.98
18603,-23.04
18615,-27.59
18627,-32.3
18639,-36.9
18651,-41.25
18662,-45.48
18673,-49.8
18685,-54.49
18697,-59.68
18709,-65.31
18721,-71.08
18733,-76.43
18745,-80.58
18757,-82.65
18769,-81.73
18781,-77.24
18793,-69.06
18805,-57.74
18817,-44.32
18829,-30.13
18841,-16.33
18852,-3.73
18863,7.35
18875,16.84
18887,24.74
18899,30.98
18911,35.36
18923,37.79
18935,38.38
18947,37.54
18959,35.88
18971,34.02
18983,32.42
18995,31.25
19007,30.5
19019,29.98
19031,29.53
19042,29.05
19053,28.44
19065,27.64
19077,26.54
19089,25.0
19101,22.91
19113,20.27
19125,17.17
19137,13.81
19149,10.31
19161,6.68
19173,2.85
19185,-1.4
19197,-6.34
19209,-12.15
19221,-18.87
19232,-26.22
19243,-33.59
19255,-39.96
19267,-44.16
19279,-45.13
19291,-42.3
19303,-35.83
19315,-26.55
19327,-15.69
19339,-4.52
19351,5.96
19363,15.17
19375,22.83
19387,28.86
19399,33.18
19411,35.73
19422,36.54
19433,35.83
19445,34.06
19457,31.83
19469,29.78
19481,28.37
19493,27.75
19505,27.78
19517,28.15
19529,28.57
19541,28.87
19553,29.11
19565,29.39
19577,29.75
19589,30.02
19601,29.85
19612,28.87
19623,26.87
19635,23.91
19647,20.23
19659,16.17
19671,11.99
19683,7.85
19695,3.86
19707,0.09
19719,-3.46
19731,-6.9
19743,-10.5
19755,-14.71
19767,-19.83
19779,-25.81
19791,-32.08
19802,-37.52
19813,-40.88
19825,-41.11
19837,-37.81
19849,-31.24
19861,-22.3
19873,-12.2
19885,-2.16
19897,6.86
19909,14.2
19921,19.58
19933,22.97
19945,24.59
19957,24.7
19969,23.63
19981,21.68
19992,19.13
20003,16.27
20015,13.36
20027,10.64
20039,8.29
20051,6.32
20063,4.64
20075,3.11
20087,1.66
20099,0.3
20111,-0.95
20123,-2.08
20135,-3.23
20147,-4.63
20159,-6.52
20171,-9.04
20182,-12.17
20193,-15.74
20205,-19.55
20217,-23.39
20229,-27.11
20241,-30.64
20253,-33.97
20265,-37.15
20277,-40.28
20289,-43.51
20301,-46.98
20313,-50.86
20325,-55.26
20337,-60.25
20349,-65.84
20361,-71.79
20372,-77.53
20383,-82.15
20395,-84.47
20407,-83.36
20419,-78.1
20431,-68.61
20443,-55.53
20455,-40.02
20467,-23.45
20479,-7.06
20491,8.22
20503,21.79
20515,33.31
20527,42.59
20539,49.57
20551,54.35
20562,57.18
20573,58.47
20585,58.76
20597,58.57
20609,58.38
20621,58.55
20633,59.25
20645,60.5
20657,62.13
20669,63.86
20681,65.33
20693,66.18
20705,66.2
20717,65.28
20729,63.44
20741,60.72
20752,57.21
20763,53.01
20775,48.23
20787,43.08
20799,37.73
20811,32.35
20823,26.96
20835,21.53
20847,15.95
20859,10.2
20871,4.34
20883,-1.53
20895,-7.33
20907,-13.12
20919,-19.13
20931,-25.66
20942,-32.83
20953,-40.48
20965,-47.95
20977,-54.19
20989,-57.98
