seconds,BVP
3,123.37
15,116.11
27,109.69
39,103.63
50,97.24
61,88.34
73,75.62
85,61.25
97,46.47
109,31.32
121,16.2
133,1.7
145,-11.58
157,-23.14
169,-33.66
181,-43.68
193,-52.1
205,-58.81
217,-64.72
229,-70.61
240,-76.95
251,-83.92
263,-91.28
275,-98.83
287,-105.87
299,-110.64
311,-112.17
323,-110.61
335,-106.86
347,-102.29
359,-98.23
371,-95.44
383,-93.98
395,-93.16
407,-91.69
419,-88.71
430,-84.08
441,-78.21
453,-71.8
465,-65.63
477,-60.34
489,-56.44
501,-54.21
513,-53.64
525,-54.15
537,-54.34
549,-52.03
561,-44.77
573,-30.7
585,-9.24
597,18.61
609,50.62
620,84.08
631,116.51
643,146.01
655,171.14
667,190.53
679,202.75
691,206.72
703,202.41
715,191.24
727,175.9
739,159.48
751,144.33
763,131.55
775,120.77
787,110.75
799,100.23
810,88.63
821,76.04
833,62.92
845,49.73
857,36.75
869,24.65
881,14.07
893,5.51
905,-0.68
917,-4.25
929,-5.19
941,-3.85
953,-0.97
965,2.58
977,6.89
989,12.0
1000,17.61
1011,23.2
1023,28.5
1035,33.65
1047,38.8
1059,43.94
1071,48.87
1083,54.61
1095,61.51
1107,68.82
1119,75.03
1131,79.03
1143,80.59
1155,80.08
1167,78.23
1179,75.81
1190,75.22
1201,77.7
1213,82.56
1225,87.69
1237,91.06
1249,91.39
1261,87.82
1273,79.71
1285,56.14
1297,14.69
1309,-36.23
1321,-82.18
1333,-112.54
1345,-124.73
1357,-122.13
1369,-110.97
1380,-97.54
1391,-86.57
1403,-78.81
1415,-73.82
1427,-71.59
1439,-72.51
1451,-76.35
1463,-81.31
1475,-85.22
1487,-85.64
1499,-81.06
1511,-70.37
1523,-54.8
1535,-37.73
1547,-23.03
1559,-13.17
1570,-8.4
1581,-7.39
1593,-8.18
1605,-9.08
1617,-8.23
1629,-4.76
1641,0.43
1653,5.91
1665,10.32
1677,12.98
1689,13.91
1701,13.76
1713,13.27
1725,13.27
1737,13.74
1749,13.65
1760,11.67
1771,6.89
1783,-0.51
1795,-9.51
1807,-18.77
1819,-27.33
1831,-34.79
1843,-41.25
1855,-46.85
1867,-51.21
1879,-53.38
1891,-52.2
1903,-47.09
1915,-38.53
1927,-28.04
1939,-17.63
1950,-9.03
1961,-3.13
1973,0.38
1985,2.56
1997,4.85
2009,8.48
2021,14.36
2033,23.0
2045,34.43
2057,48.24
2069,63.57
2081,79.17
2093,93.34
2105,104.1
2117,109.42
2129,107.87
2140,99.3
2151,85.16
2163,68.19
2175,51.78
2187,38.9
2199,31.2
2211,28.58
2223,29.71
2235,32.79
2247,36.42
2259,39.71
2271,41.57
2283,41.12
2295,37.95
2307,32.26
2319,24.77
2330,16.6
2341,8.78
2353,1.87
2365,-4.45
2377,-12.16
2389,-23.1
2401,-37.8
2413,-55.38
2425,-74.28
2437,-92.88
2449,-109.74
2461,-123.67
2473,-134.09
2485,-142.58
2497,-150.64
2509,-158.6
2520,-165.6
2531,-170.56
2543,-172.68
2555,-171.12
2567,-164.86
2579,-153.26
2591,-138.4
2603,-122.5
2615,-107.04
2627,-92.8
2639,-80.84
2651,-72.68
2663,-69.25
2675,-70.17
2687,-60.29
2699,-31.28
2710,13.81
2721,63.59
2733,108.37
2745,143.99
2757,169.74
2769,185.84
2781,195.3
2793,199.62
2805,197.6
2817,188.64
2829,174.0
2841,156.26
2853,139.22
2865,125.64
2877,117.1
2889,113.94
2900,114.97
2911,116.65
2923,115.85
2935,111.42
2947,104.16
2959,95.56
2971,86.57
2983,77.62
2995,68.95
3007,60.4
3019,50.85
3031,39.32
3043,25.26
3055,8.36
3067,-11.71
3079,-35.09
3090,-60.93
3101,-87.1
3113,-111.14
3125,-131.68
3137,-148.73
3149,-163.53
3161,-177.75
3173,-192.57
3185,-207.84
3197,-221.63
3209,-230.72
3221,-231.84
3233,-223.01
3245,-204.16
3257,-177.2
3269,-145.42
3280,-112.59
3291,-82.07
3303,-56.1
3315,-35.71
3327,-21.0
3339,-11.53
3351,-6.56
3363,-5.18
3375,-6.4
3387,-9.32
3399,-13.37
3411,-18.51
3423,-25.09
3435,-33.47
3447,-43.4
3459,-53.71
3470,-62.42
3481,-67.3
3493,-66.74
3505,-60.45
3517,-49.59
3529,-36.35
3541,-22.97
3553,-10.76
3565,0.38
3577,11.69
3589,24.68
3601,40.1
3613,57.46
3625,75.07
3637,91.04
3649,104.19
3660,114.62
3671,123.41
3683,131.86
3695,140.95
3707,150.94
3719,161.57
3731,172.07
3743,181.37
3755,188.06
3767,190.69
3779,188.11
3791,180.08
3803,167.45
3815,151.95
3827,135.44
3839,118.99
3850,102.48
3861,84.72
3873,64.15
3885,39.66
3897,11.13
3909,-20.38
3921,-53.11
3933,-85.05
3945,-114.43
3957,-140.0
3969,-161.21
3981,-178.1
3993,-190.97
4005,-200.22
4017,-206.05
4029,-208.43
4040,-206.97
4051,-200.99
4063,-189.57
4075,-171.91
4087,-147.69
4099,-117.43
4111,-82.72
4123,-45.92
4135,-9.83
4147,23.16
4159,51.59
4171,75.39
4183,95.96
4195,115.61
4207,136.63
4219,159.91
4230,184.07
4241,205.26
4253,218.2
4265,218.11
4277,202.56
4289,172.69
4301,132.78
4313,88.68
4325,45.9
4337,8.16
4349,-22.97
4361,-47.4
4373,-65.57
4385,-77.93
4397,-84.94
4409,-87.5
4420,-87.25
4431,-86.26
4443,-86.19
4455,-87.34
4467,-88.21
4479,-85.85
4491,-77.26
4503,-60.75
4515,-37.08
4527,-9.3
4539,18.29
4551,41.68
4563,58.47
4575,68.29
4587,72.41
4599,72.73
4610,70.88
4621,67.78
4633,63.63
4645,58.25
4657,51.45
4669,43.24
4681,34.04
4693,24.67
4705,16.15
4717,9.41
4729,4.97
4741,2.7
4753,1.9
4765,1.56
4777,0.68
4789,-1.44
4800,-5.23
4811,-10.89
4823,-18.33
4835,-27.13
4847,-36.35
4859,-44.66
4871,-50.72
4883,-53.74
4895,-53.87
4907,-52.25
4919,-50.49
4931,-49.78
4943,-50.17
4955,-50.37
4967,-48.12
4979,-41.37
4990,-29.32
5001,-13.36
5013,3.01
5025,14.98
5037,18.15
5049,10.2
5061,-7.98
5073,-32.32
5085,-56.89
5097,-76.04
5109,-86.19
5121,-86.82
5133,-80.01
5145,-69.01
5157,-56.75
5169,-44.92
5180,-33.95
5191,-23.51
5203,-12.81
5215,-0.9
5227,13.25
5239,30.19
5251,49.21
5263,67.77
5275,81.68
5287,86.33
5299,78.55
5311,58.19
5323,28.49
5335,-5.13
5347,-37.05
5359,-63.23
5370,-81.74
5381,-92.48
5393,-96.32
5405,-94.41
5417,-87.85
5429,-77.85
5441,-65.95
5453,-54.02
5465,-43.78
5477,-36.05
5489,-30.57
5501,-26.44
5513,-22.64
5525,-18.25
5537,-12.76
5549,-6.31
5560,0.22
5571,5.53
5583,9.15
5595,11.44
5607,13.19
5619,15.01
5631,17.39
5643,20.54
5655,24.1
5667,27.07
5679,28.3
5691,28.15
5703,27.89
5715,28.46
5727,29.57
5739,30.35
5750,29.98
5761,27.97
5773,24.09
5785,18.47
5797,13.14
5809,11.05
5821,14.48
5833,24.3
5845,40.81
5857,64.28
5869,94.56
5881,130.57
5893,161.12
5905,174.18
5917,166.23
5929,144.63
5940,119.08
5951,95.35
5963,75.14
5975,57.9
5987,42.48
5999,27.93
6011,15.52
6023,7.35
6035,4.45
6047,5.86
6059,9.67
6071,14.06
6083,17.26
6095,17.39
6107,12.31
6119,1.5
6130,-14.04
6141,-32.43
6153,-51.53
6165,-68.85
6177,-81.97
6189,-90.15
6201,-93.55
6213,-93.21
6225,-89.71
6237,-83.17
6249,-74.15
6261,-64.0
6273,-54.25
6285,-45.72
6297,-38.79
6309,-33.25
6320,-28.66
6331,-24.13
6343,-18.79
6355,-12.7
6367,-6.57
6379,-0.85
6391,4.95
6403,11.29
6415,18.25
6427,25.54
6439,33.03
6451,41.07
6463,49.49
6475,58.2
6487,65.71
6499,72.21
6510,78.17
6521,84.26
6533,91.51
6545,101.16
6557,113.86
6569,127.16
6581,135.89
6593,134.07
6605,117.41
6617,84.21
6629,36.39
6641,-20.84
6653,-80.91
6665,-130.54
6677,-158.97
6689,-165.58
6700,-158.47
6711,-146.61
6723,-135.0
6735,-123.83
6747,-110.53
6759,-92.53
6771,-69.36
6783,-44.49
6795,-23.22
6807,-9.57
6819,-4.26
6831,-5.0
6843,-7.92
6855,-9.33
6867,-7.25
6879,-1.82
6890,4.51
6901,9.21
6913,11.57
6925,13.0
6937,15.48
6949,20.13
6961,26.73
6973,33.73
6985,39.86
6997,42.76
7009,41.26
7021,35.94
7033,28.83
7045,22.26
7057,17.98
7069,16.83
7080,18.3
7091,21.2
7103,24.03
7115,26.06
7127,27.69
7139,30.33
7151,35.15
7163,41.29
7175,48.34
7187,55.08
7199,60.43
7211,63.52
7223,63.87
7235,60.72
7247,52.81
7259,38.45
7270,16.8
7281,-10.83
7293,-40.85
7305,-68.24
7317,-88.45
7329,-99.15
7341,-101.93
7353,-99.17
7365,-93.82
7377,-87.6
7389,-80.34
7401,-70.93
7413,-58.71
7425,-44.56
7437,-30.66
7449,-19.53
7460,-12.64
7471,-9.92
7483,-9.77
7495,-10.02
7507,-9.12
7519,-6.72
7531,-3.42
7543,0.06
7555,3.14
7567,5.31
7579,5.97
7591,4.61
7603,1.23
7615,-3.44
7627,-7.95
7639,-10.41
7650,-8.47
7661,-0.71
7673,11.77
7685,26.17
7697,38.33
7709,44.35
7721,42.22
7733,32.83
7745,19.69
7757,8.27
7769,2.62
7781,3.09
7793,6.51
7805,8.35
7817,5.53
7829,-1.97
7840,-11.26
7851,-18.08
7863,-17.52
7875,-7.01
7887,12.64
7899,38.13
7911,65.74
7923,92.9
7935,118.53
7947,142.6
7959,157.1
7971,156.55
7983,141.77
7995,118.58
8007,92.43
8019,65.79
8030,39.51
8041,14.4
8053,-8.26
8065,-27.26
8077,-40.97
8089,-48.97
8101,-53.0
8113,-55.48
8125,-57.92
8137,-60.32
8149,-61.93
8161,-61.81
8173,-59.66
8185,-55.06
8197,-48.4
8209,-41.08
8220,-34.86
8231,-30.94
8243,-28.72
8255,-27.47
8267,-26.4
8279,-25.22
8291,-23.58
8303,-21.62
8315,-20.0
8327,-19.48
8339,-20.38
8351,-22.46
8363,-25.28
8375,-28.17
8387,-30.85
8399,-32.9
8410,-33.93
8421,-33.65
8433,-31.89
8445,-28.63
8457,-24.13
8469,-19.09
8481,-14.03
8493,-9.78
8505,-6.89
8517,-5.39
8529,-4.94
8541,-5.01
8553,-5.13
8565,-5.28
8577,-5.87
8589,-6.5
8600,-7.21
8611,-7.91
8623,-7.98
8635,-6.73
8647,-3.69
8659,1.23
8671,7.88
8683,16.05
8695,26.77
8707,40.13
8719,55.09
8731,69.76
8743,81.84
8755,89.46
8767,91.79
8779,89.24
8790,78.27
8801,60.64
8813,40.18
8825,20.68
8837,4.44
8849,-8.16
8861,-17.78
8873,-25.24
8885,-31.11
8897,-35.39
8909,-37.15
8921,-36.29
8933,-34.24
8945,-32.03
8957,-30.77
8969,-31.11
8980,-32.91
8991,-35.5
9003,-37.86
9015,-38.62
9027,-37.51
9039,-35.24
9051,-32.9
9063,-31.51
9075,-31.63
9087,-32.6
9099,-33.84
9111,-34.76
9123,-34.54
9135,-32.87
9147,-29.75
9159,-25.41
9170,-20.32
9181,-15.43
9193,-12.04
9205,-11.39
9217,-13.72
9229,-17.52
9241,-20.02
9253,-17.82
9265,-8.6
9277,7.96
9289,29.55
9301,52.14
9313,71.57
9325,85.23
9337,92.52
9349,94.48
9360,92.97
9371,89.05
9383,83.19
9395,75.34
9407,65.59
9419,54.55
9431,43.01
9443,31.1
9455,18.3
9467,4.18
9479,-13.38
9491,-33.24
9503,-51.59
9515,-64.95
9527,-73.0
9539,-78.07
9550,-82.63
9561,-88.41
9573,-91.79
9585,-88.11
9597,-73.51
9609,-46.83
9621,-9.59
9633,35.46
9645,84.84
9657,130.75
9669,163.66
9681,177.55
9693,171.43
9705,148.76
9717,114.52
9729,73.77
9740,31.7
9751,-6.57
9763,-36.7
9775,-57.71
9787,-68.67
9799,-70.52
9811,-65.72
9823,-57.49
9835,-48.8
9847,-41.59
9859,-36.98
9871,-34.46
9883,-33.47
9895,-32.58
9907,-30.8
9919,-27.72
9930,-23.51
9941,-18.64
9953,-13.64
9965,-9.06
9977,-5.47
9989,-3.2
10001,-1.85
10013,-1.19
10025,-1.18
10037,-1.88
10049,-3.26
10061,-5.07
10073,-6.97
10085,-8.68
10097,-10.09
10109,-11.09
10120,-11.91
10131,-13.1
10143,-15.18
10155,-18.27
10167,-22.0
10179,-25.52
10191,-27.77
10203,-27.82
10215,-25.11
10227,-19.87
10239,-13.05
10251,-5.97
10263,0.15
10275,4.78
10287,8.18
10299,11.26
10310,14.95
10321,19.65
10333,24.61
10345,28.01
10357,27.46
10369,21.07
10381,8.45
10393,-8.73
10405,-26.85
10417,-41.27
10429,-47.76
10441,-43.9
10453,-29.96
10465,-8.9
10477,14.51
10489,35.17
10500,49.07
10511,54.38
10523,51.7
10535,43.58
10547,33.63
10559,25.37
10571,21.28
10583,22.32
10595,27.91
10607,36.25
10619,45.02
10631,52.09
10643,56.07
10655,56.68
10667,54.61
10679,51.06
10690,47.08
10701,43.21
10713,39.37
10725,35.26
10737,30.64
10749,25.5
10761,20.2
10773,15.25
10785,11.05
10797,7.74
10809,5.23
10821,3.38
10833,2.21
10845,1.87
10857,2.51
10869,4.15
10880,6.65
10891,9.55
10903,12.12
10915,13.46
10927,12.97
10939,10.68
10951,7.28
10963,3.92
10975,1.9
10987,2.5
10999,6.06
11011,11.18
11023,14.83
11035,13.14
11047,2.83
11059,-17.82
11070,-48.0
11081,-83.88
11093,-118.75
11105,-145.26
11117,-158.27
11129,-156.33
11141,-141.74
11153,-118.65
11165,-92.12
11177,-66.77
11189,-45.52
11201,-28.69
11213,-16.04
11225,-8.92
11237,-10.33
11249,-23.66
11260,-49.23
11271,-84.23
11283,-122.73
11295,-156.41
11307,-175.4
11319,-171.96
11331,-143.82
11343,-94.06
11355,-29.48
11367,43.3
11379,117.29
11391,183.76
11403,225.42
11415,229.98
11427,200.9
11439,153.49
11450,107.55
11461,68.91
11473,39.06
11485,16.32
11497,-3.32
11509,-22.33
11521,-41.06
11533,-58.24
11545,-72.74
11557,-84.13
11569,-92.55
11581,-96.34
11593,-93.37
11605,-81.81
11617,-60.72
11629,-30.4
11640,6.32
11651,43.53
11663,74.34
11675,93.5
11687,100.5
11699,97.96
11711,89.68
11723,79.04
11735,68.56
11747,59.38
11759,51.09
11771,42.62
11783,33.04
11795,22.79
11807,12.76
11819,3.68
11830,-3.87
11841,-9.35
11853,-12.42
11865,-13.29
11877,-12.68
11889,-11.58
11901,-10.64
11913,-10.39
11925,-11.24
11937,-13.4
11949,-16.64
11961,-20.38
11973,-23.94
11985,-26.8
11997,-28.73
12009,-29.73
12020,-30.15
12031,-30.43
12043,-30.89
12055,-31.59
12067,-32.26
12079,-32.43
12091,-31.72
12103,-30.04
12115,-27.64
12127,-25.01
12139,-22.66
12151,-20.89
12163,-19.71
12175,-18.81
12187,-17.67
12199,-15.8
12210,-12.93
12221,-9.09
12233,-4.68
12245,-0.26
12257,3.65
12269,6.79
12281,9.22
12293,11.28
12305,13.41
12317,15.9
12329,18.76
12341,21.75
12353,24.5
12365,26.65
12377,27.93
12389,28.19
12400,27.39
12411,25.55
12423,22.75
12435,19.19
12447,15.13
12459,10.92
12471,6.87
12483,3.18
12495,-0.05
12507,-2.83
12519,-5.15
12531,-7.01
12543,-8.33
12555,-8.92
12567,-8.57
12579,-7.13
12590,-4.62
12601,-1.28
12613,2.51
12625,6.21
12637,9.37
12649,11.72
12661,13.26
12673,14.22
12685,14.89
12697,15.45
12709,15.95
12721,16.31
12733,16.4
12745,16.04
12757,15.11
12769,13.53
12780,11.37
12791,8.8
12803,6.06
12815,3.47
12827,1.51
12839,0.45
12851,0.25
12863,0.52
12875,0.79
12887,0.76
12899,0.45
12911,0.13
12923,0.25
12935,1.69
12947,4.99
12959,10.19
12970,16.7
12981,23.68
12993,30.25
13005,35.71
13017,39.62
13029,41.79
13041,43.12
13053,44.53
13065,46.72
13077,49.73
13089,53.33
13101,57.03
13113,60.32
13125,62.73
13137,63.86
13149,64.41
13160,65.03
13171,66.11
13183,67.21
13195,67.93
13207,68.01
13219,67.42
13231,65.95
13243,56.94
13255,36.44
13267,5.02
13279,-31.8
13291,-67.91
13303,-98.73
13315,-122.03
13327,-137.12
13339,-144.3
13350,-144.18
13361,-136.25
13373,-120.17
13385,-96.11
13397,-67.18
13409,-35.45
13421,-3.75
13433,25.37
13445,50.37
13457,70.68
13469,86.77
13481,94.64
13493,93.44
13505,83.2
13517,65.48
13529,43.03
13540,19.26
13551,-2.85
13563,-21.56
13575,-36.05
13587,-46.44
13599,-52.6
13611,-55.02
13623,-54.83
13635,-52.93
13647,-50.52
13659,-48.66
13671,-47.85
13683,-47.59
13695,-46.91
13707,-44.3
13719,-39.16
13730,-31.72
13741,-23.22
13753,-15.59
13765,-10.43
13777,-8.41
13789,-9.03
13801,-11.03
13813,-12.47
13825,-11.84
13837,-8.13
13849,-1.51
13861,6.68
13873,14.75
13885,21.24
13897,25.11
13909,26.04
13920,24.78
13931,22.99
13943,22.97
13955,26.2
13967,32.3
13979,38.99
13991,42.77
14003,39.99
14015,28.44
14027,8.63
14039,-16.49
14051,-38.99
14063,-50.06
14075,-46.41
14087,-32.31
14099,-15.48
14110,-2.18
14121,5.19
14133,7.95
14145,9.07
14157,10.42
14169,11.77
14181,11.59
14193,8.53
14205,2.7
14217,-4.44
14229,-10.56
14241,-13.77
14253,-12.83
14265,-8.09
14277,-1.81
14289,2.84
14300,3.3
14311,-1.07
14323,-8.91
14335,-17.8
14347,-25.52
14359,-30.67
14371,-33.07
14383,-34.3
14395,-35.37
14407,-36.73
14419,-38.13
14431,-38.79
14443,-37.98
14455,-35.44
14467,-31.43
14479,-26.56
14490,-21.58
14501,-16.99
14513,-12.68
14525,-8.7
14537,-5.02
14549,-1.69
14561,1.21
14573,3.55
14585,5.25
14597,6.25
14609,6.65
14621,6.58
14633,6.21
14645,5.84
14657,5.79
14669,6.27
14680,7.31
14691,8.68
14703,10.07
14715,11.27
14727,12.12
14739,12.59
14751,12.77
14763,12.78
14775,12.69
14787,12.52
14799,12.26
14811,11.9
14823,11.51
14835,11.11
14847,10.65
14859,10.05
14870,9.25
14881,8.22
14893,6.99
14905,5.66
14917,4.32
14929,3.1
14941,2.01
14953,1.04
14965,0.18
14977,-0.6
14989,-1.31
15001,-1.99
15013,-2.7
15025,-3.43
15037,-4.15
15049,-4.76
15060,-5.14
15071,-5.21
15083,-4.95
15095,-4.42
15107,-3.7
15119,-2.86
15131,-1.97
15143,-1.09
15155,-0.34
15167,0.09
15179,0.08
15191,-0.32
15203,-0.9
15215,-1.25
15227,-1.02
15239,0.03
15250,1.87
15261,4.22
15273,6.67
15285,8.79
15297,10.38
15309,11.44
15321,12.21
15333,13.02
15345,14.25
15357,16.13
15369,18.65
15381,21.6
15393,24.63
15405,27.49
15417,29.98
15429,31.91
15440,33.12
15451,33.54
15463,33.13
15475,31.98
15487,30.26
15499,28.25
15511,26.46
15523,25.19
15535,24.39
15547,23.86
15559,23.52
15571,23.46
15583,23.95
15595,25.19
15607,27.15
15619,29.88
15630,33.07
15641,36.16
15653,38.66
15665,40.44
15677,41.63
15689,42.29
15701,42.29
15713,41.3
15725,39.52
15737,37.26
15749,34.77
15761,32.26
15773,29.71
15785,26.56
15797,21.55
15809,12.9
15820,-3.22
15831,-26.83
15843,-53.91
15855,-79.04
15867,-98.61
15879,-111.2
15891,-116.12
15903,-112.09
15915,-97.61
15927,-72.31
15939,-37.83
15951,0.95
15963,36.91
15975,63.96
15987,79.22
15999,82.73
16010,77.25
16021,66.69
16033,54.28
16045,42.19
16057,31.25
16069,21.61
16081,13.59
16093,7.82
16105,4.61
16117,3.26
16129,2.86
16141,1.24
16153,-3.47
16165,-11.98
16177,-23.61
16189,-36.57
16200,-48.66
16211,-58.0
16223,-63.22
16235,-63.5
16247,-58.55
16259,-48.27
16271,-33.0
16283,-13.9
16295,7.01
16307,27.15
16319,43.99
16331,55.97
16343,63.04
16355,66.49
16367,68.47
16379,70.74
16390,73.53
16401,75.18
16413,72.98
16425,64.61
16437,49.73
16449,30.47
16461,10.47
16473,-6.65
16485,-19.05
16497,-27.4
16509,-34.25
16521,-42.52
16533,-53.85
16545,-67.74
16557,-82.0
16569,-94.01
16580,-102.02
16591,-105.77
16603,-106.24
16615,-104.74
16627,-101.98
16639,-97.86
16651,-91.76
16663,-83.36
16675,-73.22
16687,-62.75
16699,-53.66
16711,-47.02
16723,-42.78
16735,-39.73
16747,-36.29
16759,-31.22
16770,-24.31
16781,-16.51
16793,-9.51
16805,-5.07
16817,-4.28
16829,-7.06
16841,-12.2
16853,-17.71
16865,-21.57
16877,-22.45
16889,-20.16
16901,-15.58
16913,-10.19
16925,-5.46
16937,-2.27
16949,-0.68
16960,-0.11
16971,0.37
16983,1.61
16995,4.14
17007,8.19
17019,13.72
17031,20.34
17043,27.46
17055,34.32
17067,40.02
17079,43.75
17091,45.0
17103,43.7
17115,40.34
17127,35.84
17139,31.15
17150,26.93
17161,23.25
17173,19.57
17185,15.08
17197,9.23
17209,2.11
17221,-5.41
17233,-11.97
17245,-16.31
17257,-17.94
17269,-17.33
17281,-15.78
17293,-14.74
17305,-15.21
17317,-17.23
17329,-19.87
17340,-21.64
17351,-21.03
17363,-16.96
17375,-9.11
17387,2.11
17399,15.63
17411,29.98
17423,43.44
17435,54.34
17447,61.41
17459,64.09
17471,62.86
17483,59.09
17495,54.56
17507,50.74
17519,48.24
17530,46.61
17541,44.64
17553,41.06
17565,35.16
17577,27.17
17589,18.23
17601,9.88
17613,3.61
17625,0.48
17637,0.84
17649,4.28
17661,9.66
17673,15.27
17685,19.25
17697,20.11
17709,17.27
17720,11.26
17731,3.56
17743,-4.08
17755,-10.2
17767,-14.16
17779,-16.13
17791,-16.74
17803,-16.73
17815,-16.59
17827,-16.55
17839,-16.67
17851,-17.05
17863,-17.78
17875,-18.97
17887,-20.59
17899,-22.5
17910,-24.52
17921,-26.49
17933,-28.34
17945,-30.09
17957,-31.78
17969,-33.49
17981,-35.22
17993,-36.97
18005,-38.72
18017,-40.48
18029,-42.24
18041,-44.0
18053,-45.69
18065,-47.23
18077,-48.41
18089,-48.94
18100,-48.44
18111,-46.57
18123,-43.22
18135,-38.6
18147,-33.3
18159,-28.12
18171,-23.76
18183,-20.53
18195,-18.3
18207,-16.63
18219,-14.95
18231,-12.86
18243,-10.18
18255,-6.87
18267,-3.02
18279,1.31
18290,5.99
18301,10.85
18313,15.59
18325,19.84
18337,23.36
18349,26.15
18361,28.57
18373,31.14
18385,34.34
18397,38.36
18409,42.99
18421,47.71
18433,51.97
18445,55.46
18457,58.14
18469,60.11
18480,61.37
18491,61.69
18503,60.6
18515,57.79
18527,53.34
18539,47.81
18551,41.97
18563,36.37
18575,31.09
18587,25.59
18599,19.08
18611,10.97
18623,1.18
18635,-9.78
18647,-20.94
18659,-31.29
18670,-40.12
18681,-47.3
18693,-53.29
18705,-59.03
18717,-65.35
18729,-72.7
18741,-80.72
18753,-88.3
18765,-94.06
18777,-96.9
18789,-96.51
18801,-93.5
18813,-89.08
18825,-84.43
18837,-80.25
18849,-76.45
18860,-72.24
18871,-66.56
18883,-58.47
18895,-47.75
18907,-35.06
18919,-22.03
18931,-10.87
18943,-3.62
18955,-1.45
18967,-4.18
18979,-10.54
18991,-18.77
19003,-27.44
19015,-35.87
19027,-43.96
19039,-51.54
19050,-57.62
19061,-60.26
19073,-57.05
19085,-46.25
19097,-27.73
19109,-3.39
19121,23.38
19133,48.7
19145,69.21
19157,82.71
19169,88.21
19181,85.73
19193,76.17
19205,61.49
19217,44.55
19229,28.83
19240,17.46
19251,12.0
19263,11.81
19275,14.17
19287,15.52
19299,13.09
19311,6.1
19323,-4.11
19335,-14.86
19347,-23.4
19359,-28.16
19371,-29.11
19383,-27.63
19395,-25.76
19407,-25.33
19419,-27.27
19430,-31.21
19441,-35.57
19453,-37.89
19465,-35.63
19477,-27.14
19489,-12.36
19501,7.0
19513,27.89
19525,46.72
19537,60.57
19549,68.04
19561,69.4
19573,66.24
19585,60.74
19597,54.92
19609,50.36
19620,47.91
19631,47.72
19643,49.49
19655,52.64
19667,56.43
19679,60.11
19691,62.99
19703,64.59
19715,65.06
19727,64.68
19739,63.7
19751,62.22
19763,60.28
19775,57.91
19787,55.19
19799,52.25
19810,49.24
19821,47.05
19833,46.14
19845,46.29
19857,46.77
19869,46.94
19881,46.55
19893,45.68
19905,44.38
19917,42.53
19929,41.27
19941,41.21
19953,42.04
19965,42.94
19977,43.57
19989,44.27
20000,45.47
20011,47.24
20023,49.09
20035,52.67
20047,58.87
20059,67.04
20071,75.4
20083,82.58
20095,88.17
20107,92.35
20119,95.45
20131,97.6
20143,101.86
20155,109.94
20167,120.92
20179,131.97
20190,140.65
20201,146.06
20213,148.45
20225,148.63
20237,129.54
20249,84.99
20261,23.32
20273,-38.33
20285,-87.46
20297,-120.94
20309,-141.29
20321,-152.59
20333,-157.41
20345,-158.94
20357,-155.83
20369,-147.28
20380,-134.72
20391,-121.37
20403,-109.87
20415,-101.11
20427,-95.24
20439,-91.5
20451,-89.15
20463,-85.22
20475,-78.12
20487,-68.54
20499,-58.75
20511,-50.75
20523,-45.23
20535,-41.87
20547,-39.91
20559,-38.81
20570,-36.79
20581,-33.06
20593,-28.23
20605,-23.77
20617,-20.82
20629,-19.55
20641,-19.42
20653,-19.66
20665,-19.77
20677,-18.81
20689,-16.48
20701,-13.26
20713,-10.03
20725,-7.44
20737,-5.67
20749,-4.52
20760,-3.64
20771,-2.76
20783,-1.6
20795,-0.2
20807,1.11
20819,1.89
20831,1.89
20843,0.98
20855,-0.73
20867,-3.01
20879,-5.47
20891,-7.84
20903,-10.01
20915,-12.01
20927,-13.91
20939,-15.67
20950,-17.32
20961,-18.57
20973,-18.83
20985,-17.35
20997,-13.8
