seconds,BVP
3,31.8
15,22.26
27,12.33
39,3.06
50,-4.79
61,-11.06
73,-16.13
85,-20.59
97,-24.8
109,-28.49
121,-31.06
133,-32.03
145,-31.38
157,-29.75
169,-28.08
181,-27.17
193,-27.27
205,-28.01
217,-28.72
229,-28.57
240,-27.15
251,-24.45
263,-20.73
275,-16.34
287,-11.57
299,-6.55
311,-1.39
323,3.77
335,8.65
347,12.81
359,15.81
371,17.31
383,17.22
395,15.72
407,13.26
419,10.37
430,7.56
441,5.24
453,3.62
465,2.72
477,2.43
489,2.55
501,2.87
513,3.22
525,3.51
537,3.71
549,3.84
561,3.89
573,3.89
585,3.79
597,3.54
609,3.03
620,2.2
631,1.02
643,-0.48
655,-2.16
667,-3.86
679,-5.4
691,-6.7
703,-7.72
715,-8.53
727,-9.22
739,-9.95
751,-10.78
763,-11.74
775,-12.82
787,-13.98
799,-15.13
810,-16.17
821,-17.02
833,-17.62
845,-17.95
857,-18.15
869,-18.29
881,-18.41
893,-18.5
905,-18.52
917,-18.43
929,-18.26
941,-18.16
953,-18.34
965,-19.05
977,-20.4
989,-22.34
1000,-24.61
1011,-26.75
1023,-28.17
1035,-28.29
1047,-26.63
1059,-22.98
1071,-17.47
1083,-10.6
1095,-3.13
1107,4.1
1119,10.34
1131,15.15
1143,18.42
1155,20.28
1167,21.01
1179,20.88
1190,20.14
1201,19.02
1213,17.75
1225,16.57
1237,15.72
1249,15.39
1261,15.68
1273,16.57
1285,17.96
1297,19.68
1309,21.5
1321,23.2
1333,24.58
1345,25.53
1357,25.99
1369,25.91
1380,25.28
1391,24.11
1403,22.39
1415,20.23
1427,17.78
1439,15.25
1451,12.85
1463,10.72
1475,8.86
1487,7.19
1499,5.57
1511,3.91
1523,2.19
1535,0.49
1547,-1.08
1559,-2.4
1570,-3.39
1581,-4.07
1593,-4.52
1605,-4.89
1617,-5.34
1629,-5.97
1641,-6.93
1653,-8.3
1665,-10.19
1677,-12.59
1689,-15.34
1701,-18.05
1713,-20.15
1725,-20.97
1737,-20.0
1749,-17.02
1760,-12.2
1771,-6.08
1783,0.64
1795,7.24
1807,13.15
1819,18.03
1831,21.68
1843,24.09
1855,25.31
1867,25.41
1879,24.54
1891,22.94
1903,20.92
1915,18.84
1927,17.05
1939,15.78
1950,15.12
1961,14.97
1973,15.18
1985,15.57
1997,16.03
2009,16.48
2021,16.86
2033,17.09
2045,17.09
2057,16.76
2069,16.07
2081,15.04
2093,13.76
2105,12.37
2117,11.01
2129,9.79
2140,8.75
2151,7.85
2163,6.97
2175,5.96
2187,4.71
2199,3.2
2211,1.52
2223,-0.17
2235,-1.69
2247,-2.92
2259,-3.84
2271,-4.55
2283,-5.2
2295,-5.99
2307,-7.06
2319,-8.4
2330,-9.89
2341,-11.33
2353,-12.52
2365,-13.37
2377,-13.99
2389,-14.59
2401,-15.42
2413,-16.66
2425,-18.27
2437,-20.01
2449,-21.48
2461,-22.18
2473,-21.72
2485,-19.86
2497,-16.62
2509,-12.26
2520,-7.19
2531,-1.91
2543,3.12
2555,7.52
2567,11.04
2579,13.58
2591,15.13
2603,15.8
2615,15.74
2627,15.1
2639,14.02
2651,12.6
2663,11.0
2675,9.4
2687,8.02
2699,7.07
2710,6.66
2721,6.77
2733,7.27
2745,7.98
2757,8.69
2769,9.26
2781,9.59
2793,9.63
2805,9.36
2817,8.81
2829,8.0
2841,6.98
2853,5.82
2865,4.59
2877,3.36
2889,2.17
2900,1.02
2911,-0.07
2923,-1.14
2935,-2.19
2947,-3.17
2959,-4.0
2971,-4.6
2983,-4.92
2995,-5.01
3007,-5.03
3019,-5.18
3031,-5.66
3043,-6.57
3055,-7.85
3067,-9.32
3079,-10.73
3090,-11.83
3101,-12.53
3113,-12.9
3125,-13.17
3137,-13.63
3149,-14.51
3161,-15.9
3173,-17.72
3185,-19.75
3197,-21.67
3209,-23.09
3221,-23.6
3233,-22.85
3245,-20.67
3257,-17.09
3269,-12.42
3280,-7.19
3291,-2.04
3303,2.5
3315,6.05
3327,8.5
3339,9.92
3351,10.47
3363,10.32
3375,9.63
3387,8.54
3399,7.19
3411,5.81
3423,4.63
3435,3.86
3447,3.62
3459,3.86
3470,4.46
3481,5.19
3493,5.88
3505,6.4
3517,6.72
3529,6.85
3541,6.85
3553,6.76
3565,6.64
3577,6.48
3589,6.26
3601,5.9
3613,5.28
3625,4.35
3637,3.19
3649,1.99
3660,0.96
3671,0.25
3683,-0.13
3695,-0.32
3707,-0.48
3719,-0.77
3731,-1.22
3743,-1.84
3755,-2.61
3767,-3.55
3779,-4.67
3791,-5.94
3803,-7.26
3815,-8.47
3827,-9.42
3839,-10.06
3850,-10.47
3861,-10.83
3873,-11.34
3885,-12.14
3897,-13.25
3909,-14.61
3921,-16.02
3933,-17.23
3945,-17.92
3957,-17.77
3969,-16.57
3981,-14.21
3993,-10.82
4005,-6.7
4017,-2.29
4029,1.98
4040,5.69
4051,8.57
4063,10.52
4075,11.53
4087,11.73
4099,11.27
4111,10.4
4123,9.32
4135,8.24
4147,7.32
4159,6.67
4171,6.35
4183,6.3
4195,6.45
4207,6.72
4219,7.04
4230,7.38
4241,7.73
4253,8.1
4265,8.42
4277,8.62
4289,8.62
4301,8.35
4313,7.81
4325,6.99
4337,5.95
4349,4.72
4361,3.41
4373,2.13
4385,1.03
4397,0.18
4409,-0.45
4420,-0.99
4431,-1.6
4443,-2.41
4455,-3.4
4467,-4.48
4479,-5.49
4491,-6.33
4503,-7.01
4515,-7.61
4527,-8.25
4539,-9.01
4551,-9.88
4563,-10.84
4575,-11.8
4587,-12.68
4599,-13.4
4610,-13.78
4621,-13.59
4633,-12.61
4645,-10.72
4657,-8.0
4669,-4.7
4681,-1.19
4693,2.17
4705,5.13
4717,7.58
4729,9.52
4741,10.96
4753,11.86
4765,12.17
4777,11.82
4789,10.88
4800,9.5
4811,7.94
4823,6.46
4835,5.29
4847,4.54
4859,4.27
4871,4.48
4883,5.1
4895,6.05
4907,7.1
4919,8.04
4931,8.6
4943,8.65
4955,8.14
4967,7.19
4979,5.97
4990,4.65
5001,3.33
5013,2.06
5025,0.88
5037,-0.15
5049,-1.0
5061,-1.67
5073,-2.25
5085,-2.9
5097,-3.75
5109,-4.83
5121,-6.0
5133,-7.05
5145,-7.8
5157,-8.16
5169,-8.28
5180,-8.41
5191,-8.8
5203,-9.62
5215,-10.86
5227,-12.42
5239,-14.1
5251,-15.64
5263,-16.77
5275,-17.21
5287,-16.71
5299,-15.14
5311,-12.49
5323,-8.98
5335,-4.92
5347,-0.74
5359,3.17
5370,6.47
5381,8.99
5393,10.65
5405,11.5
5417,11.62
5429,11.09
5441,10.05
5453,8.68
5465,7.21
5477,5.95
5489,5.18
5501,5.04
5513,5.55
5525,6.51
5537,7.68
5549,8.8
5560,9.69
5571,10.25
5583,10.42
5595,10.19
5607,9.62
5619,8.8
5631,7.85
5643,6.91
5655,5.98
5667,5.02
5679,3.88
5691,2.47
5703,0.84
5715,-0.85
5727,-2.34
5739,-3.43
5750,-4.03
5761,-4.24
5773,-4.24
5785,-4.24
5797,-4.37
5809,-4.69
5821,-5.15
5833,-5.72
5845,-6.34
5857,-7.0
5869,-7.68
5881,-8.36
5893,-8.98
5905,-9.58
5917,-10.26
5929,-11.17
5940,-12.42
5951,-13.94
5963,-15.45
5975,-16.52
5987,-16.67
5999,-15.59
6011,-13.28
6023,-9.96
6035,-6.02
6047,-1.92
6059,1.95
6071,5.26
6083,7.78
6095,9.37
6107,10.02
6119,9.84
6130,9.09
6141,8.05
6153,6.98
6165,6.06
6177,5.36
6189,4.91
6201,4.69
6213,4.72
6225,4.98
6237,5.46
6249,6.04
6261,6.63
6273,7.12
6285,7.45
6297,7.63
6309,7.66
6320,7.56
6331,7.33
6343,7.0
6355,6.58
6367,6.13
6379,5.71
6391,5.33
6403,4.95
6415,4.48
6427,3.81
6439,2.88
6451,1.73
6463,0.48
6475,-0.69
6487,-1.65
6499,-2.32
6510,-2.71
6521,-2.92
6533,-3.06
6545,-3.27
6557,-3.67
6569,-4.29
6581,-5.13
6593,-6.09
6605,-7.03
6617,-7.8
6629,-8.31
6641,-8.59
6653,-8.76
6665,-9.09
6677,-9.81
6689,-11.02
6700,-12.67
6711,-14.48
6723,-16.01
6735,-16.78
6747,-16.41
6759,-14.77
6771,-11.98
6783,-8.41
6795,-4.49
6807,-0.66
6819,2.79
6831,5.69
6843,7.97
6855,9.61
6867,10.63
6879,11.04
6890,10.89
6901,10.26
6913,9.29
6925,8.2
6937,7.22
6949,6.56
6961,6.34
6973,6.57
6985,7.07
6997,7.66
7009,8.14
7021,8.44
7033,8.58
7045,8.65
7057,8.71
7069,8.76
7080,8.72
7091,8.5
7103,8.01
7115,7.24
7127,6.26
7139,5.14
7151,4.03
7163,3.04
7175,2.27
7187,1.73
7199,1.32
7211,0.94
7223,0.46
7235,-0.15
7247,-0.84
7259,-1.51
7270,-2.06
7281,-2.48
7293,-2.81
7305,-3.18
7317,-3.66
7329,-4.27
7341,-4.97
7353,-5.65
7365,-6.23
7377,-6.73
7389,-7.2
7401,-7.75
7413,-8.51
7425,-9.54
7437,-10.82
7449,-12.27
7460,-13.79
7471,-15.26
7483,-16.58
7495,-17.57
7507,-17.96
7519,-17.4
7531,-15.61
7543,-12.54
7555,-8.45
7567,-3.89
7579,0.47
7591,4.07
7603,6.61
7615,8.1
7627,8.76
7639,8.85
7650,8.58
7661,8.03
7673,7.3
7685,6.49
7697,5.77
7709,5.34
7721,5.3
7733,5.63
7745,6.25
7757,6.98
7769,7.68
7781,8.26
7793,8.64
7805,8.8
7817,8.73
7829,8.5
7840,8.18
7851,7.91
7863,7.75
7875,7.72
7887,7.75
7899,7.75
7911,7.65
7923,7.42
7935,7.13
7947,6.83
7959,6.59
7971,6.42
7983,6.28
7995,6.13
8007,5.85
8019,5.35
8030,4.55
8041,3.47
8053,2.2
8065,0.92
8077,-0.21
8089,-1.12
8101,-1.88
8113,-2.61
8125,-3.44
8137,-4.45
8149,-5.61
8161,-6.86
8173,-8.11
8185,-9.31
8197,-10.38
8209,-11.29
8220,-12.01
8231,-12.54
8243,-12.97
8255,-13.41
8267,-13.99
8279,-14.82
8291,-15.91
8303,-17.19
8315,-18.44
8327,-19.31
8339,-19.42
8351,-18.42
8363,-16.15
8375,-12.67
8387,-8.31
8399,-3.57
8410,1.0
8421,4.98
8433,8.08
8445,10.19
8457,11.31
8469,11.51
8481,10.93
8493,9.77
8505,8.27
8517,6.7
8529,5.31
8541,4.3
8553,3.76
8565,3.74
8577,4.15
8589,4.83
8600,5.56
8611,6.13
8623,6.42
8635,6.4
8647,6.18
8659,5.93
8671,5.75
8683,5.69
8695,5.62
8707,5.37
8719,4.81
8731,3.94
8743,2.87
8755,1.82
8767,0.94
8779,0.3
8790,-0.15
8801,-0.53
8813,-0.9
8825,-1.28
8837,-1.64
8849,-1.96
8861,-2.25
8873,-2.62
8885,-3.12
8897,-3.79
8909,-4.59
8921,-5.41
8933,-6.18
8945,-6.85
8957,-7.4
8969,-7.88
8980,-8.35
8991,-8.85
9003,-9.45
9015,-10.16
9027,-10.98
9039,-11.91
9051,-12.93
9063,-14.05
9075,-15.23
9087,-16.44
9099,-17.55
9111,-18.37
9123,-18.68
9135,-18.26
9147,-16.98
9159,-14.84
9170,-11.97
9181,-8.56
9193,-4.87
9205,-1.11
9217,2.49
9229,5.74
9241,8.4
9253,10.26
9265,11.17
9277,11.15
9289,10.37
9301,9.15
9313,7.83
9325,6.69
9337,5.87
9349,5.36
9360,5.12
9371,5.09
9383,5.25
9395,5.59
9407,6.08
9419,6.65
9431,7.22
9443,7.74
9455,8.23
9467,8.7
9479,9.1
9491,9.33
9503,9.25
9515,8.75
9527,7.82
9539,6.6
9550,5.27
9561,4.07
9573,3.14
9585,2.49
9597,2.04
9609,1.66
9621,1.28
9633,0.85
9645,0.37
9657,-0.16
9669,-0.77
9681,-1.52
9693,-2.49
9705,-3.66
9717,-4.95
9729,-6.18
9740,-7.21
9751,-7.98
9763,-8.61
9775,-9.31
9787,-10.26
9799,-11.48
9811,-12.76
9823,-13.72
9835,-13.92
9847,-13.12
9859,-11.28
9871,-8.6
9883,-5.34
9895,-1.78
9907,1.88
9919,5.48
9930,8.81
9941,11.64
9953,13.75
9965,14.99
9977,15.38
9989,15.08
10001,14.34
10013,13.39
10025,12.39
10037,11.42
10049,10.5
10061,9.68
10073,8.99
10085,8.51
10097,8.3
10109,8.4
10120,8.79
10131,9.37
10143,9.97
10155,10.43
10167,10.59
10179,10.34
10191,9.62
10203,8.46
10215,6.93
10227,5.15
10239,3.34
10251,1.71
10263,0.45
10275,-0.35
10287,-0.78
10299,-1.05
10310,-1.46
10321,-2.26
10333,-3.5
10345,-5.03
10357,-6.56
10369,-7.79
10381,-8.56
10393,-8.85
10405,-8.77
10417,-8.46
10429,-8.05
10441,-7.59
10453,-7.12
10465,-6.69
10477,-6.43
10489,-6.49
10500,-7.09
10511,-8.33
10523,-10.22
10535,-12.59
10547,-15.02
10559,-17.0
10571,-18.07
10583,-17.88
10595,-16.33
10607,-13.61
10619,-10.03
10631,-6.02
10643,-1.97
10655,1.81
10667,5.06
10679,7.6
10690,9.3
10701,10.15
10713,10.22
10725,9.71
10737,8.85
10749,7.9
10761,7.04
10773,6.41
10785,6.06
10797,5.98
10809,6.1
10821,6.34
10833,6.65
10845,6.98
10857,7.34
10869,7.73
10880,8.16
10891,8.55
10903,8.83
10915,8.86
10927,8.56
10939,7.91
10951,6.99
10963,5.96
10975,4.96
10987,4.06
10999,3.22
11011,2.37
11023,1.41
11035,0.34
11047,-0.77
11059,-1.78
11070,-2.57
11081,-3.07
11093,-3.31
11105,-3.37
11117,-3.38
11129,-3.47
11141,-3.76
11153,-4.34
11165,-5.24
11177,-6.37
11189,-7.62
11201,-8.81
11213,-9.81
11225,-10.57
11237,-11.11
11249,-11.58
11260,-12.2
11271,-13.16
11283,-14.51
11295,-16.13
11307,-17.69
11319,-18.72
11331,-18.78
11343,-17.59
11355,-15.08
11367,-11.47
11379,-7.14
11391,-2.58
11403,1.78
11415,5.6
11427,8.65
11439,10.82
11450,12.11
11461,12.58
11473,12.38
11485,11.68
11497,10.69
11509,9.65
11521,8.75
11533,8.14
11545,7.85
11557,7.84
11569,7.97
11581,8.14
11593,8.28
11605,8.37
11617,8.44
11629,8.5
11640,8.53
11651,8.5
11663,8.33
11675,7.98
11687,7.46
11699,6.8
11711,6.1
11723,5.45
11735,4.89
11747,4.39
11759,3.87
11771,3.22
11783,2.38
11795,1.4
11807,0.37
11819,-0.55
11830,-1.28
11841,-1.83
11853,-2.33
11865,-2.9
11877,-3.62
11889,-4.48
11901,-5.37
11913,-6.15
11925,-6.73
11937,-7.07
11949,-7.25
11961,-7.36
11973,-7.56
11985,-7.98
11997,-8.73
12009,-9.87
12020,-11.41
12031,-13.26
12043,-15.16
12055,-16.76
12067,-17.69
12079,-17.61
12091,-16.34
12103,-13.94
12115,-10.62
12127,-6.77
12139,-2.82
12151,0.87
12163,4.06
12175,6.63
12187,8.61
12199,10.06
12210,11.04
12221,11.57
12233,11.6
12245,11.11
12257,10.16
12269,8.95
12281,7.72
12293,6.76
12305,6.24
12317,6.18
12329,6.47
12341,6.93
12353,7.35
12365,7.63
12377,7.71
12389,7.64
12400,7.45
12411,7.22
12423,6.97
12435,6.73
12447,6.49
12459,6.18
12471,5.72
12483,5.03
12495,4.1
12507,2.97
12519,1.74
12531,0.5
12543,-0.69
12555,-1.79
12567,-2.81
12579,-3.71
12590,-4.45
12601,-5.0
12613,-5.41
12625,-5.77
12637,-6.3
12649,-7.14
12661,-8.33
12673,-9.78
12685,-11.27
12697,-12.6
12709,-13.66
12721,-14.48
12733,-15.16
12745,-15.85
12757,-16.51
12769,-16.98
12780,-16.96
12791,-16.14
12803,-14.28
12815,-11.38
12827,-7.65
12839,-3.51
12851,0.61
12863,4.3
12875,7.36
12887,9.67
12899,11.22
12911,12.01
12923,12.05
12935,11.4
12947,10.25
12959,8.87
12970,7.62
12981,6.74
12993,6.34
13005,6.36
13017,6.66
13029,7.08
13041,7.52
13053,7.94
13065,8.33
13077,8.66
13089,8.91
13101,9.0
13113,8.89
13125,8.51
13137,7.81
13149,6.81
13160,5.58
13171,4.29
13183,3.09
13195,2.09
13207,1.27
13219,0.54
13231,-0.2
13243,-0.96
13255,-1.68
13267,-2.31
13279,-2.83
13291,-3.3
13303,-3.86
13315,-4.6
13327,-5.53
13339,-6.61
13350,-7.7
13361,-8.73
13373,-9.64
13385,-10.42
13397,-11.11
13409,-11.77
13421,-12.5
13433,-13.41
13445,-14.58
13457,-15.99
13469,-17.47
13481,-18.68
13493,-19.26
13505,-18.89
13517,-17.39
13529,-14.79
13540,-11.27
13551,-7.14
13563,-2.74
13575,1.62
13587,5.61
13599,8.98
13611,11.49
13623,13.03
13635,13.6
13647,13.34
13659,12.51
13671,11.39
13683,10.18
13695,9.06
13707,8.1
13719,7.37
13730,6.9
13741,6.73
13753,6.82
13765,7.09
13777,7.46
13789,7.86
13801,8.23
13813,8.54
13825,8.71
13837,8.64
13849,8.29
13861,7.63
13873,6.75
13885,5.81
13897,4.93
13909,4.22
13920,3.71
13931,3.4
13943,3.2
13955,3.06
13967,2.83
13979,2.41
13991,1.75
14003,0.84
14015,-0.19
14027,-1.21
14039,-2.13
14051,-2.94
14063,-3.71
14075,-4.58
14087,-5.58
14099,-6.7
14110,-7.86
14121,-9.0
14133,-10.08
14145,-11.13
14157,-12.2
14169,-13.34
14181,-14.59
14193,-15.9
14205,-17.16
14217,-18.15
14229,-18.57
14241,-18.11
14253,-16.53
14265,-13.8
14277,-10.06
14289,-5.68
14300,-1.07
14311,3.3
14323,7.1
14335,10.1
14347,12.21
14359,13.43
14371,13.81
14383,13.48
14395,12.58
14407,11.3
14419,9.84
14431,8.4
14443,7.13
14455,6.12
14467,5.4
14479,4.98
14490,4.91
14501,5.22
14513,5.99
14525,7.16
14537,8.56
14549,9.91
14561,10.88
14573,11.25
14585,10.93
14597,10.06
14609,8.83
14621,7.52
14633,6.3
14645,5.24
14657,4.36
14669,3.6
14680,2.86
14691,2.03
14703,1.04
14715,-0.13
14727,-1.39
14739,-2.59
14751,-3.53
14763,-4.12
14775,-4.41
14787,-4.62
14799,-4.98
14811,-5.66
14823,-6.64
14835,-7.76
14847,-8.8
14859,-9.61
14870,-10.17
14881,-10.59
14893,-11.04
14905,-11.67
14917,-12.57
14929,-13.73
14941,-15.04
14953,-16.2
14965,-16.85
14977,-16.54
14989,-14.97
15001,-12.07
15013,-8.11
15025,-3.59
15037,0.93
15049,4.97
15060,8.28
15071,10.79
15083,12.51
15095,13.52
15107,13.85
15119,13.53
15131,12.62
15143,11.25
15155,9.6
15167,7.91
15179,6.41
15191,5.28
15203,4.66
15215,4.57
15227,4.97
15239,5.73
15250,6.67
15261,7.59
15273,8.33
15285,8.74
15297,8.78
15309,8.46
15321,7.85
15333,7.08
15345,6.28
15357,5.49
15369,4.68
15381,3.82
15393,2.84
15405,1.76
15417,0.67
15429,-0.33
15440,-1.18
15451,-1.89
15463,-2.55
15475,-3.26
15487,-4.09
15499,-5.03
15511,-6.01
15523,-6.9
15535,-7.65
15547,-8.27
15559,-8.78
15571,-9.25
15583,-9.74
15595,-10.29
15607,-10.98
15619,-11.9
15630,-13.1
15641,-14.5
15653,-15.89
15665,-16.89
15677,-17.08
15689,-16.13
15701,-13.91
15713,-10.52
15725,-6.29
15737,-1.65
15749,2.96
15761,7.13
15773,10.58
15785,13.13
15797,14.67
15809,15.25
15820,14.99
15831,14.04
15843,12.63
15855,10.96
15867,9.25
15879,7.74
15891,6.62
15903,5.99
15915,5.87
15927,6.13
15939,6.58
15951,7.05
15963,7.4
15975,7.59
15987,7.63
15999,7.56
16010,7.42
16021,7.22
16033,6.93
16045,6.51
16057,5.95
16069,5.26
16081,4.45
16093,3.58
16105,2.69
16117,1.81
16129,0.96
16141,0.14
16153,-0.64
16165,-1.41
16177,-2.18
16189,-3.0
16200,-3.88
16211,-4.85
16223,-5.93
16235,-7.12
16247,-8.37
16259,-9.61
16271,-10.76
16283,-11.71
16295,-12.42
16307,-12.95
16319,-13.5
16331,-14.28
16343,-15.47
16355,-17.07
16367,-18.86
16379,-20.4
16390,-21.21
16401,-20.89
16413,-19.26
16425,-16.43
16437,-12.66
16449,-8.33
16461,-3.81
16473,0.55
16485,4.46
16497,7.69
16509,10.11
16521,11.68
16533,12.45
16545,12.58
16557,12.2
16569,11.46
16580,10.49
16591,9.38
16603,8.27
16615,7.33
16627,6.74
16639,6.63
16651,7.01
16663,7.76
16675,8.64
16687,9.41
16699,9.88
16711,10.01
16723,9.89
16735,9.65
16747,9.41
16759,9.19
16770,8.88
16781,8.37
16793,7.57
16805,6.51
16817,5.33
16829,4.22
16841,3.31
16853,2.57
16865,1.91
16877,1.19
16889,0.32
16901,-0.72
16913,-1.84
16925,-2.94
16937,-3.94
16949,-4.84
16960,-5.69
16971,-6.52
16983,-7.33
16995,-8.09
17007,-8.75
17019,-9.31
17031,-9.85
17043,-10.45
17055,-11.19
17067,-12.1
17079,-13.21
17091,-14.52
17103,-16.05
17115,-17.71
17127,-19.33
17139,-20.57
17150,-21.04
17161,-20.43
17173,-18.55
17185,-15.49
17197,-11.55
17209,-7.15
17221,-2.72
17233,1.39
17245,4.89
17257,7.62
17269,9.48
17281,10.49
17293,10.76
17305,10.45
17317,9.76
17329,8.9
17340,8.04
17351,7.32
17363,6.83
17375,6.61
17387,6.7
17399,7.07
17411,7.7
17423,8.48
17435,9.36
17447,10.2
17459,10.94
17471,11.48
17483,11.74
17495,11.7
17507,11.33
17519,10.64
17530,9.65
17541,8.41
17553,6.98
17565,5.49
17577,4.07
17589,2.88
17601,1.99
17613,1.39
17625,0.99
17637,0.64
17649,0.26
17661,-0.17
17673,-0.6
17685,-0.95
17697,-1.19
17709,-1.39
17720,-1.68
17731,-2.18
17743,-2.99
17755,-4.05
17767,-5.24
17779,-6.38
17791,-7.31
17803,-7.97
17815,-8.42
17827,-8.83
17839,-9.38
17851,-10.28
17863,-11.62
17875,-13.34
17887,-15.24
17899,-17.0
17910,-18.2
17921,-18.48
17933,-17.54
17945,-15.32
17957,-11.99
17969,-7.9
17981,-3.48
17993,0.84
18005,4.7
18017,7.91
18029,10.35
18041,11.98
18053,12.82
18065,12.94
18077,12.5
18089,11.7
18100,10.76
18111,9.83
18123,9.03
18135,8.42
18147,8.06
18159,8.0
18171,8.25
18183,8.77
18195,9.43
18207,10.08
18219,10.57
18231,10.82
18243,10.84
18255,10.68
18267,10.42
18279,10.05
18290,9.54
18301,8.84
18313,7.93
18325,6.83
18337,5.65
18349,4.47
18361,3.39
18373,2.44
18385,1.61
18397,0.86
18409,0.12
18421,-0.63
18433,-1.4
18445,-2.2
18457,-3.07
18469,-4.04
18480,-5.15
18491,-6.38
18503,-7.64
18515,-8.81
18527,-9.79
18539,-10.56
18551,-11.23
18563,-11.95
18575,-12.92
18587,-14.23
18599,-15.88
18611,-17.7
18623,-19.39
18635,-20.62
18647,-21.01
18659,-20.29
18670,-18.33
18681,-15.19
18693,-11.13
18705,-6.54
18717,-1.83
18729,2.61
18741,6.53
18753,9.77
18765,12.24
18777,13.89
18789,14.7
18801,14.69
18813,13.97
18825,12.74
18837,11.3
18849,9.9
18860,8.73
18871,7.88
18883,7.37
18895,7.18
18907,7.3
18919,7.7
18931,8.33
18943,9.07
18955,9.74
18967,10.16
18979,10.25
18991,9.96
19003,9.37
19015,8.54
19027,7.53
19039,6.41
19050,5.28
19061,4.26
19073,3.48
19085,2.95
19097,2.57
19109,2.12
19121,1.41
19133,0.4
19145,-0.82
19157,-2.06
19169,-3.16
19181,-4.1
19193,-4.96
19205,-5.86
19217,-6.81
19229,-7.75
19240,-8.55
19251,-9.16
19263,-9.65
19275,-10.17
19287,-10.86
19299,-11.81
19311,-13.0
19323,-14.37
19335,-15.88
19347,-17.51
19359,-19.15
19371,-20.59
19383,-21.46
19395,-21.35
19407,-19.94
19419,-17.13
19430,-13.11
19441,-8.31
19453,-3.24
19465,1.59
19477,5.85
19489,9.28
19501,11.77
19513,13.23
19525,13.66
19537,13.15
19549,11.91
19561,10.28
19573,8.63
19585,7.27
19597,6.37
19609,5.96
19620,5.95
19631,6.26
19643,6.79
19655,7.5
19667,8.33
19679,9.17
19691,9.9
19703,10.4
19715,10.57
19727,10.38
19739,9.84
19751,9.03
19763,8.03
19775,6.94
19787,5.84
19799,4.8
19810,3.85
19821,2.95
19833,2.09
19845,1.24
19857,0.38
19869,-0.46
19881,-1.23
19893,-1.92
19905,-2.53
19917,-3.1
19929,-3.65
19941,-4.24
19953,-4.87
19965,-5.57
19977,-6.35
19989,-7.19
20000,-8.11
20011,-9.05
20023,-9.96
20035,-10.81
20047,-11.64
20059,-12.53
20071,-13.63
20083,-14.98
20095,-16.52
20107,-17.99
20119,-19.01
20131,-19.18
20143,-18.18
20155,-15.88
20167,-12.36
20179,-7.96
20190,-3.14
20201,1.55
20213,5.68
20225,8.95
20237,11.27
20249,12.69
20261,13.33
20273,13.35
20285,12.9
20297,12.17
20309,11.29
20321,10.42
20333,9.65
20345,8.99
20357,8.41
20369,7.92
20380,7.54
20391,7.33
20403,7.37
20415,7.64
20427,8.09
20439,8.59
20451,9.0
20463,9.22
20475,9.17
20487,8.81
20499,8.14
20511,7.17
20523,5.98
20535,4.72
20547,3.56
20559,2.61
20570,1.87
20581,1.2
20593,0.44
20605,-0.56
20617,-1.77
20629,-3.02
20641,-4.09
20653,-4.83
20665,-5.27
20677,-5.58
20689,-5.95
20701,-6.48
20713,-7.11
20725,-7.68
20737,-8.11
20749,-8.45
20760,-8.91
20771,-9.75
20783,-11.1
20795,-12.87
20807,-14.73
20819,-16.22
20831,-16.9
20843,-16.49
20855,-14.93
20867,-12.35
20879,-9.0
20891,-5.19
20903,-1.21
20915,2.62
20927,6.04
20939,8.78
20950,10.69
20961,11.7
20973,11.93
20985,11.58
20997,10.93
