seconds,BVP
9,-28.57
20,-26.33
31,-22.0
43,-16.16
55,-9.69
67,-3.45
79,1.86
91,5.88
103,8.55
115,10.02
127,10.5
139,10.22
151,9.37
163,8.12
175,6.59
187,4.96
199,3.37
210,1.98
221,0.86
233,-0.01
245,-0.75
257,-1.56
269,-2.62
281,-4.06
293,-5.95
305,-8.29
317,-11.08
329,-14.27
341,-17.77
353,-21.29
365,-24.41
377,-26.58
389,-27.26
400,-26.12
411,-23.09
423,-18.44
435,-12.71
447,-6.55
459,-0.6
471,4.61
483,8.73
495,11.63
507,13.33
519,13.99
531,13.82
543,13.05
555,11.84
567,10.31
579,8.56
590,6.66
601,4.69
613,2.75
625,0.89
637,-0.82
649,-2.38
661,-3.8
673,-5.1
685,-6.29
697,-7.41
709,-8.51
721,-9.6
733,-10.61
745,-11.35
757,-11.47
769,-10.57
780,-8.29
791,-4.45
803,0.77
815,6.88
827,13.18
839,18.93
851,23.58
863,26.79
875,28.49
887,28.78
899,27.88
911,26.02
923,23.43
935,20.39
947,17.14
959,13.94
970,10.99
981,8.41
993,6.17
1005,4.15
1017,2.09
1029,-0.26
1041,-3.06
1053,-6.39
1065,-10.13
1077,-14.09
1089,-18.03
1101,-21.76
1113,-25.12
1125,-27.95
1137,-30.02
1149,-31.0
1160,-30.56
1171,-28.45
1183,-24.69
1195,-19.57
1207,-13.66
1219,-7.57
1231,-1.84
1243,3.2
1255,7.38
1267,10.62
1279,12.94
1291,14.32
1303,14.82
1315,14.57
1327,13.85
1339,12.98
1350,12.25
1361,11.82
1373,11.66
1385,11.59
1397,11.37
1409,10.83
1421,9.94
1433,8.79
1445,7.46
1457,5.99
1469,4.28
1481,2.17
1493,-0.41
1505,-3.34
1517,-6.25
1529,-8.62
1540,-9.91
1551,-9.72
1563,-7.96
1575,-4.84
1587,-0.85
1599,3.39
1611,7.28
1623,10.38
1635,12.42
1647,13.36
1659,13.27
1671,12.33
1683,10.74
1695,8.72
1707,6.46
1719,4.19
1730,2.14
1741,0.54
1753,-0.44
1765,-0.75
1777,-0.52
1789,-0.03
1801,0.34
1813,0.19
1825,-0.75
1837,-2.62
1849,-5.43
1861,-9.12
1873,-13.66
1885,-18.92
1897,-24.67
1909,-30.43
1920,-35.55
1931,-39.28
1943,-41.0
1955,-40.44
1967,-37.72
1979,-33.39
1991,-28.19
2003,-22.97
2015,-18.41
2027,-14.96
2039,-12.81
2051,-11.92
2063,-12.08
2075,-12.98
2087,-14.26
2099,-15.59
2110,-16.69
2121,-17.38
2133,-17.6
2145,-17.41
2157,-16.99
2169,-16.57
2181,-16.35
2193,-16.46
2205,-16.9
2217,-17.55
2229,-18.28
2241,-19.07
2253,-20.01
2265,-21.3
2277,-23.11
2289,-25.4
2300,-27.82
2311,-29.72
2323,-30.41
2335,-29.34
2347,-26.34
2359,-21.65
2371,-15.79
2383,-9.41
2395,-3.15
2407,2.47
2419,7.07
2431,10.41
2443,12.37
2455,13.04
2467,12.63
2479,11.5
2490,10.02
2501,8.53
2513,7.26
2525,6.31
2537,5.68
2549,5.3
2561,5.09
2573,4.97
2585,4.87
2597,4.75
2609,4.58
2621,4.27
2633,3.69
2645,2.66
2657,1.02
2669,-1.31
2680,-4.32
2691,-7.86
2703,-11.59
2715,-15.01
2727,-17.5
2739,-18.44
2751,-17.45
2763,-14.52
2775,-10.06
2787,-4.76
2799,0.6
2811,5.43
2823,9.4
2835,12.43
2847,14.58
2859,15.9
2870,16.43
2881,16.22
2893,15.41
2905,14.25
2917,13.07
2929,12.16
2941,11.68
2953,11.71
2965,12.15
2977,12.84
2989,13.53
3001,13.96
3013,13.93
3025,13.36
3037,12.28
3049,10.84
3060,9.22
3071,7.53
3083,5.76
3095,3.78
3107,1.42
3119,-1.41
3131,-4.6
3143,-7.85
3155,-10.68
3167,-12.6
3179,-13.19
3191,-12.19
3203,-9.54
3215,-5.43
3227,-0.22
3239,5.55
3250,11.28
3261,16.44
3273,20.68
3285,23.88
3297,26.09
3309,27.47
3321,28.14
3333,28.19
3345,27.73
3357,26.99
3369,26.31
3381,26.06
3393,26.45
3405,27.46
3417,28.75
3429,29.89
3440,30.47
3451,30.33
3463,29.56
3475,28.38
3487,27.05
3499,25.7
3511,24.27
3523,22.54
3535,20.28
3547,17.25
3559,13.36
3571,8.68
3583,3.41
3595,-2.13
3607,-7.45
3619,-11.93
3630,-14.93
3641,-15.97
3653,-14.87
3665,-11.87
3677,-7.66
3689,-3.11
3701,0.9
3713,3.82
3725,5.43
3737,5.83
3749,5.27
3761,3.99
3773,2.17
3785,-0.03
3797,-2.39
3809,-4.6
3820,-6.34
3831,-7.42
3843,-7.82
3855,-7.77
3867,-7.6
3879,-7.66
3891,-8.17
3903,-9.14
3915,-10.44
3927,-11.86
3939,-13.22
3951,-14.43
3963,-15.56
3975,-16.77
3987,-18.26
3999,-20.19
4010,-22.55
4021,-25.14
4033,-27.53
4045,-29.17
4057,-29.53
4069,-28.29
4081,-25.43
4093,-21.24
4105,-16.2
4117,-10.86
4129,-5.69
4141,-1.06
4153,2.84
4165,5.87
4177,7.94
4189,9.06
4200,9.28
4211,8.78
4223,7.84
4235,6.75
4247,5.79
4259,5.11
4271,4.7
4283,4.42
4295,4.03
4307,3.36
4319,2.34
4331,1.1
4343,-0.15
4355,-1.23
4367,-2.11
4379,-2.97
4390,-4.11
4401,-5.83
4413,-8.27
4425,-11.36
4437,-14.8
4449,-18.1
4461,-20.72
4473,-22.1
4485,-21.8
4497,-19.61
4509,-15.62
4521,-10.27
4533,-4.18
4545,1.96
4557,7.58
4569,12.29
4580,15.93
4591,18.48
4603,20.03
4615,20.71
4627,20.67
4639,20.14
4651,19.37
4663,18.59
4675,18.01
4687,17.72
4699,17.67
4711,17.75
4723,17.79
4735,17.69
4747,17.45
4759,17.11
4770,16.67
4781,16.08
4793,15.12
4805,13.52
4817,11.03
4829,7.59
4841,3.37
4853,-1.29
4865,-5.89
4877,-9.93
4889,-12.95
4901,-14.59
4913,-14.67
4925,-13.24
4937,-10.58
4949,-7.17
4960,-3.58
4971,-0.27
4983,2.46
4995,4.49
5007,5.89
5019,6.74
5031,7.11
5043,7.06
5055,6.66
5067,6.08
5079,5.51
5091,5.19
5103,5.2
5115,5.45
5127,5.76
5139,5.89
5150,5.71
5161,5.24
5173,4.66
5185,4.15
5197,3.8
5209,3.56
5221,3.17
5233,2.33
5245,0.79
5257,-1.53
5269,-4.45
5281,-7.63
5293,-10.59
5305,-12.8
5317,-13.8
5329,-13.29
5340,-11.2
5351,-7.69
5363,-3.16
5375,1.9
5387,6.96
5399,11.58
5411,15.42
5423,18.28
5435,20.06
5447,20.83
5459,20.74
5471,20.06
5483,19.09
5495,18.07
5507,17.11
5519,16.21
5530,15.26
5541,14.15
5553,12.77
5565,11.08
5577,9.06
5589,6.75
5601,4.13
5613,1.25
5625,-1.87
5637,-5.25
5649,-8.93
5661,-12.96
5673,-17.33
5685,-21.9
5697,-26.32
5709,-30.05
5720,-32.49
5731,-33.12
5743,-31.68
5755,-28.2
5767,-23.1
5779,-16.98
5791,-10.58
5803,-4.56
5815,0.53
5827,4.37
5839,6.84
5851,8.02
5863,8.13
5875,7.5
5887,6.49
5899,5.41
5910,4.51
5921,3.9
5933,3.6
5945,3.59
5957,3.72
5969,3.87
5981,3.85
5993,3.48
6005,2.68
6017,1.42
6029,-0.27
6041,-2.34
6053,-4.84
6065,-7.86
6077,-11.49
6089,-15.64
6100,-19.89
6111,-23.56
6123,-25.85
6135,-26.16
6147,-24.24
6159,-20.32
6171,-14.91
6183,-8.71
6195,-2.36
6207,3.64
6219,8.89
6231,13.13
6243,16.22
6255,18.07
6267,18.74
6279,18.34
6290,17.07
6301,15.18
6313,12.99
6325,10.86
6337,9.09
6349,7.83
6361,7.07
6373,6.6
6385,6.19
6397,5.7
6409,5.14
6421,4.57
6433,3.95
6445,3.12
6457,1.79
6469,-0.27
6480,-3.11
6491,-6.52
6503,-10.1
6515,-13.39
6527,-15.88
6539,-17.17
6551,-16.89
6563,-14.85
6575,-11.11
6587,-6.05
6599,-0.37
6611,5.12
6623,9.8
6635,13.35
6647,15.8
6659,17.33
6670,18.1
6681,18.13
6693,17.34
6705,15.8
6717,13.8
6729,11.81
6741,10.33
6753,9.63
6765,9.61
6777,9.88
6789,9.93
6801,9.44
6813,8.36
6825,6.88
6837,5.28
6849,3.76
6860,2.31
6871,0.78
6883,-1.08
6895,-3.46
6907,-6.38
6919,-9.7
6931,-13.08
6943,-16.0
6955,-17.94
6967,-18.45
6979,-17.3
6991,-14.57
7003,-10.63
7015,-6.06
7027,-1.44
7039,2.69
7050,6.02
7061,8.38
7073,9.75
7085,10.19
7097,9.81
7109,8.77
7121,7.32
7133,5.74
7145,4.31
7157,3.18
7169,2.35
7181,1.67
7193,0.93
7205,-0.02
7217,-1.22
7229,-2.56
7240,-3.87
7251,-5.02
7263,-5.95
7275,-6.75
7287,-7.6
7299,-8.73
7311,-10.36
7323,-12.66
7335,-15.61
7347,-18.97
7359,-22.21
7371,-24.65
7383,-25.6
7395,-24.61
7407,-21.66
7419,-17.2
7430,-11.94
7441,-6.65
7453,-1.88
7465,2.12
7477,5.33
7489,7.85
7501,9.7
7513,10.83
7525,11.18
7537,10.79
7549,9.85
7561,8.61
7573,7.33
7585,6.16
7597,5.1
7609,4.1
7620,3.11
7631,2.1
7643,1.07
7655,0.01
7667,-1.14
7679,-2.44
7691,-3.99
7703,-5.82
7715,-7.91
7727,-10.28
7739,-12.88
7751,-15.66
7763,-18.5
7775,-21.13
7787,-23.16
7799,-24.12
7810,-23.66
7821,-21.61
7833,-18.15
7845,-13.65
7857,-8.66
7869,-3.62
7881,1.19
7893,5.6
7905,9.52
7917,12.75
7929,15.03
7941,16.09
7953,15.85
7965,14.56
7977,12.67
7989,10.78
8000,9.33
8011,8.51
8023,8.19
8035,8.03
8047,7.64
8059,6.78
8071,5.4
8083,3.63
8095,1.68
8107,-0.28
8119,-2.23
8131,-4.26
8143,-6.51
8155,-9.13
8167,-12.15
8179,-15.44
8190,-18.75
8201,-21.64
8213,-23.61
8225,-24.15
8237,-22.92
8249,-19.89
8261,-15.36
8273,-9.91
8285,-4.16
8297,1.33
8309,6.18
8321,10.16
8333,13.08
8345,14.79
8357,15.21
8369,14.44
8380,12.83
8391,10.93
8403,9.25
8415,8.1
8427,7.52
8439,7.28
8451,7.07
8463,6.65
8475,5.9
8487,4.87
8499,3.63
8511,2.25
8523,0.76
8535,-0.88
8547,-2.73
8559,-4.88
8570,-7.37
8581,-10.25
8593,-13.44
8605,-16.76
8617,-19.84
8629,-22.15
8641,-23.11
8653,-22.25
8665,-19.36
8677,-14.59
8689,-8.44
8701,-1.63
8713,5.11
8725,11.19
8737,16.2
8749,19.94
8760,22.33
8771,23.36
8783,23.1
8795,21.78
8807,19.78
8819,17.58
8831,15.61
8843,14.12
8855,13.04
8867,12.06
8879,10.77
8891,8.91
8903,6.44
8915,3.58
8927,0.61
8939,-2.27
8950,-5.03
8961,-7.87
8973,-11.02
8985,-14.7
8997,-18.96
9009,-23.72
9021,-28.77
9033,-33.78
9045,-38.33
9057,-41.85
9069,-43.71
9081,-43.36
9093,-40.51
9105,-35.27
9117,-28.18
9129,-20.08
9140,-11.82
9151,-4.11
9163,2.64
9175,8.2
9187,12.53
9199,15.59
9211,17.41
9223,18.06
9235,17.78
9247,16.92
9259,15.86
9271,14.9
9283,14.13
9295,13.48
9307,12.72
9319,11.65
9330,10.22
9341,8.53
9353,6.8
9365,5.23
9377,3.89
9389,2.65
9401,1.26
9413,-0.53
9425,-2.88
9437,-5.8
9449,-9.13
9461,-12.67
9473,-16.13
9485,-19.15
9497,-21.3
9509,-22.07
9520,-21.04
9531,-18.06
9543,-13.28
9555,-7.24
9567,-0.65
9579,5.77
9591,11.44
9603,16.04
9615,19.42
9627,21.54
9639,22.41
9651,22.08
9663,20.75
9675,18.75
9687,16.57
9699,14.68
9710,13.38
9721,12.7
9733,12.38
9745,12.02
9757,11.21
9769,9.76
9781,7.77
9793,5.55
9805,3.48
9817,1.78
9829,0.42
9841,-0.86
9853,-2.45
9865,-4.69
9877,-7.71
9889,-11.4
9900,-15.43
9911,-19.31
9923,-22.5
9935,-24.44
9947,-24.69
9959,-22.98
9971,-19.3
9983,-13.97
9995,-7.57
10007,-0.79
10019,5.66
10031,11.26
10043,15.69
10055,18.83
10067,20.67
10079,21.28
10090,20.81
10101,19.45
10113,17.51
10125,15.31
10137,13.16
10149,11.26
10161,9.7
10173,8.43
10185,7.32
10197,6.28
10209,5.25
10221,4.25
10233,3.29
10245,2.39
10257,1.48
10269,0.43
10280,-0.93
10291,-2.77
10303,-5.18
10315,-8.14
10327,-11.48
10339,-14.87
10351,-17.85
10363,-19.85
10375,-20.37
10387,-19.07
10399,-15.9
10411,-11.11
10423,-5.23
10435,1.05
10447,7.09
10459,12.35
10470,16.48
10481,19.31
10493,20.8
10505,21.0
10517,20.08
10529,18.31
10541,16.06
10553,13.72
10565,11.57
10577,9.74
10589,8.21
10601,6.82
10613,5.42
10625,3.96
10637,2.5
10649,1.16
10660,0.08
10671,-0.71
10683,-1.33
10695,-1.97
10707,-2.91
10719,-4.37
10731,-6.53
10743,-9.3
10755,-12.44
10767,-15.42
10779,-17.57
10791,-18.25
10803,-17.01
10815,-13.76
10827,-8.81
10839,-2.77
10850,3.64
10861,9.72
10873,14.95
10885,18.99
10897,21.65
10909,22.87
10921,22.75
10933,21.57
10945,19.76
10957,17.83
10969,16.19
10981,15.09
10993,14.49
11005,14.17
11017,13.88
11029,13.41
11040,12.67
11051,11.72
11063,10.6
11075,9.39
11087,8.12
11099,6.76
11111,5.29
11123,3.68
11135,1.83
11147,-0.31
11159,-2.75
11171,-5.33
11183,-7.66
11195,-9.2
11207,-9.35
11219,-7.76
11230,-4.43
11241,0.18
11253,5.36
11265,10.33
11277,14.53
11289,17.69
11301,19.78
11313,20.9
11325,21.17
11337,20.69
11349,19.61
11361,18.2
11373,16.78
11385,15.69
11397,15.1
11409,15.02
11420,15.27
11431,15.63
11443,15.89
11455,15.91
11467,15.62
11479,14.99
11491,14.01
11503,12.7
11515,11.04
11527,9.05
11539,6.72
11551,4.01
11563,1.02
11575,-2.05
11587,-4.8
11599,-6.78
11610,-7.57
11621,-6.95
11633,-4.96
11645,-1.89
11657,1.83
11669,5.71
11681,9.31
11693,12.25
11705,14.25
11717,15.17
11729,14.97
11741,13.81
11753,11.92
11765,9.59
11777,7.08
11789,4.6
11800,2.31
11811,0.32
11823,-1.32
11835,-2.61
11847,-3.65
11859,-4.6
11871,-5.62
11883,-6.84
11895,-8.37
11907,-10.27
11919,-12.53
11931,-15.11
11943,-17.82
11955,-20.34
11967,-22.19
11979,-22.84
11990,-21.91
12001,-19.26
12013,-15.18
12025,-10.24
12037,-5.17
12049,-0.67
12061,2.84
12073,5.18
12085,6.39
12097,6.63
12109,6.05
12121,4.8
12133,3.04
12145,0.99
12157,-1.11
12169,-3.02
12180,-4.61
12191,-5.83
12203,-6.76
12215,-7.5
12227,-8.18
12239,-8.86
12251,-9.61
12263,-10.5
12275,-11.62
12287,-13.09
12299,-14.95
12311,-17.1
12323,-19.24
12335,-20.87
12347,-21.43
12359,-20.48
12370,-17.86
12381,-13.77
12393,-8.76
12405,-3.48
12417,1.48
12429,5.63
12441,8.73
12453,10.68
12465,11.48
12477,11.23
12489,10.06
12501,8.2
12513,5.92
12525,3.52
12537,1.22
12549,-0.77
12560,-2.38
12571,-3.59
12583,-4.49
12595,-5.21
12607,-5.95
12619,-6.9
12631,-8.22
12643,-10.01
12655,-12.31
12667,-15.1
12679,-18.19
12691,-21.24
12703,-23.67
12715,-24.85
12727,-24.22
12739,-21.55
12750,-17.03
12761,-11.29
12773,-5.21
12785,0.33
12797,4.75
12809,7.76
12821,9.46
12833,10.05
12845,9.77
12857,8.78
12869,7.21
12881,5.21
12893,2.98
12905,0.79
12917,-1.11
12929,-2.61
12940,-3.74
12951,-4.66
12963,-5.58
12975,-6.68
12987,-8.07
12999,-9.8
13011,-11.89
13023,-14.33
13035,-17.06
13047,-19.84
13059,-22.23
13071,-23.64
13083,-23.51
13095,-21.49
13107,-17.64
13119,-12.41
13130,-6.51
13141,-0.69
13153,4.47
13165,8.62
13177,11.59
13189,13.32
13201,13.83
13213,13.21
13225,11.69
13237,9.67
13249,7.61
13261,5.85
13273,4.55
13285,3.56
13297,2.61
13309,1.43
13320,-0.05
13331,-1.73
13343,-3.44
13355,-5.08
13367,-6.77
13379,-8.77
13391,-11.33
13403,-14.53
13415,-18.13
13427,-21.57
13439,-24.13
13451,-25.13
13463,-24.16
13475,-21.18
13487,-16.52
13499,-10.74
13510,-4.53
13521,1.46
13533,6.72
13545,10.86
13557,13.71
13569,15.25
13581,15.67
13593,15.28
13605,14.41
13617,13.36
13629,12.3
13641,11.25
13653,10.22
13665,9.17
13677,8.11
13689,7.08
13700,6.12
13711,5.23
13723,4.33
13735,3.29
13747,1.95
13759,0.12
13771,-2.31
13783,-5.37
13795,-8.95
13807,-12.73
13819,-16.19
13831,-18.68
13843,-19.54
13855,-18.29
13867,-14.84
13879,-9.55
13890,-3.13
13901,3.53
13913,9.68
13925,14.82
13937,18.81
13949,21.72
13961,23.66
13973,24.7
13985,24.83
13997,24.12
14009,22.76
14021,21.11
14033,19.57
14045,18.43
14057,17.75
14069,17.35
14080,16.93
14091,16.17
14103,14.94
14115,13.24
14127,11.25
14139,9.12
14151,6.98
14163,4.84
14175,2.66
14187,0.39
14199,-2.05
14211,-4.72
14223,-7.69
14235,-10.93
14247,-14.28
14259,-17.34
14270,-19.56
14281,-20.31
14293,-19.16
14305,-16.01
14317,-11.19
14329,-5.34
14341,0.73
14353,6.31
14365,10.92
14377,14.39
14389,16.83
14401,18.5
14413,19.67
14425,20.51
14437,21.05
14449,21.27
14460,21.12
14471,20.66
14483,20.01
14495,19.31
14507,18.66
14519,18.01
14531,17.23
14543,16.12
14555,14.55
14567,12.48
14579,10.01
14591,7.32
14603,4.58
14615,1.91
14627,-0.63
14639,-3.12
14650,-5.65
14661,-8.37
14673,-11.37
14685,-14.75
14697,-18.51
14709,-22.54
14721,-26.57
14733,-30.13
14745,-32.54
14757,-33.17
14769,-31.55
14781,-27.68
14793,-22.0
14805,-15.3
14817,-8.44
14829,-2.12
14840,3.3
14851,7.71
14863,11.17
14875,13.75
14887,15.44
14899,16.25
14911,16.25
14923,15.67
14935,14.87
14947,14.14
14959,13.65
14971,13.36
14983,13.03
14995,12.41
15007,11.33
15019,9.83
15030,8.1
15041,6.37
15053,4.81
15065,3.43
15077,2.1
15089,0.68
15101,-0.92
15113,-2.68
15125,-4.52
15137,-6.35
15149,-8.21
15161,-10.17
15173,-12.43
15185,-15.11
15197,-18.25
15209,-21.66
15220,-24.96
15231,-27.6
15243,-29.04
15255,-28.84
15267,-26.81
15279,-23.09
15291,-18.06
15303,-12.24
15315,-6.18
15327,-0.36
15339,4.86
15351,9.23
15363,12.59
15375,14.85
15387,16.04
15399,16.31
15410,15.93
15421,15.23
15433,14.57
15445,14.19
15457,14.17
15469,14.42
15481,14.72
15493,14.79
15505,14.43
15517,13.57
15529,12.28
15541,10.78
15553,9.28
15565,7.91
15577,6.65
15589,5.38
15600,3.9
15611,2.1
15623,0.0
15635,-2.19
15647,-4.23
15659,-5.94
15671,-7.34
15683,-8.6
15695,-10.02
15707,-11.8
15719,-14.03
15731,-16.66
15743,-19.52
15755,-22.36
15767,-24.87
15779,-26.59
15790,-27.06
15801,-25.89
15813,-22.96
15825,-18.53
15837,-13.17
15849,-7.61
15861,-2.45
15873,1.94
15885,5.46
15897,8.19
15909,10.21
15921,11.6
15933,12.41
15945,12.74
15957,12.75
15969,12.61
15980,12.47
15991,12.41
16003,12.45
16015,12.55
16027,12.62
16039,12.66
16051,12.67
16063,12.71
16075,12.85
16087,13.04
16099,13.16
16111,13.03
16123,12.47
16135,11.44
16147,10.03
16159,8.45
16170,6.87
16181,5.37
16193,3.9
16205,2.34
16217,0.63
16229,-1.25
16241,-3.21
16253,-5.18
16265,-7.13
16277,-9.05
16289,-10.98
16301,-12.97
16313,-15.13
16325,-17.6
16337,-20.55
16349,-24.11
16360,-28.23
16371,-32.67
16383,-36.95
16395,-40.45
16407,-42.55
16419,-42.79
16431,-41.03
16443,-37.44
16455,-32.46
16467,-26.68
16479,-20.68
16491,-14.91
16503,-9.69
16515,-5.14
16527,-1.36
16539,1.64
16550,3.92
16561,5.58
16573,6.82
16585,7.84
16597,8.85
16609,9.95
16621,11.17
16633,12.45
16645,13.67
16657,14.68
16669,15.33
16681,15.49
16693,15.12
16705,14.29
16717,13.14
16729,11.86
16740,10.57
16751,9.34
16763,8.11
16775,6.81
16787,5.37
16799,3.81
16811,2.2
16823,0.63
16835,-0.85
16847,-2.27
16859,-3.74
16871,-5.4
16883,-7.34
16895,-9.61
16907,-12.21
16919,-15.07
16930,-18.02
16941,-20.76
16953,-22.85
16965,-23.83
16977,-23.3
16989,-21.15
17001,-17.59
17013,-13.12
17025,-8.35
17037,-3.83
17049,0.1
17061,3.25
17073,5.58
17085,7.12
17097,7.87
17109,7.92
17120,7.39
17131,6.48
17143,5.43
17155,4.46
17167,3.75
17179,3.44
17191,3.54
17203,4.0
17215,4.67
17227,5.4
17239,6.05
17251,6.54
17263,6.84
17275,6.99
17287,6.94
17299,6.64
17310,6.01
17321,5.0
17333,3.67
17345,2.13
17357,0.48
17369,-1.25
17381,-3.07
17393,-4.99
17405,-6.91
17417,-8.58
17429,-9.66
17441,-9.77
17453,-8.66
17465,-6.27
17477,-2.72
17489,1.68
17500,6.53
17511,11.36
17523,15.73
17535,19.26
17547,21.74
17559,23.13
17571,23.53
17583,23.15
17595,22.22
17607,20.93
17619,19.46
17631,17.99
17643,16.67
17655,15.62
17667,14.78
17679,14.0
17690,13.04
17701,11.73
17713,10.06
17725,8.18
17737,6.26
17749,4.4
17761,2.52
17773,0.38
17785,-2.26
17797,-5.54
17809,-9.38
17821,-13.48
17833,-17.39
17845,-20.59
17857,-22.53
17869,-22.8
17880,-21.28
17891,-18.17
17903,-14.01
17915,-9.5
17927,-5.31
17939,-1.89
17951,0.58
17963,2.11
17975,2.77
17987,2.64
17999,1.79
18011,0.34
18023,-1.48
18035,-3.37
18047,-5.06
18059,-6.38
18070,-7.32
18081,-8.0
18093,-8.58
18105,-9.23
18117,-10.09
18129,-11.27
18141,-12.84
18153,-14.8
18165,-17.16
18177,-19.9
18189,-23.0
18201,-26.41
18213,-29.99
18225,-33.4
18237,-36.06
18249,-37.26
18260,-36.41
18271,-33.22
18283,-27.94
18295,-21.29
18307,-14.25
18319,-7.73
18331,-2.3
18343,1.85
18355,4.84
18367,6.88
18379,8.13
18391,8.7
18403,8.64
18415,8.05
18427,7.08
18439,5.9
18450,4.71
18461,3.66
18473,2.84
18485,2.23
18497,1.68
18509,0.99
18521,-0.08
18533,-1.69
18545,-3.9
18557,-6.69
18569,-9.98
18581,-13.64
18593,-17.43
18605,-20.98
18617,-23.71
18629,-24.99
18640,-24.31
18651,-21.45
18663,-16.63
18675,-10.46
18687,-3.78
18699,2.61
18711,8.1
18723,12.36
18735,15.34
18747,17.14
18759,17.93
18771,17.88
18783,17.13
18795,15.81
18807,14.11
18819,12.23
18830,10.36
18841,8.69
18853,7.31
18865,6.23
18877,5.36
18889,4.53
18901,3.56
18913,2.22
18925,0.36
18937,-2.11
18949,-5.19
18961,-8.71
18973,-12.32
18985,-15.56
18997,-17.85
19009,-18.67
19020,-17.62
19031,-14.61
19043,-9.86
19055,-3.91
19067,2.53
19079,8.71
19091,14.02
19103,18.08
19115,20.71
19127,21.98
19139,22.08
19151,21.3
19163,19.92
19175,18.19
19187,16.33
19199,14.49
19210,12.79
19221,11.28
19233,9.92
19245,8.65
19257,7.39
19269,6.08
19281,4.65
19293,3.04
19305,1.18
19317,-1.09
19329,-3.91
19341,-7.41
19353,-11.51
19365,-15.91
19377,-20.04
19389,-23.12
19400,-24.39
19411,-23.31
19423,-19.76
19435,-14.13
19447,-7.23
19459,-0.03
19471,6.66
19483,12.28
19495,16.59
19507,19.6
19519,21.33
19531,21.85
19543,21.26
19555,19.8
19567,17.85
19579,15.9
19590,14.32
19601,13.24
19613,12.53
19625,11.87
19637,10.97
19649,9.7
19661,8.18
19673,6.64
19685,5.27
19697,4.14
19709,3.1
19721,1.83
19733,-0.03
19745,-2.75
19757,-6.37
19769,-10.61
19780,-14.89
19791,-18.44
19803,-20.52
19815,-20.56
19827,-18.35
19839,-14.08
19851,-8.24
19863,-1.48
19875,5.49
19887,12.0
19899,17.52
19911,21.66
19923,24.21
19935,25.21
19947,24.85
19959,23.55
19970,21.78
19981,19.99
19993,18.49
20005,17.39
20017,16.61
20029,15.92
20041,15.1
20053,14.01
20065,12.67
20077,11.24
20089,9.95
20101,8.89
20113,7.99
20125,7.02
20137,5.66
20149,3.62
20160,0.78
20171,-2.83
20183,-7.02
20195,-11.44
20207,-15.61
20219,-18.93
20231,-20.77
20243,-20.63
20255,-18.28
20267,-13.9
20279,-8.01
20291,-1.32
20303,5.44
20315,11.72
20327,17.15
20339,21.5
20350,24.62
20361,26.4
20373,26.84
20385,26.12
20397,24.63
20409,22.85
20421,21.23
20433,20.09
20445,19.48
20457,19.22
20469,19.04
20481,18.61
20493,17.72
20505,16.29
20517,14.37
20529,12.17
20540,9.94
20551,7.91
20563,6.14
20575,4.53
20587,2.81
20599,0.67
20611,-2.12
20623,-5.51
20635,-9.17
20647,-12.53
20659,-14.96
20671,-15.89
20683,-15.01
20695,-12.26
20707,-7.91
20719,-2.45
20730,3.44
20741,9.11
20753,13.98
20765,17.74
20777,20.31
20789,21.8
20801,22.44
20813,22.41
20825,21.91
20837,21.1
20849,20.21
20861,19.44
20873,18.96
20885,18.8
20897,18.79
20909,18.67
20920,18.14
20931,17.05
20943,15.39
20955,13.32
20967,11.07
20979,8.83
20991,6.68
