seconds,BVP
0,-0.07
11,-0.6
22,-1.26
34,-1.99
46,-2.73
58,-3.46
70,-4.19
82,-4.91
94,-5.6
106,-6.25
118,-6.91
130,-7.67
142,-8.62
154,-9.76
166,-10.91
178,-11.79
190,-12.03
201,-11.36
212,-9.72
224,-7.31
236,-4.48
248,-1.65
260,0.88
272,2.93
284,4.52
296,5.69
308,6.5
320,6.92
332,6.92
344,6.52
356,5.88
368,5.21
380,4.76
391,4.69
402,5.02
414,5.67
426,6.48
438,7.31
450,8.04
462,8.57
474,8.81
486,8.72
498,8.3
510,7.64
522,6.87
534,6.15
546,5.62
558,5.29
570,5.12
581,5.0
592,4.84
604,4.6
616,4.28
628,3.92
640,3.56
652,3.15
664,2.67
676,2.03
688,1.26
700,0.37
712,-0.59
724,-1.55
736,-2.53
748,-3.51
760,-4.52
771,-5.51
782,-6.41
794,-7.15
806,-7.73
818,-8.24
830,-8.84
842,-9.72
854,-10.92
866,-12.29
878,-13.52
890,-14.18
902,-13.94
914,-12.69
926,-10.56
938,-7.91
950,-5.17
961,-2.71
972,-0.71
984,0.82
996,1.98
1008,2.9
1020,3.64
1032,4.17
1044,4.41
1056,4.33
1068,3.95
1080,3.43
1092,3.0
1104,2.89
1116,3.22
1128,3.98
1140,5.03
1151,6.16
1162,7.18
1174,7.94
1186,8.37
1198,8.5
1210,8.43
1222,8.3
1234,8.23
1246,8.28
1258,8.37
1270,8.32
1282,7.87
1294,6.8
1306,5.06
1318,2.8
1330,0.32
1341,-2.04
1352,-4.01
1364,-5.54
1376,-6.66
1388,-7.49
1400,-8.09
1412,-8.43
1424,-8.4
1436,-7.95
1448,-7.12
1460,-6.09
1472,-5.18
1484,-4.73
1496,-5.07
1508,-6.4
1520,-8.79
1531,-12.1
1542,-16.04
1554,-20.12
1566,-23.73
1578,-26.25
1590,-27.2
1602,-26.41
1614,-24.12
1626,-20.89
1638,-17.47
1650,-14.52
1662,-12.48
1674,-11.47
1686,-11.42
1698,-12.15
1710,-13.47
1721,-15.18
1732,-16.98
1744,-18.47
1756,-19.2
1768,-18.81
1780,-17.21
1792,-14.63
1804,-11.53
1816,-8.45
1828,-5.75
1840,-3.58
1852,-1.85
1864,-0.37
1876,1.05
1888,2.55
1900,4.18
1911,6.01
1922,8.09
1934,10.48
1946,13.18
1958,16.07
1970,18.94
1982,21.53
1994,23.58
2006,24.93
2018,25.47
2030,25.19
2042,24.15
2054,22.51
2066,20.49
2078,18.39
2090,16.53
2101,15.21
2112,14.56
2124,14.58
2136,15.1
2148,15.8
2160,16.41
2172,16.64
2184,16.31
2196,15.31
2208,13.61
2220,11.27
2232,8.44
2244,5.38
2256,2.44
2268,-0.01
2280,-1.66
2291,-2.33
2302,-2.02
2314,-0.89
2326,0.8
2338,2.67
2350,4.34
2362,5.43
2374,5.65
2386,4.85
2398,3.08
2410,0.6
2422,-2.18
2434,-4.82
2446,-6.9
2458,-8.18
2470,-8.66
2481,-8.57
2492,-8.32
2504,-8.35
2516,-8.92
2528,-9.97
2540,-11.14
2552,-11.84
2564,-11.53
2576,-9.99
2588,-7.37
2600,-4.21
2612,-1.18
2624,1.09
2636,2.2
2648,2.14
2660,1.18
2671,-0.24
2682,-1.59
2694,-2.48
2706,-2.71
2718,-2.32
2730,-1.53
2742,-0.62
2754,0.11
2766,0.45
2778,0.31
2790,-0.36
2802,-1.54
2814,-3.18
2826,-5.12
2838,-7.15
2850,-8.99
2861,-10.37
2872,-11.09
2884,-11.06
2896,-10.32
2908,-9.03
2920,-7.39
2932,-5.56
2944,-3.64
2956,-1.62
2968,0.54
2980,2.8
2992,5.06
3004,7.11
3016,8.7
3028,9.66
3040,9.92
3051,9.58
3062,8.87
3074,8.04
3086,7.31
3098,6.8
3110,6.43
3122,6.04
3134,5.36
3146,4.15
3158,2.27
3170,-0.24
3182,-3.19
3194,-6.24
3206,-9.03
3218,-11.27
3230,-12.84
3241,-13.76
3252,-14.16
3264,-14.17
3276,-13.86
3288,-13.28
3300,-12.46
3312,-11.52
3324,-10.75
3336,-10.53
3348,-11.28
3360,-13.31
3372,-16.69
3384,-21.16
3396,-26.07
3408,-30.52
3420,-33.52
3431,-34.28
3442,-32.41
3454,-28.03
3466,-21.76
3478,-14.47
3490,-7.03
3502,-0.18
3514,5.65
3526,10.2
3538,13.35
3550,15.06
3562,15.35
3574,14.27
3586,12.06
3598,9.09
3610,5.93
3621,3.25
3632,1.74
3644,1.9
3656,3.89
3668,7.47
3680,12.07
3692,17.02
3704,21.72
3716,25.8
3728,29.09
3740,31.56
3752,33.19
3764,33.98
3776,33.97
3788,33.28
3800,32.09
3811,30.55
3822,28.7
3834,26.54
3846,24.02
3858,21.18
3870,18.09
3882,14.84
3894,11.44
3906,7.78
3918,3.77
3930,-0.57
3942,-5.02
3954,-9.21
3966,-12.73
3978,-15.28
3990,-16.81
4001,-17.44
4012,-17.47
4024,-17.18
4036,-16.85
4048,-16.69
4060,-16.84
4072,-17.46
4084,-18.7
4096,-20.63
4108,-23.22
4120,-26.26
4132,-29.35
4144,-31.98
4156,-33.65
4168,-33.99
4180,-32.94
4191,-30.75
4202,-27.9
4214,-25.02
4226,-22.71
4238,-21.4
4250,-21.28
4262,-22.28
4274,-24.11
4286,-26.38
4298,-28.77
4310,-31.1
4322,-33.44
4334,-36.03
4346,-39.17
4358,-43.13
4370,-48.1
4381,-54.15
4392,-61.13
4404,-68.52
4416,-75.35
4428,-80.31
4440,-82.0
4452,-79.5
4464,-72.71
4476,-62.48
4488,-50.26
4500,-37.51
4512,-25.16
4524,-13.37
4536,-1.81
4548,10.02
4560,22.28
4571,34.72
4582,46.77
4594,57.82
4606,67.44
4618,75.42
4630,81.65
4642,86.04
4654,88.43
4666,88.77
4678,87.1
4690,83.78
4702,79.39
4714,74.63
4726,70.16
4738,66.42
4750,63.55
4761,61.4
4772,59.67
4784,58.01
4796,56.18
4808,54.12
4820,51.88
4832,49.56
4844,47.2
4856,44.72
4868,41.98
4880,38.8
4892,35.1
4904,30.94
4916,26.51
4928,22.03
4940,17.7
4951,13.64
4962,9.93
4974,6.57
4986,3.59
4998,0.97
5010,-1.26
5022,-3.06
5034,-4.35
5046,-4.99
5058,-4.88
5070,-4.03
5082,-2.59
5094,-0.89
5106,0.76
5118,2.07
5130,2.98
5141,3.56
5152,3.98
5164,4.33
5176,4.64
5188,4.86
5200,4.98
5212,5.02
5224,5.14
5236,5.47
5248,6.1
5260,7.04
5272,8.18
5284,9.34
5296,10.39
5308,11.19
5320,11.73
5331,12.02
5342,12.11
5354,12.03
5366,11.78
5378,11.32
5390,10.57
5402,9.51
5414,8.12
5426,6.48
5438,4.66
5450,2.74
5462,0.81
5474,-1.06
5486,-2.76
5498,-4.19
5510,-5.29
5521,-6.13
5532,-6.85
5544,-7.63
5556,-8.55
5568,-9.52
5580,-10.27
5592,-10.47
5604,-9.91
5616,-8.53
5628,-6.5
5640,-4.12
5652,-1.68
5664,0.59
5676,2.59
5688,4.31
5700,5.77
5711,6.95
5722,7.82
5734,8.3
5746,8.31
5758,7.86
5770,7.01
5782,5.98
5794,5.01
5806,4.33
5818,4.06
5830,4.19
5842,4.58
5854,5.07
5866,5.59
5878,6.17
5890,6.9
5901,7.87
5912,9.08
5924,10.42
5936,11.68
5948,12.61
5960,13.01
5972,12.78
5984,11.93
5996,10.55
6008,8.78
6020,6.74
6032,4.52
6044,2.17
6056,-0.3
6068,-2.85
6080,-5.43
6091,-8.03
6102,-10.63
6114,-13.26
6126,-15.88
6138,-18.33
6150,-20.31
6162,-21.48
6174,-21.58
6186,-20.59
6198,-18.76
6210,-16.48
6222,-14.18
6234,-12.09
6246,-10.29
6258,-8.67
6270,-7.09
6281,-5.53
6292,-4.01
6304,-2.6
6316,-1.32
6328,-0.15
6340,0.98
6352,2.07
6364,3.09
6376,3.92
6388,4.45
6400,4.66
6412,4.6
6424,4.4
6436,4.16
6448,3.95
6460,3.78
6471,3.62
6482,3.49
6494,3.39
6506,3.33
6518,3.29
6530,3.19
6542,2.93
6554,2.44
6566,1.7
6578,0.74
6590,-0.36
6602,-1.52
6614,-2.66
6626,-3.78
6638,-4.9
6650,-5.99
6661,-7.05
6672,-8.02
6684,-8.89
6696,-9.66
6708,-10.34
6720,-10.91
6732,-11.33
6744,-11.5
6756,-11.29
6768,-10.61
6780,-9.5
6792,-8.02
6804,-6.29
6816,-4.4
6828,-2.4
6840,-0.33
6851,1.73
6862,3.69
6874,5.48
6886,7.04
6898,8.44
6910,9.77
6922,11.12
6934,12.47
6946,13.75
6958,14.81
6970,15.58
6982,16.06
6994,16.37
7006,16.67
7018,17.03
7030,17.44
7041,17.79
7052,17.96
7064,17.89
7076,17.57
7088,17.09
7100,16.49
7112,15.78
7124,14.98
7136,14.05
7148,13.02
7160,11.96
7172,10.89
7184,9.82
7196,8.69
7208,7.43
7220,6.0
7231,4.42
7242,2.76
7254,1.11
7266,-0.48
7278,-2.01
7290,-3.51
7302,-4.98
7314,-6.37
7326,-7.6
7338,-8.59
7350,-9.26
7362,-9.59
7374,-9.6
7386,-9.35
7398,-8.95
7410,-8.53
7421,-8.2
7432,-8.02
7444,-7.95
7456,-7.92
7468,-7.86
7480,-7.74
7492,-7.62
7504,-7.59
7516,-7.69
7528,-7.91
7540,-8.2
7552,-8.41
7564,-8.47
7576,-8.25
7588,-7.69
7600,-6.76
7611,-5.49
7622,-3.99
7634,-2.49
7646,-1.27
7658,-0.58
7670,-0.56
7682,-1.18
7694,-2.27
7706,-3.58
7718,-4.89
7730,-6.03
7742,-6.91
7754,-7.52
7766,-7.9
7778,-8.12
7790,-8.3
7801,-8.54
7812,-8.95
7824,-9.55
7836,-10.32
7848,-11.19
7860,-12.03
7872,-12.75
7884,-13.31
7896,-13.74
7908,-14.17
7920,-14.72
7932,-15.45
7944,-16.35
7956,-17.22
7968,-17.79
7980,-17.8
7991,-17.13
8002,-15.86
8014,-14.25
8026,-12.66
8038,-11.32
8050,-10.3
8062,-9.5
8074,-8.74
8086,-7.9
8098,-6.95
8110,-6.0
8122,-5.19
8134,-4.62
8146,-4.26
8158,-4.03
8170,-3.76
8181,-3.37
8192,-2.81
8204,-2.1
8216,-1.25
8228,-0.28
8240,0.85
8252,2.14
8264,3.57
8276,5.03
8288,6.39
8300,7.49
8312,8.23
8324,8.59
8336,8.65
8348,8.52
8360,8.3
8371,8.04
8382,7.71
8394,7.27
8406,6.66
8418,5.87
8430,4.92
8442,3.92
8454,2.98
8466,2.17
8478,1.47
8490,0.84
8502,0.18
8514,-0.55
8526,-1.38
8538,-2.3
8550,-3.32
8561,-4.5
8572,-5.89
8584,-7.49
8596,-9.13
8608,-10.5
8620,-11.24
8632,-11.1
8644,-10.1
8656,-8.48
8668,-6.65
8680,-4.98
8692,-3.66
8704,-2.7
8716,-1.99
8728,-1.42
8740,-0.93
8751,-0.59
8762,-0.43
8774,-0.42
8786,-0.45
8798,-0.38
8810,-0.09
8822,0.43
8834,1.1
8846,1.78
8858,2.3
8870,2.57
8882,2.57
8894,2.37
8906,2.11
8918,1.88
8930,1.75
8941,1.67
8952,1.55
8964,1.27
8976,0.79
8988,0.13
9000,-0.61
9012,-1.32
9024,-1.9
9036,-2.34
9048,-2.65
9060,-2.87
9072,-3.05
9084,-3.19
9096,-3.27
9108,-3.23
9120,-3.01
9131,-2.61
9142,-2.09
9154,-1.55
9166,-1.15
9178,-1.0
9190,-1.18
9202,-1.68
9214,-2.45
9226,-3.4
9238,-4.48
9250,-5.65
9262,-6.92
9274,-8.24
9286,-9.48
9298,-10.48
9310,-11.02
9321,-10.93
9332,-10.11
9344,-8.66
9356,-6.77
9368,-4.68
9380,-2.62
9392,-0.72
9404,0.96
9416,2.43
9428,3.66
9440,4.64
9452,5.32
9464,5.71
9476,5.82
9488,5.77
9500,5.68
9511,5.69
9522,5.88
9534,6.2
9546,6.55
9558,6.79
9570,6.8
9582,6.54
9594,6.01
9606,5.25
9618,4.33
9630,3.26
9642,2.07
9654,0.81
9666,-0.37
9678,-1.3
9690,-1.76
9701,-1.64
9712,-0.96
9724,0.07
9736,1.17
9748,2.11
9760,2.76
9772,3.17
9784,3.47
9796,3.76
9808,4.1
9820,4.41
9832,4.58
9844,4.5
9856,4.09
9868,3.3
9880,2.04
9891,0.24
9902,-2.15
9914,-4.97
9926,-7.9
9938,-10.51
9950,-12.39
9962,-13.32
9974,-13.38
9986,-12.88
9998,-12.14
10010,-11.37
10022,-10.54
10034,-9.41
10046,-7.69
10058,-5.14
10070,-1.72
10081,2.36
10092,6.77
10104,11.15
10116,15.21
10128,18.79
10140,21.87
10152,24.52
10164,26.84
10176,28.86
10188,30.52
10200,31.66
10212,32.1
10224,31.67
10236,30.26
10248,27.86
10260,24.56
10271,20.54
10282,16.04
10294,11.38
10306,6.86
10318,2.72
10330,-0.87
10342,-3.86
10354,-6.3
10366,-8.31
10378,-10.03
10390,-11.63
10402,-13.2
10414,-14.8
10426,-16.36
10438,-17.75
10450,-18.83
10461,-19.48
10472,-19.68
10484,-19.54
10496,-19.24
10508,-19.05
10520,-19.16
10532,-19.7
10544,-20.55
10556,-21.49
10568,-22.16
10580,-22.26
10592,-21.64
10604,-20.31
10616,-18.44
10628,-16.3
10640,-14.15
10651,-12.14
10662,-10.34
10674,-8.74
10686,-7.33
10698,-6.11
10710,-5.08
10722,-4.28
10734,-3.69
10746,-3.28
10758,-2.96
10770,-2.63
10782,-2.2
10794,-1.63
10806,-0.93
10818,-0.13
10830,0.73
10841,1.65
10852,2.6
10864,3.55
10876,4.43
10888,5.13
10900,5.53
10912,5.58
10924,5.26
10936,4.68
10948,4.0
10960,3.33
10972,2.75
10984,2.24
10996,1.75
11008,1.26
11020,0.77
11031,0.31
11042,-0.1
11054,-0.45
11066,-0.81
11078,-1.24
11090,-1.78
11102,-2.41
11114,-3.06
11126,-3.67
11138,-4.22
11150,-4.73
11162,-5.21
11174,-5.72
11186,-6.26
11198,-6.84
11210,-7.39
11221,-7.87
11232,-8.21
11244,-8.31
11256,-8.09
11268,-7.5
11280,-6.53
11292,-5.25
11304,-3.83
11316,-2.47
11328,-1.33
11340,-0.5
11352,0.05
11364,0.43
11376,0.73
11388,1.0
11400,1.24
11411,1.38
11422,1.4
11434,1.36
11446,1.34
11458,1.46
11470,1.78
11482,2.27
11494,2.83
11506,3.37
11518,3.81
11530,4.12
11542,4.37
11554,4.62
11566,4.9
11578,5.21
11590,5.45
11601,5.53
11612,5.38
11624,4.99
11636,4.47
11648,3.94
11660,3.47
11672,3.09
11684,2.73
11696,2.28
11708,1.7
11720,0.98
11732,0.22
11744,-0.48
11756,-1.0
11768,-1.3
11780,-1.37
11791,-1.3
11802,-1.16
11814,-1.1
11826,-1.25
11838,-1.72
11850,-2.55
11862,-3.73
11874,-5.17
11886,-6.71
11898,-8.15
11910,-9.23
11922,-9.71
11934,-9.39
11946,-8.28
11958,-6.56
11970,-4.58
11981,-2.72
11992,-1.23
12004,-0.19
12016,0.49
12028,1.0
12040,1.47
12052,1.9
12064,2.21
12076,2.31
12088,2.21
12100,2.0
12112,1.81
12124,1.7
12136,1.68
12148,1.67
12160,1.63
12171,1.65
12182,1.88
12194,2.44
12206,3.34
12218,4.42
12230,5.39
12242,6.02
12254,6.18
12266,5.99
12278,5.67
12290,5.47
12302,5.5
12314,5.73
12326,5.97
12338,6.03
12350,5.81
12361,5.33
12372,4.71
12384,4.11
12396,3.6
12408,3.2
12420,2.82
12432,2.37
12444,1.82
12456,1.21
12468,0.66
12480,0.24
12492,-0.08
12504,-0.44
12516,-1.03
12528,-1.94
12540,-3.18
12551,-4.59
12562,-5.97
12574,-7.18
12586,-8.16
12598,-8.96
12610,-9.57
12622,-9.93
12634,-9.89
12646,-9.3
12658,-8.18
12670,-6.66
12682,-5.0
12694,-3.46
12706,-2.18
12718,-1.18
12730,-0.38
12741,0.29
12752,0.82
12764,1.19
12776,1.38
12788,1.41
12800,1.45
12812,1.65
12824,2.12
12836,2.82
12848,3.65
12860,4.44
12872,5.1
12884,5.63
12896,6.08
12908,6.55
12920,7.05
12931,7.55
12942,7.97
12954,8.24
12966,8.34
12978,8.25
12990,8.0
13002,7.59
13014,7.03
13026,6.34
13038,5.57
13050,4.78
13062,4.04
13074,3.37
13086,2.8
13098,2.33
13110,1.9
13121,1.47
13132,0.98
13144,0.39
13156,-0.28
13168,-0.97
13180,-1.56
13192,-1.95
13204,-2.1
13216,-2.12
13228,-2.18
13240,-2.46
13252,-3.07
13264,-4.03
13276,-5.28
13288,-6.75
13300,-8.3
13311,-9.82
13322,-11.14
13334,-12.06
13346,-12.4
13358,-12.12
13370,-11.26
13382,-10.01
13394,-8.59
13406,-7.17
13418,-5.82
13430,-4.53
13442,-3.27
13454,-2.01
13466,-0.8
13478,0.27
13490,1.1
13501,1.58
13512,1.72
13524,1.6
13536,1.42
13548,1.39
13560,1.68
13572,2.31
13584,3.19
13596,4.1
13608,4.84
13620,5.31
13632,5.57
13644,5.75
13656,5.97
13668,6.22
13680,6.41
13691,6.38
13702,6.05
13714,5.49
13726,4.87
13738,4.4
13750,4.21
13762,4.28
13774,4.45
13786,4.53
13798,4.37
13810,3.96
13822,3.36
13834,2.71
13846,2.12
13858,1.61
13870,1.17
13881,0.8
13892,0.5
13904,0.27
13916,0.06
13928,-0.22
13940,-0.66
13952,-1.32
13964,-2.16
13976,-3.07
13988,-3.93
14000,-4.68
14012,-5.34
14024,-5.97
14036,-6.54
14048,-6.95
14060,-7.04
14071,-6.69
14082,-5.96
14094,-5.02
14106,-4.11
14118,-3.41
14130,-2.97
14142,-2.75
14154,-2.61
14166,-2.48
14178,-2.32
14190,-2.19
14202,-2.12
14214,-2.12
14226,-2.18
14238,-2.24
14250,-2.25
14261,-2.22
14272,-2.14
14284,-2.02
14296,-1.87
14308,-1.68
14320,-1.44
14332,-1.16
14344,-0.87
14356,-0.6
14368,-0.36
14380,-0.19
14392,-0.1
14404,-0.12
14416,-0.26
14428,-0.52
14440,-0.87
14451,-1.27
14462,-1.67
14474,-2.04
14486,-2.42
14498,-2.82
14510,-3.24
14522,-3.61
14534,-3.81
14546,-3.74
14558,-3.4
14570,-2.87
14582,-2.34
14594,-1.97
14606,-1.86
14618,-1.95
14630,-2.13
14641,-2.21
14652,-2.07
14664,-1.73
14676,-1.32
14688,-1.04
14700,-1.07
14712,-1.5
14724,-2.27
14736,-3.26
14748,-4.27
14760,-5.08
14772,-5.51
14784,-5.4
14796,-4.69
14808,-3.43
14820,-1.78
14831,-0.02
14842,1.58
14854,2.82
14866,3.68
14878,4.22
14890,4.6
14902,4.94
14914,5.28
14926,5.61
14938,5.87
14950,5.98
14962,5.94
14974,5.76
14986,5.52
14998,5.33
15010,5.3
15021,5.49
15032,5.93
15044,6.54
15056,7.22
15068,7.83
15080,8.31
15092,8.61
15104,8.77
15116,8.85
15128,8.91
15140,9.0
15152,9.09
15164,9.13
15176,9.04
15188,8.78
15200,8.32
15211,7.69
15222,6.95
15234,6.14
15246,5.31
15258,4.51
15270,3.82
15282,3.32
15294,3.02
15306,2.85
15318,2.63
15330,2.22
15342,1.52
15354,0.61
15366,-0.34
15378,-1.09
15390,-1.53
15401,-1.72
15412,-1.84
15424,-2.12
15436,-2.71
15448,-3.62
15460,-4.72
15472,-5.83
15484,-6.78
15496,-7.46
15508,-7.81
15520,-7.81
15532,-7.46
15544,-6.75
15556,-5.73
15568,-4.44
15580,-2.98
15591,-1.46
15602,0.02
15614,1.35
15626,2.45
15638,3.24
15650,3.68
15662,3.77
15674,3.6
15686,3.31
15698,3.1
15710,3.1
15722,3.38
15734,3.86
15746,4.41
15758,4.93
15770,5.4
15781,5.89
15792,6.45
15804,7.08
15816,7.62
15828,7.92
15840,7.83
15852,7.39
15864,6.76
15876,6.12
15888,5.6
15900,5.18
15912,4.7
15924,4.07
15936,3.28
15948,2.45
15960,1.76
15971,1.33
15982,1.15
15994,1.1
16006,1.06
16018,0.97
16030,0.84
16042,0.71
16054,0.57
16066,0.3
16078,-0.24
16090,-1.11
16102,-2.25
16114,-3.4
16126,-4.33
16138,-4.9
16150,-5.2
16161,-5.49
16172,-6.05
16184,-7.0
16196,-8.25
16208,-9.49
16220,-10.39
16232,-10.67
16244,-10.26
16256,-9.28
16268,-7.95
16280,-6.48
16292,-4.99
16304,-3.56
16316,-2.2
16328,-0.94
16340,0.1
16351,0.81
16362,1.09
16374,1.01
16386,0.74
16398,0.51
16410,0.48
16422,0.73
16434,1.17
16446,1.64
16458,2.05
16470,2.34
16482,2.6
16494,2.88
16506,3.21
16518,3.54
16530,3.78
16541,3.85
16552,3.75
16564,3.56
16576,3.4
16588,3.35
16600,3.44
16612,3.59
16624,3.72
16636,3.73
16648,3.58
16660,3.29
16672,2.91
16684,2.51
16696,2.11
16708,1.73
16720,1.35
16731,0.96
16742,0.58
16754,0.24
16766,-0.03
16778,-0.18
16790,-0.21
16802,-0.15
16814,-0.12
16826,-0.24
16838,-0.61
16850,-1.29
16862,-2.27
16874,-3.44
16886,-4.68
16898,-5.84
16910,-6.83
16921,-7.62
16932,-8.17
16944,-8.46
16956,-8.45
16968,-8.09
16980,-7.39
16992,-6.4
17004,-5.2
17016,-3.89
17028,-2.56
17040,-1.31
17052,-0.23
17064,0.59
17076,1.05
17088,1.11
17100,0.8
17111,0.25
17122,-0.36
17134,-0.86
17146,-1.13
17158,-1.11
17170,-0.83
17182,-0.33
17194,0.29
17206,0.93
17218,1.51
17230,1.96
17242,2.27
17254,2.48
17266,2.62
17278,2.75
17290,2.86
17301,2.95
17312,2.97
17324,2.93
17336,2.87
17348,2.83
17360,2.91
17372,3.09
17384,3.31
17396,3.44
17408,3.34
17420,2.98
17432,2.47
17444,2.01
17456,1.85
17468,2.15
17480,2.89
17491,3.94
17502,5.13
17514,6.29
17526,7.35
17538,8.31
17550,9.16
17562,9.89
17574,10.5
17586,11.04
17598,11.64
17610,12.41
17622,13.42
17634,14.64
17646,15.92
17658,17.02
17670,17.76
17681,18.0
17692,17.75
17704,17.1
17716,16.21
17728,15.2
17740,14.16
17752,13.05
17764,11.8
17776,10.31
17788,8.54
17800,6.51
17812,4.27
17824,1.9
17836,-0.54
17848,-2.97
17860,-5.33
17871,-7.52
17882,-9.41
17894,-10.93
17906,-12.06
17918,-12.85
17930,-13.39
17942,-13.76
17954,-14.01
17966,-14.14
17978,-14.12
17990,-13.99
18002,-13.84
18014,-13.75
18026,-13.85
18038,-14.14
18050,-14.57
18061,-15.06
18072,-15.49
18084,-15.87
18096,-16.21
18108,-16.57
18120,-16.94
18132,-17.28
18144,-17.46
18156,-17.37
18168,-16.93
18180,-16.15
18192,-15.15
18204,-14.15
18216,-13.35
18228,-12.87
18240,-12.7
18251,-12.66
18262,-12.51
18274,-12.08
18286,-11.32
18298,-10.34
18310,-9.35
18322,-8.61
18334,-8.29
18346,-8.46
18358,-9.08
18370,-10.01
18382,-11.01
18394,-11.74
18406,-11.83
18418,-11.01
18430,-9.18
18441,-6.51
18452,-3.33
18464,-0.03
18476,3.12
18488,6.03
18500,8.73
18512,11.26
18524,13.59
18536,15.56
18548,16.94
18560,17.61
18572,17.63
18584,17.21
18596,16.69
18608,16.39
18620,16.48
18631,16.98
18642,17.78
18654,18.72
18666,19.63
18678,20.38
18690,20.86
18702,20.98
18714,20.68
18726,19.92
18738,18.75
18750,17.28
18762,15.69
18774,14.15
18786,12.83
18798,11.79
18810,11.05
18821,10.53
18832,10.14
18844,9.72
18856,9.17
18868,8.43
18880,7.52
18892,6.53
18904,5.63
18916,4.98
18928,4.63
18940,4.53
18952,4.51
18964,4.34
18976,3.88
18988,3.1
19000,2.11
19011,1.07
19022,0.16
19034,-0.54
19046,-1.04
19058,-1.42
19070,-1.83
19082,-2.39
19094,-3.15
19106,-4.07
19118,-5.02
19130,-5.82
19142,-6.24
19154,-6.14
19166,-5.49
19178,-4.42
19190,-3.16
19201,-1.94
19212,-0.91
19224,-0.13
19236,0.47
19248,1.02
19260,1.55
19272,2.0
19284,2.23
19296,2.06
19308,1.4
19320,0.3
19332,-1.07
19344,-2.5
19356,-3.81
19368,-4.91
19380,-5.85
19391,-6.77
19402,-7.81
19414,-9.05
19426,-10.42
19438,-11.7
19450,-12.57
19462,-12.69
19474,-11.82
19486,-9.92
19498,-7.12
19510,-3.71
19522,-0.03
19534,3.62
19546,7.03
19558,10.09
19570,12.71
19581,14.81
19592,16.31
19604,17.14
19616,17.27
19628,16.8
19640,15.92
19652,14.94
19664,14.14
19676,13.69
19688,13.6
19700,13.69
19712,13.67
19724,13.31
19736,12.47
19748,11.17
19760,9.6
19771,7.91
19782,6.26
19794,4.67
19806,3.13
19818,1.63
19830,0.24
19842,-0.91
19854,-1.6
19866,-1.71
19878,-1.19
19890,-0.19
19902,1.08
19914,2.38
19926,3.54
19938,4.47
19950,5.16
19961,5.58
19972,5.72
19984,5.56
19996,5.19
20008,4.8
20020,4.67
20032,5.05
20044,6.0
20056,7.38
20068,8.82
20080,9.9
20092,10.29
20104,9.8
20116,8.43
20128,6.34
20140,3.74
20151,0.79
20162,-2.36
20174,-5.62
20186,-8.96
20198,-12.34
20210,-15.72
20222,-19.08
20234,-22.4
20246,-25.64
20258,-28.73
20270,-31.53
20282,-33.89
20294,-35.64
20306,-36.73
20318,-37.28
20330,-37.59
20341,-38.04
20352,-38.91
20364,-40.26
20376,-41.8
20388,-43.05
20400,-43.41
20412,-42.41
20424,-39.84
20436,-35.88
20448,-30.97
20460,-25.77
20472,-20.89
20484,-16.77
20496,-13.56
20508,-11.1
20520,-9.05
20531,-7.02
20542,-4.71
20554,-1.99
20566,1.09
20578,4.43
20590,7.82
20602,11.11
20614,14.07
20626,16.48
20638,18.1
20650,18.76
20662,18.43
20674,17.22
20686,15.42
20698,13.37
20710,11.45
20721,9.9
20732,8.84
20744,8.25
20756,8.02
20768,8.01
20780,8.09
20792,8.14
20804,8.02
20816,7.64
20828,6.99
20840,6.13
20852,5.22
20864,4.41
20876,3.79
20888,3.32
20900,2.91
20911,2.48
20922,2.01
20934,1.56
20946,1.18
20958,0.8
20970,0.31
20982,-0.5
20994,-1.74
