seconds,BVP
2,7.97
14,5.7
26,3.59
38,1.45
50,-0.97
62,-3.83
74,-7.17
86,-10.81
98,-14.53
110,-18.05
121,-21.22
132,-24.02
144,-26.59
156,-29.23
168,-32.29
180,-36.09
192,-40.78
204,-46.16
216,-51.62
228,-56.21
240,-58.84
252,-58.65
264,-55.22
276,-48.79
288,-40.13
300,-30.31
311,-20.37
322,-11.04
334,-2.72
346,4.58
358,10.97
370,16.61
382,21.55
394,25.76
406,29.19
418,31.89
430,34.0
442,35.78
454,37.46
466,39.19
478,40.93
490,42.61
501,44.17
512,45.66
524,47.22
536,49.01
548,51.14
560,53.57
572,56.14
584,58.59
596,60.58
608,61.72
620,61.62
632,59.94
644,56.5
656,51.34
668,44.73
680,37.11
691,28.94
702,20.59
714,12.3
726,4.22
738,-3.5
750,-10.67
762,-17.08
774,-22.59
786,-27.18
798,-30.98
810,-34.24
822,-37.25
834,-40.31
846,-43.71
858,-47.71
870,-52.51
881,-58.09
892,-64.04
904,-69.59
916,-73.68
928,-75.3
940,-73.9
952,-69.58
964,-63.11
976,-55.61
988,-48.17
1000,-41.51
1012,-35.84
1024,-31.0
1036,-26.65
1048,-22.6
1060,-18.79
1071,-15.33
1082,-12.3
1094,-9.69
1106,-7.38
1118,-5.19
1130,-3.01
1142,-0.82
1154,1.32
1166,3.35
1178,5.29
1190,7.24
1202,9.27
1214,11.41
1226,13.55
1238,15.52
1250,17.15
1261,18.35
1272,19.08
1284,19.36
1296,19.14
1308,18.38
1320,17.09
1332,15.42
1344,13.61
1356,11.92
1368,10.5
1380,9.28
1392,7.99
1404,6.36
1416,4.23
1428,1.62
1440,-1.27
1451,-4.17
1462,-6.86
1474,-9.27
1486,-11.45
1498,-13.61
1510,-16.02
1522,-18.98
1534,-22.75
1546,-27.42
1558,-32.84
1570,-38.47
1582,-43.44
1594,-46.67
1606,-47.19
1618,-44.43
1630,-38.46
1641,-29.98
1652,-20.14
1664,-10.16
1676,-0.98
1688,6.91
1700,13.46
1712,18.86
1724,23.34
1736,27.01
1748,29.91
1760,32.0
1772,33.37
1784,34.18
1796,34.66
1808,35.05
1820,35.44
1831,35.82
1842,36.09
1854,36.16
1866,36.02
1878,35.72
1890,35.41
1902,35.15
1914,34.91
1926,34.56
1938,33.88
1950,32.69
1962,30.95
1974,28.8
1986,26.46
1998,24.15
2010,21.98
2021,19.93
2032,17.8
2044,15.4
2056,12.61
2068,9.46
2080,6.14
2092,2.9
2104,-0.08
2116,-2.72
2128,-5.16
2140,-7.64
2152,-10.47
2164,-13.96
2176,-18.32
2188,-23.57
2200,-29.46
2211,-35.39
2222,-40.45
2234,-43.6
2246,-44.0
2258,-41.28
2270,-35.73
2282,-28.21
2294,-19.87
2306,-11.82
2318,-4.81
2330,0.91
2342,5.45
2354,9.08
2366,12.02
2378,14.3
2390,15.87
2401,16.68
2412,16.81
2424,16.52
2436,16.08
2448,15.73
2460,15.53
2472,15.4
2484,15.2
2496,14.88
2508,14.46
2520,14.08
2532,13.86
2544,13.84
2556,13.94
2568,13.99
2580,13.86
2591,13.46
2602,12.77
2614,11.8
2626,10.52
2638,8.93
2650,7.08
2662,5.03
2674,2.89
2686,0.74
2698,-1.42
2710,-3.64
2722,-6.04
2734,-8.69
2746,-11.59
2758,-14.66
2770,-17.77
2781,-20.8
2792,-23.67
2804,-26.42
2816,-29.15
2828,-32.08
2840,-35.47
2852,-39.59
2864,-44.56
2876,-50.21
2888,-55.97
2900,-60.89
2912,-63.85
2924,-63.91
2936,-60.6
2948,-54.08
2960,-45.1
2971,-34.77
2982,-24.21
2994,-14.3
3006,-5.55
3018,1.9
3030,8.18
3042,13.49
3054,18.04
3066,21.93
3078,25.15
3090,27.6
3102,29.2
3114,29.96
3126,30.02
3138,29.67
3150,29.22
3161,28.92
3172,28.85
3184,28.94
3196,29.06
3208,29.12
3220,29.09
3232,29.02
3244,28.91
3256,28.67
3268,28.09
3280,26.93
3292,25.05
3304,22.51
3316,19.56
3328,16.51
3340,13.67
3351,11.13
3362,8.8
3374,6.47
3386,3.88
3398,0.87
3410,-2.56
3422,-6.3
3434,-10.07
3446,-13.64
3458,-16.85
3470,-19.69
3482,-22.33
3494,-25.03
3506,-28.06
3518,-31.69
3530,-36.09
3541,-41.32
3552,-47.22
3564,-53.28
3576,-58.61
3588,-62.12
3600,-62.73
3612,-59.81
3624,-53.41
3636,-44.3
3648,-33.69
3660,-22.86
3672,-12.76
3684,-3.88
3696,3.76
3708,10.29
3720,15.87
3731,20.53
3742,24.22
3754,26.96
3766,28.88
3778,30.23
3790,31.29
3802,32.28
3814,33.26
3826,34.13
3838,34.7
3850,34.83
3862,34.53
3874,33.97
3886,33.41
3898,33.12
3910,33.14
3921,33.31
3932,33.25
3944,32.58
3956,31.08
3968,28.82
3980,26.11
3992,23.35
4004,20.83
4016,18.61
4028,16.51
4040,14.28
4052,11.69
4064,8.67
4076,5.24
4088,1.56
4100,-2.21
4111,-5.88
4122,-9.26
4134,-12.26
4146,-14.89
4158,-17.34
4170,-19.98
4182,-23.24
4194,-27.42
4206,-32.53
4218,-38.13
4230,-43.36
4242,-47.17
4254,-48.5
4266,-46.74
4278,-41.84
4290,-34.33
4301,-25.21
4312,-15.63
4324,-6.53
4336,1.52
4348,8.34
4360,14.01
4372,18.69
4384,22.45
4396,25.26
4408,27.1
4420,28.05
4432,28.37
4444,28.42
4456,28.49
4468,28.77
4480,29.21
4491,29.67
4502,30.02
4514,30.23
4526,30.4
4538,30.66
4550,31.07
4562,31.55
4574,31.88
4586,31.84
4598,31.24
4610,30.04
4622,28.35
4634,26.35
4646,24.29
4658,22.34
4670,20.61
4681,19.05
4692,17.51
4704,15.78
4716,13.69
4728,11.18
4740,8.33
4752,5.3
4764,2.26
4776,-0.73
4788,-3.71
4800,-6.9
4812,-10.56
4824,-14.99
4836,-20.42
4848,-26.9
4860,-34.2
4871,-41.76
4882,-48.66
4894,-53.8
4906,-56.17
4918,-55.18
4930,-50.89
4942,-44.01
4954,-35.69
4966,-27.13
4978,-19.24
4990,-12.43
5002,-6.65
5014,-1.64
5026,2.84
5038,6.81
5050,10.11
5061,12.51
5072,13.88
5084,14.36
5096,14.28
5108,14.06
5120,14.06
5132,14.41
5144,15.07
5156,15.87
5168,16.68
5180,17.45
5192,18.23
5204,19.09
5216,20.02
5228,20.85
5240,21.34
5251,21.19
5262,20.25
5274,18.5
5286,16.13
5298,13.45
5310,10.78
5322,8.35
5334,6.22
5346,4.27
5358,2.27
5370,-0.01
5382,-2.71
5394,-5.79
5406,-9.11
5418,-12.45
5430,-15.62
5441,-18.55
5452,-21.32
5464,-24.09
5476,-27.11
5488,-30.64
5500,-34.91
5512,-40.11
5524,-46.24
5536,-52.99
5548,-59.65
5560,-65.13
5572,-68.23
5584,-67.98
5596,-63.96
5608,-56.51
5620,-46.63
5631,-35.62
5642,-24.75
5654,-14.87
5666,-6.33
5678,0.93
5690,7.17
5702,12.65
5714,17.46
5726,21.59
5738,24.92
5750,27.4
5762,29.04
5774,30.04
5786,30.65
5798,31.15
5810,31.71
5821,32.34
5832,32.97
5844,33.49
5856,33.85
5868,34.07
5880,34.2
5892,34.25
5904,34.11
5916,33.62
5928,32.57
5940,30.87
5952,28.58
5964,25.89
5976,23.06
5988,20.28
6000,17.65
6011,15.15
6022,12.67
6034,10.1
6046,7.32
6058,4.3
6070,1.02
6082,-2.46
6094,-6.1
6106,-9.85
6118,-13.63
6130,-17.39
6142,-21.12
6154,-24.81
6166,-28.59
6178,-32.67
6190,-37.3
6201,-42.73
6212,-48.97
6224,-55.72
6236,-62.19
6248,-67.28
6260,-69.84
6272,-69.01
6284,-64.56
6296,-56.97
6308,-47.28
6320,-36.73
6332,-26.35
6344,-16.78
6356,-8.19
6368,-0.51
6380,6.4
6391,12.56
6402,17.85
6414,22.12
6426,25.29
6438,27.43
6450,28.8
6462,29.73
6474,30.57
6486,31.51
6498,32.56
6510,33.64
6522,34.55
6534,35.16
6546,35.46
6558,35.51
6570,35.44
6581,35.29
6592,35.01
6604,34.42
6616,33.29
6628,31.47
6640,28.92
6652,25.79
6664,22.33
6676,18.87
6688,15.58
6700,12.53
6712,9.59
6724,6.57
6736,3.26
6748,-0.4
6760,-4.26
6771,-8.02
6782,-11.31
6794,-13.93
6806,-15.96
6818,-17.77
6830,-19.92
6842,-22.96
6854,-27.25
6866,-32.77
6878,-39.13
6890,-45.54
6902,-51.03
6914,-54.55
6926,-55.25
6938,-52.72
6950,-47.08
6961,-39.0
6972,-29.54
6984,-19.79
6996,-10.61
7008,-2.47
7020,4.56
7032,10.58
7044,15.71
7056,19.9
7068,23.02
7080,24.97
7092,25.81
7104,25.88
7116,25.66
7128,25.67
7140,26.17
7151,27.14
7162,28.26
7174,29.14
7186,29.54
7198,29.48
7210,29.22
7222,29.03
7234,29.09
7246,29.24
7258,29.13
7270,28.33
7282,26.58
7294,23.94
7306,20.75
7318,17.51
7330,14.64
7341,12.29
7352,10.29
7364,8.32
7376,6.06
7388,3.39
7400,0.44
7412,-2.5
7424,-5.07
7436,-7.07
7448,-8.49
7460,-9.46
7472,-10.19
7484,-10.84
7496,-11.57
7508,-12.56
7520,-14.04
7531,-16.25
7542,-19.23
7554,-22.62
7566,-25.64
7578,-27.24
7590,-26.46
7602,-22.9
7614,-16.86
7626,-9.29
7638,-1.42
7650,5.69
7662,11.52
7674,16.05
7686,19.57
7698,22.41
7710,24.74
7721,26.58
7732,27.86
7744,28.57
7756,28.79
7768,28.69
7780,28.41
7792,28.02
7804,27.56
7816,27.02
7828,26.43
7840,25.84
7852,25.37
7864,25.05
7876,24.91
7888,24.86
7900,24.79
7911,24.54
7922,24.01
7934,23.08
7946,21.75
7958,20.03
7970,17.98
7982,15.7
7994,13.35
8006,11.04
8018,8.9
8030,6.96
8042,5.18
8054,3.37
8066,1.33
8078,-1.15
8090,-4.14
8101,-7.54
8112,-11.12
8124,-14.58
8136,-17.69
8148,-20.42
8160,-22.94
8172,-25.6
8184,-28.77
8196,-32.76
8208,-37.67
8220,-43.33
8232,-49.27
8244,-54.73
8256,-58.78
8268,-60.48
8280,-59.19
8291,-54.76
8302,-47.65
8314,-38.75
8326,-29.17
8338,-19.87
8350,-11.46
8362,-4.13
8374,2.22
8386,7.81
8398,12.79
8410,17.19
8422,20.9
8434,23.8
8446,25.82
8458,27.01
8470,27.55
8481,27.69
8492,27.7
8504,27.75
8516,27.92
8528,28.2
8540,28.56
8552,28.94
8564,29.31
8576,29.56
8588,29.6
8600,29.28
8612,28.49
8624,27.21
8636,25.5
8648,23.48
8660,21.27
8671,18.97
8682,16.69
8694,14.49
8706,12.44
8718,10.61
8730,8.98
8742,7.43
8754,5.78
8766,3.82
8778,1.41
8790,-1.46
8802,-4.66
8814,-7.98
8826,-11.21
8838,-14.21
8850,-16.96
8861,-19.63
8872,-22.44
8884,-25.67
8896,-29.56
8908,-34.23
8920,-39.57
8932,-45.23
8944,-50.5
8956,-54.5
8968,-56.29
8980,-55.17
8992,-50.95
9004,-44.04
9016,-35.34
9028,-25.97
9040,-16.91
9051,-8.79
9062,-1.81
9074,4.08
9086,9.04
9098,13.11
9110,16.24
9122,18.4
9134,19.66
9146,20.23
9158,20.41
9170,20.45
9182,20.49
9194,20.54
9206,20.5
9218,20.29
9230,19.92
9241,19.48
9252,19.14
9264,19.02
9276,19.14
9288,19.39
9300,19.53
9312,19.3
9324,18.48
9336,17.02
9348,15.06
9360,12.87
9372,10.78
9384,9.01
9396,7.61
9408,6.44
9420,5.22
9431,3.64
9442,1.51
9454,-1.16
9466,-4.2
9478,-7.35
9490,-10.39
9502,-13.18
9514,-15.76
9526,-18.29
9538,-21.01
9550,-24.15
9562,-27.91
9574,-32.38
9586,-37.39
9598,-42.44
9610,-46.64
9621,-48.93
9632,-48.36
9644,-44.48
9656,-37.56
9668,-28.52
9680,-18.64
9692,-9.13
9704,-0.82
9716,5.99
9728,11.36
9740,15.47
9752,18.47
9764,20.39
9776,21.27
9788,21.25
9800,20.64
9811,19.82
9822,19.16
9834,18.82
9846,18.77
9858,18.79
9870,18.66
9882,18.24
9894,17.55
9906,16.77
9918,16.06
9930,15.5
9942,14.97
9954,14.24
9966,13.02
9978,11.14
9990,8.64
10001,5.73
10012,2.73
10024,-0.1
10036,-2.63
10048,-4.89
10060,-7.04
10072,-9.26
10084,-11.68
10096,-14.31
10108,-17.03
10120,-19.66
10132,-22.0
10144,-23.95
10156,-25.57
10168,-27.09
10180,-28.91
10191,-31.44
10202,-34.86
10214,-38.98
10226,-43.12
10238,-46.18
10250,-47.02
10262,-44.76
10274,-39.16
10286,-30.69
10298,-20.37
10310,-9.43
10322,1.08
10334,10.43
10346,18.36
10358,24.84
10370,30.01
10381,34.0
10392,36.88
10404,38.72
10416,39.6
10428,39.63
10440,38.97
10452,37.81
10464,36.36
10476,34.77
10488,33.2
10500,31.74
10512,30.46
10524,29.39
10536,28.61
10548,28.14
10560,28.0
10571,28.1
10582,28.21
10594,27.99
10606,27.09
10618,25.23
10630,22.42
10642,18.92
10654,15.17
10666,11.58
10678,8.39
10690,5.52
10702,2.63
10714,-0.66
10726,-4.6
10738,-9.15
10750,-14.01
10761,-18.71
10772,-22.85
10784,-26.27
10796,-29.03
10808,-31.46
10820,-33.99
10832,-37.06
10844,-41.0
10856,-45.98
10868,-51.85
10880,-58.09
10892,-63.79
10904,-67.77
10916,-68.92
10928,-66.57
10940,-60.71
10951,-52.1
10962,-41.94
10974,-31.53
10986,-21.87
10998,-13.48
11010,-6.41
11022,-0.46
11034,4.57
11046,8.83
11058,12.34
11070,15.12
11082,17.19
11094,18.63
11106,19.59
11118,20.22
11130,20.64
11141,20.96
11152,21.21
11164,21.37
11176,21.46
11188,21.49
11200,21.53
11212,21.64
11224,21.78
11236,21.82
11248,21.51
11260,20.59
11272,18.92
11284,16.52
11296,13.58
11308,10.42
11320,7.33
11331,4.52
11342,2.01
11354,-0.31
11366,-2.66
11378,-5.27
11390,-8.28
11402,-11.68
11414,-15.31
11426,-18.91
11438,-22.25
11450,-25.21
11462,-27.89
11474,-30.54
11486,-33.45
11498,-36.96
11510,-41.24
11521,-46.26
11532,-51.68
11544,-56.8
11556,-60.67
11568,-62.26
11580,-60.81
11592,-56.06
11604,-48.42
11616,-38.88
11628,-28.68
11640,-18.96
11652,-10.45
11664,-3.41
11676,2.27
11688,6.89
11700,10.62
11711,13.54
11722,15.61
11734,16.81
11746,17.28
11758,17.32
11770,17.27
11782,17.39
11794,17.75
11806,18.24
11818,18.67
11830,18.96
11842,19.24
11854,19.71
11866,20.55
11878,21.79
11890,23.19
11901,24.39
11912,25.09
11924,25.17
11936,24.77
11948,24.12
11960,23.49
11972,22.94
11984,22.39
11996,21.62
12008,20.39
12020,18.53
12032,16.02
12044,12.98
12056,9.65
12068,6.29
12080,3.07
12091,0.0
12102,-3.16
12114,-6.82
12126,-11.4
12138,-17.12
12150,-23.82
12162,-30.9
12174,-37.41
12186,-42.24
12198,-44.43
12210,-43.43
12222,-39.28
12234,-32.57
12246,-24.31
12258,-15.58
12270,-7.32
12281,-0.11
12292,5.9
12304,10.83
12316,14.86
12328,18.12
12340,20.61
12352,22.27
12364,23.09
12376,23.25
12388,23.09
12400,22.97
12412,23.16
12424,23.7
12436,24.44
12448,25.19
12460,25.78
12471,26.21
12482,26.55
12494,26.87
12506,27.12
12518,27.16
12530,26.75
12542,25.75
12554,24.15
12566,22.1
12578,19.84
12590,17.53
12602,15.27
12614,12.97
12626,10.51
12638,7.79
12650,4.81
12661,1.68
12672,-1.41
12684,-4.34
12696,-7.05
12708,-9.7
12720,-12.54
12732,-15.89
12744,-20.01
12756,-24.95
12768,-30.46
12780,-35.89
12792,-40.31
12804,-42.67
12816,-42.07
12828,-38.08
12840,-30.95
12851,-21.57
12862,-11.23
12874,-1.21
12886,7.57
12898,14.74
12910,20.4
12922,24.91
12934,28.56
12946,31.45
12958,33.47
12970,34.46
12982,34.36
12994,33.33
13006,31.73
13018,29.98
13030,28.44
13041,27.25
13052,26.36
13064,25.59
13076,24.83
13088,24.07
13100,23.41
13112,22.98
13124,22.74
13136,22.48
13148,21.86
13160,20.57
13172,18.49
13184,15.72
13196,12.6
13208,9.52
13220,6.78
13231,4.52
13242,2.64
13254,0.89
13266,-1.05
13278,-3.47
13290,-6.52
13302,-10.09
13314,-13.93
13326,-17.66
13338,-20.98
13350,-23.79
13362,-26.3
13374,-28.96
13386,-32.32
13398,-36.82
13410,-42.58
13421,-49.24
13432,-55.98
13444,-61.63
13456,-65.01
13468,-65.16
13480,-61.71
13492,-54.93
13504,-45.66
13516,-35.04
13528,-24.26
13540,-14.18
13552,-5.29
13564,2.31
13576,8.8
13588,14.36
13600,19.11
13611,23.05
13622,26.09
13634,28.23
13646,29.57
13658,30.37
13670,30.92
13682,31.46
13694,32.07
13706,32.69
13718,33.19
13730,33.47
13742,33.52
13754,33.43
13766,33.26
13778,33.05
13790,32.7
13801,32.06
13812,30.96
13824,29.3
13836,27.03
13848,24.25
13860,21.17
13872,18.02
13884,15.06
13896,12.42
13908,10.06
13920,7.83
13932,5.45
13944,2.69
13956,-0.54
13968,-4.21
13980,-8.13
13991,-12.1
14002,-15.94
14014,-19.6
14026,-23.07
14038,-26.43
14050,-29.8
14062,-33.35
14074,-37.38
14086,-42.11
14098,-47.63
14110,-53.61
14122,-59.26
14134,-63.35
14146,-64.65
14158,-62.33
14170,-56.31
14181,-47.36
14192,-36.75
14204,-25.85
14216,-15.64
14228,-6.61
14240,1.22
14252,7.95
14264,13.68
14276,18.36
14288,21.95
14300,24.5
14312,26.25
14324,27.51
14336,28.54
14348,29.44
14360,30.18
14371,30.7
14382,31.05
14394,31.32
14406,31.64
14418,32.08
14430,32.58
14442,32.98
14454,33.16
14466,33.03
14478,32.55
14490,31.71
14502,30.44
14514,28.62
14526,26.17
14538,23.09
14550,19.55
14561,15.81
14572,12.17
14584,8.82
14596,5.8
14608,3.0
14620,0.25
14632,-2.66
14644,-5.86
14656,-9.37
14668,-13.04
14680,-16.66
14692,-20.0
14704,-22.97
14716,-25.66
14728,-28.43
14740,-31.7
14751,-35.85
14762,-41.0
14774,-46.85
14786,-52.66
14798,-57.35
14810,-59.81
14822,-59.13
14834,-54.93
14846,-47.5
14858,-37.75
14870,-26.89
14882,-16.15
14894,-6.37
14906,2.05
14918,9.12
14930,15.05
14941,19.99
14952,23.97
14964,26.92
14976,28.75
14988,29.54
15000,29.53
15012,29.1
15024,28.65
15036,28.49
15048,28.75
15060,29.36
15072,30.13
15084,30.83
15096,31.27
15108,31.37
15120,31.17
15131,30.73
15142,30.09
15154,29.16
15166,27.81
15178,25.91
15190,23.44
15202,20.56
15214,17.55
15226,14.72
15238,12.23
15250,10.03
15262,7.88
15274,5.44
15286,2.5
15298,-0.98
15310,-4.8
15321,-8.67
15332,-12.27
15344,-15.44
15356,-18.22
15368,-20.82
15380,-23.57
15392,-26.83
15404,-30.9
15416,-35.97
15428,-41.97
15440,-48.5
15452,-54.74
15464,-59.57
15476,-61.8
15488,-60.52
15500,-55.48
15511,-47.21
15522,-36.85
15534,-25.84
15546,-15.42
15558,-6.32
15570,1.28
15582,7.65
15594,13.13
15606,17.92
15618,22.02
15630,25.26
15642,27.53
15654,28.85
15666,29.48
15678,29.78
15690,30.1
15701,30.65
15712,31.44
15724,32.38
15736,33.3
15748,34.11
15760,34.77
15772,35.3
15784,35.67
15796,35.79
15808,35.54
15820,34.81
15832,33.63
15844,32.11
15856,30.4
15868,28.65
15880,26.92
15891,25.19
15902,23.41
15914,21.53
15926,19.57
15938,17.53
15950,15.43
15962,13.23
15974,10.87
15986,8.34
15998,5.66
16010,2.95
16022,0.36
16034,-2.01
16046,-4.15
16058,-6.2
16070,-8.43
16081,-11.21
16092,-14.89
16104,-19.71
16116,-25.62
16128,-32.18
16140,-38.54
16152,-43.64
16164,-46.45
16176,-46.3
16188,-43.12
16200,-37.45
16212,-30.25
16224,-22.59
16236,-15.3
16248,-8.88
16260,-3.46
16271,1.05
16282,4.77
16294,7.76
16306,10.02
16318,11.55
16330,12.4
16342,12.71
16354,12.69
16366,12.55
16378,12.48
16390,12.58
16402,12.85
16414,13.22
16426,13.64
16438,14.03
16450,14.35
16461,14.6
16472,14.76
16484,14.76
16496,14.52
16508,13.94
16520,12.93
16532,11.42
16544,9.41
16556,7.0
16568,4.35
16580,1.68
16592,-0.8
16604,-3.02
16616,-5.03
16628,-7.04
16640,-9.27
16651,-11.87
16662,-14.85
16674,-18.05
16686,-21.26
16698,-24.32
16710,-27.16
16722,-29.8
16734,-32.36
16746,-34.98
16758,-37.85
16770,-41.21
16782,-45.32
16794,-50.33
16806,-56.11
16818,-62.06
16830,-67.21
16841,-70.34
16852,-70.39
16864,-66.8
16876,-59.74
16888,-50.02
16900,-38.83
16912,-27.38
16924,-16.6
16936,-7.0
16948,1.24
16960,8.13
16972,13.72
16984,18.07
16996,21.22
17008,23.3
17020,24.53
17031,25.24
17042,25.8
17054,26.47
17066,27.36
17078,28.37
17090,29.29
17102,29.93
17114,30.23
17126,30.31
17138,30.37
17150,30.54
17162,30.8
17174,30.92
17186,30.57
17198,29.49
17210,27.61
17221,25.06
17232,22.14
17244,19.17
17256,16.39
17268,13.9
17280,11.66
17292,9.51
17304,7.22
17316,4.6
17328,1.55
17340,-1.86
17352,-5.46
17364,-9.01
17376,-12.33
17388,-15.32
17400,-18.01
17411,-20.61
17422,-23.39
17434,-26.73
17446,-30.94
17458,-36.16
17470,-42.09
17482,-47.96
17494,-52.55
17506,-54.6
17518,-53.17
17530,-48.11
17542,-40.04
17554,-30.21
17566,-19.96
17578,-10.35
17590,-1.92
17601,5.26
17612,11.34
17624,16.46
17636,20.66
17648,23.87
17660,26.05
17672,27.3
17684,27.85
17696,28.0
17708,28.02
17720,28.08
17732,28.24
17744,28.44
17756,28.62
17768,28.73
17780,28.76
17791,28.76
17802,28.72
17814,28.56
17826,28.1
17838,27.14
17850,25.55
17862,23.32
17874,20.63
17886,17.74
17898,14.91
17910,12.28
17922,9.79
17934,7.26
17946,4.44
17958,1.18
17970,-2.46
17981,-6.26
17992,-9.94
18004,-13.29
18016,-16.3
18028,-19.14
18040,-22.1
18052,-25.51
18064,-29.67
18076,-34.72
18088,-40.61
18100,-46.93
18112,-52.88
18124,-57.39
18136,-59.36
18148,-57.96
18160,-53.0
18171,-44.99
18182,-35.02
18194,-24.39
18206,-14.22
18218,-5.26
18230,2.23
18242,8.29
18254,13.12
18266,16.9
18278,19.73
18290,21.69
18302,22.91
18314,23.58
18326,23.97
18338,24.3
18350,24.75
18361,25.35
18372,26.06
18384,26.8
18396,27.53
18408,28.24
18420,28.94
18432,29.61
18444,30.12
18456,30.28
18468,29.85
18480,28.69
18492,26.8
18504,24.33
18516,21.52
18528,18.61
18540,15.71
18551,12.79
18562,9.66
18574,6.05
18586,1.75
18598,-3.23
18610,-8.68
18622,-14.23
18634,-19.47
18646,-24.21
18658,-28.5
18670,-32.74
18682,-37.46
18694,-43.16
18706,-50.04
18718,-57.87
18730,-65.96
18741,-73.22
18752,-78.41
18764,-80.44
18776,-78.7
18788,-73.21
18800,-64.7
18812,-54.33
18824,-43.35
18836,-32.76
18848,-23.11
18860,-14.5
18872,-6.74
18884,0.34
18896,6.87
18908,12.74
18920,17.78
18931,21.76
18942,24.54
18954,26.11
18966,26.62
18978,26.4
18990,25.82
19002,25.26
19014,24.88
19026,24.64
19038,24.29
19050,23.54
19062,22.27
19074,20.59
19086,18.89
19098,17.65
19110,17.27
19121,17.93
19132,19.53
19144,21.78
19156,24.34
19168,27.01
19180,29.83
19192,33.14
19204,37.39
19216,43.1
19228,50.53
19240,59.72
19252,70.41
19264,82.22
19276,94.66
19288,107.21
19300,119.37
19311,130.65
19322,140.72
19334,149.41
19346,156.78
19358,163.04
19370,168.28
19382,172.3
19394,174.4
19406,173.54
19418,168.59
19430,158.82
19442,144.17
19454,125.3
19466,103.39
19478,79.68
19490,55.22
19501,30.74
19512,6.93
19524,-15.3
19536,-34.63
19548,-49.6
19560,-59.13
19572,-63.16
19584,-62.86
19596,-60.39
19608,-58.13
19620,-57.85
19632,-60.27
19644,-65.1
19656,-71.56
19668,-78.92
19680,-86.8
19691,-95.07
19702,-103.63
19714,-112.3
19726,-120.88
19738,-129.31
19750,-137.61
19762,-145.51
19774,-151.98
19786,-155.15
19798,-152.68
19810,-142.76
19822,-125.13
19834,-101.56
19846,-75.48
19858,-50.8
19870,-30.7
19881,-16.92
19892,-9.66
19904,-8.08
19916,-10.71
19928,-15.86
19940,-21.85
19952,-27.33
19964,-31.53
19976,-34.47
19988,-36.79
20000,-39.34
20012,-42.55
20024,-46.25
20036,-49.86
20048,-52.95
20060,-55.67
20071,-58.7
20082,-62.78
20094,-67.96
20106,-73.42
20118,-77.69
20130,-79.49
20142,-78.29
20154,-74.5
20166,-69.19
20178,-63.35
20190,-57.44
20202,-51.3
20214,-44.47
20226,-36.67
20238,-28.19
20250,-19.81
20261,-12.53
20272,-7.03
20284,-3.31
20296,-0.74
20308,1.71
20320,4.89
20332,9.16
20344,14.27
20356,19.61
20368,24.66
20380,29.22
20392,33.58
20404,38.14
20416,43.15
20428,48.38
20440,53.2
20451,56.92
20462,59.2
20474,60.28
20486,60.92
20498,62.13
20510,64.61
20522,68.6
20534,73.82
20546,79.75
20558,85.85
20570,91.66
20582,96.87
20594,101.29
20606,105.03
20618,108.51
20630,112.19
20641,116.17
20652,119.53
20664,120.3
20676,115.88
20688,104.24
20700,84.83
20712,59.16
20724,30.31
20736,1.97
20748,-22.64
20760,-41.33
20772,-52.97
20784,-57.24
20796,-54.45
20808,-45.58
20820,-32.41
20831,-17.22
20842,-2.26
20854,10.9
20866,21.79
20878,30.9
20890,38.97
20902,46.43
20914,53.01
20926,58.09
20938,61.4
20950,63.59
20962,66.29
20974,71.44
20986,80.35
20998,93.01
