seconds,BVP
8,1.76
19,-0.43
30,-2.92
42,-5.4
54,-7.46
66,-8.7
78,-8.79
90,-7.58
102,-5.13
114,-1.73
126,2.23
138,6.31
150,10.11
162,13.32
174,15.74
186,17.24
198,17.82
209,17.61
220,16.85
232,15.86
244,14.94
256,14.25
268,13.77
280,13.33
292,12.77
304,11.98
316,11.03
328,10.08
340,9.27
352,8.65
364,8.15
376,7.64
388,7.01
399,6.21
410,5.21
422,3.98
434,2.45
446,0.53
458,-1.78
470,-4.27
482,-6.57
494,-8.24
506,-8.91
518,-8.41
530,-6.84
542,-4.49
554,-1.74
566,1.11
578,3.82
589,6.3
600,8.49
612,10.28
624,11.56
636,12.19
648,12.13
660,11.47
672,10.45
684,9.38
696,8.48
708,7.83
720,7.33
732,6.79
744,6.04
756,5.05
768,3.97
779,3.01
790,2.36
802,2.11
814,2.18
826,2.34
838,2.33
850,1.94
862,1.04
874,-0.37
886,-2.19
898,-4.21
910,-6.13
922,-7.62
934,-8.36
946,-8.17
958,-7.1
969,-5.35
980,-3.23
992,-1.06
1004,0.97
1016,2.75
1028,4.24
1040,5.4
1052,6.12
1064,6.35
1076,6.11
1088,5.52
1100,4.82
1112,4.16
1124,3.6
1136,3.05
1148,2.31
1159,1.27
1170,-0.03
1182,-1.44
1194,-2.7
1206,-3.63
1218,-4.23
1230,-4.63
1242,-5.05
1254,-5.7
1266,-6.71
1278,-8.09
1290,-9.8
1302,-11.76
1314,-13.78
1326,-15.63
1338,-16.98
1349,-17.52
1360,-17.02
1372,-15.5
1384,-13.16
1396,-10.31
1408,-7.29
1420,-4.36
1432,-1.69
1444,0.62
1456,2.47
1468,3.77
1480,4.5
1492,4.71
1504,4.54
1516,4.21
1528,3.92
1539,3.81
1550,3.88
1562,3.99
1574,3.93
1586,3.53
1598,2.74
1610,1.72
1622,0.76
1634,0.13
1646,-0.05
1658,0.06
1670,0.14
1682,-0.23
1694,-1.36
1706,-3.35
1718,-6.12
1729,-9.37
1740,-12.7
1752,-15.62
1764,-17.63
1776,-18.33
1788,-17.51
1800,-15.27
1812,-11.97
1824,-8.14
1836,-4.23
1848,-0.55
1860,2.75
1872,5.58
1884,7.84
1896,9.37
1908,10.06
1919,9.93
1930,9.19
1942,8.22
1954,7.36
1966,6.84
1978,6.63
1990,6.54
2002,6.35
2014,5.92
2026,5.25
2038,4.48
2050,3.76
2062,3.14
2074,2.57
2086,1.9
2098,0.99
2109,-0.28
2120,-1.94
2132,-4.0
2144,-6.41
2156,-9.05
2168,-11.66
2180,-13.84
2192,-15.12
2204,-15.13
2216,-13.74
2228,-11.15
2240,-7.81
2252,-4.18
2264,-0.62
2276,2.71
2288,5.77
2299,8.47
2310,10.61
2322,11.94
2334,12.3
2346,11.75
2358,10.66
2370,9.48
2382,8.62
2394,8.22
2406,8.19
2418,8.26
2430,8.17
2442,7.81
2454,7.18
2466,6.39
2478,5.54
2489,4.67
2500,3.78
2512,2.82
2524,1.75
2536,0.54
2548,-0.88
2560,-2.52
2572,-4.39
2584,-6.44
2596,-8.56
2608,-10.57
2620,-12.18
2632,-13.09
2644,-13.05
2656,-11.9
2668,-9.7
2679,-6.67
2690,-3.14
2702,0.55
2714,4.08
2726,7.18
2738,9.59
2750,11.15
2762,11.79
2774,11.65
2786,11.02
2798,10.27
2810,9.7
2822,9.46
2834,9.45
2846,9.51
2858,9.44
2869,9.15
2880,8.62
2892,7.9
2904,7.0
2916,5.95
2928,4.78
2940,3.64
2952,2.65
2964,1.9
2976,1.33
2988,0.74
3000,-0.17
3012,-1.63
3024,-3.7
3036,-6.2
3048,-8.74
3059,-10.81
3070,-11.96
3082,-11.93
3094,-10.65
3106,-8.29
3118,-5.19
3130,-1.75
3142,1.61
3154,4.52
3166,6.7
3178,8.03
3190,8.52
3202,8.3
3214,7.63
3226,6.72
3238,5.8
3249,5.01
3260,4.43
3272,4.1
3284,4.02
3296,4.08
3308,4.13
3320,3.98
3332,3.46
3344,2.55
3356,1.38
3368,0.19
3380,-0.76
3392,-1.36
3404,-1.66
3416,-1.92
3428,-2.48
3439,-3.63
3450,-5.47
3462,-7.82
3474,-10.27
3486,-12.27
3498,-13.33
3510,-13.15
3522,-11.7
3534,-9.18
3546,-5.97
3558,-2.51
3570,0.76
3582,3.51
3594,5.52
3606,6.68
3618,7.03
3629,6.73
3640,6.01
3652,5.13
3664,4.31
3676,3.65
3688,3.16
3700,2.79
3712,2.44
3724,2.04
3736,1.55
3748,0.97
3760,0.32
3772,-0.43
3784,-1.33
3796,-2.46
3808,-3.89
3819,-5.69
3830,-7.84
3842,-10.3
3854,-13.02
3866,-15.9
3878,-18.71
3890,-21.14
3902,-22.76
3914,-23.15
3926,-22.06
3938,-19.49
3950,-15.76
3962,-11.39
3974,-6.95
3986,-2.92
3998,0.5
4009,3.27
4020,5.48
4032,7.21
4044,8.45
4056,9.14
4068,9.25
4080,8.91
4092,8.33
4104,7.78
4116,7.44
4128,7.26
4140,7.04
4152,6.54
4164,5.63
4176,4.39
4188,3.04
4199,1.82
4210,0.89
4222,0.17
4234,-0.56
4246,-1.56
4258,-3.11
4270,-5.36
4282,-8.29
4294,-11.74
4306,-15.32
4318,-18.51
4330,-20.75
4342,-21.62
4354,-20.9
4366,-18.7
4378,-15.35
4389,-11.25
4400,-6.83
4412,-2.42
4424,1.69
4436,5.26
4448,8.09
4460,10.05
4472,11.17
4484,11.61
4496,11.59
4508,11.37
4520,11.07
4532,10.75
4544,10.44
4556,10.17
4568,10.01
4579,9.98
4590,10.04
4602,10.06
4614,9.88
4626,9.37
4638,8.47
4650,7.28
4662,5.89
4674,4.4
4686,2.79
4698,0.98
4710,-1.17
4722,-3.77
4734,-6.79
4746,-10.01
4758,-13.03
4769,-15.29
4780,-16.24
4792,-15.51
4804,-13.11
4816,-9.38
4828,-4.94
4840,-0.47
4852,3.53
4864,6.84
4876,9.48
4888,11.61
4900,13.35
4912,14.74
4924,15.67
4936,16.07
4948,15.94
4959,15.42
4970,14.76
4982,14.15
4994,13.71
5006,13.4
5018,13.07
5030,12.6
5042,11.93
5054,11.08
5066,10.14
5078,9.2
5090,8.29
5102,7.38
5114,6.38
5126,5.21
5138,3.79
5149,2.07
5160,0.07
5172,-2.23
5184,-4.78
5196,-7.5
5208,-10.21
5220,-12.6
5232,-14.29
5244,-14.91
5256,-14.24
5268,-12.28
5280,-9.29
5292,-5.71
5304,-2.01
5316,1.48
5328,4.57
5339,7.21
5350,9.4
5362,11.09
5374,12.19
5386,12.67
5398,12.56
5410,12.06
5422,11.42
5434,10.84
5446,10.45
5458,10.23
5470,10.12
5482,10.0
5494,9.79
5506,9.48
5518,9.07
5529,8.57
5540,7.94
5552,7.16
5564,6.2
5576,5.11
5588,3.95
5600,2.78
5612,1.61
5624,0.36
5636,-1.11
5648,-2.92
5660,-5.06
5672,-7.33
5684,-9.36
5696,-10.69
5708,-10.97
5719,-10.08
5730,-8.16
5742,-5.58
5754,-2.76
5766,-0.06
5778,2.3
5790,4.23
5802,5.76
5814,6.92
5826,7.74
5838,8.25
5850,8.48
5862,8.42
5874,8.15
5886,7.71
5898,7.17
5909,6.64
5920,6.18
5932,5.83
5944,5.53
5956,5.2
5968,4.72
5980,4.02
5992,3.13
6004,2.12
6016,1.1
6028,0.18
6040,-0.61
6052,-1.32
6064,-2.07
6076,-3.07
6088,-4.49
6099,-6.47
6110,-8.97
6122,-11.75
6134,-14.35
6146,-16.24
6158,-17.01
6170,-16.49
6182,-14.81
6194,-12.32
6206,-9.43
6218,-6.47
6230,-3.64
6242,-1.03
6254,1.29
6266,3.26
6278,4.76
6289,5.74
6300,6.26
6312,6.44
6324,6.43
6336,6.33
6348,6.2
6360,6.02
6372,5.74
6384,5.35
6396,4.85
6408,4.29
6420,3.68
6432,3.03
6444,2.37
6456,1.65
6468,0.85
6479,-0.05
6490,-1.05
6502,-2.12
6514,-3.26
6526,-4.52
6538,-6.05
6550,-8.02
6562,-10.49
6574,-13.32
6586,-16.05
6598,-18.07
6610,-18.8
6622,-17.95
6634,-15.67
6646,-12.41
6658,-8.74
6669,-5.13
6680,-1.82
6692,1.16
6704,3.83
6716,6.14
6728,7.99
6740,9.28
6752,10.02
6764,10.32
6776,10.34
6788,10.19
6800,9.89
6812,9.4
6824,8.76
6836,8.04
6848,7.41
6859,6.98
6870,6.77
6882,6.68
6894,6.55
6906,6.27
6918,5.73
6930,4.94
6942,3.87
6954,2.52
6966,0.87
6978,-1.05
6990,-3.15
7002,-5.39
7014,-7.7
7026,-10.07
7038,-12.45
7049,-14.66
7060,-16.42
7072,-17.32
7084,-17.05
7096,-15.44
7108,-12.63
7120,-8.95
7132,-4.87
7144,-0.85
7156,2.76
7168,5.74
7180,8.0
7192,9.49
7204,10.25
7216,10.37
7228,10.04
7239,9.5
7250,9.0
7262,8.72
7274,8.72
7286,8.92
7298,9.18
7310,9.33
7322,9.29
7334,9.03
7346,8.6
7358,8.06
7370,7.48
7382,6.9
7394,6.35
7406,5.83
7418,5.24
7429,4.47
7440,3.37
7452,1.83
7464,-0.13
7476,-2.45
7488,-4.95
7500,-7.4
7512,-9.53
7524,-11.08
7536,-11.82
7548,-11.62
7560,-10.45
7572,-8.46
7584,-5.89
7596,-3.07
7608,-0.3
7619,2.2
7630,4.31
7642,6.01
7654,7.32
7666,8.28
7678,8.94
7690,9.29
7702,9.36
7714,9.14
7726,8.68
7738,8.04
7750,7.34
7762,6.67
7774,6.11
7786,5.67
7798,5.33
7809,5.06
7820,4.79
7832,4.46
7844,4.0
7856,3.36
7868,2.53
7880,1.58
7892,0.62
7904,-0.27
7916,-1.12
7928,-2.07
7940,-3.32
7952,-5.02
7964,-7.11
7976,-9.26
7988,-10.96
7999,-11.76
8010,-11.44
8022,-10.1
8034,-8.15
8046,-6.02
8058,-4.02
8070,-2.26
8082,-0.71
8094,0.72
8106,2.02
8118,3.13
8130,3.92
8142,4.33
8154,4.38
8166,4.11
8178,3.62
8189,3.0
8200,2.36
8212,1.8
8224,1.41
8236,1.22
8248,1.18
8260,1.17
8272,1.11
8284,0.94
8296,0.64
8308,0.24
8320,-0.24
8332,-0.82
8344,-1.5
8356,-2.3
8368,-3.21
8379,-4.21
8390,-5.29
8402,-6.39
8414,-7.44
8426,-8.27
8438,-8.71
8450,-8.61
8462,-7.93
8474,-6.75
8486,-5.21
8498,-3.51
8510,-1.8
8522,-0.18
8534,1.26
8546,2.46
8558,3.37
8569,3.97
8580,4.28
8592,4.38
8604,4.33
8616,4.2
8628,3.98
8640,3.64
8652,3.16
8664,2.53
8676,1.81
8688,1.03
8700,0.24
8712,-0.59
8724,-1.45
8736,-2.36
8748,-3.27
8759,-4.14
8770,-4.97
8782,-5.79
8794,-6.72
8806,-7.89
8818,-9.39
8830,-11.22
8842,-13.23
8854,-15.14
8866,-16.6
8878,-17.26
8890,-16.94
8902,-15.61
8914,-13.43
8926,-10.73
8938,-7.85
8949,-5.11
8960,-2.71
8972,-0.73
8984,0.79
8996,1.85
9008,2.44
9020,2.63
9032,2.5
9044,2.2
9056,1.87
9068,1.63
9080,1.51
9092,1.47
9104,1.45
9116,1.39
9128,1.21
9139,0.85
9150,0.3
9162,-0.46
9174,-1.39
9186,-2.4
9198,-3.37
9210,-4.21
9222,-4.89
9234,-5.51
9246,-6.27
9258,-7.39
9270,-9.01
9282,-11.09
9294,-13.33
9306,-15.28
9318,-16.41
9329,-16.4
9340,-15.14
9352,-12.82
9364,-9.77
9376,-6.36
9388,-2.9
9400,0.34
9412,3.19
9424,5.49
9436,7.15
9448,8.18
9460,8.66
9472,8.78
9484,8.72
9496,8.6
9508,8.45
9519,8.27
9530,8.03
9542,7.72
9554,7.33
9566,6.84
9578,6.23
9590,5.47
9602,4.61
9614,3.73
9626,2.92
9638,2.24
9650,1.66
9662,1.06
9674,0.31
9686,-0.75
9698,-2.19
9709,-4.05
9720,-6.25
9732,-8.63
9744,-10.9
9756,-12.71
9768,-13.7
9780,-13.64
9792,-12.51
9804,-10.47
9816,-7.81
9828,-4.84
9840,-1.83
9852,1.05
9864,3.63
9876,5.73
9888,7.21
9899,8.04
9910,8.28
9922,8.14
9934,7.84
9946,7.57
9958,7.36
9970,7.24
9982,7.18
9994,7.21
10006,7.32
10018,7.49
10030,7.62
10042,7.6
10054,7.31
10066,6.71
10078,5.87
10089,4.86
10100,3.79
10112,2.78
10124,1.87
10136,1.05
10148,0.21
10160,-0.81
10172,-2.22
10184,-4.08
10196,-6.31
10208,-8.54
10220,-10.35
10232,-11.3
10244,-11.19
10256,-10.07
10268,-8.17
10279,-5.76
10290,-3.11
10302,-0.4
10314,2.19
10326,4.5
10338,6.33
10350,7.54
10362,8.04
10374,7.92
10386,7.31
10398,6.45
10410,5.57
10422,4.82
10434,4.3
10446,3.98
10458,3.79
10469,3.62
10480,3.35
10492,2.94
10504,2.37
10516,1.68
10528,0.96
10540,0.29
10552,-0.29
10564,-0.76
10576,-1.21
10588,-1.76
10600,-2.56
10612,-3.66
10624,-5.03
10636,-6.56
10648,-8.04
10659,-9.28
10670,-10.11
10682,-10.44
10694,-10.23
10706,-9.51
10718,-8.32
10730,-6.74
10742,-4.87
10754,-2.81
10766,-0.72
10778,1.21
10790,2.84
10802,4.06
10814,4.85
10826,5.23
10838,5.27
10849,4.99
10860,4.43
10872,3.65
10884,2.76
10896,1.95
10908,1.37
10920,1.06
10932,0.88
10944,0.58
10956,-0.07
10968,-1.14
10980,-2.46
10992,-3.78
11004,-4.83
11016,-5.56
11028,-6.15
11039,-6.91
11050,-8.15
11062,-9.97
11074,-12.22
11086,-14.51
11098,-16.34
11110,-17.24
11122,-16.97
11134,-15.57
11146,-13.28
11158,-10.48
11170,-7.5
11182,-4.57
11194,-1.81
11206,0.67
11218,2.75
11229,4.28
11240,5.11
11252,5.27
11264,4.94
11276,4.42
11288,4.0
11300,3.83
11312,3.83
11324,3.84
11336,3.62
11348,3.09
11360,2.24
11372,1.21
11384,0.09
11396,-1.04
11408,-2.15
11419,-3.26
11430,-4.36
11442,-5.5
11454,-6.71
11466,-8.08
11478,-9.72
11490,-11.71
11502,-14.0
11514,-16.37
11526,-18.5
11538,-19.98
11550,-20.45
11562,-19.7
11574,-17.76
11586,-14.82
11598,-11.2
11609,-7.25
11620,-3.28
11632,0.46
11644,3.73
11656,6.35
11668,8.17
11680,9.11
11692,9.21
11704,8.67
11716,7.77
11728,6.85
11740,6.21
11752,5.98
11764,6.14
11776,6.49
11788,6.83
11799,6.94
11810,6.74
11822,6.26
11834,5.56
11846,4.74
11858,3.85
11870,2.91
11882,1.9
11894,0.76
11906,-0.57
11918,-2.23
11930,-4.33
11942,-6.97
11954,-10.09
11966,-13.4
11978,-16.37
11989,-18.39
12000,-18.92
12012,-17.76
12024,-15.04
12036,-11.22
12048,-6.87
12060,-2.51
12072,1.56
12084,5.24
12096,8.49
12108,11.24
12120,13.38
12132,14.77
12144,15.37
12156,15.29
12168,14.79
12179,14.2
12190,13.78
12202,13.66
12214,13.8
12226,14.01
12238,14.06
12250,13.76
12262,13.04
12274,12.01
12286,10.86
12298,9.76
12310,8.76
12322,7.76
12334,6.6
12346,5.14
12358,3.39
12369,1.43
12380,-0.62
12392,-2.79
12404,-5.17
12416,-7.85
12428,-10.73
12440,-13.42
12452,-15.36
12464,-15.98
12476,-15.02
12488,-12.56
12500,-9.04
12512,-5.04
12524,-1.09
12536,2.5
12548,5.61
12559,8.22
12570,10.37
12582,12.02
12594,13.14
12606,13.7
12618,13.77
12630,13.48
12642,13.05
12654,12.65
12666,12.42
12678,12.34
12690,12.32
12702,12.21
12714,11.93
12726,11.47
12738,10.92
12749,10.37
12760,9.84
12772,9.26
12784,8.53
12796,7.59
12808,6.44
12820,5.19
12832,3.96
12844,2.8
12856,1.66
12868,0.41
12880,-1.06
12892,-2.7
12904,-4.32
12916,-5.53
12928,-5.94
12939,-5.3
12950,-3.59
12962,-1.03
12974,2.03
12986,5.24
12998,8.32
13010,11.14
13022,13.62
13034,15.69
13046,17.28
13058,18.26
13070,18.58
13082,18.3
13094,17.59
13106,16.74
13118,15.97
13129,15.45
13140,15.17
13152,15.06
13164,15.03
13176,15.05
13188,15.18
13200,15.45
13212,15.82
13224,16.15
13236,16.21
13248,15.86
13260,15.06
13272,13.93
13284,12.71
13296,11.55
13308,10.51
13319,9.52
13330,8.47
13342,7.29
13354,6.02
13366,4.79
13378,3.75
13390,3.01
13402,2.63
13414,2.62
13426,2.93
13438,3.48
13450,4.14
13462,4.76
13474,5.15
13486,5.12
13498,4.57
13509,3.5
13520,2.04
13532,0.43
13544,-1.12
13556,-2.5
13568,-3.72
13580,-4.91
13592,-6.19
13604,-7.66
13616,-9.33
13628,-11.15
13640,-13.07
13652,-15.02
13664,-16.96
13676,-18.88
13688,-20.76
13699,-22.58
13710,-24.38
13722,-26.17
13734,-28.0
13746,-29.83
13758,-31.53
13770,-32.93
13782,-33.82
13794,-34.08
13806,-33.63
13818,-32.48
13830,-30.69
13842,-28.35
13854,-25.6
13866,-22.67
13878,-19.78
13889,-17.12
13900,-14.6
13912,-11.8
13924,-7.93
13936,-2.12
13948,6.24
13960,17.21
13972,30.14
13984,43.94
13996,57.42
14008,69.81
14020,80.96
14032,91.36
14044,101.8
14056,112.9
14068,124.78
14079,136.94
14090,148.47
14102,158.4
14114,166.16
14126,171.85
14138,176.34
14150,180.84
14162,186.34
14174,192.83
14186,198.86
14198,201.63
14210,197.7
14222,184.13
14234,159.46
14246,124.24
14258,81.05
14269,34.0
14280,-11.92
14292,-51.74
14304,-81.54
14316,-99.63
14328,-107.35
14340,-108.83
14352,-109.68
14364,-114.69
14376,-125.86
14388,-141.73
14400,-158.48
14412,-172.14
14424,-180.72
14436,-184.89
14448,-187.06
14459,-189.59
14470,-193.28
14482,-197.28
14494,-199.94
14506,-200.22
14518,-198.33
14530,-195.44
14542,-192.78
14554,-190.73
14566,-188.64
14578,-185.22
14590,-179.21
14602,-169.89
14614,-157.05
14626,-140.79
14638,-121.27
14649,-98.73
14660,-73.62
14672,-46.79
14684,-19.31
14696,7.76
14708,33.69
14720,58.04
14732,80.39
14744,100.13
14756,116.48
14768,128.91
14780,137.67
14792,143.99
14804,149.78
14816,156.77
14828,165.87
14839,176.75
14850,188.2
14862,198.69
14874,207.03
14886,212.62
14898,215.29
14910,215.01
14922,211.65
14934,204.99
14946,194.87
14958,181.32
14970,164.57
14982,144.91
14994,122.55
15006,97.63
15018,70.43
15029,41.63
15040,12.46
15052,-15.41
15064,-40.32
15076,-61.19
15088,-77.83
15100,-90.9
15112,-101.35
15124,-109.73
15136,-115.79
15148,-118.63
15160,-117.29
15172,-111.42
15184,-101.72
15196,-89.74
15208,-77.32
15219,-66.0
15230,-56.86
15242,-50.63
15254,-48.03
15266,-49.77
15278,-56.26
15290,-67.02
15302,-80.33
15314,-93.51
15326,-103.62
15338,-108.58
15350,-107.89
15362,-102.8
15374,-95.83
15386,-89.83
15398,-87.13
15409,-88.98
15420,-95.43
15432,-105.49
15444,-117.47
15456,-129.22
15468,-138.39
15480,-142.68
15492,-140.25
15504,-130.17
15516,-112.78
15528,-89.9
15540,-64.51
15552,-40.05
15564,-19.51
15576,-4.62
15588,4.53
15599,9.24
15610,11.44
15622,12.85
15634,14.34
15646,15.77
15658,16.31
15670,14.99
15682,11.2
15694,4.87
15706,-3.56
15718,-13.28
15730,-23.32
15742,-32.62
15754,-40.14
15766,-44.91
15778,-46.14
15789,-43.46
15800,-37.11
15812,-27.94
15824,-17.23
15836,-6.35
15848,3.71
15860,12.72
15872,21.25
15884,30.32
15896,40.75
15908,52.51
15920,64.43
15932,74.53
15944,80.81
15956,82.11
15968,78.51
15979,71.11
15990,61.41
16002,50.68
16014,39.84
16026,29.81
16038,22.08
16050,18.94
16062,22.89
16074,35.71
16086,57.31
16098,85.28
16110,115.12
16122,141.41
16134,159.3
16146,165.88
16158,161.03
16169,147.4
16180,129.5
16192,112.26
16204,99.52
16216,92.87
16228,91.39
16240,92.36
16252,92.56
16264,89.54
16276,82.43
16288,71.89
16300,59.36
16312,46.28
16324,33.5
16336,21.27
16348,9.62
16359,-1.29
16370,-10.97
16382,-18.83
16394,-24.51
16406,-28.32
16418,-31.22
16430,-34.47
16442,-39.13
16454,-45.51
16466,-53.02
16478,-60.25
16490,-65.52
16502,-67.37
16514,-65.1
16526,-58.94
16538,-50.01
16549,-39.94
16560,-30.53
16572,-23.31
16584,-19.19
16596,-18.43
16608,-20.71
16620,-25.29
16632,-31.24
16644,-37.53
16656,-43.07
16668,-46.76
16680,-47.68
16692,-45.25
16704,-39.51
16716,-31.13
16728,-21.29
16739,-11.26
16750,-1.98
16762,6.09
16774,12.92
16786,18.73
16798,23.66
16810,27.86
16822,31.52
16834,35.05
16846,38.91
16858,43.32
16870,48.01
16882,52.15
16894,54.75
16906,55.17
16918,53.46
16929,50.35
16940,46.82
16952,43.63
16964,40.94
16976,38.34
16988,35.11
17000,30.55
17012,24.21
17024,15.98
17036,6.08
17048,-4.94
17060,-16.24
17072,-26.78
17084,-35.5
17096,-41.53
17108,-44.38
17119,-44.0
17130,-40.72
17142,-35.27
17154,-28.57
17166,-21.68
17178,-15.55
17190,-10.85
17202,-7.82
17214,-6.41
17226,-6.36
17238,-7.45
17250,-9.49
17262,-12.26
17274,-15.46
17286,-18.76
17298,-22.01
17309,-25.36
17320,-29.24
17332,-34.08
17344,-39.98
17356,-46.45
17368,-52.56
17380,-57.33
17392,-60.18
17404,-61.24
17416,-61.4
17428,-61.96
17440,-64.38
17452,-69.87
17464,-79.16
17476,-92.28
17488,-108.43
17499,-125.84
17510,-141.94
17522,-153.9
17534,-159.25
17546,-156.64
17558,-146.28
17570,-129.87
17582,-109.99
17594,-89.25
17606,-69.39
17618,-50.83
17630,-32.67
17642,-13.39
17654,8.27
17666,32.53
17678,58.2
17689,82.95
17700,104.16
17712,119.77
17724,128.96
17736,132.22
17748,131.02
17760,127.19
17772,122.35
17784,117.63
17796,113.65
17808,110.57
17820,108.13
17832,105.6
17844,101.7
17856,94.71
17868,82.93
17879,65.27
17890,41.97
17902,14.96
17914,-12.39
17926,-35.98
17938,-52.29
17950,-59.47
17962,-57.94
17974,-50.12
17986,-39.46
17998,-29.28
18010,-21.8
18022,-17.96
18034,-17.69
18046,-20.44
18058,-25.5
18069,-31.94
18080,-38.48
18092,-43.59
18104,-45.9
18116,-44.81
18128,-40.92
18140,-35.95
18152,-32.1
18164,-31.25
18176,-34.3
18188,-40.97
18200,-50.13
18212,-60.26
18224,-69.93
18236,-78.06
18248,-84.0
18259,-87.59
18270,-89.11
18282,-89.19
18294,-88.54
18306,-87.58
18318,-86.19
18330,-83.64
18342,-78.82
18354,-70.61
18366,-58.36
18378,-42.08
18390,-22.49
18402,-0.85
18414,21.26
18426,42.23
18438,60.57
18449,75.03
18460,84.88
18472,89.87
18484,90.42
18496,87.4
18508,81.93
18520,74.98
18532,67.06
18544,58.15
18556,47.9
18568,36.11
18580,23.18
18592,10.29
18604,-0.84
18616,-8.5
18628,-11.49
18639,-9.4
18650,-2.61
18662,7.95
18674,20.97
18686,34.8
18698,47.59
18710,57.38
18722,62.5
18734,62.12
18746,56.52
18758,47.06
18770,35.81
18782,24.94
18794,16.18
18806,10.55
18818,8.32
18829,9.19
18840,12.45
18852,17.17
18864,22.43
18876,27.42
18888,31.53
18900,34.39
18912,35.82
18924,35.75
18936,34.12
18948,30.94
18960,26.35
18972,20.61
18984,14.22
18996,7.73
19008,1.6
19019,-3.89
19030,-8.73
19042,-13.12
19054,-17.26
19066,-21.29
19078,-25.13
19090,-28.54
19102,-31.26
19114,-33.09
19126,-34.08
19138,-34.49
19150,-34.79
19162,-35.39
19174,-36.55
19186,-38.19
19198,-39.8
19209,-40.63
19220,-39.86
19232,-36.91
19244,-31.6
19256,-24.19
19268,-15.32
19280,-5.75
19292,3.73
19304,12.37
19316,19.51
19328,24.52
19340,26.99
19352,26.74
19364,24.03
19376,19.57
19388,14.35
19399,9.42
19410,5.63
19422,3.33
19434,2.39
19446,2.3
19458,2.47
19470,2.43
19482,2.03
19494,1.34
19506,0.52
19518,-0.33
19530,-1.28
19542,-2.51
19554,-4.27
19566,-6.79
19578,-10.23
19589,-14.61
19600,-19.7
19612,-24.97
19624,-29.55
19636,-32.39
19648,-32.62
19660,-29.78
19672,-24.03
19684,-16.07
19696,-6.9
19708,2.53
19720,11.46
19732,19.33
19744,25.72
19756,30.2
19768,32.38
19779,32.12
19790,29.62
19802,25.5
19814,20.63
19826,15.9
19838,11.98
19850,9.14
19862,7.29
19874,6.13
19886,5.28
19898,4.46
19910,3.5
19922,2.35
19934,1.05
19946,-0.36
19958,-1.83
19969,-3.4
19980,-5.21
19992,-7.5
20004,-10.53
20016,-14.53
20028,-19.52
20040,-25.19
20052,-30.86
20064,-35.57
20076,-38.24
20088,-37.93
20100,-34.16
20112,-26.99
20124,-17.09
20136,-5.58
20148,6.31
20159,17.45
20170,26.98
20182,34.28
20194,39.03
20206,41.05
20218,40.44
20230,37.57
20242,33.1
20254,27.93
20266,22.94
20278,18.83
20290,15.92
20302,14.12
20314,13.03
20326,12.13
20338,11.02
20349,9.49
20360,7.53
20372,5.25
20384,2.8
20396,0.28
20408,-2.25
20420,-4.79
20432,-7.36
20444,-10.05
20456,-13.06
20468,-16.64
20480,-21.05
20492,-26.31
20504,-32.04
20516,-37.39
20528,-41.16
20539,-42.14
20550,-39.52
20562,-33.08
20574,-23.34
20586,-11.38
20598,1.46
20610,13.83
20622,24.64
20634,33.12
20646,38.81
20658,41.6
20670,41.65
20682,39.34
20694,35.27
20706,30.2
20718,24.94
20729,20.28
20740,16.81
20752,14.84
20764,14.3
20776,14.81
20788,15.72
20800,16.38
20812,16.31
20824,15.27
20836,13.35
20848,10.81
20860,7.98
20872,5.09
20884,2.24
20896,-0.62
20908,-3.65
20919,-7.04
20930,-10.96
20942,-15.54
20954,-20.75
20966,-26.34
20978,-31.7
20990,-35.93
