seconds,BVP
2,-29.22
14,-19.56
26,-12.5
38,-9.11
50,-9.19
62,-11.38
74,-13.81
86,-14.84
98,-13.61
110,-10.21
122,-5.41
133,-0.13
144,4.81
156,8.98
168,12.08
180,13.81
192,13.8
204,11.77
216,7.84
228,2.54
240,-3.16
252,-8.28
264,-12.09
276,-14.29
288,-15.07
300,-14.89
312,-14.29
323,-13.72
334,-13.46
346,-13.58
358,-14.04
370,-14.69
382,-15.36
394,-15.96
406,-16.46
418,-16.89
430,-17.35
442,-17.97
454,-18.75
466,-19.64
478,-20.5
490,-21.27
502,-22.03
513,-22.98
524,-24.38
536,-26.3
548,-28.5
560,-30.31
572,-30.89
584,-29.51
596,-25.81
608,-20.08
620,-13.09
632,-5.91
644,0.49
656,5.52
668,8.96
680,10.83
692,11.24
703,10.35
714,8.34
726,5.6
738,2.74
750,0.43
762,-0.77
774,-0.64
786,0.62
798,2.53
810,4.61
822,6.48
834,7.99
846,9.12
858,9.81
870,9.97
882,9.45
893,8.27
904,6.57
916,4.65
928,2.77
940,1.09
952,-0.41
964,-1.89
976,-3.53
988,-5.44
1000,-7.59
1012,-9.85
1024,-11.91
1036,-13.42
1048,-13.95
1060,-13.04
1072,-10.34
1083,-5.7
1094,0.63
1106,8.03
1118,15.54
1130,22.15
1142,27.0
1154,29.64
1166,30.08
1178,28.68
1190,25.93
1202,22.3
1214,18.19
1226,13.99
1238,10.18
1250,7.3
1262,5.77
1273,5.77
1284,7.05
1296,9.0
1308,10.86
1320,12.01
1332,12.14
1344,11.3
1356,9.74
1368,7.75
1380,5.53
1392,3.09
1404,0.5
1416,-2.15
1428,-4.68
1440,-6.85
1452,-8.49
1463,-9.63
1474,-10.44
1486,-11.3
1498,-12.57
1510,-14.48
1522,-16.94
1534,-19.55
1546,-21.67
1558,-22.61
1570,-21.83
1582,-19.08
1594,-14.5
1606,-8.63
1618,-2.23
1630,3.91
1642,9.16
1653,13.19
1664,15.87
1676,17.27
1688,17.48
1700,16.61
1712,14.8
1724,12.34
1736,9.65
1748,7.28
1760,5.72
1772,5.18
1784,5.61
1796,6.74
1808,8.21
1820,9.72
1832,11.07
1843,12.14
1854,12.75
1866,12.77
1878,12.05
1890,10.64
1902,8.71
1914,6.54
1926,4.43
1938,2.55
1950,0.96
1962,-0.45
1974,-1.75
1986,-2.97
1998,-4.1
2010,-5.16
2022,-6.23
2033,-7.44
2044,-8.82
2056,-10.19
2068,-11.14
2080,-11.04
2092,-9.34
2104,-5.82
2116,-0.72
2128,5.32
2140,11.4
2152,16.7
2164,20.64
2176,22.95
2188,23.64
2200,22.83
2212,20.74
2223,17.64
2234,13.92
2246,10.05
2258,6.53
2270,3.81
2282,2.15
2294,1.57
2306,1.89
2318,2.78
2330,3.97
2342,5.19
2354,6.26
2366,7.03
2378,7.32
2390,6.96
2402,5.89
2413,4.11
2424,1.76
2436,-0.93
2448,-3.7
2460,-6.22
2472,-8.25
2484,-9.63
2496,-10.42
2508,-10.81
2520,-11.17
2532,-11.91
2544,-13.23
2556,-15.1
2568,-17.06
2580,-18.53
2592,-18.86
2603,-17.64
2614,-14.76
2626,-10.47
2638,-5.29
2650,0.14
2662,5.13
2674,9.14
2686,11.84
2698,13.08
2710,12.96
2722,11.64
2734,9.41
2746,6.59
2758,3.62
2770,0.93
2782,-1.0
2793,-1.86
2804,-1.61
2816,-0.44
2828,1.25
2840,3.04
2852,4.65
2864,5.94
2876,6.76
2888,7.02
2900,6.55
2912,5.25
2924,3.16
2936,0.44
2948,-2.57
2960,-5.52
2972,-8.11
2983,-10.25
2994,-11.93
3006,-13.3
3018,-14.59
3030,-16.02
3042,-17.77
3054,-19.89
3066,-22.22
3078,-24.36
3090,-25.71
3102,-25.65
3114,-23.77
3126,-20.06
3138,-14.92
3150,-9.09
3162,-3.33
3173,1.71
3184,5.68
3196,8.52
3208,10.34
3220,11.17
3232,11.08
3244,10.04
3256,8.21
3268,5.95
3280,3.85
3292,2.52
3304,2.29
3316,3.15
3328,4.7
3340,6.39
3352,7.76
3363,8.63
3374,9.12
3386,9.43
3398,9.59
3410,9.41
3422,8.57
3434,6.84
3446,4.34
3458,1.5
3470,-1.12
3482,-3.13
3494,-4.48
3506,-5.42
3518,-6.32
3530,-7.51
3542,-9.08
3553,-10.92
3564,-12.85
3576,-14.65
3588,-16.08
3600,-16.84
3612,-16.52
3624,-14.79
3636,-11.47
3648,-6.74
3660,-1.19
3672,4.45
3684,9.43
3696,13.18
3708,15.46
3720,16.3
3732,15.88
3743,14.5
3754,12.45
3766,10.0
3778,7.42
3790,4.93
3802,2.78
3814,1.17
3826,0.27
3838,0.15
3850,0.74
3862,1.83
3874,3.16
3886,4.44
3898,5.51
3910,6.23
3922,6.58
3933,6.48
3944,5.83
3956,4.53
3968,2.6
3980,0.21
3992,-2.38
4004,-4.85
4016,-7.05
4028,-8.93
4040,-10.61
4052,-12.21
4064,-13.81
4076,-15.47
4088,-17.16
4100,-18.75
4112,-19.96
4123,-20.34
4134,-19.38
4146,-16.75
4158,-12.43
4170,-6.85
4182,-0.8
4194,4.85
4206,9.45
4218,12.6
4230,14.33
4242,14.77
4254,14.08
4266,12.38
4278,9.78
4290,6.51
4302,3.05
4313,0.04
4324,-1.91
4336,-2.41
4348,-1.46
4360,0.51
4372,2.85
4384,4.91
4396,6.25
4408,6.75
4420,6.56
4432,5.89
4444,4.88
4456,3.52
4468,1.77
4480,-0.28
4492,-2.41
4503,-4.3
4514,-5.67
4526,-6.41
4538,-6.64
4550,-6.65
4562,-6.78
4574,-7.34
4586,-8.43
4598,-10.08
4610,-12.14
4622,-14.24
4634,-15.9
4646,-16.46
4658,-15.38
4670,-12.42
4682,-7.8
4693,-2.15
4704,3.68
4716,8.89
4728,12.98
4740,15.71
4752,17.09
4764,17.19
4776,16.12
4788,13.99
4800,11.0
4812,7.57
4824,4.2
4836,1.4
4848,-0.47
4860,-1.29
4872,-1.16
4883,-0.35
4894,0.83
4906,2.09
4918,3.26
4930,4.2
4942,4.82
4954,5.0
4966,4.64
4978,3.74
4990,2.36
5002,0.71
5014,-1.0
5026,-2.59
5038,-3.95
5050,-5.11
5062,-6.22
5073,-7.45
5084,-8.98
5096,-10.86
5108,-13.04
5120,-15.29
5132,-17.12
5144,-17.98
5156,-17.29
5168,-14.7
5180,-10.25
5192,-4.38
5204,2.17
5216,8.55
5228,14.03
5240,18.11
5252,20.52
5263,21.23
5274,20.37
5286,18.11
5298,14.8
5310,10.83
5322,6.77
5334,3.2
5346,0.65
5358,-0.58
5370,-0.47
5382,0.65
5394,2.27
5406,3.85
5418,4.95
5430,5.37
5442,5.02
5453,3.95
5464,2.24
5476,0.05
5488,-2.42
5500,-4.87
5512,-7.0
5524,-8.64
5536,-9.83
5548,-10.84
5560,-12.05
5572,-13.76
5584,-16.09
5596,-18.8
5608,-21.41
5620,-23.19
5632,-23.49
5643,-21.85
5654,-18.22
5666,-12.92
5678,-6.58
5690,0.08
5702,6.42
5714,11.94
5726,16.31
5738,19.3
5750,20.72
5762,20.55
5774,18.89
5786,16.11
5798,12.73
5810,9.35
5822,6.47
5833,4.43
5844,3.4
5856,3.44
5868,4.4
5880,5.99
5892,7.79
5904,9.29
5916,10.08
5928,9.88
5940,8.75
5952,6.94
5964,4.87
5976,2.95
5988,1.37
6000,0.16
6012,-0.82
6023,-1.82
6034,-3.18
6046,-5.16
6058,-7.95
6070,-11.52
6082,-15.56
6094,-19.52
6106,-22.6
6118,-24.05
6130,-23.36
6142,-20.42
6154,-15.59
6166,-9.54
6178,-3.07
6190,3.12
6202,8.52
6213,12.81
6224,15.76
6236,17.22
6248,17.13
6260,15.61
6272,12.89
6284,9.51
6296,6.15
6308,3.41
6320,1.71
6332,1.16
6344,1.54
6356,2.44
6368,3.44
6380,4.2
6392,4.54
6403,4.49
6414,4.09
6426,3.35
6438,2.19
6450,0.59
6462,-1.39
6474,-3.57
6486,-5.65
6498,-7.41
6510,-8.81
6522,-10.01
6534,-11.21
6546,-12.62
6558,-14.24
6570,-15.84
6582,-17.1
6593,-17.63
6604,-17.09
6616,-15.23
6628,-11.91
6640,-7.17
6652,-1.31
6664,5.07
6676,11.25
6688,16.52
6700,20.39
6712,22.71
6724,23.52
6736,22.99
6748,21.27
6760,18.57
6772,15.24
6783,11.79
6794,8.82
6806,6.91
6818,6.34
6830,7.08
6842,8.72
6854,10.68
6866,12.42
6878,13.58
6890,14.03
6902,13.84
6914,13.15
6926,12.13
6938,10.77
6950,9.07
6962,6.95
6973,4.41
6984,1.63
6996,-1.13
7008,-3.58
7020,-5.6
7032,-7.23
7044,-8.75
7056,-10.46
7068,-12.47
7080,-14.62
7092,-16.44
7104,-17.31
7116,-16.7
7128,-14.36
7140,-10.44
7152,-5.39
7163,0.21
7174,5.7
7186,10.57
7198,14.39
7210,16.79
7222,17.59
7234,16.72
7246,14.4
7258,11.09
7270,7.47
7282,4.26
7294,2.11
7306,1.35
7318,2.0
7330,3.7
7342,5.84
7353,7.8
7364,9.15
7376,9.76
7388,9.73
7400,9.29
7412,8.66
7424,7.83
7436,6.76
7448,5.41
7460,3.84
7472,2.14
7484,0.44
7496,-1.27
7508,-3.06
7520,-4.97
7532,-6.98
7543,-9.01
7554,-10.96
7566,-12.79
7578,-14.51
7590,-15.98
7602,-16.84
7614,-16.55
7626,-14.6
7638,-10.8
7650,-5.49
7662,0.63
7674,6.61
7686,11.7
7698,15.46
7710,17.73
7722,18.58
7733,18.09
7744,16.39
7756,13.76
7768,10.68
7780,7.77
7792,5.67
7804,4.7
7816,4.83
7828,5.67
7840,6.72
7852,7.61
7864,8.21
7876,8.67
7888,9.1
7900,9.56
7912,9.86
7923,9.71
7934,8.88
7946,7.33
7958,5.24
7970,2.94
7982,0.68
7994,-1.36
8006,-3.15
8018,-4.75
8030,-6.24
8042,-7.63
8054,-8.97
8066,-10.34
8078,-11.86
8090,-13.62
8102,-15.52
8113,-17.2
8124,-18.06
8136,-17.46
8148,-14.94
8160,-10.48
8172,-4.52
8184,2.18
8196,8.7
8208,14.27
8220,18.4
8232,20.9
8244,21.87
8256,21.45
8268,19.84
8280,17.33
8292,14.26
8303,11.06
8314,8.21
8326,6.07
8338,4.74
8350,4.13
8362,3.97
8374,3.99
8386,4.02
8398,4.05
8410,4.01
8422,3.81
8434,3.28
8446,2.18
8458,0.43
8470,-1.91
8482,-4.58
8493,-7.28
8504,-9.8
8516,-12.03
8528,-13.98
8540,-15.75
8552,-17.48
8564,-19.27
8576,-21.27
8588,-23.56
8600,-25.98
8612,-28.2
8624,-29.62
8636,-29.54
8648,-27.49
8660,-23.37
8672,-17.53
8683,-10.73
8694,-3.83
8706,2.41
8718,7.47
8730,11.06
8742,13.11
8754,13.63
8766,12.75
8778,10.75
8790,8.03
8802,5.12
8814,2.52
8826,0.63
8838,-0.39
8850,-0.61
8862,-0.2
8873,0.58
8884,1.53
8896,2.45
8908,3.25
8920,3.78
8932,3.92
8944,3.6
8956,2.72
8968,1.27
8980,-0.66
8992,-2.84
9004,-5.02
9016,-6.89
9028,-8.38
9040,-9.6
9052,-10.83
9063,-12.37
9074,-14.41
9086,-16.94
9098,-19.71
9110,-22.43
9122,-24.71
9134,-26.18
9146,-26.46
9158,-25.2
9170,-22.25
9182,-17.67
9194,-11.89
9206,-5.56
9218,0.54
9230,5.76
9242,9.61
9253,11.87
9264,12.48
9276,11.55
9288,9.36
9300,6.31
9312,2.9
9324,-0.35
9336,-2.97
9348,-4.7
9360,-5.36
9372,-4.93
9384,-3.52
9396,-1.28
9408,1.48
9420,4.39
9432,7.01
9443,8.99
9454,10.01
9466,9.95
9478,8.9
9490,7.09
9502,4.91
9514,2.64
9526,0.45
9538,-1.65
9550,-3.74
9562,-5.94
9574,-8.28
9586,-10.69
9598,-13.06
9610,-15.3
9622,-17.41
9633,-19.27
9644,-20.67
9656,-21.13
9668,-20.16
9680,-17.38
9692,-12.83
9704,-6.96
9716,-0.6
9728,5.4
9740,10.39
9752,14.03
9764,16.25
9776,17.13
9788,16.72
9800,15.14
9812,12.6
9823,9.51
9834,6.52
9846,4.25
9858,3.17
9870,3.32
9882,4.48
9894,6.15
9906,7.87
9918,9.26
9930,10.19
9942,10.68
9954,10.8
9966,10.63
9978,10.16
9990,9.37
10002,8.16
10013,6.58
10024,4.69
10036,2.66
10048,0.72
10060,-1.04
10072,-2.6
10084,-4.06
10096,-5.48
10108,-7.01
10120,-8.68
10132,-10.53
10144,-12.52
10156,-14.46
10168,-15.98
10180,-16.61
10192,-15.83
10203,-13.34
10214,-9.23
10226,-3.97
10238,1.72
10250,7.1
10262,11.64
10274,15.01
10286,17.1
10298,17.83
10310,17.2
10322,15.35
10334,12.61
10346,9.52
10358,6.63
10370,4.46
10382,3.24
10393,2.96
10404,3.38
10416,4.22
10428,5.23
10440,6.23
10452,7.09
10464,7.7
10476,7.97
10488,7.84
10500,7.26
10512,6.26
10524,4.85
10536,3.1
10548,1.11
10560,-1.04
10572,-3.23
10583,-5.36
10594,-7.32
10606,-9.07
10618,-10.56
10630,-11.85
10642,-13.02
10654,-14.21
10666,-15.51
10678,-16.82
10690,-17.8
10702,-17.89
10714,-16.53
10726,-13.34
10738,-8.43
10750,-2.34
10762,4.1
10773,10.02
10784,14.81
10796,18.13
10808,19.88
10820,20.08
10832,18.83
10844,16.32
10856,12.89
10868,9.12
10880,5.65
10892,3.07
10904,1.74
10916,1.64
10928,2.53
10940,3.99
10952,5.62
10963,7.07
10974,8.16
10986,8.75
10998,8.8
11010,8.34
11022,7.41
11034,6.06
11046,4.34
11058,2.28
11070,-0.08
11082,-2.63
11094,-5.25
11106,-7.78
11118,-10.1
11130,-12.24
11142,-14.33
11153,-16.58
11164,-19.2
11176,-22.19
11188,-25.21
11200,-27.7
11212,-28.92
11224,-28.3
11236,-25.57
11248,-20.91
11260,-14.84
11272,-8.07
11284,-1.29
11296,4.92
11308,10.15
11320,14.05
11332,16.37
11343,16.9
11354,15.67
11366,12.99
11378,9.57
11390,6.26
11402,3.9
11414,2.99
11426,3.57
11438,5.27
11450,7.48
11462,9.6
11474,11.24
11486,12.24
11498,12.57
11510,12.25
11522,11.3
11533,9.73
11544,7.66
11556,5.29
11568,2.89
11580,0.66
11592,-1.26
11604,-2.91
11616,-4.38
11628,-5.76
11640,-7.14
11652,-8.59
11664,-10.14
11676,-11.86
11688,-13.84
11700,-16.12
11712,-18.61
11723,-20.96
11734,-22.62
11746,-22.95
11758,-21.42
11770,-17.84
11782,-12.49
11794,-6.12
11806,0.39
11818,6.21
11830,10.85
11842,14.13
11854,16.06
11866,16.71
11878,16.19
11890,14.64
11902,12.32
11913,9.7
11924,7.32
11936,5.7
11948,5.12
11960,5.54
11972,6.66
11984,7.99
11996,9.05
12008,9.58
12020,9.61
12032,9.34
12044,9.06
12056,8.92
12068,8.82
12080,8.48
12092,7.52
12103,5.71
12114,3.1
12126,0.02
12138,-3.1
12150,-5.92
12162,-8.25
12174,-10.19
12186,-11.92
12198,-13.7
12210,-15.73
12222,-18.08
12234,-20.66
12246,-23.23
12258,-25.32
12270,-26.34
12282,-25.72
12293,-23.13
12304,-18.62
12316,-12.66
12328,-5.95
12340,0.77
12352,6.87
12364,11.95
12376,15.72
12388,17.9
12400,18.36
12412,17.05
12424,14.34
12436,10.89
12448,7.55
12460,5.13
12472,4.09
12483,4.45
12494,5.91
12506,8.01
12518,10.3
12530,12.43
12542,14.21
12554,15.53
12566,16.3
12578,16.48
12590,16.06
12602,15.11
12614,13.73
12626,11.95
12638,9.82
12650,7.38
12662,4.74
12673,2.07
12684,-0.5
12696,-2.91
12708,-5.16
12720,-7.33
12732,-9.53
12744,-11.78
12756,-14.07
12768,-16.32
12780,-18.35
12792,-19.85
12804,-20.36
12816,-19.42
12828,-16.71
12840,-12.29
12852,-6.55
12863,-0.19
12874,6.0
12886,11.41
12898,15.68
12910,18.63
12922,20.16
12934,20.16
12946,18.63
12958,15.75
12970,11.98
12982,8.02
12994,4.67
13006,2.53
13018,1.89
13030,2.55
13042,4.05
13053,5.82
13064,7.41
13076,8.57
13088,9.31
13100,9.78
13112,10.0
13124,9.89
13136,9.22
13148,7.77
13160,5.48
13172,2.5
13184,-0.73
13196,-3.71
13208,-5.96
13220,-7.28
13232,-7.74
13243,-7.69
13254,-7.63
13266,-8.01
13278,-9.17
13290,-11.19
13302,-13.87
13314,-16.78
13326,-19.3
13338,-20.82
13350,-20.77
13362,-18.87
13374,-15.09
13386,-9.8
13398,-3.59
13410,2.81
13422,8.77
13433,13.83
13444,17.68
13456,20.05
13468,20.76
13480,19.8
13492,17.36
13504,13.95
13516,10.27
13528,7.05
13540,4.83
13552,3.78
13564,3.8
13576,4.62
13588,5.89
13600,7.36
13612,8.78
13623,9.85
13634,10.3
13646,9.92
13658,8.61
13670,6.47
13682,3.75
13694,0.73
13706,-2.28
13718,-5.0
13730,-7.3
13742,-9.15
13754,-10.63
13766,-11.96
13778,-13.36
13790,-14.98
13802,-16.87
13813,-18.93
13824,-20.92
13836,-22.53
13848,-23.35
13860,-22.9
13872,-20.79
13884,-16.84
13896,-11.22
13908,-4.48
13920,2.56
13932,9.16
13944,14.67
13956,18.79
13968,21.41
13980,22.48
13992,22.04
14003,20.17
14014,17.2
14026,13.65
14038,10.17
14050,7.31
14062,5.38
14074,4.37
14086,4.09
14098,4.34
14110,4.96
14122,5.87
14134,6.98
14146,8.06
14158,8.79
14170,8.84
14182,8.01
14193,6.3
14204,3.97
14216,1.35
14228,-1.22
14240,-3.61
14252,-5.86
14264,-8.13
14276,-10.57
14288,-13.25
14300,-16.16
14312,-19.2
14324,-22.19
14336,-24.9
14348,-26.93
14360,-27.78
14372,-26.96
14383,-24.15
14394,-19.37
14406,-13.01
14418,-5.78
14430,1.57
14442,8.3
14454,13.88
14466,18.0
14478,20.49
14490,21.35
14502,20.77
14514,19.1
14526,16.83
14538,14.51
14550,12.59
14562,11.36
14573,10.92
14584,11.2
14596,11.98
14608,12.99
14620,13.93
14632,14.55
14644,14.65
14656,14.16
14668,13.09
14680,11.56
14692,9.65
14704,7.44
14716,5.0
14728,2.43
14740,-0.2
14752,-2.73
14763,-5.11
14774,-7.3
14786,-9.41
14798,-11.67
14810,-14.36
14822,-17.62
14834,-21.31
14846,-24.95
14858,-27.78
14870,-29.0
14882,-28.05
14894,-24.78
14906,-19.59
14918,-13.23
14930,-6.52
14942,-0.26
14953,5.0
14964,8.93
14976,11.33
14988,12.12
15000,11.36
15012,9.3
15024,6.39
15036,3.27
15048,0.54
15060,-1.28
15072,-1.87
15084,-1.17
15096,0.57
15108,2.95
15120,5.47
15132,7.71
15143,9.41
15154,10.44
15166,10.75
15178,10.39
15190,9.38
15202,7.75
15214,5.66
15226,3.34
15238,1.07
15250,-0.9
15262,-2.52
15274,-3.92
15286,-5.31
15298,-6.98
15310,-9.1
15322,-11.61
15333,-14.31
15344,-16.79
15356,-18.54
15368,-19.06
15380,-17.94
15392,-14.99
15404,-10.39
15416,-4.59
15428,1.82
15440,8.13
15452,13.66
15464,17.96
15476,20.71
15488,21.74
15500,21.08
15512,18.81
15523,15.28
15534,11.02
15546,6.7
15558,3.0
15570,0.46
15582,-0.71
15594,-0.67
15606,0.16
15618,1.25
15630,2.14
15642,2.59
15654,2.57
15666,2.14
15678,1.41
15690,0.43
15702,-0.84
15713,-2.39
15724,-4.12
15736,-5.89
15748,-7.49
15760,-8.8
15772,-9.78
15784,-10.52
15796,-11.24
15808,-12.16
15820,-13.45
15832,-15.15
15844,-17.02
15856,-18.63
15868,-19.39
15880,-18.7
15892,-16.17
15903,-11.79
15914,-6.02
15926,0.36
15938,6.44
15950,11.51
15962,15.17
15974,17.28
15986,17.95
15998,17.31
16010,15.55
16022,12.89
16034,9.74
16046,6.65
16058,4.22
16070,2.88
16082,2.7
16093,3.4
16104,4.5
16116,5.47
16128,5.96
16140,5.81
16152,5.04
16164,3.69
16176,1.88
16188,-0.3
16200,-2.67
16212,-4.95
16224,-6.87
16236,-8.26
16248,-9.16
16260,-9.81
16272,-10.52
16283,-11.46
16294,-12.69
16306,-14.13
16318,-15.64
16330,-17.12
16342,-18.4
16354,-19.23
16366,-19.23
16378,-17.95
16390,-15.11
16402,-10.75
16414,-5.32
16426,0.49
16438,5.93
16450,10.46
16462,13.78
16473,15.79
16484,16.48
16496,15.94
16508,14.41
16520,12.26
16532,10.01
16544,8.17
16556,7.09
16568,6.89
16580,7.4
16592,8.31
16604,9.29
16616,10.09
16628,10.56
16640,10.64
16652,10.3
16663,9.59
16674,8.62
16686,7.43
16698,6.12
16710,4.72
16722,3.21
16734,1.56
16746,-0.29
16758,-2.45
16770,-5.07
16782,-8.23
16794,-11.96
16806,-15.94
16818,-19.49
16830,-21.69
16842,-21.61
16853,-18.73
16864,-13.18
16876,-5.8
16888,2.13
16900,9.33
16912,14.9
16924,18.53
16936,20.27
16948,20.41
16960,19.15
16972,16.63
16984,13.09
16996,9.01
17008,5.08
17020,2.09
17032,0.59
17043,0.68
17054,2.0
17066,3.89
17078,5.71
17090,7.07
17102,7.81
17114,8.0
17126,7.75
17138,7.1
17150,6.05
17162,4.6
17174,2.82
17186,0.82
17198,-1.23
17210,-3.25
17222,-5.15
17233,-6.93
17244,-8.63
17256,-10.39
17268,-12.3
17280,-14.4
17292,-16.5
17304,-18.15
17316,-18.66
17328,-17.32
17340,-13.71
17352,-7.94
17364,-0.74
17376,6.79
17388,13.53
17400,18.67
17412,21.89
17423,23.3
17434,23.15
17446,21.68
17458,19.08
17470,15.58
17482,11.61
17494,7.8
17506,4.85
17518,3.25
17530,3.09
17542,4.0
17554,5.4
17566,6.73
17578,7.67
17590,8.15
17602,8.3
17613,8.22
17624,7.92
17636,7.27
17648,6.08
17660,4.27
17672,1.9
17684,-0.85
17696,-3.66
17708,-6.24
17720,-8.43
17732,-10.23
17744,-11.8
17756,-13.46
17768,-15.47
17780,-17.89
17792,-20.48
17803,-22.69
17814,-23.79
17826,-23.15
17838,-20.45
17850,-15.78
17862,-9.65
17874,-2.84
17886,3.87
17898,9.8
17910,14.42
17922,17.46
17934,18.76
17946,18.41
17958,16.68
17970,13.96
17982,10.78
17993,7.78
18004,5.48
18016,4.27
18028,4.24
18040,5.17
18052,6.64
18064,8.08
18076,9.05
18088,9.37
18100,9.11
18112,8.49
18124,7.72
18136,6.86
18148,5.77
18160,4.26
18172,2.14
18183,-0.47
18194,-3.29
18206,-5.92
18218,-8.06
18230,-9.55
18242,-10.44
18254,-10.91
18266,-11.17
18278,-11.43
18290,-11.86
18302,-12.67
18314,-13.98
18326,-15.76
18338,-17.68
18350,-19.11
18362,-19.3
18373,-17.55
18384,-13.59
18396,-7.72
18408,-0.71
18420,6.42
18432,12.74
18444,17.69
18456,21.02
18468,22.68
18480,22.73
18492,21.14
18504,18.01
18516,13.7
18528,8.79
18540,4.14
18552,0.54
18563,-1.5
18574,-1.87
18586,-0.9
18598,0.83
18610,2.8
18622,4.6
18634,6.0
18646,6.9
18658,7.25
18670,7.05
18682,6.31
18694,5.11
18706,3.52
18718,1.64
18730,-0.47
18742,-2.8
18753,-5.3
18764,-7.9
18776,-10.46
18788,-12.78
18800,-14.7
18812,-16.22
18824,-17.49
18836,-18.73
18848,-20.2
18860,-22.0
18872,-23.96
18884,-25.69
18896,-26.59
18908,-26.1
18920,-23.91
18932,-20.06
18943,-14.91
18954,-9.06
18966,-3.11
18978,2.42
18990,7.14
19002,10.74
19014,12.98
19026,13.65
19038,12.7
19050,10.35
19062,7.19
19074,4.03
19086,1.7
19098,0.75
19110,1.3
19122,3.02
19133,5.38
19144,7.78
19156,9.8
19168,11.2
19180,11.96
19192,12.16
19204,11.86
19216,11.19
19228,10.28
19240,9.21
19252,8.06
19264,6.85
19276,5.56
19288,4.24
19300,2.89
19312,1.58
19323,0.4
19334,-0.61
19346,-1.44
19358,-2.15
19370,-2.86
19382,-3.76
19394,-4.99
19406,-6.68
19418,-8.75
19430,-10.86
19442,-12.41
19454,-12.76
19466,-11.37
19478,-8.13
19490,-3.41
19502,2.1
19513,7.56
19524,12.25
19536,15.71
19548,17.69
19560,18.09
19572,16.9
19584,14.19
19596,10.25
19608,5.59
19620,0.96
19632,-2.93
19644,-5.54
19656,-6.73
19668,-6.71
19680,-5.94
19692,-4.93
19703,-3.98
19714,-3.21
19726,-2.57
19738,-1.94
19750,-1.34
19762,-0.88
19774,-0.75
19786,-1.08
19798,-1.84
19810,-2.89
19822,-3.98
19834,-4.94
19846,-5.76
19858,-6.56
19870,-7.51
19882,-8.7
19893,-10.1
19904,-11.61
19916,-13.09
19928,-14.51
19940,-15.74
19952,-16.56
19964,-16.55
19976,-15.31
19988,-12.53
20000,-8.27
20012,-2.98
20024,2.61
20036,7.74
20048,11.79
20060,14.42
20072,15.53
20083,15.23
20094,13.68
20106,11.11
20118,7.78
20130,4.1
20142,0.54
20154,-2.42
20166,-4.37
20178,-5.11
20190,-4.73
20202,-3.56
20214,-2.08
20226,-0.76
20238,0.2
20250,0.76
20262,1.04
20273,1.11
20284,0.92
20296,0.23
20308,-1.18
20320,-3.3
20332,-5.88
20344,-8.38
20356,-10.33
20368,-11.51
20380,-12.02
20392,-12.29
20404,-12.87
20416,-14.15
20428,-16.26
20440,-18.94
20452,-21.6
20463,-23.56
20474,-24.14
20486,-22.83
20498,-19.52
20510,-14.47
20522,-8.31
20534,-1.82
20546,4.18
20558,9.14
20570,12.67
20582,14.68
20594,15.21
20606,14.41
20618,12.54
20630,9.95
20642,7.07
20653,4.33
20664,2.12
20676,0.66
20688,0.0
20700,0.07
20712,0.71
20724,1.73
20736,2.91
20748,3.97
20760,4.64
20772,4.73
20784,4.18
20796,3.07
20808,1.56
20820,-0.21
20832,-2.12
20843,-4.09
20854,-6.1
20866,-8.08
20878,-9.91
20890,-11.45
20902,-12.69
20914,-13.76
20926,-14.94
20938,-16.46
20950,-18.28
20962,-20.0
20974,-20.9
20986,-20.21
20998,-17.49
