seconds,BVP
3,5.91
15,6.0
27,8.89
39,12.69
51,15.88
63,17.76
75,18.45
87,18.56
99,18.63
111,18.92
123,19.25
135,19.34
146,18.98
157,18.21
169,17.13
181,15.85
193,14.38
205,12.81
217,11.24
229,9.79
241,8.38
253,6.55
265,3.55
277,-1.3
289,-8.09
301,-16.21
313,-24.37
325,-31.07
336,-35.24
347,-36.47
359,-35.06
371,-31.7
383,-27.18
395,-22.17
407,-17.17
419,-12.67
431,-9.2
443,-7.38
455,-7.78
467,-10.84
479,-16.77
491,-25.36
503,-35.95
515,-47.52
526,-58.93
537,-69.23
549,-77.94
561,-85.01
573,-90.65
585,-95.01
597,-97.99
609,-99.31
621,-98.75
633,-96.45
645,-93.0
657,-89.34
669,-86.35
681,-84.57
693,-84.05
705,-84.47
716,-85.48
727,-86.91
739,-88.98
751,-92.09
763,-96.62
775,-102.69
787,-109.97
799,-117.8
811,-125.42
823,-132.19
835,-137.8
847,-142.2
859,-145.57
871,-148.18
883,-150.29
895,-152.08
906,-153.65
917,-155.11
929,-156.68
941,-158.73
953,-161.71
965,-166.05
977,-172.17
989,-180.18
1001,-189.74
1013,-200.12
1025,-210.26
1037,-219.08
1049,-225.93
1061,-230.52
1073,-233.19
1085,-234.98
1096,-237.03
1107,-240.12
1119,-244.26
1131,-248.82
1143,-252.71
1155,-255.08
1167,-254.94
1179,-251.34
1191,-243.89
1203,-232.11
1215,-215.57
1227,-194.15
1239,-168.43
1251,-139.67
1263,-109.85
1275,-80.14
1286,-50.96
1297,-23.0
1309,3.08
1321,26.27
1333,45.17
1345,58.56
1357,66.15
1369,68.67
1381,68.92
1393,70.29
1405,74.44
1417,81.51
1429,90.25
1441,98.86
1453,105.94
1465,113.77
1476,119.55
1487,119.6
1499,115.92
1511,108.9
1523,98.19
1535,83.71
1547,66.32
1559,47.95
1571,31.1
1583,17.77
1595,10.03
1607,9.07
1619,13.98
1631,23.04
1643,34.4
1655,46.52
1666,58.51
1677,70.14
1689,81.32
1701,92.79
1713,105.51
1725,119.62
1737,135.14
1749,151.84
1761,169.0
1773,185.25
1785,198.66
1797,207.09
1809,209.52
1821,206.36
1833,198.92
1845,189.37
1856,179.94
1867,172.09
1879,166.21
1891,161.75
1903,157.63
1915,153.02
1927,147.6
1939,141.25
1951,134.09
1963,126.31
1975,118.01
1987,109.21
1999,99.88
2011,90.01
2023,79.71
2035,69.25
2046,58.85
2057,48.71
2069,39.05
2081,29.96
2093,21.45
2105,13.44
2117,5.76
2129,-1.85
2141,-9.7
2153,-18.11
2165,-27.22
2177,-36.78
2189,-46.0
2201,-53.52
2213,-57.64
2225,-56.77
2236,-50.04
2247,-37.58
2259,-20.63
2271,-1.14
2283,18.77
2295,37.26
2307,53.12
2319,65.7
2331,74.78
2343,80.42
2355,82.85
2367,82.52
2379,80.09
2391,76.38
2403,72.21
2415,68.23
2426,64.85
2437,62.22
2449,60.37
2461,59.16
2473,58.49
2485,58.19
2497,58.03
2509,57.72
2521,56.97
2533,55.53
2545,53.33
2557,50.57
2569,47.61
2581,44.87
2593,42.59
2605,40.79
2616,39.23
2627,37.51
2639,35.35
2651,32.62
2663,29.32
2675,25.51
2687,21.17
2699,16.13
2711,10.14
2723,2.97
2735,-5.52
2747,-15.34
2759,-26.4
2771,-38.44
2783,-50.81
2795,-62.41
2806,-71.73
2817,-77.07
2829,-77.04
2841,-71.04
2853,-59.54
2865,-44.01
2877,-26.53
2889,-9.19
2901,6.48
2913,19.78
2925,30.73
2937,39.72
2949,47.11
2961,53.01
2973,57.25
2985,59.66
2996,60.34
3007,59.71
3019,58.45
3031,57.24
3043,56.5
3055,56.33
3067,56.55
3079,56.97
3091,57.47
3103,58.02
3115,58.59
3127,58.97
3139,58.71
3151,57.23
3163,54.11
3175,49.29
3186,43.13
3197,36.34
3209,29.64
3221,23.57
3233,18.25
3245,13.44
3257,8.7
3269,3.62
3281,-2.06
3293,-8.38
3305,-15.23
3317,-22.35
3329,-29.49
3341,-36.46
3353,-43.21
3365,-49.9
3376,-56.94
3387,-64.81
3399,-73.97
3411,-84.5
3423,-95.94
3435,-107.09
3447,-116.07
3459,-120.92
3471,-120.35
3483,-113.86
3495,-101.85
3507,-85.64
3519,-66.97
3531,-47.54
3543,-28.67
3555,-11.14
3566,4.45
3577,17.42
3589,27.3
3601,33.89
3613,37.32
3625,38.05
3637,36.83
3649,34.58
3661,32.49
3673,31.41
3685,31.27
3697,31.96
3709,33.52
3721,35.89
3733,39.03
3745,42.89
3756,47.32
3767,52.81
3779,59.16
3791,64.26
3803,66.95
3815,67.45
3827,66.57
3839,65.52
3851,65.4
3863,66.7
3875,70.79
3887,77.38
3899,82.35
3911,83.46
3923,81.27
3935,77.2
3946,73.08
3957,70.31
3969,69.18
3981,71.54
3993,77.05
4005,79.68
4017,76.62
4029,69.13
4041,59.22
4053,49.21
4065,41.46
4077,38.27
4089,45.28
4101,65.31
4113,91.59
4125,117.58
4136,138.41
4147,149.07
4159,147.39
4171,135.85
4183,97.82
4195,33.55
4207,-13.69
4219,-31.34
4231,-31.39
4243,-22.26
4255,-11.31
4267,-3.35
4279,-0.57
4291,-3.52
4303,-8.61
4315,-14.14
4326,-25.83
4337,-45.93
4349,-72.08
4361,-101.34
4373,-130.42
4385,-156.4
4397,-177.22
4409,-189.24
4421,-191.29
4433,-188.62
4445,-184.3
4457,-178.15
4469,-169.77
4481,-158.81
4493,-145.34
4505,-130.13
4516,-112.75
4527,-93.81
4539,-77.17
4551,-64.52
4563,-54.98
4575,-47.27
4587,-40.09
4599,-32.55
4611,-24.56
4623,-15.87
4635,-7.16
4647,-0.83
4659,1.96
4671,1.64
4683,-0.77
4695,-4.14
4706,-7.6
4717,-10.89
4729,-14.0
4741,-17.33
4753,-21.89
4765,-28.11
4777,-35.8
4789,-44.43
4801,-53.16
4813,-60.9
4825,-66.31
4837,-68.1
4849,-65.31
4861,-57.68
4873,-45.79
4885,-30.91
4896,-14.62
4907,1.63
4919,16.85
4931,30.49
4943,42.28
4955,52.05
4967,59.58
4979,64.69
4991,67.4
5003,68.03
5015,67.22
5027,65.7
5039,64.15
5051,63.02
5063,62.47
5075,62.42
5086,62.64
5097,62.87
5109,62.8
5121,62.12
5133,60.53
5145,57.74
5157,53.53
5169,47.71
5181,40.23
5193,31.28
5205,21.3
5217,11.04
5229,1.43
5241,-6.61
5253,-12.51
5265,-16.15
5276,-17.96
5287,-18.71
5299,-19.2
5311,-19.99
5323,-21.28
5335,-22.96
5347,-24.86
5359,-26.91
5371,-29.27
5383,-32.24
5395,-36.17
5407,-41.34
5419,-47.78
5431,-55.19
5443,-62.88
5455,-69.79
5466,-74.67
5477,-76.33
5489,-74.04
5501,-67.79
5513,-58.35
5525,-47.0
5537,-35.08
5549,-23.61
5561,-13.05
5573,-3.42
5585,5.46
5597,13.63
5609,20.96
5621,27.17
5633,32.04
5645,35.56
5656,37.97
5667,39.68
5679,41.09
5691,42.45
5703,43.79
5715,44.97
5727,45.8
5739,46.17
5751,46.04
5763,45.52
5775,44.72
5787,43.62
5799,42.06
5811,39.75
5823,36.44
5835,32.0
5846,26.48
5857,20.1
5869,13.12
5881,5.91
5893,-1.23
5905,-7.96
5917,-13.99
5929,-19.17
5941,-23.6
5953,-27.74
5965,-32.34
5977,-38.25
5989,-46.04
6001,-55.71
6013,-66.41
6025,-76.48
6036,-83.69
6047,-85.9
6059,-81.65
6071,-70.64
6083,-53.92
6095,-33.51
6107,-11.88
6119,8.71
6131,26.57
6143,40.75
6155,51.1
6167,58.14
6179,63.05
6191,67.36
6203,72.63
6215,79.98
6226,89.57
6237,100.52
6249,111.05
6261,119.05
6273,122.64
6285,120.55
6297,112.33
6309,98.25
6321,79.25
6333,56.89
6345,33.26
6357,10.71
6369,-8.57
6381,-23.03
6393,-32.1
6405,-36.35
6416,-37.21
6427,-36.61
6439,-36.43
6451,-38.15
6463,-42.66
6475,-50.18
6487,-60.39
6499,-72.4
6511,-84.87
6523,-96.23
6535,-104.88
6547,-109.62
6559,-109.9
6571,-105.95
6583,-98.7
6595,-89.38
6606,-79.19
6617,-68.95
6629,-58.98
6641,-49.24
6653,-39.47
6665,-29.4
6677,-18.89
6689,-7.99
6701,3.07
6713,13.88
6725,23.94
6737,32.78
6749,40.21
6761,46.44
6773,52.13
6785,58.24
6796,65.79
6807,75.37
6819,86.97
6831,99.85
6843,112.79
6855,124.5
6867,134.09
6879,141.29
6891,146.39
6903,149.82
6915,151.71
6927,151.63
6939,148.74
6951,142.21
6963,131.79
6975,118.01
6986,102.05
6997,85.19
7009,68.36
7021,51.87
7033,35.6
7045,19.37
7057,3.35
7069,-11.95
7081,-25.89
7093,-38.06
7105,-48.53
7117,-57.89
7129,-67.05
7141,-76.85
7153,-87.84
7165,-100.14
7176,-113.48
7187,-127.51
7199,-141.93
7211,-156.61
7223,-171.53
7235,-186.67
7247,-201.87
7259,-216.77
7271,-230.93
7283,-243.87
7295,-255.15
7307,-264.25
7319,-270.54
7331,-273.21
7343,-271.4
7355,-264.42
7366,-252.03
7377,-234.54
7389,-212.75
7401,-187.82
7413,-161.07
7425,-133.97
7437,-108.08
7449,-84.98
7461,-66.06
7473,-52.19
7485,-43.41
7497,-38.91
7509,-37.24
7521,-36.65
7533,-35.61
7545,-33.08
7556,-28.67
7567,-22.44
7579,-14.73
7591,-5.91
7603,3.77
7615,14.26
7627,25.7
7639,38.27
7651,51.94
7663,66.19
7675,79.95
7687,91.77
7699,100.29
7711,104.79
7723,105.59
7735,104.02
7746,102.04
7757,101.55
7769,103.84
7781,109.22
7793,117.15
7805,126.65
7817,136.64
7829,146.28
7841,154.85
7853,161.6
7865,165.52
7877,165.45
7889,160.34
7901,149.7
7913,133.88
7925,114.07
7936,91.87
7947,68.84
7959,46.15
7971,24.62
7983,5.0
7995,-11.76
8007,-24.44
8019,-31.89
8031,-33.64
8043,-30.25
8055,-23.35
8067,-15.16
8079,-7.71
8091,-2.27
8103,0.9
8115,2.28
8126,2.55
8137,2.16
8149,1.15
8161,-0.62
8173,-3.12
8185,-5.9
8197,-8.17
8209,-9.24
8221,-8.88
8233,-7.53
8245,-6.06
8257,-5.24
8269,-5.31
8281,-5.82
8293,-5.95
8305,-4.98
8316,-2.67
8327,0.64
8339,4.28
8351,7.77
8363,11.01
8375,14.37
8387,18.36
8399,23.29
8411,29.06
8423,35.1
8435,40.55
8447,44.64
8459,46.88
8471,47.25
8483,46.16
8495,44.12
8506,41.52
8517,38.47
8529,34.64
8541,29.52
8553,22.56
8565,13.33
8577,1.69
8589,-12.27
8601,-28.29
8613,-45.86
8625,-64.26
8637,-82.47
8649,-99.26
8661,-113.44
8673,-124.17
8685,-131.24
8696,-135.18
8707,-137.04
8719,-138.06
8731,-139.26
8743,-141.26
8755,-144.25
8767,-148.14
8779,-152.88
8791,-158.49
8803,-165.06
8815,-172.6
8827,-180.76
8839,-188.82
8851,-195.64
8863,-199.79
8875,-199.82
8886,-194.51
8897,-183.21
8909,-166.11
8921,-144.26
8933,-119.41
8945,-93.7
8957,-69.12
8969,-47.26
8981,-29.1
8993,-15.14
9005,-5.47
9017,-0.01
9029,1.56
9041,-0.18
9053,-4.35
9065,-9.81
9076,-15.38
9087,-20.11
9099,-23.52
9111,-25.56
9123,-26.52
9135,-26.73
9147,-26.26
9159,-24.87
9171,-22.22
9183,-18.16
9195,-13.22
9207,-8.51
9219,-5.57
9231,-5.74
9243,-9.61
9255,-16.77
9266,-25.9
9277,-35.26
9289,-43.16
9301,-48.33
9313,-50.11
9325,-48.3
9337,-43.11
9349,-34.9
9361,-24.16
9373,-11.49
9385,2.47
9397,17.02
9409,31.49
9421,45.24
9433,57.73
9445,68.49
9456,77.13
9467,83.31
9479,86.83
9491,87.71
9503,86.41
9515,83.88
9527,81.4
9539,80.26
9551,81.33
9563,84.73
9575,89.76
9587,95.15
9599,99.52
9611,101.67
9623,100.92
9635,97.11
9646,90.43
9657,81.37
9669,70.55
9681,58.77
9693,46.88
9705,35.74
9717,26.03
9729,18.08
9741,11.76
9753,6.57
9765,1.88
9777,-2.79
9789,-7.59
9801,-12.32
9813,-16.74
9825,-20.89
9836,-25.17
9847,-30.3
9859,-36.9
9871,-45.07
9883,-54.12
9895,-62.66
9907,-68.91
9919,-71.24
9931,-68.66
9943,-61.06
9955,-49.18
9967,-34.26
9979,-17.59
9991,-0.06
10003,18.03
10015,36.95
10026,57.36
10037,79.98
10049,105.2
10061,132.57
10073,160.5
10085,186.29
10097,206.64
10109,218.7
10121,221.27
10133,215.31
10145,203.64
10157,189.71
10169,176.26
10181,164.47
10193,154.07
10205,144.22
10216,134.36
10227,124.72
10239,116.07
10251,109.14
10263,104.13
10275,100.74
10287,98.49
10299,97.12
10311,96.75
10323,97.61
10335,99.68
10347,102.37
10359,104.63
10371,105.21
10383,103.16
10395,98.11
10406,90.31
10417,80.44
10429,69.13
10441,56.63
10453,42.7
10465,26.79
10477,8.42
10489,-12.49
10501,-35.51
10513,-59.8
10525,-84.24
10537,-107.43
10549,-127.86
10561,-143.93
10573,-154.24
10585,-157.95
10596,-155.11
10607,-146.7
10619,-134.41
10631,-120.12
10643,-105.48
10655,-91.53
10667,-78.76
10679,-67.18
10691,-56.72
10703,-47.35
10715,-39.19
10727,-32.42
10739,-27.2
10751,-23.51
10763,-21.02
10775,-19.18
10786,-17.39
10797,-15.35
10809,-13.23
10821,-11.69
10833,-11.63
10845,-13.61
10857,-17.47
10869,-22.2
10881,-26.2
10893,-27.84
10905,-26.13
10917,-20.96
10929,-13.18
10941,-4.14
10953,4.76
10965,12.46
10976,18.42
10987,22.56
10999,25.02
11011,25.99
11023,25.53
11035,23.55
11047,19.92
11059,14.66
11071,8.02
11083,0.46
11095,-7.52
11107,-15.5
11119,-23.28
11131,-30.91
11143,-38.58
11155,-46.49
11166,-54.75
11177,-63.33
11189,-71.97
11201,-80.19
11213,-87.26
11225,-92.17
11237,-93.77
11249,-91.03
11261,-83.36
11273,-70.83
11285,-54.28
11297,-35.13
11309,-15.1
11321,4.22
11333,21.64
11345,36.54
11356,48.79
11367,58.55
11379,66.05
11391,71.45
11403,74.83
11415,76.34
11427,76.17
11439,74.68
11451,72.31
11463,69.53
11475,66.76
11487,64.38
11499,62.78
11511,62.3
11523,63.17
11535,65.41
11546,68.7
11557,72.34
11569,75.44
11581,77.08
11593,76.69
11605,74.12
11617,69.64
11629,63.8
11641,57.13
11653,49.96
11665,42.38
11677,34.33
11689,25.78
11701,16.82
11713,7.7
11725,-1.29
11736,-9.92
11747,-18.1
11759,-25.88
11771,-33.37
11783,-40.78
11795,-48.3
11807,-56.08
11819,-64.05
11831,-71.81
11843,-78.52
11855,-82.98
11867,-83.98
11879,-80.69
11891,-72.93
11903,-61.38
11915,-47.33
11926,-32.34
11937,-17.86
11949,-4.88
11961,6.07
11973,14.84
11985,21.45
11997,25.95
12009,28.48
12021,29.27
12033,28.7
12045,27.31
12057,25.67
12069,24.24
12081,23.35
12093,23.14
12105,23.63
12116,24.74
12127,26.28
12139,27.91
12151,29.24
12163,29.94
12175,29.86
12187,29.04
12199,27.74
12211,26.24
12223,24.66
12235,22.95
12247,20.85
12259,18.09
12271,14.47
12283,10.04
12295,5.02
12306,-0.22
12317,-5.3
12329,-9.9
12341,-13.89
12353,-17.35
12365,-20.6
12377,-24.04
12389,-28.04
12401,-32.72
12413,-37.77
12425,-42.43
12437,-45.57
12449,-46.1
12461,-43.19
12473,-36.6
12485,-26.75
12496,-14.6
12507,-1.32
12519,11.94
12531,24.24
12543,34.9
12555,43.54
12567,49.99
12579,54.34
12591,56.98
12603,58.49
12615,59.6
12627,60.92
12639,62.86
12651,65.47
12663,68.45
12675,71.32
12686,73.58
12697,74.84
12709,75.04
12721,74.28
12733,72.93
12745,71.36
12757,69.95
12769,68.96
12781,68.67
12793,69.4
12805,71.45
12817,75.22
12829,81.14
12841,89.25
12853,98.97
12865,109.42
12876,119.66
12887,128.97
12899,137.1
12911,144.17
12923,150.76
12935,158.04
12947,167.31
12959,179.85
12971,196.55
12983,217.24
12995,240.03
13007,261.26
13019,275.98
13031,279.85
13043,271.12
13055,250.59
13066,221.23
13077,187.16
13089,152.13
13101,118.37
13113,86.41
13125,54.88
13137,22.43
13149,-10.5
13161,-43.8
13173,-78.09
13185,-113.83
13197,-151.07
13209,-189.12
13221,-226.35
13233,-262.28
13245,-295.81
13256,-323.44
13267,-344.34
13279,-360.52
13291,-374.21
13303,-386.86
13315,-398.28
13327,-406.58
13339,-411.41
13351,-411.51
13363,-401.84
13375,-381.51
13387,-354.21
13399,-324.45
13411,-296.46
13423,-273.25
13435,-256.17
13446,-248.4
13457,-250.49
13469,-255.58
13481,-259.31
13493,-261.03
13505,-260.29
13517,-257.21
13529,-252.55
13541,-226.11
13553,-171.48
13565,-123.61
13577,-93.29
13589,-72.34
13601,-58.01
13613,-48.27
13625,-41.5
13636,-36.28
13647,-31.21
13659,-28.16
13671,-27.58
13683,-23.41
13695,-12.81
13707,3.1
13719,23.23
13731,46.8
13743,73.35
13755,102.66
13767,131.57
13779,157.5
13791,182.5
13803,206.43
13815,227.03
13826,243.25
13837,255.23
13849,263.77
13861,269.78
13873,272.07
13885,269.8
13897,265.24
13909,259.68
13921,253.3
13933,246.79
13945,240.78
13957,235.28
13969,229.32
13981,220.36
13993,205.94
14005,185.71
14016,159.74
14027,128.59
14039,94.04
14051,58.6
14063,24.87
14075,-5.09
14087,-30.56
14099,-51.86
14111,-69.79
14123,-85.81
14135,-101.5
14147,-117.56
14159,-133.52
14171,-147.93
14183,-158.79
14195,-164.31
14206,-163.45
14217,-156.19
14229,-143.63
14241,-127.53
14253,-109.86
14265,-92.18
14277,-75.2
14289,-58.79
14301,-42.21
14313,-24.8
14325,-6.39
14337,12.44
14349,30.66
14361,47.22
14373,61.43
14385,73.05
14396,82.02
14407,88.21
14419,91.27
14431,90.84
14443,86.91
14455,80.12
14467,71.8
14479,63.52
14491,56.59
14503,51.67
14515,48.54
14527,46.38
14539,44.11
14551,40.9
14563,36.39
14575,30.78
14586,24.57
14597,18.29
14609,12.16
14621,5.99
14633,-0.71
14645,-8.46
14657,-17.47
14669,-27.59
14681,-38.27
14693,-48.76
14705,-58.45
14717,-66.96
14729,-74.25
14741,-80.61
14753,-86.43
14765,-92.12
14776,-97.96
14787,-103.92
14799,-109.62
14811,-114.28
14823,-116.8
14835,-116.0
14847,-110.94
14859,-101.16
14871,-86.93
14883,-69.16
14895,-49.29
14907,-28.85
14919,-9.21
14931,8.61
14943,24.02
14955,36.7
14966,46.52
14977,53.43
14989,57.54
15001,59.21
15013,59.07
15025,58.01
15037,56.93
15049,56.55
15061,57.06
15073,58.05
15085,58.66
15097,57.88
15109,55.08
15121,50.27
15133,44.22
15145,38.1
15156,33.03
15167,29.49
15179,27.17
15191,25.17
15203,22.44
15215,18.27
15227,12.61
15239,5.99
15251,-0.83
15263,-7.22
15275,-12.97
15287,-18.26
15299,-23.58
15311,-29.44
15323,-36.25
15335,-44.16
15346,-52.99
15357,-62.14
15369,-70.64
15381,-77.13
15393,-80.19
15405,-78.63
15417,-71.91
15429,-60.41
15441,-45.39
15453,-28.66
15465,-12.15
15477,2.62
15489,14.76
15501,24.03
15513,30.61
15525,34.95
15536,37.55
15547,38.9
15559,39.51
15571,39.81
15583,40.2
15595,40.93
15607,42.07
15619,43.54
15631,45.16
15643,46.71
15655,47.98
15667,48.86
15679,49.26
15691,49.19
15703,48.64
15715,47.64
15726,46.13
15737,43.98
15749,41.01
15761,37.07
15773,32.1
15785,26.24
15797,19.76
15809,13.01
15821,6.34
15833,0.05
15845,-5.76
15857,-11.14
15869,-16.33
15881,-21.69
15893,-27.7
15905,-34.68
15916,-42.67
15927,-51.26
15939,-59.51
15951,-66.04
15963,-69.38
15975,-68.34
15987,-62.4
15999,-51.91
16011,-38.03
16023,-22.46
16035,-6.92
16047,7.2
16059,19.12
16071,28.65
16083,35.96
16095,41.37
16106,45.04
16117,47.03
16129,47.41
16141,46.45
16153,44.66
16165,42.75
16177,41.39
16189,40.99
16201,41.55
16213,42.79
16225,44.24
16237,45.48
16249,46.19
16261,46.21
16273,45.46
16285,43.93
16296,41.62
16307,38.62
16319,35.04
16331,31.0
16343,26.56
16355,21.72
16367,16.44
16379,10.7
16391,4.6
16403,-1.65
16415,-7.81
16427,-13.65
16439,-19.06
16451,-24.01
16463,-28.66
16475,-33.19
16486,-37.88
16497,-43.05
16509,-48.92
16521,-55.53
16533,-62.48
16545,-68.85
16557,-73.27
16569,-74.25
16581,-70.64
16593,-62.07
16605,-49.18
16617,-33.44
16629,-16.7
16641,-0.75
16653,13.18
16665,24.46
16676,32.97
16687,38.84
16699,42.3
16711,43.63
16723,43.2
16735,41.51
16747,39.15
16759,36.72
16771,34.69
16783,33.32
16795,32.61
16807,32.42
16819,32.54
16831,32.76
16843,32.88
16855,32.77
16866,32.3
16877,31.32
16889,29.77
16901,27.58
16913,24.76
16925,21.42
16937,17.63
16949,13.45
16961,8.89
16973,3.97
16985,-1.2
16997,-6.47
17009,-11.55
17021,-16.2
17033,-20.29
17045,-23.9
17056,-27.31
17067,-30.89
17079,-35.07
17091,-40.18
17103,-46.37
17115,-53.44
17127,-60.76
17139,-67.21
17151,-71.35
17163,-71.76
17175,-67.46
17187,-58.26
17199,-44.92
17211,-28.91
17223,-11.98
17235,4.29
17246,18.78
17257,30.82
17269,40.06
17281,46.29
17293,49.39
17305,49.48
17317,46.99
17329,42.74
17341,37.79
17353,33.2
17365,29.73
17377,27.75
17389,27.16
17401,27.56
17413,28.39
17425,29.15
17436,29.4
17447,28.89
17459,27.54
17471,25.38
17483,22.6
17495,19.37
17507,15.87
17519,12.23
17531,8.5
17543,4.72
17555,0.93
17567,-2.77
17579,-6.29
17591,-9.55
17603,-12.55
17615,-15.48
17626,-18.64
17637,-22.45
17649,-27.3
17661,-33.47
17673,-40.95
17685,-49.3
17697,-57.67
17709,-64.78
17721,-69.19
17733,-69.6
17745,-65.29
17757,-56.3
17769,-43.56
17781,-28.59
17793,-13.17
17805,1.16
17816,13.41
17827,23.25
17839,30.74
17851,36.2
17863,39.88
17875,41.91
17887,42.43
17899,41.63
17911,39.89
17923,37.75
17935,35.77
17947,34.4
17959,33.79
17971,33.86
17983,34.38
17995,35.11
18006,35.85
18017,36.42
18029,36.63
18041,36.22
18053,34.85
18065,32.27
18077,28.41
18089,23.52
18101,18.08
18113,12.62
18125,7.55
18137,2.94
18149,-1.44
18161,-6.0
18173,-11.06
18185,-16.66
18196,-22.5
18207,-28.07
18219,-32.92
18231,-36.83
18243,-39.94
18255,-42.73
18267,-45.84
18279,-49.92
18291,-55.4
18303,-62.25
18315,-69.82
18327,-76.79
18339,-81.42
18351,-82.0
18363,-77.37
18375,-67.45
18386,-53.23
18397,-36.53
18409,-19.4
18421,-3.57
18433,9.97
18445,20.87
18457,29.32
18469,35.64
18481,40.16
18493,43.07
18505,44.53
18517,44.79
18529,44.25
18541,43.4
18553,42.73
18565,42.6
18576,43.1
18587,44.11
18599,45.4
18611,46.73
18623,47.96
18635,49.0
18647,49.83
18659,50.37
18671,50.48
18683,49.93
18695,48.52
18707,46.14
18719,42.84
18731,38.83
18743,34.44
18755,30.02
18766,25.85
18777,22.12
18789,18.9
18801,16.16
18813,13.81
18825,11.65
18837,9.4
18849,6.7
18861,3.22
18873,-1.3
18885,-6.95
18897,-13.65
18909,-21.17
18921,-29.25
18933,-37.74
18945,-46.62
18956,-55.99
18967,-65.9
18979,-76.19
18991,-86.25
19003,-94.99
19015,-100.95
19027,-102.71
19039,-99.24
19051,-90.36
19063,-76.82
19075,-60.1
19087,-42.06
19099,-24.42
19111,-8.44
19123,5.2
19135,16.25
19146,24.72
19157,30.68
19169,34.25
19181,35.69
19193,35.42
19205,34.13
19217,32.54
19229,31.27
19241,30.67
19253,30.79
19265,31.42
19277,32.31
19289,33.2
19301,33.95
19313,34.5
19325,34.84
19336,34.97
19347,34.88
19359,34.55
19371,33.9
19383,32.83
19395,31.19
19407,28.87
19419,25.91
19431,22.5
19443,18.97
19455,15.63
19467,12.66
19479,9.99
19491,7.38
19503,4.46
19515,1.02
19526,-2.94
19537,-7.22
19549,-11.5
19561,-15.53
19573,-19.23
19585,-22.81
19597,-26.59
19609,-30.94
19621,-36.15
19633,-42.34
19645,-49.37
19657,-56.8
19669,-63.85
19681,-69.41
19693,-72.25
19705,-71.32
19716,-66.08
19727,-56.74
19739,-44.26
19751,-30.04
19763,-15.59
19775,-2.11
19787,9.63
19799,19.24
19811,26.6
19823,31.68
19835,34.51
19847,35.21
19859,34.1
19871,31.78
19883,29.0
19895,26.52
19906,24.9
19917,24.3
19929,24.56
19941,25.3
19953,26.12
19965,26.76
19977,27.09
19989,27.12
20001,26.79
20013,25.95
20025,24.43
20037,22.09
20049,18.96
20061,15.27
20073,11.33
20085,7.44
20096,3.71
20107,0.12
20119,-3.45
20131,-7.09
20143,-10.85
20155,-14.61
20167,-18.19
20179,-21.45
20191,-24.26
20203,-26.65
20215,-28.83
20227,-31.15
20239,-34.07
20251,-38.05
20263,-43.28
20275,-49.44
20286,-55.67
20297,-60.59
20309,-62.71
20321,-60.89
20333,-54.74
20345,-44.82
20357,-32.43
20369,-19.16
20381,-6.5
20393,4.53
20405,13.46
20417,20.15
20429,24.64
20441,27.0
20453,27.36
20465,26.02
20476,23.51
20487,20.59
20499,18.07
20511,16.58
20523,16.36
20535,17.25
20547,18.81
20559,20.57
20571,22.23
20583,23.72
20595,25.1
20607,26.43
20619,27.54
20631,28.15
20643,27.87
20655,26.44
20666,23.85
20677,20.32
20689,16.31
20701,12.29
20713,8.63
20725,5.45
20737,2.57
20749,-0.34
20761,-3.66
20773,-7.64
20785,-12.2
20797,-17.05
20809,-21.77
20821,-26.05
20833,-29.78
20845,-33.11
20856,-36.39
20867,-40.01
20879,-44.36
20891,-49.69
20903,-56.08
20915,-63.19
20927,-70.22
20939,-75.82
20951,-78.42
20963,-76.69
20975,-70.01
20987,-58.86
20999,-44.63
