seconds,BVP
1,21.74
13,14.37
25,5.82
37,-3.77
48,-13.99
59,-24.29
71,-34.19
83,-43.49
95,-52.16
107,-60.22
119,-67.69
131,-74.47
143,-80.43
155,-85.49
167,-89.63
179,-92.89
191,-95.32
203,-96.96
215,-97.85
227,-98.11
238,-97.87
249,-97.35
261,-96.74
273,-96.18
285,-95.71
297,-95.37
309,-95.23
321,-95.37
333,-95.9
345,-96.85
357,-98.15
369,-99.63
381,-101.11
393,-102.51
405,-103.81
417,-105.04
428,-106.08
439,-106.65
451,-106.33
463,-104.77
475,-101.87
487,-97.88
499,-93.28
511,-88.53
523,-83.76
535,-78.75
547,-72.99
559,-66.01
571,-57.63
583,-48.09
595,-37.98
607,-28.04
618,-18.92
629,-11.06
641,-4.58
653,0.73
665,5.48
677,10.54
689,16.96
701,25.65
713,37.04
725,50.86
737,66.12
749,81.39
761,95.19
773,106.31
785,114.07
797,118.28
808,119.13
819,117.06
831,112.66
843,106.59
855,99.53
867,92.08
879,84.6
891,77.16
903,69.6
915,61.64
927,53.08
939,43.96
951,34.61
963,25.56
975,17.39
987,10.46
998,4.89
1009,0.46
1021,-3.14
1033,-6.25
1045,-9.03
1057,-11.46
1069,-13.4
1081,-14.73
1093,-15.41
1105,-15.48
1117,-15.1
1129,-14.48
1141,-13.83
1153,-13.34
1165,-13.11
1177,-13.15
1188,-13.4
1199,-13.72
1211,-14.05
1223,-14.44
1235,-15.02
1247,-15.96
1259,-17.38
1271,-19.24
1283,-21.38
1295,-23.56
1307,-25.59
1319,-27.41
1331,-29.1
1343,-30.86
1355,-33.03
1367,-35.97
1378,-39.95
1389,-45.03
1401,-50.8
1413,-56.36
1425,-60.39
1437,-61.51
1449,-58.67
1461,-51.57
1473,-40.75
1485,-27.49
1497,-13.36
1509,0.16
1521,12.06
1533,21.81
1545,29.35
1557,34.84
1568,38.53
1579,40.72
1591,41.68
1603,41.74
1615,41.24
1627,40.58
1639,40.18
1651,40.37
1663,41.39
1675,43.29
1687,45.97
1699,49.24
1711,52.87
1723,56.68
1735,60.53
1747,64.22
1758,67.49
1769,69.97
1781,71.35
1793,71.45
1805,70.35
1817,68.34
1829,65.72
1841,62.63
1853,58.99
1865,54.62
1877,49.35
1889,43.23
1901,36.53
1913,29.62
1925,22.72
1937,15.81
1948,8.64
1959,0.93
1971,-7.38
1983,-16.06
1995,-24.71
2007,-32.87
2019,-40.28
2031,-46.9
2043,-52.86
2055,-58.36
2067,-63.63
2079,-68.88
2091,-74.24
2103,-79.66
2115,-84.73
2127,-88.62
2138,-90.14
2149,-88.14
2161,-81.91
2173,-71.59
2185,-58.18
2197,-43.27
2209,-28.56
2221,-15.32
2233,-4.24
2245,4.57
2257,11.37
2269,16.42
2281,19.94
2293,22.04
2305,22.85
2317,22.64
2328,21.83
2339,20.88
2351,20.22
2363,20.11
2375,20.6
2387,21.6
2399,22.98
2411,24.62
2423,26.46
2435,28.49
2447,30.63
2459,32.67
2471,34.28
2483,35.08
2495,34.78
2507,33.29
2518,30.81
2529,27.64
2541,24.15
2553,20.56
2565,16.94
2577,13.26
2589,9.42
2601,5.33
2613,0.95
2625,-3.73
2637,-8.72
2649,-13.97
2661,-19.41
2673,-24.87
2685,-30.18
2697,-35.23
2708,-40.06
2719,-44.88
2731,-49.95
2743,-55.4
2755,-61.18
2767,-66.97
2779,-72.32
2791,-76.85
2803,-80.45
2815,-83.28
2827,-85.78
2839,-88.45
2851,-91.67
2863,-95.49
2875,-99.51
2887,-102.89
2898,-104.35
2909,-102.58
2921,-96.41
2933,-85.32
2945,-69.64
2957,-50.54
2969,-29.78
2981,-9.27
2993,9.28
3005,24.79
3017,36.8
3029,45.45
3041,51.26
3053,54.86
3065,56.84
3077,57.6
3088,57.35
3099,56.2
3111,54.25
3123,51.71
3135,48.85
3147,45.99
3159,43.3
3171,40.92
3183,38.88
3195,37.24
3207,36.14
3219,35.73
3231,36.06
3243,37.0
3255,38.13
3267,38.94
3278,38.97
3289,37.99
3301,36.14
3313,33.84
3325,31.54
3337,29.6
3349,28.14
3361,27.01
3373,25.92
3385,24.58
3397,22.85
3409,20.79
3421,18.63
3433,16.59
3445,14.77
3457,13.04
3468,11.06
3479,8.46
3491,4.99
3503,0.72
3515,-3.97
3527,-8.54
3539,-12.55
3551,-15.82
3563,-18.51
3575,-21.02
3587,-23.84
3599,-27.4
3611,-31.88
3623,-37.16
3635,-42.67
3647,-47.49
3658,-50.33
3669,-49.9
3681,-45.31
3693,-36.36
3705,-23.79
3717,-9.05
3729,6.15
3741,20.23
3753,32.17
3765,41.56
3777,48.44
3789,53.08
3801,55.82
3813,56.95
3825,56.76
3837,55.6
3848,53.81
3859,51.78
3871,49.78
3883,48.01
3895,46.57
3907,45.49
3919,44.81
3931,44.51
3943,44.6
3955,45.05
3967,45.77
3979,46.6
3991,47.27
4003,47.47
4015,46.92
4027,45.48
4038,43.18
4049,40.27
4061,37.1
4073,34.03
4085,31.28
4097,28.89
4109,26.73
4121,24.58
4133,22.27
4145,19.7
4157,16.88
4169,13.82
4181,10.57
4193,7.19
4205,3.74
4217,0.35
4228,-2.84
4239,-5.66
4251,-8.11
4263,-10.3
4275,-12.54
4287,-15.17
4299,-18.44
4311,-22.4
4323,-26.86
4335,-31.48
4347,-35.86
4359,-39.72
4371,-42.96
4383,-45.69
4395,-48.24
4407,-51.07
4418,-54.67
4429,-59.38
4441,-65.13
4453,-71.26
4465,-76.56
4477,-79.49
4489,-78.64
4501,-73.2
4513,-63.29
4525,-49.93
4537,-34.71
4549,-19.37
4561,-5.35
4573,6.44
4585,15.67
4597,22.44
4608,27.12
4619,30.2
4631,32.14
4643,33.35
4655,34.04
4667,34.33
4679,34.19
4691,33.64
4703,32.75
4715,31.76
4727,30.95
4739,30.57
4751,30.71
4763,31.29
4775,32.14
4787,33.06
4798,33.93
4809,34.65
4821,35.16
4833,35.31
4845,34.9
4857,33.77
4869,31.91
4881,29.54
4893,27.03
4905,24.8
4917,23.07
4929,21.79
4941,20.73
4953,19.58
4965,18.17
4977,16.55
4988,14.9
4999,13.43
5011,12.23
5023,11.31
5035,10.55
5047,9.84
5059,9.16
5071,8.52
5083,7.9
5095,7.23
5107,6.36
5119,5.13
5131,3.45
5143,1.33
5155,-1.06
5167,-3.49
5178,-5.82
5189,-8.02
5201,-10.17
5213,-12.48
5225,-15.11
5237,-18.16
5249,-21.58
5261,-25.24
5273,-28.96
5285,-32.56
5297,-35.92
5309,-38.99
5321,-41.83
5333,-44.61
5345,-47.64
5357,-51.33
5368,-55.96
5379,-61.43
5391,-67.09
5403,-71.66
5415,-73.6
5427,-71.6
5439,-65.02
5451,-54.23
5463,-40.52
5475,-25.65
5487,-11.36
5499,1.05
5511,10.97
5523,18.32
5535,23.38
5547,26.58
5558,28.28
5569,28.78
5581,28.37
5593,27.34
5605,26.03
5617,24.79
5629,23.91
5641,23.51
5653,23.56
5665,23.9
5677,24.41
5689,25.04
5701,25.88
5713,27.04
5725,28.59
5737,30.44
5748,32.29
5759,33.78
5771,34.56
5783,34.45
5795,33.5
5807,31.91
5819,29.93
5831,27.82
5843,25.73
5855,23.67
5867,21.58
5879,19.34
5891,16.87
5903,14.13
5915,11.15
5927,8.0
5938,4.83
5949,1.72
5961,-1.26
5973,-4.09
5985,-6.87
5997,-9.74
6009,-12.9
6021,-16.46
6033,-20.44
6045,-24.66
6057,-28.88
6069,-32.82
6081,-36.33
6093,-39.52
6105,-42.69
6117,-46.31
6128,-50.77
6139,-56.21
6151,-62.24
6163,-68.0
6175,-72.27
6187,-73.72
6199,-71.38
6211,-64.91
6223,-54.77
6235,-42.09
6247,-28.34
6259,-14.96
6271,-2.98
6283,6.99
6295,14.77
6307,20.42
6318,24.15
6329,26.24
6341,27.01
6353,26.9
6365,26.36
6377,25.77
6389,25.38
6401,25.3
6413,25.5
6425,25.89
6437,26.39
6449,26.96
6461,27.62
6473,28.46
6485,29.58
6497,31.06
6508,32.79
6519,34.49
6531,35.75
6543,36.12
6555,35.29
6567,33.28
6579,30.41
6591,27.21
6603,24.18
6615,21.62
6627,19.52
6639,17.68
6651,15.79
6663,13.67
6675,11.28
6687,8.76
6698,6.32
6709,4.13
6721,2.3
6733,0.76
6745,-0.61
6757,-1.99
6769,-3.54
6781,-5.36
6793,-7.49
6805,-9.86
6817,-12.31
6829,-14.67
6841,-16.82
6853,-18.68
6865,-20.32
6877,-22.0
6888,-24.04
6899,-26.84
6911,-30.57
6923,-35.03
6935,-39.44
6947,-42.58
6959,-43.01
6971,-39.6
6983,-31.89
6995,-20.28
7007,-5.95
7019,9.49
7031,24.51
7043,37.83
7055,48.66
7067,56.64
7078,61.72
7089,64.1
7101,64.2
7113,62.52
7125,59.65
7137,56.04
7149,52.03
7161,47.77
7173,43.3
7185,38.63
7197,33.81
7209,28.99
7221,24.34
7233,20.07
7245,16.29
7257,12.97
7268,9.99
7279,7.18
7291,4.35
7303,1.42
7315,-1.63
7327,-4.76
7339,-7.87
7351,-10.88
7363,-13.67
7375,-16.13
7387,-18.14
7399,-19.69
7411,-20.84
7423,-21.74
7435,-22.61
7447,-23.56
7458,-24.63
7469,-25.81
7481,-27.06
7493,-28.39
7505,-29.83
7517,-31.42
7529,-33.14
7541,-34.96
7553,-36.86
7565,-38.89
7577,-41.17
7589,-43.79
7601,-46.73
7613,-49.74
7625,-52.48
7637,-54.62
7648,-56.05
7659,-56.87
7671,-57.4
7683,-58.02
7695,-59.09
7707,-60.81
7719,-63.16
7731,-65.75
7743,-67.75
7755,-67.95
7767,-64.98
7779,-57.81
7791,-46.12
7803,-30.58
7815,-12.72
7827,5.53
7838,22.4
7849,36.66
7861,47.71
7873,55.43
7885,59.95
7897,61.54
7909,60.56
7921,57.5
7933,52.93
7945,47.37
7957,41.12
7969,34.26
7981,26.77
7993,18.68
8005,10.3
8017,2.15
8028,-5.12
8039,-11.03
8051,-15.38
8063,-18.28
8075,-20.08
8087,-21.21
8099,-22.04
8111,-22.84
8123,-23.78
8135,-24.97
8147,-26.46
8159,-28.26
8171,-30.35
8183,-32.7
8195,-35.23
8207,-37.84
8218,-40.38
8229,-42.68
8241,-44.66
8253,-46.29
8265,-47.74
8277,-49.18
8289,-50.78
8301,-52.6
8313,-54.52
8325,-56.33
8337,-57.81
8349,-58.83
8361,-59.42
8373,-59.74
8385,-60.09
8397,-60.82
8408,-62.28
8419,-64.71
8431,-68.04
8443,-71.76
8455,-74.8
8467,-75.69
8479,-73.02
8491,-65.85
8503,-54.11
8515,-38.66
8527,-21.05
8539,-3.07
8551,13.75
8563,28.34
8575,40.24
8587,49.45
8598,56.22
8609,60.89
8621,63.78
8633,65.17
8645,65.33
8657,64.54
8669,63.16
8681,61.55
8693,60.05
8705,58.92
8717,58.3
8729,58.23
8741,58.71
8753,59.73
8765,61.25
8777,63.15
8788,65.21
8799,67.17
8811,68.74
8823,69.76
8835,70.14
8847,69.94
8859,69.24
8871,68.09
8883,66.49
8895,64.41
8907,61.79
8919,58.65
8931,55.04
8943,51.07
8955,46.84
8967,42.41
8978,37.78
8989,32.92
9001,27.75
9013,22.26
9025,16.57
9037,10.87
9049,5.38
9061,0.26
9073,-4.53
9085,-9.26
9097,-14.34
9109,-20.23
9121,-27.26
9133,-35.39
9145,-44.08
9157,-52.3
9168,-58.61
9179,-61.59
9191,-60.14
9203,-53.97
9215,-43.69
9227,-30.7
9239,-16.75
9251,-3.53
9263,7.77
9275,16.54
9287,22.71
9299,26.57
9311,28.55
9323,29.09
9335,28.63
9347,27.49
9358,25.89
9369,24.0
9381,21.99
9393,20.05
9405,18.46
9417,17.46
9429,17.18
9441,17.59
9453,18.53
9465,19.79
9477,21.2
9489,22.65
9501,24.01
9513,25.1
9525,25.65
9537,25.4
9548,24.26
9559,22.31
9571,19.83
9583,17.13
9595,14.39
9607,11.6
9619,8.6
9631,5.21
9643,1.4
9655,-2.66
9667,-6.69
9679,-10.39
9691,-13.68
9703,-16.67
9715,-19.61
9727,-22.79
9738,-26.34
9749,-30.17
9761,-34.0
9773,-37.55
9785,-40.58
9797,-43.1
9809,-45.3
9821,-47.6
9833,-50.52
9845,-54.52
9857,-59.77
9869,-65.95
9881,-72.11
9893,-76.77
9905,-78.28
9917,-75.37
9928,-67.59
9939,-55.51
9951,-40.62
9963,-24.85
9975,-10.03
9987,2.55
9999,12.3
10011,19.24
10023,23.76
10035,26.34
10047,27.49
10059,27.56
10071,26.86
10083,25.66
10095,24.28
10107,22.97
10118,21.97
10129,21.44
10141,21.4
10153,21.85
10165,22.68
10177,23.84
10189,25.24
10201,26.79
10213,28.36
10225,29.73
10237,30.63
10249,30.74
10261,29.87
10273,27.94
10285,25.06
10297,21.47
10308,17.47
10319,13.36
10331,9.31
10343,5.41
10355,1.6
10367,-2.19
10379,-6.09
10391,-10.2
10403,-14.62
10415,-19.42
10427,-24.57
10439,-29.93
10451,-35.27
10463,-40.34
10475,-44.98
10487,-49.27
10498,-53.51
10509,-58.2
10521,-63.8
10533,-70.51
10545,-77.95
10557,-85.15
10569,-90.63
10581,-92.79
10593,-90.41
10605,-82.98
10617,-70.91
10629,-55.33
10641,-37.81
10653,-19.92
10665,-2.94
10677,12.23
10688,25.11
10699,35.52
10711,43.55
10723,49.45
10735,53.59
10747,56.37
10759,58.16
10771,59.24
10783,59.9
10795,60.39
10807,60.95
10819,61.75
10831,62.87
10843,64.28
10855,65.92
10867,67.7
10878,69.53
10889,71.37
10901,73.09
10913,74.46
10925,75.22
10937,75.08
10949,73.91
10961,71.72
10973,68.71
10985,65.18
10997,61.43
11009,57.65
11021,53.89
11033,50.11
11045,46.22
11057,42.09
11068,37.68
11079,32.97
11091,27.97
11103,22.71
11115,17.17
11127,11.29
11139,5.04
11151,-1.6
11163,-8.55
11175,-15.63
11187,-22.61
11199,-29.22
11211,-35.33
11223,-40.94
11235,-46.29
11247,-51.73
11258,-57.66
11269,-64.42
11281,-72.13
11293,-80.58
11305,-89.13
11317,-96.69
11329,-101.86
11341,-103.24
11353,-99.82
11365,-91.36
11377,-78.55
11389,-62.8
11401,-45.93
11413,-29.56
11425,-14.89
11437,-2.45
11448,7.65
11459,15.56
11471,21.52
11483,25.74
11495,28.47
11507,30.03
11519,30.78
11531,31.06
11543,31.09
11555,30.98
11567,30.75
11579,30.41
11591,30.04
11603,29.8
11615,29.86
11627,30.31
11638,31.1
11649,32.06
11661,32.87
11673,33.25
11685,32.97
11697,31.92
11709,30.15
11721,27.78
11733,25.02
11745,22.06
11757,19.06
11769,16.12
11781,13.27
11793,10.49
11805,7.72
11817,4.95
11828,2.18
11839,-0.48
11851,-2.92
11863,-5.06
11875,-6.95
11887,-8.75
11899,-10.72
11911,-13.08
11923,-15.9
11935,-19.08
11947,-22.35
11959,-25.4
11971,-28.02
11983,-30.21
11995,-32.17
12007,-34.26
12018,-36.92
12029,-40.52
12041,-45.29
12053,-51.12
12065,-57.45
12077,-63.25
12089,-67.14
12101,-67.75
12113,-64.11
12125,-56.06
12137,-44.28
12149,-30.21
12161,-15.51
12173,-1.68
12185,10.29
12197,20.0
12208,27.47
12219,32.95
12231,36.74
12243,39.07
12255,40.13
12267,40.13
12279,39.29
12291,37.9
12303,36.27
12315,34.74
12327,33.55
12339,32.9
12351,32.86
12363,33.38
12375,34.32
12387,35.47
12398,36.56
12409,37.37
12421,37.67
12433,37.34
12445,36.3
12457,34.61
12469,32.31
12481,29.51
12493,26.26
12505,22.61
12517,18.63
12529,14.46
12541,10.23
12553,6.1
12565,2.16
12577,-1.58
12588,-5.18
12599,-8.71
12611,-12.19
12623,-15.6
12635,-18.83
12647,-21.77
12659,-24.29
12671,-26.38
12683,-28.18
12695,-29.96
12707,-32.1
12719,-35.0
12731,-38.94
12743,-43.87
12755,-49.37
12767,-54.58
12778,-58.39
12789,-59.6
12801,-57.26
12813,-50.92
12825,-40.86
12837,-28.01
12849,-13.78
12861,0.27
12873,12.85
12885,23.11
12897,30.73
12909,35.8
12921,38.61
12933,39.46
12945,38.63
12957,36.44
12968,33.25
12979,29.56
12991,25.88
13003,22.68
13015,20.26
13027,18.71
13039,17.94
13051,17.8
13063,18.14
13075,18.82
13087,19.73
13099,20.73
13111,21.58
13123,22.01
13135,21.78
13147,20.75
13158,18.92
13169,16.43
13181,13.52
13193,10.44
13205,7.4
13217,4.54
13229,1.89
13241,-0.65
13253,-3.27
13265,-6.2
13277,-9.53
13289,-13.22
13301,-16.99
13313,-20.51
13325,-23.52
13337,-25.99
13348,-28.18
13359,-30.56
13371,-33.64
13383,-37.84
13395,-43.33
13407,-49.8
13419,-56.52
13431,-62.3
13443,-65.74
13455,-65.58
13467,-61.07
13479,-52.29
13491,-40.18
13503,-26.31
13515,-12.39
13527,0.17
13538,10.54
13549,18.44
13561,24.0
13573,27.51
13585,29.25
13597,29.53
13609,28.7
13621,27.17
13633,25.37
13645,23.67
13657,22.32
13669,21.38
13681,20.88
13693,20.8
13705,21.2
13717,22.17
13728,23.73
13739,25.8
13751,28.13
13763,30.38
13775,32.12
13787,33.0
13799,32.85
13811,31.69
13823,29.75
13835,27.43
13847,25.1
13859,23.01
13871,21.21
13883,19.52
13895,17.69
13907,15.47
13918,12.78
13929,9.69
13941,6.45
13953,3.29
13965,0.41
13977,-2.2
13989,-4.72
14001,-7.45
14013,-10.72
14025,-14.73
14037,-19.4
14049,-24.4
14061,-29.25
14073,-33.48
14085,-36.83
14097,-39.42
14108,-41.71
14119,-44.4
14131,-48.15
14143,-53.33
14155,-59.73
14167,-66.52
14179,-72.32
14191,-75.51
14203,-74.74
14215,-69.3
14227,-59.36
14239,-45.96
14251,-30.66
14263,-15.17
14275,-0.95
14287,11.05
14298,20.43
14309,27.19
14321,31.66
14333,34.26
14345,35.45
14357,35.65
14369,35.22
14381,34.45
14393,33.57
14405,32.75
14417,32.1
14429,31.63
14441,31.31
14453,31.05
14465,30.8
14477,30.56
14488,30.38
14499,30.31
14511,30.38
14523,30.52
14535,30.55
14547,30.27
14559,29.46
14571,27.96
14583,25.74
14595,22.88
14607,19.52
14619,15.87
14631,12.13
14643,8.43
14655,4.82
14667,1.28
14678,-2.28
14689,-5.95
14701,-9.8
14713,-13.82
14725,-17.9
14737,-21.84
14749,-25.47
14761,-28.69
14773,-31.61
14785,-34.57
14797,-38.07
14809,-42.63
14821,-48.52
14833,-55.59
14845,-63.07
14857,-69.68
14868,-73.9
14879,-74.35
14891,-70.24
14903,-61.59
14915,-49.22
14927,-34.53
14939,-19.08
14951,-4.29
14963,8.81
14975,19.64
14987,28.02
14999,34.08
15011,38.1
15023,40.45
15035,41.52
15047,41.65
15058,41.11
15069,40.11
15081,38.85
15093,37.55
15105,36.38
15117,35.49
15129,34.98
15141,34.81
15153,34.93
15165,35.21
15177,35.57
15189,35.87
15201,35.98
15213,35.77
15225,35.09
15237,33.85
15248,31.97
15259,29.46
15271,26.43
15283,23.03
15295,19.48
15307,15.97
15319,12.67
15331,9.64
15343,6.82
15355,4.06
15367,1.14
15379,-2.09
15391,-5.74
15403,-9.75
15415,-13.97
15427,-18.18
15438,-22.23
15449,-26.01
15461,-29.62
15473,-33.23
15485,-37.18
15497,-41.79
15509,-47.29
15521,-53.62
15533,-60.25
15545,-66.19
15557,-70.09
15569,-70.58
15581,-66.74
15593,-58.41
15605,-46.27
15617,-31.74
15628,-16.52
15639,-2.18
15651,10.17
15663,19.98
15675,27.24
15687,32.19
15699,35.25
15711,36.81
15723,37.19
15735,36.66
15747,35.47
15759,33.84
15771,32.04
15783,30.35
15795,28.99
15807,28.08
15818,27.64
15829,27.61
15841,27.9
15853,28.48
15865,29.35
15877,30.5
15889,31.81
15901,32.98
15913,33.61
15925,33.34
15937,32.01
15949,29.74
15961,26.91
15973,23.96
15985,21.25
15997,18.88
16008,16.73
16019,14.55
16031,12.12
16043,9.38
16055,6.38
16067,3.32
16079,0.41
16091,-2.24
16103,-4.65
16115,-7.02
16127,-9.6
16139,-12.63
16151,-16.2
16163,-20.2
16175,-24.36
16187,-28.34
16198,-31.87
16209,-34.87
16221,-37.5
16233,-40.07
16245,-43.0
16257,-46.66
16269,-51.29
16281,-56.77
16293,-62.53
16305,-67.51
16317,-70.3
16329,-69.49
16341,-64.14
16353,-54.15
16365,-40.4
16377,-24.51
16388,-8.34
16399,6.48
16411,18.89
16423,28.48
16435,35.3
16447,39.59
16459,41.62
16471,41.62
16483,39.91
16495,36.96
16507,33.4
16519,29.91
16531,27.01
16543,24.96
16555,23.72
16567,23.07
16578,22.77
16589,22.69
16601,22.89
16613,23.46
16625,24.44
16637,25.7
16649,26.95
16661,27.78
16673,27.82
16685,26.8
16697,24.57
16709,21.2
16721,16.91
16733,12.1
16745,7.27
16757,2.89
16768,-0.71
16779,-3.45
16791,-5.53
16803,-7.35
16815,-9.36
16827,-11.82
16839,-14.78
16851,-18.03
16863,-21.23
16875,-24.11
16887,-26.62
16899,-28.87
16911,-31.22
16923,-34.06
16935,-37.79
16947,-42.65
16958,-48.59
16969,-55.12
16981,-61.32
16993,-65.83
17005,-67.23
17017,-64.37
17029,-56.86
17041,-45.2
17053,-30.75
17065,-15.3
17077,-0.64
17089,11.97
17101,21.9
17113,29.18
17125,34.15
17137,37.27
17148,38.9
17159,39.29
17171,38.62
17183,37.07
17195,34.87
17207,32.3
17219,29.66
17231,27.21
17243,25.18
17255,23.74
17267,22.97
17279,22.88
17291,23.38
17303,24.3
17315,25.42
17327,26.49
17338,27.27
17349,27.54
17361,27.17
17373,26.11
17385,24.36
17397,22.0
17409,19.17
17421,16.03
17433,12.84
17445,9.84
17457,7.22
17469,5.03
17481,3.14
17493,1.26
17505,-0.94
17517,-3.73
17528,-7.2
17539,-11.19
17551,-15.42
17563,-19.5
17575,-23.19
17587,-26.38
17599,-29.22
17611,-32.13
17623,-35.6
17635,-40.16
17647,-46.08
17659,-53.16
17671,-60.59
17683,-66.99
17695,-70.73
17707,-70.38
17718,-65.21
17729,-55.43
17741,-42.1
17753,-26.84
17765,-11.29
17777,3.23
17789,15.87
17801,26.2
17813,34.05
17825,39.4
17837,42.38
17849,43.31
17861,42.68
17873,41.09
17885,39.06
17897,36.94
17908,34.89
17919,32.98
17931,31.23
17943,29.71
17955,28.57
17967,27.97
17979,28.03
17991,28.74
18003,29.93
18015,31.3
18027,32.43
18039,32.92
18051,32.49
18063,31.07
18075,28.8
18087,25.96
18098,22.87
18109,19.72
18121,16.62
18133,13.55
18145,10.44
18157,7.23
18169,3.88
18181,0.4
18193,-3.16
18205,-6.69
18217,-10.06
18229,-13.18
18241,-16.06
18253,-18.87
18265,-21.82
18277,-25.09
18288,-28.67
18299,-32.37
18311,-35.85
18323,-38.84
18335,-41.21
18347,-43.1
18359,-44.86
18371,-46.99
18383,-49.94
18395,-54.0
18407,-59.09
18419,-64.57
18431,-69.34
18443,-71.93
18455,-70.95
18467,-65.53
18478,-55.7
18489,-42.42
18501,-27.32
18513,-12.23
18525,1.31
18537,12.36
18549,20.67
18561,26.49
18573,30.3
18585,32.57
18597,33.61
18609,33.61
18621,32.78
18633,31.38
18645,29.78
18657,28.38
18668,27.42
18679,26.93
18691,26.82
18703,26.94
18715,27.23
18727,27.85
18739,28.96
18751,30.61
18763,32.66
18775,34.74
18787,36.38
18799,37.2
18811,37.02
18823,35.86
18835,33.93
18847,31.55
18858,29.04
18869,26.63
18881,24.43
18893,22.42
18905,20.5
18917,18.58
18929,16.6
18941,14.62
18953,12.74
18965,11.02
18977,9.52
18989,8.19
19001,6.93
19013,5.58
19025,4.02
19037,2.17
19048,0.08
19059,-2.12
19071,-4.23
19083,-6.07
19095,-7.58
19107,-8.89
19119,-10.34
19131,-12.37
19143,-15.4
19155,-19.66
19167,-24.97
19179,-30.74
19191,-35.94
19203,-39.33
19215,-39.73
19227,-36.42
19238,-29.39
19249,-19.38
19261,-7.76
19273,3.9
19285,14.2
19297,22.21
19309,27.45
19321,29.86
19333,29.51
19345,26.59
19357,21.3
19369,13.96
19381,5.0
19393,-4.98
19405,-15.27
19417,-25.14
19428,-33.88
19439,-40.91
19451,-45.84
19463,-48.51
19475,-49.05
19487,-47.81
19499,-45.3
19511,-42.01
19523,-38.4
19535,-34.81
19547,-31.44
19559,-28.44
19571,-25.88
19583,-23.78
19595,-22.02
19607,-20.5
19618,-19.04
19629,-17.56
19641,-16.05
19653,-14.61
19665,-13.35
19677,-12.39
19689,-11.8
19701,-11.56
19713,-11.62
19725,-11.92
19737,-12.38
19749,-12.88
19761,-13.35
19773,-13.74
19785,-14.09
19797,-14.58
19808,-15.49
19819,-17.21
19831,-20.13
19843,-24.49
19855,-30.25
19867,-36.94
19879,-43.58
19891,-48.78
19903,-51.05
19915,-49.2
19927,-42.78
19939,-32.22
19951,-18.77
19963,-4.12
19975,10.11
19987,22.69
19998,32.95
20009,40.7
20021,46.02
20033,49.08
20045,50.07
20057,49.31
20069,47.23
20081,44.38
20093,41.32
20105,38.46
20117,35.98
20129,33.86
20141,31.99
20153,30.32
20165,28.94
20177,28.02
20188,27.7
20199,27.98
20211,28.65
20223,29.36
20235,29.76
20247,29.59
20259,28.76
20271,27.33
20283,25.46
20295,23.34
20307,21.09
20319,18.76
20331,16.29
20343,13.59
20355,10.59
20367,7.3
20378,3.86
20389,0.48
20401,-2.66
20413,-5.47
20425,-8.03
20437,-10.58
20449,-13.34
20461,-16.46
20473,-19.91
20485,-23.5
20497,-27.01
20509,-30.25
20521,-33.23
20533,-36.07
20545,-39.07
20557,-42.58
20568,-46.92
20579,-52.29
20591,-58.56
20603,-65.16
20615,-70.95
20627,-74.51
20639,-74.37
20651,-69.58
20663,-60.06
20675,-46.69
20687,-31.04
20699,-14.97
20711,-0.08
20723,12.6
20735,22.7
20747,30.3
20758,35.71
20769,39.26
20781,41.16
20793,41.63
20805,40.9
20817,39.32
20829,37.29
20841,35.21
20853,33.42
20865,32.05
20877,31.14
20889,30.68
20901,30.72
20913,31.32
20925,32.57
20937,34.42
20948,36.67
20959,38.99
20971,41.07
20983,42.63
20995,43.55
