seconds,BVP
2,4.3
14,10.07
26,16.97
38,24.94
50,33.56
62,42.22
74,50.38
86,57.88
98,65.07
110,72.76
122,81.84
134,92.83
146,105.63
158,119.44
169,133.23
180,146.14
192,157.95
204,169.06
216,180.36
228,192.8
240,207.23
252,224.28
264,244.16
276,266.26
288,288.79
300,308.58
312,321.8
324,325.08
336,316.86
348,298.07
359,271.69
370,241.42
382,210.14
394,179.0
406,147.58
418,114.88
430,80.33
442,44.22
454,7.43
466,-29.3
478,-65.78
490,-102.37
502,-139.41
514,-176.51
526,-212.25
538,-244.24
549,-269.68
560,-286.06
572,-291.86
584,-286.91
596,-272.32
608,-250.19
620,-222.89
632,-192.51
644,-160.5
656,-127.79
668,-95.32
680,-64.66
692,-38.23
704,-19.02
716,-9.68
728,-11.6
739,-24.53
750,-46.92
762,-76.7
774,-112.03
786,-151.27
798,-192.49
810,-232.85
822,-268.63
834,-296.01
846,-312.12
858,-315.91
870,-308.14
882,-290.77
894,-266.22
906,-237.04
918,-205.96
929,-176.03
940,-150.23
952,-130.74
964,-118.07
976,-110.86
988,-106.47
1000,-102.24
1012,-96.62
1024,-89.64
1036,-82.57
1048,-77.15
1060,-74.71
1072,-75.67
1084,-79.45
1096,-84.63
1108,-89.31
1119,-91.47
1130,-89.43
1142,-82.23
1154,-69.87
1166,-53.36
1178,-34.45
1190,-15.14
1202,2.71
1214,17.8
1226,29.56
1238,38.13
1250,44.27
1262,49.27
1274,54.64
1286,61.85
1298,71.84
1309,84.61
1320,99.15
1332,113.58
1344,125.89
1356,134.58
1368,139.18
1380,140.28
1392,139.07
1404,136.76
1416,134.14
1428,131.42
1440,128.43
1452,124.87
1464,120.47
1476,115.08
1488,108.64
1499,101.26
1510,93.27
1522,85.31
1534,78.13
1546,72.4
1558,68.43
1570,66.09
1582,64.85
1594,64.07
1606,63.17
1618,61.7
1630,59.28
1642,55.56
1654,50.23
1666,43.3
1678,35.16
1689,26.64
1700,18.69
1712,11.89
1724,6.15
1736,0.73
1748,-5.39
1760,-12.84
1772,-21.41
1784,-29.87
1796,-36.45
1808,-39.56
1820,-38.46
1832,-33.63
1844,-26.48
1856,-18.79
1868,-11.99
1879,-6.77
1890,-3.06
1902,-0.31
1914,2.14
1926,4.82
1938,8.14
1950,12.45
1962,18.11
1974,25.37
1986,34.14
1998,43.86
2010,53.48
2022,61.78
2034,67.69
2046,70.55
2058,70.33
2069,67.53
2080,63.01
2092,57.8
2104,52.73
2116,48.17
2128,43.72
2140,38.14
2152,29.66
2164,16.68
2176,-1.47
2188,-23.86
2200,-48.07
2212,-70.92
2224,-89.55
2236,-102.43
2248,-109.66
2259,-112.64
2270,-113.3
2282,-113.19
2294,-113.11
2306,-113.05
2318,-112.54
2330,-111.11
2342,-108.48
2354,-104.65
2366,-99.82
2378,-94.21
2390,-88.07
2402,-81.56
2414,-74.89
2426,-68.33
2438,-62.24
2449,-57.0
2460,-52.85
2472,-49.75
2484,-47.4
2496,-45.32
2508,-43.1
2520,-40.5
2532,-37.48
2544,-34.02
2556,-30.0
2568,-25.11
2580,-19.0
2592,-11.44
2604,-2.51
2616,7.36
2628,17.52
2639,27.29
2650,36.1
2662,43.56
2674,49.47
2686,53.8
2698,56.67
2710,58.35
2722,59.28
2734,59.99
2746,60.94
2758,62.46
2770,64.61
2782,67.22
2794,69.93
2806,72.42
2818,74.49
2829,76.19
2840,77.75
2852,79.45
2864,81.52
2876,83.97
2888,86.69
2900,89.48
2912,92.2
2924,94.85
2936,97.47
2948,100.09
2960,102.6
2972,104.71
2984,105.99
2996,106.08
3008,104.76
3019,102.22
3030,99.0
3042,95.95
3054,93.93
3066,93.56
3078,94.99
3090,97.82
3102,101.39
3114,105.1
3126,108.85
3138,113.19
3150,119.19
3162,127.96
3174,140.11
3186,155.43
3198,172.72
3209,190.02
3220,204.98
3232,215.12
3244,218.13
3256,212.15
3268,196.07
3280,169.86
3292,134.89
3304,93.81
3316,50.19
3328,7.78
3340,-30.4
3352,-62.61
3364,-88.54
3376,-108.94
3388,-125.05
3399,-137.92
3410,-148.01
3422,-155.25
3434,-159.23
3446,-159.6
3458,-156.18
3470,-149.11
3482,-138.73
3494,-125.49
3506,-110.05
3518,-93.2
3530,-75.93
3542,-59.37
3554,-44.77
3566,-33.62
3578,-27.74
3589,-29.2
3600,-39.99
3612,-61.31
3624,-92.89
3636,-132.5
3648,-176.13
3660,-218.7
3672,-255.22
3684,-281.92
3696,-296.8
3708,-299.6
3720,-291.24
3732,-273.19
3744,-247.2
3756,-215.44
3768,-180.75
3779,-146.61
3790,-116.7
3802,-93.95
3814,-79.8
3826,-73.74
3838,-73.73
3850,-77.12
3862,-81.63
3874,-85.9
3886,-89.54
3898,-92.64
3910,-95.34
3922,-97.58
3934,-99.22
3946,-100.22
3958,-100.72
3969,-101.08
3980,-101.57
3992,-102.08
4004,-101.83
4016,-99.29
4028,-92.56
4040,-80.05
4052,-61.15
4064,-36.78
4076,-9.17
4088,18.88
4100,44.9
4112,67.42
4124,86.01
4136,100.88
4148,112.18
4159,119.84
4170,123.72
4182,123.91
4194,120.96
4206,115.88
4218,109.94
4230,104.49
4242,100.73
4254,99.5
4266,101.0
4278,104.57
4290,108.77
4302,111.83
4314,112.34
4326,109.88
4338,105.13
4349,99.35
4360,93.65
4372,88.35
4384,82.86
4396,76.06
4408,67.01
4420,55.43
4432,41.97
4444,27.95
4456,14.93
4468,4.2
4480,-3.58
4492,-8.64
4504,-11.88
4516,-14.43
4528,-17.18
4539,-20.5
4550,-24.28
4562,-28.24
4574,-32.21
4586,-36.28
4598,-40.58
4610,-45.0
4622,-49.05
4634,-51.92
4646,-52.8
4658,-51.19
4670,-47.13
4682,-41.16
4694,-34.13
4706,-26.85
4718,-19.86
4729,-13.3
4740,-7.08
4752,-1.01
4764,4.92
4776,10.51
4788,15.36
4800,19.03
4812,21.29
4824,22.18
4836,22.0
4848,21.17
4860,20.04
4872,18.81
4884,17.53
4896,16.12
4908,14.52
4919,12.7
4930,10.81
4942,9.15
4954,8.15
4966,8.25
4978,9.81
4990,12.88
5002,17.21
5014,22.37
5026,27.9
5038,33.44
5050,38.74
5062,43.6
5074,47.72
5086,50.77
5098,52.5
5109,52.9
5120,52.34
5132,51.52
5144,51.28
5156,52.25
5168,54.65
5180,58.11
5192,61.81
5204,64.62
5216,65.44
5228,63.68
5240,59.54
5252,54.14
5264,49.32
5276,47.08
5288,48.94
5299,55.41
5310,65.82
5322,78.41
5334,90.84
5346,100.82
5358,106.66
5370,107.79
5382,104.74
5394,99.0
5406,92.37
5418,86.3
5430,81.34
5442,77.02
5454,72.18
5466,65.52
5478,56.27
5489,44.45
5500,30.86
5512,16.77
5524,3.52
5536,-7.68
5548,-15.92
5560,-20.66
5572,-21.79
5584,-19.66
5596,-15.02
5608,-8.93
5620,-2.54
5632,3.13
5644,7.36
5656,9.86
5668,10.83
5679,10.87
5690,10.81
5702,11.34
5714,12.71
5726,14.56
5738,15.99
5750,16.13
5762,14.61
5774,12.02
5786,9.87
5798,10.11
5810,14.46
5822,23.75
5834,37.53
5846,54.04
5858,70.45
5869,83.4
5880,89.73
5892,87.55
5904,77.04
5916,60.76
5928,43.07
5940,28.58
5952,20.44
5964,19.18
5976,22.72
5988,27.62
6000,30.91
6012,31.5
6024,30.5
6036,30.49
6048,34.09
6059,42.68
6070,55.83
6082,71.27
6094,85.42
6106,94.28
6118,94.36
6130,83.65
6142,62.29
6154,32.74
6166,-0.86
6178,-33.88
6190,-62.54
6202,-84.83
6214,-100.64
6226,-111.19
6238,-118.2
6249,-123.11
6260,-126.88
6272,-130.1
6284,-133.23
6296,-136.72
6308,-140.92
6320,-145.81
6332,-150.93
6344,-155.48
6356,-158.59
6368,-159.61
6380,-158.22
6392,-154.47
6404,-148.53
6416,-140.52
6428,-130.35
6439,-117.82
6450,-102.79
6462,-85.39
6474,-66.35
6486,-46.9
6498,-28.56
6510,-12.71
6522,-0.16
6534,9.06
6546,15.66
6558,20.62
6570,24.82
6582,28.64
6594,31.97
6606,34.38
6618,35.38
6629,34.71
6640,32.29
6652,28.26
6664,22.95
6676,16.85
6688,10.69
6700,5.36
6712,1.64
6724,-0.13
6736,-0.27
6748,0.33
6760,0.52
6772,-0.52
6784,-2.94
6796,-6.2
6808,-9.36
6819,-11.63
6830,-12.7
6842,-12.87
6854,-12.73
6866,-12.74
6878,-12.77
6890,-11.95
6902,-8.81
6914,-1.67
6926,10.87
6938,29.39
6950,53.34
6962,81.01
6974,109.7
6986,136.37
6998,158.17
7009,173.12
7020,180.37
7032,180.17
7044,173.67
7056,162.44
7068,148.21
7080,132.6
7092,117.01
7104,102.43
7116,89.34
7128,77.66
7140,66.87
7152,56.29
7164,45.37
7176,33.92
7188,22.14
7199,10.45
7210,-0.67
7222,-10.83
7234,-19.73
7246,-27.23
7258,-33.5
7270,-39.2
7282,-45.6
7294,-54.4
7306,-67.15
7318,-84.57
7330,-106.03
7342,-129.52
7354,-152.25
7366,-171.59
7378,-186.01
7389,-195.67
7400,-202.22
7412,-208.14
7424,-215.71
7436,-226.17
7448,-239.3
7460,-253.55
7472,-266.62
7484,-276.2
7496,-280.7
7508,-279.72
7520,-274.22
7532,-266.32
7544,-258.82
7556,-254.6
7568,-255.8
7579,-263.05
7590,-274.97
7602,-288.17
7614,-297.82
7626,-298.94
7638,-287.88
7650,-263.6
7662,-228.03
7674,-185.68
7686,-142.17
7698,-102.63
7710,-70.42
7722,-46.56
7734,-30.13
7746,-19.06
7758,-11.02
7769,-4.04
7780,3.33
7792,12.06
7804,22.7
7816,35.26
7828,49.17
7840,63.41
7852,76.77
7864,88.34
7876,97.8
7888,105.46
7900,111.98
7912,118.02
7924,123.87
7936,129.43
7948,134.31
7959,138.07
7970,140.39
7982,141.13
7994,140.33
8006,138.14
8018,134.77
8030,130.44
8042,125.29
8054,119.32
8066,112.43
8078,104.49
8090,95.52
8102,85.72
8114,75.48
8126,65.22
8138,55.32
8149,46.01
8160,37.41
8172,29.63
8184,22.79
8196,17.05
8208,12.48
8220,9.02
8232,6.44
8244,4.37
8256,2.33
8268,-0.11
8280,-3.31
8292,-7.4
8304,-12.2
8316,-17.16
8328,-21.52
8339,-24.34
8350,-24.68
8362,-21.63
8374,-14.44
8386,-2.86
8398,12.57
8410,30.35
8422,48.47
8434,65.2
8446,79.88
8458,93.13
8470,106.26
8482,120.14
8494,134.31
8506,146.95
8518,155.78
8529,159.4
8540,158.21
8552,154.27
8564,150.3
8576,148.38
8588,149.3
8600,152.66
8612,157.58
8624,163.37
8636,169.72
8648,176.42
8660,183.02
8672,188.51
8684,191.52
8696,190.61
8708,184.81
8719,173.9
8730,158.39
8742,139.31
8754,117.89
8766,95.21
8778,72.04
8790,48.95
8802,26.49
8814,5.4
8826,-13.3
8838,-28.51
8850,-39.31
8862,-45.35
8874,-46.99
8886,-45.28
8898,-41.7
8909,-37.86
8920,-35.09
8932,-34.19
8944,-35.3
8956,-37.92
8968,-41.12
8980,-43.81
8992,-45.12
9004,-44.6
9016,-42.33
9028,-38.78
9040,-34.64
9052,-30.55
9064,-26.94
9076,-24.02
9088,-21.77
9099,-20.03
9110,-18.54
9122,-17.09
9134,-15.55
9146,-13.93
9158,-12.53
9170,-11.79
9182,-12.19
9194,-13.98
9206,-16.93
9218,-20.32
9230,-23.07
9242,-24.14
9254,-22.86
9266,-19.24
9278,-13.8
9289,-7.39
9300,-0.83
9312,5.37
9324,10.97
9336,15.96
9348,20.28
9360,23.8
9372,26.27
9384,27.47
9396,27.36
9408,26.19
9420,24.43
9432,22.65
9444,21.37
9456,20.84
9468,21.03
9479,21.67
9490,22.41
9502,22.93
9514,23.07
9526,22.8
9538,22.1
9550,20.97
9562,19.29
9574,16.93
9586,13.78
9598,9.78
9610,4.99
9622,-0.42
9634,-6.12
9646,-11.6
9658,-16.22
9669,-19.36
9680,-20.6
9692,-19.84
9704,-17.32
9716,-13.49
9728,-8.89
9740,-4.0
9752,0.76
9764,4.97
9776,8.21
9788,10.11
9800,10.44
9812,9.3
9824,7.06
9836,4.27
9848,1.43
9859,-1.21
9870,-3.72
9882,-6.38
9894,-9.51
9906,-13.25
9918,-17.45
9930,-21.74
9942,-25.69
9954,-29.03
9966,-31.7
9978,-33.9
9990,-35.87
10002,-37.81
10014,-39.82
10026,-41.87
10038,-43.92
10049,-45.89
10060,-47.57
10072,-48.58
10084,-48.39
10096,-46.56
10108,-42.93
10120,-37.8
10132,-31.87
10144,-25.98
10156,-20.79
10168,-16.63
10180,-13.47
10192,-11.17
10204,-9.63
10216,-8.94
10228,-9.24
10239,-10.57
10250,-12.74
10262,-15.23
10274,-17.42
10286,-18.79
10298,-19.06
10310,-18.33
10322,-16.96
10334,-15.37
10346,-13.93
10358,-12.79
10370,-11.94
10382,-11.23
10394,-10.57
10406,-9.95
10418,-9.48
10429,-9.33
10440,-9.7
10452,-10.7
10464,-12.37
10476,-14.61
10488,-17.28
10500,-20.14
10512,-22.87
10524,-25.0
10536,-26.0
10548,-25.34
10560,-22.72
10572,-18.15
10584,-12.06
10596,-5.16
10608,1.73
10619,7.88
10630,12.79
10642,16.21
10654,18.07
10666,18.53
10678,17.83
10690,16.36
10702,14.51
10714,12.66
10726,11.08
10738,9.94
10750,9.28
10762,9.02
10774,9.07
10786,9.26
10798,9.43
10809,9.41
10820,9.1
10832,8.43
10844,7.39
10856,5.94
10868,4.09
10880,1.85
10892,-0.71
10904,-3.44
10916,-6.14
10928,-8.66
10940,-10.95
10952,-13.14
10964,-15.44
10976,-18.1
10988,-21.12
10999,-24.22
11010,-26.82
11022,-28.15
11034,-27.57
11046,-24.78
11058,-19.98
11070,-13.81
11082,-7.09
11094,-0.63
11106,4.95
11118,9.36
11130,12.47
11142,14.31
11154,14.95
11166,14.57
11178,13.39
11189,11.72
11200,9.93
11212,8.29
11224,7.02
11236,6.2
11248,5.82
11260,5.9
11272,6.38
11284,7.19
11296,8.11
11308,8.9
11320,9.24
11332,8.94
11344,7.98
11356,6.5
11368,4.77
11379,3.03
11390,1.45
11402,0.01
11414,-1.38
11426,-2.84
11438,-4.42
11450,-6.09
11462,-7.7
11474,-9.11
11486,-10.23
11498,-11.11
11510,-11.93
11522,-12.93
11534,-14.42
11546,-16.54
11558,-19.3
11569,-22.48
11580,-25.64
11592,-28.18
11604,-29.37
11616,-28.62
11628,-25.61
11640,-20.43
11652,-13.66
11664,-6.2
11676,0.96
11688,7.03
11700,11.52
11712,14.29
11724,15.41
11736,15.12
11748,13.72
11759,11.59
11770,9.21
11782,7.06
11794,5.57
11806,4.91
11818,5.05
11830,5.75
11842,6.69
11854,7.65
11866,8.48
11878,9.12
11890,9.53
11902,9.63
11914,9.3
11926,8.49
11938,7.19
11949,5.54
11960,3.75
11972,2.0
11984,0.37
11996,-1.15
12008,-2.67
12020,-4.29
12032,-6.0
12044,-7.7
12056,-9.27
12068,-10.56
12080,-11.54
12092,-12.29
12104,-12.93
12116,-13.64
12128,-14.62
12139,-16.08
12150,-18.16
12162,-20.9
12174,-24.07
12186,-27.14
12198,-29.32
12210,-29.81
12222,-28.05
12234,-23.91
12246,-17.82
12258,-10.53
12270,-2.94
12282,4.21
12294,10.36
12306,15.15
12318,18.4
12329,20.03
12340,20.15
12352,19.03
12364,17.12
12376,14.93
12388,12.89
12400,11.3
12412,10.25
12424,9.7
12436,9.56
12448,9.74
12460,10.16
12472,10.7
12484,11.22
12496,11.58
12508,11.64
12519,11.33
12530,10.63
12542,9.57
12554,8.2
12566,6.58
12578,4.81
12590,2.98
12602,1.16
12614,-0.55
12626,-2.12
12638,-3.54
12650,-4.83
12662,-6.05
12674,-7.26
12686,-8.52
12698,-9.85
12709,-11.28
12720,-12.83
12732,-14.58
12744,-16.64
12756,-19.1
12768,-22.03
12780,-25.27
12792,-28.38
12804,-30.69
12816,-31.44
12828,-30.03
12840,-26.26
12852,-20.41
12864,-13.21
12876,-5.53
12888,1.78
12899,8.14
12910,13.23
12922,16.9
12934,19.13
12946,19.92
12958,19.4
12970,17.84
12982,15.7
12994,13.46
13006,11.61
13018,10.38
13030,9.75
13042,9.55
13054,9.56
13066,9.64
13078,9.8
13089,10.11
13100,10.56
13112,11.03
13124,11.24
13136,10.91
13148,9.91
13160,8.31
13172,6.42
13184,4.58
13196,3.02
13208,1.77
13220,0.69
13232,-0.45
13244,-1.8
13256,-3.37
13268,-5.06
13279,-6.74
13290,-8.3
13302,-9.68
13314,-10.9
13326,-12.04
13338,-13.18
13350,-14.47
13362,-16.06
13374,-18.07
13386,-20.51
13398,-23.2
13410,-25.7
13422,-27.4
13434,-27.61
13446,-25.8
13458,-21.8
13469,-15.89
13480,-8.78
13492,-1.36
13504,5.5
13516,11.13
13528,15.19
13540,17.53
13552,18.19
13564,17.34
13576,15.33
13588,12.65
13600,9.89
13612,7.62
13624,6.16
13636,5.56
13648,5.66
13659,6.18
13670,6.91
13682,7.74
13694,8.6
13706,9.37
13718,9.89
13730,9.98
13742,9.57
13754,8.72
13766,7.57
13778,6.29
13790,4.9
13802,3.36
13814,1.62
13826,-0.3
13838,-2.24
13849,-3.94
13860,-5.25
13872,-6.15
13884,-6.8
13896,-7.45
13908,-8.32
13920,-9.49
13932,-10.95
13944,-12.68
13956,-14.68
13968,-17.0
13980,-19.6
13992,-22.22
14004,-24.35
14016,-25.32
14028,-24.49
14039,-21.56
14050,-16.67
14062,-10.35
14074,-3.35
14086,3.55
14098,9.74
14110,14.78
14122,18.34
14134,20.22
14146,20.31
14158,18.74
14170,15.88
14182,12.36
14194,8.88
14206,6.07
14218,4.31
14229,3.67
14240,4.0
14252,5.0
14264,6.29
14276,7.53
14288,8.44
14300,8.89
14312,8.88
14324,8.53
14336,8.01
14348,7.38
14360,6.64
14372,5.65
14384,4.3
14396,2.5
14408,0.4
14419,-1.81
14430,-3.88
14442,-5.68
14454,-7.2
14466,-8.55
14478,-9.9
14490,-11.33
14502,-12.9
14514,-14.59
14526,-16.43
14538,-18.4
14550,-20.4
14562,-22.18
14574,-23.34
14586,-23.36
14598,-21.77
14609,-18.36
14620,-13.26
14632,-6.99
14644,-0.25
14656,6.15
14668,11.58
14680,15.56
14692,17.83
14704,18.35
14716,17.29
14728,14.97
14740,11.86
14752,8.52
14764,5.51
14776,3.25
14788,2.02
14799,1.83
14810,2.53
14822,3.8
14834,5.24
14846,6.48
14858,7.24
14870,7.4
14882,7.0
14894,6.16
14906,5.08
14918,3.88
14930,2.63
14942,1.3
14954,-0.16
14966,-1.77
14978,-3.53
14989,-5.39
15000,-7.28
15012,-9.2
15024,-11.16
15036,-13.23
15048,-15.48
15060,-17.92
15072,-20.48
15084,-22.94
15096,-24.94
15108,-25.99
15120,-25.61
15132,-23.45
15144,-19.43
15156,-13.81
15168,-7.11
15179,0.0
15190,6.78
15202,12.55
15214,16.78
15226,19.07
15238,19.28
15250,17.6
15262,14.51
15274,10.76
15286,7.11
15298,4.15
15310,2.15
15322,1.07
15334,0.65
15346,0.66
15358,0.98
15369,1.59
15380,2.48
15392,3.54
15404,4.56
15416,5.21
15428,5.24
15440,4.5
15452,3.04
15464,1.03
15476,-1.27
15488,-3.65
15500,-5.96
15512,-8.18
15524,-10.35
15536,-12.59
15548,-15.0
15559,-17.69
15570,-20.72
15582,-23.97
15594,-27.18
15606,-29.82
15618,-31.25
15630,-30.77
15642,-27.93
15654,-22.64
15666,-15.33
15678,-6.86
15690,1.72
15702,9.35
15714,15.23
15726,18.96
15738,20.5
15749,20.15
15760,18.37
15772,15.71
15784,12.63
15796,9.46
15808,6.44
15820,3.75
15832,1.59
15844,0.19
15856,-0.26
15868,0.27
15880,1.61
15892,3.36
15904,4.99
15916,5.94
15928,5.89
15939,4.72
15950,2.58
15962,-0.2
15974,-3.22
15986,-6.16
15998,-8.81
16010,-11.15
16022,-13.27
16034,-15.39
16046,-17.75
16058,-20.56
16070,-23.88
16082,-27.54
16094,-31.06
16106,-33.65
16118,-34.45
16129,-32.75
16140,-28.24
16152,-21.2
16164,-12.45
16176,-3.08
16188,5.84
16200,13.5
16212,19.41
16224,23.4
16236,25.44
16248,25.61
16260,24.05
16272,21.09
16284,17.29
16296,13.29
16308,9.76
16319,7.15
16330,5.66
16342,5.22
16354,5.56
16366,6.31
16378,7.14
16390,7.73
16402,7.84
16414,7.29
16426,6.03
16438,4.12
16450,1.75
16462,-0.84
16474,-3.44
16486,-5.97
16498,-8.51
16509,-11.2
16520,-14.23
16532,-17.75
16544,-21.85
16556,-26.38
16568,-31.02
16580,-35.1
16592,-37.74
16604,-38.01
16616,-35.26
16628,-29.32
16640,-20.7
16652,-10.43
16664,0.17
16676,9.88
16688,17.79
16699,23.44
16710,26.68
16722,27.64
16734,26.62
16746,24.05
16758,20.5
16770,16.6
16782,12.99
16794,10.14
16806,8.31
16818,7.48
16830,7.48
16842,8.07
16854,9.0
16866,10.03
16878,10.87
16889,11.25
16900,10.92
16912,9.78
16924,7.87
16936,5.35
16948,2.46
16960,-0.64
16972,-3.83
16984,-7.12
16996,-10.58
17008,-14.35
17020,-18.55
17032,-23.24
17044,-28.23
17056,-32.93
17068,-36.41
17079,-37.56
17090,-35.5
17102,-29.92
17114,-21.3
17126,-10.73
17138,0.36
17150,10.67
17162,19.27
17174,25.65
17186,29.64
17198,31.29
17210,30.81
17222,28.56
17234,25.08
17246,21.04
17258,17.22
17269,14.22
17280,12.46
17292,12.01
17304,12.67
17316,14.01
17328,15.54
17340,16.85
17352,17.65
17364,17.83
17376,17.38
17388,16.36
17400,14.87
17412,12.99
17424,10.75
17436,8.14
17448,5.12
17459,1.64
17470,-2.35
17482,-6.82
17494,-11.69
17506,-16.76
17518,-21.62
17530,-25.69
17542,-28.24
17554,-28.5
17566,-25.94
17578,-20.46
17590,-12.52
17602,-3.0
17614,6.99
17626,16.43
17638,24.52
17649,30.79
17660,34.96
17672,36.85
17684,36.44
17696,33.92
17708,29.79
17720,24.89
17732,20.19
17744,16.57
17756,14.53
17768,14.15
17780,15.03
17792,16.59
17804,18.2
17816,19.37
17828,19.83
17839,19.49
17850,18.39
17862,16.66
17874,14.46
17886,11.92
17898,9.15
17910,6.19
17922,3.05
17934,-0.27
17946,-3.85
17958,-7.78
17970,-12.21
17982,-17.15
17994,-22.35
18006,-27.15
18018,-30.53
18029,-31.43
18040,-29.06
18052,-23.29
18064,-14.71
18076,-4.51
18088,5.88
18100,15.21
18112,22.66
18124,27.81
18136,30.62
18148,31.21
18160,29.83
18172,26.89
18184,22.91
18196,18.54
18208,14.47
18219,11.2
18230,9.05
18242,8.04
18254,8.03
18266,8.72
18278,9.79
18290,10.91
18302,11.76
18314,12.04
18326,11.57
18338,10.26
18350,8.19
18362,5.56
18374,2.63
18386,-0.43
18398,-3.56
18409,-6.86
18420,-10.55
18432,-14.85
18444,-19.77
18456,-25.03
18468,-29.97
18480,-33.7
18492,-35.28
18504,-34.03
18516,-29.75
18528,-22.82
18540,-14.12
18552,-4.75
18564,4.17
18576,11.79
18588,17.54
18599,21.15
18610,22.55
18622,21.8
18634,19.15
18646,15.04
18658,10.15
18670,5.28
18682,1.27
18694,-1.27
18706,-2.07
18718,-1.29
18730,0.53
18742,2.61
18754,4.2
18766,4.76
18778,4.1
18789,2.47
18800,0.27
18812,-2.03
18824,-4.17
18836,-6.15
18848,-8.16
18860,-10.53
18872,-13.5
18884,-17.2
18896,-21.56
18908,-26.31
18920,-30.94
18932,-34.73
18944,-36.79
18956,-36.33
18968,-32.86
18979,-26.45
18990,-17.73
19002,-7.78
19014,2.19
19026,11.08
19038,18.06
19050,22.63
19062,24.59
19074,24.05
19086,21.36
19098,17.07
19110,11.94
19122,6.79
19134,2.34
19146,-0.85
19158,-2.55
19169,-2.84
19180,-2.07
19192,-0.81
19204,0.35
19216,0.89
19228,0.51
19240,-0.83
19252,-2.87
19264,-5.25
19276,-7.67
19288,-10.06
19300,-12.64
19312,-15.8
19324,-19.99
19336,-25.36
19348,-31.67
19359,-38.14
19370,-43.66
19382,-47.0
19394,-47.17
19406,-43.72
19418,-36.84
19430,-27.28
19442,-16.15
19454,-4.65
19466,6.19
19478,15.52
19490,22.75
19502,27.52
19514,29.64
19526,29.18
19538,26.5
19549,22.28
19560,17.42
19572,12.86
19584,9.38
19596,7.38
19608,6.83
19620,7.3
19632,8.15
19644,8.71
19656,8.53
19668,7.4
19680,5.44
19692,2.9
19704,0.05
19716,-2.95
19728,-6.17
19739,-9.74
19750,-13.87
19762,-18.69
19774,-24.23
19786,-30.42
19798,-37.0
19810,-43.43
19822,-48.82
19834,-52.0
19846,-51.78
19858,-47.38
19870,-38.77
19882,-26.85
19894,-13.19
19906,0.41
19918,12.44
19929,22.03
19940,28.88
19952,33.15
19964,35.14
19976,35.16
19988,33.54
20000,30.7
20012,27.24
20024,23.87
20036,21.18
20048,19.58
20060,19.13
20072,19.6
20084,20.54
20096,21.45
20108,21.89
20119,21.51
20130,20.13
20142,17.71
20154,14.39
20166,10.38
20178,5.94
20190,1.35
20202,-3.22
20214,-7.63
20226,-11.87
20238,-16.07
20250,-20.52
20262,-25.56
20274,-31.43
20286,-37.95
20298,-44.38
20309,-49.41
20320,-51.51
20332,-49.42
20344,-42.7
20356,-31.92
20368,-18.56
20380,-4.49
20392,8.59
20404,19.61
20416,28.14
20428,34.26
20440,38.16
20452,40.02
20464,39.95
20476,38.19
20488,35.26
20499,31.96
20510,29.21
20522,27.7
20534,27.65
20546,28.77
20558,30.4
20570,31.87
20582,32.64
20594,32.49
20606,31.46
20618,29.65
20630,27.16
20642,24.05
20654,20.36
20666,16.16
20678,11.59
20689,6.77
20700,1.81
20712,-3.2
20724,-8.12
20736,-12.8
20748,-17.04
20760,-20.74
20772,-24.06
20784,-27.33
20796,-31.11
20808,-35.86
20820,-41.85
20832,-48.91
20844,-56.42
20856,-63.34
20868,-68.34
20879,-70.04
20890,-67.38
20902,-59.93
20914,-48.06
20926,-32.96
20938,-16.33
20950,0.05
20962,14.75
20974,26.85
20986,35.99
20998,42.19
