seconds,BVP
2,6.72
14,7.08
26,7.28
38,7.29
50,7.11
61,6.69
72,6.07
84,5.35
96,4.65
108,4.05
120,3.55
132,3.06
144,2.45
156,1.69
168,0.83
180,-0.01
192,-0.71
204,-1.25
216,-1.65
228,-1.96
240,-2.2
251,-2.35
262,-2.39
274,-2.38
286,-2.43
298,-2.65
310,-3.12
322,-3.83
334,-4.72
346,-5.69
358,-6.63
370,-7.48
382,-8.15
394,-8.61
406,-8.86
418,-9.01
430,-9.2
441,-9.62
452,-10.37
464,-11.33
476,-12.23
488,-12.69
500,-12.4
512,-11.21
524,-9.26
536,-6.84
548,-4.35
560,-2.13
572,-0.35
584,0.98
596,1.97
608,2.75
620,3.44
631,4.06
642,4.6
654,5.01
666,5.25
678,5.29
690,5.17
702,4.92
714,4.59
726,4.19
738,3.82
750,3.53
762,3.47
774,3.74
786,4.37
798,5.25
810,6.16
821,6.81
832,7.02
844,6.71
856,6.0
868,5.12
880,4.29
892,3.68
904,3.3
916,3.06
928,2.82
940,2.46
952,1.93
964,1.22
976,0.39
988,-0.51
1000,-1.4
1011,-2.22
1022,-2.94
1034,-3.54
1046,-4.06
1058,-4.54
1070,-5.06
1082,-5.66
1094,-6.36
1106,-7.13
1118,-7.91
1130,-8.62
1142,-9.21
1154,-9.68
1166,-10.11
1178,-10.62
1190,-11.32
1201,-12.22
1212,-13.21
1224,-14.0
1236,-14.22
1248,-13.55
1260,-11.81
1272,-9.08
1284,-5.68
1296,-2.07
1308,1.25
1320,3.92
1332,5.76
1344,6.81
1356,7.27
1368,7.4
1380,7.45
1391,7.59
1402,7.85
1414,8.19
1426,8.5
1438,8.67
1450,8.67
1462,8.5
1474,8.28
1486,8.07
1498,7.99
1510,8.04
1522,8.21
1534,8.4
1546,8.55
1558,8.56
1570,8.39
1581,8.08
1592,7.63
1604,7.09
1616,6.49
1628,5.86
1640,5.25
1652,4.68
1664,4.17
1676,3.71
1688,3.25
1700,2.69
1712,1.98
1724,1.12
1736,0.13
1748,-0.87
1760,-1.77
1771,-2.48
1782,-2.99
1794,-3.39
1806,-3.81
1818,-4.41
1830,-5.24
1842,-6.28
1854,-7.36
1866,-8.3
1878,-8.95
1890,-9.3
1902,-9.44
1914,-9.56
1926,-9.82
1938,-10.33
1950,-11.12
1961,-12.15
1972,-13.29
1984,-14.35
1996,-15.03
2008,-15.0
2020,-13.96
2032,-11.8
2044,-8.68
2056,-5.0
2068,-1.25
2080,2.07
2092,4.71
2104,6.62
2116,7.98
2128,9.02
2140,9.93
2151,10.76
2162,11.4
2174,11.7
2186,11.56
2198,10.98
2210,10.18
2222,9.41
2234,8.87
2246,8.66
2258,8.7
2270,8.84
2282,9.0
2294,9.14
2306,9.28
2318,9.38
2330,9.34
2341,9.05
2352,8.46
2364,7.69
2376,6.92
2388,6.32
2400,5.91
2412,5.55
2424,5.08
2436,4.38
2448,3.53
2460,2.73
2472,2.18
2484,1.92
2496,1.84
2508,1.77
2520,1.53
2531,1.07
2542,0.41
2554,-0.4
2566,-1.31
2578,-2.33
2590,-3.43
2602,-4.6
2614,-5.74
2626,-6.73
2638,-7.51
2650,-8.01
2662,-8.26
2674,-8.33
2686,-8.32
2698,-8.36
2710,-8.57
2721,-9.03
2732,-9.78
2744,-10.77
2756,-11.93
2768,-13.1
2780,-14.1
2792,-14.69
2804,-14.63
2816,-13.75
2828,-12.01
2840,-9.53
2852,-6.56
2864,-3.41
2876,-0.39
2888,2.27
2900,4.47
2911,6.17
2922,7.42
2934,8.29
2946,8.85
2958,9.14
2970,9.18
2982,8.96
2994,8.54
3006,8.01
3018,7.51
3030,7.21
3042,7.2
3054,7.42
3066,7.71
3078,7.88
3090,7.8
3101,7.48
3112,7.06
3124,6.68
3136,6.44
3148,6.29
3160,6.12
3172,5.81
3184,5.35
3196,4.76
3208,4.16
3220,3.6
3232,3.07
3244,2.52
3256,1.91
3268,1.22
3280,0.51
3291,-0.14
3302,-0.66
3314,-1.03
3326,-1.28
3338,-1.51
3350,-1.83
3362,-2.39
3374,-3.26
3386,-4.42
3398,-5.72
3410,-6.97
3422,-7.94
3434,-8.5
3446,-8.68
3458,-8.61
3470,-8.48
3481,-8.44
3492,-8.61
3504,-9.03
3516,-9.74
3528,-10.69
3540,-11.74
3552,-12.6
3564,-12.91
3576,-12.33
3588,-10.67
3600,-7.99
3612,-4.61
3624,-0.99
3636,2.43
3648,5.31
3660,7.53
3671,9.1
3682,10.17
3694,10.87
3706,11.31
3718,11.54
3730,11.58
3742,11.46
3754,11.17
3766,10.76
3778,10.29
3790,9.83
3802,9.5
3814,9.36
3826,9.42
3838,9.61
3850,9.81
3861,9.87
3872,9.68
3884,9.21
3896,8.51
3908,7.68
3920,6.81
3932,5.95
3944,5.14
3956,4.42
3968,3.81
3980,3.36
3992,3.07
4004,2.86
4016,2.64
4028,2.29
4040,1.74
4051,0.99
4062,0.13
4074,-0.7
4086,-1.41
4098,-1.95
4110,-2.38
4122,-2.79
4134,-3.26
4146,-3.8
4158,-4.37
4170,-4.93
4182,-5.48
4194,-6.07
4206,-6.75
4218,-7.52
4230,-8.32
4241,-9.04
4252,-9.64
4264,-10.13
4276,-10.6
4288,-11.17
4300,-11.91
4312,-12.82
4324,-13.8
4336,-14.72
4348,-15.38
4360,-15.55
4372,-15.01
4384,-13.61
4396,-11.35
4408,-8.41
4420,-5.13
4431,-1.91
4442,0.91
4454,3.16
4466,4.84
4478,6.05
4490,6.93
4502,7.59
4514,8.08
4526,8.41
4538,8.63
4550,8.8
4562,8.95
4574,9.12
4586,9.27
4598,9.36
4610,9.35
4621,9.24
4632,9.07
4644,8.89
4656,8.71
4668,8.53
4680,8.29
4692,7.96
4704,7.54
4716,7.02
4728,6.44
4740,5.82
4752,5.19
4764,4.59
4776,4.08
4788,3.7
4800,3.44
4811,3.22
4822,2.93
4834,2.47
4846,1.78
4858,0.88
4870,-0.16
4882,-1.22
4894,-2.22
4906,-3.07
4918,-3.75
4930,-4.26
4942,-4.66
4954,-5.02
4966,-5.44
4978,-5.92
4990,-6.43
5001,-6.86
5012,-7.16
5024,-7.3
5036,-7.34
5048,-7.38
5060,-7.49
5072,-7.74
5084,-8.13
5096,-8.65
5108,-9.29
5120,-10.09
5132,-11.06
5144,-12.19
5156,-13.37
5168,-14.39
5180,-14.92
5191,-14.63
5202,-13.29
5214,-10.9
5226,-7.73
5238,-4.24
5250,-0.96
5262,1.77
5274,3.81
5286,5.26
5298,6.3
5310,7.07
5322,7.62
5334,7.89
5346,7.87
5358,7.59
5370,7.17
5381,6.74
5392,6.4
5404,6.16
5416,5.97
5428,5.8
5440,5.66
5452,5.63
5464,5.78
5476,6.16
5488,6.7
5500,7.27
5512,7.69
5524,7.81
5536,7.56
5548,6.97
5560,6.18
5571,5.32
5582,4.45
5594,3.59
5606,2.73
5618,1.88
5630,1.1
5642,0.47
5654,0.0
5666,-0.36
5678,-0.77
5690,-1.37
5702,-2.2
5714,-3.16
5726,-4.08
5738,-4.76
5750,-5.12
5761,-5.21
5772,-5.16
5784,-5.14
5796,-5.26
5808,-5.56
5820,-6.07
5832,-6.79
5844,-7.71
5856,-8.77
5868,-9.87
5880,-10.86
5892,-11.63
5904,-12.06
5916,-12.15
5928,-11.9
5940,-11.3
5951,-10.33
5962,-8.95
5974,-7.13
5986,-4.9
5998,-2.36
6010,0.31
6022,2.91
6034,5.22
6046,7.09
6058,8.46
6070,9.38
6082,9.94
6094,10.22
6106,10.28
6118,10.14
6130,9.8
6141,9.34
6152,8.83
6164,8.41
6176,8.11
6188,7.89
6200,7.64
6212,7.25
6224,6.73
6236,6.19
6248,5.82
6260,5.72
6272,5.9
6284,6.22
6296,6.48
6308,6.53
6320,6.3
6331,5.8
6342,5.05
6354,4.11
6366,3.02
6378,1.83
6390,0.62
6402,-0.48
6414,-1.35
6426,-1.92
6438,-2.19
6450,-2.25
6462,-2.21
6474,-2.19
6486,-2.26
6498,-2.43
6510,-2.68
6521,-2.97
6532,-3.26
6544,-3.51
6556,-3.68
6568,-3.77
6580,-3.78
6592,-3.76
6604,-3.83
6616,-4.09
6628,-4.68
6640,-5.62
6652,-6.86
6664,-8.25
6676,-9.61
6688,-10.8
6700,-11.64
6711,-11.97
6722,-11.65
6734,-10.59
6746,-8.73
6758,-6.17
6770,-3.14
6782,0.09
6794,3.16
6806,5.83
6818,7.91
6830,9.36
6842,10.2
6854,10.52
6866,10.39
6878,9.88
6890,9.09
6901,8.14
6912,7.21
6924,6.42
6936,5.87
6948,5.61
6960,5.59
6972,5.76
6984,6.03
6996,6.37
7008,6.77
7020,7.22
7032,7.65
7044,7.94
7056,8.01
7068,7.76
7080,7.2
7091,6.38
7102,5.36
7114,4.24
7126,3.08
7138,1.92
7150,0.85
7162,-0.11
7174,-0.91
7186,-1.6
7198,-2.24
7210,-2.96
7222,-3.85
7234,-4.92
7246,-6.06
7258,-7.12
7270,-7.93
7281,-8.44
7292,-8.71
7304,-8.91
7316,-9.19
7328,-9.66
7340,-10.27
7352,-10.95
7364,-11.66
7376,-12.41
7388,-13.23
7400,-14.08
7412,-14.74
7424,-14.87
7436,-14.14
7448,-12.39
7460,-9.76
7471,-6.61
7482,-3.39
7494,-0.45
7506,2.09
7518,4.24
7530,6.08
7542,7.64
7554,8.86
7566,9.64
7578,9.96
7590,9.9
7602,9.6
7614,9.23
7626,8.86
7638,8.5
7650,8.07
7661,7.52
7672,6.86
7684,6.19
7696,5.62
7708,5.27
7720,5.16
7732,5.19
7744,5.19
7756,5.02
7768,4.6
7780,4.0
7792,3.36
7804,2.8
7816,2.35
7828,1.91
7840,1.32
7851,0.46
7862,-0.67
7874,-1.93
7886,-3.17
7898,-4.27
7910,-5.21
7922,-6.06
7934,-6.88
7946,-7.63
7958,-8.26
7970,-8.69
7982,-8.95
7994,-9.18
8006,-9.61
8018,-10.43
8030,-11.65
8041,-13.12
8052,-14.46
8064,-15.28
8076,-15.24
8088,-14.19
8100,-12.16
8112,-9.41
8124,-6.25
8136,-3.02
8148,-0.03
8160,2.51
8172,4.48
8184,5.84
8196,6.65
8208,7.02
8220,7.1
8231,7.04
8242,6.94
8254,6.83
8266,6.71
8278,6.56
8290,6.41
8302,6.31
8314,6.34
8326,6.49
8338,6.67
8350,6.69
8362,6.37
8374,5.67
8386,4.7
8398,3.73
8410,3.04
8421,2.75
8432,2.8
8444,2.92
8456,2.84
8468,2.35
8480,1.47
8492,0.32
8504,-0.92
8516,-2.13
8528,-3.28
8540,-4.37
8552,-5.44
8564,-6.44
8576,-7.32
8588,-8.01
8600,-8.55
8611,-9.03
8622,-9.56
8634,-10.17
8646,-10.75
8658,-11.05
8670,-10.77
8682,-9.71
8694,-7.88
8706,-5.47
8718,-2.82
8730,-0.27
8742,1.97
8754,3.84
8766,5.43
8778,6.86
8790,8.15
8801,9.22
8812,9.93
8824,10.14
8836,9.85
8848,9.23
8860,8.54
8872,8.06
8884,7.99
8896,8.35
8908,9.04
8920,9.88
8932,10.67
8944,11.29
8956,11.66
8968,11.8
8980,11.72
8991,11.46
9002,11.01
9014,10.39
9026,9.59
9038,8.62
9050,7.55
9062,6.47
9074,5.47
9086,4.64
9098,4.0
9110,3.51
9122,3.13
9134,2.8
9146,2.5
9158,2.23
9170,2.02
9181,1.86
9192,1.73
9204,1.53
9216,1.21
9228,0.71
9240,0.09
9252,-0.56
9264,-1.12
9276,-1.48
9288,-1.67
9300,-1.8
9312,-2.01
9324,-2.4
9336,-2.97
9348,-3.63
9360,-4.24
9371,-4.7
9382,-5.0
9394,-5.23
9406,-5.5
9418,-5.93
9430,-6.56
9442,-7.32
9454,-8.08
9466,-8.69
9478,-9.07
9490,-9.27
9502,-9.38
9514,-9.56
9526,-9.9
9538,-10.48
9550,-11.31
9561,-12.35
9572,-13.47
9584,-14.52
9596,-15.22
9608,-15.28
9620,-14.44
9632,-12.56
9644,-9.76
9656,-6.37
9668,-2.87
9680,0.27
9692,2.74
9704,4.47
9716,5.6
9728,6.33
9740,6.85
9751,7.25
9762,7.54
9774,7.74
9786,7.89
9798,8.1
9810,8.45
9822,8.96
9834,9.55
9846,10.13
9858,10.61
9870,11.02
9882,11.43
9894,11.89
9906,12.35
9918,12.69
9930,12.7
9941,12.26
9952,11.39
9964,10.19
9976,8.84
9988,7.52
10000,6.29
10012,5.17
10024,4.16
10036,3.25
10048,2.45
10060,1.77
10072,1.13
10084,0.49
10096,-0.18
10108,-0.82
10120,-1.3
10131,-1.46
10142,-1.26
10154,-0.8
10166,-0.26
10178,0.13
10190,0.25
10202,0.07
10214,-0.34
10226,-0.9
10238,-1.57
10250,-2.34
10262,-3.2
10274,-4.08
10286,-4.9
10298,-5.6
10310,-6.22
10321,-6.87
10332,-7.66
10344,-8.62
10356,-9.65
10368,-10.55
10380,-11.14
10392,-11.37
10404,-11.32
10416,-11.27
10428,-11.48
10440,-12.14
10452,-13.21
10464,-14.42
10476,-15.36
10488,-15.61
10500,-14.89
10511,-13.15
10522,-10.58
10534,-7.52
10546,-4.35
10558,-1.38
10570,1.2
10582,3.27
10594,4.83
10606,5.87
10618,6.45
10630,6.65
10642,6.6
10654,6.46
10666,6.34
10678,6.24
10690,6.12
10701,5.86
10712,5.42
10724,4.82
10736,4.24
10748,3.89
10760,3.96
10772,4.45
10784,5.24
10796,6.05
10808,6.63
10820,6.87
10832,6.79
10844,6.52
10856,6.16
10868,5.77
10880,5.31
10891,4.75
10902,4.09
10914,3.42
10926,2.79
10938,2.26
10950,1.81
10962,1.35
10974,0.79
10986,0.11
10998,-0.63
11010,-1.33
11022,-1.9
11034,-2.32
11046,-2.7
11058,-3.16
11070,-3.82
11081,-4.66
11092,-5.58
11104,-6.42
11116,-7.06
11128,-7.46
11140,-7.71
11152,-7.93
11164,-8.21
11176,-8.61
11188,-9.15
11200,-9.84
11212,-10.7
11224,-11.7
11236,-12.64
11248,-13.19
11260,-12.96
11271,-11.69
11282,-9.37
11294,-6.27
11306,-2.86
11318,0.38
11330,3.14
11342,5.29
11354,6.88
11366,7.99
11378,8.69
11390,9.02
11402,9.05
11414,8.87
11426,8.57
11438,8.26
11450,7.93
11461,7.55
11472,7.09
11484,6.61
11496,6.23
11508,6.1
11520,6.3
11532,6.78
11544,7.39
11556,7.9
11568,8.13
11580,8.01
11592,7.62
11604,7.07
11616,6.49
11628,5.93
11640,5.39
11651,4.81
11662,4.17
11674,3.48
11686,2.79
11698,2.12
11710,1.49
11722,0.87
11734,0.25
11746,-0.39
11758,-1.01
11770,-1.54
11782,-1.96
11794,-2.24
11806,-2.43
11818,-2.6
11830,-2.81
11841,-3.14
11852,-3.61
11864,-4.19
11876,-4.86
11888,-5.55
11900,-6.23
11912,-6.9
11924,-7.57
11936,-8.28
11948,-9.05
11960,-9.9
11972,-10.85
11984,-11.94
11996,-13.16
12008,-14.46
12020,-15.7
12031,-16.62
12042,-16.92
12054,-16.33
12066,-14.74
12078,-12.26
12090,-9.15
12102,-5.77
12114,-2.46
12126,0.5
12138,2.94
12150,4.81
12162,6.12
12174,6.97
12186,7.48
12198,7.82
12210,8.09
12221,8.33
12232,8.47
12244,8.41
12256,8.07
12268,7.45
12280,6.68
12292,5.93
12304,5.42
12316,5.27
12328,5.47
12340,5.95
12352,6.57
12364,7.15
12376,7.58
12388,7.81
12400,7.84
12411,7.68
12422,7.4
12434,7.04
12446,6.6
12458,6.09
12470,5.48
12482,4.78
12494,3.99
12506,3.18
12518,2.4
12530,1.68
12542,1.04
12554,0.47
12566,-0.05
12578,-0.54
12590,-1.0
12601,-1.42
12612,-1.74
12624,-1.9
12636,-1.9
12648,-1.83
12660,-1.84
12672,-2.11
12684,-2.77
12696,-3.78
12708,-5.0
12720,-6.21
12732,-7.21
12744,-7.9
12756,-8.34
12768,-8.62
12780,-8.9
12791,-9.29
12802,-9.83
12814,-10.53
12826,-11.32
12838,-12.09
12850,-12.66
12862,-12.84
12874,-12.45
12886,-11.42
12898,-9.8
12910,-7.72
12922,-5.45
12934,-3.24
12946,-1.3
12958,0.23
12970,1.37
12981,2.24
12992,2.98
13004,3.7
13016,4.42
13028,5.09
13040,5.62
13052,5.98
13064,6.17
13076,6.27
13088,6.36
13100,6.49
13112,6.6
13124,6.63
13136,6.54
13148,6.4
13160,6.34
13171,6.47
13182,6.8
13194,7.17
13206,7.35
13218,7.11
13230,6.36
13242,5.19
13254,3.88
13266,2.72
13278,1.94
13290,1.61
13302,1.61
13314,1.78
13326,1.95
13338,2.01
13350,1.92
13361,1.68
13372,1.29
13384,0.77
13396,0.17
13408,-0.47
13420,-1.1
13432,-1.73
13444,-2.37
13456,-3.04
13468,-3.77
13480,-4.53
13492,-5.24
13504,-5.88
13516,-6.43
13528,-6.99
13540,-7.68
13551,-8.59
13562,-9.73
13574,-10.99
13586,-12.15
13598,-12.94
13610,-13.1
13622,-12.44
13634,-10.91
13646,-8.59
13658,-5.74
13670,-2.66
13682,0.27
13694,2.79
13706,4.73
13718,6.08
13730,6.93
13741,7.43
13752,7.69
13764,7.79
13776,7.76
13788,7.59
13800,7.32
13812,7.01
13824,6.74
13836,6.62
13848,6.69
13860,6.9
13872,7.13
13884,7.21
13896,7.05
13908,6.68
13920,6.27
13931,5.95
13942,5.82
13954,5.81
13966,5.78
13978,5.56
13990,5.12
14002,4.56
14014,4.06
14026,3.77
14038,3.68
14050,3.61
14062,3.38
14074,2.89
14086,2.18
14098,1.43
14110,0.82
14121,0.4
14132,0.08
14144,-0.28
14156,-0.8
14168,-1.49
14180,-2.26
14192,-3.0
14204,-3.66
14216,-4.28
14228,-4.91
14240,-5.55
14252,-6.14
14264,-6.54
14276,-6.73
14288,-6.75
14300,-6.76
14311,-6.95
14322,-7.45
14334,-8.29
14346,-9.37
14358,-10.54
14370,-11.59
14382,-12.32
14394,-12.48
14406,-11.87
14418,-10.38
14430,-8.09
14442,-5.28
14454,-2.35
14466,0.29
14478,2.39
14490,3.91
14501,4.99
14512,5.79
14524,6.44
14536,6.93
14548,7.2
14560,7.2
14572,6.96
14584,6.57
14596,6.2
14608,5.93
14620,5.8
14632,5.77
14644,5.77
14656,5.75
14668,5.69
14680,5.63
14691,5.63
14702,5.72
14714,5.9
14726,6.08
14738,6.19
14750,6.12
14762,5.8
14774,5.25
14786,4.57
14798,3.85
14810,3.21
14822,2.67
14834,2.19
14846,1.72
14858,1.23
14870,0.73
14881,0.3
14892,0.0
14904,-0.18
14916,-0.34
14928,-0.6
14940,-1.05
14952,-1.65
14964,-2.3
14976,-2.87
14988,-3.26
15000,-3.48
15012,-3.6
15024,-3.71
15036,-3.9
15048,-4.21
15060,-4.65
15071,-5.17
15082,-5.72
15094,-6.26
15106,-6.79
15118,-7.34
15130,-7.96
15142,-8.67
15154,-9.47
15166,-10.28
15178,-10.96
15190,-11.36
15202,-11.3
15214,-10.63
15226,-9.29
15238,-7.31
15250,-4.83
15261,-2.1
15272,0.58
15284,2.93
15296,4.78
15308,6.09
15320,6.92
15332,7.37
15344,7.52
15356,7.47
15368,7.24
15380,6.91
15392,6.49
15404,6.01
15416,5.47
15428,4.88
15440,4.25
15451,3.62
15462,3.04
15474,2.57
15486,2.29
15498,2.23
15510,2.36
15522,2.59
15534,2.79
15546,2.82
15558,2.63
15570,2.27
15582,1.83
15594,1.45
15606,1.22
15618,1.12
15630,1.06
15641,0.93
15652,0.66
15664,0.26
15676,-0.21
15688,-0.68
15700,-1.1
15712,-1.41
15724,-1.62
15736,-1.73
15748,-1.81
15760,-1.95
15772,-2.23
15784,-2.71
15796,-3.38
15808,-4.15
15820,-4.94
15831,-5.68
15842,-6.32
15854,-6.91
15866,-7.49
15878,-8.09
15890,-8.76
15902,-9.47
15914,-10.15
15926,-10.68
15938,-10.88
15950,-10.52
15962,-9.47
15974,-7.71
15986,-5.4
15998,-2.83
16010,-0.37
16021,1.72
16032,3.34
16044,4.56
16056,5.52
16068,6.31
16080,6.94
16092,7.31
16104,7.35
16116,7.05
16128,6.52
16140,5.95
16152,5.5
16164,5.23
16176,5.13
16188,5.13
16200,5.21
16211,5.36
16222,5.66
16234,6.12
16246,6.67
16258,7.19
16270,7.52
16282,7.56
16294,7.35
16306,6.94
16318,6.42
16330,5.81
16342,5.1
16354,4.24
16366,3.25
16378,2.23
16390,1.27
16401,0.47
16412,-0.17
16424,-0.72
16436,-1.24
16448,-1.74
16460,-2.17
16472,-2.45
16484,-2.55
16496,-2.51
16508,-2.45
16520,-2.5
16532,-2.77
16544,-3.28
16556,-4.01
16568,-4.9
16580,-5.85
16591,-6.76
16602,-7.52
16614,-8.1
16626,-8.53
16638,-8.94
16650,-9.48
16662,-10.27
16674,-11.26
16686,-12.21
16698,-12.78
16710,-12.61
16722,-11.47
16734,-9.39
16746,-6.6
16758,-3.49
16770,-0.43
16781,2.35
16792,4.73
16804,6.7
16816,8.28
16828,9.45
16840,10.17
16852,10.43
16864,10.31
16876,9.94
16888,9.46
16900,9.02
16912,8.65
16924,8.33
16936,8.0
16948,7.63
16960,7.18
16971,6.65
16982,6.05
16994,5.43
17006,4.88
17018,4.45
17030,4.2
17042,4.1
17054,4.04
17066,3.9
17078,3.57
17090,3.04
17102,2.36
17114,1.65
17126,1.0
17138,0.46
17150,0.02
17161,-0.34
17172,-0.69
17184,-1.07
17196,-1.51
17208,-2.01
17220,-2.57
17232,-3.14
17244,-3.6
17256,-3.88
17268,-3.96
17280,-3.9
17292,-3.87
17304,-4.01
17316,-4.42
17328,-5.06
17340,-5.84
17351,-6.64
17362,-7.37
17374,-8.02
17386,-8.57
17398,-9.04
17410,-9.42
17422,-9.78
17434,-10.23
17446,-10.9
17458,-11.82
17470,-12.87
17482,-13.73
17494,-14.01
17506,-13.36
17518,-11.67
17530,-9.04
17541,-5.8
17552,-2.3
17564,1.09
17576,4.14
17588,6.67
17600,8.59
17612,9.81
17624,10.33
17636,10.24
17648,9.72
17660,9.02
17672,8.4
17684,8.02
17696,7.9
17708,7.98
17720,8.13
17731,8.22
17742,8.23
17754,8.14
17766,8.02
17778,7.91
17790,7.85
17802,7.83
17814,7.86
17826,7.89
17838,7.83
17850,7.61
17862,7.16
17874,6.49
17886,5.66
17898,4.78
17910,3.97
17921,3.27
17932,2.63
17944,1.97
17956,1.24
17968,0.41
17980,-0.43
17992,-1.2
18004,-1.8
18016,-2.25
18028,-2.61
18040,-2.97
18052,-3.38
18064,-3.82
18076,-4.23
18088,-4.61
18100,-4.98
18111,-5.48
18122,-6.23
18134,-7.27
18146,-8.55
18158,-9.93
18170,-11.2
18182,-12.23
18194,-12.97
18206,-13.4
18218,-13.48
18230,-13.12
18242,-12.2
18254,-10.65
18266,-8.5
18278,-5.93
18290,-3.2
18301,-0.6
18312,1.64
18324,3.39
18336,4.59
18348,5.29
18360,5.53
18372,5.44
18384,5.17
18396,4.93
18408,4.85
18420,5.07
18432,5.58
18444,6.3
18456,7.09
18468,7.83
18480,8.47
18491,8.96
18502,9.33
18514,9.56
18526,9.65
18538,9.59
18550,9.42
18562,9.22
18574,9.04
18586,8.91
18598,8.79
18610,8.57
18622,8.23
18634,7.8
18646,7.42
18658,7.23
18670,7.35
18681,7.72
18692,8.15
18704,8.41
18716,8.32
18728,7.8
18740,6.91
18752,5.78
18764,4.57
18776,3.41
18788,2.37
18800,1.5
18812,0.8
18824,0.24
18836,-0.26
18848,-0.86
18860,-1.72
18871,-2.96
18882,-4.55
18894,-6.31
18906,-8.02
18918,-9.51
18930,-10.72
18942,-11.76
18954,-12.81
18966,-14.02
18978,-15.42
18990,-16.84
19002,-17.93
19014,-18.29
19026,-17.61
19038,-15.77
19050,-12.88
19061,-9.26
19072,-5.38
19084,-1.73
19096,1.32
19108,3.56
19120,4.97
19132,5.66
19144,5.84
19156,5.66
19168,5.26
19180,4.75
19192,4.21
19204,3.73
19216,3.35
19228,3.1
19240,2.98
19251,3.02
19262,3.2
19274,3.55
19286,4.06
19298,4.66
19310,5.21
19322,5.55
19334,5.55
19346,5.16
19358,4.46
19370,3.64
19382,2.86
19394,2.22
19406,1.7
19418,1.2
19430,0.63
19441,-0.06
19452,-0.81
19464,-1.56
19476,-2.23
19488,-2.83
19500,-3.42
19512,-4.08
19524,-4.8
19536,-5.47
19548,-5.91
19560,-6.02
19572,-5.82
19584,-5.47
19596,-5.2
19608,-5.21
19620,-5.53
19631,-6.0
19642,-6.42
19654,-6.64
19666,-6.68
19678,-6.72
19690,-6.93
19702,-7.37
19714,-7.85
19726,-8.07
19738,-7.69
19750,-6.6
19762,-4.93
19774,-3.0
19786,-1.18
19798,0.29
19810,1.33
19821,1.97
19832,2.29
19844,2.37
19856,2.25
19868,2.0
19880,1.72
19892,1.49
19904,1.35
19916,1.24
19928,1.05
19940,0.72
19952,0.3
19964,-0.08
19976,-0.2
19988,0.09
20000,0.86
20011,2.0
20022,3.36
20034,4.76
20046,6.09
20058,7.35
20070,8.61
20082,9.97
20094,11.47
20106,13.0
20118,14.36
20130,15.23
20142,15.34
20154,14.54
20166,12.86
20178,10.52
20190,7.81
20201,5.0
20212,2.26
20224,-0.3
20236,-2.59
20248,-4.52
20260,-5.99
20272,-6.98
20284,-7.61
20296,-8.09
20308,-8.65
20320,-9.47
20332,-10.51
20344,-11.63
20356,-12.62
20368,-13.39
20380,-13.97
20391,-14.49
20402,-15.09
20414,-15.77
20426,-16.35
20438,-16.52
20450,-15.97
20462,-14.51
20474,-12.17
20486,-9.19
20498,-5.92
20510,-2.67
20522,0.3
20534,2.85
20546,4.9
20558,6.41
20570,7.36
20581,7.8
20592,7.84
20604,7.68
20616,7.51
20628,7.49
20640,7.63
20652,7.87
20664,8.11
20676,8.28
20688,8.38
20700,8.44
20712,8.47
20724,8.47
20736,8.46
20748,8.45
20760,8.46
20771,8.51
20782,8.56
20794,8.51
20806,8.21
20818,7.57
20830,6.56
20842,5.3
20854,3.99
20866,2.85
20878,1.97
20890,1.33
20902,0.81
20914,0.23
20926,-0.5
20938,-1.36
20950,-2.2
20961,-2.85
20972,-3.23
20984,-3.4
20996,-3.57
