seconds,BVP
1,-43.89
13,-45.61
25,-44.92
37,-41.59
49,-35.84
61,-28.26
73,-19.64
85,-10.69
96,-2.02
107,5.97
119,12.96
131,18.72
143,23.08
155,25.95
167,27.41
179,27.68
191,27.08
203,25.91
215,24.47
227,22.99
239,21.67
251,20.68
263,20.16
275,20.16
286,20.63
297,21.41
309,22.25
321,22.89
333,23.1
345,22.72
357,21.69
369,20.03
381,17.89
393,15.43
405,12.81
417,10.17
429,7.59
441,5.16
453,2.9
465,0.79
476,-1.24
487,-3.35
499,-5.7
511,-8.38
523,-11.32
535,-14.37
547,-17.33
559,-20.05
571,-22.49
583,-24.75
595,-27.02
607,-29.51
619,-32.39
631,-35.74
643,-39.48
655,-43.26
666,-46.51
677,-48.52
689,-48.63
701,-46.41
713,-41.79
725,-35.15
737,-27.11
749,-18.48
761,-10.0
773,-2.3
785,4.21
797,9.31
809,12.99
821,15.35
833,16.64
845,17.12
856,17.08
867,16.73
879,16.26
891,15.82
903,15.56
915,15.58
927,15.89
939,16.45
951,17.1
963,17.7
975,18.12
987,18.28
999,18.17
1011,17.8
1023,17.15
1035,16.2
1046,14.94
1057,13.42
1069,11.69
1081,9.79
1093,7.7
1105,5.39
1117,2.76
1129,-0.2
1141,-3.44
1153,-6.83
1165,-10.22
1177,-13.49
1189,-16.57
1201,-19.5
1213,-22.37
1225,-25.34
1236,-28.58
1247,-32.14
1259,-35.91
1271,-39.41
1283,-41.95
1295,-42.77
1307,-41.34
1319,-37.54
1331,-31.75
1343,-24.69
1355,-17.15
1367,-9.78
1379,-2.95
1391,3.2
1403,8.59
1415,13.12
1426,16.67
1437,19.14
1449,20.49
1461,20.83
1473,20.36
1485,19.33
1497,18.04
1509,16.81
1521,15.88
1533,15.37
1545,15.24
1557,15.27
1569,15.21
1581,14.83
1593,14.03
1605,12.82
1616,11.34
1627,9.66
1639,7.86
1651,5.92
1663,3.77
1675,1.39
1687,-1.26
1699,-4.16
1711,-7.29
1723,-10.56
1735,-13.85
1747,-16.96
1759,-19.72
1771,-22.09
1783,-24.24
1795,-26.46
1806,-29.14
1817,-32.56
1829,-36.75
1841,-41.4
1853,-45.96
1865,-49.66
1877,-51.8
1889,-51.73
1901,-49.1
1913,-43.86
1925,-36.31
1937,-27.1
1949,-17.07
1961,-7.1
1973,2.07
1985,9.97
1996,16.42
2007,21.44
2019,25.14
2031,27.67
2043,29.15
2055,29.7
2067,29.5
2079,28.77
2091,27.75
2103,26.64
2115,25.53
2127,24.43
2139,23.36
2151,22.35
2163,21.48
2175,20.79
2186,20.28
2197,19.76
2209,18.97
2221,17.69
2233,15.87
2245,13.6
2257,11.12
2269,8.68
2281,6.44
2293,4.38
2305,2.4
2317,0.28
2329,-2.17
2341,-5.08
2353,-8.46
2365,-12.17
2376,-15.94
2387,-19.44
2399,-22.45
2411,-24.9
2423,-27.03
2435,-29.3
2447,-32.25
2459,-36.29
2471,-41.49
2483,-47.48
2495,-53.43
2507,-58.27
2519,-60.96
2531,-60.73
2543,-57.32
2555,-50.95
2566,-42.28
2577,-32.16
2589,-21.51
2601,-11.09
2613,-1.44
2625,7.09
2637,14.39
2649,20.44
2661,25.3
2673,29.01
2685,31.61
2697,33.2
2709,34.0
2721,34.35
2733,34.64
2745,35.16
2756,35.99
2767,36.97
2779,37.8
2791,38.21
2803,38.09
2815,37.5
2827,36.65
2839,35.7
2851,34.72
2863,33.64
2875,32.38
2887,30.89
2899,29.18
2911,27.33
2923,25.4
2935,23.39
2946,21.21
2957,18.78
2969,16.02
2981,13.0
2993,9.88
3005,6.82
3017,3.94
3029,1.18
3041,-1.6
3053,-4.58
3065,-7.85
3077,-11.4
3089,-15.02
3101,-18.5
3113,-21.67
3125,-24.5
3136,-27.16
3147,-29.97
3159,-33.33
3171,-37.59
3183,-42.91
3195,-49.11
3207,-55.6
3219,-61.4
3231,-65.31
3243,-66.26
3255,-63.6
3267,-57.3
3279,-47.99
3291,-36.75
3303,-24.78
3315,-13.17
3326,-2.61
3337,6.54
3349,14.22
3361,20.5
3373,25.45
3385,29.09
3397,31.5
3409,32.81
3421,33.29
3433,33.29
3445,33.17
3457,33.16
3469,33.33
3481,33.6
3493,33.86
3505,34.01
3516,34.02
3527,33.95
3539,33.83
3551,33.64
3563,33.27
3575,32.58
3587,31.53
3599,30.13
3611,28.48
3623,26.7
3635,24.88
3647,23.01
3659,21.04
3671,18.9
3683,16.58
3695,14.08
3706,11.48
3717,8.78
3729,5.97
3741,2.95
3753,-0.35
3765,-3.99
3777,-7.92
3789,-12.0
3801,-16.08
3813,-20.02
3825,-23.78
3837,-27.46
3849,-31.26
3861,-35.49
3873,-40.36
3885,-45.94
3896,-52.03
3907,-58.11
3919,-63.33
3931,-66.68
3943,-67.24
3955,-64.39
3967,-58.05
3979,-48.74
3991,-37.38
4003,-25.13
4015,-12.97
4027,-1.62
4039,8.5
4051,17.14
4063,24.12
4075,29.27
4086,32.5
4097,33.95
4109,33.99
4121,33.2
4133,32.16
4145,31.34
4157,30.95
4169,30.99
4181,31.3
4193,31.7
4205,32.01
4217,32.09
4229,31.85
4241,31.25
4253,30.25
4265,28.89
4276,27.26
4287,25.51
4299,23.81
4311,22.33
4323,21.14
4335,20.18
4347,19.25
4359,18.1
4371,16.45
4383,14.09
4395,10.96
4407,7.13
4419,2.81
4431,-1.72
4443,-6.16
4455,-10.33
4466,-14.22
4477,-18.06
4489,-22.18
4501,-26.93
4513,-32.46
4525,-38.6
4537,-44.82
4549,-50.28
4561,-54.07
4573,-55.33
4585,-53.53
4597,-48.56
4609,-40.75
4621,-30.8
4633,-19.64
4645,-8.28
4656,2.39
4667,11.77
4679,19.54
4691,25.64
4703,30.19
4715,33.36
4727,35.3
4739,36.16
4751,36.16
4763,35.52
4775,34.57
4787,33.59
4799,32.84
4811,32.46
4823,32.46
4835,32.8
4846,33.29
4857,33.71
4869,33.76
4881,33.13
4893,31.61
4905,29.2
4917,26.08
4929,22.57
4941,19.0
4953,15.54
4965,12.18
4977,8.72
4989,4.95
5001,0.75
5013,-3.81
5025,-8.55
5036,-13.2
5047,-17.56
5059,-21.55
5071,-25.25
5083,-28.88
5095,-32.76
5107,-37.18
5119,-42.3
5131,-48.03
5143,-53.93
5155,-59.21
5167,-62.83
5179,-63.82
5191,-61.46
5203,-55.64
5215,-46.81
5226,-35.92
5237,-24.12
5249,-12.47
5261,-1.72
5273,7.72
5285,15.66
5297,22.05
5309,26.89
5321,30.23
5333,32.22
5345,33.17
5357,33.5
5369,33.61
5381,33.76
5393,33.99
5405,34.21
5416,34.3
5427,34.17
5439,33.9
5451,33.6
5463,33.32
5475,33.02
5487,32.48
5499,31.43
5511,29.66
5523,27.05
5535,23.67
5547,19.75
5559,15.57
5571,11.44
5583,7.52
5595,3.91
5606,0.53
5617,-2.76
5629,-6.09
5641,-9.6
5653,-13.32
5665,-17.2
5677,-21.12
5689,-24.96
5701,-28.65
5713,-32.23
5725,-35.86
5737,-39.83
5749,-44.42
5761,-49.78
5773,-55.74
5785,-61.75
5796,-66.85
5807,-69.87
5819,-69.78
5831,-65.95
5843,-58.46
5855,-48.05
5867,-35.92
5879,-23.37
5891,-11.46
5903,-0.8
5915,8.38
5927,16.11
5939,22.45
5951,27.41
5963,30.99
5975,33.29
5986,34.61
5997,35.36
6009,35.99
6021,36.77
6033,37.76
6045,38.77
6057,39.61
6069,40.09
6081,40.22
6093,40.08
6105,39.77
6117,39.25
6129,38.42
6141,37.12
6153,35.28
6165,32.92
6176,30.19
6187,27.23
6199,24.19
6211,21.18
6223,18.32
6235,15.74
6247,13.55
6259,11.72
6271,10.04
6283,8.14
6295,5.66
6307,2.37
6319,-1.65
6331,-6.11
6343,-10.64
6355,-14.9
6366,-18.75
6377,-22.16
6389,-25.25
6401,-28.22
6413,-31.34
6425,-34.94
6437,-39.32
6449,-44.59
6461,-50.43
6473,-56.06
6485,-60.33
6497,-62.06
6509,-60.42
6521,-55.23
6533,-46.99
6545,-36.71
6556,-25.55
6567,-14.56
6579,-4.43
6591,4.48
6603,11.99
6615,18.07
6627,22.66
6639,25.77
6651,27.56
6663,28.33
6675,28.6
6687,28.87
6699,29.51
6711,30.59
6723,31.92
6735,33.16
6746,33.99
6757,34.35
6769,34.35
6781,34.23
6793,34.11
6805,33.95
6817,33.52
6829,32.53
6841,30.79
6853,28.33
6865,25.39
6877,22.31
6889,19.42
6901,16.92
6913,14.81
6925,12.95
6936,11.05
6947,8.84
6959,6.1
6971,2.81
6983,-0.92
6995,-4.84
7007,-8.69
7019,-12.3
7031,-15.62
7043,-18.66
7055,-21.55
7067,-24.47
7079,-27.65
7091,-31.33
7103,-35.62
7115,-40.3
7126,-44.76
7137,-48.04
7149,-49.07
7161,-47.11
7173,-41.94
7185,-33.98
7197,-24.14
7209,-13.54
7221,-3.16
7233,6.32
7245,14.52
7257,21.25
7269,26.42
7281,29.96
7293,31.93
7305,32.48
7316,31.97
7327,30.83
7339,29.45
7351,28.1
7363,26.95
7375,26.02
7387,25.3
7399,24.83
7411,24.58
7423,24.55
7435,24.62
7447,24.56
7459,24.14
7471,23.12
7483,21.39
7495,19.0
7506,16.16
7517,13.1
7529,10.0
7541,6.93
7553,3.82
7565,0.56
7577,-2.89
7589,-6.44
7601,-9.95
7613,-13.27
7625,-16.4
7637,-19.41
7649,-22.51
7661,-25.92
7673,-29.79
7685,-34.28
7696,-39.43
7707,-45.15
7719,-51.13
7731,-56.73
7743,-61.08
7755,-63.18
7767,-62.21
7779,-57.79
7791,-50.1
7803,-39.87
7815,-28.14
7827,-16.07
7839,-4.64
7851,5.49
7863,13.95
7875,20.61
7886,25.49
7897,28.68
7909,30.37
7921,30.85
7933,30.52
7945,29.79
7957,29.03
7969,28.44
7981,28.08
7993,27.9
8005,27.79
8017,27.67
8029,27.5
8041,27.27
8053,26.98
8065,26.6
8076,26.08
8087,25.3
8099,24.15
8111,22.51
8123,20.35
8135,17.71
8147,14.73
8159,11.56
8171,8.31
8183,5.02
8195,1.7
8207,-1.67
8219,-5.05
8231,-8.43
8243,-11.8
8255,-15.13
8266,-18.41
8277,-21.62
8289,-24.79
8301,-28.03
8313,-31.58
8325,-35.75
8337,-40.81
8349,-46.7
8361,-52.93
8373,-58.56
8385,-62.4
8397,-63.34
8409,-60.68
8421,-54.4
8433,-45.11
8445,-33.85
8456,-21.8
8467,-10.0
8479,0.82
8491,10.22
8503,18.05
8515,24.25
8527,28.88
8539,32.0
8551,33.74
8563,34.26
8575,33.85
8587,32.85
8599,31.64
8611,30.56
8623,29.79
8635,29.34
8646,29.04
8657,28.69
8669,28.14
8681,27.34
8693,26.39
8705,25.46
8717,24.62
8729,23.8
8741,22.81
8753,21.43
8765,19.53
8777,17.17
8789,14.55
8801,11.88
8813,9.29
8825,6.78
8836,4.33
8847,1.94
8859,-0.38
8871,-2.61
8883,-4.82
8895,-7.27
8907,-10.17
8919,-13.55
8931,-17.17
8943,-20.53
8955,-23.13
8967,-24.7
8979,-25.38
8991,-25.77
9003,-26.67
9015,-28.8
9026,-32.58
9037,-37.95
9049,-44.32
9061,-50.67
9073,-55.84
9085,-58.7
9097,-58.45
9109,-54.77
9121,-47.9
9133,-38.5
9145,-27.59
9157,-16.28
9169,-5.62
9181,3.67
9193,11.29
9205,17.29
9216,21.98
9227,25.61
9239,28.29
9251,29.95
9263,30.55
9275,30.15
9287,29.06
9299,27.69
9311,26.44
9323,25.57
9335,25.13
9347,25.1
9359,25.37
9371,25.82
9383,26.32
9395,26.71
9406,26.8
9417,26.49
9429,25.79
9441,24.82
9453,23.79
9465,22.9
9477,22.26
9489,21.87
9501,21.59
9513,21.25
9525,20.62
9537,19.63
9549,18.27
9561,16.68
9573,14.98
9585,13.22
9596,11.3
9607,9.05
9619,6.37
9631,3.28
9643,-0.05
9655,-3.34
9667,-6.43
9679,-9.33
9691,-12.2
9703,-15.28
9715,-18.88
9727,-23.23
9739,-28.51
9751,-34.71
9763,-41.52
9775,-48.23
9786,-53.78
9797,-56.95
9809,-56.78
9821,-52.94
9833,-45.81
9845,-36.42
9857,-26.0
9869,-15.62
9881,-6.02
9893,2.44
9905,9.55
9917,15.16
9929,19.06
9941,21.17
9953,21.61
9965,20.79
9976,19.38
9987,18.06
9999,17.38
10011,17.53
10023,18.36
10035,19.53
10047,20.64
10059,21.47
10071,21.99
10083,22.3
10095,22.5
10107,22.59
10119,22.39
10131,21.69
10143,20.3
10155,18.23
10166,15.62
10177,12.76
10189,9.93
10201,7.33
10213,5.04
10225,2.99
10237,1.07
10249,-0.9
10261,-3.04
10273,-5.41
10285,-8.03
10297,-10.79
10309,-13.61
10321,-16.36
10333,-18.96
10345,-21.43
10356,-23.93
10367,-26.71
10379,-30.06
10391,-34.09
10403,-38.67
10415,-43.26
10427,-46.99
10439,-48.83
10451,-47.9
10463,-43.75
10475,-36.54
10487,-27.01
10499,-16.31
10511,-5.63
10523,4.05
10535,12.09
10546,18.22
10557,22.46
10569,24.91
10581,25.78
10593,25.3
10605,23.83
10617,21.84
10629,19.82
10641,18.24
10653,17.37
10665,17.21
10677,17.6
10689,18.29
10701,19.08
10713,19.84
10725,20.5
10736,20.98
10747,21.11
10759,20.67
10771,19.48
10783,17.51
10795,14.91
10807,11.93
10819,8.84
10831,5.8
10843,2.76
10855,-0.37
10867,-3.71
10879,-7.33
10891,-11.14
10903,-14.97
10915,-18.63
10926,-21.98
10937,-25.03
10949,-27.93
10961,-31.04
10973,-34.76
10985,-39.48
10997,-45.28
11009,-51.83
11021,-58.36
11033,-63.72
11045,-66.78
11057,-66.77
11069,-63.52
11081,-57.47
11093,-49.5
11105,-40.56
11116,-31.4
11127,-22.5
11139,-14.19
11151,-6.73
11163,-0.53
11175,4.01
11187,6.66
11199,7.57
11211,7.38
11223,7.02
11235,7.49
11247,9.7
11259,14.4
11271,22.06
11283,32.82
11295,46.15
11306,60.65
11317,74.11
11329,84.15
11341,89.19
11353,89.36
11365,86.68
11377,84.27
11389,85.08
11401,90.5
11413,100.0
11425,111.69
11437,123.58
11449,134.51
11461,144.32
11473,153.22
11485,160.79
11496,165.52
11507,165.27
11519,158.11
11531,143.51
11543,122.65
11555,98.21
11567,73.35
11579,50.81
11591,32.16
11603,17.81
11615,7.33
11627,0.08
11639,-4.38
11651,-6.21
11663,-5.43
11675,-2.36
11686,2.26
11697,7.38
11709,11.99
11721,15.56
11733,18.21
11745,20.55
11757,23.25
11769,26.65
11781,30.63
11793,34.77
11805,38.6
11817,41.85
11829,44.37
11841,45.9
11853,45.87
11865,43.42
11876,37.64
11887,27.97
11899,14.43
11911,-2.33
11923,-21.25
11935,-41.15
11947,-60.98
11959,-80.01
11971,-97.88
11983,-114.56
11995,-130.02
12007,-144.06
12019,-155.99
12031,-164.7
12043,-168.95
12055,-167.8
12066,-161.21
12077,-150.13
12089,-136.23
12101,-121.4
12113,-107.09
12125,-94.08
12137,-82.44
12149,-71.94
12161,-62.31
12173,-53.33
12185,-44.72
12197,-36.11
12209,-27.08
12221,-17.37
12233,-7.1
12245,3.08
12256,12.2
12267,19.26
12279,23.59
12291,25.08
12303,24.18
12315,21.71
12327,18.59
12339,15.5
12351,12.83
12363,10.64
12375,8.83
12387,7.39
12399,6.54
12411,6.84
12423,9.01
12435,13.76
12446,21.41
12457,31.75
12469,43.94
12481,56.69
12493,68.54
12505,78.21
12517,84.78
12529,87.75
12541,86.98
12553,82.51
12565,74.53
12577,63.41
12589,49.79
12601,34.58
12613,18.83
12625,3.61
12636,-10.3
12647,-22.47
12659,-32.86
12671,-41.69
12683,-49.28
12695,-56.04
12707,-62.34
12719,-68.55
12731,-74.96
12743,-81.73
12755,-88.8
12767,-95.99
12779,-102.99
12791,-109.62
12803,-115.85
12815,-121.8
12826,-127.67
12837,-133.54
12849,-139.35
12861,-144.87
12873,-149.79
12885,-153.85
12897,-156.98
12909,-159.19
12921,-160.51
12933,-160.92
12945,-160.25
12957,-158.33
12969,-155.06
12981,-150.41
12993,-144.49
13005,-137.33
13016,-128.86
13027,-118.89
13039,-107.26
13051,-93.92
13063,-79.02
13075,-63.03
13087,-46.61
13099,-30.54
13111,-15.57
13123,-2.3
13135,8.94
13147,18.11
13159,25.4
13171,31.16
13183,35.69
13195,39.23
13206,41.91
13217,43.85
13229,45.25
13241,46.41
13253,47.62
13265,49.12
13277,50.91
13289,52.84
13301,54.6
13313,55.87
13325,56.4
13337,56.09
13349,54.94
13361,53.03
13373,50.48
13385,47.4
13396,43.9
13407,40.13
13419,36.21
13431,32.2
13443,28.08
13455,23.77
13467,19.15
13479,14.2
13491,8.96
13503,3.56
13515,-1.86
13527,-7.31
13539,-12.97
13551,-19.18
13563,-26.36
13575,-34.72
13586,-44.06
13597,-53.64
13609,-62.22
13621,-68.37
13633,-70.84
13645,-69.0
13657,-63.0
13669,-53.69
13681,-42.27
13693,-30.0
13705,-17.81
13717,-6.26
13729,4.42
13741,14.12
13753,22.72
13765,30.07
13776,36.04
13787,40.61
13799,43.98
13811,46.48
13823,48.5
13835,50.34
13847,52.12
13859,53.76
13871,55.12
13883,56.04
13895,56.43
13907,56.38
13919,56.08
13931,55.73
13943,55.47
13955,55.3
13966,55.09
13977,54.62
13989,53.69
14001,52.19
14013,50.17
14025,47.85
14037,45.49
14049,43.21
14061,40.97
14073,38.51
14085,35.45
14097,31.48
14109,26.42
14121,20.39
14133,13.77
14145,7.02
14156,0.59
14167,-5.26
14179,-10.53
14191,-15.47
14203,-20.53
14215,-26.22
14227,-32.97
14239,-40.99
14251,-50.03
14263,-59.31
14275,-67.55
14287,-73.24
14299,-74.98
14311,-71.91
14323,-63.99
14335,-52.0
14346,-37.35
14357,-21.67
14369,-6.39
14381,7.48
14393,19.52
14405,29.7
14417,38.23
14429,45.37
14441,51.24
14453,55.85
14465,59.17
14477,61.29
14489,62.44
14501,63.01
14513,63.37
14525,63.76
14536,64.17
14547,64.48
14559,64.45
14571,63.96
14583,62.97
14595,61.56
14607,59.8
14619,57.77
14631,55.44
14643,52.75
14655,49.64
14667,46.04
14679,41.99
14691,37.55
14703,32.87
14715,28.11
14726,23.48
14737,19.25
14749,15.67
14761,12.94
14773,11.07
14785,9.84
14797,8.74
14809,7.23
14821,4.81
14833,1.32
14845,-3.12
14857,-8.22
14869,-13.69
14881,-19.45
14893,-25.65
14905,-32.65
14916,-40.82
14927,-50.36
14939,-61.12
14951,-72.41
14963,-83.05
14975,-91.48
14987,-96.2
14999,-96.1
15011,-90.91
15023,-81.21
15035,-68.3
15047,-53.75
15059,-39.03
15071,-25.17
15083,-12.68
15095,-1.66
15106,8.0
15117,16.46
15129,23.86
15141,30.3
15153,35.92
15165,40.88
15177,45.34
15189,49.46
15201,53.28
15213,56.79
15225,59.87
15237,62.43
15249,64.4
15261,65.79
15273,66.63
15285,66.89
15296,66.49
15307,65.31
15319,63.26
15331,60.31
15343,56.63
15355,52.48
15367,48.22
15379,44.18
15391,40.45
15403,36.95
15415,33.38
15427,29.46
15439,25.03
15451,20.18
15463,15.17
15475,10.36
15486,5.97
15497,1.94
15509,-1.98
15521,-6.23
15533,-11.18
15545,-17.02
15557,-23.64
15569,-30.58
15581,-37.11
15593,-42.34
15605,-45.36
15617,-45.49
15629,-42.39
15641,-36.25
15653,-27.72
15665,-17.78
15676,-7.53
15687,2.1
15699,10.47
15711,17.27
15723,22.44
15735,26.02
15747,28.1
15759,28.82
15771,28.41
15783,27.29
15795,26.01
15807,25.08
15819,24.87
15831,25.48
15843,26.62
15855,27.89
15866,28.84
15877,29.15
15889,28.67
15901,27.4
15913,25.49
15925,23.1
15937,20.43
15949,17.59
15961,14.59
15973,11.34
15985,7.7
15997,3.59
16009,-0.91
16021,-5.54
16033,-9.99
16045,-14.01
16056,-17.55
16067,-20.77
16079,-23.95
16091,-27.43
16103,-31.46
16115,-36.18
16127,-41.6
16139,-47.49
16151,-53.37
16163,-58.38
16175,-61.5
16187,-61.72
16199,-58.38
16211,-51.41
16223,-41.49
16235,-29.76
16246,-17.56
16257,-5.98
16269,4.34
16281,13.24
16293,20.91
16305,27.5
16317,33.05
16329,37.42
16341,40.39
16353,41.9
16365,42.05
16377,41.22
16389,39.85
16401,38.36
16413,37.02
16425,35.96
16436,35.18
16447,34.66
16459,34.34
16471,34.11
16483,33.79
16495,33.15
16507,31.93
16519,29.98
16531,27.26
16543,23.9
16555,20.19
16567,16.43
16579,12.76
16591,9.16
16603,5.48
16615,1.5
16626,-2.9
16637,-7.63
16649,-12.5
16661,-17.31
16673,-21.89
16685,-26.22
16697,-30.44
16709,-34.81
16721,-39.64
16733,-45.21
16745,-51.64
16757,-58.72
16769,-65.8
16781,-71.81
16793,-75.48
16805,-75.69
16816,-71.83
16827,-63.99
16839,-53.01
16851,-40.17
16863,-26.84
16875,-14.12
16887,-2.67
16899,7.3
16911,15.88
16923,23.23
16935,29.41
16947,34.35
16959,37.93
16971,40.12
16983,41.08
16995,41.23
17006,41.08
17017,41.07
17029,41.41
17041,42.07
17053,42.83
17065,43.43
17077,43.7
17089,43.6
17101,43.19
17113,42.51
17125,41.59
17137,40.37
17149,38.78
17161,36.73
17173,34.24
17185,31.35
17196,28.22
17207,25.07
17219,22.09
17231,19.37
17243,16.85
17255,14.31
17267,11.44
17279,8.02
17291,4.01
17303,-0.47
17315,-5.06
17327,-9.42
17339,-13.25
17351,-16.49
17363,-19.26
17375,-21.91
17386,-24.87
17397,-28.59
17409,-33.39
17421,-39.44
17433,-46.61
17445,-54.4
17457,-61.92
17469,-68.0
17481,-71.43
17493,-71.23
17505,-67.04
17517,-59.2
17529,-48.66
17541,-36.72
17553,-24.61
17565,-13.24
17576,-3.09
17587,5.71
17599,13.16
17611,19.23
17623,23.85
17635,26.93
17647,28.52
17659,28.89
17671,28.49
17683,27.83
17695,27.3
17707,27.11
17719,27.19
17731,27.37
17743,27.49
17755,27.46
17766,27.31
17777,27.12
17789,26.92
17801,26.69
17813,26.3
17825,25.6
17837,24.45
17849,22.81
17861,20.68
17873,18.16
17885,15.37
17897,12.47
17909,9.61
17921,6.86
17933,4.24
17945,1.65
17956,-1.06
17967,-4.01
17979,-7.24
17991,-10.65
18003,-14.03
18015,-17.18
18027,-20.01
18039,-22.62
18051,-25.26
18063,-28.25
18075,-31.94
18087,-36.54
18099,-42.09
18111,-48.35
18123,-54.75
18135,-60.34
18146,-64.01
18157,-64.75
18169,-61.87
18181,-55.35
18193,-45.8
18205,-34.39
18217,-22.43
18229,-11.05
18241,-0.96
18253,7.56
18265,14.52
18277,20.01
18289,24.02
18301,26.45
18313,27.28
18325,26.77
18336,25.43
18347,23.96
18359,23.03
18371,23.03
18383,23.94
18395,25.43
18407,27.11
18419,28.69
18431,30.27
18443,32.21
18455,35.02
18467,39.05
18479,44.28
18491,50.27
18503,56.16
18515,60.92
18526,63.52
18537,63.11
18549,59.14
18561,51.47
18573,40.46
18585,26.94
18597,12.13
18609,-2.61
18621,-16.11
18633,-27.58
18645,-36.81
18657,-44.01
18669,-49.65
18681,-54.32
18693,-58.61
18705,-63.09
18716,-68.23
18727,-74.3
18739,-81.1
18751,-87.83
18763,-93.22
18775,-95.81
18787,-94.36
18799,-88.23
18811,-77.58
18823,-63.28
18835,-46.61
18847,-28.88
18859,-11.12
18871,6.13
18883,22.74
18895,38.87
18906,54.65
18917,70.06
18929,84.9
18941,98.85
18953,111.68
18965,123.4
18977,134.28
18989,144.79
19001,155.3
19013,165.87
19025,176.04
19037,184.87
19049,191.14
19061,193.79
19073,192.09
19085,185.88
19096,175.55
19107,161.93
19119,146.03
19131,128.81
19143,110.83
19155,91.96
19167,71.25
19179,47.16
19191,18.18
19203,-16.46
19215,-56.01
19227,-98.09
19239,-139.15
19251,-175.55
19263,-204.61
19275,-225.35
19286,-238.38
19297,-245.34
19309,-248.07
19321,-248.08
19333,-246.41
19345,-243.89
19357,-241.39
19369,-239.66
19381,-239.08
19393,-239.07
19405,-237.84
19417,-232.78
19429,-221.21
19441,-201.39
19453,-173.32
19465,-138.83
19476,-101.23
19487,-64.28
19499,-31.33
19511,-4.52
19523,15.53
19535,29.56
19547,39.07
19559,45.55
19571,49.91
19583,52.23
19595,52.01
19607,48.69
19619,42.2
19631,33.24
19643,23.18
19655,13.64
19666,5.96
19677,0.8
19689,-1.99
19701,-3.19
19713,-3.97
19725,-5.48
19737,-8.65
19749,-13.88
19761,-20.89
19773,-28.58
19785,-35.01
19797,-37.7
19809,-34.14
19821,-22.56
19833,-2.73
19845,23.7
19856,53.29
19867,81.51
19879,103.78
19891,116.56
19903,118.2
19915,109.21
19927,92.07
19939,70.52
19951,48.68
19963,30.23
19975,17.82
19987,12.62
19999,14.34
20011,21.33
20023,31.08
20035,40.71
20046,47.62
20057,50.08
20069,47.5
20081,40.41
20093,30.13
20105,18.38
20117,6.81
20129,-3.21
20141,-10.65
20153,-14.87
20165,-15.64
20177,-13.32
20189,-8.8
20201,-3.31
20213,1.84
20225,5.67
20236,7.72
20247,8.08
20259,7.14
20271,5.33
20283,2.82
20295,-0.4
20307,-4.48
20319,-9.42
20331,-15.11
20343,-21.37
20355,-28.12
20367,-35.46
20379,-43.43
20391,-51.71
20403,-59.35
20415,-64.9
20426,-66.93
20437,-64.63
20449,-58.24
20461,-48.97
20473,-38.58
20485,-28.58
20497,-19.84
20509,-12.48
20521,-6.19
20533,-0.63
20545,4.45
20557,9.13
20569,13.57
20581,17.97
20593,22.57
20605,27.38
20616,32.15
20627,36.39
20639,39.54
20651,41.21
20663,41.19
20675,39.45
20687,36.06
20699,31.18
20711,25.13
20723,18.49
20735,11.95
20747,6.05
20759,0.87
20771,-4.09
20783,-9.64
20795,-16.46
20806,-24.54
20817,-33.11
20829,-40.8
20841,-46.22
20853,-48.51
20865,-47.55
20877,-43.77
20889,-37.85
20901,-30.41
20913,-21.97
20925,-13.07
20937,-4.42
20949,3.11
20961,8.7
20973,11.87
20985,12.62
20996,11.47
