seconds,BVP
8,14.17
20,12.6
32,11.26
44,10.08
56,8.92
68,7.74
80,6.48
92,5.19
104,3.96
116,2.84
128,1.75
140,0.47
152,-1.27
164,-3.71
175,-6.81
186,-10.34
198,-13.92
210,-17.22
222,-20.08
234,-22.45
246,-24.36
258,-25.82
270,-26.78
282,-27.21
294,-27.19
306,-26.93
318,-26.7
330,-26.82
342,-27.43
354,-28.55
365,-30.01
376,-31.44
388,-32.33
400,-32.21
412,-30.68
424,-27.57
436,-23.06
448,-17.62
460,-11.94
472,-6.75
484,-2.53
496,0.55
508,2.69
520,4.34
532,5.98
544,7.92
555,10.2
566,12.62
578,14.81
590,16.47
602,17.41
614,17.67
626,17.44
638,16.97
650,16.49
662,16.06
674,15.64
686,15.06
698,14.17
710,12.89
722,11.35
734,9.86
745,8.81
756,8.62
768,9.53
780,11.48
792,14.13
804,16.93
816,19.26
828,20.67
840,21.03
852,20.54
864,19.59
876,18.57
888,17.68
900,16.87
912,15.99
924,14.89
935,13.57
946,12.08
958,10.38
970,8.23
982,5.25
994,1.04
1006,-4.44
1018,-10.75
1030,-17.04
1042,-22.39
1054,-26.09
1066,-27.94
1078,-28.05
1090,-26.73
1102,-24.14
1114,-20.29
1125,-15.24
1136,-9.27
1148,-3.06
1160,2.57
1172,6.88
1184,9.56
1196,10.79
1208,11.11
1220,11.08
1232,11.05
1244,11.07
1256,10.99
1268,10.71
1280,10.24
1292,9.8
1304,9.67
1315,10.01
1326,10.76
1338,11.69
1350,12.48
1362,12.92
1374,13.02
1386,13.0
1398,13.14
1410,13.69
1422,14.66
1434,15.8
1446,16.71
1458,16.96
1470,16.3
1482,14.73
1494,12.48
1505,9.91
1516,7.32
1528,4.81
1540,2.28
1552,-0.48
1564,-3.58
1576,-6.97
1588,-10.39
1600,-13.54
1612,-16.26
1624,-18.54
1636,-20.54
1648,-22.46
1660,-24.38
1672,-26.21
1684,-27.75
1695,-28.8
1706,-29.21
1718,-28.93
1730,-27.96
1742,-26.3
1754,-23.92
1766,-20.79
1778,-16.92
1790,-12.42
1802,-7.51
1814,-2.53
1826,2.11
1838,6.07
1850,9.08
1862,11.08
1874,12.17
1885,12.55
1896,12.42
1908,11.88
1920,10.94
1932,9.62
1944,7.98
1956,6.19
1968,4.57
1980,3.49
1992,3.17
2004,3.66
2016,4.78
2028,6.19
2040,7.47
2052,8.32
2064,8.58
2075,8.25
2086,7.44
2098,6.23
2110,4.78
2122,3.2
2134,1.63
2146,0.15
2158,-1.19
2170,-2.45
2182,-3.72
2194,-5.16
2206,-6.87
2218,-8.89
2230,-11.13
2242,-13.47
2254,-15.72
2265,-17.71
2276,-19.31
2288,-20.57
2300,-21.65
2312,-22.91
2324,-24.65
2336,-26.97
2348,-29.62
2360,-32.01
2372,-33.37
2384,-33.04
2396,-30.67
2408,-26.32
2420,-20.38
2432,-13.46
2444,-6.2
2455,0.82
2466,7.09
2478,12.25
2490,16.15
2502,18.79
2514,20.37
2526,21.21
2538,21.64
2550,21.86
2562,21.9
2574,21.67
2586,20.99
2598,19.77
2610,18.07
2622,16.17
2634,14.42
2645,13.15
2656,12.5
2668,12.39
2680,12.61
2692,12.89
2704,13.04
2716,12.99
2728,12.74
2740,12.28
2752,11.64
2764,10.82
2776,9.84
2788,8.76
2800,7.61
2812,6.41
2824,5.16
2835,3.84
2846,2.46
2858,1.03
2870,-0.47
2882,-2.12
2894,-4.0
2906,-6.14
2918,-8.41
2930,-10.57
2942,-12.37
2954,-13.69
2966,-14.56
2978,-15.21
2990,-15.9
3002,-16.85
3014,-18.17
3025,-19.86
3036,-21.76
3048,-23.71
3060,-25.4
3072,-26.43
3084,-26.34
3096,-24.8
3108,-21.63
3120,-16.97
3132,-11.2
3144,-4.83
3156,1.57
3168,7.58
3180,12.9
3192,17.36
3204,20.89
3215,23.46
3226,25.05
3238,25.69
3250,25.51
3262,24.72
3274,23.57
3286,22.34
3298,21.23
3310,20.31
3322,19.53
3334,18.78
3346,17.95
3358,17.02
3370,16.07
3382,15.22
3394,14.62
3405,14.28
3416,14.24
3428,14.4
3440,14.67
3452,14.87
3464,14.83
3476,14.31
3488,13.12
3500,11.16
3512,8.51
3524,5.46
3536,2.37
3548,-0.42
3560,-2.72
3572,-4.55
3584,-6.07
3595,-7.51
3606,-9.03
3618,-10.71
3630,-12.51
3642,-14.3
3654,-15.98
3666,-17.51
3678,-18.91
3690,-20.29
3702,-21.71
3714,-23.23
3726,-24.85
3738,-26.45
3750,-27.8
3762,-28.58
3774,-28.35
3785,-26.72
3796,-23.42
3808,-18.47
3820,-12.19
3832,-5.21
3844,1.74
3856,7.99
3868,13.14
3880,17.06
3892,19.79
3904,21.46
3916,22.17
3928,22.05
3940,21.25
3952,19.97
3964,18.5
3975,17.07
3986,15.86
3998,14.89
4010,14.09
4022,13.37
4034,12.68
4046,12.05
4058,11.55
4070,11.25
4082,11.18
4094,11.3
4106,11.52
4118,11.71
4130,11.76
4142,11.53
4154,10.93
4165,9.89
4176,8.45
4188,6.75
4200,5.05
4212,3.6
4224,2.51
4236,1.69
4248,0.86
4260,-0.31
4272,-2.03
4284,-4.24
4296,-6.71
4308,-9.11
4320,-11.18
4332,-12.87
4344,-14.3
4355,-15.62
4366,-17.0
4378,-18.55
4390,-20.3
4402,-22.2
4414,-24.11
4426,-25.69
4438,-26.47
4450,-25.93
4462,-23.65
4474,-19.47
4486,-13.59
4498,-6.56
4510,0.81
4522,7.71
4534,13.46
4545,17.73
4556,20.48
4568,21.94
4580,22.45
4592,22.33
4604,21.83
4616,21.07
4628,20.07
4640,18.84
4652,17.37
4664,15.68
4676,13.83
4688,11.97
4700,10.32
4712,9.18
4724,8.77
4735,9.18
4746,10.23
4758,11.56
4770,12.77
4782,13.53
4794,13.71
4806,13.38
4818,12.7
4830,11.8
4842,10.75
4854,9.5
4866,8.03
4878,6.35
4890,4.58
4902,2.88
4914,1.34
4925,-0.07
4936,-1.51
4948,-3.19
4960,-5.22
4972,-7.57
4984,-10.04
4996,-12.41
5008,-14.48
5020,-16.23
5032,-17.71
5044,-19.02
5056,-20.29
5068,-21.6
5080,-23.02
5092,-24.56
5104,-26.11
5115,-27.4
5126,-28.05
5138,-27.59
5150,-25.62
5162,-21.99
5174,-16.82
5186,-10.52
5198,-3.7
5210,3.01
5222,9.04
5234,14.0
5246,17.71
5258,20.16
5270,21.45
5282,21.77
5294,21.34
5305,20.39
5316,19.12
5328,17.63
5340,15.99
5352,14.19
5364,12.27
5376,10.33
5388,8.58
5400,7.23
5412,6.42
5424,6.19
5436,6.39
5448,6.78
5460,7.17
5472,7.45
5484,7.6
5495,7.62
5506,7.49
5518,7.14
5530,6.51
5542,5.57
5554,4.38
5566,3.05
5578,1.71
5590,0.48
5602,-0.62
5614,-1.67
5626,-2.77
5638,-4.04
5650,-5.57
5662,-7.36
5674,-9.34
5685,-11.37
5696,-13.27
5708,-14.92
5720,-16.28
5732,-17.41
5744,-18.48
5756,-19.7
5768,-21.24
5780,-23.06
5792,-24.96
5804,-26.54
5816,-27.31
5828,-26.89
5840,-25.01
5852,-21.68
5864,-17.12
5875,-11.69
5886,-5.88
5898,-0.17
5910,5.03
5922,9.41
5934,12.79
5946,15.13
5958,16.5
5970,17.04
5982,16.91
5994,16.28
6006,15.28
6018,14.02
6030,12.59
6042,11.06
6054,9.52
6065,8.12
6076,7.0
6088,6.28
6100,6.0
6112,6.14
6124,6.56
6136,7.11
6148,7.62
6160,7.9
6172,7.8
6184,7.26
6196,6.34
6208,5.2
6220,4.08
6232,3.15
6244,2.44
6255,1.82
6266,0.99
6278,-0.26
6290,-2.02
6302,-4.16
6314,-6.48
6326,-8.69
6338,-10.61
6350,-12.21
6362,-13.56
6374,-14.85
6386,-16.28
6398,-18.06
6410,-20.24
6422,-22.72
6434,-25.16
6445,-27.03
6456,-27.74
6468,-26.75
6480,-23.84
6492,-19.11
6504,-13.03
6516,-6.27
6528,0.45
6540,6.53
6552,11.62
6564,15.53
6576,18.29
6588,19.94
6600,20.61
6612,20.44
6624,19.63
6635,18.41
6646,16.99
6658,15.52
6670,14.04
6682,12.56
6694,11.07
6706,9.65
6718,8.44
6730,7.6
6742,7.19
6754,7.14
6766,7.25
6778,7.28
6790,7.09
6802,6.62
6814,5.97
6825,5.27
6836,4.67
6848,4.18
6860,3.76
6872,3.22
6884,2.44
6896,1.25
6908,-0.42
6920,-2.57
6932,-5.14
6944,-7.96
6956,-10.83
6968,-13.54
6980,-15.95
6992,-18.02
7004,-19.79
7015,-21.41
7026,-23.0
7038,-24.68
7050,-26.4
7062,-27.93
7074,-28.88
7086,-28.8
7098,-27.25
7110,-23.98
7122,-19.06
7134,-12.81
7146,-5.82
7158,1.22
7170,7.66
7182,13.01
7194,17.02
7205,19.64
7216,21.0
7228,21.32
7240,20.88
7252,19.93
7264,18.68
7276,17.26
7288,15.76
7300,14.21
7312,12.66
7324,11.16
7336,9.79
7348,8.66
7360,7.85
7372,7.44
7384,7.45
7395,7.84
7406,8.5
7418,9.25
7430,9.84
7442,10.08
7454,9.83
7466,9.11
7478,8.02
7490,6.74
7502,5.39
7514,4.03
7526,2.59
7538,0.96
7550,-1.0
7562,-3.34
7574,-6.0
7585,-8.81
7596,-11.53
7608,-13.95
7620,-15.96
7632,-17.57
7644,-18.93
7656,-20.3
7668,-21.92
7680,-23.91
7692,-26.14
7704,-28.28
7716,-29.87
7728,-30.38
7740,-29.39
7752,-26.68
7764,-22.29
7775,-16.49
7786,-9.79
7798,-2.77
7810,3.95
7822,9.9
7834,14.69
7846,18.16
7858,20.24
7870,21.03
7882,20.7
7894,19.5
7906,17.73
7918,15.66
7930,13.57
7942,11.62
7954,9.96
7965,8.63
7976,7.65
7988,6.93
8000,6.29
8012,5.54
8024,4.55
8036,3.35
8048,2.15
8060,1.3
8072,1.05
8084,1.5
8096,2.51
8108,3.78
8120,4.97
8132,5.81
8144,6.2
8155,6.09
8166,5.48
8178,4.35
8190,2.67
8202,0.47
8214,-2.12
8226,-4.89
8238,-7.54
8250,-9.81
8262,-11.54
8274,-12.78
8286,-13.73
8298,-14.71
8310,-16.03
8322,-17.82
8334,-20.0
8345,-22.24
8356,-24.06
8368,-24.9
8380,-24.33
8392,-22.04
8404,-17.98
8416,-12.37
8428,-5.62
8440,1.63
8452,8.69
8464,14.87
8476,19.69
8488,22.88
8500,24.46
8512,24.63
8524,23.73
8535,22.07
8546,19.97
8558,17.76
8570,15.75
8582,14.23
8594,13.35
8606,13.11
8618,13.25
8630,13.43
8642,13.36
8654,12.96
8666,12.37
8678,11.86
8690,11.62
8702,11.67
8714,11.83
8725,11.78
8736,11.25
8748,10.17
8760,8.62
8772,6.8
8784,4.89
8796,2.98
8808,1.06
8820,-0.91
8832,-2.98
8844,-5.17
8856,-7.45
8868,-9.79
8880,-12.15
8892,-14.48
8904,-16.7
8915,-18.76
8926,-20.61
8938,-22.3
8950,-23.92
8962,-25.59
8974,-27.32
8986,-28.97
8998,-30.23
9010,-30.69
9022,-29.98
9034,-27.86
9046,-24.26
9058,-19.31
9070,-13.35
9082,-6.82
9094,-0.2
9105,6.04
9116,11.49
9128,15.86
9140,19.03
9152,20.96
9164,21.77
9176,21.64
9188,20.84
9200,19.64
9212,18.29
9224,16.94
9236,15.65
9248,14.42
9260,13.26
9272,12.22
9284,11.43
9295,10.98
9306,10.94
9318,11.2
9330,11.57
9342,11.83
9354,11.76
9366,11.32
9378,10.53
9390,9.47
9402,8.22
9414,6.77
9426,5.07
9438,3.12
9450,0.92
9462,-1.45
9474,-3.85
9485,-6.17
9496,-8.34
9508,-10.33
9520,-12.18
9532,-13.97
9544,-15.74
9556,-17.55
9568,-19.51
9580,-21.69
9592,-24.08
9604,-26.49
9616,-28.55
9628,-29.72
9640,-29.45
9652,-27.35
9664,-23.34
9675,-17.75
9686,-11.13
9698,-4.14
9710,2.62
9722,8.74
9734,13.93
9746,18.01
9758,20.86
9770,22.42
9782,22.77
9794,22.13
9806,20.84
9818,19.21
9830,17.5
9842,15.85
9854,14.34
9865,12.98
9876,11.79
9888,10.81
9900,10.09
9912,9.64
9924,9.45
9936,9.48
9948,9.69
9960,10.01
9972,10.35
9984,10.59
9996,10.64
10008,10.38
10020,9.79
10032,8.92
10044,7.87
10055,6.77
10066,5.73
10078,4.8
10090,3.95
10102,3.16
10114,2.37
10126,1.54
10138,0.69
10150,-0.15
10162,-0.93
10174,-1.65
10186,-2.32
10198,-3.02
10210,-3.83
10222,-4.82
10234,-5.99
10245,-7.28
10256,-8.61
10268,-9.9
10280,-11.1
10292,-12.21
10304,-13.25
10316,-14.28
10328,-15.34
10340,-16.46
10352,-17.7
10364,-19.12
10376,-20.71
10388,-22.36
10400,-23.78
10412,-24.58
10424,-24.29
10435,-22.56
10446,-19.24
10458,-14.48
10470,-8.72
10482,-2.51
10494,3.61
10506,9.19
10518,13.96
10530,17.75
10542,20.51
10554,22.21
10566,22.92
10578,22.73
10590,21.83
10602,20.45
10614,18.78
10625,16.99
10636,15.15
10648,13.35
10660,11.64
10672,10.13
10684,8.93
10696,8.12
10708,7.71
10720,7.63
10732,7.79
10744,8.03
10756,8.22
10768,8.22
10780,7.95
10792,7.37
10804,6.49
10815,5.38
10826,4.17
10838,3.0
10850,1.99
10862,1.15
10874,0.4
10886,-0.48
10898,-1.72
10910,-3.47
10922,-5.71
10934,-8.3
10946,-10.98
10958,-13.48
10970,-15.65
10982,-17.46
10994,-18.94
11005,-20.22
11016,-21.41
11028,-22.66
11040,-24.12
11052,-25.89
11064,-27.92
11076,-29.86
11088,-31.14
11100,-31.05
11112,-29.02
11124,-24.8
11136,-18.65
11148,-11.24
11160,-3.41
11172,3.95
11184,10.19
11195,14.96
11206,18.21
11218,20.11
11230,20.97
11242,21.14
11254,20.89
11266,20.43
11278,19.8
11290,18.97
11302,17.87
11314,16.5
11326,14.96
11338,13.44
11350,12.16
11362,11.32
11374,11.02
11385,11.19
11396,11.63
11408,12.1
11420,12.39
11432,12.44
11444,12.25
11456,11.91
11468,11.38
11480,10.59
11492,9.38
11504,7.66
11516,5.48
11528,3.05
11540,0.69
11552,-1.35
11564,-2.99
11575,-4.38
11586,-5.78
11598,-7.46
11610,-9.51
11622,-11.83
11634,-14.22
11646,-16.43
11658,-18.27
11670,-19.72
11682,-20.83
11694,-21.76
11706,-22.7
11718,-23.82
11730,-25.2
11742,-26.8
11754,-28.46
11765,-29.81
11776,-30.45
11788,-29.94
11800,-27.97
11812,-24.42
11824,-19.45
11836,-13.43
11848,-6.94
11860,-0.58
11872,5.15
11884,9.91
11896,13.58
11908,16.17
11920,17.77
11932,18.45
11944,18.33
11955,17.5
11966,16.16
11978,14.57
11990,12.97
12002,11.55
12014,10.35
12026,9.3
12038,8.32
12050,7.4
12062,6.63
12074,6.14
12086,6.05
12098,6.34
12110,6.91
12122,7.56
12134,8.11
12145,8.45
12156,8.53
12168,8.33
12180,7.78
12192,6.81
12204,5.37
12216,3.53
12228,1.41
12240,-0.77
12252,-2.86
12264,-4.76
12276,-6.47
12288,-8.06
12300,-9.58
12312,-11.08
12324,-12.51
12335,-13.82
12346,-14.96
12358,-15.95
12370,-16.86
12382,-17.8
12394,-18.87
12406,-20.0
12418,-20.93
12430,-21.24
12442,-20.47
12454,-18.24
12466,-14.4
12478,-9.12
12490,-2.8
12502,3.96
12514,10.5
12525,16.17
12536,20.51
12548,23.25
12560,24.44
12572,24.29
12584,23.2
12596,21.59
12608,19.73
12620,17.8
12632,15.86
12644,13.94
12656,12.06
12668,10.3
12680,8.7
12692,7.35
12704,6.32
12715,5.72
12726,5.62
12738,5.96
12750,6.58
12762,7.17
12774,7.36
12786,6.9
12798,5.77
12810,4.18
12822,2.44
12834,0.83
12846,-0.57
12858,-1.84
12870,-3.12
12882,-4.56
12894,-6.21
12905,-8.05
12916,-10.0
12928,-12.02
12940,-14.06
12952,-16.12
12964,-18.13
12976,-20.0
12988,-21.62
13000,-22.98
13012,-24.15
13024,-25.24
13036,-26.32
13048,-27.27
13060,-27.81
13072,-27.48
13084,-25.83
13095,-22.57
13106,-17.67
13118,-11.5
13130,-4.61
13142,2.26
13154,8.46
13166,13.53
13178,17.25
13190,19.62
13202,20.84
13214,21.18
13226,20.88
13238,20.18
13250,19.19
13262,18.03
13274,16.76
13285,15.45
13296,14.15
13308,12.94
13320,11.87
13332,10.99
13344,10.35
13356,9.94
13368,9.79
13380,9.83
13392,9.99
13404,10.2
13416,10.38
13428,10.44
13440,10.27
13452,9.77
13464,8.89
13475,7.67
13486,6.19
13498,4.59
13510,2.97
13522,1.38
13534,-0.25
13546,-2.03
13558,-4.09
13570,-6.44
13582,-8.98
13594,-11.48
13606,-13.72
13618,-15.55
13630,-17.0
13642,-18.19
13654,-19.37
13665,-20.71
13676,-22.33
13688,-24.2
13700,-26.14
13712,-27.87
13724,-29.02
13736,-29.17
13748,-27.9
13760,-24.99
13772,-20.45
13784,-14.64
13796,-8.14
13808,-1.6
13820,4.4
13832,9.5
13844,13.56
13855,16.51
13866,18.36
13878,19.13
13890,18.86
13902,17.75
13914,16.12
13926,14.34
13938,12.81
13950,11.7
13962,11.01
13974,10.56
13986,10.15
13998,9.64
14010,9.11
14022,8.69
14034,8.53
14045,8.66
14056,8.98
14068,9.35
14080,9.6
14092,9.68
14104,9.53
14116,9.09
14128,8.31
14140,7.12
14152,5.52
14164,3.61
14176,1.59
14188,-0.36
14200,-2.15
14212,-3.81
14224,-5.43
14235,-7.1
14246,-8.85
14258,-10.63
14270,-12.35
14282,-13.94
14294,-15.35
14306,-16.61
14318,-17.78
14330,-18.89
14342,-19.93
14354,-20.74
14366,-21.02
14378,-20.44
14390,-18.65
14402,-15.49
14414,-10.98
14425,-5.42
14436,0.71
14448,6.82
14460,12.34
14472,16.87
14484,20.22
14496,22.42
14508,23.64
14520,24.05
14532,23.74
14544,22.72
14556,20.99
14568,18.67
14580,16.05
14592,13.52
14604,11.42
14615,9.95
14626,9.09
14638,8.67
14650,8.51
14662,8.45
14674,8.38
14686,8.26
14698,7.96
14710,7.41
14722,6.53
14734,5.37
14746,4.02
14758,2.6
14770,1.13
14782,-0.43
14794,-2.13
14805,-4.06
14816,-6.21
14828,-8.51
14840,-10.82
14852,-13.03
14864,-15.01
14876,-16.7
14888,-18.09
14900,-19.21
14912,-20.24
14924,-21.35
14936,-22.74
14948,-24.43
14960,-26.21
14972,-27.59
14984,-27.91
14995,-26.55
15006,-23.11
15018,-17.62
15030,-10.51
15042,-2.57
15054,5.29
15066,12.23
15078,17.66
15090,21.36
15102,23.39
15114,24.09
15126,23.79
15138,22.86
15150,21.51
15162,19.91
15174,18.16
15185,16.35
15196,14.57
15208,12.87
15220,11.33
15232,9.93
15244,8.76
15256,7.87
15268,7.36
15280,7.26
15292,7.55
15304,8.08
15316,8.6
15328,8.86
15340,8.63
15352,7.79
15364,6.4
15375,4.62
15386,2.72
15398,0.95
15410,-0.51
15422,-1.68
15434,-2.72
15446,-3.9
15458,-5.47
15470,-7.52
15482,-10.05
15494,-12.86
15506,-15.7
15518,-18.33
15530,-20.61
15542,-22.5
15554,-24.14
15565,-25.72
15576,-27.31
15588,-28.86
15600,-30.07
15612,-30.5
15624,-29.68
15636,-27.31
15648,-23.27
15660,-17.81
15672,-11.37
15684,-4.53
15696,2.12
15708,8.07
15720,13.0
15732,16.76
15744,19.35
15755,20.91
15766,21.59
15778,21.56
15790,20.92
15802,19.81
15814,18.4
15826,16.92
15838,15.59
15850,14.52
15862,13.76
15874,13.18
15886,12.63
15898,11.97
15910,11.22
15922,10.54
15934,10.12
15945,9.98
15956,9.98
15968,9.83
15980,9.25
15992,8.15
16004,6.69
16016,5.18
16028,3.92
16040,3.05
16052,2.44
16064,1.78
16076,0.81
16088,-0.67
16100,-2.62
16112,-4.86
16124,-7.19
16135,-9.41
16146,-11.42
16158,-13.19
16170,-14.75
16182,-16.09
16194,-17.23
16206,-18.21
16218,-19.09
16230,-20.02
16242,-21.13
16254,-22.46
16266,-23.82
16278,-24.79
16290,-24.78
16302,-23.25
16314,-19.92
16325,-14.85
16336,-8.53
16348,-1.65
16360,5.02
16372,10.86
16384,15.46
16396,18.63
16408,20.38
16420,20.89
16432,20.45
16444,19.37
16456,17.97
16468,16.45
16480,14.95
16492,13.55
16504,12.35
16515,11.43
16526,10.86
16538,10.67
16550,10.75
16562,10.91
16574,10.96
16586,10.71
16598,10.15
16610,9.35
16622,8.42
16634,7.45
16646,6.41
16658,5.19
16670,3.68
16682,1.82
16694,-0.36
16705,-2.73
16716,-5.12
16728,-7.35
16740,-9.3
16752,-10.91
16764,-12.19
16776,-13.23
16788,-14.16
16800,-15.18
16812,-16.48
16824,-18.15
16836,-20.14
16848,-22.19
16860,-23.87
16872,-24.65
16884,-24.01
16895,-21.6
16906,-17.37
16918,-11.61
16930,-4.89
16942,2.05
16954,8.53
16966,14.03
16978,18.33
16990,21.4
17002,23.33
17014,24.23
17026,24.14
17038,23.12
17050,21.27
17062,18.82
17074,16.11
17085,13.53
17096,11.42
17108,9.95
17120,9.07
17132,8.64
17144,8.48
17156,8.5
17168,8.69
17180,9.08
17192,9.66
17204,10.3
17216,10.8
17228,10.96
17240,10.62
17252,9.76
17264,8.44
17275,6.81
17286,5.03
17298,3.28
17310,1.71
17322,0.43
17334,-0.58
17346,-1.47
17358,-2.43
17370,-3.65
17382,-5.15
17394,-6.83
17406,-8.45
17418,-9.82
17430,-10.84
17442,-11.59
17454,-12.23
17465,-12.91
17476,-13.71
17488,-14.58
17500,-15.46
17512,-16.29
17524,-17.1
17536,-17.98
17548,-19.05
17560,-20.34
17572,-21.86
17584,-23.53
17596,-25.24
17608,-26.88
17620,-28.33
17632,-29.37
17644,-29.72
17655,-29.0
17666,-26.86
17678,-23.08
17690,-17.73
17702,-11.14
17714,-3.94
17726,3.14
17738,9.5
17750,14.68
17762,18.52
17774,21.04
17786,22.36
17798,22.61
17810,21.94
17822,20.48
17834,18.5
17845,16.39
17856,14.54
17868,13.28
17880,12.7
17892,12.71
17904,12.98
17916,13.18
17928,13.06
17940,12.6
17952,11.94
17964,11.31
17976,10.85
17988,10.56
18000,10.27
18012,9.79
18024,8.99
18035,7.89
18046,6.61
18058,5.32
18070,4.1
18082,2.92
18094,1.66
18106,0.19
18118,-1.51
18130,-3.36
18142,-5.16
18154,-6.75
18166,-8.01
18178,-8.96
18190,-9.72
18202,-10.46
18214,-11.31
18225,-12.33
18236,-13.46
18248,-14.61
18260,-15.67
18272,-16.61
18284,-17.49
18296,-18.45
18308,-19.64
18320,-21.04
18332,-22.49
18344,-23.62
18356,-23.93
18368,-23.01
18380,-20.64
18392,-16.85
18404,-11.9
18415,-6.19
18426,-0.2
18438,5.58
18450,10.76
18462,15.0
18474,18.08
18486,19.93
18498,20.62
18510,20.38
18522,19.49
18534,18.23
18546,16.84
18558,15.48
18570,14.25
18582,13.19
18594,12.35
18605,11.75
18616,11.33
18628,10.98
18640,10.6
18652,10.07
18664,9.37
18676,8.52
18688,7.59
18700,6.69
18712,5.91
18724,5.29
18736,4.83
18748,4.47
18760,4.05
18772,3.42
18784,2.4
18795,0.89
18806,-1.12
18818,-3.5
18830,-6.04
18842,-8.49
18854,-10.74
18866,-12.77
18878,-14.67
18890,-16.54
18902,-18.45
18914,-20.39
18926,-22.35
18938,-24.31
18950,-26.25
18962,-28.02
18974,-29.3
18985,-29.58
18996,-28.32
19008,-25.17
19020,-20.16
19032,-13.75
19044,-6.7
19056,0.2
19068,6.37
19080,11.51
19092,15.53
19104,18.45
19116,20.3
19128,21.13
19140,21.04
19152,20.2
19164,18.88
19175,17.39
19186,15.95
19198,14.67
19210,13.53
19222,12.45
19234,11.33
19246,10.18
19258,9.12
19270,8.37
19282,8.09
19294,8.29
19306,8.76
19318,9.15
19330,9.11
19342,8.5
19354,7.37
19365,5.93
19376,4.43
19388,3.0
19400,1.62
19412,0.24
19424,-1.17
19436,-2.63
19448,-4.14
19460,-5.7
19472,-7.39
19484,-9.22
19496,-11.17
19508,-13.23
19520,-15.29
19532,-17.31
19544,-19.26
19555,-21.13
19566,-22.95
19578,-24.72
19590,-26.37
19602,-27.78
19614,-28.67
19626,-28.63
19638,-27.23
19650,-24.17
19662,-19.35
19674,-13.1
19686,-6.01
19698,1.15
19710,7.67
19722,13.06
19734,17.1
19745,19.83
19756,21.4
19768,22.03
19780,21.92
19792,21.2
19804,19.97
19816,18.37
19828,16.57
19840,14.8
19852,13.32
19864,12.28
19876,11.73
19888,11.55
19900,11.57
19912,11.62
19924,11.68
19935,11.79
19946,12.0
19958,12.26
19970,12.41
19982,12.2
19994,11.49
20006,10.27
20018,8.68
20030,6.88
20042,5.01
20054,3.08
20066,1.06
20078,-1.12
20090,-3.44
20102,-5.79
20114,-8.04
20125,-10.07
20136,-11.84
20148,-13.35
20160,-14.66
20172,-15.84
20184,-17.02
20196,-18.3
20208,-19.73
20220,-21.37
20232,-23.14
20244,-24.95
20256,-26.63
20268,-27.95
20280,-28.57
20292,-28.15
20304,-26.34
20315,-22.93
20326,-17.96
20338,-11.77
20350,-4.99
20362,1.69
20374,7.66
20386,12.52
20398,16.12
20410,18.51
20422,19.8
20434,20.14
20446,19.65
20458,18.46
20470,16.74
20482,14.71
20494,12.64
20505,10.73
20516,9.16
20528,8.04
20540,7.39
20552,7.28
20564,7.67
20576,8.5
20588,9.61
20600,10.84
20612,11.98
20624,12.88
20636,13.4
20648,13.43
20660,12.96
20672,11.97
20684,10.53
20695,8.74
20706,6.72
20718,4.55
20730,2.26
20742,-0.15
20754,-2.7
20766,-5.31
20778,-7.84
20790,-10.15
20802,-12.12
20814,-13.75
20826,-15.16
20838,-16.53
20850,-17.96
20862,-19.4
20874,-20.58
20885,-21.1
20896,-20.55
20908,-18.62
20920,-15.21
20932,-10.48
20944,-4.77
20956,1.39
20968,7.48
20980,12.99
20992,17.56
