seconds,BVP
9,4.28
21,4.34
33,4.15
45,3.79
57,3.31
69,2.8
80,2.35
91,2.06
103,1.92
115,1.87
127,1.77
139,1.56
151,1.26
163,0.96
175,0.77
187,0.72
199,0.74
211,0.7
223,0.49
235,0.06
247,-0.52
259,-1.1
270,-1.48
281,-1.5
293,-1.1
305,-0.31
317,0.74
329,1.86
341,2.9
353,3.73
365,4.32
377,4.69
389,4.87
401,4.92
413,4.86
425,4.68
437,4.35
449,3.83
460,3.08
471,2.09
483,0.9
495,-0.4
507,-1.71
519,-2.88
531,-3.82
543,-4.44
555,-4.72
567,-4.73
579,-4.55
591,-4.31
603,-4.15
615,-4.15
627,-4.32
639,-4.55
650,-4.66
661,-4.44
673,-3.69
685,-2.32
697,-0.35
709,2.06
721,4.65
733,7.08
745,9.07
757,10.43
769,11.09
781,11.17
793,10.85
805,10.32
817,9.74
829,9.2
840,8.73
851,8.35
863,8.1
875,7.98
887,7.98
899,8.02
911,7.99
923,7.8
935,7.48
947,7.17
959,7.01
971,7.07
983,7.26
995,7.36
1007,7.11
1019,6.43
1030,5.47
1041,4.6
1053,4.24
1065,4.66
1077,5.83
1089,7.47
1101,9.16
1113,10.54
1125,11.42
1137,11.78
1149,11.69
1161,11.2
1173,10.35
1185,9.2
1197,7.89
1209,6.63
1220,5.66
1231,5.1
1243,4.9
1255,4.82
1267,4.55
1279,3.89
1291,2.78
1303,1.35
1315,-0.18
1327,-1.7
1339,-3.23
1351,-4.9
1363,-6.83
1375,-9.06
1387,-11.44
1399,-13.67
1410,-15.48
1421,-16.66
1433,-17.16
1445,-17.07
1457,-16.5
1469,-15.61
1481,-14.5
1493,-13.32
1505,-12.25
1517,-11.46
1529,-11.07
1541,-11.04
1553,-11.22
1565,-11.39
1577,-11.34
1589,-11.03
1600,-10.52
1611,-9.95
1623,-9.41
1635,-8.96
1647,-8.56
1659,-8.12
1671,-7.61
1683,-7.02
1695,-6.37
1707,-5.64
1719,-4.85
1731,-4.0
1743,-3.17
1755,-2.53
1767,-2.24
1779,-2.44
1790,-3.07
1801,-3.88
1813,-4.52
1825,-4.62
1837,-4.03
1849,-2.86
1861,-1.43
1873,-0.14
1885,0.71
1897,1.03
1909,0.94
1921,0.67
1933,0.46
1945,0.42
1957,0.53
1969,0.65
1980,0.62
1991,0.35
2003,-0.15
2015,-0.79
2027,-1.43
2039,-1.95
2051,-2.32
2063,-2.58
2075,-2.82
2087,-3.13
2099,-3.54
2111,-4.02
2123,-4.48
2135,-4.82
2147,-4.94
2159,-4.72
2170,-4.1
2181,-3.07
2193,-1.71
2205,-0.17
2217,1.29
2229,2.42
2241,3.05
2253,3.13
2265,2.74
2277,2.07
2289,1.32
2301,0.65
2313,0.12
2325,-0.31
2337,-0.72
2349,-1.19
2360,-1.74
2371,-2.33
2383,-2.89
2395,-3.35
2407,-3.69
2419,-3.92
2431,-4.1
2443,-4.29
2455,-4.54
2467,-4.86
2479,-5.27
2491,-5.74
2503,-6.24
2515,-6.68
2527,-6.92
2539,-6.79
2550,-6.12
2561,-4.88
2573,-3.16
2585,-1.23
2597,0.58
2609,1.95
2621,2.71
2633,2.87
2645,2.58
2657,2.11
2669,1.68
2681,1.42
2693,1.35
2705,1.33
2717,1.21
2729,0.84
2740,0.16
2751,-0.73
2763,-1.66
2775,-2.4
2787,-2.83
2799,-2.94
2811,-2.89
2823,-2.89
2835,-3.11
2847,-3.66
2859,-4.46
2871,-5.38
2883,-6.24
2895,-6.82
2907,-6.94
2919,-6.45
2930,-5.31
2941,-3.63
2953,-1.68
2965,0.22
2977,1.75
2989,2.74
3001,3.23
3013,3.4
3025,3.46
3037,3.63
3049,3.95
3061,4.38
3073,4.8
3085,5.08
3097,5.13
3109,4.95
3120,4.62
3131,4.21
3143,3.84
3155,3.54
3167,3.31
3179,3.16
3191,3.06
3203,3.02
3215,3.06
3227,3.19
3239,3.47
3251,3.95
3263,4.71
3275,5.84
3287,7.42
3299,9.41
3310,11.76
3321,14.35
3333,17.08
3345,19.87
3357,22.71
3369,25.54
3381,28.31
3393,30.97
3405,33.48
3417,35.9
3429,38.35
3441,40.98
3453,43.94
3465,47.24
3477,50.82
3489,54.49
3500,58.07
3511,61.48
3523,64.77
3535,68.15
3547,71.96
3559,76.55
3571,82.27
3583,89.31
3595,97.55
3607,106.41
3619,114.82
3631,121.24
3643,123.93
3655,121.36
3667,112.61
3679,97.56
3690,76.93
3701,52.02
3713,24.39
3725,-4.36
3737,-32.76
3749,-59.47
3761,-83.19
3773,-102.84
3785,-117.63
3797,-127.33
3809,-132.3
3821,-133.33
3833,-131.33
3845,-126.97
3857,-120.42
3869,-111.47
3880,-99.82
3891,-85.43
3903,-68.67
3915,-50.3
3927,-31.06
3939,-11.41
3951,8.6
3963,29.09
3975,50.0
3987,70.74
3999,90.25
4011,107.26
4023,120.65
4035,129.71
4047,134.12
4059,133.86
4070,129.12
4081,120.41
4093,108.68
4105,95.4
4117,82.27
4129,70.68
4141,61.29
4153,53.86
4165,47.62
4177,41.78
4189,36.04
4201,30.67
4213,26.2
4225,22.98
4237,20.84
4249,19.13
4260,16.84
4271,12.95
4283,6.63
4295,-2.4
4307,-13.7
4319,-26.0
4331,-37.47
4343,-46.29
4355,-51.4
4367,-53.02
4379,-52.47
4391,-51.5
4403,-51.3
4415,-51.93
4427,-52.38
4439,-51.38
4450,-48.36
4461,-44.03
4473,-40.21
4485,-39.14
4497,-42.57
4509,-51.29
4521,-64.93
4533,-82.24
4545,-101.29
4557,-119.7
4569,-134.93
4581,-144.67
4593,-147.51
4605,-143.47
4617,-134.13
4629,-122.18
4640,-110.47
4651,-101.01
4663,-94.3
4675,-89.45
4687,-84.88
4699,-79.23
4711,-71.97
4723,-63.37
4735,-53.95
4747,-43.85
4759,-32.66
4771,-19.83
4783,-5.43
4795,9.39
4807,22.51
4819,31.73
4830,35.72
4841,34.64
4853,29.88
4865,23.22
4877,15.99
4889,8.67
4901,1.23
4913,-6.22
4925,-12.92
4937,-17.5
4949,-18.64
4961,-15.9
4973,-10.15
4985,-3.5
4997,1.49
5009,2.78
5020,-0.45
5031,-7.58
5043,-17.0
5055,-26.78
5067,-35.44
5079,-42.26
5091,-47.12
5103,-50.21
5115,-51.65
5127,-51.56
5139,-50.3
5151,-48.68
5163,-47.87
5175,-48.91
5187,-52.06
5199,-56.58
5210,-60.93
5221,-63.43
5233,-63.11
5245,-60.14
5257,-55.68
5269,-51.22
5281,-47.81
5293,-45.59
5305,-43.9
5317,-41.75
5329,-38.44
5341,-33.87
5353,-28.51
5365,-23.03
5377,-17.98
5389,-13.6
5400,-9.9
5411,-6.82
5423,-4.37
5435,-2.61
5447,-1.55
5459,-0.98
5471,-0.46
5483,0.57
5495,2.64
5507,5.96
5519,10.39
5531,15.39
5543,20.22
5555,24.11
5567,26.53
5579,27.31
5590,26.65
5601,25.04
5613,23.05
5625,21.2
5637,19.8
5649,19.03
5661,18.85
5673,19.17
5685,19.84
5697,20.73
5709,21.66
5721,22.44
5733,22.89
5745,22.81
5757,22.11
5769,20.77
5780,18.87
5791,16.46
5803,13.59
5815,10.26
5827,6.54
5839,2.66
5851,-0.87
5863,-3.41
5875,-4.38
5887,-3.46
5899,-0.79
5911,3.12
5923,7.54
5935,11.82
5947,15.51
5959,18.4
5970,20.47
5981,21.81
5993,22.52
6005,22.74
6017,22.67
6029,22.5
6041,22.35
6053,22.21
6065,21.95
6077,21.39
6089,20.47
6101,19.24
6113,17.83
6125,16.37
6137,14.88
6149,13.23
6160,11.22
6171,8.72
6183,5.7
6195,2.29
6207,-1.27
6219,-4.73
6231,-7.87
6243,-10.51
6255,-12.52
6267,-13.74
6279,-14.05
6291,-13.41
6303,-11.97
6315,-10.03
6327,-8.01
6339,-6.32
6350,-5.22
6361,-4.76
6373,-4.82
6385,-5.15
6397,-5.52
6409,-5.74
6421,-5.72
6433,-5.44
6445,-4.93
6457,-4.24
6469,-3.44
6481,-2.66
6493,-2.01
6505,-1.63
6517,-1.63
6529,-2.02
6540,-2.76
6551,-3.75
6563,-4.92
6575,-6.2
6587,-7.64
6599,-9.25
6611,-10.94
6623,-12.47
6635,-13.39
6647,-13.27
6659,-11.8
6671,-9.02
6683,-5.28
6695,-1.16
6707,2.75
6719,5.98
6730,8.33
6741,9.79
6753,10.52
6765,10.76
6777,10.75
6789,10.7
6801,10.77
6813,11.03
6825,11.46
6837,11.97
6849,12.4
6861,12.58
6873,12.36
6885,11.7
6897,10.66
6909,9.42
6920,8.15
6931,7.0
6943,6.02
6955,5.17
6967,4.35
6979,3.42
6991,2.28
7003,0.91
7015,-0.61
7027,-2.04
7039,-3.06
7051,-3.33
7063,-2.61
7075,-0.9
7087,1.55
7099,4.33
7110,7.06
7121,9.47
7133,11.45
7145,13.0
7157,14.16
7169,14.89
7181,15.16
7193,14.96
7205,14.41
7217,13.71
7229,13.09
7241,12.72
7253,12.63
7265,12.75
7277,12.93
7289,13.05
7300,13.01
7311,12.8
7323,12.39
7335,11.79
7347,11.01
7359,10.06
7371,9.0
7383,7.86
7395,6.65
7407,5.34
7419,3.9
7431,2.37
7443,0.9
7455,-0.2
7467,-0.55
7479,0.14
7490,1.96
7501,4.72
7513,8.0
7525,11.3
7537,14.2
7549,16.47
7561,18.08
7573,19.09
7585,19.58
7597,19.59
7609,19.16
7621,18.37
7633,17.41
7645,16.5
7657,15.82
7669,15.38
7680,15.01
7691,14.49
7703,13.65
7715,12.46
7727,11.09
7739,9.75
7751,8.61
7763,7.68
7775,6.84
7787,5.86
7799,4.57
7811,2.85
7823,0.66
7835,-1.86
7847,-4.49
7859,-6.87
7870,-8.61
7881,-9.35
7893,-8.86
7905,-7.13
7917,-4.43
7929,-1.23
7941,1.94
7953,4.53
7965,6.2
7977,6.83
7989,6.57
8001,5.73
8013,4.72
8025,3.88
8037,3.39
8049,3.25
8060,3.29
8071,3.29
8083,3.1
8095,2.67
8107,2.09
8119,1.51
8131,1.07
8143,0.84
8155,0.79
8167,0.81
8179,0.72
8191,0.35
8203,-0.39
8215,-1.51
8227,-2.88
8239,-4.29
8250,-5.44
8261,-6.0
8273,-5.72
8285,-4.5
8297,-2.41
8309,0.3
8321,3.27
8333,6.08
8345,8.4
8357,10.04
8369,10.95
8381,11.22
8393,11.0
8405,10.47
8417,9.78
8429,9.09
8440,8.53
8451,8.16
8463,7.99
8475,7.92
8487,7.84
8499,7.55
8511,6.98
8523,6.1
8535,5.01
8547,3.85
8559,2.75
8571,1.78
8583,0.86
8595,-0.11
8607,-1.26
8619,-2.58
8630,-3.92
8641,-5.01
8653,-5.49
8665,-5.12
8677,-3.75
8689,-1.51
8701,1.34
8713,4.39
8725,7.23
8737,9.55
8749,11.12
8761,11.87
8773,11.88
8785,11.3
8797,10.37
8809,9.33
8820,8.38
8831,7.64
8843,7.12
8855,6.75
8867,6.45
8879,6.11
8891,5.7
8903,5.25
8915,4.8
8927,4.41
8939,4.07
8951,3.7
8963,3.17
8975,2.34
8987,1.13
8999,-0.39
9010,-2.01
9021,-3.42
9033,-4.26
9045,-4.26
9057,-3.29
9069,-1.4
9081,1.21
9093,4.18
9105,7.08
9117,9.44
9129,10.91
9141,11.27
9153,10.57
9165,9.07
9177,7.2
9189,5.4
9200,3.99
9211,3.06
9223,2.53
9235,2.17
9247,1.74
9259,1.09
9271,0.2
9283,-0.86
9295,-1.95
9307,-2.98
9319,-3.93
9331,-4.88
9343,-5.91
9355,-7.09
9367,-8.42
9379,-9.81
9390,-11.09
9401,-11.99
9413,-12.29
9425,-11.81
9437,-10.48
9449,-8.39
9461,-5.78
9473,-2.98
9485,-0.32
9497,1.89
9509,3.5
9521,4.47
9533,4.9
9545,4.87
9557,4.5
9569,3.9
9580,3.19
9591,2.48
9603,1.92
9615,1.63
9627,1.64
9639,1.91
9651,2.3
9663,2.66
9675,2.89
9687,2.98
9699,2.95
9711,2.83
9723,2.57
9735,2.05
9747,1.13
9759,-0.19
9770,-1.78
9781,-3.28
9793,-4.24
9805,-4.31
9817,-3.33
9829,-1.43
9841,1.06
9853,3.73
9865,6.21
9877,8.27
9889,9.74
9901,10.55
9913,10.63
9925,9.99
9937,8.77
9949,7.23
9960,5.73
9971,4.54
9983,3.8
9995,3.41
10007,3.18
10019,2.93
10031,2.53
10043,2.01
10055,1.4
10067,0.72
10079,-0.06
10091,-1.0
10103,-2.11
10115,-3.36
10127,-4.64
10139,-5.84
10150,-6.85
10161,-7.54
10173,-7.8
10185,-7.49
10197,-6.52
10209,-4.91
10221,-2.82
10233,-0.54
10245,1.54
10257,3.07
10269,3.85
10281,3.86
10293,3.34
10305,2.57
10317,1.82
10329,1.19
10340,0.59
10351,-0.07
10363,-0.85
10375,-1.64
10387,-2.24
10399,-2.49
10411,-2.4
10423,-2.17
10435,-2.05
10447,-2.26
10459,-2.88
10471,-3.84
10483,-5.06
10495,-6.44
10507,-7.87
10519,-9.15
10530,-9.96
10541,-9.91
10553,-8.73
10565,-6.39
10577,-3.19
10589,0.34
10601,3.57
10613,6.01
10625,7.42
10637,7.84
10649,7.53
10661,6.84
10673,6.08
10685,5.47
10697,5.03
10709,4.71
10720,4.37
10731,3.92
10743,3.37
10755,2.77
10767,2.24
10779,1.81
10791,1.48
10803,1.13
10815,0.67
10827,0.04
10839,-0.72
10851,-1.56
10863,-2.45
10875,-3.37
10887,-4.33
10899,-5.28
10910,-6.0
10921,-6.23
10933,-5.69
10945,-4.31
10957,-2.27
10969,0.07
10981,2.23
10993,3.88
11005,4.84
11017,5.14
11029,4.95
11041,4.44
11053,3.79
11065,3.14
11077,2.61
11089,2.26
11100,2.07
11111,1.95
11123,1.79
11135,1.5
11147,1.1
11159,0.63
11171,0.18
11183,-0.23
11195,-0.68
11207,-1.23
11219,-1.98
11231,-2.94
11243,-4.02
11255,-5.1
11267,-5.96
11279,-6.38
11290,-6.18
11301,-5.26
11313,-3.65
11325,-1.57
11337,0.68
11349,2.72
11361,4.28
11373,5.16
11385,5.34
11397,4.89
11409,3.99
11421,2.89
11433,1.81
11445,0.95
11457,0.38
11469,0.03
11480,-0.21
11491,-0.5
11503,-0.87
11515,-1.27
11527,-1.58
11539,-1.74
11551,-1.79
11563,-1.87
11575,-2.17
11587,-2.79
11599,-3.73
11611,-4.83
11623,-5.85
11635,-6.52
11647,-6.67
11659,-6.21
11670,-5.2
11681,-3.78
11693,-2.16
11705,-0.52
11717,0.97
11729,2.21
11741,3.15
11753,3.73
11765,3.92
11777,3.69
11789,3.12
11801,2.31
11813,1.43
11825,0.64
11837,0.02
11849,-0.44
11860,-0.84
11871,-1.27
11883,-1.77
11895,-2.32
11907,-2.81
11919,-3.16
11931,-3.37
11943,-3.54
11955,-3.8
11967,-4.29
11979,-5.03
11991,-5.93
12003,-6.74
12015,-7.18
12027,-7.01
12039,-6.1
12050,-4.46
12061,-2.28
12073,0.15
12085,2.52
12097,4.52
12109,5.96
12121,6.78
12133,7.05
12145,6.96
12157,6.67
12169,6.32
12181,5.93
12193,5.51
12205,5.04
12217,4.58
12229,4.18
12240,3.89
12251,3.68
12263,3.45
12275,3.04
12287,2.35
12299,1.36
12311,0.15
12323,-1.15
12335,-2.4
12347,-3.55
12359,-4.51
12371,-5.18
12383,-5.43
12395,-5.1
12407,-4.12
12419,-2.55
12430,-0.63
12441,1.3
12453,2.92
12465,4.01
12477,4.52
12489,4.53
12501,4.17
12513,3.58
12525,2.81
12537,1.89
12549,0.91
12561,-0.06
12573,-0.88
12585,-1.44
12597,-1.74
12609,-1.83
12620,-1.83
12631,-1.84
12643,-1.94
12655,-2.15
12667,-2.46
12679,-2.93
12691,-3.68
12703,-4.82
12715,-6.32
12727,-8.0
12739,-9.43
12751,-10.09
12763,-9.56
12775,-7.73
12787,-4.83
12799,-1.42
12810,1.86
12821,4.5
12833,6.23
12845,7.03
12857,7.05
12869,6.5
12881,5.59
12893,4.57
12905,3.67
12917,3.06
12929,2.84
12941,2.9
12953,3.1
12965,3.26
12977,3.32
12989,3.32
13000,3.35
13011,3.42
13023,3.42
13035,3.16
13047,2.48
13059,1.32
13071,-0.23
13083,-1.97
13095,-3.62
13107,-4.89
13119,-5.52
13131,-5.27
13143,-4.08
13155,-2.09
13167,0.35
13179,2.72
13190,4.56
13201,5.59
13213,5.81
13225,5.46
13237,4.91
13249,4.45
13261,4.23
13273,4.23
13285,4.32
13297,4.32
13309,4.09
13321,3.58
13333,2.87
13345,2.13
13357,1.51
13369,1.14
13380,0.94
13391,0.76
13403,0.4
13415,-0.27
13427,-1.27
13439,-2.53
13451,-3.91
13463,-5.25
13475,-6.4
13487,-7.18
13499,-7.37
13511,-6.76
13523,-5.3
13535,-3.11
13547,-0.53
13559,2.0
13570,4.05
13581,5.4
13593,6.0
13605,5.99
13617,5.59
13629,5.03
13641,4.44
13653,3.89
13665,3.44
13677,3.07
13689,2.78
13701,2.53
13713,2.29
13725,2.07
13737,1.89
13749,1.79
13760,1.82
13771,1.94
13783,2.09
13795,2.13
13807,1.94
13819,1.43
13831,0.57
13843,-0.56
13855,-1.79
13867,-2.9
13879,-3.59
13891,-3.62
13903,-2.85
13915,-1.29
13927,0.83
13939,3.15
13950,5.24
13961,6.76
13973,7.51
13985,7.49
13997,6.86
14009,5.88
14021,4.8
14033,3.86
14045,3.15
14057,2.68
14069,2.36
14081,2.07
14093,1.73
14105,1.36
14117,1.04
14129,0.82
14140,0.67
14151,0.47
14163,0.09
14175,-0.53
14187,-1.35
14199,-2.24
14211,-3.13
14223,-4.02
14235,-4.94
14247,-5.88
14259,-6.66
14271,-7.0
14283,-6.59
14295,-5.33
14307,-3.39
14319,-1.16
14330,0.9
14341,2.45
14353,3.33
14365,3.58
14377,3.37
14389,2.88
14401,2.25
14413,1.62
14425,1.09
14437,0.7
14449,0.45
14461,0.3
14473,0.16
14485,0.02
14497,-0.13
14509,-0.25
14520,-0.31
14531,-0.35
14543,-0.48
14555,-0.82
14567,-1.48
14579,-2.49
14591,-3.72
14603,-4.97
14615,-5.94
14627,-6.35
14639,-6.03
14651,-4.97
14663,-3.29
14675,-1.23
14687,0.9
14699,2.82
14710,4.29
14721,5.21
14733,5.57
14745,5.49
14757,5.14
14769,4.68
14781,4.2
14793,3.7
14805,3.15
14817,2.53
14829,1.87
14841,1.25
14853,0.74
14865,0.37
14877,0.06
14889,-0.31
14900,-0.83
14911,-1.52
14923,-2.27
14935,-2.99
14947,-3.66
14959,-4.35
14971,-5.12
14983,-5.95
14995,-6.6
15007,-6.74
15019,-6.08
15031,-4.56
15043,-2.42
15055,-0.08
15067,2.02
15079,3.56
15090,4.51
15101,4.93
15113,4.99
15125,4.75
15137,4.29
15149,3.67
15161,3.01
15173,2.44
15185,2.06
15197,1.85
15209,1.71
15221,1.53
15233,1.26
15245,0.91
15257,0.58
15269,0.38
15280,0.3
15291,0.27
15303,0.18
15315,-0.1
15327,-0.65
15339,-1.47
15351,-2.47
15363,-3.49
15375,-4.3
15387,-4.68
15399,-4.41
15411,-3.41
15423,-1.75
15435,0.33
15447,2.51
15459,4.43
15470,5.84
15481,6.63
15493,6.83
15505,6.57
15517,6.0
15529,5.27
15541,4.48
15553,3.75
15565,3.15
15577,2.73
15589,2.48
15601,2.33
15613,2.15
15625,1.83
15637,1.3
15649,0.62
15660,-0.12
15671,-0.76
15683,-1.21
15695,-1.44
15707,-1.55
15719,-1.7
15731,-2.05
15743,-2.7
15755,-3.56
15767,-4.39
15779,-4.85
15791,-4.66
15803,-3.7
15815,-2.09
15827,-0.14
15839,1.8
15850,3.45
15861,4.64
15873,5.33
15885,5.54
15897,5.31
15909,4.69
15921,3.77
15933,2.7
15945,1.68
15957,0.87
15969,0.38
15981,0.16
15993,0.11
16005,0.07
16017,-0.1
16029,-0.41
16040,-0.81
16051,-1.2
16063,-1.5
16075,-1.72
16087,-1.96
16099,-2.35
16111,-2.95
16123,-3.74
16135,-4.56
16147,-5.15
16159,-5.28
16171,-4.86
16183,-3.86
16195,-2.44
16207,-0.81
16219,0.79
16230,2.17
16241,3.18
16253,3.78
16265,3.97
16277,3.81
16289,3.4
16301,2.85
16313,2.29
16325,1.81
16337,1.52
16349,1.41
16361,1.44
16373,1.47
16385,1.38
16397,1.08
16409,0.58
16420,-0.01
16431,-0.57
16443,-1.0
16455,-1.29
16467,-1.51
16479,-1.75
16491,-2.09
16503,-2.58
16515,-3.2
16527,-3.84
16539,-4.31
16551,-4.4
16563,-3.92
16575,-2.81
16587,-1.19
16599,0.68
16610,2.43
16621,3.77
16633,4.55
16645,4.77
16657,4.58
16669,4.19
16681,3.79
16693,3.49
16705,3.27
16717,3.08
16729,2.77
16741,2.29
16753,1.66
16765,1.01
16777,0.49
16789,0.23
16800,0.21
16811,0.32
16823,0.41
16835,0.34
16847,0.09
16859,-0.31
16871,-0.76
16883,-1.24
16895,-1.74
16907,-2.28
16919,-2.8
16931,-3.19
16943,-3.27
16955,-2.91
16967,-2.08
16979,-0.89
16990,0.44
17001,1.64
17013,2.48
17025,2.82
17037,2.68
17049,2.2
17061,1.57
17073,0.95
17085,0.4
17097,-0.07
17109,-0.47
17121,-0.81
17133,-1.07
17145,-1.25
17157,-1.41
17169,-1.63
17180,-1.99
17191,-2.52
17203,-3.12
17215,-3.59
17227,-3.8
17239,-3.66
17251,-3.31
17263,-2.99
17275,-2.92
17287,-3.21
17299,-3.78
17311,-4.39
17323,-4.74
17335,-4.62
17347,-3.97
17359,-2.94
17370,-1.74
17381,-0.59
17393,0.39
17405,1.17
17417,1.76
17429,2.18
17441,2.36
17453,2.29
17465,1.94
17477,1.41
17489,0.84
17501,0.37
17513,0.05
17525,-0.13
17537,-0.26
17549,-0.42
17560,-0.61
17571,-0.78
17583,-0.89
17595,-0.89
17607,-0.85
17619,-0.85
17631,-0.99
17643,-1.33
17655,-1.88
17667,-2.55
17679,-3.2
17691,-3.66
17703,-3.78
17715,-3.48
17727,-2.81
17739,-1.86
17750,-0.8
17761,0.23
17773,1.15
17785,1.87
17797,2.3
17809,2.38
17821,2.04
17833,1.37
17845,0.57
17857,-0.14
17869,-0.56
17881,-0.65
17893,-0.53
17905,-0.4
17917,-0.4
17929,-0.58
17940,-0.88
17951,-1.2
17963,-1.48
17975,-1.74
17987,-2.02
17999,-2.37
18011,-2.79
18023,-3.24
18035,-3.66
18047,-3.97
18059,-4.1
18071,-4.01
18083,-3.67
18095,-3.08
18107,-2.28
18119,-1.35
18130,-0.43
18141,0.35
18153,0.85
18165,0.98
18177,0.73
18189,0.19
18201,-0.55
18213,-1.33
18225,-2.03
18237,-2.55
18249,-2.85
18261,-2.92
18273,-2.74
18285,-2.36
18297,-1.84
18309,-1.31
18320,-0.94
18331,-0.87
18343,-1.15
18355,-1.74
18367,-2.53
18379,-3.37
18391,-4.14
18403,-4.76
18415,-5.24
18427,-5.56
18439,-5.71
18451,-5.62
18463,-5.21
18475,-4.46
18487,-3.41
18499,-2.19
18510,-0.98
18521,0.04
18533,0.75
18545,1.11
18557,1.13
18569,0.9
18581,0.53
18593,0.13
18605,-0.21
18617,-0.47
18629,-0.65
18641,-0.78
18653,-0.88
18665,-0.98
18677,-1.06
18689,-1.15
18700,-1.28
18711,-1.47
18723,-1.75
18735,-2.12
18747,-2.55
18759,-2.98
18771,-3.37
18783,-3.66
18795,-3.82
18807,-3.79
18819,-3.53
18831,-3.02
18843,-2.29
18855,-1.38
18867,-0.41
18879,0.54
18890,1.31
18901,1.81
18913,1.92
18925,1.64
18937,1.03
18949,0.23
18961,-0.56
18973,-1.21
18985,-1.65
18997,-1.89
19009,-2.0
19021,-2.04
19033,-2.04
19045,-2.02
19057,-2.02
19069,-2.11
19080,-2.38
19091,-2.87
19103,-3.55
19115,-4.32
19127,-5.04
19139,-5.62
19151,-5.95
19163,-6.01
19175,-5.73
19187,-5.04
19199,-3.92
19211,-2.43
19223,-0.7
19235,1.02
19247,2.47
19259,3.45
19270,3.87
19281,3.76
19293,3.28
19305,2.63
19317,1.96
19329,1.36
19341,0.84
19353,0.36
19365,-0.13
19377,-0.64
19389,-1.14
19401,-1.54
19413,-1.82
19425,-2.0
19437,-2.16
19449,-2.4
19460,-2.81
19471,-3.41
19483,-4.2
19495,-5.11
19507,-6.04
19519,-6.85
19531,-7.32
19543,-7.24
19555,-6.44
19567,-4.95
19579,-2.98
19591,-0.87
19603,0.99
19615,2.37
19627,3.21
19639,3.63
19650,3.78
19661,3.78
19673,3.64
19685,3.34
19697,2.87
19709,2.31
19721,1.79
19733,1.42
19745,1.24
19757,1.24
19769,1.31
19781,1.36
19793,1.29
19805,1.06
19817,0.64
19829,0.06
19840,-0.63
19851,-1.36
19863,-2.07
19875,-2.71
19887,-3.25
19899,-3.65
19911,-3.83
19923,-3.7
19935,-3.15
19947,-2.15
19959,-0.75
19971,0.88
19983,2.5
19995,3.85
20007,4.74
20019,5.09
20030,4.98
20041,4.56
20053,4.02
20065,3.54
20077,3.2
20089,2.99
20101,2.88
20113,2.82
20125,2.81
20137,2.89
20149,3.07
20161,3.3
20173,3.48
20185,3.48
20197,3.18
20209,2.54
20220,1.63
20231,0.53
20243,-0.63
20255,-1.79
20267,-2.88
20279,-3.82
20291,-4.51
20303,-4.81
20315,-4.58
20327,-3.78
20339,-2.46
20351,-0.8
20363,0.96
20375,2.6
20387,3.96
20399,4.93
20410,5.5
20421,5.66
20433,5.47
20445,5.02
20457,4.49
20469,4.04
20481,3.85
20493,4.0
20505,4.43
20517,4.93
20529,5.24
20541,5.1
20553,4.38
20565,3.16
20577,1.7
20589,0.36
20600,-0.54
20611,-0.83
20623,-0.56
20635,-0.04
20647,0.36
20659,0.28
20671,-0.44
20683,-1.74
20695,-3.34
20707,-4.83
20719,-5.83
20731,-6.11
20743,-5.62
20755,-4.48
20767,-2.89
20779,-1.07
20790,0.79
20801,2.55
20813,4.06
20825,5.19
20837,5.81
20849,5.9
20861,5.5
20873,4.82
20885,4.09
20897,3.55
20909,3.32
20921,3.44
20933,3.8
20945,4.27
20957,4.67
20969,4.86
20980,4.77
20991,4.4
