seconds,BVP
2,69.28
14,30.04
26,-11.35
38,-52.4
49,-91.1
60,-125.48
72,-153.44
84,-173.31
96,-184.58
108,-188.29
120,-186.9
132,-183.26
144,-179.61
156,-176.78
168,-174.23
180,-170.67
192,-165.0
204,-157.09
216,-147.74
228,-138.27
239,-129.7
250,-122.13
262,-114.72
274,-106.05
286,-94.84
298,-80.44
310,-63.0
322,-43.21
334,-21.91
346,0.24
358,22.8
370,45.37
382,67.34
394,87.84
406,105.91
418,120.84
429,132.41
440,140.94
452,147.06
464,151.39
476,154.2
488,155.34
500,154.3
512,150.39
524,142.87
536,130.95
548,113.92
560,91.34
572,63.37
584,31.17
596,-3.07
608,-36.45
619,-66.07
630,-89.9
642,-107.25
654,-118.81
666,-126.2
678,-131.21
690,-135.28
702,-139.12
714,-142.71
726,-145.56
738,-146.9
750,-146.0
762,-142.28
774,-135.46
786,-125.52
798,-112.67
809,-97.19
820,-79.34
832,-59.44
844,-37.95
856,-15.69
868,6.1
880,25.9
892,42.34
904,54.66
916,62.9
928,67.91
940,70.94
952,73.16
964,75.29
976,77.49
988,79.51
999,81.02
1010,81.69
1022,81.3
1034,79.64
1046,76.51
1058,71.8
1070,65.62
1082,58.39
1094,50.72
1106,43.26
1118,36.43
1130,30.31
1142,24.76
1154,19.57
1166,14.62
1178,9.94
1189,5.59
1200,1.5
1212,-2.54
1224,-6.76
1236,-11.18
1248,-15.45
1260,-18.84
1272,-20.52
1284,-19.88
1296,-16.76
1308,-11.43
1320,-4.39
1332,3.84
1344,12.88
1356,22.38
1368,31.87
1379,40.64
1390,47.88
1402,52.95
1414,55.6
1426,56.14
1438,55.24
1450,53.63
1462,51.81
1474,49.93
1486,47.88
1498,45.51
1510,42.87
1522,40.42
1534,39.07
1546,40.11
1558,45.05
1569,55.19
1580,71.21
1592,92.7
1604,118.07
1616,144.79
1628,170.01
1640,191.34
1652,207.38
1664,217.77
1676,222.91
1688,223.44
1700,219.88
1712,212.64
1724,202.23
1736,189.47
1748,175.41
1759,161.03
1770,146.79
1782,132.41
1794,117.05
1806,99.75
1818,80.05
1830,58.31
1842,35.78
1854,14.27
1866,-4.33
1878,-18.54
1890,-27.77
1902,-32.44
1914,-33.97
1926,-34.45
1938,-36.06
1949,-40.63
1960,-49.12
1972,-61.45
1984,-76.57
1996,-92.63
2008,-107.44
2020,-118.94
2032,-125.72
2044,-127.51
2056,-125.27
2068,-120.98
2080,-116.85
2092,-114.55
2104,-114.4
2116,-115.26
2128,-114.95
2139,-111.11
2150,-102.32
2162,-88.76
2174,-72.4
2186,-56.51
2198,-44.7
2210,-39.76
2222,-42.64
2234,-51.8
2246,-63.27
2258,-71.69
2270,-72.02
2282,-61.56
2294,-41.17
2306,-15.27
2318,9.63
2329,27.1
2340,32.81
2352,25.52
2364,6.79
2376,-20.18
2388,-51.83
2400,-85.13
2412,-117.59
2424,-147.07
2436,-171.51
2448,-189.23
2460,-199.4
2472,-202.55
2484,-200.65
2496,-196.59
2508,-193.28
2519,-192.61
2530,-194.84
2542,-198.51
2554,-200.95
2566,-199.25
2578,-191.15
2590,-175.54
2602,-152.52
2614,-123.09
2626,-88.85
2638,-51.89
2650,-14.68
2662,20.1
2674,49.97
2686,73.18
2698,89.16
2709,98.58
2720,103.0
2732,104.22
2744,103.68
2756,102.36
2768,100.88
2780,99.96
2792,100.61
2804,103.96
2816,110.74
2828,120.81
2840,132.96
2852,145.36
2864,156.12
2876,163.81
2888,167.67
2899,167.55
2910,163.65
2922,156.4
2934,146.42
2946,134.59
2958,121.95
2970,109.31
2982,96.85
2994,83.78
3006,68.51
3018,49.28
3030,25.09
3042,-3.67
3054,-35.08
3066,-66.23
3078,-94.22
3089,-117.02
3100,-133.95
3112,-145.53
3124,-152.84
3136,-156.92
3148,-158.4
3160,-157.57
3172,-154.82
3184,-150.89
3196,-146.87
3208,-143.79
3220,-142.11
3232,-141.38
3244,-140.39
3256,-137.61
3268,-131.86
3279,-122.76
3290,-110.8
3302,-97.04
3314,-82.75
3326,-69.06
3338,-56.9
3350,-47.02
3362,-40.03
3374,-36.35
3386,-36.05
3398,-38.69
3410,-43.25
3422,-48.16
3434,-51.59
3446,-51.7
3458,-47.0
3469,-36.62
3480,-20.49
3492,0.6
3504,25.19
3516,51.53
3528,77.94
3540,102.99
3552,125.64
3564,145.14
3576,161.01
3588,173.05
3600,181.31
3612,186.11
3624,187.86
3636,186.86
3648,183.17
3659,176.7
3670,167.31
3682,155.12
3694,140.54
3706,124.31
3718,107.24
3730,90.07
3742,73.27
3754,57.18
3766,41.98
3778,27.81
3790,14.77
3802,2.9
3814,-7.9
3826,-17.93
3838,-27.55
3849,-36.97
3860,-46.06
3872,-54.24
3884,-60.55
3896,-64.01
3908,-63.96
3920,-60.34
3932,-53.78
3944,-45.37
3956,-36.43
3968,-28.19
3980,-21.6
3992,-17.12
4004,-14.73
4016,-13.97
4028,-13.96
4039,-13.69
4050,-12.3
4062,-9.37
4074,-5.0
4086,0.18
4098,5.34
4110,9.8
4122,13.23
4134,15.75
4146,17.75
4158,19.69
4170,21.79
4182,23.96
4194,25.71
4206,26.21
4218,24.54
4229,19.78
4240,11.44
4252,-0.44
4264,-14.96
4276,-30.44
4288,-44.68
4300,-55.44
4312,-61.06
4324,-60.95
4336,-55.72
4348,-46.9
4360,-36.38
4372,-25.83
4384,-16.36
4396,-8.52
4408,-2.49
4419,1.57
4430,3.44
4442,2.91
4454,0.04
4466,-4.66
4478,-10.22
4490,-15.5
4502,-19.51
4514,-21.71
4526,-22.11
4538,-21.05
4550,-18.91
4562,-15.86
4574,-11.76
4586,-6.43
4598,0.21
4609,7.84
4620,15.82
4632,23.37
4644,29.86
4656,35.05
4668,39.04
4680,42.21
4692,44.97
4704,47.62
4716,50.23
4728,52.71
4740,54.89
4752,56.54
4764,57.49
4776,57.62
4788,56.87
4799,55.11
4810,52.15
4822,47.54
4834,40.76
4846,31.39
4858,19.48
4870,5.77
4882,-8.26
4894,-20.79
4906,-30.21
4918,-35.72
4930,-37.58
4942,-37.01
4954,-35.69
4966,-35.13
4978,-36.19
4989,-38.89
5000,-42.54
5012,-46.08
5024,-48.53
5036,-49.15
5048,-47.69
5060,-44.33
5072,-39.6
5084,-34.3
5096,-29.24
5108,-25.04
5120,-21.9
5132,-19.53
5144,-17.15
5156,-13.86
5168,-8.94
5179,-2.12
5190,6.24
5202,15.36
5214,24.23
5226,31.86
5238,37.48
5250,40.56
5262,40.86
5274,38.35
5286,33.32
5298,26.35
5310,18.32
5322,10.23
5334,3.06
5346,-2.44
5358,-5.87
5369,-7.23
5380,-6.81
5392,-4.97
5404,-2.06
5416,1.8
5428,6.55
5440,12.18
5452,18.51
5464,25.15
5476,31.56
5488,37.18
5500,41.54
5512,44.29
5524,45.2
5536,44.13
5548,41.06
5559,36.21
5570,30.06
5582,23.36
5594,16.97
5606,11.65
5618,7.87
5630,5.85
5642,5.52
5654,6.68
5666,8.96
5678,11.9
5690,14.92
5702,17.36
5714,18.62
5726,18.3
5738,16.39
5749,13.23
5760,9.45
5772,5.8
5784,2.92
5796,1.24
5808,0.84
5820,1.53
5832,2.93
5844,4.6
5856,6.14
5868,7.29
5880,7.85
5892,7.69
5904,6.72
5916,4.89
5928,2.21
5939,-1.21
5950,-5.25
5962,-9.72
5974,-14.49
5986,-19.39
5998,-24.26
6010,-28.79
6022,-32.55
6034,-34.96
6046,-35.51
6058,-33.84
6070,-29.97
6082,-24.2
6094,-17.14
6106,-9.53
6118,-2.09
6129,4.5
6140,9.71
6152,13.16
6164,14.65
6176,14.23
6188,12.26
6200,9.33
6212,6.23
6224,3.66
6236,2.09
6248,1.6
6260,1.87
6272,2.39
6284,2.65
6296,2.33
6308,1.45
6319,0.25
6330,-0.94
6342,-1.87
6354,-2.47
6366,-2.92
6378,-3.48
6390,-4.49
6402,-6.17
6414,-8.63
6426,-11.78
6438,-15.33
6450,-18.78
6462,-21.47
6474,-22.77
6486,-22.2
6498,-19.62
6509,-15.25
6520,-9.67
6532,-3.64
6544,2.1
6556,6.97
6568,10.62
6580,12.91
6592,13.87
6604,13.59
6616,12.28
6628,10.22
6640,7.8
6652,5.43
6664,3.47
6676,2.15
6688,1.53
6699,1.51
6710,1.85
6722,2.3
6734,2.59
6746,2.56
6758,2.18
6770,1.52
6782,0.71
6794,-0.17
6806,-1.14
6818,-2.4
6830,-4.18
6842,-6.7
6854,-9.99
6866,-13.78
6878,-17.59
6889,-20.78
6900,-22.77
6912,-23.11
6924,-21.61
6936,-18.36
6948,-13.67
6960,-8.08
6972,-2.23
6984,3.26
6996,7.83
7008,11.14
7020,13.01
7032,13.45
7044,12.63
7056,10.8
7068,8.31
7079,5.53
7090,2.86
7102,0.64
7114,-0.88
7126,-1.59
7138,-1.54
7150,-0.91
7162,0.0
7174,0.93
7186,1.67
7198,2.1
7210,2.2
7222,1.94
7234,1.27
7246,0.17
7258,-1.41
7269,-3.43
7280,-5.78
7292,-8.31
7304,-10.89
7316,-13.34
7328,-15.46
7340,-16.95
7352,-17.44
7364,-16.59
7376,-14.2
7388,-10.38
7400,-5.5
7412,-0.15
7424,5.04
7436,9.56
7448,13.08
7459,15.39
7470,16.38
7482,16.03
7494,14.43
7506,11.87
7518,8.85
7530,6.01
7542,3.95
7554,3.05
7566,3.31
7578,4.35
7590,5.63
7602,6.64
7614,7.05
7626,6.78
7638,5.96
7649,4.78
7660,3.41
7672,1.95
7684,0.45
7696,-1.07
7708,-2.63
7720,-4.26
7732,-6.06
7744,-8.16
7756,-10.63
7768,-13.4
7780,-16.17
7792,-18.44
7804,-19.63
7816,-19.28
7828,-17.22
7839,-13.58
7850,-8.83
7862,-3.59
7874,1.51
7886,5.91
7898,9.22
7910,11.25
7922,11.96
7934,11.44
7946,9.95
7958,7.8
7970,5.35
7982,2.96
7994,0.91
8006,-0.58
8018,-1.36
8029,-1.38
8040,-0.65
8052,0.69
8064,2.41
8076,4.21
8088,5.79
8100,6.91
8112,7.44
8124,7.38
8136,6.83
8148,5.9
8160,4.7
8172,3.22
8184,1.42
8196,-0.78
8208,-3.39
8219,-6.33
8230,-9.4
8242,-12.25
8254,-14.49
8266,-15.73
8278,-15.67
8290,-14.17
8302,-11.27
8314,-7.22
8326,-2.44
8338,2.58
8350,7.3
8362,11.29
8374,14.22
8386,15.94
8398,16.48
8409,15.97
8420,14.66
8432,12.88
8444,10.99
8456,9.35
8468,8.24
8480,7.8
8492,8.02
8504,8.71
8516,9.61
8528,10.47
8540,11.06
8552,11.26
8564,11.01
8576,10.34
8588,9.29
8599,7.96
8610,6.4
8622,4.68
8634,2.86
8646,0.95
8658,-1.05
8670,-3.16
8682,-5.39
8694,-7.73
8706,-10.09
8718,-12.23
8730,-13.77
8742,-14.25
8754,-13.34
8766,-10.91
8778,-7.16
8789,-2.61
8800,2.07
8812,6.19
8824,9.27
8836,11.05
8848,11.56
8860,11.03
8872,9.77
8884,8.11
8896,6.29
8908,4.43
8920,2.63
8932,0.91
8944,-0.66
8956,-2.03
8968,-3.1
8979,-3.76
8990,-3.84
9002,-3.2
9014,-1.77
9026,0.34
9038,2.78
9050,4.99
9062,6.43
9074,6.76
9086,5.96
9098,4.34
9110,2.3
9122,0.13
9134,-2.09
9146,-4.49
9158,-7.11
9169,-9.82
9180,-12.21
9192,-13.68
9204,-13.76
9216,-12.19
9228,-9.09
9240,-4.87
9252,-0.12
9264,4.61
9276,8.84
9288,12.26
9300,14.74
9312,16.21
9324,16.69
9336,16.25
9348,15.0
9359,13.12
9370,10.97
9382,8.97
9394,7.56
9406,7.04
9418,7.39
9430,8.33
9442,9.42
9454,10.24
9466,10.55
9478,10.39
9490,9.94
9502,9.35
9514,8.66
9526,7.74
9538,6.37
9549,4.37
9560,1.74
9572,-1.39
9584,-4.73
9596,-7.96
9608,-10.8
9620,-13.02
9632,-14.42
9644,-14.87
9656,-14.27
9668,-12.61
9680,-10.02
9692,-6.75
9704,-3.14
9716,0.45
9728,3.71
9739,6.41
9750,8.42
9762,9.66
9774,10.09
9786,9.76
9798,8.83
9810,7.66
9822,6.72
9834,6.44
9846,7.1
9858,8.63
9870,10.73
9882,12.96
9894,14.99
9906,16.7
9918,18.21
9929,19.7
9940,21.3
9952,22.98
9964,24.52
9976,25.67
9988,26.19
10000,25.95
10012,24.97
10024,23.42
10036,21.68
10048,20.36
10060,20.23
10072,21.99
10084,26.02
10096,32.21
10108,39.83
10119,47.71
10130,54.53
10142,59.16
10154,60.91
10166,59.57
10178,55.23
10190,48.15
10202,38.51
10214,26.51
10226,12.42
10238,-3.27
10250,-19.81
10262,-36.28
10274,-51.79
10286,-65.67
10298,-77.58
10309,-87.42
10320,-95.24
10332,-101.03
10344,-104.73
10356,-106.27
10368,-105.72
10380,-103.39
10392,-99.73
10404,-95.31
10416,-90.56
10428,-85.77
10440,-80.98
10452,-76.2
10464,-71.46
10476,-66.88
10488,-62.62
10499,-58.76
10510,-55.21
10522,-51.64
10534,-47.68
10546,-43.0
10558,-37.47
10570,-31.16
10582,-24.3
10594,-17.22
10606,-10.28
10618,-3.88
10630,1.61
10642,5.83
10654,8.61
10666,10.02
10678,10.36
10689,10.08
10700,9.62
10712,9.26
10724,9.1
10736,9.12
10748,9.27
10760,9.5
10772,9.75
10784,9.98
10796,10.1
10808,10.03
10820,9.79
10832,9.46
10844,9.11
10856,8.72
10868,8.13
10879,7.12
10890,5.49
10902,3.23
10914,0.52
10926,-2.27
10938,-4.72
10950,-6.44
10962,-7.19
10974,-6.85
10986,-5.42
10998,-3.02
11010,0.17
11022,3.93
11034,7.98
11046,12.06
11058,15.87
11069,19.07
11080,21.34
11092,22.44
11104,22.33
11116,21.27
11128,19.71
11140,18.23
11152,17.21
11164,16.77
11176,16.78
11188,16.94
11200,16.96
11212,16.74
11224,16.29
11236,15.67
11248,14.9
11259,13.93
11270,12.7
11282,11.2
11294,9.48
11306,7.59
11318,5.52
11330,3.17
11342,0.42
11354,-2.78
11366,-6.28
11378,-9.69
11390,-12.51
11402,-14.21
11414,-14.42
11426,-13.04
11438,-10.21
11449,-6.26
11460,-1.6
11472,3.35
11484,8.19
11496,12.5
11508,15.94
11520,18.21
11532,19.22
11544,19.1
11556,18.17
11568,16.82
11580,15.45
11592,14.31
11604,13.52
11616,13.09
11628,13.03
11639,13.28
11650,13.72
11662,14.14
11674,14.28
11686,13.93
11698,13.01
11710,11.56
11722,9.74
11734,7.66
11746,5.33
11758,2.7
11770,-0.29
11782,-3.61
11794,-7.11
11806,-10.5
11818,-13.44
11829,-15.56
11840,-16.56
11852,-16.18
11864,-14.37
11876,-11.24
11888,-7.15
11900,-2.61
11912,1.77
11924,5.45
11936,8.04
11948,9.36
11960,9.46
11972,8.57
11984,6.99
11996,5.09
12008,3.23
12019,1.72
12030,0.8
12042,0.57
12054,1.0
12066,1.92
12078,3.03
12090,4.04
12102,4.7
12114,4.9
12126,4.64
12138,4.0
12150,3.03
12162,1.7
12174,-0.06
12186,-2.32
12198,-5.03
12209,-7.99
12220,-10.85
12232,-13.21
12244,-14.7
12256,-15.1
12268,-14.33
12280,-12.5
12292,-9.84
12304,-6.65
12316,-3.18
12328,0.38
12340,3.87
12352,7.1
12364,9.87
12376,11.93
12388,13.05
12399,13.1
12410,12.15
12422,10.49
12434,8.61
12446,7.05
12458,6.23
12470,6.28
12482,7.04
12494,8.09
12506,8.94
12518,9.18
12530,8.64
12542,7.34
12554,5.47
12566,3.19
12578,0.69
12589,-1.89
12600,-4.4
12612,-6.66
12624,-8.6
12636,-10.29
12648,-11.95
12660,-13.78
12672,-15.83
12684,-17.89
12696,-19.55
12708,-20.42
12720,-20.27
12732,-19.15
12744,-17.29
12756,-14.96
12768,-12.34
12779,-9.54
12790,-6.68
12802,-3.98
12814,-1.72
12826,-0.09
12838,0.93
12850,1.64
12862,2.47
12874,3.76
12886,5.65
12898,7.97
12910,10.36
12922,12.46
12934,14.0
12946,14.88
12958,15.08
12969,14.65
12980,13.58
12992,11.83
13004,9.41
13016,6.41
13028,2.99
13040,-0.62
13052,-4.21
13064,-7.57
13076,-10.51
13088,-12.77
13100,-14.05
13112,-14.07
13124,-12.69
13136,-10.01
13148,-6.37
13159,-2.26
13170,1.83
13182,5.52
13194,8.55
13206,10.8
13218,12.17
13230,12.62
13242,12.15
13254,10.9
13266,9.18
13278,7.41
13290,6.02
13302,5.32
13314,5.46
13326,6.32
13338,7.63
13349,9.02
13360,10.16
13372,10.85
13384,11.01
13396,10.74
13408,10.16
13420,9.36
13432,8.39
13444,7.22
13456,5.79
13468,4.03
13480,1.95
13492,-0.39
13504,-2.78
13516,-4.91
13528,-6.45
13539,-7.05
13550,-6.57
13562,-4.97
13574,-2.43
13586,0.73
13598,4.17
13610,7.52
13622,10.38
13634,12.44
13646,13.45
13658,13.32
13670,12.14
13682,10.21
13694,7.91
13706,5.65
13718,3.73
13729,2.35
13740,1.57
13752,1.34
13764,1.53
13776,1.93
13788,2.35
13800,2.55
13812,2.4
13824,1.84
13836,0.93
13848,-0.23
13860,-1.47
13872,-2.71
13884,-3.97
13896,-5.32
13908,-6.87
13919,-8.64
13930,-10.54
13942,-12.31
13954,-13.61
13966,-14.07
13978,-13.45
13990,-11.58
14002,-8.53
14014,-4.55
14026,-0.02
14038,4.5
14050,8.48
14062,11.46
14074,13.16
14086,13.56
14098,12.83
14109,11.29
14120,9.29
14132,7.17
14144,5.21
14156,3.65
14168,2.62
14180,2.18
14192,2.25
14204,2.66
14216,3.16
14228,3.52
14240,3.59
14252,3.33
14264,2.78
14276,2.01
14288,1.07
14299,-0.05
14310,-1.38
14322,-2.97
14334,-4.86
14346,-7.07
14358,-9.53
14370,-12.03
14382,-14.22
14394,-15.61
14406,-15.76
14418,-14.43
14430,-11.75
14442,-8.15
14454,-4.22
14466,-0.51
14478,2.63
14489,5.08
14500,6.77
14512,7.64
14524,7.57
14536,6.53
14548,4.64
14560,2.31
14572,0.05
14584,-1.66
14596,-2.57
14608,-2.75
14620,-2.49
14632,-2.12
14644,-1.89
14656,-1.88
14668,-2.06
14679,-2.32
14690,-2.62
14702,-2.98
14714,-3.48
14726,-4.25
14738,-5.4
14750,-6.97
14762,-8.94
14774,-11.17
14786,-13.43
14798,-15.46
14810,-16.93
14822,-17.56
14834,-17.09
14846,-15.43
14858,-12.66
14869,-9.02
14880,-4.95
14892,-0.93
14904,2.6
14916,5.33
14928,7.13
14940,8.03
14952,8.15
14964,7.64
14976,6.68
14988,5.49
15000,4.36
15012,3.58
15024,3.4
15036,3.87
15048,4.85
15059,6.0
15070,6.97
15082,7.52
15094,7.64
15106,7.49
15118,7.27
15130,7.05
15142,6.73
15154,6.08
15166,4.86
15178,2.96
15190,0.48
15202,-2.37
15214,-5.29
15226,-7.93
15238,-9.96
15249,-11.12
15260,-11.22
15272,-10.2
15284,-8.15
15296,-5.27
15308,-1.84
15320,1.81
15332,5.31
15344,8.33
15356,10.58
15368,11.84
15380,12.05
15392,11.34
15404,9.98
15416,8.32
15428,6.74
15439,5.51
15450,4.77
15462,4.51
15474,4.64
15486,4.98
15498,5.33
15510,5.52
15522,5.44
15534,5.07
15546,4.44
15558,3.61
15570,2.62
15582,1.47
15594,0.04
15606,-1.78
15618,-4.09
15629,-6.88
15640,-9.98
15652,-13.07
15664,-15.72
15676,-17.51
15688,-18.15
15700,-17.51
15712,-15.68
15724,-12.89
15736,-9.49
15748,-5.8
15760,-2.15
15772,1.19
15784,3.98
15796,6.02
15808,7.19
15819,7.5
15830,7.1
15842,6.21
15854,5.14
15866,4.12
15878,3.35
15890,2.92
15902,2.84
15914,3.04
15926,3.41
15938,3.76
15950,3.9
15962,3.72
15974,3.16
15986,2.3
15998,1.23
16009,0.07
16020,-1.14
16032,-2.39
16044,-3.71
16056,-5.16
16068,-6.77
16080,-8.57
16092,-10.53
16104,-12.49
16116,-14.15
16128,-15.12
16140,-15.07
16152,-13.81
16164,-11.37
16176,-8.0
16188,-4.07
16199,0.03
16210,3.89
16222,7.16
16234,9.48
16246,10.66
16258,10.63
16270,9.59
16282,7.94
16294,6.17
16306,4.69
16318,3.72
16330,3.25
16342,3.14
16354,3.19
16366,3.29
16378,3.36
16389,3.43
16400,3.51
16412,3.57
16424,3.55
16436,3.35
16448,2.88
16460,2.15
16472,1.18
16484,0.03
16496,-1.27
16508,-2.75
16520,-4.47
16532,-6.42
16544,-8.45
16556,-10.26
16568,-11.42
16579,-11.55
16590,-10.46
16602,-8.2
16614,-5.07
16626,-1.51
16638,2.06
16650,5.33
16662,8.11
16674,10.28
16686,11.74
16698,12.32
16710,11.93
16722,10.57
16734,8.46
16746,5.96
16758,3.56
16769,1.65
16780,0.43
16792,-0.09
16804,-0.09
16816,0.17
16828,0.48
16840,0.66
16852,0.61
16864,0.23
16876,-0.57
16888,-1.84
16900,-3.58
16912,-5.66
16924,-7.9
16936,-10.13
16948,-12.28
16959,-14.36
16970,-16.4
16982,-18.37
16994,-20.03
17006,-20.97
17018,-20.74
17030,-19.07
17042,-16.01
17054,-11.99
17066,-7.64
17078,-3.56
17090,-0.13
17102,2.47
17114,4.26
17126,5.26
17138,5.48
17149,4.92
17160,3.67
17172,1.99
17184,0.23
17196,-1.27
17208,-2.29
17220,-2.82
17232,-3.02
17244,-3.08
17256,-3.15
17268,-3.26
17280,-3.38
17292,-3.48
17304,-3.5
17316,-3.45
17328,-3.41
17339,-3.46
17350,-3.76
17362,-4.48
17374,-5.77
17386,-7.71
17398,-10.21
17410,-12.97
17422,-15.48
17434,-17.1
17446,-17.27
17458,-15.67
17470,-12.36
17482,-7.81
17494,-2.76
17506,2.08
17518,6.12
17529,9.14
17540,11.13
17552,12.24
17564,12.59
17576,12.26
17588,11.3
17600,9.85
17612,8.13
17624,6.5
17636,5.27
17648,4.64
17660,4.57
17672,4.85
17684,5.19
17696,5.31
17708,5.08
17719,4.52
17730,3.73
17742,2.83
17754,1.84
17766,0.7
17778,-0.75
17790,-2.63
17802,-4.98
17814,-7.72
17826,-10.65
17838,-13.51
17850,-15.97
17862,-17.74
17874,-18.51
17886,-18.07
17898,-16.34
17909,-13.36
17920,-9.36
17932,-4.7
17944,0.18
17956,4.79
17968,8.64
17980,11.37
17992,12.8
18004,13.02
18016,12.31
18028,11.11
18040,9.85
18052,8.86
18064,8.27
18076,8.08
18088,8.17
18099,8.43
18110,8.71
18122,8.89
18134,8.86
18146,8.51
18158,7.82
18170,6.82
18182,5.6
18194,4.22
18206,2.69
18218,0.87
18230,-1.42
18242,-4.28
18254,-7.63
18266,-11.17
18278,-14.41
18289,-16.77
18300,-17.82
18312,-17.33
18324,-15.37
18336,-12.21
18348,-8.25
18360,-3.89
18372,0.46
18384,4.46
18396,7.78
18408,10.13
18420,11.37
18432,11.51
18444,10.75
18456,9.42
18468,7.93
18479,6.64
18490,5.76
18502,5.34
18514,5.27
18526,5.39
18538,5.56
18550,5.71
18562,5.82
18574,5.86
18586,5.76
18598,5.4
18610,4.64
18622,3.41
18634,1.73
18646,-0.31
18658,-2.59
18669,-5.03
18680,-7.64
18692,-10.38
18704,-13.09
18716,-15.44
18728,-16.96
18740,-17.23
18752,-16.03
18764,-13.42
18776,-9.73
18788,-5.48
18800,-1.2
18812,2.71
18824,5.94
18836,8.35
18848,9.85
18859,10.39
18870,10.03
18882,8.91
18894,7.3
18906,5.58
18918,4.13
18930,3.26
18942,3.11
18954,3.61
18966,4.58
18978,5.71
18990,6.72
19002,7.4
19014,7.64
19026,7.43
19038,6.83
19049,5.91
19060,4.71
19072,3.2
19084,1.32
19096,-1.0
19108,-3.74
19120,-6.74
19132,-9.68
19144,-12.13
19156,-13.62
19168,-13.86
19180,-12.73
19192,-10.33
19204,-6.96
19216,-2.98
19228,1.23
19239,5.26
19250,8.75
19262,11.32
19274,12.66
19286,12.64
19298,11.36
19310,9.19
19322,6.71
19334,4.46
19346,2.86
19358,2.04
19370,1.87
19382,2.06
19394,2.34
19406,2.54
19418,2.61
19429,2.57
19440,2.45
19452,2.23
19464,1.79
19476,0.99
19488,-0.29
19500,-2.12
19512,-4.47
19524,-7.25
19536,-10.27
19548,-13.3
19560,-15.99
19572,-17.93
19584,-18.7
19596,-17.97
19608,-15.65
19619,-11.91
19630,-7.24
19642,-2.24
19654,2.5
19666,6.49
19678,9.42
19690,11.17
19702,11.72
19714,11.19
19726,9.8
19738,7.91
19750,5.91
19762,4.17
19774,2.97
19786,2.38
19798,2.32
19809,2.6
19820,2.99
19832,3.29
19844,3.36
19856,3.14
19868,2.63
19880,1.87
19892,0.87
19904,-0.36
19916,-1.86
19928,-3.7
19940,-5.94
19952,-8.53
19964,-11.36
19976,-14.12
19988,-16.41
19999,-17.75
20010,-17.73
20022,-16.14
20034,-13.06
20046,-8.86
20058,-4.08
20070,0.66
20082,4.91
20094,8.37
20106,10.94
20118,12.6
20130,13.33
20142,13.11
20154,12.05
20166,10.35
20178,8.47
20189,6.92
20200,6.11
20212,6.2
20224,7.0
20236,8.08
20248,8.94
20260,9.25
20272,8.97
20284,8.25
20296,7.36
20308,6.43
20320,5.42
20332,4.17
20344,2.46
20356,0.23
20368,-2.45
20379,-5.37
20390,-8.27
20402,-10.86
20414,-12.87
20426,-14.01
20438,-14.05
20450,-12.8
20462,-10.24
20474,-6.56
20486,-2.15
20498,2.49
20510,6.85
20522,10.5
20534,13.17
20546,14.67
20558,15.0
20569,14.3
20580,12.88
20592,11.12
20604,9.48
20616,8.28
20628,7.69
20640,7.66
20652,8.03
20664,8.57
20676,9.07
20688,9.38
20700,9.37
20712,8.98
20724,8.2
20736,7.05
20748,5.62
20759,3.95
20770,2.09
20782,-0.01
20794,-2.39
20806,-5.06
20818,-7.93
20830,-10.78
20842,-13.29
20854,-15.11
20866,-15.88
20878,-15.34
20890,-13.38
20902,-10.12
20914,-5.89
20926,-1.24
20938,3.25
20949,7.08
20960,9.98
20972,11.9
20984,12.95
20996,13.25
