seconds,BVP
6,22.09
17,24.52
28,26.06
40,26.91
52,27.28
64,27.41
76,27.43
88,27.37
100,27.18
112,26.73
124,25.95
136,24.91
148,23.78
160,22.79
172,22.1
184,21.68
196,21.36
207,20.95
218,20.27
230,19.31
242,18.13
254,16.81
266,15.4
278,13.81
290,11.93
302,9.64
314,6.93
326,3.87
338,0.64
350,-2.57
362,-5.61
374,-8.42
386,-11.0
397,-13.46
408,-15.89
420,-18.41
432,-21.17
444,-24.3
456,-27.9
468,-31.87
480,-35.8
492,-38.96
504,-40.47
516,-39.58
528,-35.95
540,-29.85
552,-22.02
564,-13.48
576,-5.17
587,2.23
598,8.39
610,13.22
622,16.84
634,19.46
646,21.31
658,22.62
670,23.54
682,24.14
694,24.34
706,24.07
718,23.3
730,22.15
742,20.85
754,19.6
766,18.51
777,17.57
788,16.66
800,15.72
812,14.77
824,13.89
836,13.16
848,12.52
860,11.79
872,10.77
884,9.33
896,7.48
908,5.3
920,2.88
932,0.31
944,-2.41
956,-5.25
967,-8.13
978,-10.9
990,-13.45
1002,-15.72
1014,-17.84
1026,-20.01
1038,-22.49
1050,-25.4
1062,-28.68
1074,-32.03
1086,-34.89
1098,-36.59
1110,-36.47
1122,-34.13
1134,-29.51
1146,-23.04
1157,-15.5
1168,-7.8
1180,-0.77
1192,5.15
1204,9.86
1216,13.55
1228,16.44
1240,18.64
1252,20.11
1264,20.79
1276,20.68
1288,20.0
1300,19.1
1312,18.32
1324,17.88
1336,17.75
1347,17.73
1358,17.61
1370,17.27
1382,16.74
1394,16.12
1406,15.57
1418,15.15
1430,14.81
1442,14.39
1454,13.69
1466,12.49
1478,10.66
1490,8.17
1502,5.15
1514,1.87
1526,-1.37
1537,-4.34
1548,-6.95
1560,-9.31
1572,-11.63
1584,-14.17
1596,-17.15
1608,-20.63
1620,-24.53
1632,-28.6
1644,-32.36
1656,-35.18
1668,-36.39
1680,-35.45
1692,-32.11
1704,-26.52
1716,-19.25
1727,-11.11
1738,-3.01
1750,4.33
1762,10.45
1774,15.19
1786,18.64
1798,20.99
1810,22.47
1822,23.27
1834,23.6
1846,23.64
1858,23.59
1870,23.6
1882,23.69
1894,23.72
1906,23.46
1917,22.75
1928,21.55
1940,20.05
1952,18.56
1964,17.34
1976,16.5
1988,15.9
2000,15.32
2012,14.51
2024,13.33
2036,11.76
2048,9.84
2060,7.63
2072,5.2
2084,2.64
2096,0.04
2107,-2.53
2118,-5.02
2130,-7.45
2142,-9.86
2154,-12.28
2166,-14.69
2178,-17.11
2190,-19.63
2202,-22.42
2214,-25.65
2226,-29.29
2238,-33.02
2250,-36.13
2262,-37.72
2274,-37.01
2286,-33.69
2297,-28.0
2308,-20.71
2320,-12.79
2332,-5.11
2344,1.75
2356,7.58
2368,12.41
2380,16.35
2392,19.52
2404,21.97
2416,23.8
2428,25.08
2440,25.93
2452,26.43
2464,26.64
2476,26.57
2487,26.22
2498,25.61
2510,24.82
2522,23.96
2534,23.18
2546,22.5
2558,21.9
2570,21.3
2582,20.61
2594,19.78
2606,18.82
2618,17.72
2630,16.4
2642,14.75
2654,12.64
2666,10.02
2677,6.99
2688,3.74
2700,0.5
2712,-2.55
2724,-5.33
2736,-7.85
2748,-10.1
2760,-12.1
2772,-13.87
2784,-15.55
2796,-17.38
2808,-19.63
2820,-22.45
2832,-25.69
2844,-28.84
2856,-31.09
2867,-31.65
2878,-29.89
2890,-25.63
2902,-19.2
2914,-11.28
2926,-2.77
2938,5.49
2950,12.83
2962,18.84
2974,23.39
2986,26.56
2998,28.56
3010,29.64
3022,30.03
3034,29.9
3046,29.33
3057,28.34
3068,26.93
3080,25.11
3092,22.94
3104,20.58
3116,18.23
3128,16.11
3140,14.36
3152,13.11
3164,12.34
3176,11.97
3188,11.78
3200,11.53
3212,10.96
3224,9.85
3236,8.15
3247,5.96
3258,3.51
3270,1.08
3282,-1.16
3294,-3.16
3306,-5.09
3318,-7.17
3330,-9.57
3342,-12.3
3354,-15.2
3366,-18.0
3378,-20.47
3390,-22.48
3402,-24.08
3414,-25.45
3426,-26.85
3437,-28.53
3448,-30.66
3460,-33.26
3472,-36.14
3484,-38.86
3496,-40.73
3508,-40.98
3520,-38.95
3532,-34.36
3544,-27.49
3556,-19.13
3568,-10.38
3580,-2.33
3592,4.31
3604,9.29
3616,12.79
3627,15.19
3638,16.91
3650,18.19
3662,19.11
3674,19.66
3686,19.81
3698,19.53
3710,18.85
3722,17.78
3734,16.36
3746,14.7
3758,12.93
3770,11.25
3782,9.81
3794,8.67
3806,7.81
3817,7.09
3828,6.33
3840,5.45
3852,4.39
3864,3.16
3876,1.75
3888,0.08
3900,-1.98
3912,-4.48
3924,-7.35
3936,-10.32
3948,-13.05
3960,-15.29
3972,-16.96
3984,-18.28
3996,-19.66
4007,-21.5
4018,-24.08
4030,-27.35
4042,-31.0
4054,-34.46
4066,-37.11
4078,-38.36
4090,-37.77
4102,-35.14
4114,-30.53
4126,-24.25
4138,-16.85
4150,-8.96
4162,-1.28
4174,5.56
4186,11.11
4197,15.13
4208,17.67
4220,18.97
4232,19.42
4244,19.38
4256,19.11
4268,18.72
4280,18.2
4292,17.51
4304,16.62
4316,15.57
4328,14.45
4340,13.28
4352,12.07
4364,10.8
4376,9.47
4387,8.12
4398,6.87
4410,5.78
4422,4.87
4434,4.0
4446,2.98
4458,1.56
4470,-0.44
4482,-3.05
4494,-6.14
4506,-9.4
4518,-12.47
4530,-15.09
4542,-17.14
4554,-18.75
4566,-20.23
4577,-21.99
4588,-24.32
4600,-27.34
4612,-30.93
4624,-34.71
4636,-38.16
4648,-40.61
4660,-41.44
4672,-40.14
4684,-36.49
4696,-30.61
4708,-23.06
4720,-14.67
4732,-6.38
4744,1.03
4756,7.08
4767,11.69
4778,15.03
4790,17.39
4802,19.06
4814,20.22
4826,20.97
4838,21.31
4850,21.22
4862,20.71
4874,19.8
4886,18.56
4898,17.1
4910,15.53
4922,13.99
4934,12.59
4946,11.37
4957,10.34
4968,9.42
4980,8.52
4992,7.51
5004,6.31
5016,4.88
5028,3.23
5040,1.44
5052,-0.42
5064,-2.27
5076,-4.06
5088,-5.83
5100,-7.62
5112,-9.51
5124,-11.53
5136,-13.68
5147,-15.91
5158,-18.19
5170,-20.5
5182,-22.88
5194,-25.44
5206,-28.21
5218,-31.11
5230,-33.78
5242,-35.65
5254,-35.97
5266,-34.11
5278,-29.81
5290,-23.32
5302,-15.4
5314,-7.06
5326,0.75
5337,7.42
5348,12.71
5360,16.73
5372,19.71
5384,21.87
5396,23.34
5408,24.2
5420,24.54
5432,24.45
5444,24.05
5456,23.42
5468,22.58
5480,21.56
5492,20.41
5504,19.22
5516,18.13
5527,17.24
5538,16.56
5550,15.99
5562,15.41
5574,14.65
5586,13.65
5598,12.38
5610,10.81
5622,8.95
5634,6.75
5646,4.21
5658,1.39
5670,-1.57
5682,-4.55
5694,-7.45
5706,-10.29
5717,-13.14
5728,-16.02
5740,-18.85
5752,-21.51
5764,-23.9
5776,-26.14
5788,-28.56
5800,-31.51
5812,-35.16
5824,-39.24
5836,-43.01
5848,-45.49
5860,-45.76
5872,-43.33
5884,-38.23
5896,-31.04
5907,-22.62
5918,-13.85
5930,-5.46
5942,2.02
5954,8.3
5966,13.21
5978,16.71
5990,18.91
6002,20.09
6014,20.6
6026,20.79
6038,20.91
6050,20.99
6062,20.94
6074,20.61
6086,19.91
6097,18.9
6108,17.76
6120,16.66
6132,15.72
6144,14.93
6156,14.21
6168,13.49
6180,12.73
6192,11.88
6204,10.91
6216,9.7
6228,8.1
6240,6.01
6252,3.39
6264,0.39
6276,-2.8
6287,-5.92
6298,-8.83
6310,-11.47
6322,-13.88
6334,-16.18
6346,-18.53
6358,-21.07
6370,-23.94
6382,-27.23
6394,-30.86
6406,-34.47
6418,-37.43
6430,-38.93
6442,-38.25
6454,-35.01
6466,-29.31
6477,-21.81
6488,-13.43
6500,-5.13
6512,2.29
6524,8.39
6536,13.03
6548,16.31
6560,18.48
6572,19.81
6584,20.6
6596,21.03
6608,21.16
6620,20.97
6632,20.38
6644,19.38
6656,18.06
6667,16.64
6678,15.4
6690,14.56
6702,14.25
6714,14.42
6726,14.93
6738,15.5
6750,15.85
6762,15.73
6774,15.03
6786,13.7
6798,11.78
6810,9.33
6822,6.4
6834,3.09
6846,-0.5
6857,-4.19
6868,-7.79
6880,-11.21
6892,-14.5
6904,-17.91
6916,-21.78
6928,-26.3
6940,-31.32
6952,-36.25
6964,-40.17
6976,-42.06
6988,-41.25
7000,-37.56
7012,-31.45
7024,-23.79
7036,-15.56
7047,-7.56
7058,-0.3
7070,6.04
7082,11.48
7094,16.12
7106,20.06
7118,23.35
7130,26.01
7142,28.03
7154,29.44
7166,30.25
7178,30.58
7190,30.58
7202,30.37
7214,30.02
7226,29.48
7237,28.62
7248,27.32
7260,25.62
7272,23.69
7284,21.83
7296,20.24
7308,18.97
7320,17.85
7332,16.59
7344,14.9
7356,12.57
7368,9.52
7380,5.83
7392,1.65
7404,-2.8
7416,-7.24
7427,-11.43
7438,-15.19
7450,-18.51
7462,-21.6
7474,-24.79
7486,-28.43
7498,-32.71
7510,-37.47
7522,-42.11
7534,-45.79
7546,-47.58
7558,-46.76
7570,-43.09
7582,-36.86
7594,-28.8
7606,-19.89
7617,-11.07
7628,-3.05
7640,3.81
7652,9.44
7664,13.95
7676,17.54
7688,20.41
7700,22.7
7712,24.52
7724,25.92
7736,26.86
7748,27.28
7760,27.1
7772,26.33
7784,25.06
7796,23.54
7807,22.04
7818,20.79
7830,19.88
7842,19.25
7854,18.69
7866,17.99
7878,17.01
7890,15.67
7902,13.92
7914,11.73
7926,9.1
7938,6.07
7950,2.75
7962,-0.64
7974,-3.88
7986,-6.8
7997,-9.4
8008,-11.75
8020,-14.03
8032,-16.44
8044,-19.13
8056,-22.19
8068,-25.68
8080,-29.5
8092,-33.43
8104,-37.01
8116,-39.59
8128,-40.46
8140,-39.01
8152,-35.01
8164,-28.66
8176,-20.61
8187,-11.78
8198,-3.13
8210,4.59
8222,10.97
8234,15.96
8246,19.75
8258,22.64
8270,24.91
8282,26.68
8294,27.98
8306,28.76
8318,28.98
8330,28.64
8342,27.84
8354,26.74
8366,25.5
8377,24.25
8388,23.06
8400,21.96
8412,20.97
8424,20.16
8436,19.5
8448,18.91
8460,18.19
8472,17.07
8484,15.35
8496,12.93
8508,9.96
8520,6.69
8532,3.4
8544,0.24
8556,-2.75
8567,-5.68
8578,-8.61
8590,-11.53
8602,-14.37
8614,-17.02
8626,-19.41
8638,-21.63
8650,-23.86
8662,-26.33
8674,-29.19
8686,-32.34
8698,-35.44
8710,-37.89
8722,-38.94
8734,-37.95
8746,-34.57
8757,-28.88
8768,-21.43
8780,-13.05
8792,-4.65
8804,3.1
8816,9.78
8828,15.31
8840,19.75
8852,23.14
8864,25.48
8876,26.75
8888,27.02
8900,26.51
8912,25.59
8924,24.62
8936,23.81
8947,23.21
8958,22.72
8970,22.16
8982,21.42
8994,20.41
9006,19.1
9018,17.54
9030,15.82
9042,14.12
9054,12.59
9066,11.34
9078,10.28
9090,9.16
9102,7.7
9114,5.66
9126,3.05
9137,0.04
9148,-3.08
9160,-6.03
9172,-8.71
9184,-11.11
9196,-13.34
9208,-15.57
9220,-18.02
9232,-20.87
9244,-24.23
9256,-27.96
9268,-31.67
9280,-34.66
9292,-36.13
9304,-35.36
9316,-32.02
9327,-26.27
9338,-18.75
9350,-10.35
9362,-2.02
9374,5.51
9386,11.83
9398,16.83
9410,20.67
9422,23.55
9434,25.67
9446,27.14
9458,27.98
9470,28.22
9482,27.86
9494,26.98
9506,25.65
9517,23.99
9528,22.11
9540,20.19
9552,18.38
9564,16.83
9576,15.65
9588,14.89
9600,14.46
9612,14.15
9624,13.7
9636,12.87
9648,11.51
9660,9.64
9672,7.43
9684,5.04
9696,2.58
9707,0.02
9718,-2.73
9730,-5.74
9742,-8.95
9754,-12.2
9766,-15.24
9778,-17.88
9790,-20.11
9802,-22.07
9814,-24.05
9826,-26.36
9838,-29.25
9850,-32.8
9862,-36.85
9874,-40.96
9886,-44.42
9897,-46.38
9908,-46.1
9920,-43.13
9932,-37.54
9944,-29.85
9956,-20.94
9968,-11.82
9980,-3.31
9992,4.08
10004,10.16
10016,15.06
10028,18.95
10040,22.04
10052,24.47
10064,26.25
10076,27.42
10087,28.02
10098,28.17
10110,27.95
10122,27.48
10134,26.77
10146,25.83
10158,24.68
10170,23.43
10182,22.28
10194,21.46
10206,21.1
10218,21.1
10230,21.18
10242,20.92
10254,20.0
10266,18.29
10277,15.93
10288,13.18
10300,10.33
10312,7.56
10324,4.88
10336,2.26
10348,-0.38
10360,-3.09
10372,-5.86
10384,-8.74
10396,-11.71
10408,-14.74
10420,-17.72
10432,-20.5
10444,-22.97
10456,-25.2
10467,-27.41
10478,-29.96
10490,-33.14
10502,-36.98
10514,-41.16
10526,-44.98
10538,-47.56
10550,-48.07
10562,-45.99
10574,-41.18
10586,-34.02
10598,-25.26
10610,-15.84
10622,-6.71
10634,1.43
10646,8.17
10657,13.43
10668,17.38
10680,20.3
10692,22.45
10704,24.05
10716,25.18
10728,25.88
10740,26.18
10752,26.11
10764,25.71
10776,25.04
10788,24.14
10800,23.04
10812,21.77
10824,20.43
10836,19.09
10847,17.84
10858,16.69
10870,15.63
10882,14.57
10894,13.45
10906,12.18
10918,10.72
10930,9.03
10942,7.11
10954,5.01
10966,2.84
10978,0.76
10990,-1.11
11002,-2.76
11014,-4.3
11026,-5.92
11037,-7.85
11048,-10.16
11060,-12.79
11072,-15.53
11084,-18.14
11096,-20.48
11108,-22.54
11120,-24.43
11132,-26.32
11144,-28.42
11156,-30.92
11168,-33.89
11180,-37.23
11192,-40.57
11204,-43.3
11216,-44.66
11227,-43.91
11238,-40.63
11250,-34.84
11262,-27.1
11274,-18.25
11286,-9.23
11298,-0.75
11310,6.75
11322,13.14
11334,18.41
11346,22.6
11358,25.71
11370,27.81
11382,29.02
11394,29.6
11406,29.76
11417,29.68
11428,29.4
11440,28.82
11452,27.85
11464,26.51
11476,24.91
11488,23.29
11500,21.86
11512,20.76
11524,20.0
11536,19.46
11548,18.94
11560,18.21
11572,17.11
11584,15.57
11596,13.61
11607,11.35
11618,8.88
11630,6.3
11642,3.6
11654,0.77
11666,-2.2
11678,-5.26
11690,-8.31
11702,-11.28
11714,-14.15
11726,-17.01
11738,-19.96
11750,-23.15
11762,-26.65
11774,-30.43
11786,-34.33
11797,-38.03
11808,-41.0
11820,-42.57
11832,-42.08
11844,-39.11
11856,-33.64
11868,-26.13
11880,-17.43
11892,-8.51
11904,-0.21
11916,6.96
11928,12.8
11940,17.34
11952,20.75
11964,23.17
11976,24.74
11987,25.6
11998,25.9
12010,25.8
12022,25.4
12034,24.74
12046,23.83
12058,22.71
12070,21.5
12082,20.34
12094,19.37
12106,18.63
12118,18.05
12130,17.49
12142,16.78
12154,15.84
12166,14.67
12177,13.31
12188,11.74
12200,9.93
12212,7.79
12224,5.3
12236,2.46
12248,-0.61
12260,-3.82
12272,-7.07
12284,-10.27
12296,-13.33
12308,-16.15
12320,-18.7
12332,-21.06
12344,-23.41
12356,-26.0
12367,-29.06
12378,-32.67
12390,-36.67
12402,-40.71
12414,-44.2
12426,-46.45
12438,-46.76
12450,-44.63
12462,-39.88
12474,-32.78
12486,-23.99
12498,-14.43
12510,-5.02
12522,3.51
12534,10.76
12546,16.58
12557,21.04
12568,24.28
12580,26.53
12592,28.03
12604,29.03
12616,29.68
12628,30.06
12640,30.12
12652,29.8
12664,29.04
12676,27.87
12688,26.42
12700,24.85
12712,23.3
12724,21.84
12736,20.5
12747,19.23
12758,17.97
12770,16.62
12782,15.11
12794,13.37
12806,11.43
12818,9.33
12830,7.14
12842,4.88
12854,2.5
12866,-0.11
12878,-3.04
12890,-6.26
12902,-9.63
12914,-12.91
12926,-15.89
12937,-18.49
12948,-20.85
12960,-23.2
12972,-25.81
12984,-28.85
12996,-32.32
13008,-36.05
13020,-39.73
13032,-42.84
13044,-44.8
13056,-44.99
13068,-42.96
13080,-38.52
13092,-31.9
13104,-23.73
13116,-14.84
13127,-6.09
13138,1.9
13150,8.77
13162,14.45
13174,19.02
13186,22.6
13198,25.33
13210,27.31
13222,28.64
13234,29.39
13246,29.63
13258,29.36
13270,28.6
13282,27.41
13294,25.88
13306,24.18
13317,22.51
13328,21.03
13340,19.86
13352,19.0
13364,18.32
13376,17.64
13388,16.82
13400,15.73
13412,14.36
13424,12.77
13436,11.04
13448,9.17
13460,7.16
13472,4.93
13484,2.39
13496,-0.51
13507,-3.78
13518,-7.36
13530,-11.14
13542,-14.92
13554,-18.54
13566,-21.81
13578,-24.71
13590,-27.36
13602,-30.07
13614,-33.17
13626,-36.84
13638,-40.89
13650,-44.69
13662,-47.28
13674,-47.65
13686,-45.18
13697,-39.77
13708,-31.97
13720,-22.79
13732,-13.36
13744,-4.62
13756,2.86
13768,8.89
13780,13.56
13792,17.09
13804,19.72
13816,21.63
13828,22.98
13840,23.87
13852,24.34
13864,24.39
13876,24.05
13887,23.35
13898,22.38
13910,21.23
13922,20.01
13934,18.79
13946,17.6
13958,16.43
13970,15.3
13982,14.23
13994,13.23
14006,12.28
14018,11.3
14030,10.15
14042,8.59
14054,6.48
14066,3.72
14077,0.39
14088,-3.26
14100,-6.94
14112,-10.36
14124,-13.37
14136,-15.96
14148,-18.29
14160,-20.63
14172,-23.28
14184,-26.46
14196,-30.21
14208,-34.29
14220,-38.16
14232,-41.04
14244,-42.13
14256,-40.84
14267,-37.03
14278,-31.01
14290,-23.51
14302,-15.37
14314,-7.37
14326,-0.07
14338,6.18
14350,11.2
14362,14.93
14374,17.44
14386,18.87
14398,19.44
14410,19.46
14422,19.2
14434,18.89
14446,18.61
14457,18.36
14468,18.07
14480,17.69
14492,17.14
14504,16.4
14516,15.52
14528,14.55
14540,13.6
14552,12.8
14564,12.26
14576,11.99
14588,11.87
14600,11.58
14612,10.74
14624,9.0
14636,6.27
14647,2.71
14658,-1.25
14670,-5.15
14682,-8.64
14694,-11.62
14706,-14.26
14718,-16.88
14730,-19.88
14742,-23.55
14754,-27.9
14766,-32.7
14778,-37.37
14790,-41.08
14802,-43.0
14814,-42.43
14826,-39.1
14837,-33.21
14848,-25.4
14860,-16.53
14872,-7.48
14884,0.99
14896,8.38
14908,14.43
14920,19.15
14932,22.68
14944,25.25
14956,27.12
14968,28.44
14980,29.25
14992,29.53
15004,29.18
15016,28.19
15027,26.65
15038,24.71
15050,22.57
15062,20.37
15074,18.21
15086,16.12
15098,14.16
15110,12.38
15122,10.87
15134,9.72
15146,8.94
15158,8.43
15170,8.03
15182,7.54
15194,6.79
15206,5.7
15217,4.27
15228,2.59
15240,0.74
15252,-1.26
15264,-3.44
15276,-5.9
15288,-8.75
15300,-12.04
15312,-15.72
15324,-19.76
15336,-24.06
15348,-28.54
15360,-33.01
15372,-37.07
15384,-40.11
15396,-41.39
15407,-40.29
15418,-36.56
15430,-30.44
15442,-22.6
15454,-13.93
15466,-5.32
15478,2.55
15490,9.29
15502,14.74
15514,18.93
15526,22.04
15538,24.3
15550,25.96
15562,27.2
15574,28.09
15586,28.61
15597,28.67
15608,28.22
15620,27.27
15632,25.89
15644,24.26
15656,22.6
15668,21.11
15680,19.99
15692,19.29
15704,18.98
15716,18.87
15728,18.75
15740,18.43
15752,17.8
15764,16.82
15776,15.45
15787,13.71
15798,11.57
15810,9.05
15822,6.2
15834,3.08
15846,-0.22
15858,-3.63
15870,-7.05
15882,-10.35
15894,-13.44
15906,-16.33
15918,-19.17
15930,-22.23
15942,-25.77
15954,-29.85
15966,-34.18
15977,-38.16
15988,-40.94
16000,-41.67
16012,-39.79
16024,-35.14
16036,-28.12
16048,-19.5
16060,-10.3
16072,-1.45
16084,6.38
16096,12.9
16108,18.14
16120,22.29
16132,25.54
16144,28.01
16156,29.75
16167,30.79
16178,31.24
16190,31.25
16202,30.99
16214,30.52
16226,29.86
16238,28.98
16250,27.91
16262,26.77
16274,25.73
16286,24.87
16298,24.17
16310,23.48
16322,22.57
16334,21.23
16346,19.41
16357,17.19
16368,14.76
16380,12.33
16392,9.99
16404,7.69
16416,5.29
16428,2.64
16440,-0.36
16452,-3.64
16464,-7.04
16476,-10.35
16488,-13.37
16500,-16.08
16512,-18.57
16524,-21.06
16536,-23.83
16547,-27.06
16558,-30.79
16570,-34.78
16582,-38.5
16594,-41.2
16606,-42.05
16618,-40.39
16630,-35.99
16642,-29.15
16654,-20.65
16666,-11.59
16678,-2.97
16690,4.51
16702,10.53
16714,15.18
16726,18.67
16737,21.2
16748,22.89
16760,23.75
16772,23.86
16784,23.34
16796,22.46
16808,21.45
16820,20.5
16832,19.64
16844,18.79
16856,17.87
16868,16.8
16880,15.63
16892,14.44
16904,13.38
16916,12.51
16927,11.86
16938,11.34
16950,10.8
16962,10.04
16974,8.87
16986,7.17
16998,4.97
17010,2.45
17022,-0.14
17034,-2.55
17046,-4.68
17058,-6.58
17070,-8.46
17082,-10.52
17094,-12.94
17106,-15.8
17117,-19.12
17128,-22.86
17140,-26.88
17152,-30.85
17164,-34.21
17176,-36.22
17188,-36.21
17200,-33.81
17212,-29.11
17224,-22.64
17236,-15.2
17248,-7.57
17260,-0.39
17272,5.95
17284,11.24
17296,15.41
17307,18.46
17318,20.48
17330,21.64
17342,22.21
17354,22.45
17366,22.54
17378,22.52
17390,22.31
17402,21.79
17414,20.95
17426,19.82
17438,18.62
17450,17.54
17462,16.67
17474,15.98
17486,15.33
17497,14.51
17508,13.4
17520,11.96
17532,10.28
17544,8.46
17556,6.63
17568,4.87
17580,3.23
17592,1.69
17604,0.17
17616,-1.5
17628,-3.51
17640,-5.99
17652,-8.92
17664,-12.08
17676,-15.16
17687,-17.83
17698,-19.97
17710,-21.7
17722,-23.31
17734,-25.2
17746,-27.69
17758,-30.89
17770,-34.59
17782,-38.31
17794,-41.27
17806,-42.65
17818,-41.77
17830,-38.32
17842,-32.45
17854,-24.75
17866,-16.09
17877,-7.39
17888,0.57
17900,7.31
17912,12.64
17924,16.62
17936,19.47
17948,21.48
17960,22.95
17972,24.11
17984,25.09
17996,25.9
18008,26.48
18020,26.73
18032,26.56
18044,25.98
18056,25.03
18067,23.83
18078,22.55
18090,21.38
18102,20.47
18114,19.97
18126,19.86
18138,20.01
18150,20.18
18162,20.03
18174,19.3
18186,17.87
18198,15.81
18210,13.36
18222,10.81
18234,8.38
18246,6.12
18257,3.96
18268,1.77
18280,-0.58
18292,-3.14
18304,-5.88
18316,-8.7
18328,-11.52
18340,-14.24
18352,-16.77
18364,-19.03
18376,-21.01
18388,-22.79
18400,-24.59
18412,-26.68
18424,-29.32
18436,-32.51
18447,-35.96
18458,-39.03
18470,-40.89
18482,-40.79
18494,-38.26
18506,-33.28
18518,-26.37
18530,-18.34
18542,-10.17
18554,-2.67
18566,3.67
18578,8.7
18590,12.6
18602,15.67
18614,18.15
18626,20.16
18637,21.65
18648,22.55
18660,22.87
18672,22.74
18684,22.36
18696,21.86
18708,21.26
18720,20.5
18732,19.51
18744,18.31
18756,17.03
18768,15.91
18780,15.07
18792,14.53
18804,14.12
18816,13.6
18827,12.76
18838,11.45
18850,9.68
18862,7.53
18874,5.08
18886,2.42
18898,-0.38
18910,-3.2
18922,-5.94
18934,-8.46
18946,-10.78
18958,-12.99
18970,-15.31
18982,-17.92
18994,-20.94
19006,-24.4
19017,-28.13
19028,-31.92
19040,-35.47
19052,-38.69
19064,-41.7
19076,-44.8
19088,-48.34
19100,-52.54
19112,-57.32
19124,-62.12
19136,-66.0
19148,-67.75
19160,-66.53
19172,-62.11
19184,-54.96
19196,-46.01
19207,-36.4
19218,-27.11
19230,-18.61
19242,-10.88
19254,-3.35
19266,4.54
19278,13.12
19290,22.58
19302,33.16
19314,45.21
19326,57.81
19338,69.0
19350,76.22
19362,78.25
19374,75.62
19386,70.17
19397,64.18
19408,59.61
19420,57.31
19432,56.83
19444,57.97
19456,58.9
19468,58.57
19480,56.66
19492,53.43
19504,49.41
19516,45.17
19528,41.13
19540,37.5
19552,34.47
19564,31.33
19576,28.0
19587,24.2
19598,19.54
19610,13.7
19622,6.73
19634,-0.94
19646,-8.65
19658,-15.67
19670,-21.66
19682,-26.21
19694,-29.16
19706,-30.61
19718,-30.98
19730,-30.66
19742,-29.77
19754,-28.02
19766,-24.68
19777,-19.51
19788,-12.32
19800,-3.49
19812,5.85
19824,13.87
19836,18.58
19848,18.32
19860,12.35
19872,0.92
19884,-15.24
19896,-34.1
19908,-52.67
19920,-67.78
19932,-77.2
19944,-80.24
19956,-77.77
19967,-71.74
19978,-64.58
19990,-59.14
20002,-56.81
20014,-57.18
20026,-58.49
20038,-58.73
20050,-56.33
20062,-50.56
20074,-41.48
20086,-25.57
20098,-3.29
20110,21.51
20122,44.28
20134,63.06
20146,78.66
20157,92.63
20168,105.57
20180,117.31
20192,127.02
20204,133.13
20216,135.16
20228,133.89
20240,130.6
20252,125.88
20264,119.29
20276,109.12
20288,94.88
20300,77.17
20312,57.37
20324,38.12
20336,22.48
20347,12.47
20358,7.87
20370,6.14
20382,3.29
20394,-4.69
20406,-21.26
20418,-48.49
20430,-85.82
20442,-129.98
20454,-175.7
20466,-216.92
20478,-247.98
20490,-264.79
20502,-265.59
20514,-252.03
20526,-228.06
20537,-198.13
20548,-165.71
20560,-132.88
20572,-100.67
20584,-69.65
20596,-40.54
20608,-14.42
20620,6.65
20632,20.95
20644,27.98
20656,28.66
20668,24.72
20680,17.92
20692,9.94
20704,2.6
20716,1.69
20727,10.96
20738,29.31
20750,50.53
20762,67.35
20774,74.97
20786,72.1
20798,60.48
20810,43.83
20822,26.4
20834,10.07
20846,-4.07
20858,-15.17
20870,-22.23
20882,-24.52
20894,-22.12
20906,-15.94
20917,-7.6
20928,1.04
20940,7.84
20952,12.14
20964,13.87
20976,14.17
20988,14.58
