seconds,BVP
7,-40.86
19,-40.04
31,-38.44
43,-36.34
55,-33.88
67,-31.01
78,-27.57
89,-23.42
101,-18.57
113,-13.12
125,-7.26
137,-1.14
149,5.13
161,11.46
173,17.73
185,23.76
197,29.3
209,34.06
221,37.81
233,40.38
245,41.66
257,41.51
268,39.8
279,36.51
291,31.94
303,26.81
315,22.24
327,19.53
339,19.63
351,22.88
363,28.73
375,36.01
387,43.23
399,49.1
411,52.8
423,54.08
435,53.13
447,50.33
458,46.2
469,41.16
481,35.64
493,30.03
505,24.73
517,20.09
529,16.35
541,13.6
553,11.8
565,10.85
577,10.65
589,11.13
601,12.28
613,13.98
625,16.05
637,18.16
648,19.99
659,21.3
671,22.01
683,22.15
695,21.75
707,20.8
719,19.24
731,17.03
743,14.26
755,11.23
767,8.3
779,5.79
791,3.84
803,2.33
815,0.99
827,-0.58
838,-2.72
849,-5.59
861,-9.14
873,-12.96
885,-16.35
897,-18.39
909,-18.19
921,-15.17
933,-9.32
945,-1.22
957,8.04
969,17.23
981,25.25
993,31.44
1005,35.48
1017,37.4
1028,37.35
1039,35.52
1051,32.16
1063,27.56
1075,22.04
1087,15.96
1099,9.62
1111,3.29
1123,-2.84
1135,-8.64
1147,-14.03
1159,-18.93
1171,-23.27
1183,-26.94
1195,-29.82
1207,-31.78
1218,-32.77
1229,-32.9
1241,-32.48
1253,-31.93
1265,-31.7
1277,-32.08
1289,-33.14
1301,-34.67
1313,-36.29
1325,-37.59
1337,-38.34
1349,-38.56
1361,-38.57
1373,-38.83
1385,-39.88
1397,-42.06
1408,-45.53
1419,-50.12
1431,-55.35
1443,-60.45
1455,-64.41
1467,-66.17
1479,-64.77
1491,-59.72
1503,-51.1
1515,-39.67
1527,-26.68
1539,-13.56
1551,-1.56
1563,8.46
1575,16.06
1587,21.16
1598,23.84
1609,24.27
1621,22.66
1633,19.39
1645,14.96
1657,10.0
1669,5.15
1681,0.88
1693,-2.53
1705,-5.1
1717,-6.93
1729,-8.16
1741,-8.87
1753,-9.06
1765,-8.75
1777,-8.04
1788,-7.21
1799,-6.63
1811,-6.68
1823,-7.61
1835,-9.43
1847,-11.95
1859,-14.83
1871,-17.75
1883,-20.52
1895,-23.15
1907,-25.85
1919,-28.95
1931,-32.79
1943,-37.6
1955,-43.39
1967,-49.77
1978,-55.92
1989,-60.6
2001,-62.48
2013,-60.45
2025,-54.02
2037,-43.48
2049,-29.9
2061,-14.77
2073,0.31
2085,14.03
2097,25.53
2109,34.39
2121,40.56
2133,44.15
2145,45.43
2157,44.75
2168,42.57
2179,39.43
2191,35.84
2203,32.2
2215,28.73
2227,25.44
2239,22.25
2251,19.15
2263,16.23
2275,13.71
2287,11.88
2299,10.89
2311,10.62
2323,10.69
2335,10.53
2347,9.54
2358,7.34
2369,3.83
2381,-0.8
2393,-6.11
2405,-11.63
2417,-16.95
2429,-21.86
2441,-26.43
2453,-31.02
2465,-36.16
2477,-42.36
2489,-49.82
2501,-58.09
2513,-65.98
2525,-71.76
2537,-73.61
2548,-70.26
2559,-61.43
2571,-47.97
2583,-31.52
2595,-14.03
2607,2.76
2619,17.68
2631,30.18
2643,40.18
2655,47.82
2667,53.35
2679,56.98
2691,58.92
2703,59.37
2715,58.61
2727,56.95
2738,54.75
2749,52.32
2761,49.88
2773,47.54
2785,45.27
2797,43.03
2809,40.78
2821,38.58
2833,36.52
2845,34.68
2857,33.03
2869,31.4
2881,29.52
2893,27.09
2905,23.94
2917,20.05
2928,15.61
2939,10.92
2951,6.34
2963,2.12
2975,-1.66
2987,-5.12
2999,-8.59
3011,-12.61
3023,-17.7
3035,-24.21
3047,-32.06
3059,-40.46
3071,-48.0
3083,-52.87
3095,-53.44
3107,-48.76
3118,-38.96
3129,-25.2
3141,-9.31
3153,6.73
3165,21.32
3177,33.52
3189,43.02
3201,49.91
3213,54.48
3225,57.0
3237,57.7
3249,56.82
3261,54.71
3273,51.82
3285,48.7
3297,45.79
3308,43.37
3319,41.48
3331,40.01
3343,38.81
3355,37.76
3367,36.87
3379,36.17
3391,35.65
3403,35.15
3415,34.39
3427,32.93
3439,30.36
3451,26.45
3463,21.23
3475,15.04
3487,8.47
3498,2.15
3509,-3.5
3521,-8.35
3533,-12.62
3545,-16.71
3557,-21.0
3569,-25.6
3581,-30.32
3593,-34.78
3605,-38.58
3617,-41.47
3629,-43.47
3641,-44.89
3653,-46.22
3665,-48.12
3677,-51.13
3688,-55.47
3699,-60.84
3711,-66.25
3723,-70.21
3735,-71.0
3747,-67.3
3759,-58.61
3771,-45.47
3783,-29.3
3795,-11.97
3807,4.72
3819,19.44
3831,31.44
3843,40.49
3855,46.71
3867,50.45
3878,52.1
3889,52.12
3901,50.98
3913,49.11
3925,46.88
3937,44.53
3949,42.23
3961,40.1
3973,38.18
3985,36.58
3997,35.38
4009,34.66
4021,34.45
4033,34.65
4045,35.07
4057,35.39
4068,35.25
4079,34.29
4091,32.29
4103,29.23
4115,25.39
4127,21.2
4139,17.13
4151,13.44
4163,10.05
4175,6.66
4187,2.83
4199,-1.66
4211,-6.74
4223,-12.03
4235,-17.05
4247,-21.43
4258,-25.1
4269,-28.36
4281,-31.71
4293,-35.74
4305,-40.86
4317,-47.21
4329,-54.4
4341,-61.52
4353,-67.14
4365,-69.66
4377,-67.77
4389,-60.89
4401,-49.44
4413,-34.71
4425,-18.53
4437,-2.69
4448,11.42
4459,23.04
4471,31.98
4483,38.41
4495,42.71
4507,45.33
4519,46.66
4531,47.0
4543,46.61
4555,45.62
4567,44.18
4579,42.48
4591,40.76
4603,39.31
4615,38.37
4627,38.08
4638,38.47
4649,39.45
4661,40.85
4673,42.44
4685,43.84
4697,44.64
4709,44.45
4721,43.08
4733,40.6
4745,37.33
4757,33.75
4769,30.29
4781,27.21
4793,24.6
4805,22.33
4817,20.21
4828,17.98
4839,15.41
4851,12.27
4863,8.39
4875,3.7
4887,-1.8
4899,-7.99
4911,-14.65
4923,-21.55
4935,-28.39
4947,-34.91
4959,-40.81
4971,-45.91
4983,-50.11
4995,-53.5
5007,-56.4
5018,-59.29
5029,-62.7
5041,-66.97
5053,-72.03
5065,-77.22
5077,-81.31
5089,-82.78
5101,-80.31
5113,-73.22
5125,-61.78
5137,-47.14
5149,-30.98
5161,-15.05
5173,-0.64
5185,11.43
5197,20.94
5208,27.95
5219,32.73
5231,35.67
5243,37.18
5255,37.66
5267,37.46
5279,36.76
5291,35.59
5303,33.98
5315,32.06
5327,30.13
5339,28.56
5351,27.63
5363,27.46
5375,27.91
5387,28.77
5398,29.79
5409,30.88
5421,31.94
5433,32.9
5445,33.58
5457,33.8
5469,33.4
5481,32.4
5493,30.97
5505,29.27
5517,27.42
5529,25.46
5541,23.29
5553,20.88
5565,18.24
5577,15.52
5588,12.89
5599,10.5
5611,8.36
5623,6.42
5635,4.53
5647,2.59
5659,0.54
5671,-1.59
5683,-3.8
5695,-6.13
5707,-8.68
5719,-11.59
5731,-14.91
5743,-18.6
5755,-22.48
5767,-26.32
5778,-29.95
5789,-33.3
5801,-36.44
5813,-39.55
5825,-42.85
5837,-46.54
5849,-50.85
5861,-55.87
5873,-61.49
5885,-67.28
5897,-72.38
5909,-75.58
5921,-75.63
5933,-71.56
5945,-63.13
5957,-50.93
5968,-36.32
5979,-21.06
5991,-6.81
6003,5.27
6015,14.7
6027,21.64
6039,26.56
6051,30.04
6063,32.48
6075,34.08
6087,34.95
6099,35.12
6111,34.69
6123,33.84
6135,32.74
6147,31.53
6158,30.32
6169,29.14
6181,28.05
6193,27.16
6205,26.64
6217,26.69
6229,27.36
6241,28.47
6253,29.66
6265,30.41
6277,30.29
6289,29.12
6301,27.01
6313,24.3
6325,21.36
6337,18.45
6348,15.64
6359,12.9
6371,10.17
6383,7.46
6395,4.81
6407,2.22
6419,-0.36
6431,-3.04
6443,-5.88
6455,-8.84
6467,-11.81
6479,-14.62
6491,-17.15
6503,-19.42
6515,-21.56
6527,-23.79
6538,-26.3
6549,-29.21
6561,-32.45
6573,-35.88
6585,-39.24
6597,-42.24
6609,-44.74
6621,-46.7
6633,-48.37
6645,-50.24
6657,-52.86
6669,-56.68
6681,-61.68
6693,-67.28
6705,-72.3
6717,-75.3
6728,-74.9
6739,-70.28
6751,-61.4
6763,-49.03
6775,-34.57
6787,-19.61
6799,-5.6
6811,6.44
6823,16.03
6835,23.13
6847,28.01
6859,30.98
6871,32.35
6883,32.36
6895,31.28
6907,29.43
6918,27.26
6929,25.18
6941,23.49
6953,22.26
6965,21.45
6977,20.97
6989,20.82
7001,21.13
7013,22.05
7025,23.58
7037,25.47
7049,27.33
7061,28.69
7073,29.23
7085,28.86
7097,27.67
7108,25.89
7119,23.71
7131,21.28
7143,18.69
7155,16.05
7167,13.5
7179,11.18
7191,9.16
7203,7.42
7215,5.83
7227,4.16
7239,2.23
7251,-0.07
7263,-2.64
7275,-5.32
7287,-7.9
7298,-10.33
7309,-12.72
7321,-15.33
7333,-18.4
7345,-22.04
7357,-26.14
7369,-30.4
7381,-34.46
7393,-38.09
7405,-41.22
7417,-44.06
7429,-46.96
7441,-50.38
7453,-54.68
7465,-59.96
7477,-65.87
7488,-71.53
7499,-75.62
7511,-76.74
7523,-73.8
7535,-66.39
7547,-54.96
7559,-40.69
7571,-25.13
7583,-9.84
7595,3.92
7607,15.36
7619,24.15
7631,30.29
7643,34.09
7655,35.99
7667,36.5
7678,36.07
7689,35.04
7701,33.62
7713,31.92
7725,30.12
7737,28.42
7749,27.08
7761,26.32
7773,26.25
7785,26.83
7797,27.95
7809,29.44
7821,31.13
7833,32.88
7845,34.5
7857,35.77
7868,36.5
7879,36.55
7891,35.93
7903,34.75
7915,33.18
7927,31.35
7939,29.3
7951,27.03
7963,24.56
7975,21.96
7987,19.39
7999,17.0
8011,14.83
8023,12.82
8035,10.84
8047,8.8
8058,6.63
8069,4.38
8081,2.06
8093,-0.35
8105,-2.94
8117,-5.75
8129,-8.77
8141,-11.9
8153,-15.06
8165,-18.23
8177,-21.5
8189,-25.0
8201,-28.74
8213,-32.6
8225,-36.32
8237,-39.64
8248,-42.44
8259,-44.88
8271,-47.32
8283,-50.28
8295,-54.2
8307,-59.33
8319,-65.43
8331,-71.72
8343,-76.89
8355,-79.34
8367,-77.61
8379,-70.9
8391,-59.37
8403,-44.22
8415,-27.3
8427,-10.59
8438,4.28
8449,16.39
8461,25.53
8473,31.93
8485,36.1
8497,38.52
8509,39.63
8521,39.78
8533,39.25
8545,38.24
8557,36.87
8569,35.18
8581,33.2
8593,31.07
8605,29.0
8617,27.26
8628,26.16
8639,25.84
8651,26.31
8663,27.36
8675,28.66
8687,29.82
8699,30.49
8711,30.44
8723,29.55
8735,27.88
8747,25.64
8759,23.13
8771,20.65
8783,18.42
8795,16.51
8807,14.79
8818,12.97
8829,10.78
8841,8.0
8853,4.63
8865,0.85
8877,-2.97
8889,-6.46
8901,-9.38
8913,-11.68
8925,-13.59
8937,-15.44
8949,-17.6
8961,-20.27
8973,-23.43
8985,-26.83
8997,-30.13
9008,-33.06
9019,-35.54
9031,-37.77
9043,-40.14
9055,-43.12
9067,-47.09
9079,-52.13
9091,-57.9
9103,-63.55
9115,-67.81
9127,-69.28
9139,-66.82
9151,-59.93
9163,-48.96
9175,-35.08
9187,-19.89
9198,-5.06
9209,8.15
9221,19.02
9233,27.39
9245,33.47
9257,37.57
9269,39.93
9281,40.71
9293,40.04
9305,38.12
9317,35.31
9329,32.14
9341,29.16
9353,26.8
9365,25.27
9377,24.55
9388,24.54
9399,25.12
9411,26.21
9423,27.77
9435,29.66
9447,31.62
9459,33.26
9471,34.2
9483,34.16
9495,33.1
9507,31.17
9519,28.69
9531,25.97
9543,23.19
9555,20.36
9567,17.39
9578,14.15
9589,10.64
9601,6.98
9613,3.38
9625,-0.01
9637,-3.17
9649,-6.24
9661,-9.48
9673,-13.1
9685,-17.13
9697,-21.43
9709,-25.7
9721,-29.72
9733,-33.4
9745,-36.9
9757,-40.59
9768,-44.92
9779,-50.25
9791,-56.61
9803,-63.63
9815,-70.41
9827,-75.63
9839,-77.83
9851,-75.8
9863,-68.96
9875,-57.6
9887,-42.84
9899,-26.35
9911,-9.93
9923,4.94
9935,17.31
9947,26.87
9958,33.71
9969,38.18
9981,40.72
9993,41.7
10005,41.51
10017,40.5
10029,39.01
10041,37.25
10053,35.41
10065,33.58
10077,31.87
10089,30.4
10101,29.34
10113,28.85
10125,29.03
10137,29.8
10148,30.96
10159,32.19
10171,33.14
10183,33.53
10195,33.2
10207,32.12
10219,30.34
10231,28.04
10243,25.39
10255,22.52
10267,19.53
10279,16.46
10291,13.28
10303,10.02
10315,6.7
10327,3.41
10338,0.24
10349,-2.75
10361,-5.59
10373,-8.38
10385,-11.21
10397,-14.17
10409,-17.2
10421,-20.17
10433,-22.94
10445,-25.4
10457,-27.56
10469,-29.53
10481,-31.53
10493,-33.73
10505,-36.21
10517,-38.92
10528,-41.67
10539,-44.25
10551,-46.49
10563,-48.38
10575,-50.1
10587,-52.0
10599,-54.52
10611,-58.05
10623,-62.7
10635,-68.12
10647,-73.39
10659,-77.08
10671,-77.55
10683,-73.51
10695,-64.43
10707,-50.82
10718,-34.15
10729,-16.4
10741,0.52
10753,15.2
10765,26.99
10777,35.88
10789,42.27
10801,46.71
10813,49.76
10825,51.89
10837,53.47
10849,54.72
10861,55.73
10873,56.52
10885,57.06
10897,57.41
10908,57.71
10919,58.12
10931,58.83
10943,59.88
10955,61.25
10967,62.75
10979,64.15
10991,65.19
11003,65.59
11015,65.19
11027,64.01
11039,62.25
11051,60.27
11063,58.41
11075,56.84
11087,55.46
11098,53.94
11109,51.89
11121,49.03
11133,45.37
11145,41.16
11157,36.77
11169,32.49
11181,28.5
11193,24.76
11205,21.13
11217,17.5
11229,13.8
11241,10.09
11253,6.48
11265,3.01
11277,-0.3
11288,-3.58
11299,-6.97
11311,-10.58
11323,-14.42
11335,-18.32
11347,-22.03
11359,-25.31
11371,-28.0
11383,-30.15
11395,-32.01
11407,-33.91
11419,-36.26
11431,-39.35
11443,-43.22
11455,-47.62
11467,-51.89
11478,-54.96
11489,-55.54
11501,-52.36
11513,-44.6
11525,-32.2
11537,-15.95
11549,2.65
11561,21.77
11573,39.75
11585,55.38
11597,68.01
11609,77.53
11621,84.13
11633,88.21
11645,90.25
11657,90.73
11668,90.0
11679,88.28
11691,85.53
11703,81.58
11715,76.3
11727,69.74
11739,62.24
11751,54.38
11763,46.88
11775,40.27
11787,34.88
11799,30.68
11811,27.38
11823,24.6
11835,21.92
11847,19.08
11858,15.95
11869,12.61
11881,9.2
11893,5.92
11905,2.85
11917,-0.07
11929,-3.08
11941,-6.55
11953,-10.8
11965,-16.0
11977,-22.03
11989,-28.53
12001,-35.07
12013,-41.29
12025,-47.11
12037,-52.65
12048,-58.23
12059,-64.08
12071,-70.27
12083,-76.64
12095,-82.85
12107,-88.63
12119,-93.83
12131,-98.53
12143,-102.92
12155,-107.28
12167,-111.76
12179,-116.37
12191,-120.87
12203,-124.79
12215,-127.45
12227,-128.0
12238,-125.61
12249,-119.71
12261,-110.22
12273,-97.72
12285,-83.3
12297,-68.36
12309,-54.18
12321,-41.65
12333,-31.16
12345,-22.65
12357,-15.81
12369,-10.26
12381,-5.68
12393,-1.77
12405,1.7
12417,4.94
12428,8.06
12439,11.05
12451,13.9
12463,16.61
12475,19.34
12487,22.35
12499,25.89
12511,30.01
12523,34.52
12535,39.0
12547,42.95
12559,45.89
12571,47.5
12583,47.61
12595,46.07
12607,42.82
12618,37.81
12629,31.18
12641,23.26
12653,14.47
12665,5.25
12677,-4.06
12689,-13.18
12701,-21.84
12713,-29.75
12725,-36.63
12737,-42.36
12749,-47.02
12761,-50.93
12773,-54.38
12785,-57.44
12797,-59.79
12808,-60.78
12819,-59.68
12831,-55.91
12843,-49.31
12855,-40.21
12867,-29.35
12879,-17.75
12891,-6.47
12903,3.61
12915,12.01
12927,18.79
12939,24.55
12951,30.24
12963,36.87
12975,45.23
12987,55.69
12998,68.11
13009,81.98
13021,96.55
13033,110.91
13045,124.15
13057,135.38
13069,143.81
13081,148.87
13093,150.29
13105,148.14
13117,142.83
13129,135.09
13141,125.79
13153,115.84
13165,106.05
13177,97.02
13188,89.1
13199,82.47
13211,77.11
13223,72.85
13235,69.36
13247,66.13
13259,62.56
13271,58.06
13283,52.21
13295,44.83
13307,35.99
13319,25.99
13331,15.26
13343,4.2
13355,-6.8
13367,-17.44
13378,-27.46
13389,-36.68
13401,-44.93
13413,-52.12
13425,-58.26
13437,-63.41
13449,-67.68
13461,-71.21
13473,-74.15
13485,-76.68
13497,-79.02
13509,-81.5
13521,-84.45
13533,-88.24
13545,-93.15
13557,-99.22
13568,-106.22
13579,-113.53
13591,-120.13
13603,-124.77
13615,-126.14
13627,-123.17
13639,-115.35
13651,-103.02
13663,-87.29
13675,-69.89
13687,-52.74
13699,-37.48
13711,-25.23
13723,-16.42
13735,-10.88
13747,-8.02
13758,-7.06
13769,-7.21
13781,-7.81
13793,-8.35
13805,-8.48
13817,-7.99
13829,-6.72
13841,-4.62
13853,-1.74
13865,1.8
13877,5.85
13889,10.2
13901,14.67
13913,19.02
13925,22.87
13937,25.76
13948,27.09
13959,26.32
13971,23.16
13983,17.61
13995,9.97
14007,0.72
14019,-9.62
14031,-20.47
14043,-31.26
14055,-41.41
14067,-50.4
14079,-57.92
14091,-63.99
14103,-68.8
14115,-72.55
14127,-75.16
14138,-76.11
14149,-74.62
14161,-70.05
14173,-62.24
14185,-51.77
14197,-39.71
14209,-27.25
14221,-15.33
14233,-4.42
14245,5.32
14257,13.79
14269,20.77
14281,25.98
14293,29.24
14305,30.66
14317,30.63
14328,29.6
14339,27.88
14351,25.4
14363,21.81
14375,16.73
14387,10.12
14399,2.46
14411,-5.14
14423,-11.29
14435,-14.64
14447,-14.31
14459,-10.17
14471,-2.88
14483,6.26
14495,15.78
14507,24.42
14518,31.47
14529,36.77
14541,40.53
14553,43.11
14565,44.78
14577,45.62
14589,45.64
14601,44.94
14613,43.74
14625,42.38
14637,41.23
14649,40.45
14661,40.04
14673,39.82
14685,39.63
14697,39.43
14708,39.36
14719,39.58
14731,40.16
14743,40.94
14755,41.59
14767,41.69
14779,41.02
14791,39.58
14803,37.64
14815,35.58
14827,33.64
14839,31.91
14851,30.32
14863,28.72
14875,27.06
14887,25.32
14898,23.53
14909,21.65
14921,19.64
14933,17.42
14945,15.02
14957,12.58
14969,10.32
14981,8.41
14993,6.95
15005,5.92
15017,5.16
15029,4.51
15041,3.83
15053,3.01
15065,2.02
15077,0.91
15088,-0.22
15099,-1.24
15111,-2.02
15123,-2.55
15135,-2.92
15147,-3.29
15159,-3.84
15171,-4.67
15183,-5.76
15195,-7.04
15207,-8.38
15219,-9.75
15231,-11.19
15243,-12.85
15255,-14.84
15267,-17.23
15278,-19.96
15289,-22.91
15301,-25.85
15313,-28.54
15325,-30.78
15337,-32.52
15349,-33.85
15361,-35.1
15373,-36.78
15385,-39.36
15397,-43.07
15409,-47.61
15421,-52.13
15433,-55.36
15445,-56.07
15457,-53.5
15468,-47.65
15479,-39.35
15491,-29.85
15503,-20.45
15515,-12.07
15527,-5.22
15539,0.02
15551,3.75
15563,6.15
15575,7.41
15587,7.78
15599,7.58
15611,7.15
15623,6.74
15635,6.49
15647,6.37
15658,6.24
15669,5.97
15681,5.54
15693,5.12
15705,5.02
15717,5.63
15729,7.17
15741,9.66
15753,12.83
15765,16.18
15777,19.15
15789,21.3
15801,22.43
15813,22.6
15825,22.05
15837,21.09
15848,19.98
15859,18.87
15871,17.75
15883,16.52
15895,15.04
15907,13.23
15919,11.16
15931,9.03
15943,7.13
15955,5.71
15967,4.82
15979,4.3
15991,3.85
16003,3.12
16015,1.88
16027,0.09
16038,-2.14
16049,-4.61
16061,-7.07
16073,-9.3
16085,-11.13
16097,-12.43
16109,-13.21
16121,-13.62
16133,-13.88
16145,-14.33
16157,-15.21
16169,-16.62
16181,-18.5
16193,-20.65
16205,-22.83
16217,-24.88
16228,-26.8
16239,-28.79
16251,-31.18
16263,-34.3
16275,-38.23
16287,-42.67
16299,-46.81
16311,-49.56
16323,-49.79
16335,-46.83
16347,-40.59
16359,-31.73
16371,-21.36
16383,-10.77
16395,-1.04
16407,7.12
16418,13.37
16429,17.7
16441,20.27
16453,21.36
16465,21.37
16477,20.73
16489,19.84
16501,18.99
16513,18.29
16525,17.66
16537,16.85
16549,15.65
16561,13.96
16573,11.86
16585,9.65
16597,7.75
16608,6.57
16619,6.42
16631,7.36
16643,9.17
16655,11.46
16667,13.76
16679,15.68
16691,16.92
16703,17.42
16715,17.2
16727,16.35
16739,14.97
16751,13.1
16763,10.84
16775,8.29
16787,5.62
16798,2.99
16809,0.5
16821,-1.91
16833,-4.4
16845,-7.12
16857,-10.16
16869,-13.42
16881,-16.59
16893,-19.4
16905,-21.66
16917,-23.49
16929,-25.22
16941,-27.24
16953,-29.85
16965,-33.23
16977,-37.41
16988,-42.24
16999,-47.47
17011,-52.48
17023,-56.41
17035,-58.23
17047,-56.98
17059,-52.21
17071,-44.15
17083,-33.71
17095,-22.15
17107,-10.78
17119,-0.56
17131,7.95
17143,14.59
17155,19.44
17167,22.72
17178,24.64
17189,25.43
17201,25.32
17213,24.48
17225,23.06
17237,21.27
17249,19.34
17261,17.59
17273,16.33
17285,15.8
17297,16.1
17309,17.17
17321,18.79
17333,20.7
17345,22.67
17357,24.47
17368,25.93
17379,26.88
17391,27.13
17403,26.55
17415,25.09
17427,22.82
17439,19.95
17451,16.75
17463,13.49
17475,10.38
17487,7.46
17499,4.61
17511,1.62
17523,-1.72
17535,-5.54
17547,-9.79
17558,-14.26
17569,-18.64
17581,-22.62
17593,-26.03
17605,-28.89
17617,-31.44
17629,-34.1
17641,-37.35
17653,-41.6
17665,-47.04
17677,-53.42
17689,-60.01
17701,-65.56
17713,-68.63
17725,-67.99
17737,-63.06
17748,-54.17
17759,-42.44
17771,-29.43
17783,-16.64
17795,-5.15
17807,4.56
17819,12.47
17831,18.83
17843,23.9
17855,27.9
17867,30.95
17879,33.1
17891,34.34
17903,34.65
17915,34.05
17927,32.75
17938,31.12
17949,29.63
17961,28.75
17973,28.76
17985,29.72
17997,31.51
18009,33.91
18021,36.68
18033,39.58
18045,42.26
18057,44.39
18069,45.61
18081,45.73
18093,44.76
18105,42.9
18117,40.49
18128,37.81
18139,35.04
18151,32.2
18163,29.29
18175,26.23
18187,23.03
18199,19.69
18211,16.28
18223,12.9
18235,9.64
18247,6.53
18259,3.52
18271,0.39
18283,-3.12
18295,-7.24
18307,-11.99
18318,-17.17
18329,-22.45
18341,-27.42
18353,-31.84
18365,-35.65
18377,-39.0
18389,-42.21
18401,-45.62
18413,-49.4
18425,-53.37
18437,-56.85
18449,-58.78
18461,-57.89
18473,-53.17
18485,-44.3
18497,-31.83
18508,-17.13
18519,-1.98
18531,11.96
18543,23.52
18555,32.22
18567,38.16
18579,41.78
18591,43.68
18603,44.39
18615,44.33
18627,43.77
18639,42.83
18651,41.53
18663,39.89
18675,38.01
18687,36.06
18698,34.27
18709,32.89
18721,32.03
18733,31.72
18745,31.89
18757,32.41
18769,33.15
18781,33.88
18793,34.33
18805,34.2
18817,33.26
18829,31.5
18841,29.18
18853,26.77
18865,24.74
18877,23.39
18888,22.77
18899,22.63
18911,22.61
18923,22.38
18935,21.71
18947,20.51
18959,18.72
18971,16.32
18983,13.27
18995,9.57
19007,5.29
19019,0.61
19031,-4.21
19043,-8.94
19055,-13.41
19067,-17.64
19078,-21.83
19089,-26.31
19101,-31.52
19113,-37.76
19125,-45.02
19137,-52.81
19149,-60.09
19161,-65.53
19173,-67.74
19185,-65.79
19197,-59.48
19209,-49.48
19221,-37.06
19233,-23.84
19245,-11.32
19257,-0.51
19268,8.08
19279,14.42
19291,18.83
19303,21.69
19315,23.34
19327,24.07
19339,24.13
19351,23.74
19363,23.14
19375,22.52
19387,21.99
19399,21.6
19411,21.38
19423,21.4
19435,21.77
19447,22.63
19458,24.04
19469,25.95
19481,28.11
19493,30.12
19505,31.62
19517,32.2
19529,31.67
19541,29.99
19553,27.36
19565,24.14
19577,20.72
19589,17.47
19601,14.59
19613,12.11
19625,9.89
19637,7.84
19648,5.9
19659,4.08
19671,2.36
19683,0.63
19695,-1.38
19707,-3.95
19719,-7.3
19731,-11.48
19743,-16.39
19755,-21.77
19767,-27.3
19779,-32.64
19791,-37.49
19803,-41.66
19815,-45.1
19827,-47.97
19838,-50.63
19849,-53.5
19861,-56.77
19873,-60.18
19885,-62.87
19897,-63.49
19909,-60.63
19921,-53.33
19933,-41.46
19945,-25.81
19957,-7.89
19969,10.57
19981,28.03
19993,43.49
20005,56.46
20017,66.9
20028,75.0
20039,81.07
20051,85.44
20063,88.36
20075,90.03
20087,90.52
20099,89.82
20111,87.96
20123,84.98
20135,81.0
20147,76.23
20159,70.9
20171,65.25
20183,59.5
20195,53.79
20207,48.07
20218,42.1
20229,35.47
20241,27.82
20253,19.08
20265,9.57
20277,-0.12
20289,-9.4
20301,-17.93
20313,-25.66
20325,-32.72
20337,-39.13
20349,-44.77
20361,-49.43
20373,-53.03
20385,-55.71
20397,-57.8
20408,-59.63
20419,-61.27
20431,-62.53
20443,-63.08
20455,-62.7
20467,-61.44
20479,-59.58
20491,-57.54
20503,-55.68
20515,-54.19
20527,-53.2
20539,-52.71
20551,-52.72
20563,-53.18
20575,-53.97
20587,-54.92
20598,-55.85
20609,-56.65
20621,-57.45
20633,-58.6
20645,-60.52
20657,-63.4
20669,-66.97
20681,-70.29
20693,-72.0
20705,-70.72
20717,-65.49
20729,-56.17
20741,-43.45
20753,-28.62
20765,-13.17
20777,1.58
20788,14.63
20799,25.37
20811,33.55
20823,39.27
20835,42.89
20847,44.92
20859,45.91
20871,46.25
20883,46.11
20895,45.49
20907,44.35
20919,42.73
20931,40.81
20943,38.85
20955,37.1
20967,35.76
20978,34.92
20989,34.6
