seconds,BVP
6,301.15
17,294.58
28,288.25
40,281.67
52,274.77
64,267.41
76,258.72
88,246.93
100,230.05
112,206.72
124,176.97
136,142.25
148,104.9
160,67.2
172,30.72
184,-4.0
196,-37.24
207,-69.7
218,-102.17
230,-135.21
242,-168.9
254,-202.63
266,-234.98
278,-264.01
290,-287.86
302,-305.49
314,-317.01
326,-323.44
338,-325.91
350,-324.92
362,-320.21
374,-311.39
386,-298.79
397,-283.81
408,-268.5
420,-254.39
432,-241.79
444,-229.63
456,-216.43
468,-201.38
480,-184.98
492,-168.64
504,-153.68
516,-140.37
528,-127.79
540,-114.39
552,-98.99
564,-81.4
576,-62.56
587,-44.13
598,-28.02
610,-16.12
622,-10.15
634,-11.33
646,-19.93
658,-34.65
670,-52.46
682,-68.96
694,-79.66
706,-81.45
718,-73.91
730,-59.54
742,-42.94
754,-29.23
766,-22.46
777,-24.5
788,-35.05
800,-52.37
812,-74.27
824,-98.82
836,-124.56
848,-150.34
860,-175.02
872,-197.53
884,-216.86
896,-232.33
908,-243.39
920,-249.39
932,-249.22
944,-241.3
956,-224.07
967,-196.69
978,-159.75
990,-115.5
1002,-67.42
1014,-19.39
1026,25.27
1038,64.49
1050,97.52
1062,124.77
1074,147.24
1086,166.09
1098,182.28
1110,196.39
1122,208.58
1134,218.53
1146,225.65
1157,229.24
1168,228.83
1180,224.35
1192,216.27
1204,205.51
1216,193.17
1228,180.25
1240,167.4
1252,154.79
1264,142.22
1276,129.19
1288,115.15
1300,99.76
1312,83.21
1324,66.3
1336,50.27
1347,36.49
1358,25.89
1370,18.6
1382,13.92
1394,10.59
1406,7.29
1418,3.14
1430,-2.13
1442,-8.29
1454,-14.82
1466,-21.32
1478,-27.6
1490,-33.65
1502,-39.63
1514,-45.76
1526,-52.3
1537,-59.5
1548,-67.53
1560,-76.23
1572,-85.21
1584,-93.79
1596,-101.35
1608,-107.48
1620,-112.16
1632,-115.71
1644,-118.54
1656,-120.86
1668,-122.56
1680,-123.16
1692,-121.98
1704,-118.28
1716,-111.5
1727,-101.43
1738,-88.31
1750,-72.94
1762,-56.71
1774,-41.37
1786,-28.71
1798,-20.09
1810,-16.16
1822,-16.64
1834,-20.55
1846,-26.56
1858,-33.41
1870,-40.31
1882,-47.04
1894,-53.85
1906,-61.16
1917,-69.3
1928,-78.26
1940,-87.7
1952,-96.99
1964,-105.44
1976,-112.41
1988,-117.24
2000,-119.37
2012,-118.21
2024,-113.31
2036,-104.51
2048,-92.1
2060,-76.88
2072,-60.02
2084,-42.81
2096,-26.35
2107,-11.43
2118,1.51
2130,12.29
2142,20.92
2154,27.53
2166,32.48
2178,36.29
2190,39.62
2202,43.05
2214,46.92
2226,51.21
2238,55.57
2250,59.48
2262,62.41
2274,63.89
2286,63.65
2297,61.65
2308,58.22
2320,54.02
2332,49.98
2344,47.08
2356,46.0
2368,46.9
2380,49.39
2392,52.73
2404,56.14
2416,59.05
2428,61.17
2440,62.35
2452,62.52
2464,61.58
2476,59.54
2487,56.67
2498,53.48
2510,50.61
2522,48.63
2534,47.76
2546,47.87
2558,48.54
2570,49.31
2582,49.9
2594,50.27
2606,50.61
2618,51.13
2630,51.96
2642,52.99
2654,53.91
2666,54.31
2677,53.72
2688,51.91
2700,48.88
2712,44.97
2724,40.71
2736,36.67
2748,33.15
2760,30.04
2772,26.8
2784,22.55
2796,16.43
2808,7.87
2820,-3.14
2832,-15.86
2844,-28.86
2856,-40.1
2867,-47.34
2878,-48.77
2890,-43.71
2902,-33.19
2914,-19.75
2926,-6.73
2938,3.01
2950,8.11
2962,9.02
2974,7.49
2986,5.5
2998,4.3
3010,4.07
3022,4.24
3034,4.29
3046,4.25
3057,4.8
3068,6.96
3080,11.69
3092,20.0
3104,33.05
3116,52.36
3128,79.44
3140,114.94
3152,157.64
3164,204.09
3176,248.98
3188,286.55
3200,312.24
3212,323.92
3224,322.1
3236,309.3
3247,288.76
3258,263.39
3270,235.3
3282,205.75
3294,175.56
3306,145.34
3318,115.63
3330,86.89
3342,59.45
3354,33.6
3366,9.69
3378,-11.84
3390,-30.55
3402,-46.22
3414,-58.96
3426,-69.25
3437,-77.76
3448,-85.18
3460,-92.0
3472,-98.46
3484,-104.57
3496,-110.15
3508,-114.86
3520,-118.2
3532,-119.45
3544,-117.78
3556,-112.49
3568,-103.33
3580,-90.74
3592,-76.03
3604,-61.06
3616,-47.88
3627,-38.2
3638,-33.08
3650,-32.83
3662,-37.09
3674,-44.99
3686,-55.29
3698,-66.6
3710,-77.51
3722,-87.1
3734,-95.34
3746,-103.18
3758,-112.1
3770,-123.18
3782,-136.23
3794,-149.48
3806,-160.17
3817,-165.75
3828,-165.12
3840,-158.97
3852,-149.38
3864,-138.62
3876,-128.24
3888,-118.65
3900,-109.57
3912,-100.77
3924,-92.53
3936,-85.48
3948,-80.09
3960,-76.11
3972,-72.6
3984,-68.34
3996,-62.37
4007,-54.26
4018,-44.05
4030,-31.94
4042,-18.04
4054,-2.6
4066,13.75
4078,29.72
4090,43.5
4102,53.39
4114,58.3
4126,58.17
4138,53.81
4150,46.38
4162,36.91
4174,26.09
4186,14.39
4197,2.37
4208,-9.18
4220,-19.39
4232,-27.69
4244,-34.01
4256,-38.83
4268,-42.85
4280,-46.48
4292,-49.66
4304,-51.88
4316,-52.56
4328,-51.6
4340,-49.73
4352,-48.35
4364,-49.16
4376,-53.4
4387,-61.28
4398,-71.84
4410,-83.19
4422,-93.11
4434,-99.78
4446,-102.23
4458,-100.52
4470,-95.49
4482,-88.28
4494,-79.83
4506,-70.65
4518,-60.72
4530,-49.77
4542,-37.55
4554,-23.99
4566,-9.27
4577,6.36
4588,22.71
4600,39.67
4612,57.04
4624,74.4
4636,91.03
4648,105.93
4660,118.09
4672,126.69
4684,131.31
4696,131.96
4708,129.05
4720,123.2
4732,114.99
4744,104.93
4756,93.33
4767,80.45
4778,66.68
4790,52.69
4802,39.53
4814,28.41
4826,20.36
4838,15.87
4850,14.66
4862,15.77
4874,17.94
4886,20.02
4898,21.25
4910,21.37
4922,20.4
4934,18.45
4946,15.55
4957,11.73
4968,7.1
4980,2.0
4992,-3.02
5004,-7.31
5016,-10.33
5028,-11.86
5040,-12.05
5052,-11.36
5064,-10.44
5076,-9.87
5088,-10.01
5100,-10.83
5112,-11.96
5124,-12.77
5136,-12.63
5147,-11.06
5158,-7.99
5170,-3.8
5182,0.73
5194,4.47
5206,6.25
5218,5.08
5230,0.57
5242,-6.79
5254,-15.47
5266,-23.16
5278,-27.48
5290,-26.7
5302,-20.48
5314,-9.94
5326,2.74
5337,15.17
5348,25.61
5360,33.33
5372,38.59
5384,42.12
5396,44.65
5408,46.61
5420,48.18
5432,49.49
5444,50.8
5456,52.56
5468,55.15
5480,58.73
5492,63.14
5504,67.95
5516,72.63
5527,76.74
5538,80.06
5550,82.55
5562,84.34
5574,85.68
5586,86.76
5598,87.81
5610,89.05
5622,90.64
5634,92.71
5646,95.25
5658,98.14
5670,101.16
5682,104.01
5694,106.34
5706,107.79
5717,108.08
5728,106.95
5740,104.34
5752,100.25
5764,94.76
5776,87.97
5788,80.07
5800,71.4
5812,62.51
5824,54.22
5836,47.54
5848,43.43
5860,42.5
5872,44.68
5884,48.93
5896,53.31
5907,55.38
5918,52.9
5930,44.59
5942,30.61
5954,12.59
5966,-6.97
5978,-25.61
5990,-41.63
6002,-54.52
6014,-64.78
6026,-73.37
6038,-81.14
6050,-88.42
6062,-95.1
6074,-100.79
6086,-105.14
6097,-108.02
6108,-109.48
6120,-109.64
6132,-108.5
6144,-105.86
6156,-101.44
6168,-95.04
6180,-86.81
6192,-77.35
6204,-67.62
6216,-58.65
6228,-51.22
6240,-45.66
6252,-41.91
6264,-39.68
6276,-38.78
6287,-39.19
6298,-41.09
6310,-44.6
6322,-49.69
6334,-56.03
6346,-63.13
6358,-70.41
6370,-77.28
6382,-83.07
6394,-87.05
6406,-88.44
6418,-86.64
6430,-81.49
6442,-73.43
6454,-63.48
6466,-53.04
6477,-43.59
6488,-36.28
6500,-31.71
6512,-29.77
6524,-29.58
6536,-29.75
6548,-28.75
6560,-25.42
6572,-19.4
6584,-11.28
6596,-2.35
6608,5.91
6620,12.34
6632,16.44
6644,18.32
6656,18.47
6667,17.48
6678,15.86
6690,14.14
6702,12.84
6714,12.47
6726,13.31
6738,15.31
6750,17.95
6762,20.5
6774,22.41
6786,23.5
6798,24.12
6810,24.99
6822,26.89
6834,30.32
6846,35.19
6857,40.9
6868,46.56
6880,51.51
6892,55.47
6904,58.5
6916,60.84
6928,62.68
6940,64.05
6952,64.84
6964,64.97
6976,64.56
6988,64.13
7000,64.25
7012,65.24
7024,67.05
7036,69.44
7047,72.08
7058,74.56
7070,76.6
7082,78.01
7094,79.34
7106,81.12
7118,83.44
7130,85.97
7142,88.33
7154,90.22
7166,91.33
7178,91.39
7190,90.02
7202,88.12
7214,86.34
7226,84.53
7237,82.01
7248,78.42
7260,74.1
7272,69.52
7284,65.26
7296,61.34
7308,59.28
7320,59.66
7332,61.26
7344,61.7
7356,59.12
7368,53.19
7380,44.58
7392,34.97
7404,25.94
7416,21.32
7427,23.88
7438,33.83
7450,49.33
7462,68.03
7474,88.01
7486,107.02
7498,123.39
7510,120.08
7522,89.91
7534,41.07
7546,-8.18
7558,-43.86
7570,-63.0
7582,-66.98
7594,-62.92
7606,-53.5
7617,-38.13
7628,-12.61
7640,25.24
7652,70.05
7664,112.03
7676,140.27
7688,147.02
7700,129.4
7712,90.57
7724,37.33
7736,-20.36
7748,-74.36
7760,-120.58
7772,-158.37
7784,-188.28
7796,-210.53
7807,-225.66
7818,-234.73
7830,-240.32
7842,-244.44
7854,-248.49
7866,-252.71
7878,-255.61
7890,-254.41
7902,-246.35
7914,-230.88
7926,-209.94
7938,-187.6
7950,-167.52
7962,-152.06
7974,-141.85
7986,-135.82
7997,-131.93
8008,-127.94
8020,-122.3
8032,-114.41
8044,-104.9
8056,-95.3
8068,-88.0
8080,-85.84
8092,-91.31
8104,-105.65
8116,-127.85
8128,-154.4
8140,-179.5
8152,-196.37
8164,-198.93
8176,-183.67
8187,-150.77
8198,-104.13
8210,-50.29
8222,3.64
8234,52.04
8246,92.02
8258,123.45
8270,147.83
8282,166.92
8294,181.65
8306,192.02
8318,197.63
8330,198.54
8342,195.59
8354,190.2
8366,183.73
8377,176.95
8388,169.8
8400,161.83
8412,152.7
8424,142.57
8436,132.07
8448,121.85
8460,112.11
8472,102.26
8484,91.16
8496,77.67
8508,61.24
8520,42.33
8532,22.26
8544,2.61
8556,-15.39
8567,-31.21
8578,-44.95
8590,-56.76
8602,-66.47
8614,-73.37
8626,-76.58
8638,-75.69
8650,-71.2
8662,-64.5
8674,-57.37
8686,-51.3
8698,-47.04
8710,-44.58
8722,-43.41
8734,-42.99
8746,-42.98
8757,-43.37
8768,-44.19
8780,-45.23
8792,-46.09
8804,-46.3
8816,-45.59
8828,-44.17
8840,-42.68
8852,-41.79
8864,-41.8
8876,-42.23
8888,-41.73
8900,-38.58
8912,-31.49
8924,-20.36
8936,-6.44
8947,7.96
8958,20.09
8970,27.55
8982,28.89
8994,24.28
9006,15.05
9018,3.1
9030,-9.91
9042,-22.75
9054,-34.54
9066,-44.69
9078,-52.77
9090,-58.42
9102,-60.65
9114,-58.6
9126,-51.97
9137,-41.58
9148,-28.8
9160,-14.99
9172,-1.61
9184,9.2
9196,14.2
9208,10.7
9220,-3.27
9232,-27.71
9244,-60.53
9256,-97.17
9268,-130.99
9280,-155.26
9292,-165.26
9304,-159.4
9316,-137.67
9327,-102.21
9338,-56.18
9350,-4.28
9362,48.83
9374,100.12
9386,148.47
9398,194.32
9410,229.46
9422,245.24
9434,239.45
9446,220.22
9458,197.61
9470,177.08
9482,159.03
9494,141.06
9506,120.19
9517,94.62
9528,69.67
9540,46.36
9552,27.09
9564,12.92
9576,3.35
9588,-2.97
9600,-7.63
9612,-12.02
9624,-16.95
9636,-21.39
9648,-25.9
9660,-29.86
9672,-33.91
9684,-39.22
9696,-46.48
9707,-55.48
9718,-65.5
9730,-75.85
9742,-85.47
9754,-94.01
9766,-100.85
9778,-106.24
9790,-110.63
9802,-114.22
9814,-116.91
9826,-118.68
9838,-119.7
9850,-119.95
9862,-119.62
9874,-118.51
9886,-117.0
9897,-115.93
9908,-116.26
9920,-118.58
9932,-122.54
9944,-126.5
9956,-127.31
9968,-121.2
9980,-104.48
9992,-75.21
10004,-34.21
10016,14.82
10028,65.92
10040,112.22
10052,147.84
10064,169.52
10076,177.46
10087,175.41
10098,169.38
10110,165.76
10122,169.55
10134,182.84
10146,204.1
10158,228.37
10170,248.5
10182,256.91
10194,247.67
10206,218.33
10218,171.13
10230,112.93
10242,53.73
10254,3.89
10266,-29.02
10277,-42.28
10288,-38.45
10300,-23.71
10312,-5.28
10324,11.1
10336,22.46
10348,28.43
10360,30.13
10372,28.68
10384,24.65
10396,18.28
10408,10.1
10420,1.28
10432,-6.63
10444,-12.5
10456,-16.11
10467,-17.95
10478,-19.25
10490,-21.18
10502,-24.06
10514,-27.18
10526,-29.29
10538,-29.38
10550,-27.37
10562,-24.01
10574,-19.86
10586,-15.71
10598,-11.84
10610,-7.58
10622,-1.65
10634,6.92
10646,18.02
10657,30.12
10668,41.15
10680,50.31
10692,57.0
10704,61.53
10716,65.3
10728,70.26
10740,77.87
10752,88.33
10764,100.32
10776,111.97
10788,122.45
10800,129.9
10812,132.17
10824,128.0
10836,117.86
10847,104.42
10858,92.14
10870,85.57
10882,78.75
10894,68.84
10906,52.34
10918,24.98
10930,-15.68
10942,-66.59
10954,-118.58
10966,-159.62
10978,-183.6
10990,-189.34
11002,-178.35
11014,-156.12
11026,-129.1
11037,-101.62
11048,-74.62
11060,-46.73
11072,-14.74
11084,20.99
11096,58.02
11108,92.97
11120,121.25
11132,139.61
11144,148.13
11156,150.1
11168,150.12
11180,151.44
11192,154.03
11204,155.51
11216,152.76
11227,142.72
11238,124.24
11250,98.7
11262,69.08
11274,38.19
11286,7.28
11298,-24.46
11310,-58.28
11322,-94.52
11334,-132.26
11346,-169.24
11358,-202.58
11370,-229.89
11382,-249.91
11394,-262.44
11406,-267.9
11417,-266.51
11428,-258.55
11440,-245.19
11452,-228.89
11464,-213.13
11476,-201.23
11488,-194.98
11500,-193.59
11512,-193.81
11524,-190.77
11536,-179.95
11548,-158.81
11560,-127.85
11572,-90.38
11584,-51.53
11596,-16.64
11607,10.15
11618,26.9
11630,34.06
11642,33.79
11654,29.12
11666,23.05
11678,17.97
11690,15.55
11702,16.67
11714,21.6
11726,29.9
11738,40.55
11750,52.13
11762,63.08
11774,72.13
11786,78.54
11797,82.23
11808,83.62
11820,83.35
11832,81.97
11844,79.65
11856,76.25
11868,71.4
11880,64.9
11892,56.85
11904,47.83
11916,38.62
11928,29.98
11940,22.26
11952,15.26
11964,8.3
11976,0.57
11987,-8.48
11998,-18.7
12010,-29.19
12022,-38.43
12034,-44.82
12046,-47.24
12058,-45.42
12070,-40.09
12082,-32.69
12094,-24.92
12106,-18.25
12118,-13.57
12130,-11.15
12142,-10.65
12154,-11.4
12166,-12.56
12177,-13.35
12188,-13.15
12200,-11.59
12212,-8.61
12224,-4.35
12236,0.79
12248,6.35
12260,11.8
12272,16.68
12284,20.69
12296,23.72
12308,25.87
12320,27.44
12332,28.77
12344,30.2
12356,31.93
12367,34.01
12378,36.37
12390,38.85
12402,41.22
12414,43.2
12426,44.54
12438,45.08
12450,44.79
12462,43.95
12474,43.06
12486,42.81
12498,43.82
12510,46.44
12522,50.5
12534,55.25
12546,59.52
12557,62.12
12568,62.33
12580,60.37
12592,57.4
12604,55.24
12616,55.76
12628,60.21
12640,68.74
12652,80.23
12664,92.49
12676,102.61
12688,107.42
12700,104.04
12712,90.41
12724,65.78
12736,31.03
12747,-11.41
12758,-57.86
12770,-104.11
12782,-146.12
12794,-180.71
12806,-206.05
12818,-221.85
12830,-229.27
12842,-230.51
12854,-228.26
12866,-225.24
12878,-223.66
12890,-224.94
12902,-229.35
12914,-235.66
12926,-241.17
12937,-241.97
12948,-233.97
12960,-214.09
12972,-181.2
12984,-136.4
12996,-82.34
13008,-22.32
13020,40.54
13032,103.38
13044,163.15
13056,216.29
13068,259.0
13080,288.21
13092,302.72
13104,303.77
13116,294.6
13127,279.27
13138,261.21
13150,242.47
13162,223.78
13174,205.42
13186,188.05
13198,173.13
13210,162.65
13222,158.32
13234,160.71
13246,168.79
13258,180.01
13270,190.94
13282,198.12
13294,198.98
13306,192.3
13317,178.43
13328,159.01
13340,136.49
13352,113.39
13364,91.67
13376,72.29
13388,55.05
13400,38.7
13412,21.5
13424,1.66
13436,-22.15
13448,-50.37
13460,-82.55
13472,-117.29
13484,-152.59
13496,-186.02
13507,-215.06
13518,-237.25
13530,-250.5
13542,-253.35
13554,-245.41
13566,-227.55
13578,-201.92
13590,-171.42
13602,-139.03
13614,-107.05
13626,-76.82
13638,-48.94
13650,-23.93
13662,-2.69
13674,13.43
13686,23.05
13697,25.46
13708,21.04
13720,11.19
13732,-2.21
13744,-17.44
13756,-33.35
13768,-49.33
13780,-65.05
13792,-80.04
13804,-93.62
13816,-104.94
13828,-113.18
13840,-117.65
13852,-117.81
13864,-113.19
13876,-103.6
13887,-89.26
13898,-71.17
13910,-51.09
13922,-31.2
13934,-13.5
13946,0.89
13958,12.05
13970,21.08
13982,29.55
13994,38.7
14006,48.94
14018,59.78
14030,70.13
14042,78.76
14054,84.83
14066,88.1
14077,88.91
14088,87.98
14100,86.19
14112,84.33
14124,83.03
14136,82.76
14148,83.76
14160,86.0
14172,89.07
14184,92.15
14196,94.03
14208,93.47
14220,89.5
14232,81.78
14244,70.78
14256,57.51
14267,43.23
14278,29.06
14290,15.63
14302,3.16
14314,-8.46
14326,-19.4
14338,-29.77
14350,-39.49
14362,-48.38
14374,-56.11
14386,-62.36
14398,-66.79
14410,-69.18
14422,-69.45
14434,-67.69
14446,-63.96
14457,-58.35
14468,-50.88
14480,-41.64
14492,-30.95
14504,-19.54
14516,-8.43
14528,1.23
14540,8.53
14552,13.02
14564,14.77
14576,14.26
14588,12.1
14600,8.93
14612,5.34
14624,1.86
14636,-1.1
14647,-3.36
14658,-5.18
14670,-7.18
14682,-10.17
14694,-14.75
14706,-20.97
14718,-28.28
14730,-35.69
14742,-42.22
14754,-47.22
14766,-50.56
14778,-52.46
14790,-53.22
14802,-53.02
14814,-51.85
14826,-49.63
14837,-46.41
14848,-42.46
14860,-38.21
14872,-34.15
14884,-30.66
14896,-27.98
14908,-26.15
14920,-25.18
14932,-25.01
14944,-25.61
14956,-26.96
14968,-29.09
14980,-32.06
14992,-35.92
15004,-40.64
15016,-46.15
15027,-52.21
15038,-58.57
15050,-64.97
15062,-71.11
15074,-76.61
15086,-80.99
15098,-83.62
15110,-83.93
15122,-81.54
15134,-76.55
15146,-69.59
15158,-61.69
15170,-53.98
15182,-47.36
15194,-42.33
15206,-38.88
15217,-36.66
15228,-35.15
15240,-33.89
15252,-32.58
15264,-31.12
15276,-29.57
15288,-28.02
15300,-26.48
15312,-24.79
15324,-22.64
15336,-19.7
15348,-15.83
15360,-11.12
15372,-5.97
15384,-0.98
15396,3.12
15407,5.47
15418,5.19
15430,1.45
15442,-6.14
15454,-17.2
15466,-30.41
15478,-43.79
15490,-55.54
15502,-64.92
15514,-72.78
15526,-81.28
15538,-92.7
15550,-108.16
15562,-126.86
15574,-146.32
15586,-163.55
15597,-176.27
15608,-183.68
15620,-186.2
15632,-184.65
15644,-179.43
15656,-170.17
15668,-156.12
15680,-136.81
15692,-112.47
15704,-83.98
15716,-52.46
15728,-18.9
15740,15.99
15752,51.45
15764,86.54
15776,120.05
15787,150.91
15798,178.59
15810,203.27
15822,225.75
15834,246.92
15846,267.2
15858,286.17
15870,302.63
15882,314.99
15894,321.83
15906,322.27
15918,316.22
15930,304.3
15942,287.74
15954,268.23
15966,247.67
15977,227.94
15988,210.39
16000,195.5
16012,182.51
16024,169.56
16036,154.21
16048,134.39
16060,109.14
16072,79.12
16084,46.47
16096,14.09
16108,-15.31
16120,-39.9
16132,-59.09
16144,-73.32
16156,-83.57
16167,-90.94
16178,-96.37
16190,-100.62
16202,-104.4
16214,-108.3
16226,-112.71
16238,-117.63
16250,-122.45
16262,-126.06
16274,-127.16
16286,-124.89
16298,-119.25
16310,-111.36
16322,-103.08
16334,-96.42
16346,-92.79
16357,-92.5
16368,-94.86
16380,-98.57
16392,-102.35
16404,-105.39
16416,-107.47
16428,-108.73
16440,-109.44
16452,-109.77
16464,-109.86
16476,-109.9
16488,-110.18
16500,-110.94
16512,-112.25
16524,-113.91
16536,-115.59
16547,-117.03
16558,-118.11
16570,-118.95
16582,-119.72
16594,-120.42
16606,-120.62
16618,-119.46
16630,-115.93
16642,-109.11
16654,-98.37
16666,-83.38
16678,-64.07
16690,-40.7
16702,-13.83
16714,15.74
16726,46.79
16737,77.8
16748,107.01
16760,132.71
16772,153.64
16784,168.99
16796,178.44
16808,182.16
16820,180.92
16832,176.02
16844,169.05
16856,161.43
16868,154.17
16880,148.17
16892,143.55
16904,139.53
16916,134.97
16927,129.05
16938,121.63
16950,113.11
16962,104.11
16974,95.21
16986,87.9
16998,83.11
17010,80.57
17022,79.02
17034,77.12
17046,74.06
17058,69.54
17070,63.68
17082,56.98
17094,51.89
17106,50.25
17117,51.95
17128,55.17
17140,57.72
17152,58.21
17164,56.13
17176,51.77
17188,46.26
17200,43.72
17212,47.8
17224,59.55
17236,76.94
17248,96.2
17260,113.63
17272,126.55
17284,133.97
17296,122.59
17307,87.55
17318,35.92
17330,-18.05
17342,-63.74
17354,-97.45
17366,-118.74
17378,-128.17
17390,-127.61
17402,-120.91
17414,-111.04
17426,-100.81
17438,-91.85
17450,-83.84
17462,-74.87
17474,-63.34
17486,-50.43
17497,-40.01
17508,-35.75
17520,-36.77
17532,-39.01
17544,-37.72
17556,-29.2
17568,-14.41
17580,3.9
17592,21.79
17604,35.68
17616,43.9
17628,47.5
17640,48.45
17652,48.22
17664,46.9
17676,44.08
17687,40.01
17698,35.47
17710,31.37
17722,28.6
17734,27.75
17746,28.55
17758,30.19
17770,31.7
17782,32.81
17794,34.88
17806,40.5
17818,51.23
17830,69.57
17842,96.53
17854,130.54
17866,167.14
17877,199.38
17888,220.27
17900,226.06
17912,217.71
17924,200.32
17936,180.72
17948,162.96
17960,147.42
17972,131.97
17984,112.71
17996,87.46
18008,58.12
18020,29.48
18032,6.24
18044,-9.81
18056,-22.6
18067,-37.85
18078,-58.92
18090,-88.28
18102,-126.27
18114,-170.32
18126,-216.52
18138,-260.52
18150,-297.56
18162,-324.7
18174,-337.49
18186,-329.79
18198,-302.11
18210,-261.89
18222,-220.04
18234,-187.69
18246,-172.35
18257,-175.61
18268,-195.47
18280,-223.03
18292,-243.1
18304,-245.85
18316,-228.72
18328,-194.68
18340,-151.45
18352,-108.93
18364,-57.89
18376,-3.03
18388,26.25
18400,29.26
18412,18.02
18424,-1.94
18436,-27.31
18447,-55.92
18458,-85.25
18470,-113.48
18482,-142.0
18494,-171.0
18506,-196.26
18518,-215.85
18530,-228.19
18542,-229.37
18554,-215.32
18566,-183.94
18578,-138.14
18590,-86.14
18602,-35.34
18614,12.65
18626,57.46
18637,100.12
18648,143.05
18660,183.29
18672,221.57
18684,252.19
18696,267.61
18708,263.41
18720,241.93
18732,208.81
18744,171.96
18756,140.1
18768,119.46
18780,112.73
18792,117.69
18804,129.69
18816,144.74
18827,161.32
18838,178.11
18850,192.86
18862,202.09
18874,201.28
18886,186.84
18898,157.09
18910,114.44
18922,65.53
18934,19.78
18946,-14.05
18958,-30.24
18970,-27.36
18982,-8.13
18994,22.1
19006,56.42
19017,88.59
19028,113.78
19040,128.79
19052,131.86
19064,122.61
19076,102.04
19088,72.71
19100,38.94
19112,5.92
19124,-20.93
19136,-37.34
19148,-41.14
19160,-32.77
19172,-14.75
19184,9.11
19196,34.8
19207,58.87
19218,78.67
19230,92.53
19242,99.53
19254,99.53
19266,92.97
19278,80.9
19290,64.79
19302,46.32
19314,27.09
19326,8.34
19338,-9.18
19350,-25.18
19362,-39.7
19374,-52.89
19386,-64.9
19397,-75.76
19408,-85.43
19420,-93.88
19432,-101.12
19444,-107.21
19456,-112.15
19468,-115.91
19480,-118.35
19492,-119.43
19504,-119.27
19516,-118.19
19528,-116.67
19540,-115.16
19552,-113.93
19564,-112.97
19576,-112.02
19587,-110.61
19598,-108.24
19610,-104.51
19622,-99.26
19634,-92.53
19646,-84.56
19658,-75.66
19670,-66.15
19682,-56.32
19694,-46.4
19706,-36.62
19718,-27.16
19730,-18.21
19742,-9.86
19754,-2.07
19766,5.33
19777,12.49
19788,19.43
19800,25.92
19812,31.45
19824,35.46
19836,37.54
19848,37.67
19860,36.26
19872,33.99
19884,31.6
19896,29.53
19908,27.9
19920,26.49
19932,24.98
19944,23.2
19956,21.18
19967,19.11
19978,17.24
19990,15.71
20002,14.44
20014,13.21
20026,11.74
20038,9.82
20050,7.35
20062,4.34
20074,0.86
20086,-3.09
20098,-7.52
20110,-12.49
20122,-17.99
20134,-23.9
20146,-30.01
20157,-35.95
20168,-41.29
20180,-45.59
20192,-48.45
20204,-49.61
20216,-48.96
20228,-46.53
20240,-42.5
20252,-37.04
20264,-30.35
20276,-22.66
20288,-14.34
20300,-5.83
20312,2.4
20324,10.03
20336,16.96
20347,23.35
20358,29.44
20370,35.38
20382,41.03
20394,46.05
20406,50.05
20418,52.81
20430,54.38
20442,55.05
20454,55.13
20466,54.86
20478,54.37
20490,53.77
20502,53.24
20514,53.05
20526,53.33
20537,53.97
20548,54.47
20560,54.11
20572,52.2
20584,48.35
20596,42.65
20608,35.61
20620,27.83
20632,19.83
20644,11.83
20656,3.8
20668,-4.41
20680,-12.86
20692,-21.36
20704,-29.46
20716,-36.52
20727,-41.9
20738,-45.18
20750,-46.26
20762,-45.48
20774,-43.44
20786,-40.87
20798,-38.35
20810,-36.13
20822,-34.15
20834,-32.03
20846,-29.28
20858,-25.47
20870,-20.43
20882,-14.35
20894,-7.71
20906,-1.14
20917,4.8
20928,9.8
20940,13.76
20952,16.77
20964,18.92
20976,20.19
20988,20.53
