seconds,BVP
3,61.79
15,44.57
27,23.5
39,1.79
51,-18.23
63,-35.55
75,-50.53
87,-64.18
98,-77.0
109,-88.76
121,-98.21
133,-104.1
145,-105.47
157,-102.65
169,-97.39
181,-92.13
193,-89.63
205,-91.85
217,-100.33
229,-115.32
241,-135.52
253,-157.38
265,-175.58
277,-184.63
288,-180.69
299,-163.96
311,-138.39
323,-111.08
335,-88.98
347,-76.63
359,-74.71
371,-80.88
383,-91.71
395,-104.32
407,-117.53
419,-131.02
431,-144.51
443,-156.81
455,-166.18
467,-170.96
478,-170.37
489,-164.93
501,-155.74
513,-144.26
525,-131.28
537,-117.0
549,-101.31
561,-84.37
573,-67.16
585,-51.17
597,-38.18
609,-29.34
621,-24.86
633,-23.49
645,-23.31
657,-22.41
668,-19.73
679,-15.44
691,-10.42
703,-5.7
715,-1.43
727,3.27
739,10.32
751,21.66
763,38.17
775,59.1
787,81.97
799,103.59
811,121.17
823,133.63
835,141.66
847,147.6
858,154.54
869,165.4
881,182.01
893,204.15
905,229.17
917,251.6
929,264.03
941,258.98
953,231.8
965,183.37
977,120.93
989,56.26
1001,1.29
1013,-36.17
1025,-54.99
1037,-59.86
1048,-57.63
1059,-53.31
1071,-47.9
1083,-39.28
1095,-24.83
1107,-4.59
1119,17.94
1131,37.22
1143,48.49
1155,50.01
1167,43.21
1179,31.16
1191,16.24
1203,-0.58
1215,-19.52
1227,-40.16
1238,-60.07
1249,-74.84
1261,-79.39
1273,-70.12
1285,-46.31
1297,-10.59
1309,31.88
1321,74.78
1333,111.64
1345,137.2
1357,148.1
1369,144.25
1381,129.4
1393,110.91
1405,97.94
1417,98.18
1428,114.41
1439,142.6
1451,172.91
1463,192.56
1475,190.55
1487,161.31
1499,106.64
1511,35.16
1523,-39.93
1535,-104.32
1547,-146.36
1559,-159.73
1571,-145.14
1583,-109.42
1595,-63.18
1607,-17.1
1618,21.29
1629,49.04
1641,67.58
1653,80.49
1665,91.63
1677,103.93
1689,119.76
1701,141.57
1713,171.56
1725,210.3
1737,254.52
1749,296.39
1761,324.8
1773,329.08
1785,303.55
1797,250.3
1808,179.4
1819,105.5
1831,43.5
1843,4.01
1855,-8.32
1867,5.75
1879,42.12
1891,94.95
1903,157.03
1915,219.75
1927,272.77
1939,305.81
1951,311.02
1963,285.79
1975,233.75
1987,163.58
1998,86.56
2009,13.75
2021,-45.95
2033,-86.97
2045,-107.49
2057,-110.24
2069,-102.35
2081,-94.06
2093,-96.19
2105,-116.02
2117,-154.19
2129,-203.6
2141,-251.68
2153,-284.97
2165,-294.04
2177,-277.12
2188,-240.46
2199,-196.32
2211,-158.36
2223,-136.89
2235,-135.36
2247,-149.38
2259,-168.78
2271,-182.0
2283,-181.62
2295,-167.31
2307,-145.74
2319,-126.56
2331,-116.96
2343,-117.81
2355,-123.44
2367,-125.08
2378,-115.95
2389,-94.96
2401,-66.46
2413,-37.37
2425,-12.66
2437,7.04
2449,24.28
2461,41.89
2473,59.8
2485,74.34
2497,80.19
2509,73.77
2521,55.31
2533,28.73
2545,-0.62
2557,-28.8
2568,-54.81
2579,-80.23
2591,-107.09
2603,-135.37
2615,-161.9
2627,-181.22
2639,-187.93
2651,-179.2
2663,-156.54
2675,-125.76
2687,-95.05
2699,-72.24
2711,-62.0
2723,-64.18
2735,-74.14
2747,-84.52
2758,-87.71
2769,-78.13
2781,-52.94
2793,-12.29
2805,40.81
2817,100.49
2829,158.03
2841,202.72
2853,223.89
2865,214.21
2877,173.08
2889,108.48
2901,35.48
2913,-28.0
2925,-67.09
2937,-74.33
2948,-51.43
2959,-7.49
2971,45.28
2983,96.11
2995,138.87
3007,172.47
3019,199.07
3031,220.87
3043,237.94
3055,247.43
3067,244.9
3079,227.36
3091,195.58
3103,154.82
3115,113.15
3127,78.25
3138,54.01
3149,39.23
3161,28.91
3173,17.45
3185,2.28
3197,-15.09
3209,-30.1
3221,-38.11
3233,-37.18
3245,-29.32
3257,-19.24
3269,-12.26
3281,-12.53
3293,-21.77
3305,-40.04
3317,-65.88
3328,-96.34
3339,-126.81
3351,-150.96
3363,-161.48
3375,-151.85
3387,-118.54
3399,-62.48
3411,9.87
3423,87.28
3435,155.89
3447,201.81
3459,214.61
3471,190.32
3483,133.07
3495,54.5
3507,-28.65
3518,-98.94
3529,-142.57
3541,-152.28
3553,-129.21
3565,-82.2
3577,-25.55
3589,25.04
3601,57.09
3613,65.07
3625,51.45
3637,24.65
3649,-5.31
3661,-31.84
3673,-53.83
3685,-75.07
3697,-100.45
3708,-131.51
3719,-164.23
3731,-189.69
3743,-197.83
3755,-181.72
3767,-141.51
3779,-84.54
3791,-22.85
3803,31.23
3815,70.0
3827,92.87
3839,105.78
3851,117.52
3863,135.33
3875,161.3
3887,192.26
3898,221.88
3909,243.81
3921,254.62
3933,254.11
3945,244.08
3957,226.03
3969,199.97
3981,165.0
3993,121.35
4005,72.24
4017,23.91
4029,-15.97
4041,-41.36
4053,-50.23
4065,-45.43
4077,-33.49
4088,-22.14
4099,-17.95
4111,-24.53
4123,-42.41
4135,-69.24
4147,-100.91
4159,-132.03
4171,-156.64
4183,-169.47
4195,-167.56
4207,-151.71
4219,-126.55
4231,-99.15
4243,-75.78
4255,-59.41
4267,-48.16
4278,-36.13
4289,-16.76
4301,13.68
4313,53.43
4325,95.24
4337,128.96
4349,145.62
4361,140.67
4373,115.45
4385,76.43
4397,32.32
4409,-8.45
4421,-39.66
4433,-57.95
4445,-62.61
4457,-54.15
4468,-33.27
4479,-0.42
4491,43.8
4503,96.98
4515,153.53
4527,204.5
4539,239.59
4551,250.28
4563,233.42
4575,192.58
4587,136.95
4599,78.04
4611,25.72
4623,-14.37
4635,-41.2
4647,-56.53
4658,-62.35
4669,-59.08
4681,-45.78
4693,-22.04
4705,9.88
4717,43.81
4729,70.78
4741,81.59
4753,70.28
4765,36.69
4777,-13.23
4789,-69.64
4801,-122.38
4813,-163.97
4825,-191.32
4837,-205.28
4848,-208.82
4859,-205.55
4871,-198.72
4883,-191.09
4895,-185.1
4907,-182.77
4919,-184.83
4931,-190.09
4943,-195.38
4955,-196.25
4967,-189.12
4979,-172.95
4991,-150.02
5003,-125.12
5015,-103.59
5027,-89.49
5038,-84.58
5049,-88.78
5061,-100.45
5073,-116.91
5085,-134.17
5097,-147.38
5109,-151.97
5121,-146.08
5133,-132.64
5145,-119.12
5157,-114.77
5169,-126.26
5181,-153.84
5193,-190.28
5205,-223.81
5217,-242.87
5228,-240.39
5239,-215.76
5251,-173.36
5263,-119.98
5275,-62.15
5287,-5.57
5299,44.32
5311,81.67
5323,100.58
5335,97.56
5347,73.69
5359,36.06
5371,-3.98
5383,-34.27
5395,-46.13
5407,-37.43
5418,-12.77
5429,18.7
5441,47.04
5453,64.91
5465,69.81
5477,64.02
5489,53.34
5501,44.83
5513,44.1
5525,53.15
5537,69.66
5549,87.95
5561,101.43
5573,106.21
5585,103.11
5597,97.62
5608,97.04
5619,106.3
5631,124.64
5643,145.2
5655,157.65
5667,152.57
5679,125.56
5691,78.49
5703,18.16
5715,-46.87
5727,-109.19
5739,-164.18
5751,-209.82
5763,-245.72
5775,-272.31
5787,-290.25
5798,-300.88
5809,-306.34
5821,-309.34
5833,-312.5
5845,-317.07
5857,-321.98
5869,-323.94
5881,-318.63
5893,-302.69
5905,-275.49
5917,-239.77
5929,-200.18
5941,-161.26
5953,-125.05
5965,-90.64
5977,-55.13
5988,-15.8
5999,28.02
6011,74.46
6023,119.92
6035,160.63
6047,193.59
6059,217.11
6071,230.68
6083,234.58
6095,229.89
6107,218.48
6119,202.91
6131,185.79
6143,169.35
6155,154.82
6167,142.55
6178,132.45
6189,124.52
6201,119.44
6213,118.53
6225,123.79
6237,137.34
6249,160.86
6261,194.71
6273,237.04
6285,283.73
6297,328.67
6309,365.6
6321,389.74
6333,399.89
6345,398.81
6357,392.01
6368,385.09
6379,380.61
6391,376.56
6403,366.94
6415,344.63
6427,304.78
6439,247.21
6451,176.72
6463,101.11
6475,28.22
6487,-36.57
6499,-91.03
6511,-135.49
6523,-171.26
6535,-199.49
6547,-221.44
6558,-239.2
6569,-256.11
6581,-275.81
6593,-300.25
6605,-327.51
6617,-351.44
6629,-363.49
6641,-356.2
6653,-326.91
6665,-279.2
6677,-221.72
6689,-164.67
6701,-115.93
6713,-78.82
6725,-52.03
6737,-31.56
6748,-12.89
6759,7.05
6771,29.87
6783,56.2
6795,86.54
6807,121.33
6819,160.59
6831,202.9
6843,244.93
6855,281.58
6867,307.08
6879,317.05
6891,309.95
6903,287.71
6915,254.52
6927,215.07
6938,172.58
6949,128.27
6961,81.88
6973,33.29
6985,-16.32
6997,-64.54
7009,-108.84
7021,-148.12
7033,-183.54
7045,-217.94
7057,-253.95
7069,-292.06
7081,-329.18
7093,-359.03
7105,-374.08
7117,-368.22
7128,-338.97
7139,-288.52
7151,-222.99
7163,-150.52
7175,-78.98
7187,-14.53
7199,39.24
7211,81.1
7223,111.86
7235,134.13
7247,152.06
7259,170.95
7271,195.44
7283,227.57
7295,264.61
7307,298.75
7318,318.63
7329,313.16
7341,275.86
7353,208.39
7365,121.8
7377,34.09
7389,-34.98
7401,-70.69
7413,-68.76
7425,-37.52
7437,5.08
7449,38.15
7461,45.71
7473,22.68
7485,-23.98
7497,-78.75
7508,-124.29
7519,-147.62
7531,-143.36
7543,-113.42
7555,-64.08
7567,-3.68
7579,58.63
7591,112.68
7603,148.12
7615,156.61
7627,135.42
7639,90.32
7651,35.31
7663,-11.36
7675,-33.78
7687,-23.79
7698,16.63
7709,77.42
7721,144.98
7733,206.68
7745,253.38
7757,279.34
7769,281.44
7781,258.63
7793,213.16
7805,151.19
7817,82.55
7829,18.24
7841,-33.48
7853,-70.22
7865,-96.22
7877,-120.08
7888,-150.55
7899,-191.95
7911,-241.96
7923,-292.24
7935,-331.4
7947,-349.1
7959,-339.42
7971,-302.85
7983,-245.63
7995,-178.06
8007,-111.75
8019,-57.06
8031,-21.31
8043,-7.5
8055,-13.93
8067,-34.28
8078,-59.18
8089,-78.04
8101,-81.73
8113,-64.97
8125,-27.6
8137,26.06
8149,89.29
8161,155.43
8173,219.59
8185,278.55
8197,329.85
8209,371.01
8221,399.22
8233,412.33
8245,410.17
8257,395.04
8268,371.06
8279,342.9
8291,314.18
8303,286.9
8315,261.96
8327,239.69
8339,220.35
8351,203.65
8363,188.25
8375,171.39
8387,149.51
8399,119.67
8411,81.66
8423,39.13
8435,-1.09
8447,-30.84
8458,-44.3
8469,-40.85
8481,-25.85
8493,-8.74
8505,0.81
8517,-2.87
8529,-19.54
8541,-43.82
8553,-68.1
8565,-86.13
8577,-95.68
8589,-98.17
8601,-96.92
8613,-94.88
8625,-93.08
8637,-90.93
8648,-87.07
8659,-80.47
8671,-70.72
8683,-58.28
8695,-44.09
8707,-29.77
8719,-17.63
8731,-10.55
8743,-11.09
8755,-20.05
8767,-35.63
8779,-53.43
8791,-68.19
8803,-75.55
8815,-74.2
8827,-65.76
8838,-53.8
8849,-42.08
8861,-33.56
8873,-30.36
8885,-34.27
8897,-47.09
8909,-69.74
8921,-101.18
8933,-137.44
8945,-172.14
8957,-198.56
8969,-212.33
8981,-213.5
8993,-206.63
9005,-199.11
9017,-198.39
9028,-209.03
9039,-231.18
9051,-260.43
9063,-289.37
9075,-309.84
9087,-315.57
9099,-303.88
9111,-276.37
9123,-238.32
9135,-196.82
9147,-158.74
9159,-128.58
9171,-107.56
9183,-93.2
9195,-80.57
9207,-64.07
9218,-39.92
9229,-7.61
9241,30.09
9253,68.61
9265,104.26
9277,136.22
9289,167.18
9301,201.68
9313,243.08
9325,290.56
9337,338.22
9349,376.39
9361,394.68
9373,385.81
9385,348.18
9397,287.0
9408,213.38
9419,141.43
9431,84.44
9443,51.06
9455,42.86
9467,53.91
9479,73.13
9491,88.05
9503,88.74
9515,70.1
9527,31.99
9539,-21.97
9551,-85.75
9563,-151.15
9575,-208.29
9587,-246.16
9598,-255.48
9609,-232.55
9621,-182.42
9633,-119.1
9645,-61.76
9657,-28.01
9669,-27.31
9681,-57.64
9693,-106.87
9705,-158.37
9717,-197.62
9729,-217.0
9741,-216.78
9753,-202.97
9765,-183.57
9777,-165.63
9788,-153.81
9799,-150.15
9811,-154.41
9823,-164.09
9835,-174.12
9847,-177.57
9859,-167.4
9871,-139.12
9883,-93.12
9895,-35.19
9907,25.28
9919,78.31
9931,116.13
9943,135.18
9955,136.33
9967,124.22
9978,105.98
9989,89.38
10001,80.29
10013,80.29
10025,85.74
10037,89.03
10049,82.67
10061,63.63
10073,36.21
10085,10.93
10097,0.12
10109,11.93
10121,45.99
10133,92.93
10145,137.72
10157,165.29
10168,165.17
10179,134.23
10191,76.85
10203,3.19
10215,-73.58
10227,-140.5
10239,-187.98
10251,-211.96
10263,-214.12
10275,-200.39
10287,-178.06
10299,-153.35
10311,-130.7
10323,-113.51
10335,-105.37
10347,-109.79
10358,-128.44
10369,-158.68
10381,-192.49
10393,-218.91
10405,-228.36
10417,-217.55
10429,-190.76
10441,-157.5
10453,-127.28
10465,-105.36
10477,-91.59
10489,-82.79
10501,-76.67
10513,-74.02
10525,-78.14
10537,-91.13
10548,-111.13
10559,-131.35
10571,-142.9
10583,-138.85
10595,-117.42
10607,-82.58
10619,-41.44
10631,-0.79
10643,35.91
10655,68.83
10667,100.35
10679,132.47
10691,165.08
10703,195.91
10715,221.72
10727,240.4
10738,252.09
10749,259.46
10761,266.47
10773,276.51
10785,290.72
10797,307.11
10809,321.12
10821,327.18
10833,320.74
10845,299.82
10857,265.47
10869,221.13
10881,171.35
10893,120.82
10905,73.6
10917,33.28
10928,2.5
10939,-17.12
10951,-25.7
10963,-25.11
10975,-18.2
10987,-8.0
10999,3.66
11011,16.41
11023,31.28
11035,49.34
11047,70.5
11059,92.35
11071,110.37
11083,119.36
11095,115.29
11107,97.73
11118,70.34
11129,40.33
11141,16.11
11153,4.43
11165,8.33
11177,26.71
11189,55.18
11201,87.31
11213,116.0
11225,134.0
11237,134.96
11249,115.25
11261,76.31
11273,26.12
11285,-21.74
11297,-52.53
11308,-56.34
11319,-32.68
11331,8.12
11343,48.39
11355,70.05
11367,61.65
11379,23.07
11391,-34.38
11403,-92.19
11415,-131.41
11427,-139.33
11439,-113.96
11451,-64.65
11463,-8.53
11475,35.04
11487,51.18
11498,34.26
11509,-10.59
11521,-69.51
11533,-124.92
11545,-161.54
11557,-171.22
11569,-155.04
11581,-122.21
11593,-86.0
11605,-58.96
11617,-48.94
11629,-57.48
11641,-80.58
11653,-111.27
11665,-141.9
11677,-165.72
11688,-177.4
11699,-172.9
11711,-150.1
11723,-110.15
11735,-58.07
11747,-2.11
11759,49.07
11771,89.63
11783,118.96
11795,140.96
11807,160.76
11819,180.39
11831,196.29
11843,200.4
11855,184.45
11867,145.15
11878,87.27
11889,23.12
11901,-31.52
11913,-62.85
11925,-63.62
11937,-35.12
11949,13.47
11961,67.84
11973,112.64
11985,135.61
11997,131.08
12009,101.01
12021,54.07
12033,2.09
12045,-43.97
12057,-76.72
12068,-93.4
12079,-94.4
12091,-81.84
12103,-58.79
12115,-30.0
12127,-2.82
12139,13.66
12151,11.13
12163,-13.91
12175,-57.75
12187,-109.51
12199,-154.87
12211,-181.16
12223,-182.33
12235,-161.15
12247,-127.37
12258,-93.84
12269,-71.35
12281,-64.79
12293,-71.72
12305,-84.16
12317,-91.89
12329,-86.49
12341,-64.12
12353,-26.32
12365,20.63
12377,67.87
12389,105.64
12401,125.38
12413,121.22
12425,91.63
12437,40.53
12448,-23.11
12459,-87.42
12471,-141.24
12483,-177.04
12495,-192.52
12507,-189.54
12519,-171.38
12531,-140.56
12543,-98.18
12555,-45.94
12567,11.58
12579,65.92
12591,106.55
12603,125.16
12615,119.98
12627,97.69
12638,71.31
12649,55.1
12661,58.56
12673,83.16
12685,122.64
12697,166.46
12709,204.22
12721,228.6
12733,235.89
12745,225.57
12757,200.16
12769,165.35
12781,130.12
12793,105.29
12805,99.89
12817,117.15
12828,152.29
12839,193.03
12851,223.93
12863,232.1
12875,211.64
12887,165.65
12899,105.23
12911,45.88
12923,2.89
12935,-13.29
12947,-0.83
12959,32.6
12971,72.09
12983,100.72
12995,106.79
13007,88.91
13018,56.54
13029,25.38
13041,9.68
13053,15.06
13065,35.99
13077,58.81
13089,68.65
13101,57.3
13113,27.27
13125,-9.74
13137,-38.96
13149,-49.87
13161,-41.48
13173,-22.06
13185,-4.57
13197,-0.07
13208,-13.16
13219,-41.56
13231,-79.42
13243,-120.98
13255,-162.42
13267,-200.8
13279,-231.16
13291,-245.5
13303,-235.07
13315,-195.64
13327,-132.02
13339,-58.63
13351,5.38
13363,43.83
13375,49.91
13387,28.21
13398,-8.63
13409,-45.86
13421,-71.86
13433,-80.38
13445,-69.58
13457,-40.26
13469,5.09
13481,61.46
13493,120.6
13505,171.31
13517,201.96
13529,204.52
13541,177.52
13553,126.52
13565,61.49
13577,-6.89
13588,-70.67
13599,-125.76
13611,-171.3
13623,-207.92
13635,-235.84
13647,-254.36
13659,-261.95
13671,-257.11
13683,-239.06
13695,-208.37
13707,-167.02
13719,-118.56
13731,-68.04
13743,-21.6
13755,14.04
13767,32.84
13778,30.76
13789,7.14
13801,-34.31
13813,-85.83
13825,-136.82
13837,-176.14
13849,-194.63
13861,-187.34
13873,-154.33
13885,-101.22
13897,-38.33
13909,21.19
13921,63.7
13933,78.48
13945,60.87
13957,14.17
13968,-50.87
13979,-118.65
13991,-173.18
14003,-202.36
14015,-200.8
14027,-170.62
14039,-120.35
14051,-62.66
14063,-11.36
14075,21.55
14087,29.0
14099,10.89
14111,-25.62
14123,-68.03
14135,-102.24
14147,-116.96
14158,-106.76
14169,-73.43
14181,-24.52
14193,29.65
14205,79.3
14217,117.85
14229,143.31
14241,157.64
14253,165.25
14265,170.9
14277,177.66
14289,186.1
14301,194.67
14313,200.95
14325,203.4
14337,202.42
14348,200.26
14359,199.74
14371,202.56
14383,207.8
14395,211.74
14407,209.11
14419,195.11
14431,167.5
14443,127.84
14455,81.26
14467,35.18
14479,-2.73
14491,-26.79
14503,-34.96
14515,-29.18
14527,-14.54
14538,2.58
14549,16.76
14561,24.89
14573,26.67
14585,23.62
14597,17.59
14609,9.42
14621,-0.96
14633,-13.45
14645,-26.18
14657,-34.6
14669,-32.8
14681,-15.83
14693,17.15
14705,61.1
14717,106.06
14728,140.78
14739,157.41
14751,155.15
14763,140.7
14775,125.28
14787,120.02
14799,131.38
14811,159.02
14823,196.62
14835,234.46
14847,262.95
14859,275.12
14871,268.19
14883,243.64
14895,206.52
14907,164.05
14918,123.9
14929,92.8
14941,75.41
14953,73.88
14965,87.6
14977,113.15
14989,144.28
15001,172.53
15013,188.83
15025,185.77
15037,160.31
15049,114.92
15061,56.86
15073,-4.41
15085,-60.33
15097,-106.01
15108,-141.05
15119,-168.53
15131,-193.35
15143,-219.99
15155,-251.24
15167,-287.2
15179,-325.25
15191,-360.62
15203,-388.2
15215,-404.98
15227,-411.87
15239,-414.02
15251,-418.69
15263,-431.78
15275,-454.52
15287,-482.18
15298,-505.45
15309,-514.36
15321,-502.24
15333,-467.86
15345,-414.94
15357,-350.22
15369,-281.43
15381,-216.18
15393,-161.78
15405,-124.68
15417,-109.07
15429,-114.92
15441,-136.99
15453,-165.73
15465,-190.22
15477,-201.65
15488,-196.05
15499,-174.39
15511,-141.01
15523,-101.21
15535,-59.6
15547,-19.72
15559,15.19
15571,41.59
15583,56.01
15595,56.27
15607,43.27
15619,21.58
15631,-1.09
15643,-15.87
15655,-16.03
15667,-0.09
15678,26.89
15689,54.98
15701,73.54
15713,76.09
15725,63.58
15737,43.98
15749,28.26
15761,25.35
15773,38.34
15785,64.17
15797,96.13
15809,127.57
15821,154.56
15833,176.36
15845,194.44
15857,210.95
15868,227.14
15879,242.51
15891,254.56
15903,259.33
15915,252.75
15927,232.99
15939,202.37
15951,167.4
15963,136.56
15975,116.06
15987,106.55
15999,102.4
16011,94.61
16023,75.63
16035,43.94
16047,5.38
16058,-29.32
16069,-49.16
16081,-47.49
16093,-24.0
16105,16.24
16117,65.98
16129,118.71
16141,170.16
16153,217.92
16165,260.1
16177,294.58
16189,318.87
16201,331.34
16213,331.57
16225,320.1
16237,297.55
16248,264.12
16259,220.41
16271,168.91
16283,115.37
16295,67.69
16307,33.24
16319,15.24
16331,10.8
16343,11.97
16355,9.21
16367,-4.36
16379,-30.79
16391,-67.77
16403,-111.27
16415,-158.25
16427,-207.26
16438,-256.97
16449,-303.46
16461,-339.25
16473,-354.74
16485,-342.27
16497,-300.28
16509,-234.8
16521,-157.53
16533,-80.73
16545,-12.55
16557,44.98
16569,93.91
16581,136.25
16593,170.3
16605,190.43
16617,189.95
16628,164.87
16639,116.47
16651,51.11
16663,-21.76
16675,-92.05
16687,-150.2
16699,-187.97
16711,-199.13
16723,-180.98
16735,-136.28
16747,-73.73
16759,-5.97
16771,54.29
16783,98.24
16795,122.68
16807,128.84
16818,119.73
16829,98.31
16841,67.74
16853,32.79
16865,0.92
16877,-19.5
16889,-22.46
16901,-7.7
16913,18.42
16925,45.27
16937,62.09
16949,61.56
16961,41.36
16973,3.18
16985,-48.95
16997,-109.36
17008,-170.56
17019,-223.17
17031,-257.17
17043,-264.83
17055,-244.39
17067,-201.67
17079,-149.05
17091,-101.37
17103,-70.69
17115,-62.11
17127,-72.68
17139,-93.29
17151,-112.8
17163,-122.6
17175,-119.14
17187,-104.32
17198,-83.36
17209,-61.82
17221,-43.26
17233,-28.34
17245,-15.49
17257,-2.96
17269,9.74
17281,21.81
17293,32.2
17305,41.46
17317,52.57
17329,69.74
17341,95.83
17353,129.14
17365,161.98
17377,182.37
17388,178.63
17399,144.73
17411,83.72
17423,7.67
17435,-66.42
17447,-122.33
17459,-149.51
17471,-145.15
17483,-113.42
17495,-63.11
17507,-5.2
17519,48.92
17531,89.23
17543,108.31
17555,103.24
17567,76.56
17578,36.02
17589,-7.6
17601,-44.06
17613,-66.67
17625,-73.33
17637,-65.56
17649,-46.3
17661,-17.85
17673,18.73
17685,62.75
17697,112.76
17709,165.69
17721,217.17
17733,262.72
17745,298.46
17757,321.33
17768,329.08
17779,320.23
17791,294.37
17803,253.3
17815,201.23
17827,144.35
17839,89.37
17851,41.93
17863,5.03
17875,-21.11
17887,-38.54
17899,-50.57
17911,-60.36
17923,-70.43
17935,-82.29
17947,-96.66
17958,-113.27
17969,-130.64
17981,-145.76
17993,-154.32
18005,-151.64
18017,-134.31
18029,-101.93
18041,-58.14
18053,-10.23
18065,32.7
18077,62.49
18089,74.04
18101,66.34
18113,42.0
18125,6.52
18137,-32.57
18148,-66.25
18159,-85.12
18171,-81.68
18183,-52.91
18195,-2.61
18207,58.55
18219,115.2
18231,152.04
18243,158.71
18255,133.37
18267,83.28
18279,22.16
18291,-34.36
18303,-73.72
18315,-89.68
18327,-83.68
18338,-63.15
18349,-38.29
18361,-18.17
18373,-7.72
18385,-6.56
18397,-10.21
18409,-12.64
18421,-9.31
18433,0.68
18445,14.36
18457,26.25
18469,30.4
18481,22.48
18493,1.02
18505,-32.35
18517,-73.39
18528,-116.09
18539,-154.01
18551,-181.52
18563,-195.07
18575,-194.05
18587,-180.53
18599,-158.17
18611,-130.7
18623,-101.24
18635,-72.65
18647,-48.57
18659,-33.79
18671,-33.19
18683,-49.35
18695,-80.12
18707,-118.01
18718,-152.16
18729,-172.0
18741,-171.04
18753,-148.2
18765,-106.92
18777,-53.1
18789,6.64
18801,65.16
18813,114.14
18825,144.41
18837,148.01
18849,121.65
18861,69.74
18873,4.8
18885,-55.59
18897,-94.37
18908,-100.49
18919,-72.58
18931,-18.69
18943,46.82
18955,108.1
18967,152.14
18979,171.78
18991,166.69
19003,142.67
19015,109.67
19027,78.69
19039,58.79
19051,54.7
19063,66.03
19075,88.24
19087,114.89
19098,140.27
19109,161.47
19121,178.8
19133,194.72
19145,211.75
19157,230.1
19169,246.62
19181,255.31
19193,249.33
19205,223.9
19217,179.0
19229,120.59
19241,59.72
19253,9.39
19265,-19.84
19277,-23.93
19288,-7.06
19299,19.72
19311,42.46
19323,49.29
19335,34.01
19347,-2.53
19359,-53.56
19371,-108.95
19383,-157.94
19395,-191.42
19407,-203.44
19419,-192.46
19431,-161.49
19443,-117.77
19455,-71.08
19467,-31.03
19478,-4.14
19489,7.9
19501,7.98
19513,1.57
19525,-6.2
19537,-12.39
19549,-16.71
19561,-20.32
19573,-24.47
19585,-29.65
19597,-35.93
19609,-43.9
19621,-55.35
19633,-73.25
19645,-100.35
19657,-137.42
19668,-181.7
19679,-226.78
19691,-264.15
19703,-285.83
19715,-287.17
19727,-268.09
19739,-232.51
19751,-186.3
19763,-134.81
19775,-81.76
19787,-29.48
19799,18.94
19811,58.39
19823,82.11
19835,84.23
19847,63.31
19858,24.68
19869,-20.42
19881,-58.48
19893,-78.48
19905,-75.88
19917,-53.49
19929,-20.04
19941,13.38
19953,37.3
19965,47.23
19977,44.86
19989,36.83
20001,31.43
20013,33.79
20025,42.77
20037,50.86
20048,48.11
20059,28.05
20071,-7.18
20083,-46.48
20095,-74.26
20107,-77.91
20119,-54.24
20131,-11.35
20143,35.23
20155,69.55
20167,82.33
20179,74.35
20191,55.0
20203,37.25
20215,31.74
20227,42.75
20238,67.59
20249,99.09
20261,129.31
20273,152.5
20285,166.18
20297,170.22
20309,165.14
20321,151.05
20333,127.88
20345,96.69
20357,61.23
20369,28.06
20381,5.17
20393,-1.17
20405,10.19
20417,33.56
20428,57.66
20439,70.09
20451,62.85
20463,36.51
20475,0.24
20487,-32.19
20499,-48.65
20511,-44.07
20523,-21.97
20535,8.04
20547,35.43
20559,53.36
20571,60.88
20583,61.66
20595,61.07
20607,63.41
20618,70.45
20629,81.94
20641,96.93
20653,115.01
20665,136.88
20677,163.61
20689,195.11
20701,228.44
20713,257.56
20725,274.55
20737,272.64
20749,249.31
20761,207.88
20773,156.61
20785,105.95
20797,65.18
20808,39.72
20819,30.86
20831,36.4
20843,51.93
20855,71.42
20867,87.81
20879,94.01
20891,85.26
20903,61.64
20915,28.94
20927,-2.79
20939,-23.75
20951,-29.01
20963,-21.16
20975,-9.02
20987,-3.5
20998,-12.36
