seconds,BVP
10,0.52
22,0.2
34,-0.19
46,-0.64
58,-1.22
69,-2.09
80,-3.41
92,-5.19
104,-7.19
116,-8.99
128,-10.12
140,-10.26
152,-9.38
164,-7.67
176,-5.47
188,-3.02
200,-0.45
212,2.2
224,4.88
236,7.34
248,9.26
259,10.33
270,10.45
282,9.75
294,8.62
306,7.41
318,6.4
330,5.61
342,4.92
354,4.18
366,3.36
378,2.55
390,1.91
402,1.55
414,1.39
426,1.29
438,1.04
449,0.49
460,-0.31
472,-1.2
484,-2.0
496,-2.59
508,-3.09
520,-3.73
532,-4.83
544,-6.6
556,-9.02
568,-11.82
580,-14.52
592,-16.63
604,-17.77
616,-17.81
628,-16.8
639,-14.91
650,-12.28
662,-9.04
674,-5.28
686,-1.18
698,2.94
710,6.61
722,9.39
734,10.94
746,11.21
758,10.43
770,8.95
782,7.14
794,5.28
806,3.54
818,2.0
829,0.71
840,-0.3
852,-1.03
864,-1.53
876,-1.89
888,-2.19
900,-2.51
912,-2.88
924,-3.31
936,-3.84
948,-4.55
960,-5.56
972,-6.95
984,-8.76
996,-10.89
1008,-13.19
1019,-15.41
1030,-17.21
1042,-18.28
1054,-18.32
1066,-17.21
1078,-15.05
1090,-12.14
1102,-8.88
1114,-5.67
1126,-2.73
1138,-0.12
1150,2.22
1162,4.36
1174,6.26
1186,7.79
1198,8.75
1209,9.03
1220,8.68
1232,7.89
1244,6.94
1256,6.07
1268,5.42
1280,5.01
1292,4.73
1304,4.44
1316,4.05
1328,3.5
1340,2.81
1352,2.05
1364,1.27
1376,0.52
1388,-0.22
1399,-1.0
1410,-1.92
1422,-3.09
1434,-4.61
1446,-6.53
1458,-8.78
1470,-11.18
1482,-13.43
1494,-15.19
1506,-16.18
1518,-16.17
1530,-15.13
1542,-13.12
1554,-10.33
1566,-7.05
1578,-3.62
1589,-0.4
1600,2.34
1612,4.41
1624,5.79
1636,6.58
1648,6.95
1660,7.1
1672,7.18
1684,7.28
1696,7.46
1708,7.7
1720,8.0
1732,8.29
1744,8.53
1756,8.66
1768,8.6
1779,8.3
1790,7.73
1802,6.92
1814,5.92
1826,4.82
1838,3.66
1850,2.49
1862,1.28
1874,-0.02
1886,-1.47
1898,-3.14
1910,-5.06
1922,-7.22
1934,-9.52
1946,-11.76
1958,-13.62
1969,-14.74
1980,-14.85
1992,-13.86
2004,-11.9
2016,-9.22
2028,-6.12
2040,-2.9
2052,0.21
2064,3.02
2076,5.35
2088,7.07
2100,8.13
2112,8.56
2124,8.5
2136,8.14
2148,7.63
2159,7.08
2170,6.57
2182,6.13
2194,5.82
2206,5.7
2218,5.78
2230,6.02
2242,6.29
2254,6.42
2266,6.26
2278,5.76
2290,4.94
2302,3.98
2314,3.08
2326,2.39
2338,1.93
2349,1.57
2360,1.05
2372,0.15
2384,-1.24
2396,-3.02
2408,-4.97
2420,-6.8
2432,-8.29
2444,-9.3
2456,-9.76
2468,-9.65
2480,-8.93
2492,-7.57
2504,-5.62
2516,-3.23
2528,-0.65
2539,1.81
2550,3.93
2562,5.56
2574,6.64
2586,7.21
2598,7.26
2610,6.86
2622,6.1
2634,5.14
2646,4.18
2658,3.37
2670,2.84
2682,2.64
2694,2.76
2706,3.21
2718,3.94
2729,4.85
2740,5.79
2752,6.59
2764,7.08
2776,7.22
2788,7.04
2800,6.61
2812,6.04
2824,5.35
2836,4.54
2848,3.57
2860,2.41
2872,1.07
2884,-0.4
2896,-1.9
2908,-3.29
2919,-4.39
2930,-4.99
2942,-4.91
2954,-4.09
2966,-2.6
2978,-0.63
2990,1.53
3002,3.62
3014,5.45
3026,6.9
3038,7.94
3050,8.6
3062,8.9
3074,8.87
3086,8.52
3098,7.91
3109,7.08
3120,6.1
3132,5.06
3144,4.01
3156,3.03
3168,2.22
3180,1.64
3192,1.32
3204,1.25
3216,1.33
3228,1.47
3240,1.59
3252,1.61
3264,1.55
3276,1.4
3288,1.18
3299,0.89
3310,0.51
3322,-0.02
3334,-0.72
3346,-1.62
3358,-2.71
3370,-3.96
3382,-5.25
3394,-6.4
3406,-7.15
3418,-7.25
3430,-6.45
3442,-4.71
3454,-2.13
3466,1.0
3478,4.31
3489,7.45
3500,10.11
3512,12.07
3524,13.23
3536,13.5
3548,12.91
3560,11.6
3572,9.85
3584,8.06
3596,6.59
3608,5.68
3620,5.35
3632,5.48
3644,5.83
3656,6.23
3668,6.6
3679,6.94
3690,7.24
3702,7.43
3714,7.35
3726,6.76
3738,5.56
3750,3.74
3762,1.47
3774,-1.01
3786,-3.49
3798,-5.88
3810,-8.25
3822,-10.69
3834,-13.25
3846,-15.79
3858,-18.06
3869,-19.71
3880,-20.43
3892,-20.11
3904,-18.8
3916,-16.75
3928,-14.29
3940,-11.8
3952,-9.57
3964,-7.82
3976,-6.57
3988,-5.76
4000,-5.24
4012,-4.83
4024,-4.39
4036,-3.85
4048,-3.16
4059,-2.3
4070,-1.25
4082,0.01
4094,1.42
4106,2.83
4118,4.03
4130,4.78
4142,4.93
4154,4.44
4166,3.44
4178,2.12
4190,0.64
4202,-0.91
4214,-2.49
4226,-4.13
4238,-5.83
4249,-7.55
4260,-9.24
4272,-10.91
4284,-12.65
4296,-14.66
4308,-17.12
4320,-20.06
4332,-23.3
4344,-26.42
4356,-28.91
4368,-30.25
4380,-30.11
4392,-28.37
4404,-25.13
4416,-20.69
4428,-15.43
4439,-9.73
4450,-4.02
4462,1.3
4474,5.82
4486,9.23
4498,11.34
4510,12.17
4522,11.93
4534,10.99
4546,9.76
4558,8.59
4570,7.65
4582,7.0
4594,6.58
4606,6.32
4618,6.17
4629,6.13
4640,6.2
4652,6.35
4664,6.48
4676,6.44
4688,6.07
4700,5.28
4712,4.08
4724,2.6
4736,1.01
4748,-0.57
4760,-2.11
4772,-3.66
4784,-5.37
4796,-7.36
4808,-9.72
4819,-12.48
4830,-15.56
4842,-18.74
4854,-21.65
4866,-23.69
4878,-24.19
4890,-22.6
4902,-18.75
4914,-13.0
4926,-6.12
4938,0.89
4950,7.18
4962,12.2
4974,15.81
4986,18.07
4998,19.12
5009,19.05
5020,18.02
5032,16.23
5044,14.0
5056,11.73
5068,9.75
5080,8.3
5092,7.47
5104,7.28
5116,7.64
5128,8.39
5140,9.28
5152,9.97
5164,10.16
5176,9.69
5188,8.6
5199,7.09
5210,5.41
5222,3.76
5234,2.19
5246,0.65
5258,-0.92
5270,-2.58
5282,-4.35
5294,-6.31
5306,-8.58
5318,-11.31
5330,-14.48
5342,-17.84
5354,-20.79
5366,-22.58
5378,-22.5
5389,-20.13
5400,-15.57
5412,-9.31
5424,-2.2
5436,4.91
5448,11.27
5460,16.4
5472,20.04
5484,22.12
5496,22.74
5508,22.09
5520,20.52
5532,18.49
5544,16.46
5556,14.85
5568,13.92
5579,13.72
5590,14.08
5602,14.72
5614,15.26
5626,15.35
5638,14.76
5650,13.44
5662,11.51
5674,9.28
5686,7.06
5698,5.09
5710,3.38
5722,1.73
5734,-0.19
5746,-2.65
5758,-5.78
5769,-9.47
5780,-13.45
5792,-17.41
5804,-21.07
5816,-24.14
5828,-26.3
5840,-27.11
5852,-26.14
5864,-23.1
5876,-18.05
5888,-11.48
5900,-4.25
5912,2.71
5924,8.63
5936,13.12
5948,16.14
5959,17.88
5970,18.54
5982,18.26
5994,17.1
6006,15.19
6018,12.79
6030,10.33
6042,8.26
6054,6.95
6066,6.51
6078,6.75
6090,7.24
6102,7.53
6114,7.28
6126,6.38
6138,4.9
6149,3.07
6160,1.12
6172,-0.8
6184,-2.67
6196,-4.61
6208,-6.79
6220,-9.4
6232,-12.59
6244,-16.39
6256,-20.72
6268,-25.3
6280,-29.64
6292,-33.05
6304,-34.75
6316,-34.07
6328,-30.65
6339,-24.65
6350,-16.74
6362,-7.91
6374,0.75
6386,8.38
6398,14.5
6410,18.92
6422,21.7
6434,22.98
6446,22.91
6458,21.71
6470,19.67
6482,17.21
6494,14.79
6506,12.78
6518,11.4
6529,10.68
6540,10.44
6552,10.42
6564,10.42
6576,10.27
6588,9.96
6600,9.47
6612,8.83
6624,8.01
6636,6.95
6648,5.53
6660,3.62
6672,1.15
6684,-1.92
6696,-5.62
6708,-9.91
6719,-14.73
6730,-19.89
6742,-24.99
6754,-29.4
6766,-32.3
6778,-32.92
6790,-30.74
6802,-25.79
6814,-18.63
6826,-10.26
6838,-1.79
6850,5.77
6862,11.77
6874,15.91
6886,18.19
6898,18.74
6909,17.8
6920,15.66
6932,12.74
6944,9.54
6956,6.56
6968,4.25
6980,2.82
6992,2.28
7004,2.41
7016,2.89
7028,3.4
7040,3.72
7052,3.76
7064,3.49
7076,2.95
7088,2.19
7099,1.23
7110,0.09
7122,-1.22
7134,-2.75
7146,-4.63
7158,-7.09
7170,-10.33
7182,-14.42
7194,-19.22
7206,-24.26
7218,-28.83
7230,-32.11
7242,-33.4
7254,-32.28
7266,-28.73
7278,-23.12
7289,-16.09
7300,-8.37
7312,-0.67
7324,6.44
7336,12.54
7348,17.35
7360,20.71
7372,22.55
7384,22.91
7396,21.98
7408,20.12
7420,17.84
7432,15.69
7444,14.15
7456,13.46
7468,13.62
7479,14.44
7490,15.61
7502,16.87
7514,17.95
7526,18.58
7538,18.52
7550,17.58
7562,15.69
7574,12.97
7586,9.71
7598,6.23
7610,2.74
7622,-0.73
7634,-4.31
7646,-8.14
7658,-12.25
7669,-16.46
7680,-20.37
7692,-23.42
7704,-24.99
7716,-24.56
7728,-21.88
7740,-17.03
7752,-10.49
7764,-3.01
7776,4.53
7788,11.34
7800,16.84
7812,20.7
7824,22.79
7836,23.18
7848,22.09
7859,19.91
7870,17.14
7882,14.34
7894,11.99
7906,10.35
7918,9.44
7930,9.11
7942,9.15
7954,9.34
7966,9.51
7978,9.52
7990,9.25
8002,8.54
8014,7.29
8026,5.49
8038,3.21
8049,0.56
8060,-2.33
8072,-5.43
8084,-8.77
8096,-12.41
8108,-16.34
8120,-20.4
8132,-24.18
8144,-27.08
8156,-28.4
8168,-27.6
8180,-24.45
8192,-19.19
8204,-12.43
8216,-5.03
8228,2.16
8239,8.41
8250,13.29
8262,16.55
8274,18.16
8286,18.2
8298,16.89
8310,14.59
8322,11.76
8334,8.95
8346,6.63
8358,5.13
8370,4.56
8382,4.81
8394,5.56
8406,6.41
8418,6.96
8429,6.87
8440,5.94
8452,4.17
8464,1.66
8476,-1.33
8488,-4.56
8500,-7.81
8512,-10.97
8524,-14.08
8536,-17.29
8548,-20.8
8560,-24.71
8572,-28.85
8584,-32.77
8596,-35.73
8608,-36.89
8619,-35.59
8630,-31.58
8642,-25.13
8654,-16.95
8666,-7.99
8678,0.82
8690,8.69
8702,15.1
8714,19.75
8726,22.52
8738,23.43
8750,22.7
8762,20.67
8774,17.87
8786,14.89
8798,12.3
8809,10.57
8820,9.92
8832,10.34
8844,11.48
8856,12.81
8868,13.79
8880,13.99
8892,13.28
8904,11.78
8916,9.79
8928,7.65
8940,5.58
8952,3.58
8964,1.53
8976,-0.83
8988,-3.74
8999,-7.4
9010,-11.85
9022,-16.88
9034,-22.04
9046,-26.58
9058,-29.62
9070,-30.36
9082,-28.29
9094,-23.39
9106,-16.14
9118,-7.45
9130,1.54
9142,9.73
9154,16.29
9166,20.75
9178,23.14
9189,23.8
9200,23.26
9212,21.98
9224,20.3
9236,18.4
9248,16.43
9260,14.65
9272,13.4
9284,13.03
9296,13.66
9308,15.07
9320,16.71
9332,17.93
9344,18.2
9356,17.36
9368,15.62
9379,13.35
9390,10.91
9402,8.48
9414,6.01
9426,3.37
9438,0.47
9450,-2.72
9462,-6.15
9474,-9.81
9486,-13.75
9498,-17.98
9510,-22.35
9522,-26.35
9534,-29.14
9546,-29.79
9558,-27.6
9569,-22.46
9580,-14.96
9592,-6.24
9604,2.38
9616,9.82
9628,15.44
9640,19.12
9652,21.07
9664,21.67
9676,21.27
9688,20.15
9700,18.55
9712,16.69
9724,14.76
9736,12.92
9748,11.33
9759,10.11
9770,9.34
9782,9.08
9794,9.27
9806,9.75
9818,10.3
9830,10.65
9842,10.61
9854,10.09
9866,9.13
9878,7.87
9890,6.48
9902,5.11
9914,3.84
9926,2.7
9938,1.64
9949,0.54
9960,-0.81
9972,-2.65
9984,-5.17
9996,-8.34
10008,-11.79
10020,-14.77
10032,-16.4
10044,-15.96
10056,-13.22
10068,-8.51
10080,-2.64
10092,3.44
10104,8.89
10116,13.17
10128,16.01
10139,17.36
10150,17.26
10162,15.9
10174,13.67
10186,11.1
10198,8.81
10210,7.28
10222,6.74
10234,7.12
10246,8.11
10258,9.38
10270,10.62
10282,11.61
10294,12.19
10306,12.26
10318,11.71
10329,10.53
10340,8.78
10352,6.63
10364,4.25
10376,1.81
10388,-0.63
10400,-3.09
10412,-5.66
10424,-8.45
10436,-11.5
10448,-14.78
10460,-18.17
10472,-21.46
10484,-24.29
10496,-26.17
10508,-26.56
10519,-24.99
10530,-21.3
10542,-15.75
10554,-9.0
10566,-1.93
10578,4.62
10590,10.05
10602,14.08
10614,16.66
10626,17.86
10638,17.77
10650,16.56
10662,14.52
10674,12.08
10686,9.75
10698,7.94
10709,6.86
10720,6.49
10732,6.64
10744,7.09
10756,7.7
10768,8.35
10780,8.94
10792,9.27
10804,9.11
10816,8.26
10828,6.69
10840,4.52
10852,2.01
10864,-0.6
10876,-3.18
10888,-5.77
10899,-8.51
10910,-11.56
10922,-14.98
10934,-18.71
10946,-22.54
10958,-26.18
10970,-29.2
10982,-31.14
10994,-31.45
11006,-29.72
11018,-25.8
11030,-19.94
11042,-12.82
11054,-5.35
11066,1.54
11078,7.23
11089,11.42
11100,14.09
11112,15.34
11124,15.28
11136,13.96
11148,11.57
11160,8.48
11172,5.28
11184,2.57
11196,0.83
11208,0.19
11220,0.43
11232,1.09
11244,1.71
11256,1.96
11268,1.74
11279,1.13
11290,0.26
11302,-0.79
11314,-1.96
11326,-3.27
11338,-4.71
11350,-6.24
11362,-7.79
11374,-9.31
11386,-10.84
11398,-12.56
11410,-14.77
11422,-17.73
11434,-21.53
11446,-25.9
11458,-30.14
11469,-33.24
11480,-34.21
11492,-32.35
11504,-27.59
11516,-20.53
11528,-12.22
11540,-3.84
11552,3.66
11564,9.73
11576,14.26
11588,17.36
11600,19.18
11612,19.83
11624,19.35
11636,17.89
11648,15.76
11659,13.42
11670,11.38
11682,10.04
11694,9.5
11706,9.6
11718,10.02
11730,10.45
11742,10.74
11754,10.85
11766,10.82
11778,10.61
11790,10.11
11802,9.13
11814,7.56
11826,5.42
11838,2.88
11849,0.17
11860,-2.53
11872,-5.17
11884,-7.79
11896,-10.48
11908,-13.33
11920,-16.41
11932,-19.72
11944,-23.13
11956,-26.31
11968,-28.72
11980,-29.71
11992,-28.67
12004,-25.39
12016,-20.04
12028,-13.27
12039,-5.93
12050,1.08
12062,7.07
12074,11.6
12086,14.45
12098,15.62
12110,15.3
12122,13.82
12134,11.63
12146,9.26
12158,7.14
12170,5.58
12182,4.72
12194,4.53
12206,4.92
12218,5.77
12229,6.98
12240,8.48
12252,10.18
12264,11.92
12276,13.44
12288,14.45
12300,14.66
12312,13.93
12324,12.32
12336,10.07
12348,7.46
12360,4.76
12372,2.07
12384,-0.59
12396,-3.27
12408,-6.02
12419,-8.86
12430,-11.73
12442,-14.5
12454,-16.9
12466,-18.51
12478,-18.8
12490,-17.33
12502,-13.9
12514,-8.75
12526,-2.44
12538,4.19
12550,10.35
12562,15.48
12574,19.31
12586,21.78
12598,23.01
12609,23.13
12620,22.35
12632,20.95
12644,19.28
12656,17.74
12668,16.62
12680,16.04
12692,15.89
12704,15.92
12716,15.8
12728,15.27
12740,14.24
12752,12.75
12764,10.92
12776,8.95
12788,6.94
12799,4.98
12810,3.09
12822,1.24
12834,-0.6
12846,-2.43
12858,-4.2
12870,-5.87
12882,-7.39
12894,-8.81
12906,-10.25
12918,-11.9
12930,-13.88
12942,-16.07
12954,-18.03
12966,-19.05
12978,-18.41
12989,-15.6
13000,-10.63
13012,-4.09
13024,3.02
13036,9.62
13048,14.84
13060,18.26
13072,19.85
13084,19.78
13096,18.35
13108,15.84
13120,12.62
13132,9.19
13144,6.17
13156,4.19
13168,3.69
13179,4.77
13190,7.18
13202,10.41
13214,13.86
13226,17.02
13238,19.52
13250,21.17
13262,21.83
13274,21.43
13286,19.93
13298,17.33
13310,13.74
13322,9.35
13334,4.4
13346,-0.87
13358,-6.37
13369,-12.12
13380,-18.2
13392,-24.54
13404,-30.81
13416,-36.32
13428,-40.17
13440,-41.51
13452,-39.88
13464,-35.38
13476,-28.64
13488,-20.67
13500,-12.51
13512,-4.98
13524,1.38
13536,6.28
13548,9.63
13559,11.43
13570,11.75
13582,10.84
13594,9.05
13606,6.87
13618,4.8
13630,3.21
13642,2.3
13654,2.09
13666,2.43
13678,3.1
13690,3.9
13702,4.68
13714,5.35
13726,5.87
13738,6.24
13749,6.42
13760,6.38
13772,5.99
13784,5.07
13796,3.33
13808,0.44
13820,-3.89
13832,-9.77
13844,-17.01
13856,-25.01
13868,-32.81
13880,-39.21
13892,-43.18
13904,-44.09
13916,-41.96
13928,-37.37
13939,-31.28
13950,-24.67
13962,-18.3
13974,-12.68
13986,-8.12
13998,-4.9
14010,-3.35
14022,-3.67
14034,-5.85
14046,-9.43
14058,-13.58
14070,-17.28
14082,-19.7
14094,-20.4
14106,-19.55
14118,-17.72
14129,-15.59
14140,-13.62
14152,-11.84
14164,-9.84
14176,-7.1
14188,-3.32
14200,1.33
14212,6.19
14224,10.36
14236,13.15
14248,14.37
14260,14.38
14272,13.9
14284,13.66
14296,14.14
14308,15.47
14319,17.68
14330,20.77
14342,24.92
14354,30.36
14366,37.26
14378,45.63
14390,55.31
14402,66.21
14414,78.29
14426,91.52
14438,105.47
14450,119.01
14462,130.17
14474,136.49
14486,135.66
14498,126.2
14509,107.87
14520,81.72
14532,49.57
14544,13.51
14556,-24.56
14568,-62.95
14580,-99.89
14592,-133.15
14604,-159.9
14616,-177.16
14628,-182.76
14640,-176.4
14652,-160.2
14664,-138.42
14676,-116.25
14688,-98.13
14699,-86.47
14710,-81.24
14722,-80.53
14734,-81.74
14746,-82.61
14758,-81.83
14770,-78.81
14782,-73.38
14794,-65.37
14806,-54.65
14818,-41.39
14830,-26.26
14842,-10.44
14854,4.55
14866,17.32
14878,26.93
14889,33.1
14900,36.15
14912,36.78
14924,35.79
14936,33.76
14948,31.04
14960,27.75
14972,23.97
14984,19.85
14996,15.64
15008,11.64
15020,8.12
15032,5.32
15044,3.32
15056,2.12
15068,1.57
15079,1.33
15090,0.99
15102,0.12
15114,-1.49
15126,-3.79
15138,-6.53
15150,-9.41
15162,-12.27
15174,-15.16
15186,-18.09
15198,-20.85
15210,-22.83
15222,-23.14
15234,-20.92
15246,-15.77
15258,-7.94
15269,1.71
15280,12.07
15292,22.09
15304,31.06
15316,38.59
15328,44.5
15340,48.68
15352,51.03
15364,51.5
15376,50.24
15388,47.56
15400,43.91
15412,39.76
15424,35.46
15436,31.27
15448,27.31
15459,23.72
15470,20.68
15482,18.37
15494,16.95
15506,16.43
15518,16.71
15530,17.57
15542,18.8
15554,20.24
15566,21.76
15578,23.19
15590,24.18
15602,24.19
15614,22.57
15626,18.82
15638,12.84
15649,5.06
15660,-3.53
15672,-11.65
15684,-18.04
15696,-21.81
15708,-22.67
15720,-20.95
15732,-17.42
15744,-12.96
15756,-8.38
15768,-4.22
15780,-0.81
15792,1.58
15804,2.7
15816,2.28
15828,0.21
15839,-3.32
15850,-7.71
15862,-12.1
15874,-15.64
15886,-17.76
15898,-18.37
15910,-17.77
15922,-16.48
15934,-15.04
15946,-13.85
15958,-13.11
15970,-12.89
15982,-13.15
15994,-13.77
16006,-14.64
16018,-15.62
16029,-16.67
16040,-17.79
16052,-19.09
16064,-20.69
16076,-22.7
16088,-25.2
16100,-28.19
16112,-31.5
16124,-34.76
16136,-37.3
16148,-38.33
16160,-37.08
16172,-33.17
16184,-26.74
16196,-18.5
16208,-9.45
16219,-0.62
16230,7.19
16242,13.55
16254,18.27
16266,21.29
16278,22.6
16290,22.29
16302,20.63
16314,18.07
16326,15.26
16338,12.8
16350,11.2
16362,10.7
16374,11.29
16386,12.68
16398,14.45
16409,16.09
16420,17.15
16432,17.38
16444,16.77
16456,15.55
16468,14.07
16480,12.64
16492,11.33
16504,10.04
16516,8.48
16528,6.37
16540,3.55
16552,-0.0
16564,-4.21
16576,-8.89
16588,-13.79
16599,-18.46
16610,-22.25
16622,-24.37
16634,-24.04
16646,-20.86
16658,-14.92
16670,-6.91
16682,2.04
16694,10.72
16706,18.1
16718,23.61
16730,27.07
16742,28.61
16754,28.52
16766,27.14
16778,24.9
16789,22.27
16800,19.73
16812,17.69
16824,16.37
16836,15.77
16848,15.7
16860,15.9
16872,16.12
16884,16.17
16896,15.89
16908,15.15
16920,13.87
16932,11.99
16944,9.6
16956,6.87
16968,4.04
16979,1.33
16990,-1.21
17002,-3.63
17014,-6.08
17026,-8.79
17038,-11.93
17050,-15.62
17062,-19.79
17074,-24.12
17086,-28.01
17098,-30.63
17110,-31.12
17122,-28.9
17134,-23.85
17146,-16.42
17158,-7.55
17169,1.66
17180,10.18
17192,17.28
17204,22.58
17216,25.98
17228,27.55
17240,27.49
17252,26.11
17264,23.84
17276,21.2
17288,18.69
17300,16.72
17312,15.52
17324,15.12
17336,15.38
17348,16.07
17359,16.89
17370,17.59
17382,17.91
17394,17.63
17406,16.59
17418,14.68
17430,11.91
17442,8.42
17454,4.42
17466,0.13
17478,-4.28
17490,-8.74
17502,-13.24
17514,-17.8
17526,-22.42
17538,-27.13
17549,-31.97
17560,-36.98
17572,-42.11
17584,-47.09
17596,-51.36
17608,-54.21
17620,-54.98
17632,-53.34
17644,-49.51
17656,-44.14
17668,-38.09
17680,-32.1
17692,-26.55
17704,-21.46
17716,-16.68
17728,-12.06
17739,-7.6
17750,-3.39
17762,0.47
17774,4.06
17786,7.56
17798,11.22
17810,15.21
17822,19.53
17834,24.01
17846,28.42
17858,32.56
17870,36.27
17882,39.42
17894,41.88
17906,43.48
17918,44.06
17929,43.62
17940,42.31
17952,40.42
17964,38.29
17976,36.18
17988,34.22
18000,32.42
18012,30.74
18024,29.1
18036,27.43
18048,25.59
18060,23.36
18072,20.52
18084,17.0
18096,13.02
18108,9.21
18119,6.4
18130,5.4
18142,6.64
18154,9.97
18166,14.73
18178,19.92
18190,24.6
18202,28.17
18214,30.38
18226,31.34
18238,31.29
18250,30.47
18262,29.01
18274,27.04
18286,24.74
18298,22.35
18309,20.2
18320,18.63
18332,17.85
18344,17.91
18356,18.7
18368,19.91
18380,21.18
18392,22.17
18404,22.65
18416,22.49
18428,21.69
18440,20.29
18452,18.34
18464,15.89
18476,13.0
18488,9.79
18499,6.38
18510,2.89
18522,-0.62
18534,-4.21
18546,-7.99
18558,-12.07
18570,-16.53
18582,-21.3
18594,-26.11
18606,-30.52
18618,-33.91
18630,-35.67
18642,-35.37
18654,-32.95
18666,-28.75
18678,-23.46
18689,-17.87
18700,-12.73
18712,-8.5
18724,-5.44
18736,-3.61
18748,-2.98
18760,-3.47
18772,-4.92
18784,-7.06
18796,-9.52
18808,-11.9
18820,-13.87
18832,-15.21
18844,-15.85
18856,-15.83
18868,-15.28
18879,-14.38
18890,-13.33
18902,-12.3
18914,-11.43
18926,-10.8
18938,-10.47
18950,-10.52
18962,-11.07
18974,-12.2
18986,-13.92
18998,-16.08
19010,-18.42
19022,-20.67
19034,-22.67
19046,-24.49
19058,-26.35
19069,-28.45
19080,-30.78
19092,-32.97
19104,-34.36
19116,-34.15
19128,-31.76
19140,-27.0
19152,-20.19
19164,-12.03
19176,-3.43
19188,4.75
19200,11.79
19212,17.23
19224,20.84
19236,22.56
19248,22.58
19259,21.24
19270,18.98
19282,16.28
19294,13.57
19306,11.13
19318,9.14
19330,7.71
19342,6.89
19354,6.67
19366,6.96
19378,7.51
19390,7.96
19402,7.99
19414,7.38
19426,6.14
19438,4.5
19449,2.79
19460,1.3
19472,0.16
19484,-0.68
19496,-1.45
19508,-2.45
19520,-3.94
19532,-6.08
19544,-8.82
19556,-11.9
19568,-14.84
19580,-17.02
19592,-17.82
19604,-16.83
19616,-13.96
19628,-9.49
19639,-3.98
19650,1.83
19662,7.22
19674,11.57
19686,14.53
19698,15.92
19710,15.8
19722,14.39
19734,12.0
19746,8.98
19758,5.7
19770,2.46
19782,-0.43
19794,-2.74
19806,-4.38
19818,-5.32
19829,-5.72
19840,-5.76
19852,-5.65
19864,-5.53
19876,-5.44
19888,-5.42
19900,-5.52
19912,-5.85
19924,-6.52
19936,-7.61
19948,-9.15
19960,-11.05
19972,-13.21
19984,-15.52
19996,-17.95
20008,-20.52
20019,-23.26
20030,-26.06
20042,-28.62
20054,-30.39
20066,-30.73
20078,-29.08
20090,-25.24
20102,-19.48
20114,-12.52
20126,-5.3
20138,1.28
20150,6.59
20162,10.42
20174,12.85
20186,14.12
20198,14.47
20209,14.02
20220,12.88
20232,11.12
20244,8.93
20256,6.58
20268,4.41
20280,2.7
20292,1.64
20304,1.23
20316,1.36
20328,1.8
20340,2.32
20352,2.68
20364,2.68
20376,2.23
20388,1.3
20399,-0.06
20410,-1.71
20422,-3.5
20434,-5.38
20446,-7.37
20458,-9.64
20470,-12.36
20482,-15.6
20494,-19.24
20506,-22.86
20518,-25.81
20530,-27.36
20542,-26.9
20554,-24.16
20566,-19.33
20578,-12.99
20589,-5.93
20600,0.99
20612,7.12
20624,11.97
20636,15.31
20648,17.07
20660,17.33
20672,16.32
20684,14.38
20696,11.97
20708,9.48
20720,7.26
20732,5.5
20744,4.25
20756,3.44
20768,2.95
20779,2.65
20790,2.42
20802,2.18
20814,1.84
20826,1.38
20838,0.8
20850,0.13
20862,-0.6
20874,-1.42
20886,-2.4
20898,-3.69
20910,-5.36
20922,-7.49
20934,-10.05
20946,-12.93
20958,-15.92
20969,-18.66
20980,-20.71
20992,-21.55
