seconds,BVP
1,-43.42
12,-98.45
23,-132.54
35,-144.72
47,-137.9
59,-117.41
71,-89.33
83,-59.36
95,-32.33
107,-12.04
119,-1.08
131,-0.45
143,-9.28
155,-24.76
167,-42.85
179,-59.54
191,-72.02
202,-79.45
213,-82.7
225,-83.42
237,-82.87
249,-81.26
261,-77.81
273,-71.39
285,-61.53
297,-48.85
309,-35.18
321,-22.91
333,-14.31
345,-10.7
357,-12.03
369,-16.66
381,-21.8
392,-24.24
403,-21.34
415,-12.05
427,2.52
439,19.26
451,34.04
463,43.29
475,45.4
487,41.49
499,34.87
511,29.65
523,28.89
535,33.22
547,40.76
559,47.96
571,51.23
582,48.37
593,39.29
605,25.62
617,9.68
629,-6.62
641,-22.29
653,-37.07
665,-50.6
677,-61.61
689,-67.72
701,-66.08
713,-54.75
725,-34.09
737,-7.55
749,19.02
761,39.1
772,47.79
783,43.41
795,27.88
807,5.57
819,-18.84
831,-42.04
843,-62.76
855,-81.19
867,-97.66
879,-111.62
891,-121.65
903,-126.34
915,-125.55
927,-120.98
939,-115.48
951,-111.71
962,-110.68
973,-111.05
985,-109.64
997,-102.73
1009,-87.28
1021,-61.58
1033,-25.57
1045,19.08
1057,68.66
1069,117.29
1081,157.34
1093,181.21
1105,183.36
1117,162.48
1129,121.95
1141,68.76
1152,11.19
1163,-43.12
1175,-88.03
1187,-119.28
1199,-133.68
1211,-129.55
1223,-106.79
1235,-67.7
1247,-17.3
1259,36.91
1271,86.54
1283,124.54
1295,146.35
1307,151.38
1319,141.95
1331,122.43
1342,97.75
1353,72.41
1365,49.87
1377,32.74
1389,23.71
1401,24.87
1413,37.93
1425,58.82
1437,80.11
1449,93.96
1461,96.72
1473,89.12
1485,73.1
1497,53.47
1509,28.48
1521,-2.48
1532,-37.43
1543,-71.57
1555,-99.25
1567,-115.01
1579,-116.4
1591,-105.42
1603,-86.97
1615,-66.82
1627,-48.09
1639,-31.49
1651,-15.97
1663,-0.49
1675,14.79
1687,27.98
1699,36.47
1711,38.61
1722,34.05
1733,24.55
1745,12.66
1757,0.76
1769,-9.43
1781,-17.06
1793,-22.23
1805,-25.61
1817,-27.99
1829,-30.32
1841,-33.14
1853,-36.95
1865,-42.0
1877,-47.93
1889,-53.6
1901,-57.49
1912,-58.29
1923,-55.35
1935,-49.25
1947,-41.4
1959,-33.76
1971,-28.02
1983,-24.92
1995,-24.12
2007,-24.54
2019,-25.06
2031,-24.84
2043,-23.48
2055,-20.89
2067,-17.16
2079,-12.53
2091,-7.35
2102,-2.06
2113,2.74
2125,6.35
2137,8.43
2149,9.04
2161,8.63
2173,7.74
2185,6.69
2197,5.67
2209,4.68
2221,3.59
2233,1.84
2245,-0.72
2257,-3.8
2269,-6.7
2281,-8.69
2292,-9.33
2303,-8.33
2315,-5.98
2327,-3.5
2339,-3.6
2351,-8.37
2363,-18.28
2375,-31.3
2387,-43.78
2399,-51.55
2411,-50.92
2423,-40.48
2435,-21.97
2447,-1.05
2459,16.53
2471,26.96
2482,29.76
2493,26.6
2505,20.05
2517,13.37
2529,9.25
2541,9.59
2553,13.97
2565,22.72
2577,36.94
2589,58.39
2601,87.32
2613,117.43
2625,139.95
2637,147.52
2649,146.37
2661,137.31
2672,119.31
2683,88.24
2695,45.39
2707,-4.85
2719,-56.75
2731,-104.06
2743,-142.84
2755,-168.91
2767,-181.07
2779,-181.1
2791,-173.77
2803,-162.98
2815,-150.03
2827,-136.33
2839,-117.25
2851,-89.47
2862,-52.66
2873,-11.25
2885,28.99
2897,61.64
2909,82.3
2921,89.79
2933,86.6
2945,78.66
2957,71.98
2969,70.81
2981,75.31
2993,82.87
3005,89.66
3017,92.44
3029,88.76
3041,77.15
3052,57.7
3063,31.58
3075,1.44
3087,-29.23
3099,-56.18
3111,-75.31
3123,-83.44
3135,-79.44
3147,-64.57
3159,-41.78
3171,-15.14
3183,11.31
3195,34.22
3207,51.44
3219,62.18
3231,66.77
3242,66.23
3253,61.64
3265,53.93
3277,43.62
3289,31.19
3301,17.39
3313,3.29
3325,-9.81
3337,-20.57
3349,-27.96
3361,-31.55
3373,-31.56
3385,-28.83
3397,-24.59
3409,-20.18
3421,-16.79
3432,-15.18
3443,-15.46
3455,-17.05
3467,-18.9
3479,-19.83
3491,-18.9
3503,-15.81
3515,-10.89
3527,-4.98
3539,0.93
3551,6.03
3563,9.95
3575,12.7
3587,14.64
3599,16.19
3611,17.65
3622,19.08
3633,20.31
3645,21.05
3657,20.95
3669,19.67
3681,16.99
3693,12.83
3705,7.34
3717,0.91
3729,-5.8
3741,-12.01
3753,-17.01
3765,-20.46
3777,-22.46
3789,-23.58
3801,-24.54
3812,-25.85
3823,-27.53
3835,-29.05
3847,-29.59
3859,-28.46
3871,-25.45
3883,-20.89
3895,-15.54
3907,-10.19
3919,-5.43
3931,-1.44
3943,1.91
3955,4.84
3967,7.5
3979,9.85
3991,11.75
4002,13.0
4013,13.56
4025,13.53
4037,13.17
4049,12.76
4061,12.47
4073,12.31
4085,12.13
4097,11.72
4109,10.85
4121,9.4
4133,7.36
4145,4.81
4157,1.91
4169,-1.09
4181,-3.88
4192,-6.07
4203,-7.3
4215,-7.27
4227,-5.92
4239,-3.38
4251,-0.01
4263,3.72
4275,7.3
4287,10.34
4299,12.56
4311,13.87
4323,14.32
4335,14.02
4347,13.13
4359,11.79
4371,10.14
4382,8.39
4393,6.79
4405,5.61
4417,5.08
4429,5.29
4441,6.11
4453,7.26
4465,8.35
4477,9.02
4489,8.98
4501,8.2
4513,6.86
4525,5.32
4537,4.02
4549,3.33
4561,3.42
4572,4.22
4583,5.47
4595,6.85
4607,8.17
4619,9.46
4631,10.93
4643,12.84
4655,15.35
4667,18.42
4679,21.75
4691,24.88
4703,27.36
4715,28.85
4727,29.23
4739,28.59
4751,27.13
4762,25.07
4773,22.58
4785,19.74
4797,16.52
4809,12.9
4821,8.86
4833,4.39
4845,-0.47
4857,-5.62
4869,-10.92
4881,-16.12
4893,-20.83
4905,-24.63
4917,-27.1
4929,-28.0
4941,-27.33
4952,-25.34
4963,-22.44
4975,-19.09
4987,-15.69
4999,-12.55
5011,-9.93
5023,-8.05
5035,-7.1
5047,-7.18
5059,-8.27
5071,-10.2
5083,-12.67
5095,-15.35
5107,-17.89
5119,-20.03
5131,-21.55
5142,-22.31
5153,-22.33
5165,-21.76
5177,-20.91
5189,-20.17
5201,-19.85
5213,-20.03
5225,-20.56
5237,-21.02
5249,-20.83
5261,-19.46
5273,-16.52
5285,-11.91
5297,-5.86
5309,1.14
5321,8.45
5332,15.47
5343,21.72
5355,26.91
5367,30.97
5379,33.95
5391,35.95
5403,37.09
5415,37.48
5427,37.29
5439,36.71
5451,35.91
5463,34.95
5475,33.69
5487,31.89
5499,29.23
5511,25.51
5522,20.66
5533,14.77
5545,8.09
5557,0.99
5569,-6.02
5581,-12.33
5593,-17.27
5605,-20.33
5617,-21.31
5629,-20.56
5641,-18.87
5653,-17.22
5665,-16.41
5677,-16.73
5689,-17.78
5701,-18.74
5712,-18.66
5723,-16.88
5735,-13.32
5747,-8.44
5759,-3.04
5771,2.0
5783,6.06
5795,8.88
5807,10.49
5819,11.12
5831,10.98
5843,10.16
5855,8.66
5867,6.43
5879,3.45
5891,-0.14
5902,-4.13
5913,-8.3
5925,-12.38
5937,-16.12
5949,-19.17
5961,-21.1
5973,-21.41
5985,-19.69
5997,-15.82
6009,-10.05
6021,-3.06
6033,4.29
6045,11.12
6057,16.76
6069,20.84
6081,23.21
6092,23.89
6103,22.97
6115,20.65
6127,17.24
6139,13.19
6151,9.05
6163,5.31
6175,2.28
6187,0.03
6199,-1.75
6211,-3.62
6223,-6.19
6235,-9.99
6247,-15.2
6259,-21.59
6271,-28.49
6282,-34.95
6293,-39.97
6305,-42.76
6317,-42.84
6329,-40.22
6341,-35.38
6353,-29.15
6365,-22.6
6377,-16.75
6389,-12.32
6401,-9.47
6413,-7.84
6425,-6.69
6437,-5.28
6449,-3.16
6461,-0.33
6472,2.82
6483,5.79
6495,8.16
6507,9.72
6519,10.34
6531,10.01
6543,8.65
6555,6.24
6567,2.86
6579,-1.25
6591,-5.69
6603,-9.98
6615,-13.69
6627,-16.48
6639,-18.17
6651,-18.65
6662,-17.93
6673,-16.02
6685,-13.07
6697,-9.35
6709,-5.34
6721,-1.63
6733,1.19
6745,2.72
6757,2.85
6769,1.75
6781,-0.21
6793,-2.62
6805,-5.15
6817,-7.55
6829,-9.57
6841,-10.96
6852,-11.46
6863,-11.05
6875,-10.0
6887,-8.93
6899,-8.6
6911,-9.66
6923,-12.37
6935,-16.57
6947,-21.63
6959,-26.72
6971,-30.97
6983,-33.65
6995,-34.36
7007,-33.03
7019,-29.96
7031,-25.68
7042,-20.81
7053,-15.85
7065,-11.09
7077,-6.62
7089,-2.46
7101,1.3
7113,4.36
7125,6.36
7137,6.95
7149,6.12
7161,4.21
7173,1.87
7185,-0.12
7197,-1.14
7209,-0.87
7221,0.69
7232,3.29
7243,6.63
7255,10.45
7267,14.62
7279,19.21
7291,24.35
7303,30.21
7315,36.82
7327,43.98
7339,51.21
7351,57.86
7363,63.3
7375,67.08
7387,69.04
7399,69.33
7411,68.29
7422,66.26
7433,63.48
7445,60.06
7457,55.96
7469,51.08
7481,45.31
7493,38.7
7505,31.58
7517,24.6
7529,18.64
7541,14.45
7553,12.27
7565,11.54
7577,10.92
7589,8.74
7601,3.66
7612,-4.65
7623,-15.33
7635,-26.56
7647,-36.2
7659,-42.55
7671,-44.84
7683,-43.35
7695,-39.08
7707,-33.24
7719,-26.81
7731,-20.4
7743,-14.25
7755,-8.57
7767,-3.61
7779,0.3
7791,2.89
7802,4.18
7813,4.49
7825,4.35
7837,4.21
7849,4.26
7861,4.34
7873,4.1
7885,3.23
7897,1.74
7909,-0.03
7921,-1.58
7933,-2.48
7945,-2.7
7957,-2.58
7969,-2.7
7981,-3.61
7992,-5.49
8003,-8.07
8015,-10.71
8027,-12.66
8039,-13.38
8051,-12.7
8063,-10.8
8075,-8.04
8087,-4.79
8099,-1.27
8111,2.37
8123,5.95
8135,9.17
8147,11.62
8159,12.9
8171,12.82
8182,11.54
8193,9.58
8205,7.68
8217,6.59
8229,6.67
8241,7.76
8253,9.15
8265,9.78
8277,8.72
8289,5.56
8301,0.69
8313,-4.78
8325,-9.5
8337,-12.42
8349,-13.33
8361,-12.94
8372,-12.53
8383,-13.38
8395,-16.11
8407,-20.4
8419,-25.09
8431,-28.65
8443,-29.81
8455,-28.08
8467,-24.04
8479,-19.29
8491,-16.18
8503,-17.25
8515,-24.42
8527,-38.06
8539,-56.34
8551,-75.25
8562,-89.36
8573,-93.68
8585,-85.68
8597,-66.71
8609,-41.87
8621,-18.42
8633,-3.12
8645,-0.04
8657,-9.47
8669,-28.47
8681,-52.24
8693,-75.64
8705,-94.19
8717,-104.3
8729,-103.52
8741,-90.7
8752,-66.62
8763,-34.37
8775,0.94
8787,33.32
8799,57.65
8811,71.36
8823,75.34
8835,73.47
8847,71.28
8859,73.95
8871,84.53
8883,102.91
8895,125.72
8907,147.35
8919,161.36
8931,162.19
8942,146.74
8953,115.43
8965,72.46
8977,25.02
8989,-18.54
9001,-50.97
9013,-68.05
9025,-69.43
9037,-58.06
9049,-38.6
9061,-15.7
9073,7.17
9085,27.73
9097,44.35
9109,55.52
9121,59.84
9132,56.68
9143,46.85
9155,32.85
9167,18.18
9179,6.2
9191,-0.93
9203,-2.85
9215,-0.87
9227,2.81
9239,6.06
9251,7.5
9263,6.78
9275,4.34
9287,0.97
9299,-2.65
9311,-6.12
9322,-9.31
9333,-12.12
9345,-14.31
9357,-15.52
9369,-15.28
9381,-13.32
9393,-9.66
9405,-4.7
9417,0.84
9429,6.15
9441,10.57
9453,13.76
9465,15.69
9477,16.62
9489,16.87
9501,16.77
9512,16.57
9523,16.41
9535,16.44
9547,16.78
9559,17.54
9571,18.72
9583,20.13
9595,21.41
9607,22.08
9619,21.67
9631,19.85
9643,16.45
9655,11.56
9667,5.54
9679,-0.96
9691,-7.08
9702,-11.9
9713,-14.67
9725,-15.16
9737,-13.66
9749,-10.94
9761,-7.96
9773,-5.54
9785,-4.07
9797,-3.54
9809,-3.72
9821,-4.36
9833,-5.43
9845,-7.01
9857,-9.24
9869,-12.05
9881,-15.09
9892,-17.79
9903,-19.59
9915,-20.22
9927,-19.9
9939,-19.37
9951,-19.52
9963,-21.22
9975,-24.81
9987,-29.99
9999,-35.91
10011,-41.41
10023,-45.43
10035,-47.32
10047,-46.89
10059,-44.32
10071,-40.03
10082,-34.41
10093,-27.78
10105,-20.3
10117,-12.08
10129,-3.27
10141,5.86
10153,14.91
10165,23.38
10177,30.72
10189,36.53
10201,40.59
10213,43.02
10225,44.18
10237,44.69
10249,45.19
10261,46.23
10272,47.98
10283,50.17
10295,52.07
10307,52.77
10319,51.54
10331,48.22
10343,43.42
10355,38.32
10367,34.25
10379,32.01
10391,31.41
10403,31.17
10415,29.35
10427,24.14
10439,14.72
10451,1.74
10462,-12.69
10473,-25.73
10485,-34.69
10497,-38.06
10509,-35.96
10521,-30.09
10533,-23.16
10545,-17.86
10557,-16.03
10569,-17.98
10581,-22.33
10593,-26.45
10605,-27.3
10617,-22.59
10629,-11.77
10641,3.51
10652,19.77
10663,32.89
10675,39.51
10687,38.3
10699,30.34
10711,18.61
10723,6.81
10735,-1.88
10747,-5.64
10759,-4.06
10771,2.21
10783,12.07
10795,24.2
10807,37.06
10819,48.73
10831,57.03
10842,59.99
10853,56.57
10865,47.28
10877,33.95
10889,19.07
10901,4.73
10913,-8.07
10925,-19.43
10937,-29.89
10949,-39.6
10961,-47.91
10973,-53.64
10985,-55.84
10997,-54.43
11009,-50.42
11021,-45.47
11032,-41.21
11043,-38.63
11055,-38.0
11067,-39.09
11079,-41.48
11091,-44.77
11103,-48.59
11115,-52.51
11127,-56.05
11139,-58.73
11151,-60.26
11163,-60.51
11175,-59.48
11187,-57.21
11199,-53.71
11211,-48.86
11222,-42.54
11233,-34.77
11245,-25.83
11257,-16.47
11269,-7.77
11281,-0.85
11293,3.5
11305,5.17
11317,4.67
11329,2.87
11341,0.59
11353,-1.72
11365,-4.03
11377,-6.44
11389,-8.93
11401,-11.26
11412,-12.88
11423,-13.01
11435,-10.67
11447,-4.82
11459,5.36
11471,20.09
11483,38.58
11495,58.92
11507,78.35
11519,94.04
11531,103.83
11543,106.86
11555,103.5
11567,94.88
11579,82.47
11591,67.58
11602,51.47
11613,35.34
11625,20.33
11637,7.42
11649,-2.72
11661,-10.03
11673,-15.1
11685,-18.83
11697,-22.12
11709,-25.35
11721,-28.34
11733,-30.64
11745,-31.72
11757,-31.25
11769,-29.43
11781,-27.06
11792,-25.11
11803,-24.22
11815,-24.28
11827,-24.55
11839,-24.19
11851,-22.57
11863,-19.3
11875,-14.54
11887,-8.99
11899,-3.58
11911,0.92
11923,4.24
11935,6.32
11947,7.04
11959,6.45
11971,5.3
11982,4.63
11993,5.53
12005,8.69
12017,14.01
12029,20.64
12041,26.59
12053,29.07
12065,23.91
12077,9.5
12089,-11.62
12101,-33.71
12113,-51.81
12125,-65.03
12137,-74.19
12149,-79.48
12161,-80.41
12172,-76.29
12183,-65.36
12195,-48.38
12207,-28.35
12219,-9.52
12231,4.61
12243,12.94
12255,16.49
12267,17.03
12279,15.73
12291,12.67
12303,6.79
12315,-2.85
12327,-15.96
12339,-30.69
12351,-44.28
12362,-54.68
12373,-61.48
12385,-65.38
12397,-66.9
12409,-65.53
12421,-59.46
12433,-46.53
12445,-25.55
12457,3.27
12469,38.22
12481,76.68
12493,115.36
12505,150.19
12517,175.51
12529,184.44
12541,170.73
12552,132.09
12563,73.03
12575,5.07
12587,-56.27
12599,-96.81
12611,-108.75
12623,-93.04
12635,-57.83
12647,-14.39
12659,27.45
12671,61.95
12683,87.33
12695,103.84
12707,111.82
12719,110.95
12731,100.89
12742,82.63
12753,59.34
12765,35.99
12777,17.74
12789,8.09
12801,7.73
12813,14.6
12825,24.87
12837,34.79
12849,41.95
12861,45.98
12873,48.08
12885,49.92
12897,52.42
12909,55.23
12921,56.99
12932,56.04
12943,51.32
12955,43.15
12967,33.17
12979,23.75
12991,17.21
13003,15.12
13015,17.92
13027,24.96
13039,34.41
13051,43.51
13063,49.21
13075,48.86
13087,41.08
13099,26.14
13111,5.99
13122,-16.24
13133,-37.04
13145,-53.96
13157,-66.23
13169,-74.42
13181,-79.82
13193,-83.58
13205,-86.33
13217,-88.65
13229,-90.69
13241,-91.95
13253,-92.79
13265,-94.38
13277,-97.8
13289,-103.69
13301,-111.96
13312,-121.81
13323,-132.57
13335,-142.2
13347,-146.04
13359,-140.02
13371,-121.79
13383,-90.88
13395,-49.7
13407,-3.5
13419,40.67
13431,74.24
13443,91.2
13455,91.33
13467,76.22
13479,48.69
13491,13.53
13502,-23.61
13513,-57.45
13525,-84.3
13537,-104.81
13549,-121.19
13561,-133.37
13573,-142.94
13585,-151.39
13597,-157.46
13609,-158.06
13621,-150.11
13633,-120.1
13645,-65.73
13657,-10.07
13669,38.04
13681,79.11
13692,110.38
13703,128.83
13715,132.3
13727,121.09
13739,99.12
13751,71.67
13763,46.28
13775,32.59
13787,34.24
13799,48.27
13811,68.81
13823,89.65
13835,106.6
13847,118.09
13859,123.05
13871,121.79
13882,117.24
13893,110.43
13905,100.82
13917,88.41
13929,73.84
13941,58.28
13953,42.8
13965,27.2
13977,11.43
13989,-2.85
14001,-14.63
14013,-23.52
14025,-28.87
14037,-30.24
14049,-27.81
14061,-22.6
14072,-16.69
14083,-12.05
14095,-9.21
14107,-8.3
14119,-8.95
14131,-10.26
14143,-11.19
14155,-11.05
14167,-9.69
14179,-7.64
14191,-5.61
14203,-4.01
14215,-3.16
14227,-3.28
14239,-4.3
14251,-5.94
14262,-7.9
14273,-9.88
14285,-11.67
14297,-13.12
14309,-14.16
14321,-14.8
14333,-15.09
14345,-15.09
14357,-14.89
14369,-14.58
14381,-14.21
14393,-13.83
14405,-13.41
14417,-12.82
14429,-11.8
14441,-10.04
14452,-7.29
14463,-3.52
14475,0.99
14487,5.69
14499,9.97
14511,13.4
14523,15.8
14535,17.28
14547,18.05
14559,18.26
14571,17.9
14583,16.83
14595,14.87
14607,11.91
14619,8.01
14631,3.4
14642,-1.53
14653,-6.3
14665,-10.47
14677,-13.72
14689,-15.91
14701,-17.16
14713,-17.73
14725,-17.9
14737,-17.85
14749,-17.49
14761,-16.53
14773,-14.51
14785,-10.97
14797,-5.81
14809,0.43
14821,6.24
14832,9.38
14843,7.5
14855,-0.8
14867,-14.97
14879,-32.31
14891,-48.64
14903,-59.85
14915,-63.44
14927,-59.4
14939,-49.85
14951,-37.97
14963,-26.68
14975,-17.75
14987,-11.75
14999,-8.6
15011,-8.06
15022,-9.99
15033,-14.2
15045,-20.07
15057,-26.48
15069,-32.01
15081,-35.36
15093,-35.77
15105,-33.14
15117,-27.95
15129,-21.01
15141,-13.22
15153,-5.53
15165,1.12
15177,5.76
15189,7.48
15201,5.66
15212,0.44
15223,-7.09
15235,-14.88
15247,-20.48
15259,-21.81
15271,-17.93
15283,-9.33
15295,2.1
15307,13.63
15319,22.32
15331,25.65
15343,22.1
15355,11.64
15367,-3.93
15379,-21.06
15391,-35.18
15402,-42.03
15413,-39.01
15425,-26.18
15437,-6.2
15449,16.59
15461,37.62
15473,53.44
15485,62.53
15497,65.16
15509,62.86
15521,57.56
15533,50.92
15545,44.01
15557,37.35
15569,31.1
15581,25.21
15592,19.53
15603,13.67
15615,6.88
15627,-1.82
15639,-13.39
15651,-28.12
15663,-45.25
15675,-62.93
15687,-78.86
15699,-91.2
15711,-99.26
15723,-103.73
15735,-106.17
15747,-108.22
15759,-110.85
15771,-113.94
15782,-116.13
15793,-115.38
15805,-109.66
15817,-97.96
15829,-80.92
15841,-60.91
15853,-41.31
15865,-25.01
15877,-12.83
15889,-2.74
15901,9.72
15913,29.92
15925,62.12
15937,107.68
15949,163.97
15961,224.27
15972,278.89
15983,317.05
15995,329.42
16007,310.69
16019,261.53
16031,189.15
16043,105.94
16055,26.59
16067,-35.72
16079,-72.51
16091,-81.86
16103,-68.22
16115,-40.53
16127,-9.26
16139,16.5
16151,31.02
16162,32.71
16173,23.54
16185,7.53
16197,-10.86
16209,-27.9
16221,-41.12
16233,-49.33
16245,-52.54
16257,-51.78
16269,-48.88
16281,-46.06
16293,-45.26
16305,-47.49
16317,-52.35
16329,-58.2
16341,-62.92
16352,-64.9
16363,-63.9
16375,-61.26
16387,-59.31
16399,-60.15
16411,-64.36
16423,-70.2
16435,-73.9
16447,-70.93
16459,-57.56
16471,-32.38
16483,3.08
16495,44.59
16507,86.24
16519,121.87
16531,146.45
16542,157.22
16553,154.21
16565,140.12
16577,119.45
16589,97.15
16601,77.19
16613,61.48
16625,49.62
16637,39.5
16649,28.41
16661,14.22
16673,-3.79
16685,-24.89
16697,-47.18
16709,-68.36
16721,-86.38
16732,-99.91
16743,-108.53
16755,-112.56
16767,-112.75
16779,-109.9
16791,-104.64
16803,-97.45
16815,-88.73
16827,-79.0
16839,-68.93
16851,-59.17
16863,-50.14
16875,-41.89
16887,-34.16
16899,-26.51
16911,-18.71
16922,-10.8
16933,-3.12
16945,3.92
16957,10.09
16969,15.41
16981,20.24
16993,25.15
17005,30.79
17017,37.74
17029,46.28
17041,56.14
17053,66.39
17065,75.58
17077,82.2
17089,85.26
17101,84.82
17112,81.93
17123,78.28
17135,75.5
17147,74.61
17159,75.76
17171,78.47
17183,82.01
17195,85.69
17207,88.95
17219,91.19
17231,91.58
17243,89.06
17255,82.67
17267,72.1
17279,58.14
17291,42.55
17302,27.75
17313,16.01
17325,8.79
17337,6.29
17349,7.33
17361,9.77
17373,11.21
17385,9.82
17397,4.99
17409,-2.37
17421,-10.21
17433,-16.04
17445,-17.94
17457,-15.4
17469,-9.42
17481,-2.55
17492,1.53
17503,-1.26
17515,-14.37
17527,-39.62
17539,-75.83
17551,-118.62
17563,-161.11
17575,-195.11
17587,-213.87
17599,-214.26
17611,-197.61
17623,-168.87
17635,-134.89
17647,-101.25
17659,-71.47
17671,-46.94
17682,-26.78
17693,-9.3
17705,6.95
17717,22.88
17729,38.87
17741,54.32
17753,69.12
17765,82.69
17777,93.56
17789,100.64
17801,103.24
17813,101.41
17825,96.42
17837,91.04
17849,88.29
17861,92.13
17872,104.87
17883,119.04
17895,125.97
17907,118.81
17919,96.4
17931,63.79
17943,34.48
17955,13.95
17967,5.5
17979,9.29
17991,21.88
18003,35.93
18015,43.61
18027,37.98
18039,15.36
18051,-23.04
18062,-71.78
18073,-120.77
18085,-159.3
18097,-179.39
18109,-177.0
18121,-152.96
18133,-112.54
18145,-63.73
18157,-15.14
18169,25.21
18181,52.54
18193,64.7
18205,61.77
18217,46.16
18229,21.95
18241,-5.78
18252,-31.71
18263,-51.31
18275,-62.09
18287,-63.35
18299,-56.71
18311,-45.37
18323,-32.84
18335,-21.74
18347,-13.33
18359,-7.52
18371,-3.42
18383,-0.24
18395,2.65
18407,5.21
18419,6.89
18431,7.17
18442,5.96
18453,3.72
18465,1.28
18477,-0.49
18489,-1.19
18501,-0.85
18513,-0.02
18525,0.43
18537,-0.27
18549,-2.44
18561,-5.86
18573,-9.78
18585,-13.28
18597,-15.45
18609,-15.7
18621,-13.88
18632,-10.29
18643,-5.58
18655,-0.57
18667,3.88
18679,7.07
18691,8.59
18703,8.42
18715,6.92
18727,4.76
18739,2.74
18751,1.6
18763,1.82
18775,3.57
18787,6.62
18799,10.45
18811,14.35
18822,17.66
18833,19.85
18845,20.69
18857,20.15
18869,18.37
18881,15.58
18893,11.98
18905,7.86
18917,3.57
18929,-0.49
18941,-3.95
18953,-6.55
18965,-8.31
18977,-9.48
18989,-10.4
19001,-11.35
19012,-12.36
19023,-13.2
19035,-13.53
19047,-13.06
19059,-11.76
19071,-9.8
19083,-7.44
19095,-4.88
19107,-2.16
19119,0.8
19131,4.02
19143,7.32
19155,10.33
19167,12.62
19179,13.88
19191,14.1
19202,13.47
19213,12.34
19225,11.0
19237,9.66
19249,8.38
19261,7.17
19273,5.98
19285,4.76
19297,3.45
19309,1.99
19321,0.38
19333,-1.33
19345,-3.17
19357,-5.25
19369,-7.74
19381,-10.78
19392,-14.16
19403,-17.28
19415,-19.17
19427,-18.88
19439,-15.91
19451,-10.55
19463,-3.77
19475,3.07
19487,8.72
19499,12.41
19511,14.03
19523,13.94
19535,12.7
19547,10.83
19559,8.74
19571,6.82
19582,5.43
19593,4.82
19605,5.09
19617,6.04
19629,7.31
19641,8.35
19653,8.65
19665,7.92
19677,6.18
19689,3.74
19701,1.0
19713,-1.63
19725,-3.82
19737,-5.33
19749,-6.13
19761,-6.57
19772,-6.95
19783,-7.32
19795,-7.64
19807,-7.81
19819,-7.7
19831,-7.18
19843,-5.8
19855,-3.09
19867,0.9
19879,6.19
19891,12.77
19903,20.13
19915,27.34
19927,33.28
19939,37.06
19951,38.75
19962,39.02
19973,38.17
19985,36.9
19997,36.05
20009,35.81
20021,35.68
20033,34.82
20045,32.61
20057,29.68
20069,27.33
20081,26.17
20093,27.16
20105,31.04
20117,37.37
20129,44.47
20141,49.85
20152,47.49
20163,33.54
20175,12.94
20187,-10.57
20199,-34.34
20211,-53.32
20223,-62.26
20235,-57.63
20247,-39.26
20259,-10.66
20271,22.42
20283,53.4
20295,76.0
20307,87.01
20319,86.6
20331,76.83
20342,60.51
20353,40.32
20365,18.63
20377,-2.09
20389,-19.74
20401,-33.6
20413,-43.56
20425,-49.96
20437,-53.69
20449,-55.74
20461,-56.81
20473,-57.18
20485,-56.62
20497,-54.99
20509,-52.78
20521,-50.35
20532,-47.6
20543,-44.05
20555,-38.94
20567,-31.55
20579,-21.38
20591,-8.41
20603,6.87
20615,23.4
20627,40.12
20639,56.25
20651,71.14
20663,84.29
20675,95.23
20687,103.74
20699,109.88
20711,114.12
20722,117.18
20733,119.88
20745,122.95
20757,126.58
20769,130.28
20781,132.82
20793,132.46
20805,127.24
20817,115.57
20829,96.76
20841,71.39
20853,41.21
20865,8.6
20877,-24.09
20889,-55.27
20901,-84.31
20912,-111.41
20923,-137.12
20935,-162.15
20947,-187.21
20959,-212.79
20971,-238.8
20983,-263.88
20995,-285.03
