seconds,BVP
7,-299.47
19,-281.28
31,-261.96
43,-240.91
55,-217.98
67,-193.6
79,-168.48
91,-143.17
103,-117.9
115,-92.75
127,-67.95
139,-44.09
151,-22.17
163,-3.38
175,11.3
186,21.45
197,27.45
209,30.4
221,31.82
233,33.14
245,35.23
257,38.09
269,40.99
281,42.77
293,42.51
305,39.96
317,35.69
329,30.87
341,26.8
353,24.31
365,23.41
376,23.3
387,22.7
399,20.45
411,16.01
423,9.64
435,2.31
447,-4.72
459,-10.29
471,-13.57
483,-14.11
495,-11.8
507,-6.83
519,0.2
531,8.34
543,16.28
555,22.7
566,26.64
577,27.86
589,26.93
601,25.02
613,23.48
625,23.34
637,25.09
649,28.54
661,33.0
673,37.58
685,41.44
697,44.01
709,45.04
721,44.63
733,43.13
745,41.0
756,38.74
767,36.72
779,35.11
791,33.93
803,33.02
815,32.17
827,31.26
839,30.28
851,29.39
863,28.76
875,28.57
887,28.87
899,29.55
911,30.41
923,31.15
935,31.52
946,31.36
957,30.66
969,29.56
981,28.3
993,27.15
1005,26.3
1017,25.75
1029,25.31
1041,24.62
1053,23.24
1065,20.79
1077,17.04
1089,12.03
1101,6.06
1113,-0.44
1125,-7.02
1136,-13.38
1147,-19.41
1159,-25.26
1171,-31.15
1183,-37.27
1195,-43.71
1207,-50.42
1219,-57.24
1231,-64.01
1243,-70.61
1255,-76.93
1267,-82.89
1279,-88.42
1291,-93.45
1303,-97.89
1315,-101.59
1326,-104.37
1337,-106.01
1349,-106.34
1361,-105.29
1373,-102.89
1385,-99.18
1397,-94.19
1409,-87.78
1421,-79.84
1433,-70.37
1445,-59.7
1457,-48.45
1469,-37.35
1481,-26.94
1493,-17.39
1505,-8.52
1516,0.06
1527,8.63
1539,17.3
1551,25.92
1563,34.25
1575,42.02
1587,48.98
1599,54.9
1611,59.59
1623,62.95
1635,65.06
1647,66.18
1659,66.66
1671,66.79
1683,66.66
1695,66.16
1706,65.05
1717,63.13
1729,60.26
1741,56.37
1753,51.42
1765,45.48
1777,38.77
1789,31.82
1801,25.34
1813,20.07
1825,16.45
1837,14.44
1849,13.58
1861,13.22
1873,12.85
1885,12.32
1896,11.78
1907,11.56
1919,11.89
1931,12.79
1943,14.08
1955,15.51
1967,16.91
1979,18.28
1991,19.67
2003,21.16
2015,22.67
2027,24.0
2039,24.91
2051,25.21
2063,24.87
2075,24.11
2086,23.24
2097,22.59
2109,22.31
2121,22.35
2133,22.44
2145,22.26
2157,21.61
2169,20.45
2181,18.96
2193,17.43
2205,16.1
2217,15.09
2229,14.36
2241,13.77
2253,13.18
2265,12.56
2276,11.99
2287,11.64
2299,11.64
2311,12.06
2323,12.85
2335,13.91
2347,15.13
2359,16.45
2371,17.87
2383,19.44
2395,21.19
2407,23.13
2419,25.2
2431,27.32
2443,29.35
2455,31.15
2466,32.64
2477,33.83
2489,34.83
2501,35.89
2513,37.28
2525,39.28
2537,41.97
2549,45.28
2561,48.95
2573,52.68
2585,56.28
2597,59.78
2609,63.39
2621,67.39
2633,71.98
2645,77.23
2656,83.05
2667,89.23
2679,95.48
2691,101.37
2703,106.28
2715,109.39
2727,109.8
2739,106.78
2751,100.08
2763,89.9
2775,76.82
2787,61.44
2799,44.23
2811,25.49
2823,5.61
2835,-14.76
2846,-34.58
2857,-52.71
2869,-68.23
2881,-80.76
2893,-90.48
2905,-97.91
2917,-103.59
2929,-107.8
2941,-110.5
2953,-111.51
2965,-110.75
2977,-108.4
2989,-104.89
3001,-100.79
3013,-96.61
3025,-92.69
3036,-89.15
3047,-85.96
3059,-83.03
3071,-80.3
3083,-77.69
3095,-75.08
3107,-72.21
3119,-68.68
3131,-64.06
3143,-58.09
3155,-50.72
3167,-42.22
3179,-33.1
3191,-23.99
3203,-15.46
3215,-7.92
3226,-1.62
3237,3.38
3249,7.15
3261,9.89
3273,11.9
3285,13.63
3297,15.62
3309,18.34
3321,22.03
3333,26.56
3345,31.37
3357,35.65
3369,38.64
3381,39.89
3393,39.47
3405,37.81
3416,35.46
3427,32.85
3439,30.13
3451,27.22
3463,24.02
3475,20.5
3487,16.78
3499,12.98
3511,9.15
3523,5.21
3535,1.11
3547,-3.04
3559,-6.88
3571,-9.88
3583,-11.55
3595,-11.64
3606,-10.25
3617,-7.82
3629,-4.85
3641,-1.77
3653,1.34
3665,4.66
3677,8.55
3689,13.32
3701,19.0
3713,25.24
3725,31.39
3737,36.77
3749,40.94
3761,43.89
3773,45.94
3785,47.5
3796,48.71
3807,49.33
3819,48.82
3831,46.57
3843,42.27
3855,36.03
3867,28.28
3879,19.63
3891,10.66
3903,1.91
3915,-5.99
3927,-12.2
3939,-15.71
3951,-15.61
3963,-11.51
3975,-3.91
3986,5.73
3997,15.36
4009,23.0
4021,27.44
4033,28.71
4045,28.03
4057,27.33
4069,28.6
4081,33.32
4093,42.04
4105,54.17
4117,67.87
4129,80.32
4141,88.22
4153,88.69
4165,80.15
4176,63.09
4187,40.13
4199,15.39
4211,-6.95
4223,-24.02
4235,-35.2
4247,-41.93
4259,-46.62
4271,-51.3
4283,-56.58
4295,-61.52
4307,-64.31
4319,-63.41
4331,-58.35
4343,-50.03
4355,-40.27
4366,-31.03
4377,-23.74
4389,-19.09
4401,-17.19
4413,-17.94
4425,-21.21
4437,-26.79
4449,-34.15
4461,-42.39
4473,-50.24
4485,-56.39
4497,-59.78
4509,-59.97
4521,-57.18
4533,-52.18
4545,-45.99
4556,-39.56
4567,-33.63
4579,-28.61
4591,-24.69
4603,-21.91
4615,-20.2
4627,-19.45
4639,-19.4
4651,-19.75
4663,-20.15
4675,-20.32
4687,-20.03
4699,-19.13
4711,-17.6
4723,-15.43
4735,-12.7
4746,-9.56
4757,-6.26
4769,-3.19
4781,-0.85
4793,0.37
4805,0.23
4817,-1.18
4829,-3.46
4841,-6.06
4853,-8.45
4865,-10.3
4877,-11.53
4889,-12.36
4901,-13.06
4913,-13.89
4925,-14.91
4936,-16.07
4947,-17.21
4959,-18.23
4971,-19.07
4983,-19.8
4995,-20.51
5007,-21.25
5019,-21.99
5031,-22.59
5043,-22.84
5055,-22.56
5067,-21.67
5079,-20.18
5091,-18.22
5103,-15.88
5115,-13.19
5126,-10.12
5137,-6.58
5149,-2.54
5161,1.92
5173,6.55
5185,10.94
5197,14.61
5209,17.16
5221,18.32
5233,18.07
5245,16.65
5257,14.52
5269,12.22
5281,10.21
5293,8.72
5305,7.69
5316,6.87
5327,5.97
5339,4.86
5351,3.6
5363,2.41
5375,1.54
5387,1.12
5399,1.12
5411,1.29
5423,1.16
5435,0.12
5447,-2.53
5459,-7.26
5471,-14.09
5483,-22.37
5495,-30.89
5506,-38.23
5517,-43.27
5529,-45.55
5541,-45.35
5553,-43.48
5565,-40.9
5577,-38.38
5589,-36.4
5601,-35.12
5613,-34.47
5625,-34.25
5637,-34.12
5649,-33.65
5661,-32.44
5673,-30.25
5685,-27.05
5696,-23.05
5707,-18.59
5719,-14.02
5731,-9.68
5743,-5.86
5755,-2.79
5767,-0.63
5779,0.62
5791,1.14
5803,1.27
5815,1.42
5827,1.93
5839,2.96
5851,4.53
5863,6.51
5875,8.74
5886,11.12
5897,13.57
5909,16.03
5921,18.45
5933,20.75
5945,22.86
5957,24.68
5969,26.16
5981,27.25
5993,27.89
6005,27.98
6017,27.42
6029,26.08
6041,23.93
6053,21.08
6065,17.78
6076,14.38
6087,11.23
6099,8.59
6111,6.55
6123,4.98
6135,3.64
6147,2.22
6159,0.46
6171,-1.74
6183,-4.25
6195,-6.71
6207,-8.58
6219,-9.24
6231,-8.22
6243,-5.26
6255,-0.43
6266,5.91
6277,13.24
6289,20.95
6301,28.47
6313,35.29
6325,40.98
6337,45.24
6349,47.86
6361,48.82
6373,48.24
6385,46.43
6397,43.83
6409,40.9
6421,38.04
6433,35.45
6445,33.15
6456,31.0
6467,28.82
6479,26.55
6491,24.24
6503,22.1
6515,20.29
6527,18.92
6539,17.91
6551,17.08
6563,16.2
6575,15.11
6587,13.73
6599,12.07
6611,10.19
6623,8.11
6635,5.88
6646,3.52
6657,1.08
6669,-1.39
6681,-3.83
6693,-6.13
6705,-8.16
6717,-9.72
6729,-10.63
6741,-10.81
6753,-10.35
6765,-9.57
6777,-8.96
6789,-8.99
6801,-9.98
6813,-11.92
6825,-14.48
6836,-17.16
6847,-19.55
6859,-21.44
6871,-22.89
6883,-24.17
6895,-25.49
6907,-27.0
6919,-28.63
6931,-30.16
6943,-31.25
6955,-31.57
6967,-30.86
6979,-28.98
6991,-26.03
7003,-22.29
7015,-18.23
7026,-14.32
7037,-10.9
7049,-8.12
7061,-5.96
7073,-4.32
7085,-3.12
7097,-2.29
7109,-1.69
7121,-1.07
7133,-0.12
7145,1.35
7157,3.27
7169,5.26
7181,6.8
7193,7.51
7205,7.27
7216,6.36
7227,5.18
7239,4.1
7251,3.34
7263,2.86
7275,2.61
7287,2.52
7299,2.6
7311,2.8
7323,3.05
7335,3.14
7347,2.95
7359,2.44
7371,1.79
7383,1.28
7395,1.16
7406,1.52
7417,2.25
7429,3.12
7441,3.81
7453,4.1
7465,3.79
7477,2.78
7489,1.03
7501,-1.44
7513,-4.53
7525,-8.06
7537,-11.8
7549,-15.51
7561,-19.05
7573,-22.35
7585,-25.43
7596,-28.29
7607,-30.83
7619,-32.84
7631,-34.14
7643,-34.64
7655,-34.54
7667,-34.17
7679,-33.87
7691,-33.7
7703,-33.31
7715,-31.98
7727,-28.9
7739,-23.56
7751,-16.07
7763,-7.11
7775,2.32
7786,11.3
7797,19.32
7809,26.28
7821,32.29
7833,37.33
7845,41.12
7857,43.18
7869,43.18
7881,41.2
7893,37.81
7905,33.89
7917,30.25
7929,27.29
7941,24.88
7953,22.61
7965,20.1
7976,17.27
7987,14.37
7999,11.81
8011,9.87
8023,8.53
8035,7.44
8047,6.21
8059,4.66
8071,2.98
8083,1.65
8095,1.16
8107,1.72
8119,3.16
8131,5.03
8143,6.87
8155,8.42
8166,9.69
8177,10.82
8189,11.92
8201,13.01
8213,14.03
8225,14.99
8237,15.98
8249,17.12
8261,18.41
8273,19.6
8285,20.25
8297,19.92
8309,18.35
8321,15.61
8333,11.98
8345,7.8
8356,3.28
8367,-1.51
8379,-6.6
8391,-11.92
8403,-17.24
8415,-22.16
8427,-26.24
8439,-29.16
8451,-30.8
8463,-31.37
8475,-31.24
8487,-30.88
8499,-30.64
8511,-30.65
8523,-30.84
8535,-31.04
8546,-31.07
8557,-30.85
8569,-30.39
8581,-29.7
8593,-28.67
8605,-27.14
8617,-24.96
8629,-22.11
8641,-18.81
8653,-15.4
8665,-12.33
8677,-9.88
8689,-8.13
8701,-6.98
8713,-6.24
8725,-5.64
8736,-4.91
8747,-3.81
8759,-2.1
8771,0.37
8783,3.63
8795,7.53
8807,11.79
8819,16.03
8831,19.92
8843,23.24
8855,25.94
8867,28.07
8879,29.73
8891,31.03
8903,32.03
8915,32.83
8926,33.54
8937,34.31
8949,35.25
8961,36.4
8973,37.65
8985,38.77
8997,39.56
9009,39.83
9021,39.59
9033,38.97
9045,38.24
9057,37.71
9069,37.71
9081,38.54
9093,40.41
9105,43.34
9116,47.17
9127,51.57
9139,56.16
9151,60.61
9163,64.72
9175,68.4
9187,71.56
9199,74.01
9211,75.33
9223,74.97
9235,72.39
9247,67.21
9259,59.44
9271,49.49
9283,38.1
9295,26.07
9306,14.08
9317,2.5
9329,-8.54
9341,-19.01
9353,-28.79
9365,-37.62
9377,-45.14
9389,-51.12
9401,-55.53
9413,-58.47
9425,-60.07
9437,-60.24
9449,-58.7
9461,-55.13
9473,-49.44
9485,-41.96
9496,-33.35
9507,-24.39
9519,-15.68
9531,-7.52
9543,0.05
9555,6.98
9567,13.04
9579,17.75
9591,20.57
9603,21.16
9615,19.6
9627,16.49
9639,12.77
9651,9.47
9663,7.43
9675,7.14
9686,8.62
9697,11.53
9709,15.25
9721,18.99
9733,21.96
9745,23.52
9757,23.34
9769,21.5
9781,18.46
9793,14.91
9805,11.53
9817,8.83
9829,7.01
9841,6.03
9853,5.66
9865,5.66
9876,5.78
9887,5.81
9899,5.52
9911,4.61
9923,2.77
9935,-0.25
9947,-4.56
9959,-9.98
9971,-16.01
9983,-21.96
9995,-27.17
10007,-31.17
10019,-33.89
10031,-35.7
10043,-37.14
10055,-38.83
10066,-41.1
10077,-44.03
10089,-47.41
10101,-50.94
10113,-54.26
10125,-57.04
10137,-58.89
10149,-59.39
10161,-58.16
10173,-55.0
10185,-50.05
10197,-43.88
10209,-37.29
10221,-31.17
10233,-26.21
10245,-22.76
10256,-20.91
10267,-20.58
10279,-21.59
10291,-23.67
10303,-26.46
10315,-29.49
10327,-32.27
10339,-34.32
10351,-35.33
10363,-35.11
10375,-33.66
10387,-31.07
10399,-27.51
10411,-23.21
10423,-18.45
10435,-13.52
10446,-8.57
10457,-3.51
10469,2.02
10481,8.55
10493,16.53
10505,26.04
10517,36.61
10529,47.31
10541,56.99
10553,64.76
10565,70.2
10577,73.5
10589,75.22
10601,75.98
10613,76.23
10625,76.07
10636,75.43
10647,74.13
10659,72.0
10671,68.85
10683,64.45
10695,58.57
10707,51.08
10719,42.08
10731,31.96
10743,21.34
10755,10.99
10767,1.58
10779,-6.42
10791,-12.8
10803,-17.66
10815,-21.33
10826,-24.28
10837,-26.96
10849,-29.72
10861,-32.71
10873,-35.81
10885,-38.71
10897,-41.05
10909,-42.53
10921,-43.14
10933,-43.19
10945,-43.2
10957,-43.72
10969,-45.06
10981,-47.15
10993,-49.62
11005,-51.99
11016,-53.86
11027,-55.18
11039,-56.06
11051,-56.74
11063,-57.26
11075,-57.5
11087,-57.22
11099,-56.21
11111,-54.48
11123,-52.26
11135,-49.87
11147,-47.56
11159,-45.33
11171,-42.94
11183,-39.98
11195,-36.06
11206,-30.99
11217,-24.87
11229,-18.04
11241,-10.98
11253,-4.18
11265,2.06
11277,7.63
11289,12.71
11301,17.68
11313,23.02
11325,29.21
11337,36.55
11349,44.98
11361,54.02
11373,62.76
11385,70.07
11396,74.89
11407,76.52
11419,74.95
11431,70.89
11443,65.65
11455,60.84
11467,57.88
11479,57.52
11491,59.6
11503,63.0
11515,66.05
11527,67.15
11539,65.38
11551,60.85
11563,54.52
11575,47.78
11586,41.76
11597,36.93
11609,33.15
11621,29.95
11633,26.84
11645,23.48
11657,19.57
11669,14.75
11681,8.54
11693,0.63
11705,-8.8
11717,-18.99
11729,-28.68
11741,-36.65
11753,-42.06
11765,-44.8
11776,-45.36
11787,-44.48
11799,-42.86
11811,-40.86
11823,-38.58
11835,-35.94
11847,-32.92
11859,-29.64
11871,-26.38
11883,-23.49
11895,-21.17
11907,-19.34
11919,-17.6
11931,-15.36
11943,-12.08
11955,-7.57
11966,-2.04
11977,3.94
11989,9.71
12001,14.76
12013,18.82
12025,21.84
12037,23.85
12049,24.87
12061,24.92
12073,24.02
12085,22.18
12097,19.39
12109,15.6
12121,10.71
12133,4.72
12145,-2.19
12156,-9.68
12167,-17.22
12179,-24.24
12191,-30.21
12203,-34.64
12215,-37.12
12227,-37.36
12239,-35.3
12251,-31.2
12263,-25.66
12275,-19.41
12287,-13.2
12299,-7.56
12311,-2.83
12323,0.79
12335,3.12
12346,4.05
12357,3.7
12369,2.45
12381,0.89
12393,-0.36
12405,-0.95
12417,-0.87
12429,-0.42
12441,0.01
12453,0.14
12465,-0.11
12477,-0.68
12489,-1.47
12501,-2.4
12513,-3.41
12525,-4.36
12536,-5.05
12547,-5.24
12559,-4.81
12571,-3.8
12583,-2.44
12595,-1.01
12607,0.26
12619,1.29
12631,2.11
12643,2.79
12655,3.46
12667,4.19
12679,5.04
12691,6.06
12703,7.27
12715,8.65
12726,10.07
12737,11.38
12749,12.39
12761,12.99
12773,13.2
12785,13.18
12797,13.1
12809,13.12
12821,13.19
12833,13.08
12845,12.44
12857,10.94
12869,8.51
12881,5.39
12893,2.13
12905,-0.66
12916,-2.52
12927,-3.33
12939,-3.38
12951,-3.16
12963,-3.18
12975,-3.75
12987,-4.91
12999,-6.52
13011,-8.34
13023,-10.13
13035,-11.68
13047,-12.73
13059,-13.04
13071,-12.4
13083,-10.74
13095,-8.23
13106,-5.22
13117,-2.15
13129,0.55
13141,2.62
13153,3.89
13165,4.36
13177,4.05
13189,3.05
13201,1.53
13213,-0.27
13225,-2.05
13237,-3.5
13249,-4.45
13261,-4.87
13273,-4.97
13285,-5.15
13296,-5.85
13307,-7.49
13319,-10.22
13331,-13.92
13343,-18.09
13355,-22.07
13367,-25.12
13379,-26.76
13391,-26.78
13403,-25.33
13415,-22.79
13427,-19.58
13439,-15.97
13451,-12.09
13463,-7.85
13475,-3.09
13486,2.24
13497,7.94
13509,13.53
13521,18.27
13533,21.43
13545,22.46
13557,21.22
13569,18.0
13581,13.43
13593,8.21
13605,3.03
13617,-1.59
13629,-5.28
13641,-7.75
13653,-8.76
13665,-8.13
13676,-5.77
13687,-1.78
13699,3.55
13711,9.66
13723,15.74
13735,20.81
13747,23.87
13759,24.14
13771,21.41
13783,16.17
13795,9.71
13807,3.86
13819,0.52
13831,1.1
13843,5.99
13855,14.5
13866,25.02
13877,35.57
13889,44.4
13901,50.43
13913,53.4
13925,53.66
13937,51.86
13949,48.48
13961,43.69
13973,37.23
13985,28.65
13997,17.59
14009,4.12
14021,-10.96
14033,-26.09
14045,-39.13
14056,-47.94
14067,-50.97
14079,-47.85
14091,-39.48
14103,-27.71
14115,-14.66
14127,-2.18
14139,8.57
14151,17.02
14163,22.96
14175,26.3
14187,27.06
14199,25.39
14211,21.68
14223,16.51
14235,10.44
14246,3.83
14257,-3.2
14269,-10.69
14281,-18.59
14293,-26.58
14305,-34.08
14317,-40.38
14329,-44.91
14341,-47.38
14353,-47.88
14365,-46.81
14377,-44.7
14389,-42.12
14401,-39.49
14413,-37.15
14425,-35.28
14436,-33.93
14447,-33.04
14459,-32.39
14471,-31.68
14483,-30.53
14495,-28.69
14507,-26.13
14519,-23.06
14531,-19.76
14543,-16.49
14555,-13.26
14567,-9.86
14579,-5.96
14591,-1.41
14603,3.63
14615,8.67
14626,12.93
14637,15.58
14649,15.94
14661,13.68
14673,8.9
14685,2.2
14697,-5.43
14709,-12.8
14721,-18.8
14733,-22.66
14745,-24.2
14757,-23.76
14769,-22.09
14781,-20.01
14793,-18.12
14805,-16.68
14816,-15.56
14827,-14.37
14839,-12.64
14851,-9.96
14863,-6.11
14875,-1.07
14887,4.93
14899,11.5
14911,18.15
14923,24.38
14935,29.82
14947,34.22
14959,37.51
14971,39.65
14983,40.63
14995,40.45
15006,39.14
15017,36.86
15029,33.85
15041,30.4
15053,26.68
15065,22.66
15077,18.19
15089,13.18
15101,7.82
15113,2.65
15125,-1.6
15137,-4.3
15149,-5.21
15161,-4.71
15173,-3.52
15185,-2.49
15196,-2.18
15207,-2.69
15219,-3.71
15231,-4.77
15243,-5.54
15255,-5.97
15267,-6.31
15279,-6.89
15291,-7.93
15303,-9.38
15315,-10.96
15327,-12.3
15339,-13.13
15351,-13.37
15363,-13.19
15375,-12.79
15386,-12.34
15397,-11.86
15409,-11.24
15421,-10.37
15433,-9.29
15445,-8.2
15457,-7.4
15469,-7.13
15481,-7.48
15493,-8.26
15505,-9.1
15517,-9.54
15529,-9.29
15541,-8.39
15553,-7.2
15565,-6.29
15576,-6.07
15587,-6.59
15599,-7.39
15611,-7.66
15623,-6.67
15635,-4.17
15647,-0.51
15659,3.39
15671,6.53
15683,8.21
15695,8.33
15707,7.32
15719,5.86
15731,4.52
15743,3.53
15755,2.74
15766,1.81
15777,0.44
15789,-1.44
15801,-3.64
15813,-5.8
15825,-7.52
15837,-8.48
15849,-8.53
15861,-7.67
15873,-6.14
15885,-4.39
15897,-3.05
15909,-2.69
15921,-3.68
15933,-5.92
15945,-8.87
15956,-11.67
15967,-13.51
15979,-13.91
15991,-12.88
16003,-10.77
16015,-8.1
16027,-5.37
16039,-2.91
16051,-0.98
16063,0.19
16075,0.35
16087,-0.66
16099,-2.84
16111,-5.88
16123,-9.21
16135,-12.11
16146,-14.04
16157,-14.72
16169,-14.33
16181,-13.4
16193,-12.67
16205,-12.79
16217,-14.15
16229,-16.7
16241,-19.94
16253,-23.16
16265,-25.69
16277,-27.13
16289,-27.54
16301,-27.33
16313,-26.98
16325,-26.65
16336,-25.99
16347,-24.22
16359,-20.61
16371,-14.92
16383,-7.57
16395,0.52
16407,8.45
16419,15.67
16431,22.16
16443,28.16
16455,33.89
16467,39.64
16479,45.97
16491,54.03
16503,65.32
16515,81.06
16526,101.19
16537,123.91
16549,145.97
16561,163.75
16573,174.6
16585,177.61
16597,173.55
16609,164.04
16621,150.62
16633,134.08
16645,114.61
16657,92.38
16669,68.25
16681,44.01
16693,22.1
16705,4.78
16716,-6.65
16727,-12.28
16739,-13.46
16751,-12.18
16763,-10.2
16775,-8.51
16787,-7.23
16799,-5.98
16811,-4.45
16823,-2.83
16835,-1.73
16847,-1.92
16859,-3.86
16871,-7.4
16883,-11.84
16895,-16.18
16906,-19.58
16917,-21.6
16929,-22.38
16941,-22.44
16953,-22.5
16965,-23.08
16977,-24.44
16989,-26.46
17001,-28.86
17013,-31.39
17025,-33.89
17037,-36.38
17049,-38.9
17061,-41.41
17073,-43.76
17085,-45.69
17096,-46.96
17107,-47.45
17119,-47.2
17131,-46.32
17143,-45.01
17155,-43.44
17167,-41.76
17179,-40.11
17191,-38.58
17203,-37.22
17215,-35.93
17227,-34.59
17239,-32.97
17251,-31.01
17263,-28.74
17275,-26.4
17286,-24.29
17297,-22.69
17309,-21.74
17321,-21.42
17333,-21.58
17345,-22.03
17357,-22.59
17369,-23.08
17381,-23.34
17393,-23.22
17405,-22.62
17417,-21.53
17429,-20.06
17441,-18.38
17453,-16.65
17465,-14.98
17476,-13.39
17487,-11.89
17499,-10.54
17511,-9.51
17523,-9.02
17535,-9.2
17547,-9.98
17559,-11.05
17571,-11.96
17583,-12.38
17595,-12.22
17607,-11.78
17619,-11.54
17631,-12.02
17643,-13.48
17655,-15.82
17666,-18.57
17677,-21.17
17689,-23.15
17701,-24.41
17713,-25.14
17725,-25.76
17737,-26.63
17749,-27.79
17761,-28.9
17773,-29.29
17785,-28.24
17797,-25.28
17809,-20.38
17821,-14.06
17833,-7.21
17845,-0.78
17856,4.56
17867,8.72
17879,12.17
17891,15.72
17903,20.2
17915,26.1
17927,33.31
17939,41.02
17951,47.65
17963,50.92
17975,48.13
17987,36.96
17999,16.54
18011,-11.62
18023,-43.48
18035,-73.35
18046,-95.77
18057,-107.4
18069,-108.15
18081,-100.76
18093,-89.36
18105,-77.61
18117,-67.61
18129,-59.81
18141,-53.8
18153,-49.24
18165,-46.19
18177,-44.88
18189,-45.15
18201,-46.14
18213,-46.53
18225,-45.15
18236,-41.55
18247,-36.15
18259,-30.01
18271,-24.21
18283,-19.35
18295,-15.41
18307,-11.83
18319,-7.87
18331,-2.96
18343,3.08
18355,9.95
18367,16.96
18379,23.3
18391,28.26
18403,31.54
18415,33.3
18426,34.18
18437,34.92
18449,36.08
18461,37.79
18473,39.74
18485,41.33
18497,42.05
18509,41.71
18521,40.43
18533,38.57
18545,36.43
18557,34.16
18569,31.74
18581,29.07
18593,26.15
18605,23.16
18616,20.44
18627,18.31
18639,16.96
18651,16.29
18663,16.05
18675,15.9
18687,15.67
18699,15.31
18711,14.92
18723,14.57
18735,14.18
18747,13.6
18759,12.65
18771,11.29
18783,9.67
18795,8.03
18806,6.68
18817,5.81
18829,5.58
18841,6.03
18853,7.15
18865,8.82
18877,10.8
18889,12.75
18901,14.28
18913,15.12
18925,15.14
18937,14.47
18949,13.39
18961,12.27
18973,11.42
18985,10.99
18996,11.03
19007,11.43
19019,12.06
19031,12.78
19043,13.52
19055,14.35
19067,15.36
19079,16.65
19091,18.21
19103,19.84
19115,21.2
19127,21.83
19139,21.37
19151,19.65
19163,16.8
19175,13.3
19186,9.88
19197,7.33
19209,6.2
19221,6.66
19233,8.35
19245,10.58
19257,12.58
19269,13.83
19281,14.2
19293,13.88
19305,13.14
19317,12.12
19329,10.73
19341,8.8
19353,6.24
19365,3.2
19376,-0.01
19387,-3.07
19399,-5.83
19411,-8.32
19423,-10.69
19435,-12.99
19447,-15.11
19459,-16.82
19471,-17.93
19483,-18.48
19495,-18.76
19507,-19.21
19519,-20.24
19531,-22.05
19543,-24.6
19555,-27.64
19566,-30.84
19577,-33.91
19589,-36.67
19601,-39.04
19613,-41.03
19625,-42.7
19637,-44.2
19649,-45.71
19661,-47.44
19673,-49.61
19685,-52.34
19697,-55.69
19709,-59.7
19721,-64.39
19733,-69.82
19745,-76.06
19756,-83.04
19767,-90.31
19779,-96.97
19791,-101.8
19803,-103.56
19815,-101.53
19827,-95.87
19839,-87.62
19851,-78.42
19863,-69.78
19875,-62.58
19887,-56.87
19899,-52.02
19911,-47.21
19923,-41.72
19935,-35.0
19946,-26.5
19957,-15.58
19969,-1.68
19981,15.17
19993,33.99
20005,52.98
20017,70.07
20029,83.84
20041,94.06
20053,101.62
20065,107.79
20077,113.37
20089,118.26
20101,121.68
20113,122.86
20125,121.71
20136,118.99
20147,115.96
20159,113.78
20171,113.01
20183,113.61
20195,115.08
20207,116.87
20219,118.55
20231,119.78
20243,120.32
20255,120.04
20267,119.0
20279,117.48
20291,115.89
20303,114.58
20315,113.61
20326,112.74
20337,111.6
20349,109.92
20361,107.59
20373,104.58
20385,100.69
20397,95.38
20409,87.92
20421,77.77
20433,64.97
20445,50.28
20457,34.96
20469,20.22
20481,6.75
20493,-5.47
20505,-16.99
20516,-28.39
20527,-39.9
20539,-51.29
20551,-61.99
20563,-71.46
20575,-79.38
20587,-85.64
20599,-90.2
20611,-92.98
20623,-93.84
20635,-92.93
20647,-90.85
20659,-88.61
20671,-87.38
20683,-87.89
20695,-90.07
20706,-92.93
20717,-94.99
20729,-94.87
20741,-91.9
20753,-86.37
20765,-79.36
20777,-72.26
20789,-66.33
20801,-62.33
20813,-60.49
20825,-60.5
20837,-61.68
20849,-63.01
20861,-63.22
20873,-60.92
20885,-54.92
20896,-44.61
20907,-30.26
20919,-13.1
20931,4.95
20943,21.83
20955,35.89
20967,46.26
20979,52.85
20991,56.06
