seconds,BVP
4,-1.05
16,-4.72
28,-7.31
40,-8.86
51,-9.68
62,-10.25
74,-11.1
86,-12.65
98,-15.08
110,-18.27
122,-21.82
134,-25.1
146,-27.42
158,-28.19
170,-27.07
182,-24.1
194,-19.68
206,-14.51
218,-9.35
230,-4.81
241,-1.18
252,1.58
264,3.77
276,5.79
288,7.9
300,10.17
312,12.47
324,14.52
336,15.99
348,16.62
360,16.29
372,15.07
384,13.18
396,10.92
408,8.66
420,6.66
431,5.1
442,4.02
454,3.38
466,3.07
478,2.95
490,2.89
502,2.83
514,2.75
526,2.73
538,2.9
550,3.36
562,4.11
574,5.06
586,5.98
598,6.69
610,7.08
621,7.15
632,7.01
644,6.77
656,6.44
668,6.0
680,5.39
692,4.61
704,3.75
716,2.97
728,2.4
740,2.07
752,1.9
764,1.69
776,1.21
788,0.33
800,-0.93
811,-2.43
822,-3.93
834,-5.26
846,-6.36
858,-7.32
870,-8.35
882,-9.63
894,-11.26
906,-13.22
918,-15.4
930,-17.63
942,-19.76
954,-21.67
966,-23.35
978,-24.86
990,-26.39
1001,-28.18
1012,-30.47
1024,-33.35
1036,-36.7
1048,-40.04
1060,-42.56
1072,-43.38
1084,-41.77
1096,-37.46
1108,-30.83
1120,-22.77
1132,-14.45
1144,-6.95
1156,-0.97
1168,3.26
1180,5.92
1191,7.4
1202,8.12
1214,8.47
1226,8.73
1238,9.12
1250,9.73
1262,10.59
1274,11.6
1286,12.59
1298,13.41
1310,13.9
1322,14.02
1334,13.8
1346,13.35
1358,12.81
1370,12.32
1381,11.94
1392,11.68
1404,11.47
1416,11.21
1428,10.82
1440,10.24
1452,9.49
1464,8.6
1476,7.66
1488,6.77
1500,6.01
1512,5.41
1524,4.91
1536,4.42
1548,3.88
1560,3.29
1571,2.71
1582,2.25
1594,1.98
1606,1.83
1618,1.68
1630,1.42
1642,1.01
1654,0.5
1666,0.0
1678,-0.39
1690,-0.7
1702,-0.98
1714,-1.33
1726,-1.77
1738,-2.3
1750,-2.86
1761,-3.44
1772,-4.02
1784,-4.63
1796,-5.28
1808,-5.97
1820,-6.68
1832,-7.41
1844,-8.16
1856,-8.93
1868,-9.75
1880,-10.64
1892,-11.65
1904,-12.84
1916,-14.24
1928,-15.83
1940,-17.44
1951,-18.88
1962,-19.95
1974,-20.62
1986,-21.02
1998,-21.47
2010,-22.35
2022,-23.92
2034,-26.16
2046,-28.7
2058,-30.87
2070,-31.81
2082,-30.78
2094,-27.37
2106,-21.72
2118,-14.5
2130,-6.71
2141,0.58
2152,6.55
2164,10.79
2176,13.32
2188,14.46
2200,14.62
2212,14.19
2224,13.5
2236,12.82
2248,12.31
2260,12.1
2272,12.19
2284,12.47
2296,12.79
2308,12.99
2320,13.02
2331,12.86
2342,12.62
2354,12.38
2366,12.24
2378,12.25
2390,12.41
2402,12.64
2414,12.82
2426,12.75
2438,12.27
2450,11.31
2462,9.97
2474,8.51
2486,7.23
2498,6.36
2510,5.98
2521,5.91
2532,5.9
2544,5.66
2556,5.03
2568,4.06
2580,2.92
2592,1.84
2604,0.99
2616,0.42
2628,0.05
2640,-0.28
2652,-0.7
2664,-1.34
2676,-2.21
2688,-3.26
2700,-4.41
2711,-5.51
2722,-6.47
2734,-7.26
2746,-7.97
2758,-8.78
2770,-9.89
2782,-11.42
2794,-13.3
2806,-15.34
2818,-17.26
2830,-18.85
2842,-20.06
2854,-21.01
2866,-21.94
2878,-23.13
2890,-24.84
2901,-27.19
2912,-30.11
2924,-33.18
2936,-35.72
2948,-36.79
2960,-35.61
2972,-31.78
2984,-25.53
2996,-17.71
3008,-9.48
3020,-1.92
3032,4.24
3044,8.75
3056,11.75
3068,13.54
3080,14.47
3091,14.81
3102,14.79
3114,14.63
3126,14.54
3138,14.66
3150,15.06
3162,15.69
3174,16.46
3186,17.21
3198,17.8
3210,18.14
3222,18.2
3234,18.09
3246,17.97
3258,18.02
3270,18.35
3281,18.89
3292,19.43
3304,19.74
3316,19.61
3328,19.01
3340,18.06
3352,16.92
3364,15.72
3376,14.49
3388,13.2
3400,11.84
3412,10.45
3424,9.21
3436,8.26
3448,7.66
3460,7.39
3471,7.26
3482,7.11
3494,6.78
3506,6.23
3518,5.48
3530,4.62
3542,3.73
3554,2.85
3566,2.02
3578,1.24
3590,0.51
3602,-0.18
3614,-0.85
3626,-1.56
3638,-2.36
3650,-3.33
3661,-4.51
3672,-5.91
3684,-7.46
3696,-9.03
3708,-10.45
3720,-11.56
3732,-12.31
3744,-12.8
3756,-13.25
3768,-13.94
3780,-15.08
3792,-16.73
3804,-18.74
3816,-20.81
3828,-22.64
3840,-24.06
3851,-25.15
3862,-26.23
3874,-27.73
3886,-29.94
3898,-32.91
3910,-36.26
3922,-39.24
3934,-40.89
3946,-40.3
3958,-36.95
3970,-30.91
3982,-22.8
3994,-13.68
4006,-4.69
4018,3.21
4030,9.44
4041,13.89
4052,16.72
4064,18.26
4076,18.88
4088,18.9
4100,18.56
4112,18.1
4124,17.7
4136,17.5
4148,17.53
4160,17.73
4172,17.98
4184,18.17
4196,18.21
4208,18.12
4220,18.06
4231,18.23
4242,18.75
4254,19.62
4266,20.64
4278,21.48
4290,21.87
4302,21.67
4314,20.92
4326,19.83
4338,18.63
4350,17.48
4362,16.45
4374,15.52
4386,14.62
4398,13.69
4410,12.69
4421,11.61
4432,10.44
4444,9.26
4456,8.13
4468,7.13
4480,6.33
4492,5.71
4504,5.28
4516,4.99
4528,4.83
4540,4.76
4552,4.7
4564,4.56
4576,4.24
4588,3.69
4600,2.94
4611,2.05
4622,1.07
4634,-0.02
4646,-1.3
4658,-2.83
4670,-4.57
4682,-6.38
4694,-8.03
4706,-9.38
4718,-10.41
4730,-11.31
4742,-12.32
4754,-13.65
4766,-15.35
4778,-17.3
4790,-19.25
4801,-21.02
4812,-22.53
4824,-23.85
4836,-25.12
4848,-26.54
4860,-28.3
4872,-30.51
4884,-33.2
4896,-36.19
4908,-39.01
4920,-40.9
4932,-40.98
4944,-38.51
4956,-33.21
4968,-25.49
4980,-16.32
4991,-6.95
5002,1.48
5014,8.28
5026,13.25
5038,16.56
5050,18.54
5062,19.47
5074,19.63
5086,19.24
5098,18.62
5110,18.07
5122,17.82
5134,17.91
5146,18.2
5158,18.43
5170,18.39
5181,18.05
5192,17.6
5204,17.32
5216,17.46
5228,18.11
5240,19.09
5252,20.13
5264,20.91
5276,21.24
5288,21.06
5300,20.47
5312,19.6
5324,18.56
5336,17.42
5348,16.19
5360,14.93
5371,13.67
5382,12.48
5394,11.38
5406,10.35
5418,9.33
5430,8.27
5442,7.12
5454,5.91
5466,4.7
5478,3.59
5490,2.65
5502,1.92
5514,1.39
5526,0.97
5538,0.52
5550,-0.08
5561,-0.93
5572,-2.0
5584,-3.21
5596,-4.44
5608,-5.6
5620,-6.65
5632,-7.62
5644,-8.6
5656,-9.67
5668,-10.91
5680,-12.38
5692,-14.09
5704,-15.95
5716,-17.84
5728,-19.58
5740,-21.05
5751,-22.23
5762,-23.28
5774,-24.48
5786,-26.12
5798,-28.43
5810,-31.37
5822,-34.6
5834,-37.47
5846,-39.13
5858,-38.76
5870,-35.84
5882,-30.36
5894,-22.82
5906,-14.13
5918,-5.33
5930,2.71
5941,9.42
5952,14.6
5964,18.28
5976,20.61
5988,21.76
6000,21.93
6012,21.4
6024,20.45
6036,19.38
6048,18.4
6060,17.6
6072,16.98
6084,16.53
6096,16.29
6108,16.33
6120,16.73
6131,17.48
6142,18.52
6154,19.7
6166,20.86
6178,21.84
6190,22.55
6202,22.97
6214,23.12
6226,23.05
6238,22.83
6250,22.53
6262,22.17
6274,21.76
6286,21.31
6298,20.74
6310,20.05
6321,19.23
6332,18.31
6344,17.39
6356,16.57
6368,15.96
6380,15.55
6392,15.28
6404,14.98
6416,14.47
6428,13.65
6440,12.56
6452,11.38
6464,10.33
6476,9.59
6488,9.15
6500,8.87
6511,8.45
6522,7.61
6534,6.1
6546,3.83
6558,0.8
6570,-2.91
6582,-7.22
6594,-12.07
6606,-17.44
6618,-23.37
6630,-29.93
6642,-37.21
6654,-45.28
6666,-54.02
6678,-63.03
6690,-71.62
6701,-78.82
6712,-83.65
6724,-85.36
6736,-83.73
6748,-79.15
6760,-72.53
6772,-65.01
6784,-57.63
6796,-51.06
6808,-45.54
6820,-40.94
6832,-36.97
6844,-33.32
6856,-29.77
6868,-26.2
6880,-22.56
6891,-18.88
6902,-15.21
6914,-11.75
6926,-8.7
6938,-6.27
6950,-4.54
6962,-3.39
6974,-2.46
6986,-1.31
6998,0.45
7010,3.03
7022,6.38
7034,10.23
7046,14.21
7058,17.93
7070,21.16
7081,23.8
7092,25.87
7104,27.45
7116,28.64
7128,29.45
7140,29.88
7152,29.9
7164,29.54
7176,28.88
7188,28.02
7200,27.06
7212,26.0
7224,24.82
7236,23.47
7248,21.97
7260,20.36
7271,18.75
7282,17.23
7294,15.81
7306,14.46
7318,13.09
7330,11.58
7342,9.8
7354,7.63
7366,5.01
7378,1.95
7390,-1.46
7402,-5.06
7414,-8.66
7426,-12.14
7438,-15.49
7450,-18.8
7461,-22.28
7472,-26.16
7484,-30.6
7496,-35.59
7508,-40.86
7520,-45.76
7532,-49.37
7544,-50.7
7556,-48.98
7568,-43.94
7580,-36.01
7592,-26.17
7604,-15.66
7616,-5.69
7628,2.95
7640,9.92
7651,15.32
7662,19.44
7674,22.63
7686,25.17
7698,27.26
7710,29.02
7722,30.55
7734,31.94
7746,33.18
7758,34.26
7770,35.09
7782,35.62
7794,35.84
7806,35.8
7818,35.6
7830,35.35
7841,35.11
7852,34.88
7864,34.61
7876,34.25
7888,33.77
7900,33.15
7912,32.39
7924,31.48
7936,30.41
7948,29.14
7960,27.67
7972,26.0
7984,24.24
7996,22.49
8008,20.88
8020,19.49
8031,18.34
8042,17.41
8054,16.65
8066,16.05
8078,15.63
8090,15.41
8102,15.33
8114,15.29
8126,15.12
8138,14.68
8150,13.95
8162,12.95
8174,11.77
8186,10.41
8198,8.81
8210,6.82
8221,4.35
8232,1.4
8244,-1.89
8256,-5.29
8268,-8.56
8280,-11.58
8292,-14.31
8304,-16.86
8316,-19.36
8328,-22.01
8340,-24.96
8352,-28.35
8364,-32.23
8376,-36.45
8388,-40.59
8400,-43.96
8411,-45.71
8422,-45.07
8434,-41.65
8446,-35.62
8458,-27.7
8470,-18.95
8482,-10.47
8494,-3.09
8506,2.79
8518,7.13
8530,10.12
8542,11.99
8554,12.96
8566,13.22
8578,12.97
8590,12.5
8601,12.04
8612,11.79
8624,11.81
8636,12.07
8648,12.5
8660,13.05
8672,13.7
8684,14.46
8696,15.33
8708,16.22
8720,17.04
8732,17.71
8744,18.16
8756,18.4
8768,18.44
8780,18.28
8791,17.88
8802,17.15
8814,16.05
8826,14.59
8838,12.84
8850,10.98
8862,9.16
8874,7.48
8886,5.95
8898,4.48
8910,3.0
8922,1.47
8934,-0.09
8946,-1.6
8958,-3.01
8970,-4.29
8981,-5.49
8992,-6.66
9004,-7.86
9016,-9.16
9028,-10.62
9040,-12.34
9052,-14.35
9064,-16.62
9076,-19.01
9088,-21.28
9100,-23.25
9112,-24.88
9124,-26.38
9136,-28.12
9148,-30.53
9160,-33.79
9171,-37.69
9182,-41.54
9194,-44.3
9206,-44.93
9218,-42.73
9230,-37.61
9242,-30.16
9254,-21.38
9266,-12.43
9278,-4.23
9290,2.64
9302,7.97
9314,11.78
9326,14.21
9338,15.53
9350,16.02
9361,16.11
9372,16.18
9384,16.47
9396,17.03
9408,17.68
9420,18.17
9432,18.38
9444,18.34
9456,18.24
9468,18.31
9480,18.7
9492,19.39
9504,20.3
9516,21.25
9528,22.09
9540,22.65
9551,22.82
9562,22.48
9574,21.61
9586,20.26
9598,18.57
9610,16.76
9622,15.01
9634,13.5
9646,12.24
9658,11.18
9670,10.21
9682,9.17
9694,8.01
9706,6.72
9718,5.38
9730,4.11
9741,3.08
9752,2.44
9764,2.25
9776,2.48
9788,2.99
9800,3.55
9812,3.92
9824,3.9
9836,3.39
9848,2.51
9860,1.47
9872,0.49
9884,-0.35
9896,-1.17
9908,-2.11
9920,-3.34
9931,-4.95
9942,-6.91
9954,-9.03
9966,-11.04
9978,-12.78
9990,-14.21
10002,-15.45
10014,-16.55
10026,-17.61
10038,-18.88
10050,-20.73
10062,-23.31
10074,-26.49
10086,-29.81
10098,-32.5
10110,-33.6
10121,-31.87
10132,-26.45
10144,-17.37
10156,-5.55
10168,7.73
10180,21.16
10192,33.33
10204,42.91
10216,48.48
10228,49.29
10240,44.86
10252,34.85
10264,19.51
10276,0.41
10288,-19.59
10300,-37.19
10311,-49.39
10322,-54.28
10334,-50.75
10346,-39.16
10358,-21.68
10370,-1.62
10382,17.94
10394,34.92
10406,48.05
10418,57.06
10430,57.5
10442,47.75
10454,31.47
10466,14.29
10478,-0.79
10490,-13.53
10501,-23.97
10512,-33.15
10524,-41.1
10536,-47.56
10548,-51.9
10560,-53.83
10572,-53.22
10584,-50.95
10596,-47.66
10608,-43.27
10620,-37.55
10632,-30.46
10644,-22.45
10656,-14.0
10668,-5.31
10680,3.11
10691,10.51
10702,14.86
10714,15.04
10726,11.49
10738,5.87
10750,1.52
10762,-1.49
10774,-3.25
10786,-3.68
10798,-3.84
10810,-3.75
10822,-2.96
10834,-1.31
10846,0.86
10858,2.8
10870,3.72
10881,3.62
10892,2.76
10904,1.3
10916,-0.45
10928,-2.09
10940,-3.25
10952,-3.58
10964,-2.64
10976,-0.04
10988,4.88
11000,12.49
11012,22.41
11024,33.87
11036,45.74
11048,56.75
11060,65.7
11071,71.7
11082,74.17
11094,73.2
11106,69.16
11118,62.52
11130,53.82
11142,43.69
11154,32.78
11166,21.8
11178,11.5
11190,2.42
11202,-4.97
11214,-10.53
11226,-14.4
11238,-16.89
11250,-18.32
11261,-18.92
11272,-18.84
11284,-18.07
11296,-16.66
11308,-14.63
11320,-12.12
11332,-9.37
11344,-6.59
11356,-3.91
11368,-1.35
11380,1.2
11392,3.85
11404,6.56
11416,9.16
11428,11.36
11440,12.98
11451,13.95
11462,14.41
11474,14.54
11486,14.49
11498,14.32
11510,13.93
11522,13.24
11534,12.23
11546,11.0
11558,9.67
11570,8.29
11582,6.77
11594,5.05
11606,3.07
11618,0.81
11630,-1.68
11641,-4.24
11652,-6.72
11664,-9.06
11676,-11.34
11688,-13.8
11700,-16.76
11712,-20.53
11724,-25.44
11736,-31.55
11748,-38.49
11760,-45.34
11772,-50.9
11784,-54.03
11796,-54.02
11808,-50.78
11820,-44.96
11831,-38.0
11842,-31.42
11854,-26.2
11866,-22.36
11878,-19.32
11890,-16.45
11902,-13.45
11914,-10.22
11926,-7.18
11938,-5.41
11950,-5.76
11962,-8.0
11974,-10.52
11986,-11.36
11998,-9.11
12010,-3.58
12021,4.75
12032,14.16
12044,21.77
12056,25.0
12068,22.99
12080,17.19
12092,10.16
12104,4.48
12116,1.73
12128,2.91
12140,6.82
12152,9.69
12164,7.2
12176,-3.93
12188,-24.54
12200,-53.9
12211,-90.37
12222,-132.49
12234,-178.07
12246,-217.06
12258,-238.1
12270,-237.53
12282,-223.95
12294,-208.22
12306,-194.65
12318,-179.76
12330,-162.01
12342,-133.29
12354,-91.42
12366,-41.1
12378,10.95
12390,58.77
12401,101.32
12412,137.58
12424,168.87
12436,197.45
12448,227.29
12460,259.44
12472,290.91
12484,317.96
12496,335.57
12508,339.8
12520,329.07
12532,306.05
12544,275.57
12556,245.28
12568,219.96
12580,186.28
12591,139.78
12602,84.5
12614,28.98
12626,-19.21
12638,-51.3
12650,-68.35
12662,-72.49
12674,-69.13
12686,-66.74
12698,-73.05
12710,-92.32
12722,-124.87
12734,-168.58
12746,-218.49
12758,-270.13
12770,-309.87
12781,-323.02
12792,-303.61
12804,-259.15
12816,-203.36
12828,-149.17
12840,-108.87
12852,-80.39
12864,-59.69
12876,-40.72
12888,-17.22
12900,13.89
12912,48.27
12924,82.62
12936,115.0
12948,143.08
12960,165.39
12971,179.59
12982,173.1
12994,142.07
13006,110.68
13018,89.35
13030,77.95
13042,78.08
13054,86.56
13066,95.69
13078,95.13
13090,78.4
13102,47.54
13114,10.68
13126,-24.49
13138,-49.65
13150,-59.95
13161,-57.24
13172,-46.74
13184,-33.94
13196,-21.13
13208,-6.55
13220,11.4
13232,29.56
13244,44.48
13256,53.46
13268,54.69
13280,48.84
13292,38.75
13304,28.54
13316,22.54
13328,22.63
13340,26.33
13351,30.71
13362,33.6
13374,33.56
13386,30.57
13398,25.77
13410,21.11
13422,18.95
13434,20.73
13446,25.71
13458,32.3
13470,38.46
13482,41.81
13494,40.5
13506,33.83
13518,22.38
13530,7.72
13541,-8.34
13552,-24.45
13564,-39.41
13576,-52.07
13588,-61.59
13600,-67.75
13612,-71.43
13624,-74.71
13636,-80.36
13648,-90.6
13660,-105.82
13672,-124.21
13684,-142.07
13696,-154.95
13708,-159.28
13720,-153.63
13731,-138.98
13742,-118.33
13754,-95.25
13766,-72.6
13778,-52.12
13790,-34.0
13802,-17.29
13814,-0.45
13826,17.52
13838,36.78
13850,56.22
13862,74.2
13874,89.21
13886,99.56
13898,104.18
13910,103.19
13921,98.71
13932,94.18
13944,93.69
13956,99.63
13968,111.9
13980,127.59
13992,140.92
14004,145.71
14016,137.79
14028,117.08
14040,86.67
14052,51.56
14064,15.48
14076,-20.02
14088,-50.01
14100,-70.62
14111,-82.64
14122,-90.66
14134,-97.94
14146,-108.39
14158,-118.41
14170,-123.37
14182,-119.41
14194,-104.83
14206,-81.96
14218,-52.23
14230,-21.96
14242,2.11
14254,15.26
14266,17.18
14278,10.73
14290,1.2
14301,-6.0
14312,-7.81
14324,-3.93
14336,3.57
14348,12.3
14360,20.04
14372,25.51
14384,27.65
14396,26.3
14408,22.17
14420,16.12
14432,9.02
14444,1.43
14456,-5.58
14468,-10.71
14480,-12.58
14491,-10.81
14502,-6.2
14514,-0.68
14526,3.04
14538,2.67
14550,-2.91
14562,-12.87
14574,-25.03
14586,-36.84
14598,-46.41
14610,-52.64
14622,-54.97
14634,-53.15
14646,-47.13
14658,-37.35
14670,-24.78
14681,-11.02
14692,1.99
14704,12.47
14716,19.27
14728,22.16
14740,21.64
14752,18.71
14764,14.55
14776,10.43
14788,7.61
14800,7.15
14812,9.68
14824,15.1
14836,22.6
14848,30.78
14860,38.15
14871,43.53
14882,46.41
14894,46.95
14906,45.73
14918,43.4
14930,40.44
14942,37.14
14954,33.65
14966,30.22
14978,27.19
14990,24.87
15002,23.38
15014,22.53
15026,21.92
15038,21.07
15050,19.75
15061,18.06
15072,16.33
15084,14.95
15096,14.1
15108,13.5
15120,12.55
15132,10.42
15144,6.4
15156,0.22
15168,-7.79
15180,-16.68
15192,-25.17
15204,-31.95
15216,-36.07
15228,-37.12
15240,-35.29
15251,-31.25
15262,-26.02
15274,-20.7
15286,-16.33
15298,-13.61
15310,-12.66
15322,-13.0
15334,-13.59
15346,-13.13
15358,-10.59
15370,-5.56
15382,1.48
15394,9.2
15406,15.72
15418,19.11
15430,17.98
15441,11.99
15452,2.09
15464,-9.64
15476,-20.51
15488,-28.02
15500,-30.59
15512,-28.02
15524,-21.39
15536,-12.62
15548,-3.83
15560,3.3
15572,7.92
15584,10.09
15596,10.62
15608,10.79
15620,11.9
15631,14.92
15642,20.06
15654,26.67
15666,33.31
15678,38.24
15690,40.08
15702,38.44
15714,34.17
15726,29.08
15738,25.19
15750,23.84
15762,25.06
15774,27.5
15786,28.93
15798,27.0
15810,19.99
15821,7.28
15832,-10.52
15844,-31.78
15856,-54.03
15868,-74.48
15880,-90.52
15892,-100.27
15904,-103.08
15916,-99.63
15928,-91.68
15940,-81.58
15952,-71.62
15964,-63.54
15976,-58.27
15988,-55.87
16000,-55.6
16011,-56.08
16022,-55.49
16034,-51.99
16046,-44.13
16058,-31.29
16070,-13.94
16082,6.32
16094,26.98
16106,45.11
16118,57.86
16130,63.13
16142,60.06
16154,49.34
16166,33.13
16178,14.67
16190,-2.48
16201,-15.28
16212,-21.95
16224,-22.23
16236,-17.27
16248,-9.05
16260,0.26
16272,8.89
16284,15.75
16296,20.4
16308,22.87
16320,23.47
16332,22.64
16344,21.0
16356,19.23
16368,18.06
16380,18.07
16391,19.61
16402,22.82
16414,27.64
16426,33.99
16438,41.61
16450,49.94
16462,57.85
16474,63.63
16486,65.31
16498,61.25
16510,50.82
16522,34.77
16534,15.17
16546,-5.18
16558,-23.51
16570,-37.84
16581,-47.32
16592,-52.28
16604,-53.82
16616,-53.38
16628,-52.23
16640,-51.22
16652,-50.6
16664,-50.18
16676,-49.45
16688,-47.84
16700,-44.89
16712,-40.32
16724,-34.02
16736,-26.0
16748,-16.35
16760,-5.23
16771,7.08
16782,20.25
16794,33.8
16806,47.11
16818,59.34
16830,69.36
16842,75.81
16854,77.31
16866,72.88
16878,62.37
16890,46.79
16902,28.29
16914,9.75
16926,-5.9
16938,-16.41
16950,-20.71
16961,-19.07
16972,-12.84
16984,-4.01
16996,5.32
17008,13.38
17020,18.99
17032,21.74
17044,21.93
17056,20.52
17068,18.75
17080,17.77
17092,18.2
17104,19.94
17116,22.11
17128,23.42
17140,22.62
17151,18.97
17162,12.48
17174,3.87
17186,-5.75
17198,-15.17
17210,-23.37
17222,-29.67
17234,-33.75
17246,-35.59
17258,-35.53
17270,-34.14
17282,-32.14
17294,-30.26
17306,-29.06
17318,-28.82
17330,-29.59
17341,-31.22
17352,-33.46
17364,-36.01
17376,-38.47
17388,-40.29
17400,-40.84
17412,-39.54
17424,-36.01
17436,-30.25
17448,-22.65
17460,-13.95
17472,-5.05
17484,3.2
17496,10.12
17508,15.36
17520,18.86
17531,20.84
17542,21.7
17554,21.87
17566,21.76
17578,21.65
17590,21.71
17602,21.99
17614,22.42
17626,22.84
17638,23.09
17650,22.99
17662,22.51
17674,21.72
17686,20.82
17698,20.0
17710,19.46
17721,19.26
17732,19.41
17744,19.84
17756,20.47
17768,21.23
17780,22.02
17792,22.71
17804,23.1
17816,22.97
17828,22.09
17840,20.3
17852,17.61
17864,14.26
17876,10.65
17888,7.32
17900,4.75
17911,3.22
17922,2.74
17934,3.04
17946,3.68
17958,4.19
17970,4.21
17982,3.61
17994,2.47
18006,1.05
18018,-0.32
18030,-1.39
18042,-2.04
18054,-2.35
18066,-2.57
18078,-3.02
18090,-3.93
18101,-5.39
18112,-7.3
18124,-9.47
18136,-11.71
18148,-13.93
18160,-16.11
18172,-18.32
18184,-20.59
18196,-22.89
18208,-25.16
18220,-27.34
18232,-29.43
18244,-31.48
18256,-33.64
18268,-36.04
18280,-38.75
18291,-41.71
18302,-44.58
18314,-46.76
18326,-47.51
18338,-46.06
18350,-41.91
18362,-34.99
18374,-25.74
18386,-15.0
18398,-3.91
18410,6.39
18422,14.84
18434,20.71
18446,23.64
18458,23.79
18470,21.8
18481,18.73
18492,15.72
18504,13.7
18516,13.13
18528,13.96
18540,15.78
18552,18.05
18564,20.3
18576,22.21
18588,23.57
18600,24.21
18612,23.96
18624,22.73
18636,20.63
18648,18.04
18660,15.57
18671,13.87
18682,13.39
18694,14.05
18706,15.23
18718,15.79
18730,14.52
18742,10.65
18754,4.29
18766,-3.32
18778,-10.22
18790,-14.54
18802,-15.44
18814,-13.72
18826,-11.75
18838,-12.43
18850,-17.97
18861,-28.69
18872,-42.81
18884,-57.03
18896,-67.79
18908,-72.61
18920,-71.0
18932,-64.58
18944,-56.75
18956,-52.01
18968,-54.83
18980,-68.27
18992,-92.58
19004,-124.24
19016,-156.34
19028,-180.35
19040,-188.7
19051,-177.41
19062,-147.51
19074,-104.5
19086,-56.33
19098,-10.8
19110,26.47
19122,52.88
19134,68.78
19146,77.07
19158,82.13
19170,88.41
19182,98.92
19194,114.13
19206,131.63
19218,147.33
19230,156.85
19241,157.11
19252,147.93
19264,131.67
19276,111.69
19288,91.0
19300,71.48
19312,54.04
19324,39.54
19336,28.48
19348,20.48
19360,15.29
19372,12.45
19384,11.02
19396,9.94
19408,8.5
19420,6.63
19431,5.59
19442,6.41
19454,8.61
19466,12.01
19478,16.5
19490,21.45
19502,26.14
19514,30.12
19526,33.43
19538,37.5
19550,43.0
19562,48.31
19574,52.0
19586,52.64
19598,48.58
19610,38.85
19621,24.03
19632,0.43
19644,-28.78
19656,-49.94
19668,-58.93
19680,-57.37
19692,-46.98
19704,-30.35
19716,-10.27
19728,10.69
19740,30.34
19752,47.78
19764,61.72
19776,69.65
19788,70.92
19800,66.66
19811,58.69
19822,49.06
19834,39.6
19846,31.48
19858,25.91
19870,22.99
19882,21.15
19894,19.44
19906,17.59
19918,15.3
19930,12.45
19942,9.09
19954,5.38
19966,1.9
19978,-1.33
19990,-5.32
20001,-10.64
20012,-17.31
20024,-25.07
20036,-33.39
20048,-41.56
20060,-48.91
20072,-54.68
20084,-58.42
20096,-60.21
20108,-60.05
20120,-57.99
20132,-54.46
20144,-50.25
20156,-46.25
20168,-43.19
20180,-41.35
20191,-40.59
20202,-40.57
20214,-40.66
20226,-40.17
20238,-38.57
20250,-35.56
20262,-31.11
20274,-25.52
20286,-19.35
20298,-13.34
20310,-8.11
20322,-4.02
20334,-1.1
20346,0.87
20358,2.2
20370,3.07
20381,3.59
20392,3.79
20404,3.77
20416,3.74
20428,3.94
20440,4.51
20452,5.44
20464,6.56
20476,7.61
20488,8.37
20500,8.76
20512,8.78
20524,8.52
20536,8.06
20548,7.49
20560,6.91
20571,6.47
20582,6.31
20594,6.55
20606,7.18
20618,8.06
20630,8.9
20642,9.38
20654,9.23
20666,8.36
20678,6.88
20690,5.06
20702,3.21
20714,1.61
20726,0.36
20738,-0.55
20750,-1.21
20761,-1.73
20772,-2.19
20784,-2.61
20796,-3.0
20808,-3.35
20820,-3.64
20832,-3.82
20844,-3.92
20856,-3.95
20868,-4.0
20880,-4.14
20892,-4.45
20904,-4.96
20916,-5.64
20928,-6.4
20940,-7.2
20951,-7.98
20962,-8.74
20974,-9.51
20986,-10.31
20998,-11.14
