seconds,BVP
7,57.14
18,55.11
30,50.08
42,42.73
54,33.87
66,24.06
78,13.55
90,2.43
102,-9.08
114,-20.33
126,-30.26
138,-37.79
150,-42.27
162,-44.02
174,-44.32
186,-45.14
197,-48.28
208,-54.56
220,-63.19
232,-71.92
244,-77.82
256,-78.38
268,-72.56
280,-61.13
292,-46.21
304,-30.29
316,-15.3
328,-2.05
340,9.66
352,20.35
364,30.32
376,39.23
387,46.08
398,49.59
410,48.64
422,42.67
434,31.9
446,17.33
458,0.58
470,-16.57
482,-32.5
494,-46.11
506,-56.84
518,-64.5
530,-69.06
542,-70.53
554,-69.0
566,-64.83
577,-58.71
588,-51.59
600,-44.36
612,-37.63
624,-31.56
636,-25.97
648,-20.56
660,-15.21
672,-10.13
684,-5.7
696,-2.43
708,-0.72
720,-0.68
732,-2.22
744,-4.93
756,-8.17
767,-11.12
778,-12.95
790,-12.98
802,-10.87
814,-6.71
826,-0.95
838,5.74
850,12.53
862,18.56
874,22.89
886,24.49
898,22.44
910,16.31
922,6.54
934,-5.23
946,-16.46
957,-24.42
968,-27.15
980,-24.26
992,-17.06
1004,-8.11
1016,-0.29
1028,4.08
1040,3.78
1052,-1.26
1064,-10.29
1076,-22.07
1088,-35.09
1100,-47.73
1112,-58.33
1124,-65.33
1136,-67.63
1147,-64.73
1158,-57.04
1170,-45.8
1182,-32.81
1194,-20.1
1206,-9.47
1218,-2.12
1230,1.46
1242,1.45
1254,-1.51
1266,-6.51
1278,-12.62
1290,-18.81
1302,-24.06
1314,-27.33
1326,-27.78
1337,-24.93
1348,-18.83
1360,-10.03
1372,0.54
1384,11.74
1396,22.33
1408,30.96
1420,36.32
1432,37.49
1444,34.46
1456,28.44
1468,21.91
1480,17.68
1492,17.92
1504,23.18
1516,32.14
1527,42.23
1538,50.77
1550,55.99
1562,57.53
1574,56.07
1586,52.69
1598,48.19
1610,42.84
1622,36.52
1634,29.19
1646,21.16
1658,13.14
1670,6.06
1682,0.69
1694,-2.74
1706,-4.62
1717,-5.88
1728,-7.63
1740,-10.62
1752,-14.8
1764,-19.11
1776,-21.94
1788,-21.7
1800,-17.65
1812,-10.29
1824,-1.37
1836,6.75
1848,11.91
1860,12.86
1872,9.62
1884,3.26
1896,-4.49
1907,-11.92
1918,-17.84
1930,-21.73
1942,-23.65
1954,-24.08
1966,-23.46
1978,-22.05
1990,-19.86
2002,-16.62
2014,-12.15
2026,-6.46
2038,0.0
2050,6.42
2062,11.79
2074,15.16
2086,15.98
2097,14.2
2108,10.33
2120,5.13
2132,-0.6
2144,-6.26
2156,-11.44
2168,-15.9
2180,-19.44
2192,-21.82
2204,-22.99
2216,-23.12
2228,-22.81
2240,-22.85
2252,-23.91
2264,-26.14
2276,-29.1
2287,-31.96
2298,-33.92
2310,-34.65
2322,-34.42
2334,-34.09
2346,-34.63
2358,-36.89
2370,-41.26
2382,-47.62
2394,-55.33
2406,-63.39
2418,-70.63
2430,-75.97
2442,-78.62
2454,-78.26
2466,-74.89
2477,-68.71
2488,-59.84
2500,-48.32
2512,-34.31
2524,-18.36
2536,-1.61
2548,14.34
2560,27.95
2572,38.22
2584,45.0
2596,48.88
2608,50.87
2620,51.81
2632,52.14
2644,51.89
2656,50.94
2667,49.37
2678,47.57
2690,46.17
2702,45.83
2714,46.86
2726,49.1
2738,51.97
2750,54.69
2762,56.6
2774,57.27
2786,56.53
2798,54.24
2810,50.13
2822,43.79
2834,34.91
2846,23.69
2857,11.04
2868,-1.46
2880,-12.07
2892,-19.39
2904,-22.88
2916,-22.85
2928,-20.19
2940,-15.86
2952,-10.59
2964,-4.81
2976,1.09
2988,6.48
3000,10.43
3012,11.94
3024,10.33
3036,5.7
3047,-0.91
3058,-7.65
3070,-12.28
3082,-12.82
3094,-8.01
3106,2.18
3118,16.66
3130,33.44
3142,50.33
3154,65.52
3166,78.11
3178,88.17
3190,96.41
3202,103.65
3214,110.38
3226,116.61
3237,122.07
3248,126.58
3260,130.42
3272,134.24
3284,138.84
3296,144.64
3308,151.41
3320,158.18
3332,163.45
3344,165.67
3356,163.48
3368,156.07
3380,143.28
3392,125.66
3404,104.46
3416,81.4
3427,58.39
3438,37.05
3450,18.4
3462,2.74
3474,-10.12
3486,-20.55
3498,-28.75
3510,-34.74
3522,-38.5
3534,-40.26
3546,-40.65
3558,-40.61
3570,-41.28
3582,-43.6
3594,-48.24
3606,-55.37
3617,-64.56
3628,-74.65
3640,-83.86
3652,-90.17
3664,-91.88
3676,-88.23
3688,-79.73
3700,-67.89
3712,-54.72
3724,-41.94
3736,-30.61
3748,-21.21
3760,-13.89
3772,-8.84
3784,-6.41
3796,-6.78
3807,-9.68
3818,-14.14
3830,-18.62
3842,-21.43
3854,-21.39
3866,-18.24
3878,-12.75
3890,-6.45
3902,-1.12
3914,1.79
3926,1.43
3938,-2.32
3950,-9.16
3962,-18.59
3974,-30.16
3986,-43.4
3997,-57.72
4008,-72.24
4020,-85.82
4032,-97.42
4044,-106.38
4056,-112.76
4068,-117.22
4080,-120.65
4092,-123.74
4104,-126.58
4116,-128.68
4128,-129.22
4140,-127.43
4152,-122.85
4164,-115.46
4176,-105.64
4187,-94.09
4198,-81.67
4210,-69.24
4222,-57.43
4234,-46.47
4246,-36.2
4258,-26.21
4270,-16.24
4282,-6.49
4294,2.34
4306,9.29
4318,13.54
4330,14.82
4342,13.5
4354,10.33
4366,6.12
4377,1.42
4388,-3.5
4400,-8.41
4412,-12.92
4424,-16.49
4436,-18.53
4448,-18.72
4460,-17.18
4472,-14.42
4484,-11.07
4496,-7.55
4508,-3.99
4520,-0.19
4532,4.09
4544,9.01
4556,14.57
4567,20.6
4578,26.79
4590,32.65
4602,37.56
4614,40.81
4626,41.86
4638,40.49
4650,36.88
4662,31.53
4674,24.94
4686,17.36
4698,8.79
4710,-0.82
4722,-11.21
4734,-21.66
4746,-31.12
4757,-38.52
4768,-43.25
4780,-45.39
4792,-45.57
4804,-44.74
4816,-43.71
4828,-42.85
4840,-41.82
4852,-39.61
4864,-34.65
4876,-25.3
4888,-10.52
4900,9.54
4912,33.15
4924,57.12
4936,77.72
4947,91.8
4958,97.93
4970,96.89
4982,91.28
4994,84.45
5006,79.38
5018,77.79
5030,80.0
5042,85.41
5054,93.09
5066,102.29
5078,112.56
5090,123.58
5102,134.93
5114,146.03
5126,156.26
5137,165.17
5148,172.75
5160,179.42
5172,185.81
5184,192.35
5196,198.82
5208,204.2
5220,206.75
5232,204.52
5244,196.09
5256,181.13
5268,160.64
5280,136.54
5292,111.04
5304,85.78
5316,61.39
5327,37.45
5338,12.99
5350,-12.97
5362,-40.85
5374,-70.33
5386,-100.42
5398,-129.7
5410,-156.79
5422,-180.63
5434,-200.7
5446,-217.12
5458,-230.51
5470,-241.63
5482,-251.09
5494,-259.04
5506,-265.08
5517,-268.36
5528,-267.85
5540,-262.54
5552,-251.76
5564,-235.31
5576,-213.6
5588,-187.67
5600,-159.07
5612,-129.71
5624,-101.49
5636,-75.92
5648,-53.9
5660,-35.54
5672,-20.35
5684,-7.5
5696,3.83
5707,14.13
5718,23.42
5730,31.37
5742,37.46
5754,41.2
5766,42.47
5778,41.53
5790,38.95
5802,35.43
5814,31.65
5826,28.02
5838,24.75
5850,21.86
5862,19.3
5874,16.93
5886,14.59
5897,12.1
5908,9.28
5920,6.08
5932,2.63
5944,-0.66
5956,-3.34
5968,-5.1
5980,-5.98
5992,-6.38
6004,-6.88
6016,-7.9
6028,-9.49
6040,-11.25
6052,-12.53
6064,-12.89
6076,-12.29
6087,-11.25
6098,-10.6
6110,-10.99
6122,-12.63
6134,-15.21
6146,-18.11
6158,-20.72
6170,-22.77
6182,-24.4
6194,-25.95
6206,-27.72
6218,-29.86
6230,-32.33
6242,-34.99
6254,-37.67
6266,-40.08
6277,-41.83
6288,-42.31
6300,-40.91
6312,-37.16
6324,-31.05
6336,-23.07
6348,-14.14
6360,-5.22
6372,2.9
6384,9.86
6396,15.72
6408,20.68
6420,24.89
6432,28.31
6444,30.72
6456,31.94
6467,32.04
6478,31.34
6490,30.38
6502,29.69
6514,29.56
6526,29.95
6538,30.58
6550,31.16
6562,31.53
6574,31.73
6586,31.96
6598,32.4
6610,33.07
6622,33.78
6634,34.21
6646,34.04
6657,33.04
6668,31.17
6680,28.58
6692,25.53
6704,22.26
6716,18.93
6728,15.57
6740,12.13
6752,8.59
6764,4.94
6776,1.25
6788,-2.43
6800,-6.17
6812,-10.09
6824,-14.33
6836,-18.95
6847,-23.86
6858,-28.99
6870,-34.41
6882,-40.45
6894,-47.51
6906,-55.67
6918,-64.3
6930,-71.97
6942,-76.75
6954,-76.93
6966,-71.84
6978,-62.15
6990,-49.67
7002,-36.68
7014,-25.21
7026,-16.65
7037,-11.64
7048,-10.31
7060,-12.42
7072,-17.23
7084,-23.41
7096,-29.09
7108,-32.43
7120,-32.32
7132,-28.89
7144,-23.54
7156,-18.22
7168,-14.4
7180,-12.38
7192,-11.14
7204,-9.1
7216,-5.06
7227,1.05
7238,8.11
7250,14.48
7262,18.86
7274,20.85
7286,20.95
7298,20.02
7310,18.64
7322,16.84
7334,14.23
7346,10.41
7358,5.35
7370,-0.6
7382,-7.01
7394,-13.74
7406,-21.04
7417,-29.35
7428,-38.89
7440,-49.26
7452,-59.54
7464,-68.67
7476,-75.93
7488,-81.25
7500,-85.27
7512,-88.96
7524,-93.33
7536,-99.12
7548,-106.74
7560,-116.22
7572,-127.21
7584,-138.85
7596,-149.79
7607,-158.42
7618,-163.33
7630,-163.79
7642,-159.83
7654,-152.09
7666,-141.24
7678,-127.62
7690,-111.2
7702,-92.04
7714,-70.85
7726,-49.2
7738,-29.12
7750,-12.27
7762,0.73
7774,10.62
7786,18.92
7797,27.09
7808,35.76
7820,44.54
7832,52.36
7844,58.12
7856,61.3
7868,62.19
7880,61.74
7892,61.21
7904,61.7
7916,63.81
7928,67.47
7940,71.96
7952,76.2
7964,79.12
7976,80.1
7987,79.34
7998,77.92
8010,77.57
8022,80.2
8034,87.23
8046,98.87
8058,113.75
8070,128.76
8082,139.57
8094,141.74
8106,132.24
8118,110.67
8130,79.97
8142,45.8
8154,15.0
8166,-6.61
8177,-15.9
8188,-13.26
8200,-1.89
8212,13.74
8224,29.61
8236,43.34
8248,54.16
8260,62.26
8272,67.71
8284,70.03
8296,68.22
8308,61.4
8320,49.49
8332,33.41
8344,14.77
8356,-4.65
8367,-23.35
8378,-40.08
8390,-53.56
8402,-62.27
8414,-64.66
8426,-59.9
8438,-48.66
8450,-33.57
8462,-18.69
8474,-8.28
8486,-4.95
8498,-8.56
8510,-16.07
8522,-22.78
8534,-24.3
8546,-18.44
8557,-6.08
8568,9.22
8580,22.54
8592,29.3
8604,26.62
8616,13.97
8628,-6.8
8640,-31.98
8652,-56.83
8664,-76.6
8676,-87.59
8688,-88.07
8700,-78.63
8712,-62.0
8724,-42.12
8736,-22.98
8747,-7.66
8758,2.18
8770,6.28
8782,5.51
8794,1.33
8806,-4.54
8818,-10.46
8830,-15.03
8842,-17.34
8854,-16.95
8866,-13.78
8878,-8.0
8890,0.14
8902,10.28
8914,21.86
8926,34.02
8937,45.66
8948,55.66
8960,63.27
8972,68.24
8984,70.9
8996,71.88
9008,71.8
9020,71.03
9032,69.66
9044,67.56
9056,64.59
9068,60.76
9080,56.28
9092,51.54
9104,47.06
9116,43.38
9127,41.12
9138,40.83
9150,42.82
9162,46.94
9174,52.44
9186,58.02
9198,62.2
9210,63.97
9222,63.24
9234,60.98
9246,58.83
9258,58.27
9270,59.95
9282,63.37
9294,67.33
9306,70.55
9317,72.4
9328,73.04
9340,73.02
9352,72.72
9364,71.91
9376,69.82
9388,65.46
9400,58.18
9412,48.02
9424,35.97
9436,23.98
9448,14.65
9460,10.74
9472,14.32
9484,25.97
9496,44.21
9507,65.74
9518,86.25
9530,101.57
9542,108.87
9554,106.99
9566,96.43
9578,78.66
9590,55.66
9602,29.73
9614,3.52
9626,-19.89
9638,-37.4
9650,-46.6
9662,-46.56
9674,-38.31
9686,-24.71
9697,-9.67
9708,3.02
9720,10.71
9732,12.51
9744,9.2
9756,2.5
9768,-5.79
9780,-14.55
9792,-23.71
9804,-33.89
9816,-45.79
9828,-59.39
9840,-73.49
9852,-85.96
9864,-94.41
9876,-97.29
9887,-94.56
9898,-87.6
9910,-78.52
9922,-69.11
9934,-60.07
9946,-50.97
9958,-40.86
9970,-29.02
9982,-15.38
9994,-0.45
10006,15.05
10018,30.35
10030,44.55
10042,56.58
10054,65.39
10066,70.52
10077,72.65
10088,73.6
10100,75.68
10112,80.51
10124,88.02
10136,96.25
10148,102.11
10160,102.69
10172,96.41
10184,83.58
10196,66.12
10208,46.83
10220,28.61
10232,13.84
10244,4.01
10256,-0.49
10267,-0.38
10278,2.81
10290,7.21
10302,11.07
10314,12.97
10326,12.03
10338,7.78
10350,0.26
10362,-9.95
10374,-21.81
10386,-33.98
10398,-45.02
10410,-53.89
10422,-60.19
10434,-64.22
10446,-66.88
10457,-69.26
10468,-72.29
10480,-76.41
10492,-81.47
10504,-86.65
10516,-90.68
10528,-92.2
10540,-90.14
10552,-84.22
10564,-75.06
10576,-64.1
10588,-53.12
10600,-43.58
10612,-36.16
10624,-30.66
10636,-26.32
10647,-22.29
10658,-18.08
10670,-13.55
10682,-8.63
10694,-2.96
10706,4.22
10718,13.66
10730,25.6
10742,39.23
10754,52.81
10766,64.21
10778,71.82
10790,75.27
10802,75.57
10814,74.7
10826,74.72
10837,77.01
10848,81.87
10860,88.4
10872,94.73
10884,98.37
10896,96.89
10908,88.79
10920,74.4
10932,56.3
10944,38.78
10956,26.35
10968,21.92
10980,25.45
10992,33.82
11004,42.15
11016,45.68
11027,41.49
11038,29.05
11050,9.77
11062,-13.97
11074,-39.72
11086,-65.1
11098,-87.7
11110,-104.81
11122,-113.69
11134,-112.35
11146,-100.32
11158,-79.34
11170,-53.15
11182,-26.62
11194,-4.49
11206,9.91
11217,15.26
11228,12.21
11240,2.61
11252,-11.24
11264,-27.27
11276,-43.74
11288,-58.99
11300,-71.27
11312,-78.76
11324,-79.98
11336,-74.29
11348,-62.25
11360,-45.6
11372,-26.8
11384,-8.38
11396,7.67
11407,20.3
11418,29.4
11430,35.51
11442,39.34
11454,41.44
11466,42.01
11478,41.05
11490,38.55
11502,34.82
11514,30.4
11526,25.97
11538,22.04
11550,18.75
11562,15.89
11574,13.03
11586,9.75
11597,5.76
11608,0.99
11620,-4.59
11632,-10.91
11644,-17.87
11656,-25.12
11668,-32.04
11680,-37.79
11692,-41.6
11704,-43.18
11716,-42.86
11728,-41.55
11740,-40.31
11752,-39.82
11764,-40.08
11776,-40.46
11787,-40.18
11798,-38.89
11810,-37.03
11822,-35.67
11834,-35.89
11846,-38.12
11858,-41.71
11870,-45.21
11882,-46.97
11894,-45.95
11906,-42.02
11918,-35.85
11930,-28.39
11942,-20.43
11954,-12.38
11966,-4.42
11977,3.26
11988,10.45
12000,17.01
12012,23.05
12024,28.9
12036,34.86
12048,40.86
12060,46.4
12072,50.73
12084,53.3
12096,54.12
12108,53.83
12120,53.26
12132,53.05
12144,53.32
12156,53.74
12167,53.7
12178,52.62
12190,49.94
12202,45.15
12214,37.86
12226,28.22
12238,17.3
12250,7.24
12262,0.79
12274,0.4
12286,7.08
12298,19.81
12310,35.6
12322,50.45
12334,60.52
12346,63.22
12357,57.69
12368,44.66
12380,26.12
12392,4.72
12404,-16.62
12416,-35.03
12428,-48.12
12440,-54.39
12452,-53.57
12464,-46.8
12476,-36.45
12488,-25.54
12500,-17.14
12512,-13.5
12524,-15.64
12536,-23.13
12547,-34.36
12558,-47.11
12570,-59.15
12582,-68.74
12594,-74.91
12606,-77.49
12618,-76.85
12630,-73.59
12642,-68.26
12654,-61.28
12666,-52.98
12678,-43.96
12690,-35.19
12702,-27.99
12714,-23.7
12726,-23.16
12737,-26.37
12748,-32.52
12760,-40.3
12772,-48.46
12784,-56.25
12796,-63.26
12808,-69.18
12820,-73.4
12832,-74.9
12844,-72.58
12856,-65.92
12868,-55.31
12880,-42.1
12892,-28.13
12904,-14.98
12916,-3.43
12927,6.63
12938,15.87
12950,24.98
12962,34.19
12974,43.27
12986,51.62
12998,58.73
13010,64.24
13022,68.0
13034,69.85
13046,69.5
13058,66.68
13070,61.49
13082,54.78
13094,48.15
13106,43.46
13117,42.11
13128,44.38
13140,49.33
13152,55.28
13164,60.68
13176,64.74
13188,67.58
13200,69.71
13212,71.39
13224,72.33
13236,71.76
13248,69.12
13260,64.57
13272,59.17
13284,54.47
13296,51.75
13307,51.31
13318,52.32
13330,53.15
13342,52.09
13354,48.03
13366,40.94
13378,31.74
13390,21.97
13402,13.28
13414,7.04
13426,4.23
13438,5.41
13450,10.74
13462,19.96
13474,32.31
13486,46.66
13497,61.69
13508,76.25
13520,89.62
13532,101.59
13544,112.31
13556,121.98
13568,130.69
13580,138.28
13592,144.49
13604,149.06
13616,151.86
13628,152.96
13640,152.54
13652,150.81
13664,147.86
13676,143.6
13687,137.76
13698,130.08
13710,120.56
13722,109.58
13734,97.92
13746,86.4
13758,75.5
13770,65.08
13782,54.46
13794,42.72
13806,29.31
13818,14.37
13830,-1.38
13842,-17.01
13854,-31.93
13866,-46.2
13877,-60.25
13888,-74.62
13900,-89.46
13912,-104.45
13924,-119.05
13936,-132.71
13948,-145.19
13960,-156.42
13972,-166.14
13984,-173.62
13996,-177.67
14008,-177.01
14020,-170.8
14032,-159.24
14044,-143.56
14056,-125.74
14067,-107.87
14078,-91.48
14090,-77.18
14102,-64.69
14114,-53.23
14126,-41.97
14138,-30.36
14150,-18.23
14162,-5.67
14174,7.06
14186,19.64
14198,31.6
14210,42.35
14222,51.18
14234,57.49
14246,61.02
14257,62.07
14268,61.43
14280,60.14
14292,59.02
14304,58.29
14316,57.49
14328,55.65
14340,51.87
14352,45.75
14364,37.84
14376,29.36
14388,21.65
14400,15.61
14412,11.14
14424,7.31
14436,2.88
14447,-3.16
14458,-11.17
14470,-20.9
14482,-31.8
14494,-43.31
14506,-54.91
14518,-65.91
14530,-75.3
14542,-81.83
14554,-84.37
14566,-82.43
14578,-76.45
14590,-67.76
14602,-58.09
14614,-49.07
14626,-41.78
14637,-36.62
14648,-33.47
14660,-31.92
14672,-31.49
14684,-31.78
14696,-32.32
14708,-32.66
14720,-32.2
14732,-30.31
14744,-26.4
14756,-20.11
14768,-11.53
14780,-1.24
14792,9.64
14804,19.78
14816,27.93
14827,33.23
14838,35.47
14850,34.98
14862,32.46
14874,28.67
14886,24.2
14898,19.38
14910,14.26
14922,8.77
14934,2.75
14946,-3.92
14958,-11.16
14970,-18.67
14982,-25.93
14994,-32.4
15006,-37.79
15017,-42.32
15028,-46.61
15040,-51.34
15052,-56.74
15064,-62.27
15076,-66.65
15088,-68.5
15100,-66.95
15112,-62.19
15124,-55.42
15136,-48.27
15148,-42.17
15160,-37.72
15172,-34.76
15184,-32.7
15196,-31.02
15207,-29.68
15218,-29.07
15230,-29.73
15242,-32.02
15254,-35.85
15266,-40.64
15278,-45.59
15290,-49.91
15302,-53.08
15314,-54.83
15326,-55.24
15338,-54.5
15350,-52.88
15362,-50.65
15374,-48.12
15386,-45.59
15397,-43.26
15408,-41.25
15420,-39.47
15432,-37.74
15444,-35.8
15456,-33.42
15468,-30.5
15480,-27.11
15492,-23.43
15504,-19.74
15516,-16.28
15528,-13.2
15540,-10.5
15552,-8.0
15564,-5.51
15576,-3.0
15587,-0.73
15598,0.73
15610,0.77
15622,-0.89
15634,-3.85
15646,-7.0
15658,-8.76
15670,-7.62
15682,-2.69
15694,5.98
15706,17.33
15718,29.72
15730,41.43
15742,51.21
15754,58.54
15766,63.54
15777,66.69
15788,68.45
15800,69.01
15812,68.18
15824,65.56
15836,60.87
15848,54.16
15860,45.98
15872,37.29
15884,29.2
15896,22.64
15908,18.08
15920,15.35
15932,13.63
15944,11.79
15956,8.66
15967,3.37
15978,-4.41
15990,-14.52
16002,-26.46
16014,-39.62
16026,-53.34
16038,-67.05
16050,-80.06
16062,-91.66
16074,-101.19
16086,-108.17
16098,-112.43
16110,-114.14
16122,-113.62
16134,-111.34
16146,-107.83
16157,-103.73
16168,-99.74
16180,-96.44
16192,-94.0
16204,-91.88
16216,-88.82
16228,-83.19
16240,-73.58
16252,-59.37
16264,-41.06
16276,-20.11
16288,1.53
16300,21.93
16312,39.61
16324,53.62
16336,63.54
16347,69.35
16358,71.41
16370,70.43
16382,67.39
16394,63.44
16406,59.62
16418,56.69
16430,54.84
16442,53.8
16454,52.99
16466,51.73
16478,49.57
16490,46.34
16502,42.19
16514,37.43
16526,32.38
16537,27.33
16548,22.45
16560,17.82
16572,13.42
16584,9.1
16596,4.56
16608,-0.49
16620,-6.28
16632,-12.7
16644,-19.32
16656,-25.57
16668,-30.97
16680,-35.43
16692,-39.31
16704,-43.38
16716,-48.46
16727,-55.16
16738,-63.67
16750,-73.7
16762,-84.43
16774,-94.62
16786,-102.71
16798,-107.03
16810,-106.12
16822,-99.22
16834,-86.55
16846,-69.38
16858,-49.8
16870,-30.27
16882,-12.89
16894,0.92
16906,10.67
16917,16.55
16928,19.14
16940,18.98
16952,16.48
16964,11.98
16976,5.94
16988,-0.9
17000,-7.5
17012,-12.75
17024,-15.82
17036,-16.4
17048,-14.75
17060,-11.44
17072,-7.05
17084,-1.99
17096,3.59
17107,9.54
17118,15.59
17130,21.26
17142,26.14
17154,30.08
17166,33.36
17178,36.59
17190,40.42
17202,45.11
17214,50.39
17226,55.59
17238,60.02
17250,63.49
17262,66.48
17274,70.06
17286,75.39
17297,83.14
17308,93.14
17320,104.42
17332,115.66
17344,125.85
17356,134.78
17368,143.17
17380,152.41
17392,164.2
17404,179.98
17416,200.57
17428,225.8
17440,254.19
17452,282.88
17464,307.96
17476,325.31
17487,331.69
17498,325.77
17510,308.48
17522,282.61
17534,251.78
17546,219.27
17558,187.26
17570,156.61
17582,127.2
17594,98.36
17606,69.25
17618,39.05
17630,7.22
17642,-26.11
17654,-59.92
17666,-92.35
17677,-121.11
17688,-144.35
17700,-161.35
17712,-172.8
17724,-180.49
17736,-186.5
17748,-192.41
17760,-198.84
17772,-205.63
17784,-212.24
17796,-218.23
17808,-223.42
17820,-227.83
17832,-231.43
17844,-234.01
17856,-235.27
17867,-235.04
17878,-233.33
17890,-230.3
17902,-226.17
17914,-220.92
17926,-214.35
17938,-206.02
17950,-195.49
17962,-182.34
17974,-166.23
17986,-146.95
17998,-124.42
18010,-98.91
18022,-71.1
18034,-42.18
18046,-13.62
18057,13.13
18068,36.95
18080,57.24
18092,73.9
18104,87.11
18116,97.1
18128,104.09
18140,108.33
18152,110.15
18164,110.01
18176,108.44
18188,105.9
18200,102.59
18212,98.4
18224,92.97
18236,85.89
18247,76.96
18258,66.39
18270,54.84
18282,43.21
18294,32.5
18306,23.38
18318,16.05
18330,10.15
18342,4.92
18354,-0.46
18366,-6.58
18378,-13.51
18390,-20.8
18402,-27.66
18414,-33.44
18426,-37.78
18437,-40.93
18448,-43.55
18460,-46.54
18472,-50.62
18484,-56.25
18496,-63.4
18508,-71.7
18520,-80.47
18532,-88.7
18544,-95.2
18556,-98.67
18568,-98.03
18580,-92.74
18592,-83.11
18604,-70.27
18616,-55.93
18627,-41.93
18638,-29.81
18650,-20.5
18662,-14.3
18674,-10.97
18686,-9.96
18698,-10.59
18710,-12.21
18722,-14.25
18734,-16.25
18746,-17.86
18758,-18.84
18770,-19.16
18782,-19.04
18794,-19.0
18806,-19.74
18817,-21.92
18828,-25.84
18840,-31.3
18852,-37.57
18864,-43.66
18876,-48.63
18888,-51.84
18900,-53.08
18912,-52.47
18924,-50.41
18936,-47.71
18948,-45.51
18960,-45.16
18972,-47.79
18984,-53.65
18996,-61.77
19007,-70.05
19018,-75.98
19030,-77.65
19042,-74.54
19054,-67.71
19066,-59.23
19078,-51.24
19090,-45.03
19102,-40.66
19114,-37.2
19126,-33.26
19138,-27.51
19150,-19.1
19162,-7.59
19174,6.98
19186,24.14
19197,42.93
19208,62.05
19220,79.99
19232,95.46
19244,107.76
19256,116.8
19268,123.01
19280,126.91
19292,128.75
19304,128.38
19316,125.42
19328,119.55
19340,110.85
19352,99.87
19364,87.58
19376,75.22
19387,64.2
19398,55.76
19410,50.8
19422,49.67
19434,51.93
19446,56.56
19458,62.16
19470,67.46
19482,71.4
19494,73.25
19506,72.35
19518,68.04
19530,59.73
19542,47.22
19554,31.08
19566,12.69
19577,-6.03
19588,-23.31
19600,-38.05
19612,-50.2
19624,-60.56
19636,-70.47
19648,-81.34
19660,-94.22
19672,-109.46
19684,-126.42
19696,-143.32
19708,-157.49
19720,-165.88
19732,-165.89
19744,-156.21
19756,-137.37
19767,-111.59
19778,-82.11
19790,-52.28
19802,-24.7
19814,-0.78
19826,19.12
19838,35.29
19850,48.28
19862,58.7
19874,67.21
19886,74.66
19898,81.95
19910,89.89
19922,98.84
19934,108.58
19946,118.26
19957,126.74
19968,132.91
19980,136.1
19992,136.06
20004,133.03
20016,127.46
20028,119.97
20040,111.17
20052,101.62
20064,91.71
20076,81.63
20088,71.45
20100,61.15
20112,50.78
20124,40.42
20136,30.08
20147,19.6
20158,8.58
20170,-3.48
20182,-17.01
20194,-32.13
20206,-48.69
20218,-66.39
20230,-84.86
20242,-103.67
20254,-121.99
20266,-138.38
20278,-150.84
20290,-157.25
20302,-156.16
20314,-147.43
20326,-132.33
20337,-112.95
20348,-91.43
20360,-69.15
20372,-46.76
20384,-24.56
20396,-3.13
20408,16.41
20420,32.81
20432,45.35
20444,54.29
20456,60.69
20468,65.86
20480,70.63
20492,75.02
20504,78.44
20516,80.22
20527,79.99
20538,77.87
20550,74.4
20562,70.33
20574,66.62
20586,64.36
20598,64.56
20610,67.75
20622,73.6
20634,80.89
20646,88.0
20658,93.48
20670,96.61
20682,97.24
20694,95.42
20706,90.87
20717,83.0
20728,71.36
20740,56.24
20752,38.9
20764,21.35
20776,5.81
20788,-5.77
20800,-11.78
20812,-11.03
20824,-2.81
20836,12.8
20848,34.64
20860,60.44
20872,87.26
20884,112.29
20896,133.49
20907,149.95
20918,161.69
20930,169.09
20942,172.43
20954,171.6
20966,166.33
20978,156.47
20990,142.23
