seconds,BVP
3,18.41
15,17.59
27,17.0
39,16.67
51,16.33
63,15.68
75,14.45
87,12.52
99,10.07
111,7.36
122,4.64
133,2.03
145,-0.5
157,-3.01
169,-5.53
181,-7.98
193,-10.31
205,-12.47
217,-14.45
229,-16.3
241,-18.01
253,-19.49
265,-20.69
277,-21.62
289,-22.36
301,-23.12
312,-24.06
323,-25.25
335,-26.67
347,-28.09
359,-29.21
371,-29.78
383,-29.62
395,-28.66
407,-26.91
419,-24.49
431,-21.52
443,-18.16
455,-14.52
467,-10.65
479,-6.68
491,-2.69
502,1.15
513,4.67
525,7.74
537,10.28
549,12.27
561,13.83
573,15.04
585,15.99
597,16.84
609,17.63
621,18.41
633,19.15
645,19.79
657,20.2
669,20.32
681,20.17
692,19.75
703,19.14
715,18.31
727,17.2
739,15.78
751,14.09
763,12.28
775,10.54
787,8.97
799,7.57
811,6.24
823,4.89
835,3.5
847,2.17
859,0.96
871,-0.08
882,-0.96
893,-1.74
905,-2.44
917,-3.01
929,-3.48
941,-3.89
953,-4.38
965,-5.13
977,-6.28
989,-7.87
1001,-9.91
1013,-12.32
1025,-15.01
1037,-17.92
1049,-20.95
1061,-24.01
1072,-26.92
1083,-29.46
1095,-31.3
1107,-32.15
1119,-31.78
1131,-30.15
1143,-27.43
1155,-23.94
1167,-20.07
1179,-16.15
1191,-12.38
1203,-8.83
1215,-5.54
1227,-2.49
1239,0.29
1251,2.79
1262,5.01
1273,6.95
1285,8.58
1297,9.89
1309,10.83
1321,11.48
1333,11.96
1345,12.48
1357,13.15
1369,13.98
1381,14.89
1393,15.73
1405,16.37
1417,16.76
1429,16.94
1441,16.93
1452,16.72
1463,16.16
1475,15.07
1487,13.39
1499,11.23
1511,8.9
1523,6.75
1535,5.08
1547,4.01
1559,3.4
1571,3.06
1583,2.72
1595,2.2
1607,1.41
1619,0.27
1631,-1.24
1642,-3.12
1653,-5.35
1665,-7.85
1677,-10.52
1689,-13.27
1701,-16.12
1713,-19.12
1725,-22.37
1737,-25.93
1749,-29.67
1761,-33.31
1773,-36.41
1785,-38.43
1797,-38.95
1809,-37.77
1821,-34.98
1832,-30.95
1843,-26.18
1855,-21.13
1867,-16.15
1879,-11.38
1891,-6.8
1903,-2.32
1915,2.1
1927,6.44
1939,10.54
1951,14.21
1963,17.24
1975,19.52
1987,21.0
1999,21.79
2011,22.08
2022,22.09
2033,21.97
2045,21.84
2057,21.69
2069,21.48
2081,21.17
2093,20.76
2105,20.24
2117,19.63
2129,18.89
2141,18.05
2153,17.11
2165,16.21
2177,15.45
2189,14.92
2201,14.6
2212,14.32
2223,13.85
2235,13.0
2247,11.74
2259,10.25
2271,8.85
2283,7.85
2295,7.39
2307,7.36
2319,7.41
2331,7.11
2343,6.13
2355,4.28
2367,1.63
2379,-1.7
2391,-5.55
2402,-9.74
2413,-14.12
2425,-18.44
2437,-22.43
2449,-25.85
2461,-28.65
2473,-30.92
2485,-32.89
2497,-34.69
2509,-36.24
2521,-37.17
2533,-37.03
2545,-35.44
2557,-32.38
2569,-28.12
2581,-23.2
2592,-18.11
2603,-13.21
2615,-8.61
2627,-4.3
2639,-0.24
2651,3.57
2663,7.09
2675,10.27
2687,13.06
2699,15.51
2711,17.61
2723,19.4
2735,20.86
2747,21.97
2759,22.72
2771,23.12
2782,23.17
2793,22.92
2805,22.46
2817,21.89
2829,21.29
2841,20.7
2853,20.09
2865,19.37
2877,18.54
2889,17.62
2901,16.67
2913,15.83
2925,15.18
2937,14.66
2949,14.23
2961,13.76
2972,13.21
2983,12.57
2995,11.86
3007,11.07
3019,10.16
3031,9.05
3043,7.67
3055,5.97
3067,3.9
3079,1.47
3091,-1.28
3103,-4.28
3115,-7.38
3127,-10.43
3139,-13.26
3151,-15.76
3162,-17.97
3173,-19.96
3185,-21.91
3197,-23.98
3209,-26.3
3221,-28.86
3233,-31.49
3245,-33.87
3257,-35.54
3269,-36.03
3281,-35.04
3293,-32.5
3305,-28.57
3317,-23.67
3329,-18.2
3341,-12.59
3352,-7.09
3363,-1.85
3375,3.07
3387,7.58
3399,11.57
3411,14.88
3423,17.42
3435,19.2
3447,20.36
3459,21.11
3471,21.66
3483,22.16
3495,22.61
3507,23.0
3519,23.29
3531,23.44
3542,23.43
3553,23.25
3565,22.83
3577,22.15
3589,21.27
3601,20.43
3613,19.83
3625,19.67
3637,19.89
3649,20.27
3661,20.52
3673,20.41
3685,19.84
3697,18.78
3709,17.23
3721,15.15
3732,12.55
3743,9.56
3755,6.5
3767,3.79
3779,1.8
3791,0.62
3803,0.04
3815,-0.4
3827,-1.16
3839,-2.54
3851,-4.56
3863,-7.02
3875,-9.68
3887,-12.37
3899,-15.02
3911,-17.67
3922,-20.4
3933,-23.32
3945,-26.45
3957,-29.78
3969,-33.18
3981,-36.4
3993,-39.08
4005,-40.82
4017,-41.22
4029,-40.08
4041,-37.48
4053,-33.69
4065,-29.17
4077,-24.34
4089,-19.53
4101,-14.92
4112,-10.56
4123,-6.43
4135,-2.53
4147,1.05
4159,4.27
4171,7.04
4183,9.41
4195,11.5
4207,13.47
4219,15.42
4231,17.37
4243,19.25
4255,20.93
4267,22.35
4279,23.47
4291,24.33
4302,24.92
4313,25.22
4325,25.21
4337,24.81
4349,24.05
4361,22.94
4373,21.53
4385,19.9
4397,18.06
4409,16.05
4421,13.93
4433,11.82
4445,9.8
4457,7.96
4469,6.31
4481,4.81
4492,3.36
4503,1.86
4515,0.22
4527,-1.58
4539,-3.5
4551,-5.46
4563,-7.36
4575,-9.19
4587,-11.03
4599,-13.05
4611,-15.4
4623,-18.2
4635,-21.53
4647,-25.33
4659,-29.47
4671,-33.66
4682,-37.42
4693,-40.09
4705,-40.99
4717,-39.7
4729,-36.16
4741,-30.82
4753,-24.45
4765,-17.9
4777,-11.8
4789,-6.38
4801,-1.58
4813,2.8
4825,6.85
4837,10.5
4849,13.56
4861,15.85
4872,17.34
4883,18.17
4895,18.66
4907,19.16
4919,19.9
4931,20.96
4943,22.28
4955,23.68
4967,24.96
4979,25.9
4991,26.38
5003,26.39
5015,26.01
5027,25.38
5039,24.59
5051,23.68
5062,22.59
5073,21.34
5085,19.88
5097,18.23
5109,16.44
5121,14.48
5133,12.29
5145,9.84
5157,7.07
5169,4.05
5181,0.94
5193,-2.1
5205,-4.95
5217,-7.61
5229,-10.17
5241,-12.75
5252,-15.46
5263,-18.34
5275,-21.46
5287,-24.85
5299,-28.45
5311,-32.1
5323,-35.42
5335,-37.88
5347,-38.98
5359,-38.38
5371,-36.1
5383,-32.47
5395,-28.04
5407,-23.29
5419,-18.52
5431,-13.8
5442,-9.09
5453,-4.33
5465,0.45
5477,4.99
5489,9.1
5501,12.59
5513,15.48
5525,17.85
5537,19.9
5549,21.75
5561,23.45
5573,25.03
5585,26.41
5597,27.58
5609,28.49
5621,29.19
5632,29.66
5643,29.9
5655,29.94
5667,29.75
5679,29.36
5691,28.76
5703,27.86
5715,26.57
5727,24.76
5739,22.37
5751,19.46
5763,16.2
5775,12.79
5787,9.44
5799,6.17
5811,3.01
5822,-0.09
5833,-3.13
5845,-6.11
5857,-8.95
5869,-11.59
5881,-13.99
5893,-16.12
5905,-18.04
5917,-19.82
5929,-21.61
5941,-23.65
5953,-26.15
5965,-29.24
5977,-32.82
5989,-36.51
6001,-39.64
6012,-41.54
6023,-41.68
6035,-39.91
6047,-36.57
6059,-32.16
6071,-27.28
6083,-22.27
6095,-17.26
6107,-12.17
6119,-7.0
6131,-1.88
6143,2.95
6155,7.2
6167,10.78
6179,13.77
6191,16.39
6202,18.81
6213,21.11
6225,23.21
6237,24.96
6249,26.26
6261,27.07
6273,27.5
6285,27.69
6297,27.81
6309,27.97
6321,28.21
6333,28.47
6345,28.63
6357,28.6
6369,28.28
6381,27.68
6392,26.83
6403,25.79
6415,24.65
6427,23.42
6439,22.12
6451,20.78
6463,19.4
6475,17.98
6487,16.48
6499,14.79
6511,12.86
6523,10.68
6535,8.35
6547,6.08
6559,4.09
6571,2.48
6582,1.2
6593,0.01
6605,-1.43
6617,-3.32
6629,-5.71
6641,-8.53
6653,-11.56
6665,-14.66
6677,-17.75
6689,-20.78
6701,-23.73
6713,-26.58
6725,-29.33
6737,-32.0
6749,-34.63
6761,-37.22
6772,-39.68
6783,-41.82
6795,-43.31
6807,-43.75
6819,-42.83
6831,-40.36
6843,-36.45
6855,-31.49
6867,-26.03
6879,-20.62
6891,-15.65
6903,-11.17
6915,-7.0
6927,-2.89
6939,1.36
6951,5.68
6962,9.86
6973,13.64
6985,16.8
6997,19.27
7009,21.06
7021,22.23
7033,22.87
7045,23.13
7057,23.19
7069,23.27
7081,23.55
7093,24.16
7105,25.04
7117,26.08
7129,27.06
7141,27.74
7152,27.96
7163,27.59
7175,26.57
7187,24.96
7199,22.89
7211,20.61
7223,18.33
7235,16.2
7247,14.2
7259,12.26
7271,10.31
7283,8.28
7295,6.26
7307,4.38
7319,2.78
7331,1.48
7342,0.43
7353,-0.5
7365,-1.46
7377,-2.52
7389,-3.78
7401,-5.24
7413,-6.89
7425,-8.66
7437,-10.49
7449,-12.3
7461,-14.07
7473,-15.88
7485,-17.88
7497,-20.3
7509,-23.27
7521,-26.8
7532,-30.6
7543,-34.12
7555,-36.7
7567,-37.79
7579,-37.09
7591,-34.69
7603,-30.99
7615,-26.56
7627,-21.93
7639,-17.43
7651,-13.14
7663,-8.96
7675,-4.77
7687,-0.51
7699,3.72
7711,7.67
7722,11.11
7733,13.85
7745,15.88
7757,17.29
7769,18.25
7781,18.88
7793,19.24
7805,19.32
7817,19.12
7829,18.68
7841,18.15
7853,17.64
7865,17.21
7877,16.85
7889,16.49
7901,16.04
7912,15.53
7923,14.99
7935,14.51
7947,14.1
7959,13.68
7971,13.08
7983,12.14
7995,10.77
8007,8.94
8019,6.81
8031,4.54
8043,2.29
8055,0.12
8067,-2.01
8079,-4.19
8091,-6.46
8102,-8.8
8113,-11.12
8125,-13.29
8137,-15.27
8149,-17.12
8161,-19.06
8173,-21.36
8185,-24.19
8197,-27.48
8209,-30.93
8221,-34.06
8233,-36.33
8245,-37.33
8257,-36.89
8269,-35.03
8281,-31.95
8292,-27.93
8303,-23.3
8315,-18.32
8327,-13.19
8339,-8.07
8351,-3.11
8363,1.58
8375,5.87
8387,9.57
8399,12.58
8411,14.79
8423,16.22
8435,16.99
8447,17.25
8459,17.12
8471,16.73
8482,16.15
8493,15.45
8505,14.79
8517,14.31
8529,14.14
8541,14.35
8553,14.9
8565,15.66
8577,16.45
8589,17.13
8601,17.54
8613,17.59
8625,17.23
8637,16.46
8649,15.36
8661,14.04
8672,12.63
8683,11.18
8695,9.71
8707,8.16
8719,6.43
8731,4.44
8743,2.17
8755,-0.29
8767,-2.75
8779,-5.02
8791,-7.02
8803,-8.83
8815,-10.71
8827,-12.94
8839,-15.8
8851,-19.39
8862,-23.61
8873,-28.29
8885,-33.13
8897,-37.81
8909,-41.97
8921,-45.19
8933,-47.0
8945,-47.01
8957,-45.08
8969,-41.29
8981,-36.05
8993,-29.88
9005,-23.34
9017,-16.84
9029,-10.59
9041,-4.65
9052,0.99
9063,6.21
9075,10.83
9087,14.59
9099,17.27
9111,18.85
9123,19.54
9135,19.77
9147,19.97
9159,20.41
9171,21.14
9183,21.96
9195,22.61
9207,22.9
9219,22.87
9231,22.68
9242,22.54
9253,22.52
9265,22.51
9277,22.29
9289,21.75
9301,20.88
9313,19.87
9325,18.93
9337,18.18
9349,17.59
9361,16.97
9373,16.13
9385,14.96
9397,13.48
9409,11.73
9421,9.8
9432,7.77
9443,5.73
9455,3.82
9467,2.23
9479,1.07
9491,0.28
9503,-0.35
9515,-1.12
9527,-2.27
9539,-3.84
9551,-5.74
9563,-7.78
9575,-9.8
9587,-11.78
9599,-13.76
9611,-15.81
9622,-17.98
9633,-20.32
9645,-22.83
9657,-25.54
9669,-28.45
9681,-31.46
9693,-34.34
9705,-36.74
9717,-38.27
9729,-38.65
9741,-37.77
9753,-35.68
9765,-32.6
9777,-28.79
9789,-24.48
9801,-19.91
9812,-15.25
9823,-10.66
9835,-6.3
9847,-2.29
9859,1.31
9871,4.44
9883,7.11
9895,9.34
9907,11.21
9919,12.78
9931,14.09
9943,15.19
9955,16.05
9967,16.67
9979,17.07
9991,17.3
10002,17.49
10013,17.77
10025,18.24
10037,18.95
10049,19.78
10061,20.62
10073,21.31
10085,21.77
10097,21.97
10109,21.95
10121,21.76
10133,21.42
10145,20.9
10157,20.05
10169,18.76
10181,16.92
10192,14.58
10203,11.96
10215,9.38
10227,7.13
10239,5.34
10251,3.96
10263,2.73
10275,1.34
10287,-0.48
10299,-2.84
10311,-5.71
10323,-8.87
10335,-12.13
10347,-15.26
10359,-18.08
10371,-20.56
10382,-22.77
10393,-24.84
10405,-26.92
10417,-29.12
10429,-31.4
10441,-33.65
10453,-35.58
10465,-36.86
10477,-37.15
10489,-36.23
10501,-33.97
10513,-30.44
10525,-25.87
10537,-20.57
10549,-14.91
10561,-9.23
10572,-3.79
10583,1.24
10595,5.78
10607,9.74
10619,13.06
10631,15.69
10643,17.58
10655,18.77
10667,19.35
10679,19.51
10691,19.42
10703,19.25
10715,19.09
10727,18.94
10739,18.81
10751,18.68
10762,18.56
10773,18.46
10785,18.4
10797,18.37
10809,18.31
10821,18.09
10833,17.62
10845,16.82
10857,15.72
10869,14.4
10881,13.0
10893,11.65
10905,10.35
10917,9.06
10929,7.7
10941,6.21
10952,4.57
10963,2.83
10975,1.07
10987,-0.75
10999,-2.66
11011,-4.76
11023,-7.1
11035,-9.64
11047,-12.24
11059,-14.77
11071,-17.16
11083,-19.5
11095,-22.0
11107,-24.86
11119,-28.12
11131,-31.54
11142,-34.6
11153,-36.69
11165,-37.34
11177,-36.35
11189,-33.88
11201,-30.33
11213,-26.12
11225,-21.55
11237,-16.73
11249,-11.66
11261,-6.38
11273,-1.02
11285,4.09
11297,8.63
11309,12.34
11321,15.15
11332,17.08
11343,18.28
11355,18.88
11367,18.94
11379,18.54
11391,17.76
11403,16.75
11415,15.69
11427,14.81
11439,14.2
11451,13.9
11463,13.86
11475,14.0
11487,14.25
11499,14.61
11511,15.09
11522,15.69
11533,16.35
11545,16.95
11557,17.33
11569,17.3
11581,16.77
11593,15.65
11605,13.95
11617,11.68
11629,8.89
11641,5.67
11653,2.15
11665,-1.52
11677,-5.21
11689,-8.77
11701,-12.2
11712,-15.53
11723,-18.88
11735,-22.34
11747,-25.95
11759,-29.65
11771,-33.3
11783,-36.64
11795,-39.39
11807,-41.2
11819,-41.83
11831,-41.06
11843,-38.9
11855,-35.5
11867,-31.16
11879,-26.21
11891,-20.92
11902,-15.43
11913,-9.81
11925,-4.13
11937,1.53
11949,6.97
11961,11.94
11973,16.17
11985,19.49
11997,21.84
12009,23.34
12021,24.18
12033,24.6
12045,24.81
12057,24.84
12069,24.69
12081,24.33
12092,23.87
12103,23.48
12115,23.41
12127,23.74
12139,24.38
12151,25.04
12163,25.36
12175,25.16
12187,24.5
12199,23.6
12211,22.74
12223,22.04
12235,21.43
12247,20.74
12259,19.85
12271,18.69
12282,17.37
12293,15.99
12305,14.55
12317,13.03
12329,11.34
12341,9.48
12353,7.51
12365,5.56
12377,3.7
12389,1.96
12401,0.24
12413,-1.6
12425,-3.7
12437,-6.1
12449,-8.79
12461,-11.71
12472,-14.75
12483,-17.77
12495,-20.67
12507,-23.4
12519,-26.0
12531,-28.56
12543,-31.22
12555,-34.03
12567,-36.93
12579,-39.78
12591,-42.26
12603,-44.03
12615,-44.8
12627,-44.34
12639,-42.5
12651,-39.27
12662,-34.8
12673,-29.3
12685,-23.17
12697,-16.82
12709,-10.62
12721,-4.89
12733,0.21
12745,4.63
12757,8.37
12769,11.51
12781,14.14
12793,16.31
12805,18.08
12817,19.45
12829,20.45
12841,21.13
12852,21.57
12863,21.81
12875,21.93
12887,21.92
12899,21.75
12911,21.36
12923,20.72
12935,19.82
12947,18.81
12959,17.85
12971,17.13
12983,16.78
12995,16.8
13007,17.07
13019,17.37
13031,17.56
13042,17.53
13053,17.27
13065,16.81
13077,16.13
13089,15.16
13101,13.8
13113,12.06
13125,10.04
13137,7.96
13149,6.01
13161,4.28
13173,2.64
13185,0.92
13197,-1.04
13209,-3.25
13221,-5.52
13232,-7.71
13243,-9.73
13255,-11.68
13267,-13.8
13279,-16.35
13291,-19.44
13303,-22.99
13315,-26.77
13327,-30.39
13339,-33.4
13351,-35.35
13363,-35.86
13375,-34.71
13387,-31.94
13399,-27.87
13411,-22.95
13422,-17.72
13433,-12.53
13445,-7.53
13457,-2.74
13469,1.87
13481,6.24
13493,10.2
13505,13.49
13517,15.96
13529,17.56
13541,18.49
13553,18.98
13565,19.32
13577,19.64
13589,19.97
13601,20.2
13612,20.19
13623,19.89
13635,19.31
13647,18.58
13659,17.79
13671,16.99
13683,16.13
13695,15.11
13707,13.88
13719,12.43
13731,10.87
13743,9.26
13755,7.69
13767,6.19
13779,4.74
13791,3.31
13802,1.82
13813,0.18
13825,-1.65
13837,-3.66
13849,-5.84
13861,-8.03
13873,-10.14
13885,-12.15
13897,-14.12
13909,-16.19
13921,-18.47
13933,-21.0
13945,-23.7
13957,-26.45
13969,-29.06
13981,-31.33
13992,-33.01
14003,-33.75
14015,-33.23
14027,-31.26
14039,-27.92
14051,-23.57
14063,-18.69
14075,-13.73
14087,-8.96
14099,-4.5
14111,-0.3
14123,3.65
14135,7.29
14147,10.5
14159,13.2
14171,15.36
14182,17.07
14193,18.47
14205,19.66
14217,20.7
14229,21.46
14241,21.83
14253,21.62
14265,20.78
14277,19.43
14289,17.85
14301,16.42
14313,15.41
14325,14.98
14337,14.94
14349,14.97
14361,14.75
14372,14.07
14383,12.98
14395,11.68
14407,10.42
14419,9.3
14431,8.31
14443,7.27
14455,5.96
14467,4.23
14479,2.09
14491,-0.33
14503,-2.86
14515,-5.35
14527,-7.77
14539,-10.2
14551,-12.74
14562,-15.46
14573,-18.34
14585,-21.28
14597,-24.15
14609,-26.83
14621,-29.24
14633,-31.23
14645,-32.6
14657,-33.02
14669,-32.21
14681,-29.97
14693,-26.42
14705,-21.91
14717,-16.98
14729,-12.11
14741,-7.64
14752,-3.66
14763,-0.12
14775,3.08
14787,6.01
14799,8.75
14811,11.3
14823,13.66
14835,15.86
14847,17.81
14859,19.44
14871,20.65
14883,21.4
14895,21.75
14907,21.9
14919,22.03
14931,22.27
14942,22.65
14953,23.08
14965,23.46
14977,23.68
14989,23.69
15001,23.49
15013,23.02
15025,22.28
15037,21.23
15049,19.87
15061,18.17
15073,16.1
15085,13.56
15097,10.54
15109,7.08
15121,3.38
15132,-0.26
15143,-3.49
15155,-6.03
15167,-7.76
15179,-8.75
15191,-9.17
15203,-9.31
15215,-9.44
15227,-9.73
15239,-10.27
15251,-11.08
15263,-12.06
15275,-13.18
15287,-14.46
15299,-15.96
15311,-17.84
15322,-20.24
15333,-23.24
15345,-26.77
15357,-30.65
15369,-34.43
15381,-37.59
15393,-39.59
15405,-40.01
15417,-38.66
15429,-35.74
15441,-31.68
15453,-26.93
15465,-21.92
15477,-16.78
15489,-11.57
15501,-6.3
15512,-1.1
15523,3.8
15535,8.08
15547,11.51
15559,14.02
15571,15.66
15583,16.64
15595,17.14
15607,17.34
15619,17.43
15631,17.61
15643,18.04
15655,18.84
15667,19.97
15679,21.27
15691,22.53
15702,23.55
15713,24.28
15725,24.7
15737,24.79
15749,24.51
15761,23.75
15773,22.46
15785,20.68
15797,18.61
15809,16.53
15821,14.67
15833,13.13
15845,11.8
15857,10.51
15869,9.11
15881,7.59
15892,6.01
15903,4.56
15915,3.26
15927,2.05
15939,0.8
15951,-0.63
15963,-2.31
15975,-4.2
15987,-6.16
15999,-8.1
16011,-9.96
16023,-11.76
16035,-13.6
16047,-15.58
16059,-17.8
16071,-20.34
16082,-23.26
16093,-26.52
16105,-29.99
16117,-33.36
16129,-36.12
16141,-37.72
16153,-37.7
16165,-35.88
16177,-32.43
16189,-27.8
16201,-22.58
16213,-17.3
16225,-12.3
16237,-7.71
16249,-3.51
16261,0.32
16272,3.72
16283,6.62
16295,8.91
16307,10.61
16319,11.84
16331,12.77
16343,13.5
16355,14.04
16367,14.29
16379,14.14
16391,13.65
16403,13.03
16415,12.58
16427,12.55
16439,13.04
16451,13.93
16462,14.96
16473,15.8
16485,16.16
16497,15.91
16509,15.04
16521,13.7
16533,12.04
16545,10.26
16557,8.48
16569,6.77
16581,5.06
16593,3.22
16605,1.16
16617,-1.15
16629,-3.59
16641,-5.96
16652,-8.08
16663,-9.81
16675,-11.16
16687,-12.25
16699,-13.26
16711,-14.34
16723,-15.65
16735,-17.29
16747,-19.27
16759,-21.54
16771,-23.93
16783,-26.14
16795,-27.82
16807,-28.7
16819,-28.58
16831,-27.5
16842,-25.67
16853,-23.35
16865,-20.75
16877,-17.96
16889,-14.95
16901,-11.61
16913,-7.9
16925,-3.91
16937,0.17
16949,4.09
16961,7.67
16973,10.8
16985,13.47
16997,15.7
17009,17.48
17021,18.79
17032,19.6
17043,19.98
17055,20.01
17067,19.86
17079,19.65
17091,19.43
17103,19.23
17115,18.98
17127,18.63
17139,18.15
17151,17.51
17163,16.67
17175,15.61
17187,14.3
17199,12.67
17211,10.73
17222,8.5
17233,6.01
17245,3.42
17257,0.8
17269,-1.72
17281,-4.07
17293,-6.27
17305,-8.32
17317,-10.22
17329,-12.0
17341,-13.7
17353,-15.52
17365,-17.69
17377,-20.42
17389,-23.74
17401,-27.47
17412,-31.21
17423,-34.44
17435,-36.64
17447,-37.45
17459,-36.77
17471,-34.72
17483,-31.56
17495,-27.62
17507,-23.25
17519,-18.68
17531,-14.09
17543,-9.53
17555,-5.03
17567,-0.64
17579,3.52
17591,7.27
17602,10.44
17613,12.97
17625,14.94
17637,16.48
17649,17.74
17661,18.79
17673,19.66
17685,20.35
17697,20.92
17709,21.43
17721,22.0
17733,22.62
17745,23.18
17757,23.49
17769,23.37
17781,22.84
17792,22.05
17803,21.25
17815,20.62
17827,20.2
17839,19.91
17851,19.49
17863,18.79
17875,17.71
17887,16.27
17899,14.59
17911,12.82
17923,11.03
17935,9.26
17947,7.54
17959,5.84
17971,4.12
17982,2.38
17993,0.58
18005,-1.3
18017,-3.27
18029,-5.38
18041,-7.62
18053,-9.93
18065,-12.26
18077,-14.58
18089,-16.9
18101,-19.36
18113,-22.15
18125,-25.42
18137,-29.2
18149,-33.22
18161,-36.94
18172,-39.68
18183,-40.86
18195,-40.17
18207,-37.75
18219,-34.06
18231,-29.69
18243,-25.15
18255,-20.73
18267,-16.51
18279,-12.44
18291,-8.44
18303,-4.5
18315,-0.66
18327,3.04
18339,6.57
18351,9.87
18362,12.88
18373,15.55
18385,17.8
18397,19.64
18409,21.15
18421,22.37
18433,23.43
18445,24.41
18457,25.36
18469,26.29
18481,27.24
18493,28.14
18505,28.93
18517,29.47
18529,29.61
18541,29.27
18552,28.45
18563,27.28
18575,25.93
18587,24.66
18599,23.55
18611,22.63
18623,21.73
18635,20.61
18647,19.07
18659,17.01
18671,14.5
18683,11.71
18695,8.92
18707,6.32
18719,4.05
18731,2.14
18742,0.48
18753,-1.06
18765,-2.64
18777,-4.34
18789,-6.13
18801,-7.93
18813,-9.65
18825,-11.23
18837,-12.71
18849,-14.15
18861,-15.63
18873,-17.24
18885,-19.05
18897,-21.08
18909,-23.35
18921,-25.77
18932,-28.16
18943,-30.17
18955,-31.42
18967,-31.51
18979,-30.26
18991,-27.73
19003,-24.22
19015,-20.28
19027,-16.36
19039,-12.8
19051,-9.66
19063,-6.79
19075,-4.0
19087,-1.11
19099,1.84
19111,4.74
19122,7.37
19133,9.66
19145,11.64
19157,13.38
19169,15.0
19181,16.48
19193,17.7
19205,18.54
19217,18.96
19229,18.97
19241,18.75
19253,18.46
19265,18.15
19277,17.85
19289,17.52
19301,17.15
19312,16.77
19323,16.43
19335,16.1
19347,15.72
19359,15.17
19371,14.36
19383,13.29
19395,12.04
19407,10.76
19419,9.59
19431,8.53
19443,7.54
19455,6.47
19467,5.22
19479,3.65
19491,1.82
19502,-0.26
19513,-2.48
19525,-4.78
19537,-7.17
19549,-9.73
19561,-12.5
19573,-15.53
19585,-18.81
19597,-22.21
19609,-25.56
19621,-28.63
19633,-31.12
19645,-32.68
19657,-33.02
19669,-31.89
19681,-29.24
19692,-25.29
19703,-20.43
19715,-15.17
19727,-10.01
19739,-5.26
19751,-1.05
19763,2.61
19775,5.81
19787,8.61
19799,11.02
19811,13.05
19823,14.68
19835,15.96
19847,16.96
19859,17.72
19871,18.29
19882,18.68
19893,18.91
19905,19.07
19917,19.19
19929,19.37
19941,19.62
19953,19.97
19965,20.38
19977,20.76
19989,21.01
20001,21.01
20013,20.67
20025,19.87
20037,18.56
20049,16.78
20061,14.7
20072,12.57
20083,10.63
20095,9.03
20107,7.77
20119,6.73
20131,5.75
20143,4.67
20155,3.43
20167,2.06
20179,0.65
20191,-0.68
20203,-1.84
20215,-2.83
20227,-3.72
20239,-4.64
20251,-5.74
20262,-7.14
20273,-8.85
20285,-10.78
20297,-12.72
20309,-14.55
20321,-16.18
20333,-17.67
20345,-19.16
20357,-20.76
20369,-22.55
20381,-24.52
20393,-26.62
20405,-28.72
20417,-30.69
20429,-32.31
20441,-33.35
20452,-33.57
20463,-32.84
20475,-31.16
20487,-28.63
20499,-25.4
20511,-21.59
20523,-17.25
20535,-12.43
20547,-7.22
20559,-1.83
20571,3.46
20583,8.32
20595,12.5
20607,15.85
20619,18.33
20631,19.96
20642,20.81
20653,20.96
20665,20.58
20677,19.87
20689,19.09
20701,18.49
20713,18.24
20725,18.42
20737,18.99
20749,19.81
20761,20.66
20773,21.31
20785,21.59
20797,21.45
20809,20.97
20821,20.29
20832,19.58
20843,18.88
20855,18.18
20867,17.38
20879,16.41
20891,15.25
20903,13.95
20915,12.55
20927,11.07
20939,9.45
20951,7.62
20963,5.59
20975,3.45
20987,1.37
20999,-0.54
