seconds,BVP
8,-30.3
20,-34.99
32,-40.59
44,-46.0
56,-50.19
68,-52.32
80,-51.98
92,-48.98
104,-45.17
116,-41.04
128,-34.91
140,-24.66
151,-10.09
162,6.6
174,22.3
186,34.21
198,41.51
210,41.44
222,35.12
234,28.27
246,27.56
258,35.96
270,52.04
282,71.97
294,90.51
306,102.98
318,99.26
330,74.44
341,32.39
352,-18.05
364,-69.93
376,-120.01
388,-167.23
400,-212.96
412,-259.24
424,-317.3
436,-393.23
448,-482.15
460,-571.81
472,-650.48
484,-709.82
496,-744.41
508,-753.89
520,-687.59
531,-538.38
542,-352.42
554,-189.49
566,-76.5
578,-8.44
590,27.88
602,50.88
614,67.8
626,80.71
638,81.89
650,69.71
662,50.88
674,36.91
686,34.75
698,44.69
710,63.46
721,85.49
732,106.54
744,117.56
756,115.04
768,103.82
780,92.83
792,87.79
804,89.64
816,97.23
828,108.22
840,121.47
852,132.18
864,137.16
876,136.2
888,130.17
900,118.48
911,100.28
922,77.03
934,52.23
946,30.68
958,13.83
970,1.38
982,-7.57
994,-13.97
1006,-19.13
1018,-24.1
1030,-29.27
1042,-35.14
1054,-42.23
1066,-51.69
1078,-63.48
1090,-75.45
1101,-83.88
1112,-85.24
1124,-77.5
1136,-60.81
1148,-37.59
1160,-11.44
1172,14.1
1184,36.69
1196,55.71
1208,72.06
1220,87.49
1232,103.76
1244,122.1
1256,142.97
1268,165.98
1280,189.86
1291,212.44
1302,230.8
1314,242.03
1326,244.04
1338,236.44
1350,220.85
1362,200.37
1374,178.54
1386,158.16
1398,140.62
1410,125.92
1422,113.42
1434,102.42
1446,92.68
1458,84.22
1470,76.93
1481,70.26
1492,63.22
1504,54.85
1516,44.72
1528,33.33
1540,22.09
1552,12.85
1564,7.27
1576,6.16
1588,9.23
1600,15.19
1612,22.24
1624,28.63
1636,33.1
1648,35.08
1660,34.52
1671,31.61
1682,26.64
1694,19.91
1706,11.9
1718,3.36
1730,-4.8
1742,-11.69
1754,-16.84
1766,-20.42
1778,-23.2
1790,-26.28
1802,-30.57
1814,-36.36
1826,-43.28
1838,-50.52
1850,-57.27
1861,-63.17
1872,-68.38
1884,-73.4
1896,-78.67
1908,-84.24
1920,-89.71
1932,-94.23
1944,-96.84
1956,-96.61
1968,-92.8
1980,-84.85
1992,-72.43
2004,-55.51
2016,-34.47
2028,-10.28
2040,15.63
2051,41.47
2062,65.47
2074,86.14
2086,102.5
2098,114.17
2110,121.22
2122,124.06
2134,123.26
2146,119.46
2158,113.29
2170,105.4
2182,96.48
2194,87.23
2206,78.28
2218,70.15
2230,63.2
2241,57.67
2252,53.6
2264,50.91
2276,49.3
2288,48.28
2300,47.16
2312,45.22
2324,41.8
2336,36.47
2348,29.14
2360,20.16
2372,10.35
2384,0.95
2396,-6.51
2408,-10.55
2420,-10.11
2431,-4.77
2442,4.98
2454,17.95
2466,32.54
2478,47.2
2490,60.74
2502,72.48
2514,82.14
2526,89.73
2538,95.34
2550,99.11
2562,101.19
2574,101.83
2586,101.29
2598,99.83
2610,97.62
2621,94.67
2632,90.88
2644,86.12
2656,80.4
2668,73.87
2680,66.84
2692,59.69
2704,52.66
2716,45.76
2728,38.62
2740,30.69
2752,21.44
2764,10.67
2776,-1.22
2788,-13.28
2800,-24.26
2811,-33.01
2822,-38.96
2834,-42.19
2846,-43.32
2858,-43.06
2870,-41.75
2882,-39.2
2894,-34.87
2906,-28.29
2918,-19.46
2930,-9.03
2942,1.95
2954,12.41
2966,21.59
2978,29.25
2990,35.46
3001,40.35
3012,43.93
3024,46.11
3036,46.74
3048,45.89
3060,43.84
3072,41.04
3084,37.97
3096,34.95
3108,32.07
3120,29.21
3132,26.11
3144,22.49
3156,18.11
3168,12.87
3180,6.8
3191,0.06
3202,-7.12
3214,-14.49
3226,-21.73
3238,-28.49
3250,-34.35
3262,-38.89
3274,-41.87
3286,-43.27
3298,-43.25
3310,-41.96
3322,-39.3
3334,-34.82
3346,-28.0
3358,-18.6
3370,-7.16
3381,4.87
3392,15.47
3404,22.75
3416,25.62
3428,24.09
3440,19.24
3452,12.61
3464,5.59
3476,-0.92
3488,-6.61
3500,-11.42
3512,-15.36
3524,-18.3
3536,-20.08
3548,-20.72
3560,-20.55
3571,-20.21
3582,-20.45
3594,-21.87
3606,-24.69
3618,-28.76
3630,-33.67
3642,-38.93
3654,-44.13
3666,-48.92
3678,-52.89
3690,-55.51
3702,-56.12
3714,-54.16
3726,-49.36
3738,-41.93
3750,-32.58
3761,-22.24
3772,-11.86
3784,-2.14
3796,6.54
3808,14.04
3820,20.29
3832,25.16
3844,28.55
3856,30.37
3868,30.72
3880,29.92
3892,28.46
3904,26.91
3916,25.79
3928,25.33
3940,25.47
3951,25.81
3962,25.83
3974,25.07
3986,23.35
3998,20.81
4010,17.85
4022,14.91
4034,12.19
4046,9.65
4058,6.96
4070,3.76
4082,-0.18
4094,-4.91
4106,-10.31
4118,-16.05
4130,-21.62
4141,-26.28
4152,-29.15
4164,-29.44
4176,-26.77
4188,-21.39
4200,-14.22
4212,-6.55
4224,0.47
4236,6.12
4248,10.33
4260,13.43
4272,15.82
4284,17.62
4296,18.52
4308,18.04
4320,15.8
4331,11.88
4342,6.87
4354,1.66
4366,-2.87
4378,-6.2
4390,-8.24
4402,-9.29
4414,-9.76
4426,-9.92
4438,-9.88
4450,-9.56
4462,-8.95
4474,-8.19
4486,-7.55
4498,-7.31
4510,-7.6
4521,-8.32
4532,-9.23
4544,-10.08
4556,-10.86
4568,-11.82
4580,-13.41
4592,-16.02
4604,-19.72
4616,-24.07
4628,-28.1
4640,-30.66
4652,-30.79
4664,-28.08
4676,-22.87
4688,-16.01
4700,-8.58
4711,-1.46
4722,4.95
4734,10.71
4746,16.07
4758,21.16
4770,25.78
4782,29.46
4794,31.58
4806,31.69
4818,29.67
4830,25.76
4842,20.62
4854,15.18
4866,10.45
4878,7.35
4890,6.3
4901,7.1
4912,8.87
4924,10.3
4936,10.21
4948,7.96
4960,3.83
4972,-1.2
4984,-5.91
4996,-9.5
5008,-11.94
5020,-13.95
5032,-16.59
5044,-20.63
5056,-26.14
5068,-32.5
5080,-38.82
5091,-44.38
5102,-49.01
5114,-52.96
5126,-56.38
5138,-58.98
5150,-59.86
5162,-57.9
5174,-52.46
5186,-43.77
5198,-33.07
5210,-22.08
5222,-12.35
5234,-4.65
5246,1.12
5258,5.62
5270,9.55
5281,13.36
5292,16.98
5304,20.08
5316,22.16
5328,22.7
5340,21.21
5352,17.38
5364,11.4
5376,4.21
5388,-2.46
5400,-6.61
5412,-6.78
5424,-2.87
5436,3.56
5448,9.8
5460,13.07
5471,11.75
5482,5.95
5494,-2.64
5506,-11.76
5518,-19.55
5530,-25.3
5542,-29.38
5554,-32.71
5566,-36.1
5578,-39.96
5590,-44.22
5602,-48.6
5614,-52.85
5626,-56.64
5638,-59.57
5650,-60.94
5661,-59.88
5672,-55.66
5684,-48.1
5696,-37.78
5708,-25.95
5720,-14.09
5732,-3.38
5744,5.64
5756,13.14
5768,19.71
5780,25.86
5792,31.69
5804,36.76
5816,40.28
5828,41.39
5840,39.5
5851,34.57
5862,27.31
5874,19.13
5886,11.93
5898,7.57
5910,7.17
5922,10.61
5934,16.3
5946,21.73
5958,24.29
5970,22.33
5982,15.74
5994,5.89
6006,-4.97
6018,-14.71
6030,-22.1
6041,-27.12
6052,-30.7
6064,-34.28
6076,-39.07
6088,-45.77
6100,-54.31
6112,-63.95
6124,-73.53
6136,-81.72
6148,-87.34
6160,-89.49
6172,-87.74
6184,-82.17
6196,-73.37
6208,-62.27
6220,-50.03
6231,-37.85
6242,-26.74
6254,-17.45
6266,-10.39
6278,-5.65
6290,-3.05
6302,-2.16
6314,-2.41
6326,-3.23
6338,-4.14
6350,-4.83
6362,-5.18
6374,-5.2
6386,-5.02
6398,-4.75
6410,-4.53
6421,-4.46
6432,-4.66
6444,-5.25
6456,-6.37
6468,-8.18
6480,-10.78
6492,-14.22
6504,-18.49
6516,-23.55
6528,-29.32
6540,-35.72
6552,-42.49
6564,-49.17
6576,-54.98
6588,-58.88
6600,-59.83
6611,-57.08
6622,-50.41
6634,-40.29
6646,-27.71
6658,-13.93
6670,-0.2
6682,12.49
6694,23.51
6706,32.54
6718,39.45
6730,44.22
6742,46.88
6754,47.53
6766,46.45
6778,44.05
6790,40.94
6801,37.67
6812,34.63
6824,31.91
6836,29.33
6848,26.61
6860,23.49
6872,19.96
6884,16.2
6896,12.51
6908,9.13
6920,6.05
6932,3.07
6944,-0.19
6956,-4.18
6968,-9.27
6980,-15.63
6991,-23.16
7002,-31.39
7014,-39.47
7026,-46.24
7038,-50.42
7050,-50.9
7062,-47.12
7074,-39.21
7086,-28.02
7098,-14.9
7110,-1.28
7122,11.64
7134,23.13
7146,32.9
7158,40.94
7170,47.29
7181,51.9
7192,54.64
7204,55.4
7216,54.35
7228,51.89
7240,48.62
7252,45.14
7264,41.81
7276,38.72
7288,35.67
7300,32.38
7312,28.66
7324,24.54
7336,20.25
7348,16.14
7360,12.44
7371,9.17
7382,6.12
7394,2.88
7406,-1.07
7418,-6.16
7430,-12.64
7442,-20.44
7454,-29.05
7466,-37.56
7478,-44.71
7490,-49.18
7502,-49.85
7514,-46.17
7526,-38.33
7538,-27.25
7550,-14.3
7561,-0.96
7572,11.59
7584,22.58
7596,31.73
7608,39.07
7620,44.73
7632,48.83
7644,51.4
7656,52.46
7668,52.05
7680,50.36
7692,47.7
7704,44.48
7716,41.03
7728,37.58
7740,34.16
7751,30.65
7762,26.88
7774,22.71
7786,18.11
7798,13.14
7810,7.96
7822,2.7
7834,-2.56
7846,-7.81
7858,-13.17
7870,-18.81
7882,-24.91
7894,-31.66
7906,-39.21
7918,-47.61
7930,-56.77
7941,-66.39
7952,-75.79
7964,-83.97
7976,-89.72
7988,-92.0
8000,-90.21
8012,-84.37
8024,-75.05
8036,-63.1
8048,-49.31
8060,-34.14
8072,-17.75
8084,-0.11
8096,18.7
8108,38.36
8120,58.22
8131,77.44
8142,95.23
8154,110.93
8166,124.15
8178,134.72
8190,142.55
8202,147.56
8214,149.69
8226,148.99
8238,145.7
8250,140.26
8262,133.24
8274,125.15
8286,116.18
8298,106.21
8310,94.83
8321,81.65
8332,66.47
8344,49.45
8356,31.07
8368,11.98
8380,-7.16
8392,-25.92
8404,-44.11
8416,-61.74
8428,-78.81
8440,-95.12
8452,-110.05
8464,-122.55
8476,-131.36
8488,-135.33
8500,-133.81
8511,-126.87
8522,-115.38
8534,-100.73
8546,-84.49
8558,-67.93
8570,-51.79
8582,-36.23
8594,-21.06
8606,-6.18
8618,8.22
8630,21.54
8642,32.92
8654,41.56
8666,47.11
8678,49.69
8690,49.92
8701,48.69
8712,46.87
8724,45.17
8736,44.06
8748,43.75
8760,44.31
8772,45.65
8784,47.53
8796,49.57
8808,51.2
8820,51.75
8832,50.66
8844,47.64
8856,42.91
8868,37.18
8880,31.45
8891,26.61
8902,23.14
8914,20.81
8926,18.86
8938,16.27
8950,12.14
8962,6.15
8974,-1.36
8986,-9.35
8998,-16.37
9010,-20.93
9022,-21.86
9034,-18.72
9046,-11.89
9058,-2.55
9070,7.69
9081,17.22
9092,24.88
9104,30.29
9116,33.92
9128,36.77
9140,39.99
9152,44.29
9164,49.59
9176,54.94
9188,58.84
9200,59.8
9212,56.95
9224,50.36
9236,41.07
9248,30.64
9260,20.63
9271,12.06
9282,5.3
9294,0.13
9306,-3.81
9318,-6.82
9330,-8.92
9342,-10.03
9354,-10.07
9366,-9.25
9378,-8.04
9390,-7.0
9402,-6.58
9414,-6.93
9426,-7.88
9438,-9.1
9450,-10.23
9461,-11.04
9472,-11.47
9484,-11.5
9496,-11.07
9508,-10.04
9520,-8.22
9532,-5.52
9544,-2.13
9556,1.52
9568,4.87
9580,7.6
9592,9.89
9604,12.5
9616,16.34
9628,21.96
9640,28.98
9651,35.92
9662,40.74
9674,41.64
9686,37.96
9698,30.55
9710,21.4
9722,12.73
9734,6.09
9746,1.83
9758,-0.8
9770,-2.98
9782,-5.67
9794,-9.11
9806,-12.98
9818,-16.65
9830,-19.71
9841,-22.11
9852,-24.11
9864,-26.0
9876,-27.91
9888,-29.75
9900,-31.37
9912,-32.73
9924,-33.97
9936,-35.39
9948,-37.17
9960,-39.14
9972,-40.76
9984,-41.18
9996,-39.6
10008,-35.52
10020,-28.96
10031,-20.51
10042,-11.08
10054,-1.75
10066,6.59
10078,13.31
10090,18.15
10102,21.13
10114,22.44
10126,22.33
10138,21.08
10150,18.95
10162,16.17
10174,13.02
10186,9.75
10198,6.65
10210,3.96
10221,1.84
10232,0.34
10244,-0.67
10256,-1.38
10268,-1.98
10280,-2.59
10292,-3.16
10304,-3.57
10316,-3.77
10328,-3.91
10340,-4.44
10352,-6.0
10364,-9.18
10376,-14.16
10388,-20.44
10400,-26.91
10411,-32.19
10422,-35.14
10434,-35.26
10446,-32.91
10458,-29.12
10470,-25.09
10482,-21.87
10494,-20.03
10506,-19.73
10518,-20.84
10530,-23.06
10542,-25.91
10554,-28.72
10566,-30.69
10578,-31.06
10590,-29.53
10601,-26.48
10612,-22.91
10624,-20.13
10636,-19.14
10648,-20.23
10660,-22.89
10672,-26.15
10684,-29.04
10696,-31.09
10708,-32.42
10720,-33.49
10732,-34.78
10744,-36.46
10756,-38.37
10768,-40.27
10780,-42.05
10791,-43.83
10802,-45.81
10814,-47.92
10826,-49.56
10838,-49.72
10850,-47.27
10862,-41.6
10874,-32.93
10886,-22.44
10898,-11.79
10910,-2.55
10922,4.48
10934,9.41
10946,13.04
10958,16.33
10970,19.83
10981,23.46
10992,26.62
11004,28.61
11016,28.94
11028,27.43
11040,24.12
11052,19.1
11064,12.6
11076,5.14
11088,-2.18
11100,-7.93
11112,-10.79
11124,-10.25
11136,-7.1
11148,-3.22
11160,-0.91
11171,-1.91
11182,-6.77
11194,-14.81
11206,-24.63
11218,-34.86
11230,-44.62
11242,-53.63
11254,-61.81
11266,-68.95
11278,-74.49
11290,-77.64
11302,-77.71
11314,-74.46
11326,-68.2
11338,-59.82
11350,-50.41
11361,-40.97
11372,-32.16
11384,-24.19
11396,-17.04
11408,-10.65
11420,-5.13
11432,-0.69
11444,2.44
11456,4.24
11468,4.97
11480,5.1
11492,5.14
11504,5.4
11516,5.91
11528,6.47
11540,6.78
11551,6.61
11562,5.95
11574,4.93
11586,3.77
11598,2.65
11610,1.59
11622,0.46
11634,-1.03
11646,-3.19
11658,-6.25
11670,-10.16
11682,-14.54
11694,-18.7
11706,-21.8
11718,-23.16
11730,-22.49
11741,-20.06
11752,-16.57
11764,-12.93
11776,-9.87
11788,-7.78
11800,-6.57
11812,-5.8
11824,-4.92
11836,-3.54
11848,-1.65
11860,0.36
11872,1.78
11884,1.82
11896,-0.11
11908,-4.11
11920,-9.76
11931,-16.19
11942,-22.42
11954,-27.65
11966,-31.5
11978,-33.95
11990,-35.21
12002,-35.51
12014,-34.94
12026,-33.64
12038,-31.83
12050,-30.0
12062,-28.82
12074,-28.93
12086,-30.74
12098,-34.11
12110,-38.41
12121,-42.62
12132,-45.53
12144,-46.09
12156,-43.6
12168,-37.86
12180,-29.21
12192,-18.44
12204,-6.59
12216,5.29
12228,16.39
12240,26.22
12252,34.64
12264,41.64
12276,47.15
12288,50.97
12300,52.8
12311,52.39
12322,49.71
12334,45.1
12346,39.15
12358,32.62
12370,26.11
12382,19.95
12394,14.22
12406,8.68
12418,3.11
12430,-2.69
12442,-8.79
12454,-15.2
12466,-21.98
12478,-29.25
12490,-37.08
12501,-45.36
12512,-53.62
12524,-61.1
12536,-67.0
12548,-70.69
12560,-71.88
12572,-70.6
12584,-67.05
12596,-61.42
12608,-53.78
12620,-44.24
12632,-33.05
12644,-20.74
12656,-8.09
12668,4.09
12680,15.09
12691,24.53
12702,32.33
12714,38.65
12726,43.74
12738,47.89
12750,51.28
12762,54.05
12774,56.22
12786,57.78
12798,58.75
12810,59.18
12822,59.18
12834,58.8
12846,58.04
12858,56.81
12870,54.97
12881,52.43
12892,49.21
12904,45.47
12916,41.38
12928,37.01
12940,32.32
12952,27.17
12964,21.46
12976,15.26
12988,8.78
13000,2.25
13012,-4.12
13024,-10.18
13036,-15.59
13048,-19.68
13060,-21.38
13071,-19.57
13082,-13.51
13094,-3.27
13106,10.15
13118,25.13
13130,39.94
13142,53.25
13154,64.35
13166,73.04
13178,79.35
13190,83.4
13202,85.33
13214,85.36
13226,83.93
13238,81.62
13250,79.09
13261,76.81
13272,74.98
13284,73.52
13296,72.09
13308,70.26
13320,67.65
13332,64.11
13344,59.81
13356,55.19
13368,50.83
13380,47.12
13392,44.14
13404,41.55
13416,38.79
13428,35.34
13440,30.97
13451,25.79
13462,20.15
13474,14.38
13486,8.71
13498,3.15
13510,-2.39
13522,-7.91
13534,-13.3
13546,-18.3
13558,-22.62
13570,-26.07
13582,-28.64
13594,-30.5
13606,-31.96
13618,-33.42
13630,-35.22
13641,-37.62
13652,-40.73
13664,-44.49
13676,-48.58
13688,-52.5
13700,-55.65
13712,-57.48
13724,-57.63
13736,-56.02
13748,-52.74
13760,-47.99
13772,-41.85
13784,-34.36
13796,-25.56
13808,-15.72
13820,-5.48
13831,4.2
13842,12.24
13854,17.78
13866,20.41
13878,20.32
13890,18.16
13902,14.81
13914,11.11
13926,7.67
13938,4.8
13950,2.56
13962,0.92
13974,-0.15
13986,-0.68
13998,-0.69
14010,-0.25
14021,0.46
14032,1.14
14044,1.49
14056,1.27
14068,0.35
14080,-1.33
14092,-3.9
14104,-7.65
14116,-12.97
14128,-20.17
14140,-29.17
14152,-39.39
14164,-49.81
14176,-59.34
14188,-67.31
14200,-73.83
14211,-79.8
14222,-86.51
14234,-95.02
14246,-105.49
14258,-117.02
14270,-127.8
14282,-135.73
14294,-139.04
14306,-136.86
14318,-129.39
14330,-117.94
14342,-104.64
14354,-92.05
14366,-82.65
14378,-78.27
14390,-79.57
14401,-85.85
14412,-95.12
14424,-104.55
14436,-111.25
14448,-113.04
14460,-109.01
14472,-99.73
14484,-87.01
14496,-73.24
14508,-60.6
14520,-50.24
14532,-41.87
14544,-33.88
14556,-24.1
14568,-10.66
14580,7.12
14591,28.51
14602,51.69
14614,74.47
14626,94.94
14638,111.88
14650,124.8
14662,133.71
14674,139.05
14686,141.61
14698,142.45
14710,142.66
14722,142.93
14734,143.18
14746,142.56
14758,139.82
14770,134.02
14781,125.21
14792,114.55
14804,104.02
14816,95.68
14828,90.94
14840,90.21
14852,92.95
14864,98.03
14876,104.2
14888,110.3
14900,115.43
14912,118.97
14924,120.69
14936,120.7
14948,119.48
14960,117.72
14971,116.05
14982,114.85
14994,114.1
15006,113.41
15018,112.25
15030,110.14
15042,106.76
15054,101.93
15066,95.54
15078,87.53
15090,77.95
15102,66.98
15114,55.02
15126,42.56
15138,30.02
15150,17.61
15161,5.33
15172,-6.92
15184,-19.16
15196,-31.31
15208,-43.21
15220,-54.79
15232,-66.15
15244,-77.51
15256,-89.05
15268,-100.64
15280,-111.72
15292,-121.42
15304,-128.8
15316,-133.26
15328,-134.8
15340,-134.03
15351,-132.0
15362,-129.82
15374,-128.33
15386,-127.86
15398,-128.24
15410,-128.9
15422,-128.97
15434,-127.5
15446,-123.52
15458,-116.27
15470,-105.4
15482,-91.1
15494,-74.11
15506,-55.6
15518,-36.82
15530,-18.8
15541,-2.16
15552,12.88
15564,26.42
15576,38.81
15588,50.44
15600,61.68
15612,72.73
15624,83.54
15636,93.71
15648,102.66
15660,109.84
15672,114.97
15684,118.1
15696,119.48
15708,119.22
15720,117.12
15731,112.77
15742,105.94
15754,96.93
15766,86.76
15778,76.99
15790,69.2
15802,64.51
15814,63.17
15826,64.7
15838,68.09
15850,72.21
15862,76.08
15874,79.07
15886,80.93
15898,81.81
15910,82.16
15921,82.54
15932,83.32
15944,84.54
15956,85.9
15968,86.93
15980,87.41
15992,87.61
16004,88.45
16016,91.31
16028,97.81
16040,109.46
16052,127.36
16064,151.78
16076,181.64
16088,214.12
16100,244.74
16111,268.17
16122,279.7
16134,276.83
16146,260.24
16158,233.51
16170,201.84
16182,170.25
16194,142.11
16206,118.74
16218,99.71
16230,83.71
16242,69.35
16254,55.46
16266,41.13
16278,25.61
16290,8.2
16301,-11.8
16312,-34.96
16324,-61.45
16336,-90.52
16348,-120.25
16360,-147.93
16372,-171.04
16384,-188.53
16396,-201.41
16408,-212.17
16420,-223.13
16432,-234.87
16444,-245.86
16456,-253.78
16468,-257.68
16480,-259.44
16491,-263.39
16502,-274.09
16514,-293.54
16526,-319.7
16538,-347.1
16550,-369.28
16562,-381.58
16574,-382.76
16586,-374.85
16598,-361.65
16610,-346.91
16622,-332.83
16634,-319.62
16646,-305.83
16658,-289.35
16670,-268.39
16681,-242.43
16692,-212.54
16704,-180.97
16716,-150.23
16728,-122.09
16740,-96.93
16752,-73.92
16764,-51.85
16776,-30.02
16788,-8.79
16800,10.62
16812,26.87
16824,39.35
16836,48.54
16848,55.7
16860,62.2
16871,68.77
16882,75.21
16894,80.62
16906,84.0
16918,84.79
16930,83.24
16942,80.18
16954,76.68
16966,73.5
16978,70.82
16990,68.22
17002,64.94
17014,60.2
17026,53.61
17038,45.32
17050,35.85
17061,25.88
17072,15.92
17084,6.24
17096,-3.0
17108,-11.5
17120,-18.63
17132,-23.54
17144,-25.43
17156,-23.96
17168,-19.43
17180,-12.72
17192,-5.0
17204,2.67
17216,9.53
17228,15.21
17240,19.58
17251,22.71
17262,24.7
17274,25.7
17286,25.88
17298,25.43
17310,24.5
17322,23.25
17334,21.8
17346,20.31
17358,18.93
17370,17.81
17382,17.14
17394,17.05
17406,17.56
17418,18.53
17430,19.66
17441,20.59
17452,20.94
17464,20.49
17476,19.16
17488,16.98
17500,14.01
17512,10.26
17524,5.69
17536,0.38
17548,-5.4
17560,-10.98
17572,-15.37
17584,-17.56
17596,-16.78
17608,-12.74
17620,-5.8
17631,3.21
17642,13.16
17654,23.02
17666,32.02
17678,39.72
17690,45.85
17702,50.26
17714,52.76
17726,53.28
17738,51.89
17750,48.98
17762,45.2
17774,41.3
17786,37.92
17798,35.36
17810,33.57
17821,32.2
17832,30.87
17844,29.38
17856,27.72
17868,26.1
17880,24.73
17892,23.71
17904,22.9
17916,21.94
17928,20.28
17940,17.42
17952,13.01
17964,7.1
17976,0.15
17988,-6.99
18000,-13.18
18011,-17.2
18022,-18.14
18034,-15.55
18046,-9.67
18058,-1.35
18070,8.18
18082,17.63
18094,26.01
18106,32.77
18118,37.79
18130,41.19
18142,43.06
18154,43.4
18166,42.12
18178,39.26
18190,35.17
18201,30.48
18212,25.96
18224,22.2
18236,19.45
18248,17.52
18260,15.96
18272,14.28
18284,12.18
18296,9.68
18308,6.99
18320,4.37
18332,1.97
18344,-0.26
18356,-2.57
18368,-5.39
18380,-9.15
18391,-14.21
18402,-20.56
18414,-27.79
18426,-34.91
18438,-40.58
18450,-43.39
18462,-42.23
18474,-36.75
18486,-27.41
18498,-15.5
18510,-2.79
18522,8.92
18534,18.27
18546,24.58
18558,27.9
18570,28.78
18581,27.87
18592,25.66
18604,22.4
18616,18.17
18628,13.19
18640,7.95
18652,3.11
18664,-0.67
18676,-3.07
18688,-4.31
18700,-5.29
18712,-7.32
18724,-11.77
18736,-19.58
18748,-30.88
18760,-44.81
18771,-59.68
18782,-73.49
18794,-84.52
18806,-91.86
18818,-95.58
18830,-96.42
18842,-95.25
18854,-92.6
18866,-88.43
18878,-82.33
18890,-73.91
18902,-63.1
18914,-50.35
18926,-36.42
18938,-22.16
18950,-8.21
18961,5.09
18972,17.61
18984,29.27
18996,39.8
19008,48.74
19020,55.53
19032,59.77
19044,61.45
19056,61.01
19068,59.26
19080,57.06
19092,55.01
19104,53.36
19116,51.94
19128,50.5
19140,48.96
19151,47.45
19162,46.35
19174,45.98
19186,46.41
19198,47.28
19210,47.9
19222,47.54
19234,45.71
19246,42.51
19258,38.54
19270,34.76
19282,31.99
19294,30.5
19306,29.88
19318,29.18
19330,27.46
19341,24.39
19352,20.61
19364,17.67
19376,17.53
19388,21.9
19400,31.77
19412,47.06
19424,66.47
19436,87.51
19448,106.61
19460,119.61
19472,122.68
19484,113.51
19496,92.28
19508,61.98
19520,27.7
19531,-4.9
19542,-31.21
19554,-48.73
19566,-57.34
19578,-58.58
19590,-54.68
19602,-47.72
19614,-39.27
19626,-30.39
19638,-21.87
19650,-14.25
19662,-7.82
19674,-2.59
19686,1.68
19698,5.4
19710,8.88
19721,12.21
19732,15.14
19744,17.22
19756,17.97
19768,17.18
19780,14.96
19792,11.77
19804,8.24
19816,4.91
19828,2.13
19840,-0.07
19852,-1.84
19864,-3.31
19876,-4.41
19888,-4.76
19900,-3.65
19911,-0.21
19922,6.25
19934,16.02
19946,28.87
19958,44.18
19970,61.21
19982,79.41
19994,98.54
20006,118.48
20018,138.8
20030,158.44
20042,175.66
20054,188.44
20066,194.98
20078,194.27
20090,186.36
20101,172.24
20112,153.56
20124,132.23
20136,110.04
20148,88.59
20160,69.06
20172,52.22
20184,38.43
20196,27.64
20208,19.53
20220,13.73
20232,9.95
20244,8.15
20256,8.54
20268,11.43
20280,17.11
20291,25.58
20302,36.47
20314,48.97
20326,61.94
20338,74.12
20350,84.33
20362,91.75
20374,96.1
20386,97.73
20398,97.47
20410,96.2
20422,94.46
20434,91.99
20446,87.71
20458,80.11
20470,67.98
20481,51.31
20492,31.8
20504,12.95
20516,-0.53
20528,-3.89
20540,6.14
20552,30.03
20564,64.7
20576,103.95
20588,139.96
20600,165.61
20612,176.48
20624,171.96
20636,154.73
20648,129.25
20660,99.72
20671,68.78
20682,37.23
20694,4.66
20706,-29.43
20718,-64.99
20730,-101.21
20742,-137.07
20754,-171.89
20766,-205.62
20778,-238.83
20790,-272.32
20802,-306.74
20814,-342.57
20826,-380.46
20838,-421.43
20850,-466.53
20861,-515.66
20872,-566.32
20884,-612.89
20896,-647.53
20908,-662.49
20920,-652.93
20932,-618.77
20944,-564.57
20956,-497.66
20968,-425.36
20980,-353.1
20992,-283.87
