seconds,BVP
5,-13.43
16,-13.43
28,-12.6
40,-10.96
52,-8.72
64,-6.14
76,-3.56
88,-1.43
100,0.0
112,0.49
124,-0.02
136,-1.41
148,-3.38
160,-5.58
172,-7.51
184,-8.69
195,-8.76
206,-7.46
218,-4.83
230,-1.03
242,3.57
254,8.51
266,13.22
278,17.29
290,20.49
302,22.71
314,24.09
326,24.78
338,25.05
350,25.22
362,25.45
374,25.86
385,26.5
396,27.37
408,28.38
420,29.61
432,31.0
444,32.63
456,34.54
468,36.82
480,39.59
492,42.94
504,46.99
516,51.78
528,57.33
540,63.55
552,70.11
564,76.62
575,82.63
586,87.89
598,92.27
610,96.06
622,99.74
634,103.95
646,109.32
658,116.21
670,124.73
682,134.59
694,145.63
706,157.53
718,170.25
730,183.94
742,198.8
754,214.97
765,232.49
776,251.22
788,270.89
800,291.46
812,312.78
824,334.94
836,357.97
848,381.9
860,407.07
872,434.2
884,464.0
896,496.45
908,529.83
920,560.28
932,582.36
944,590.27
955,579.62
966,548.84
978,499.51
990,435.55
1002,361.99
1014,283.93
1026,205.88
1038,131.64
1050,64.16
1062,5.18
1074,-44.57
1086,-85.12
1098,-116.93
1110,-140.09
1122,-153.98
1134,-157.92
1145,-151.57
1156,-136.18
1168,-114.81
1180,-91.99
1192,-72.89
1204,-62.25
1216,-62.9
1228,-75.18
1240,-96.73
1252,-122.86
1264,-148.25
1276,-168.27
1288,-180.53
1300,-185.17
1312,-184.4
1324,-180.87
1335,-176.42
1346,-171.29
1358,-163.66
1370,-150.86
1382,-130.71
1394,-102.44
1406,-67.28
1418,-27.84
1430,13.0
1442,53.08
1454,90.89
1466,125.94
1478,157.75
1490,185.25
1502,207.11
1514,221.86
1525,228.66
1536,227.72
1548,220.18
1560,207.32
1572,190.62
1584,170.95
1596,148.89
1608,124.77
1620,98.79
1632,71.42
1644,43.68
1656,17.37
1668,-4.99
1680,-20.38
1692,-26.49
1704,-22.51
1715,-9.8
1726,7.89
1738,25.48
1750,38.18
1762,42.81
1774,38.41
1786,26.69
1798,10.5
1810,-7.32
1822,-24.73
1834,-41.25
1846,-57.38
1858,-73.43
1870,-88.95
1882,-102.96
1894,-113.94
1905,-121.01
1916,-124.51
1928,-125.47
1940,-125.36
1952,-124.82
1964,-123.39
1976,-119.8
1988,-112.95
2000,-102.54
2012,-89.43
2024,-75.23
2036,-61.59
2048,-49.8
2060,-40.17
2072,-32.35
2084,-25.78
2095,-20.02
2106,-14.7
2118,-9.52
2130,-3.77
2142,3.87
2154,14.83
2166,30.1
2178,49.7
2190,72.5
2202,96.81
2214,121.29
2226,145.13
2238,167.78
2250,188.43
2262,204.85
2274,213.33
2285,209.71
2296,190.47
2308,154.29
2320,102.08
2332,36.62
2344,-38.58
2356,-119.38
2368,-201.17
2380,-278.59
2392,-345.4
2404,-395.56
2416,-424.09
2428,-428.68
2440,-410.45
2452,-373.56
2464,-324.23
2475,-269.49
2486,-216.19
2498,-170.17
2510,-136.14
2522,-117.85
2534,-117.59
2546,-135.21
2558,-166.87
2570,-204.78
2582,-238.27
2594,-256.98
2606,-254.25
2618,-229.7
2630,-189.6
2642,-144.26
2654,-103.83
2665,-74.76
2676,-58.54
2688,-52.46
2700,-52.25
2712,-53.84
2724,-54.62
2736,-52.96
2748,-47.64
2760,-37.9
2772,-23.92
2784,-7.72
2796,7.25
2808,17.22
2820,19.51
2832,13.75
2844,2.08
2855,-11.44
2866,-22.31
2878,-27.06
2890,-23.96
2902,-13.02
2914,4.18
2926,25.14
2938,47.11
2950,67.51
2962,84.57
2974,97.36
2986,105.67
2998,109.87
3010,110.69
3022,108.74
3034,104.61
3045,98.9
3056,92.05
3068,84.51
3080,76.7
3092,69.03
3104,61.92
3116,55.68
3128,50.35
3140,45.81
3152,41.89
3164,38.26
3176,34.69
3188,31.04
3200,27.35
3212,24.02
3224,21.49
3235,20.17
3246,20.2
3258,21.4
3270,23.22
3282,25.03
3294,26.41
3306,27.32
3318,28.18
3330,29.63
3342,32.12
3354,35.69
3366,39.91
3378,43.95
3390,46.93
3402,48.31
3414,47.98
3425,46.3
3436,43.83
3448,41.01
3460,37.87
3472,33.89
3484,28.24
3496,20.18
3508,9.62
3520,-2.6
3532,-14.72
3544,-24.55
3556,-30.2
3568,-30.7
3580,-26.14
3592,-17.32
3604,-5.37
3615,8.55
3626,23.17
3638,37.0
3650,48.64
3662,57.55
3674,64.71
3686,72.65
3698,84.16
3710,100.25
3722,118.36
3734,132.47
3746,134.93
3758,119.79
3770,85.32
3782,34.69
3794,-25.83
3805,-89.4
3816,-150.22
3828,-203.66
3840,-245.27
3852,-270.32
3864,-274.59
3876,-256.15
3888,-216.75
3900,-162.1
3912,-100.42
3924,-40.24
3936,11.63
3948,51.05
3960,76.29
3972,87.78
3984,87.63
3995,79.25
4006,66.88
4018,54.66
4030,45.58
4042,40.94
4054,40.59
4066,43.47
4078,48.48
4090,54.73
4102,61.51
4114,68.29
4126,75.01
4138,82.34
4150,91.53
4162,104.16
4174,121.12
4185,141.64
4196,162.99
4208,180.98
4220,191.25
4232,190.91
4244,179.31
4256,158.17
4268,130.67
4280,100.15
4292,68.89
4304,37.59
4316,5.39
4328,-29.14
4340,-66.96
4352,-107.85
4364,-150.58
4375,-193.4
4386,-234.76
4398,-273.7
4410,-309.86
4422,-343.39
4434,-374.6
4446,-403.59
4458,-429.58
4470,-449.91
4482,-458.98
4494,-448.09
4506,-406.94
4518,-327.47
4530,-208.31
4542,-57.9
4554,106.09
4565,261.06
4576,386.11
4588,467.91
4600,503.36
4612,498.29
4624,463.33
4636,409.53
4648,345.87
4660,279.01
4672,214.45
4684,157.56
4696,113.18
4708,83.97
4720,69.13
4732,64.35
4744,63.28
4755,60.13
4766,51.74
4778,38.38
4790,23.08
4802,10.0
4814,2.2
4826,0.52
4838,3.58
4850,8.8
4862,13.76
4874,17.15
4886,19.07
4898,20.73
4910,23.52
4922,28.01
4934,33.45
4945,37.54
4956,37.14
4968,29.18
4980,11.74
4992,-15.05
5004,-48.92
5016,-86.1
5028,-122.33
5040,-153.85
5052,-178.08
5064,-193.87
5076,-201.18
5088,-200.7
5100,-193.49
5112,-180.48
5124,-162.35
5135,-139.34
5146,-111.23
5158,-77.79
5170,-39.39
5182,2.41
5194,44.61
5206,83.08
5218,113.42
5230,132.03
5242,137.04
5254,128.66
5266,109.01
5278,81.41
5290,49.49
5302,16.37
5314,-15.65
5325,-45.13
5336,-71.38
5348,-94.32
5360,-114.34
5372,-132.2
5384,-148.55
5396,-163.73
5408,-177.44
5420,-188.68
5432,-195.96
5444,-197.84
5456,-193.34
5468,-182.42
5480,-166.0
5492,-145.67
5504,-123.38
5515,-100.87
5526,-79.38
5538,-59.57
5550,-41.71
5562,-25.83
5574,-11.92
5586,0.17
5598,10.8
5610,20.74
5622,30.87
5634,41.79
5646,53.66
5658,66.03
5670,77.99
5682,88.43
5694,96.17
5705,100.2
5716,99.85
5728,94.61
5740,84.2
5752,68.78
5764,49.04
5776,26.16
5788,1.52
5800,-23.49
5812,-47.55
5824,-69.36
5836,-87.55
5848,-100.67
5860,-107.43
5872,-107.23
5884,-100.41
5895,-88.4
5906,-73.45
5918,-57.98
5930,-43.94
5942,-32.3
5954,-22.93
5966,-14.99
5978,-7.66
5990,-0.52
6002,6.23
6014,11.79
6026,15.23
6038,16.01
6050,14.23
6062,10.62
6074,6.19
6085,1.69
6096,-2.43
6108,-5.85
6120,-8.32
6132,-9.3
6144,-8.0
6156,-3.53
6168,4.65
6180,16.38
6192,30.69
6204,45.9
6216,60.08
6228,71.49
6240,79.12
6252,82.95
6264,83.86
6275,83.31
6286,82.8
6298,83.42
6310,85.58
6322,88.92
6334,92.53
6346,95.29
6358,96.29
6370,95.13
6382,91.9
6394,87.15
6406,81.48
6418,75.36
6430,69.0
6442,62.42
6454,55.61
6465,48.76
6476,42.04
6488,35.67
6500,29.7
6512,23.85
6524,17.57
6536,10.23
6548,1.45
6560,-8.74
6572,-19.74
6584,-30.6
6596,-40.18
6608,-47.46
6620,-51.92
6632,-53.59
6644,-52.85
6655,-50.1
6666,-45.5
6678,-38.75
6690,-29.49
6702,-17.63
6714,-3.51
6726,11.96
6738,27.47
6750,41.51
6762,52.62
6774,59.42
6786,60.84
6798,55.96
6810,44.36
6822,26.4
6834,3.4
6845,-22.46
6856,-48.61
6868,-72.53
6880,-92.2
6892,-106.15
6904,-113.57
6916,-114.15
6928,-108.05
6940,-95.92
6952,-78.93
6964,-58.69
6976,-37.08
6988,-15.93
7000,3.37
7012,19.88
7024,33.19
7035,43.23
7046,49.92
7058,53.38
7070,53.88
7082,51.82
7094,47.8
7106,42.59
7118,36.91
7130,31.34
7142,26.21
7154,21.5
7166,17.17
7178,13.23
7190,9.92
7202,7.65
7214,7.06
7225,8.73
7236,12.98
7248,19.7
7260,28.25
7272,37.58
7284,46.49
7296,53.86
7308,58.9
7320,61.3
7332,61.1
7344,58.56
7356,54.03
7368,47.78
7380,40.0
7392,30.9
7404,20.77
7415,10.08
7426,-0.48
7438,-10.06
7450,-17.98
7462,-23.8
7474,-27.53
7486,-29.52
7498,-30.27
7510,-30.18
7522,-29.43
7534,-28.05
7546,-26.03
7558,-23.56
7570,-21.0
7582,-18.73
7594,-16.99
7605,-15.64
7616,-14.28
7628,-12.39
7640,-9.66
7652,-6.2
7664,-2.52
7676,0.7
7688,2.96
7700,4.14
7712,4.61
7724,5.0
7736,6.01
7748,8.03
7760,11.1
7772,14.85
7784,18.78
7795,22.43
7806,25.58
7818,28.24
7830,30.56
7842,32.72
7854,34.76
7866,36.63
7878,38.23
7890,39.45
7902,40.21
7914,40.45
7926,40.07
7938,38.91
7950,36.84
7962,33.76
7974,29.75
7985,24.97
7996,19.64
8008,13.91
8020,7.88
8032,1.52
8044,-5.19
8056,-12.17
8068,-19.28
8080,-26.23
8092,-32.71
8104,-38.36
8116,-42.87
8128,-46.01
8140,-47.72
8152,-48.03
8164,-47.1
8175,-45.14
8186,-42.37
8198,-39.01
8210,-35.33
8222,-31.46
8234,-27.49
8246,-23.36
8258,-18.93
8270,-14.03
8282,-8.64
8294,-2.9
8306,2.91
8318,8.38
8330,13.25
8342,17.39
8354,20.95
8365,24.2
8376,27.44
8388,30.81
8400,34.36
8412,38.02
8424,41.67
8436,45.22
8448,48.67
8460,52.06
8472,55.41
8484,58.64
8496,61.58
8508,64.07
8520,66.05
8532,67.56
8544,68.79
8555,69.98
8566,71.35
8578,73.0
8590,74.91
8602,77.0
8614,79.14
8626,81.39
8638,83.93
8650,86.96
8662,90.57
8674,94.66
8686,98.79
8698,102.2
8710,103.79
8722,102.1
8734,95.67
8745,83.23
8756,64.04
8768,38.33
8780,7.22
8792,-27.63
8804,-64.56
8816,-102.46
8828,-140.68
8840,-178.59
8852,-214.95
8864,-247.59
8876,-273.41
8888,-289.21
8900,-292.84
8912,-283.92
8924,-264.15
8935,-236.8
8946,-205.88
8958,-175.46
8970,-148.97
8982,-128.62
8994,-115.2
9006,-107.76
9018,-103.6
9030,-98.71
9042,-88.84
9054,-70.73
9066,-43.56
9078,-9.59
9090,26.09
9102,56.76
9114,75.99
9125,79.44
9136,65.87
9148,37.38
9160,-1.12
9172,-43.11
9184,-81.61
9196,-110.24
9208,-124.02
9220,-119.85
9232,-97.17
9244,-58.8
9256,-10.55
9268,40.04
9280,85.49
9292,120.49
9304,143.24
9315,155.4
9326,161.31
9338,165.97
9350,173.19
9362,184.49
9374,199.16
9386,215.08
9398,230.21
9410,243.85
9422,257.25
9434,273.09
9446,293.63
9458,318.78
9470,344.62
9482,363.85
9494,367.9
9505,350.38
9516,309.66
9528,249.59
9540,177.97
9552,103.32
9564,32.06
9576,-32.97
9588,-91.66
9600,-144.55
9612,-190.72
9624,-227.26
9636,-250.45
9648,-257.68
9660,-249.22
9672,-228.7
9684,-202.18
9695,-176.26
9706,-156.02
9718,-143.86
9730,-139.33
9742,-140.32
9754,-144.24
9766,-149.16
9778,-154.07
9790,-158.51
9802,-162.03
9814,-163.57
9826,-161.65
9838,-154.68
9850,-141.98
9862,-124.26
9874,-103.54
9885,-82.55
9896,-63.6
9908,-48.01
9920,-35.8
9932,-26.21
9944,-18.41
9956,-12.15
9968,-7.67
9980,-5.45
9992,-5.68
10004,-8.31
10016,-13.37
10028,-21.42
10040,-33.54
10052,-50.74
10064,-73.19
10075,-99.54
10086,-127.04
10098,-151.91
10110,-170.24
10122,-178.66
10134,-174.63
10146,-156.59
10158,-123.8
10170,-76.58
10182,-16.39
10194,53.78
10206,129.37
10218,204.67
10230,273.12
10242,328.05
10254,363.37
10265,374.63
10276,359.9
10288,320.47
10300,260.73
10312,187.62
10324,109.6
10336,35.27
10348,-27.7
10360,-73.61
10372,-99.43
10384,-105.18
10396,-93.66
10408,-69.71
10420,-39.03
10432,-6.76
10444,23.34
10455,49.22
10466,70.17
10478,86.05
10490,96.82
10502,102.49
10514,103.54
10526,100.96
10538,96.32
10550,91.12
10562,86.5
10574,82.93
10586,80.41
10598,78.67
10610,77.45
10622,76.4
10634,74.81
10645,71.54
10656,65.08
10668,54.04
10680,37.66
10692,16.03
10704,-10.11
10716,-40.15
10728,-74.06
10740,-112.5
10752,-155.99
10764,-203.94
10776,-253.72
10788,-300.82
10800,-339.67
10812,-365.03
10824,-373.31
10835,-363.23
10846,-335.68
10858,-293.23
10870,-239.58
10882,-179.13
10894,-116.65
10906,-56.77
10918,-3.31
10930,41.41
10942,76.86
10954,104.01
10966,124.49
10978,139.82
10990,150.81
11002,157.48
11014,159.38
11025,156.0
11036,147.1
11048,132.93
11060,114.18
11072,91.93
11084,67.64
11096,43.07
11108,20.02
11120,0.0
11132,-16.0
11144,-27.76
11156,-35.56
11168,-39.97
11180,-41.64
11192,-41.04
11204,-38.7
11215,-35.32
11226,-31.8
11238,-29.23
11250,-28.5
11262,-30.17
11274,-34.23
11286,-40.23
11298,-47.43
11310,-54.95
11322,-61.83
11334,-67.02
11346,-69.35
11358,-67.66
11370,-61.12
11382,-49.47
11394,-33.15
11405,-13.26
11416,8.72
11428,31.22
11440,52.8
11452,72.26
11464,88.72
11476,101.55
11488,110.35
11500,115.02
11512,115.72
11524,112.84
11536,106.93
11548,98.56
11560,88.31
11572,76.67
11584,64.07
11595,50.82
11606,37.13
11618,23.1
11630,8.96
11642,-4.85
11654,-17.56
11666,-28.16
11678,-35.67
11690,-39.47
11702,-39.53
11714,-36.46
11726,-31.37
11738,-25.45
11750,-19.77
11762,-15.08
11774,-11.78
11785,-10.05
11796,-10.01
11808,-11.7
11820,-15.14
11832,-20.26
11844,-26.89
11856,-34.72
11868,-43.23
11880,-51.82
11892,-59.79
11904,-66.5
11916,-71.39
11928,-74.03
11940,-74.15
11952,-71.72
11964,-66.91
11975,-60.15
11986,-51.95
11998,-42.94
12010,-33.64
12022,-24.37
12034,-15.26
12046,-6.27
12058,2.7
12070,11.68
12082,20.57
12094,29.09
12106,36.98
12118,43.93
12130,49.76
12142,54.36
12154,57.58
12165,59.27
12176,59.29
12188,57.62
12200,54.43
12212,50.07
12224,45.0
12236,39.7
12248,34.52
12260,29.68
12272,25.41
12284,21.8
12296,18.97
12308,16.87
12320,15.31
12332,14.02
12344,12.73
12355,11.38
12366,9.99
12378,8.69
12390,7.42
12402,5.94
12414,3.78
12426,0.46
12438,-4.38
12450,-10.81
12462,-18.64
12474,-27.51
12486,-36.96
12498,-46.5
12510,-55.67
12522,-63.91
12534,-70.74
12545,-75.68
12556,-78.42
12568,-78.72
12580,-76.57
12592,-71.98
12604,-65.11
12616,-56.19
12628,-45.48
12640,-33.48
12652,-20.83
12664,-8.38
12676,2.95
12688,12.25
12700,18.89
12712,22.6
12724,23.44
12735,21.85
12746,18.29
12758,13.23
12770,7.03
12782,0.08
12794,-7.1
12806,-13.8
12818,-19.13
12830,-22.3
12842,-22.76
12854,-20.43
12866,-15.6
12878,-8.91
12890,-1.12
12902,7.01
12914,14.81
12925,21.77
12936,27.52
12948,31.92
12960,34.98
12972,36.88
12984,37.97
12996,38.66
13008,39.38
13020,40.55
13032,42.46
13044,45.26
13056,48.87
13068,52.96
13080,57.03
13092,60.44
13104,62.53
13115,62.79
13126,60.87
13138,56.66
13150,50.33
13162,42.21
13174,32.86
13186,22.92
13198,13.05
13210,3.88
13222,-4.1
13234,-10.56
13246,-15.35
13258,-18.51
13270,-20.27
13282,-20.99
13294,-21.07
13305,-20.91
13316,-20.82
13328,-21.05
13340,-21.69
13352,-22.74
13364,-24.1
13376,-25.64
13388,-27.21
13400,-28.7
13412,-29.99
13424,-31.01
13436,-31.69
13448,-32.02
13460,-31.94
13472,-31.42
13484,-30.48
13495,-29.11
13506,-27.26
13518,-24.9
13530,-22.01
13542,-18.7
13554,-15.06
13566,-11.16
13578,-7.1
13590,-2.85
13602,1.53
13614,6.05
13626,10.63
13638,15.12
13650,19.21
13662,22.55
13674,24.9
13685,26.12
13696,26.36
13708,25.84
13720,25.05
13732,24.39
13744,24.01
13756,23.63
13768,22.81
13780,21.26
13792,18.88
13804,16.0
13816,13.03
13828,10.99
13840,10.79
13852,12.61
13864,15.55
13875,18.21
13886,19.35
13898,18.08
13910,14.65
13922,9.69
13934,5.44
13946,4.11
13958,6.65
13970,11.83
13982,17.2
13994,20.43
14006,19.51
14018,14.34
14030,5.56
14042,-3.52
14054,-9.15
14065,-9.03
14076,-4.1
14088,2.77
14100,8.66
14112,10.91
14124,10.18
14136,8.96
14148,14.22
14160,34.04
14172,74.26
14184,134.99
14196,211.97
14208,298.95
14220,388.23
14232,474.79
14244,534.86
14255,546.71
14266,502.8
14278,415.61
14290,305.83
14302,190.67
14314,86.7
14326,-9.91
14338,-101.52
14350,-188.32
14362,-267.09
14374,-335.22
14386,-385.98
14398,-417.73
14410,-431.75
14422,-430.38
14434,-417.24
14445,-394.15
14456,-363.59
14468,-326.46
14480,-283.41
14492,-236.06
14504,-188.92
14516,-147.11
14528,-114.33
14540,-92.86
14552,-81.1
14564,-76.12
14576,-73.38
14588,-68.76
14600,-60.24
14612,-49.49
14624,-39.72
14635,-33.81
14646,-33.63
14658,-38.23
14670,-45.46
14682,-52.15
14694,-55.45
14706,-53.83
14718,-47.91
14730,-39.07
14742,-28.23
14754,-15.46
14766,0.76
14778,22.39
14790,51.22
14802,87.79
14814,130.95
14825,177.2
14836,221.37
14848,257.58
14860,279.78
14872,283.22
14884,265.22
14896,226.35
14908,170.43
14920,103.86
14932,33.54
14944,-34.86
14956,-97.71
14968,-153.31
14980,-200.68
14992,-238.38
15004,-264.14
15015,-275.74
15026,-272.4
15038,-255.75
15050,-229.59
15062,-198.54
15074,-166.29
15086,-134.63
15098,-103.5
15110,-71.98
15122,-39.45
15134,-6.38
15146,25.82
15158,55.36
15170,80.84
15182,101.6
15194,117.79
15205,129.94
15216,138.44
15228,143.4
15240,144.82
15252,142.8
15264,137.73
15276,130.4
15288,121.54
15300,111.88
15312,101.85
15324,91.52
15336,80.66
15348,69.03
15360,56.49
15372,43.09
15384,29.2
15395,15.35
15406,2.24
15418,-9.46
15430,-19.19
15442,-26.55
15454,-31.46
15466,-34.09
15478,-34.86
15490,-34.2
15502,-32.53
15514,-30.08
15526,-26.96
15538,-23.15
15550,-18.56
15562,-13.04
15574,-6.53
15585,0.89
15596,8.93
15608,17.09
15620,24.74
15632,31.25
15644,36.22
15656,39.55
15668,41.46
15680,42.31
15692,42.31
15704,41.47
15716,39.57
15728,36.27
15740,31.4
15752,24.98
15764,17.27
15775,8.69
15786,-0.4
15798,-9.85
15810,-19.57
15822,-29.43
15834,-39.2
15846,-48.52
15858,-57.1
15870,-64.77
15882,-71.41
15894,-76.78
15906,-80.37
15918,-81.31
15930,-78.64
15942,-71.6
15954,-60.22
15965,-45.4
15976,-28.71
15988,-11.85
16000,4.03
16012,18.7
16024,32.66
16036,46.57
16048,60.51
16060,73.72
16072,84.75
16084,92.08
16096,94.86
16108,93.27
16120,88.36
16132,81.51
16144,73.75
16155,65.49
16166,56.68
16178,47.09
16190,36.59
16202,25.31
16214,13.46
16226,1.25
16238,-11.1
16250,-23.33
16262,-34.96
16274,-45.25
16286,-53.36
16298,-58.57
16310,-60.52
16322,-59.37
16334,-55.58
16345,-49.78
16356,-42.54
16368,-34.16
16380,-24.75
16392,-14.22
16404,-2.55
16416,10.18
16428,23.6
16440,37.14
16452,50.04
16464,61.47
16476,70.66
16488,77.06
16500,80.44
16512,80.76
16524,78.2
16535,72.93
16546,65.16
16558,55.16
16570,43.33
16582,30.31
16594,16.85
16606,3.74
16618,-8.5
16630,-19.55
16642,-29.34
16654,-37.91
16666,-45.22
16678,-51.14
16690,-55.4
16702,-57.76
16714,-58.08
16725,-56.31
16736,-52.56
16748,-47.01
16760,-39.98
16772,-31.82
16784,-22.96
16796,-13.71
16808,-4.45
16820,4.47
16832,12.63
16844,19.48
16856,24.56
16868,27.52
16880,28.36
16892,27.33
16904,24.92
16915,21.6
16926,17.71
16938,13.42
16950,8.8
16962,3.96
16974,-0.98
16986,-5.77
16998,-10.43
17010,-15.0
17022,-19.38
17034,-23.33
17046,-26.42
17058,-28.6
17070,-29.88
17082,-30.27
17094,-29.76
17105,-28.53
17116,-26.8
17128,-24.71
17140,-22.33
17152,-19.52
17164,-16.52
17176,-13.52
17188,-10.51
17200,-7.43
17212,-4.85
17224,-3.31
17236,-2.86
17248,-2.99
17260,-2.68
17272,-1.8
17284,-0.47
17295,1.4
17306,4.1
17318,6.56
17330,7.84
17342,8.08
17354,8.39
17366,10.72
17378,14.41
17390,18.2
17402,21.68
17414,25.1
17426,25.97
17438,22.14
17450,14.05
17462,4.75
17474,-0.31
17485,-0.69
17496,2.28
17508,8.08
17520,16.22
17532,21.12
17544,17.52
17556,4.79
17568,-12.44
17580,-25.29
17592,-33.19
17604,-39.96
17616,-49.74
17628,-68.34
17640,-108.62
17652,-181.68
17664,-289.32
17675,-421.83
17686,-559.23
17698,-687.92
17710,-798.17
17722,-880.34
17734,-887.58
17746,-793.93
17758,-613.36
17770,-393.33
17782,-206.74
17794,-53.65
17806,79.96
17818,205.16
17830,333.49
17842,465.23
17854,589.9
17865,696.39
17876,780.96
17888,847.1
17900,901.85
17912,941.76
17924,932.21
17936,856.69
17948,727.14
17960,572.99
17972,422.04
17984,289.13
17996,180.87
18008,88.88
18020,3.06
18032,-82.03
18044,-162.67
18055,-235.68
18066,-298.46
18078,-354.12
18090,-405.56
18102,-451.63
18114,-486.8
18126,-507.0
18138,-510.19
18150,-492.49
18162,-453.27
18174,-397.86
18186,-336.31
18198,-278.13
18210,-229.28
18222,-191.74
18234,-165.82
18245,-151.13
18256,-144.21
18268,-141.39
18280,-139.9
18292,-138.17
18304,-133.7
18316,-122.94
18328,-102.54
18340,-70.9
18352,-29.0
18364,21.3
18376,76.8
18388,133.51
18400,186.62
18412,232.05
18424,267.12
18435,290.8
18446,303.81
18458,307.69
18470,304.55
18482,296.21
18494,283.81
18506,267.66
18518,247.77
18530,224.32
18542,197.8
18554,169.19
18566,139.86
18578,111.22
18590,84.62
18602,61.17
18614,41.4
18625,25.31
18636,12.52
18648,2.52
18660,-5.16
18672,-10.83
18684,-14.77
18696,-17.33
18708,-18.91
18720,-20.04
18732,-21.12
18744,-22.41
18756,-23.93
18768,-25.61
18780,-27.39
18792,-29.28
18804,-31.34
18815,-33.59
18826,-35.89
18838,-37.9
18850,-39.22
18862,-39.5
18874,-38.6
18886,-36.55
18898,-33.51
18910,-29.62
18922,-25.0
18934,-19.79
18946,-14.11
18958,-8.19
18970,-2.27
18982,3.34
18994,8.46
19005,12.98
19016,16.86
19028,20.12
19040,22.83
19052,25.05
19064,26.88
19076,28.33
19088,29.43
19100,30.09
19112,30.21
19124,29.67
19136,28.51
19148,26.92
19160,25.29
19172,24.09
19184,23.65
19195,24.04
19206,24.92
19218,25.64
19230,25.33
19242,23.2
19254,18.63
19266,11.47
19278,2.08
19290,-8.64
19302,-19.48
19314,-29.3
19326,-37.37
19338,-43.67
19350,-48.74
19362,-53.45
19374,-58.54
19385,-64.12
19396,-69.58
19408,-73.61
19420,-74.63
19432,-71.16
19444,-62.37
19456,-48.34
19468,-30.18
19480,-9.78
19492,10.66
19504,29.17
19516,44.52
19528,56.41
19540,65.26
19552,71.84
19564,76.89
19575,80.9
19586,84.09
19598,86.64
19610,88.61
19622,90.23
19634,91.65
19646,92.99
19658,94.26
19670,95.4
19682,96.42
19694,97.24
19706,97.85
19718,98.14
19730,98.12
19742,97.94
19754,97.97
19765,98.85
19776,101.2
19788,105.49
19800,111.71
19812,119.46
19824,128.01
19836,136.59
19848,144.67
19860,151.91
19872,158.35
19884,164.08
19896,169.2
19908,173.54
19920,176.43
19932,176.2
19944,170.02
19955,154.22
19966,125.35
19978,81.84
19990,25.06
20002,-40.43
20014,-108.24
20026,-172.02
20038,-227.22
20050,-271.88
20062,-306.04
20074,-330.43
20086,-345.27
20098,-350.13
20110,-344.45
20122,-328.41
20134,-302.96
20145,-269.58
20156,-230.1
20168,-186.54
20180,-141.52
20192,-98.15
20204,-59.71
20216,-28.51
20228,-5.06
20240,11.95
20252,25.13
20264,36.71
20276,47.54
20288,56.84
20300,62.82
20312,63.5
20324,57.33
20335,43.3
20346,20.82
20358,-9.71
20370,-47.15
20382,-89.38
20394,-133.42
20406,-175.46
20418,-211.66
20430,-238.7
20442,-254.43
20454,-258.01
20466,-249.0
20478,-228.46
20490,-199.07
20502,-164.72
20514,-129.14
20525,-95.27
20536,-64.65
20548,-37.69
20560,-14.04
20572,8.19
20584,30.26
20596,52.1
20608,72.67
20620,91.38
20632,108.16
20644,123.79
20656,139.04
20668,154.61
20680,172.73
20692,195.13
20704,222.03
20715,251.8
20726,282.49
20738,311.56
20750,337.26
20762,358.41
20774,362.3
20786,340.69
20798,294.72
20810,233.59
20822,166.17
20834,97.36
20846,28.79
20858,-36.98
20870,-99.03
20882,-154.1
20894,-196.98
20905,-224.76
20916,-238.92
20928,-245.06
20940,-243.09
20952,-236.0
20964,-226.24
20976,-215.22
20988,-203.19
