seconds,BVP
8,10.06
20,14.22
32,18.28
44,21.16
56,23.22
68,25.75
80,30.18
92,36.88
104,44.43
116,50.67
128,53.13
140,50.3
152,41.38
164,26.71
176,7.91
187,-12.15
198,-30.41
210,-45.03
222,-54.81
234,-59.42
246,-59.13
258,-54.5
270,-45.74
282,-32.54
294,-14.45
306,9.14
318,34.86
330,58.19
342,74.95
354,82.88
366,82.01
377,74.18
388,62.47
400,50.51
412,41.41
424,36.52
436,37.58
448,46.32
460,64.16
472,89.59
484,116.3
496,135.62
508,142.3
520,141.15
532,135.05
544,125.91
556,115.02
567,101.84
578,86.57
590,69.19
602,49.53
614,28.33
626,7.59
638,-10.12
650,-21.93
662,-30.7
674,-38.51
686,-47.46
698,-56.73
710,-66.89
722,-78.6
734,-92.49
746,-109.97
757,-131.88
768,-157.37
780,-183.47
792,-206.72
804,-224.07
816,-233.52
828,-233.71
840,-224.5
852,-207.62
864,-185.66
876,-160.28
888,-131.54
900,-99.13
912,-63.05
924,-24.03
936,16.93
947,58.5
958,100.52
970,137.86
982,165.13
994,180.12
1006,183.33
1018,175.74
1030,158.15
1042,132.35
1054,102.01
1066,72.23
1078,47.34
1090,29.98
1102,21.15
1114,19.5
1126,21.9
1137,25.03
1148,26.78
1160,26.59
1172,24.75
1184,21.24
1196,17.74
1208,14.91
1220,12.58
1232,10.15
1244,7.15
1256,3.7
1268,0.19
1280,-3.0
1292,-5.95
1304,-8.39
1316,-9.95
1327,-10.05
1338,-8.07
1350,-3.41
1362,4.23
1374,14.45
1386,26.23
1398,37.99
1410,48.4
1422,56.43
1434,61.53
1446,63.43
1458,62.18
1470,58.01
1482,51.44
1494,43.33
1506,34.77
1517,26.96
1528,20.65
1540,15.9
1552,11.98
1564,7.75
1576,2.13
1588,-5.43
1600,-14.75
1612,-25.15
1624,-35.65
1636,-45.46
1648,-54.16
1660,-61.62
1672,-67.92
1684,-73.15
1696,-77.34
1707,-80.4
1718,-82.19
1730,-82.67
1742,-81.99
1754,-80.58
1766,-78.99
1778,-77.79
1790,-77.37
1802,-77.79
1814,-78.79
1826,-79.81
1838,-80.06
1850,-78.69
1862,-74.91
1874,-68.24
1886,-58.65
1897,-46.63
1908,-33.1
1920,-19.26
1932,-6.21
1944,5.27
1956,14.82
1968,22.41
1980,28.28
1992,32.71
2004,35.95
2016,38.26
2028,39.81
2040,40.78
2052,41.26
2064,41.29
2076,40.84
2087,39.88
2098,38.42
2110,36.55
2122,34.45
2134,32.36
2146,30.53
2158,29.19
2170,28.46
2182,28.3
2194,28.46
2206,28.58
2218,28.27
2230,27.21
2242,25.33
2254,22.73
2266,19.71
2277,16.55
2288,13.42
2300,10.35
2312,7.18
2324,3.66
2336,-0.48
2348,-5.48
2360,-11.45
2372,-18.24
2384,-25.36
2396,-31.95
2408,-36.86
2420,-39.02
2432,-37.69
2444,-32.86
2456,-25.28
2467,-16.25
2478,-7.22
2490,0.68
2502,6.92
2514,11.5
2526,14.77
2538,17.1
2550,18.74
2562,19.76
2574,20.18
2586,20.09
2598,19.64
2610,19.02
2622,18.36
2634,17.68
2646,16.9
2657,15.94
2668,14.71
2680,13.3
2692,11.87
2704,10.7
2716,10.05
2728,10.03
2740,10.6
2752,11.45
2764,12.2
2776,12.44
2788,11.87
2800,10.33
2812,7.76
2824,4.25
2836,-0.03
2847,-4.8
2858,-9.72
2870,-14.49
2882,-19.02
2894,-23.49
2906,-28.31
2918,-33.87
2930,-40.27
2942,-47.14
2954,-53.64
2966,-58.61
2978,-60.87
2990,-59.54
3002,-54.24
3014,-45.27
3026,-33.57
3037,-20.51
3048,-7.64
3060,3.71
3072,12.67
3084,18.98
3096,22.9
3108,24.96
3120,25.67
3132,25.31
3144,23.86
3156,21.06
3168,16.65
3180,10.58
3192,3.15
3204,-4.93
3216,-12.67
3227,-19.09
3238,-23.41
3250,-25.21
3262,-24.54
3274,-21.8
3286,-17.75
3298,-13.31
3310,-9.4
3322,-6.69
3334,-5.39
3346,-5.15
3358,-5.18
3370,-4.61
3382,-2.78
3394,0.45
3406,4.64
3417,8.97
3428,12.41
3440,14.0
3452,13.01
3464,9.02
3476,2.09
3488,-7.17
3500,-17.58
3512,-27.51
3524,-35.27
3536,-39.49
3548,-39.49
3560,-35.39
3572,-28.07
3584,-18.79
3596,-8.91
3607,0.38
3618,8.28
3630,14.32
3642,18.36
3654,20.55
3666,21.23
3678,20.85
3690,19.84
3702,18.55
3714,17.14
3726,15.62
3738,13.9
3750,11.85
3762,9.41
3774,6.59
3786,3.52
3797,0.42
3808,-2.42
3820,-4.71
3832,-6.27
3844,-7.05
3856,-7.24
3868,-7.16
3880,-7.14
3892,-7.53
3904,-8.49
3916,-10.05
3928,-12.0
3940,-14.11
3952,-16.16
3964,-18.12
3976,-20.1
3987,-22.34
3998,-25.19
4010,-28.93
4022,-33.67
4034,-39.16
4046,-44.76
4058,-49.51
4070,-52.36
4082,-52.39
4094,-49.02
4106,-42.25
4118,-32.71
4130,-21.58
4142,-10.1
4154,0.65
4166,9.85
4177,17.12
4188,22.45
4200,26.09
4212,28.4
4224,29.65
4236,29.99
4248,29.97
4260,30.13
4272,30.7
4284,31.47
4296,31.95
4308,31.75
4320,30.67
4332,28.75
4344,26.15
4356,24.02
4367,23.44
4378,24.74
4390,27.27
4402,29.94
4414,31.9
4426,32.72
4438,32.28
4450,30.59
4462,29.14
4474,29.54
4486,32.41
4498,37.01
4510,42.03
4522,46.55
4534,50.42
4546,54.04
4557,58.03
4568,64.95
4580,77.21
4592,95.57
4604,118.66
4616,144.2
4628,170.31
4640,195.97
4652,220.8
4664,231.43
4676,218.41
4688,181.23
4700,129.44
4712,75.99
4724,29.98
4736,-5.36
4747,-30.7
4758,-48.33
4770,-57.9
4782,-60.6
4794,-56.98
4806,-48.37
4818,-37.57
4830,-27.46
4842,-19.8
4854,-14.91
4866,-12.02
4878,-12.6
4890,-15.22
4902,-17.83
4914,-19.18
4926,-19.25
4937,-18.09
4948,-15.26
4960,-9.99
4972,-1.68
4984,9.46
4996,23.69
5008,40.57
5020,58.7
5032,73.12
5044,79.46
5056,76.13
5068,65.31
5080,51.42
5092,38.4
5104,29.39
5116,25.5
5127,26.39
5138,30.56
5150,36.61
5162,43.57
5174,49.97
5186,55.77
5198,60.74
5210,64.82
5222,67.28
5234,67.59
5246,65.37
5258,60.98
5270,55.08
5282,48.12
5294,39.83
5306,28.4
5317,15.64
5328,1.26
5340,-15.33
5352,-34.55
5364,-56.26
5376,-79.75
5388,-103.94
5400,-127.38
5412,-148.74
5424,-166.73
5436,-181.23
5448,-192.67
5460,-202.08
5472,-210.57
5484,-218.95
5496,-227.46
5507,-235.65
5518,-242.89
5530,-248.67
5542,-253.59
5554,-258.69
5566,-265.18
5578,-273.79
5590,-284.53
5602,-296.7
5614,-309.0
5626,-319.78
5638,-327.02
5650,-328.77
5662,-323.14
5674,-308.78
5686,-285.23
5697,-253.23
5708,-214.44
5720,-170.8
5732,-123.77
5744,-74.36
5756,-23.93
5768,25.1
5780,68.93
5792,103.68
5804,126.5
5816,136.94
5828,137.5
5840,132.89
5852,128.38
5864,127.68
5876,131.89
5887,139.9
5898,150.61
5910,163.26
5922,177.27
5934,191.69
5946,204.98
5958,215.09
5970,220.0
5982,218.44
5994,210.67
6006,200.09
6018,190.82
6030,185.52
6042,184.06
6054,184.09
6066,182.54
6077,176.89
6088,166.04
6100,150.72
6112,135.32
6124,124.81
6136,122.47
6148,128.9
6160,142.91
6172,162.73
6184,186.17
6196,210.23
6208,218.51
6220,198.73
6232,149.74
6244,83.54
6256,16.98
6267,-36.66
6278,-70.69
6290,-84.95
6302,-84.65
6314,-77.81
6326,-70.31
6338,-65.44
6350,-64.07
6362,-65.72
6374,-68.91
6386,-71.84
6398,-73.42
6410,-73.85
6422,-74.42
6434,-75.56
6446,-76.56
6457,-76.69
6468,-75.79
6480,-73.54
6492,-69.08
6504,-61.38
6516,-50.0
6528,-35.43
6540,-18.08
6552,1.12
6564,20.65
6576,38.47
6588,52.8
6600,62.48
6612,66.76
6624,65.14
6636,57.54
6647,45.08
6658,29.02
6670,11.78
6682,-4.4
6694,-18.14
6706,-29.34
6718,-39.26
6730,-49.86
6742,-62.69
6754,-77.73
6766,-93.19
6778,-106.17
6790,-113.98
6802,-115.24
6814,-110.38
6826,-101.43
6837,-91.25
6848,-82.43
6860,-76.54
6872,-73.82
6884,-73.26
6896,-73.32
6908,-72.48
6920,-69.61
6932,-64.22
6944,-56.36
6956,-46.59
6968,-35.79
6980,-24.98
6992,-15.09
7004,-6.87
7016,-0.66
7027,3.65
7038,6.59
7050,8.85
7062,11.06
7074,13.55
7086,16.33
7098,19.23
7110,22.02
7122,24.57
7134,26.86
7146,28.88
7158,30.56
7170,31.77
7182,32.42
7194,32.59
7206,32.56
7217,32.7
7228,33.26
7240,34.27
7252,35.43
7264,36.22
7276,36.14
7288,34.81
7300,32.14
7312,28.31
7324,23.67
7336,18.62
7348,13.52
7360,8.59
7372,3.87
7384,-0.76
7396,-5.5
7407,-10.57
7418,-16.14
7430,-22.25
7442,-28.87
7454,-35.76
7466,-42.57
7478,-48.74
7490,-53.51
7502,-56.03
7514,-55.53
7526,-51.63
7538,-44.54
7550,-35.18
7562,-24.9
7574,-15.14
7586,-6.95
7597,-0.66
7608,4.03
7620,7.8
7632,11.27
7644,14.79
7656,18.31
7668,21.62
7680,24.44
7692,26.65
7704,28.2
7716,29.13
7728,29.52
7740,29.46
7752,29.15
7764,28.82
7776,28.68
7787,28.83
7798,29.21
7810,29.58
7822,29.64
7834,29.12
7846,27.93
7858,26.2
7870,24.2
7882,22.13
7894,20.05
7906,17.82
7918,15.15
7930,11.77
7942,7.49
7954,2.43
7966,-3.0
7977,-8.26
7988,-12.92
8000,-16.83
8012,-20.19
8024,-23.43
8036,-27.07
8048,-31.48
8060,-36.75
8072,-42.38
8084,-47.5
8096,-51.01
8108,-51.88
8120,-49.41
8132,-43.37
8144,-34.12
8156,-22.64
8167,-10.25
8178,2.18
8190,13.99
8202,24.65
8214,33.7
8226,40.75
8238,45.69
8250,48.72
8262,50.23
8274,50.65
8286,51.45
8298,53.78
8310,57.95
8322,63.19
8334,68.09
8346,71.47
8357,72.98
8368,72.96
8380,72.2
8392,73.17
8404,77.7
8416,85.89
8428,95.96
8440,105.11
8452,111.21
8464,113.83
8476,113.96
8488,113.25
8500,115.3
8512,122.42
8524,134.6
8536,149.72
8547,165.03
8558,179.05
8570,192.36
8582,205.79
8594,205.39
8606,180.27
8618,127.43
8630,55.23
8642,-21.79
8654,-91.55
8666,-148.13
8678,-190.51
8690,-220.65
8702,-240.65
8714,-248.55
8726,-241.02
8737,-217.12
8748,-178.62
8760,-131.48
8772,-83.96
8784,-42.85
8796,-11.69
8808,10.06
8820,27.28
8832,44.35
8844,62.09
8856,77.1
8868,83.86
8880,74.15
8892,46.62
8904,5.89
8916,-39.33
8927,-78.44
8938,-103.5
8950,-111.46
8962,-104.32
8974,-87.49
8986,-67.2
8998,-47.78
9010,-31.43
9022,-18.32
9034,-7.05
9046,3.71
9058,14.26
9070,23.94
9082,31.43
9094,35.43
9106,33.85
9117,25.35
9128,10.95
9140,-5.53
9152,-19.9
9164,-29.93
9176,-35.9
9188,-39.47
9200,-42.47
9212,-45.35
9224,-47.42
9236,-47.02
9248,-43.01
9260,-36.19
9272,-29.33
9284,-26.49
9296,-29.75
9307,-39.32
9318,-53.37
9330,-68.94
9342,-82.47
9354,-90.64
9366,-91.38
9378,-84.19
9390,-69.63
9402,-48.67
9414,-22.99
9426,7.74
9438,39.09
9450,66.73
9462,89.26
9474,109.27
9486,127.77
9497,142.95
9508,151.38
9520,149.51
9532,135.62
9544,111.03
9556,77.36
9568,39.97
9580,4.34
9592,-22.82
9604,-36.75
9616,-37.04
9628,-27.58
9640,-16.59
9652,-7.13
9664,-0.02
9676,4.71
9687,6.32
9698,3.69
9710,-4.72
9722,-19.54
9734,-40.34
9746,-65.59
9758,-92.87
9770,-119.89
9782,-144.16
9794,-163.74
9806,-177.73
9818,-185.02
9830,-184.17
9842,-174.13
9854,-154.6
9866,-126.18
9877,-90.97
9888,-51.76
9900,-7.96
9912,34.87
9924,69.69
9936,92.6
9948,104.08
9960,106.98
9972,104.0
9984,96.2
9996,84.0
10008,67.84
10020,48.39
10032,27.93
10044,9.53
10056,-5.14
10067,-15.46
10078,-21.44
10090,-23.68
10102,-22.74
10114,-19.15
10126,-13.79
10138,-6.81
10150,3.06
10162,14.93
10174,27.42
10186,39.18
10198,49.62
10210,58.93
10222,67.08
10234,73.56
10246,78.15
10257,80.84
10268,81.63
10280,81.0
10292,79.91
10304,77.99
10316,75.64
10328,72.93
10340,69.15
10352,63.01
10364,52.88
10376,37.4
10388,16.79
10400,-6.63
10412,-28.78
10424,-44.71
10436,-50.65
10447,-45.42
10458,-30.83
10470,-10.93
10482,9.45
10494,26.76
10506,39.49
10518,47.99
10530,53.62
10542,57.41
10554,59.62
10566,59.92
10578,58.06
10590,54.37
10602,49.85
10614,45.68
10626,42.52
10637,40.36
10648,38.28
10660,35.11
10672,29.91
10684,22.46
10696,13.33
10708,3.62
10720,-5.52
10732,-13.28
10744,-19.43
10756,-24.32
10768,-28.61
10780,-32.87
10792,-37.35
10804,-41.88
10816,-45.94
10827,-49.0
10838,-50.64
10850,-50.76
10862,-49.56
10874,-47.4
10886,-44.57
10898,-41.18
10910,-37.18
10922,-32.49
10934,-27.2
10946,-21.56
10958,-15.91
10970,-10.5
10982,-5.32
10994,-0.21
11006,4.96
11017,10.04
11028,14.51
11040,17.62
11052,18.67
11064,17.36
11076,14.01
11088,9.48
11100,5.05
11112,2.03
11124,1.41
11136,3.61
11148,8.35
11160,14.69
11172,21.17
11184,26.21
11196,28.49
11207,27.32
11218,22.71
11230,15.33
11242,6.14
11254,-3.94
11266,-14.28
11278,-24.51
11290,-34.42
11302,-43.73
11314,-52.03
11326,-58.81
11338,-63.74
11350,-66.77
11362,-68.17
11374,-68.39
11386,-67.93
11397,-67.12
11408,-66.06
11420,-64.81
11432,-63.4
11444,-62.02
11456,-60.94
11468,-60.52
11480,-61.04
11492,-62.54
11504,-64.85
11516,-67.54
11528,-70.18
11540,-72.38
11552,-73.96
11564,-74.95
11576,-75.5
11587,-75.89
11598,-76.38
11610,-77.26
11622,-78.82
11634,-81.2
11646,-84.22
11658,-87.2
11670,-88.99
11682,-88.17
11694,-83.6
11706,-74.76
11718,-62.1
11730,-46.86
11742,-30.71
11754,-15.27
11766,-1.67
11777,9.5
11788,18.21
11800,24.69
11812,29.33
11824,32.54
11836,34.67
11848,36.06
11860,36.89
11872,37.29
11884,37.27
11896,36.9
11908,36.25
11920,35.5
11932,34.91
11944,34.75
11956,35.26
11967,36.55
11978,38.58
11990,41.15
12002,43.95
12014,46.6
12026,48.81
12038,50.41
12050,51.36
12062,51.71
12074,51.48
12086,50.63
12098,49.02
12110,46.54
12122,43.22
12134,39.18
12146,34.64
12157,29.81
12168,24.78
12180,19.53
12192,13.91
12204,7.69
12216,0.59
12228,-7.6
12240,-16.89
12252,-26.93
12264,-36.93
12276,-45.67
12288,-51.82
12300,-54.26
12312,-52.46
12324,-46.69
12336,-37.94
12347,-27.64
12358,-17.26
12370,-7.94
12382,-0.28
12394,5.57
12406,9.86
12418,13.0
12430,15.39
12442,17.26
12454,18.74
12466,19.85
12478,20.67
12490,21.28
12502,21.77
12514,22.17
12526,22.43
12537,22.47
12548,22.29
12560,22.01
12572,21.89
12584,22.17
12596,22.96
12608,24.12
12620,25.3
12632,26.07
12644,26.11
12656,25.34
12668,23.84
12680,21.83
12692,19.47
12704,16.79
12716,13.66
12727,9.91
12738,5.4
12750,0.19
12762,-5.45
12774,-11.17
12786,-16.65
12798,-21.76
12810,-26.62
12822,-31.49
12834,-36.7
12846,-42.56
12858,-49.25
12870,-56.83
12882,-65.09
12894,-73.46
12906,-80.93
12917,-86.1
12928,-87.55
12940,-84.26
12952,-76.05
12964,-63.73
12976,-48.88
12988,-33.35
13000,-18.68
13012,-5.83
13024,4.95
13036,13.88
13048,21.35
13060,27.72
13072,33.17
13084,37.75
13096,41.46
13107,44.32
13118,46.39
13130,47.79
13142,48.6
13154,48.87
13166,48.68
13178,48.1
13190,47.33
13202,46.6
13214,46.14
13226,46.11
13238,46.47
13250,47.01
13262,47.32
13274,46.97
13286,45.6
13297,43.07
13308,39.53
13320,35.33
13332,30.98
13344,26.95
13356,23.52
13368,20.62
13380,17.89
13392,14.8
13404,10.94
13416,6.19
13428,0.8
13440,-4.7
13452,-9.8
13464,-14.24
13476,-18.02
13487,-21.4
13498,-24.82
13510,-28.67
13522,-33.28
13534,-38.8
13546,-45.13
13558,-51.69
13570,-57.49
13582,-61.15
13594,-61.33
13606,-57.17
13618,-48.67
13630,-36.75
13642,-23.03
13654,-9.29
13666,3.0
13677,13.0
13688,20.57
13700,26.01
13712,29.81
13724,32.44
13736,34.2
13748,35.26
13760,35.69
13772,35.57
13784,34.98
13796,34.01
13808,32.72
13820,31.21
13832,29.59
13844,28.05
13856,26.77
13867,25.92
13878,25.54
13890,25.5
13902,25.53
13914,25.28
13926,24.47
13938,22.95
13950,20.74
13962,17.99
13974,14.91
13986,11.63
13998,8.2
14010,4.59
14022,0.76
14034,-3.28
14046,-7.38
14057,-11.38
14068,-15.07
14080,-18.4
14092,-21.45
14104,-24.41
14116,-27.61
14128,-31.34
14140,-35.78
14152,-40.83
14164,-45.98
14176,-50.33
14188,-52.73
14200,-52.09
14212,-47.72
14224,-39.7
14236,-28.86
14247,-16.63
14258,-4.57
14270,6.03
14282,14.44
14294,20.5
14306,24.52
14318,26.95
14330,28.27
14342,28.86
14354,28.99
14366,28.93
14378,28.82
14390,28.73
14402,28.61
14414,28.34
14426,27.77
14437,26.87
14448,25.75
14460,24.69
14472,23.93
14484,23.61
14496,23.64
14508,23.75
14520,23.6
14532,22.95
14544,21.72
14556,20.02
14568,18.0
14580,15.78
14592,13.38
14604,10.73
14616,7.74
14627,4.36
14638,0.59
14650,-3.49
14662,-7.74
14674,-12.04
14686,-16.2
14698,-20.08
14710,-23.58
14722,-26.7
14734,-29.65
14746,-32.79
14758,-36.49
14770,-40.96
14782,-46.04
14794,-51.02
14806,-54.77
14817,-55.98
14828,-53.63
14840,-47.34
14852,-37.55
14864,-25.44
14876,-12.56
14888,-0.36
14900,10.13
14912,18.52
14924,24.9
14936,29.71
14948,33.43
14960,36.43
14972,38.88
14984,40.78
14996,42.05
15007,42.69
15018,42.73
15030,42.3
15042,41.58
15054,40.65
15066,39.55
15078,38.31
15090,36.93
15102,35.51
15114,34.19
15126,33.09
15138,32.24
15150,31.55
15162,30.83
15174,29.85
15186,28.4
15197,26.38
15208,23.8
15220,20.75
15232,17.45
15244,14.1
15256,10.88
15268,7.85
15280,4.9
15292,1.86
15304,-1.42
15316,-4.99
15328,-8.72
15340,-12.38
15352,-15.77
15364,-18.79
15376,-21.55
15387,-24.28
15398,-27.2
15410,-30.54
15422,-34.43
15434,-38.89
15446,-43.82
15458,-48.79
15470,-53.1
15482,-55.73
15494,-55.62
15506,-52.01
15518,-44.78
15530,-34.61
15542,-22.76
15554,-10.77
15566,0.04
15577,8.92
15588,15.7
15600,20.72
15612,24.49
15624,27.46
15636,29.91
15648,31.95
15660,33.59
15672,34.85
15684,35.73
15696,36.32
15708,36.63
15720,36.67
15732,36.4
15744,35.84
15756,35.06
15767,34.18
15778,33.35
15790,32.67
15802,32.12
15814,31.62
15826,31.06
15838,30.29
15850,29.19
15862,27.66
15874,25.65
15886,23.12
15898,20.11
15910,16.71
15922,13.08
15934,9.44
15946,5.98
15957,2.8
15968,-0.06
15980,-2.64
15992,-5.08
16004,-7.55
16016,-10.18
16028,-13.08
16040,-16.23
16052,-19.5
16064,-22.74
16076,-25.77
16088,-28.53
16100,-31.08
16112,-33.64
16124,-36.5
16136,-39.97
16147,-44.17
16158,-48.89
16170,-53.46
16182,-56.89
16194,-58.01
16206,-55.9
16218,-50.2
16230,-41.26
16242,-30.1
16254,-18.06
16266,-6.47
16278,3.69
16290,11.93
16302,18.13
16314,22.5
16326,25.36
16337,27.06
16348,27.96
16360,28.38
16372,28.59
16384,28.74
16396,28.87
16408,28.94
16420,28.83
16432,28.45
16444,27.72
16456,26.66
16468,25.37
16480,24.03
16492,22.82
16504,21.91
16516,21.36
16527,21.1
16538,20.95
16550,20.63
16562,19.87
16574,18.47
16586,16.39
16598,13.7
16610,10.63
16622,7.41
16634,4.25
16646,1.23
16658,-1.7
16670,-4.64
16682,-7.75
16694,-11.1
16706,-14.6
16717,-18.08
16728,-21.3
16740,-24.08
16752,-26.43
16764,-28.54
16776,-30.77
16788,-33.47
16800,-36.92
16812,-41.14
16824,-45.85
16836,-50.42
16848,-53.93
16860,-55.37
16872,-53.89
16884,-49.08
16896,-41.17
16907,-30.95
16918,-19.67
16930,-8.55
16942,1.37
16954,9.53
16966,15.81
16978,20.41
16990,23.64
17002,25.82
17014,27.2
17026,27.98
17038,28.37
17050,28.49
17062,28.41
17074,28.1
17086,27.45
17097,26.38
17108,24.91
17120,23.19
17132,21.51
17144,20.18
17156,19.37
17168,19.04
17180,18.98
17192,18.84
17204,18.34
17216,17.32
17228,15.78
17240,13.77
17252,11.37
17264,8.66
17276,5.65
17287,2.41
17298,-1.04
17310,-4.6
17322,-8.19
17334,-11.71
17346,-15.09
17358,-18.29
17370,-21.33
17382,-24.27
17394,-27.26
17406,-30.55
17418,-34.32
17430,-38.71
17442,-43.53
17454,-48.26
17466,-52.01
17477,-53.71
17488,-52.44
17500,-47.73
17512,-39.82
17524,-29.54
17536,-18.17
17548,-7.02
17560,2.95
17572,11.2
17584,17.71
17596,22.72
17608,26.58
17620,29.59
17632,31.89
17644,33.58
17656,34.69
17667,35.28
17678,35.42
17690,35.13
17702,34.42
17714,33.29
17726,31.76
17738,30.0
17750,28.26
17762,26.85
17774,25.95
17786,25.56
17798,25.42
17810,25.11
17822,24.25
17834,22.59
17846,20.14
17857,17.12
17868,13.88
17880,10.73
17892,7.87
17904,5.3
17916,2.87
17928,0.35
17940,-2.51
17952,-5.87
17964,-9.73
17976,-13.91
17988,-18.12
18000,-22.05
18012,-25.42
18024,-28.18
18036,-30.5
18047,-32.73
18058,-35.31
18070,-38.62
18082,-42.82
18094,-47.7
18106,-52.69
18118,-56.85
18130,-59.1
18142,-58.44
18154,-54.32
18166,-46.78
18178,-36.54
18190,-24.82
18202,-12.96
18214,-2.11
18226,7.0
18237,14.16
18248,19.53
18260,23.44
18272,26.26
18284,28.27
18296,29.62
18308,30.46
18320,30.9
18332,31.05
18344,31.01
18356,30.84
18368,30.53
18380,30.04
18392,29.32
18404,28.35
18416,27.2
18427,26.02
18438,25.02
18450,24.34
18462,24.03
18474,23.93
18486,23.77
18498,23.22
18510,22.04
18522,20.19
18534,17.79
18546,15.06
18558,12.25
18570,9.53
18582,6.96
18594,4.52
18606,2.13
18617,-0.36
18628,-3.08
18640,-6.17
18652,-9.65
18664,-13.39
18676,-17.15
18688,-20.67
18700,-23.73
18712,-26.3
18724,-28.57
18736,-30.84
18748,-33.5
18760,-36.83
18772,-40.97
18784,-45.76
18796,-50.67
18807,-54.86
18818,-57.2
18830,-56.67
18842,-52.59
18854,-44.96
18866,-34.5
18878,-22.5
18890,-10.45
18902,0.36
18914,9.16
18926,15.75
18938,20.4
18950,23.62
18962,25.91
18974,27.7
18986,29.21
18997,30.54
19008,31.72
19020,32.71
19032,33.5
19044,34.02
19056,34.26
19068,34.15
19080,33.69
19092,32.93
19104,32.02
19116,31.19
19128,30.62
19140,30.41
19152,30.47
19164,30.49
19176,30.09
19187,28.87
19198,26.7
19210,23.67
19222,20.12
19234,16.46
19246,12.99
19258,9.77
19270,6.62
19282,3.22
19294,-0.65
19306,-4.98
19318,-9.48
19330,-13.74
19342,-17.38
19354,-20.17
19366,-22.15
19377,-23.52
19388,-24.54
19400,-25.5
19412,-26.62
19424,-28.15
19436,-30.24
19448,-32.86
19460,-35.62
19472,-37.69
19484,-37.97
19496,-35.39
19508,-29.38
19520,-20.12
19532,-8.48
19544,4.2
19556,16.6
19567,27.72
19578,37.06
19590,44.52
19602,50.24
19614,54.4
19626,57.15
19638,58.59
19650,58.82
19662,57.9
19674,55.91
19686,52.91
19698,48.96
19710,44.1
19722,38.47
19734,32.18
19746,25.36
19757,18.12
19768,10.56
19780,2.77
19792,-5.09
19804,-12.88
19816,-20.4
19828,-27.45
19840,-33.79
19852,-39.15
19864,-43.24
19876,-45.82
19888,-46.79
19900,-46.25
19912,-44.53
19924,-42.1
19936,-39.42
19947,-36.83
19958,-34.48
19970,-32.31
19982,-30.18
19994,-28.04
20006,-26.05
20018,-24.58
20030,-24.11
20042,-24.99
20054,-27.16
20066,-30.03
20078,-32.51
20090,-33.39
20102,-31.64
20114,-26.9
20126,-19.54
20137,-10.56
20148,-1.23
20160,7.27
20172,14.15
20184,19.02
20196,21.79
20208,22.55
20220,21.51
20232,19.02
20244,15.56
20256,11.76
20268,8.18
20280,5.25
20292,3.1
20304,1.59
20316,0.44
20327,-0.57
20338,-1.56
20350,-2.5
20362,-3.28
20374,-3.78
20386,-3.95
20398,-3.83
20410,-3.5
20422,-3.13
20434,-2.87
20446,-2.86
20458,-3.14
20470,-3.66
20482,-4.28
20494,-4.9
20506,-5.47
20517,-6.02
20528,-6.67
20540,-7.54
20552,-8.71
20564,-10.19
20576,-11.93
20588,-13.86
20600,-15.87
20612,-17.85
20624,-19.68
20636,-21.27
20648,-22.65
20660,-24.0
20672,-25.7
20684,-28.19
20696,-31.74
20707,-36.24
20718,-41.03
20730,-45.0
20742,-46.81
20754,-45.39
20766,-40.25
20778,-31.7
20790,-20.75
20802,-8.83
20814,2.67
20826,12.71
20838,20.78
20850,26.84
20862,31.18
20874,34.17
20886,36.18
20897,37.46
20908,38.18
20920,38.48
20932,38.45
20944,38.19
20956,37.69
20968,36.9
20980,35.72
20992,34.06
