seconds,BVP
0,1.11
12,-1.43
24,-3.66
36,-5.29
48,-6.33
60,-7.08
72,-8.03
84,-9.68
96,-12.39
108,-16.21
120,-20.84
132,-25.59
144,-29.55
156,-31.81
168,-31.68
179,-28.96
190,-23.94
202,-17.34
214,-10.03
226,-2.83
238,3.69
250,9.2
262,13.56
274,16.71
286,18.61
298,19.24
310,18.72
322,17.33
334,15.5
346,13.67
358,12.22
369,11.28
380,10.76
392,10.45
404,10.12
416,9.71
428,9.27
440,8.94
452,8.85
464,9.0
476,9.27
488,9.44
500,9.23
512,8.29
524,6.34
536,3.24
548,-0.9
559,-5.68
570,-10.51
582,-14.75
594,-17.92
606,-19.84
618,-20.67
630,-20.75
642,-20.5
654,-20.27
666,-20.23
678,-20.38
690,-20.59
702,-20.71
714,-20.63
726,-20.45
738,-20.38
749,-20.71
760,-21.66
772,-23.24
784,-25.33
796,-27.74
808,-30.36
820,-33.27
832,-36.67
844,-40.76
856,-45.62
868,-51.21
880,-57.36
892,-63.91
904,-70.66
916,-77.34
928,-83.53
939,-88.66
950,-92.08
962,-93.32
974,-92.26
986,-89.2
998,-84.8
1010,-79.76
1022,-74.68
1034,-69.91
1046,-65.57
1058,-61.64
1070,-58.07
1082,-54.77
1094,-51.53
1106,-47.96
1118,-43.54
1129,-37.78
1140,-30.47
1152,-21.81
1164,-12.4
1176,-3.01
1188,5.64
1200,13.08
1212,19.16
1224,24.0
1236,27.93
1248,31.34
1260,34.66
1272,38.2
1284,42.07
1296,46.13
1308,49.96
1319,53.04
1330,55.02
1342,55.88
1354,56.07
1366,56.25
1378,57.02
1390,58.53
1402,60.41
1414,61.98
1426,62.51
1438,61.62
1450,59.37
1462,56.15
1474,52.37
1486,48.3
1498,43.93
1509,39.25
1520,34.36
1532,29.63
1544,25.66
1556,23.09
1568,22.42
1580,23.84
1592,27.13
1604,31.75
1616,36.94
1628,41.89
1640,45.96
1652,48.8
1664,50.37
1676,50.9
1688,50.68
1699,50.01
1710,49.12
1722,48.25
1734,47.67
1746,47.73
1758,48.66
1770,50.5
1782,52.95
1794,55.45
1806,57.36
1818,58.16
1830,57.53
1842,55.48
1854,52.22
1866,48.09
1878,43.5
1889,38.81
1900,34.34
1912,30.3
1924,26.8
1936,23.8
1948,21.16
1960,18.71
1972,16.33
1984,13.94
1996,11.49
2008,8.9
2020,6.06
2032,2.93
2044,-0.48
2056,-4.01
2068,-7.47
2079,-10.68
2090,-13.65
2102,-16.46
2114,-19.32
2126,-22.39
2138,-25.69
2150,-29.16
2162,-32.62
2174,-35.99
2186,-39.22
2198,-42.33
2210,-45.32
2222,-48.16
2234,-50.8
2246,-53.2
2258,-55.35
2269,-57.25
2280,-58.84
2292,-60.02
2304,-60.64
2316,-60.69
2328,-60.29
2340,-59.78
2352,-59.53
2364,-59.84
2376,-60.78
2388,-62.19
2400,-63.76
2412,-65.28
2424,-66.73
2436,-68.31
2448,-70.3
2459,-72.87
2470,-75.98
2482,-79.32
2494,-82.46
2506,-84.91
2518,-86.19
2530,-85.93
2542,-83.86
2554,-79.85
2566,-74.08
2578,-66.94
2590,-59.01
2602,-50.85
2614,-42.84
2626,-35.08
2638,-27.46
2649,-19.8
2660,-12.05
2672,-4.32
2684,3.18
2696,10.24
2708,16.77
2720,22.67
2732,27.75
2744,31.67
2756,34.0
2768,34.37
2780,32.69
2792,29.29
2804,24.76
2816,19.81
2828,15.02
2839,10.75
2850,7.16
2862,4.35
2874,2.54
2886,1.98
2898,2.86
2910,5.16
2922,8.59
2934,12.68
2946,17.0
2958,21.2
2970,25.13
2982,28.71
2994,31.84
3006,34.34
3018,36.0
3029,36.7
3040,36.56
3052,35.95
3064,35.39
3076,35.39
3088,36.3
3100,38.22
3112,40.97
3124,44.23
3136,47.67
3148,51.04
3160,54.3
3172,57.56
3184,60.96
3196,64.58
3208,68.37
3219,72.2
3230,75.87
3242,79.21
3254,82.13
3266,84.56
3278,86.4
3290,87.55
3302,87.85
3314,87.21
3326,85.55
3338,82.88
3350,79.16
3362,74.33
3374,68.34
3386,61.23
3398,53.22
3409,44.82
3420,36.69
3432,29.57
3444,23.99
3456,20.26
3468,18.41
3480,18.27
3492,19.58
3504,22.05
3516,25.3
3528,28.88
3540,32.22
3552,34.75
3564,36.04
3576,35.96
3588,34.7
3599,32.65
3610,30.22
3622,27.64
3634,24.93
3646,22.0
3658,18.86
3670,15.67
3682,12.72
3694,10.33
3706,8.62
3718,7.52
3730,6.79
3742,6.16
3754,5.46
3766,4.63
3778,3.68
3789,2.56
3800,1.15
3812,-0.75
3824,-3.3
3836,-6.48
3848,-10.05
3860,-13.65
3872,-16.89
3884,-19.57
3896,-21.69
3908,-23.4
3920,-24.86
3932,-26.11
3944,-27.04
3956,-27.4
3968,-26.94
3979,-25.53
3990,-23.21
4002,-20.2
4014,-16.78
4026,-13.19
4038,-9.5
4050,-5.63
4062,-1.33
4074,3.58
4086,9.14
4098,15.06
4110,20.83
4122,25.83
4134,29.5
4146,31.54
4158,31.91
4169,30.77
4180,28.34
4192,24.92
4204,20.78
4216,16.26
4228,11.7
4240,7.43
4252,3.63
4264,0.23
4276,-3.03
4288,-6.55
4300,-10.62
4312,-15.31
4324,-20.32
4336,-25.14
4348,-29.28
4359,-32.41
4370,-34.57
4382,-36.03
4394,-37.16
4406,-38.23
4418,-39.32
4430,-40.28
4442,-40.8
4454,-40.53
4466,-39.19
4478,-36.79
4490,-33.66
4502,-30.48
4514,-28.01
4526,-26.83
4538,-27.06
4549,-28.36
4560,-30.07
4572,-31.6
4584,-32.66
4596,-33.3
4608,-33.77
4620,-34.24
4632,-34.75
4644,-35.18
4656,-35.5
4668,-35.83
4680,-36.39
4692,-37.38
4704,-38.74
4716,-40.14
4728,-41.03
4739,-40.8
4750,-39.02
4762,-35.55
4774,-30.54
4786,-24.42
4798,-17.79
4810,-11.23
4822,-5.24
4834,-0.15
4846,3.91
4858,7.01
4870,9.38
4882,11.26
4894,12.86
4906,14.22
4918,15.23
4929,15.63
4940,15.23
4952,14.01
4964,12.21
4976,10.27
4988,8.64
5000,7.62
5012,7.28
5024,7.49
5036,8.08
5048,8.93
5060,10.02
5072,11.37
5084,12.92
5096,14.52
5108,15.9
5119,16.85
5130,17.19
5142,16.89
5154,16.04
5166,14.84
5178,13.48
5190,12.15
5202,10.95
5214,9.88
5226,8.89
5238,7.94
5250,7.0
5262,6.08
5274,5.18
5286,4.25
5298,3.22
5309,1.97
5320,0.48
5332,-1.22
5344,-3.04
5356,-4.95
5368,-6.99
5380,-9.29
5392,-11.93
5404,-14.75
5416,-17.34
5428,-19.13
5440,-19.61
5452,-18.52
5464,-16.04
5476,-12.66
5488,-9.05
5499,-5.74
5510,-2.98
5522,-0.76
5534,1.1
5546,2.79
5558,4.42
5570,5.94
5582,7.21
5594,8.1
5606,8.51
5618,8.42
5630,7.88
5642,7.02
5654,6.05
5666,5.23
5678,4.78
5689,4.86
5700,5.42
5712,6.28
5724,7.11
5736,7.6
5748,7.52
5760,6.79
5772,5.49
5784,3.76
5796,1.77
5808,-0.32
5820,-2.35
5832,-4.11
5844,-5.45
5856,-6.24
5868,-6.54
5879,-6.56
5890,-6.56
5902,-6.77
5914,-7.29
5926,-8.04
5938,-8.87
5950,-9.63
5962,-10.28
5974,-10.88
5986,-11.55
5998,-12.38
6010,-13.4
6022,-14.63
6034,-16.07
6046,-17.67
6058,-19.32
6069,-20.72
6080,-21.41
6092,-20.88
6104,-18.82
6116,-15.29
6128,-10.79
6140,-6.1
6152,-1.99
6164,1.03
6176,2.96
6188,4.13
6200,4.97
6212,5.79
6224,6.6
6236,7.18
6248,7.31
6259,6.93
6270,6.13
6282,5.17
6294,4.24
6306,3.45
6318,2.83
6330,2.37
6342,2.1
6354,2.06
6366,2.26
6378,2.59
6390,2.92
6402,3.12
6414,3.19
6426,3.22
6438,3.29
6449,3.38
6460,3.38
6472,3.14
6484,2.6
6496,1.84
6508,1.08
6520,0.5
6532,0.13
6544,-0.13
6556,-0.51
6568,-1.21
6580,-2.39
6592,-4.1
6604,-6.34
6616,-9.04
6628,-12.15
6639,-15.48
6650,-18.73
6662,-21.52
6674,-23.39
6686,-23.94
6698,-22.98
6710,-20.51
6722,-16.82
6734,-12.41
6746,-7.82
6758,-3.57
6770,-0.0
6782,2.78
6794,4.85
6806,6.38
6818,7.49
6829,8.19
6840,8.39
6852,7.98
6864,6.93
6876,5.37
6888,3.59
6900,1.92
6912,0.6
6924,-0.31
6936,-0.96
6948,-1.56
6960,-2.3
6972,-3.19
6984,-4.12
6996,-4.91
7008,-5.47
7019,-5.85
7030,-6.24
7042,-6.84
7054,-7.78
7066,-9.12
7078,-10.81
7090,-12.83
7102,-15.15
7114,-17.71
7126,-20.34
7138,-22.77
7150,-24.71
7162,-25.98
7174,-26.68
7186,-27.11
7198,-27.75
7209,-29.04
7220,-31.23
7232,-34.33
7244,-38.1
7256,-42.14
7268,-45.98
7280,-49.23
7292,-51.64
7304,-53.13
7316,-53.66
7328,-53.12
7340,-51.12
7352,-47.07
7364,-40.36
7376,-30.71
7388,-18.49
7399,-4.7
7410,9.27
7422,22.07
7434,32.67
7446,40.45
7458,45.1
7470,46.39
7482,44.21
7494,38.59
7506,29.81
7518,18.41
7530,4.99
7542,-9.88
7554,-25.48
7566,-40.69
7578,-53.78
7589,-62.68
7600,-65.73
7612,-62.51
7624,-54.26
7636,-43.35
7648,-32.3
7660,-22.64
7672,-14.57
7684,-7.34
7696,-0.11
7708,7.43
7720,15.03
7732,22.23
7744,28.83
7756,34.88
7768,40.27
7779,44.45
7790,46.49
7802,45.6
7814,41.76
7826,36.04
7838,30.18
7850,25.83
7862,23.91
7874,24.32
7886,26.25
7898,28.74
7910,31.06
7922,32.87
7934,34.12
7946,34.8
7958,34.82
7969,34.14
7980,32.86
7992,31.37
8004,30.24
8016,29.99
8028,30.87
8040,32.7
8052,34.96
8064,37.11
8076,38.9
8088,40.57
8100,42.75
8112,46.14
8124,51.17
8136,57.69
8148,65.0
8159,71.99
8170,77.48
8182,80.42
8194,80.1
8206,76.31
8218,69.39
8230,60.29
8242,50.31
8254,40.79
8266,32.66
8278,26.06
8290,20.48
8302,14.99
8314,8.91
8326,2.13
8338,-4.88
8349,-11.37
8360,-16.84
8372,-21.26
8384,-25.02
8396,-28.58
8408,-32.13
8420,-35.48
8432,-38.19
8444,-39.85
8456,-40.29
8468,-39.61
8480,-38.06
8492,-35.9
8504,-33.3
8516,-30.34
8528,-27.12
8539,-23.74
8550,-20.35
8562,-17.17
8574,-14.41
8586,-12.31
8598,-11.05
8610,-10.59
8622,-10.68
8634,-10.84
8646,-10.59
8658,-9.66
8670,-8.08
8682,-6.23
8694,-4.55
8706,-3.35
8718,-2.63
8729,-2.2
8740,-1.81
8752,-1.34
8764,-0.84
8776,-0.47
8788,-0.41
8800,-0.69
8812,-1.26
8824,-2.03
8836,-2.98
8848,-4.12
8860,-5.49
8872,-7.14
8884,-9.02
8896,-11.12
8908,-13.42
8919,-15.92
8930,-18.59
8942,-21.35
8954,-23.92
8966,-25.92
8978,-26.87
8990,-26.37
9002,-24.21
9014,-20.52
9026,-15.66
9038,-10.22
9050,-4.72
9062,0.42
9074,4.98
9086,8.83
9098,11.87
9109,13.94
9120,14.92
9132,14.72
9144,13.45
9156,11.41
9168,9.01
9180,6.69
9192,4.78
9204,3.46
9216,2.74
9228,2.5
9240,2.51
9252,2.55
9264,2.47
9276,2.2
9288,1.75
9299,1.21
9310,0.59
9322,-0.15
9334,-1.11
9346,-2.39
9358,-4.01
9370,-5.89
9382,-7.87
9394,-9.77
9406,-11.5
9418,-13.08
9430,-14.65
9442,-16.43
9454,-18.69
9466,-21.58
9478,-25.05
9489,-28.77
9500,-32.07
9512,-34.13
9524,-34.26
9536,-32.07
9548,-27.72
9560,-21.79
9572,-15.13
9584,-8.51
9596,-2.48
9608,2.75
9620,7.14
9632,10.7
9644,13.38
9656,15.02
9668,15.54
9679,15.0
9690,13.65
9702,11.92
9714,10.25
9726,8.93
9738,8.04
9750,7.49
9762,7.08
9774,6.66
9786,6.2
9798,5.77
9810,5.48
9822,5.35
9834,5.33
9846,5.22
9858,4.81
9869,3.91
9880,2.48
9892,0.59
9904,-1.58
9916,-3.77
9928,-5.78
9940,-7.51
9952,-9.02
9964,-10.44
9976,-11.98
9988,-13.8
10000,-15.98
10012,-18.56
10024,-21.47
10036,-24.56
10048,-27.5
10059,-29.8
10070,-30.86
10082,-30.1
10094,-27.26
10106,-22.45
10118,-16.18
10130,-9.26
10142,-2.49
10154,3.51
10166,8.42
10178,12.25
10190,15.15
10202,17.28
10214,18.65
10226,19.17
10238,18.69
10249,17.22
10260,15.02
10272,12.55
10284,10.36
10296,8.89
10308,8.25
10320,8.27
10332,8.62
10344,8.97
10356,9.15
10368,9.15
10380,9.07
10392,8.92
10404,8.66
10416,8.12
10428,7.2
10439,5.87
10450,4.25
10462,2.55
10474,0.95
10486,-0.5
10498,-1.92
10510,-3.54
10522,-5.57
10534,-8.12
10546,-11.12
10558,-14.36
10570,-17.62
10582,-20.74
10594,-23.65
10606,-26.34
10618,-28.65
10629,-30.31
10640,-30.89
10652,-29.95
10664,-27.23
10676,-22.75
10688,-16.87
10700,-10.21
10712,-3.44
10724,2.84
10736,8.2
10748,12.5
10760,15.71
10772,17.89
10784,19.07
10796,19.26
10808,18.51
10819,16.97
10830,14.96
10842,12.92
10854,11.28
10866,10.34
10878,10.16
10890,10.53
10902,11.12
10914,11.62
10926,11.83
10938,11.78
10950,11.59
10962,11.42
10974,11.36
10986,11.32
10998,11.11
11009,10.51
11020,9.36
11032,7.64
11044,5.45
11056,2.98
11068,0.44
11080,-2.0
11092,-4.22
11104,-6.16
11116,-7.83
11128,-9.36
11140,-10.97
11152,-12.93
11164,-15.47
11176,-18.7
11188,-22.46
11199,-26.28
11210,-29.5
11222,-31.35
11234,-31.22
11246,-28.82
11258,-24.29
11270,-18.17
11282,-11.26
11294,-4.39
11306,1.81
11318,7.04
11330,11.27
11342,14.67
11354,17.36
11366,19.3
11378,20.34
11389,20.32
11400,19.26
11412,17.44
11424,15.34
11436,13.44
11448,12.05
11460,11.21
11472,10.77
11484,10.51
11496,10.35
11508,10.33
11520,10.58
11532,11.14
11544,11.87
11556,12.48
11568,12.62
11579,12.06
11590,10.76
11602,8.85
11614,6.58
11626,4.21
11638,1.93
11650,-0.17
11662,-2.09
11674,-3.89
11686,-5.73
11698,-7.78
11710,-10.21
11722,-13.1
11734,-16.44
11746,-20.1
11758,-23.83
11769,-27.27
11780,-29.97
11792,-31.41
11804,-31.08
11816,-28.65
11828,-24.13
11840,-17.95
11852,-10.87
11864,-3.8
11876,2.5
11888,7.64
11900,11.56
11912,14.4
11924,16.39
11936,17.62
11948,18.11
11959,17.82
11970,16.81
11982,15.28
11994,13.55
12006,11.94
12018,10.7
12030,9.91
12042,9.53
12054,9.48
12066,9.69
12078,10.12
12090,10.69
12102,11.26
12114,11.56
12126,11.29
12138,10.26
12149,8.52
12160,6.38
12172,4.23
12184,2.39
12196,0.9
12208,-0.42
12220,-1.87
12232,-3.69
12244,-5.91
12256,-8.36
12268,-10.82
12280,-13.12
12292,-15.23
12304,-17.32
12316,-19.65
12328,-22.43
12339,-25.72
12350,-29.33
12362,-32.83
12374,-35.63
12386,-37.16
12398,-36.96
12410,-34.85
12422,-30.9
12434,-25.42
12446,-18.82
12458,-11.59
12470,-4.21
12482,2.8
12494,8.99
12506,13.94
12518,17.46
12529,19.5
12540,20.29
12552,20.14
12564,19.43
12576,18.42
12588,17.32
12600,16.24
12612,15.32
12624,14.67
12636,14.43
12648,14.64
12660,15.22
12672,16.03
12684,16.82
12696,17.41
12708,17.66
12719,17.49
12730,16.92
12742,15.97
12754,14.72
12766,13.28
12778,11.74
12790,10.18
12802,8.6
12814,6.94
12826,5.14
12838,3.1
12850,0.8
12862,-1.72
12874,-4.33
12886,-6.89
12898,-9.28
12909,-11.54
12920,-13.8
12932,-16.32
12944,-19.36
12956,-23.07
12968,-27.36
12980,-31.88
12992,-35.98
13004,-38.86
13016,-39.75
13028,-38.14
13040,-33.93
13052,-27.5
13064,-19.64
13076,-11.29
13088,-3.33
13099,3.66
13110,9.46
13122,14.11
13134,17.76
13146,20.53
13158,22.42
13170,23.41
13182,23.53
13194,22.92
13206,21.85
13218,20.65
13230,19.65
13242,19.07
13254,18.96
13266,19.23
13278,19.69
13289,20.12
13300,20.41
13312,20.56
13324,20.66
13336,20.79
13348,20.95
13360,21.02
13372,20.77
13384,20.06
13396,18.84
13408,17.24
13420,15.47
13432,13.7
13444,11.99
13456,10.24
13468,8.29
13479,5.97
13490,3.22
13502,0.08
13514,-3.25
13526,-6.51
13538,-9.47
13550,-12.0
13562,-14.11
13574,-15.97
13586,-17.84
13598,-20.04
13610,-22.82
13622,-26.33
13634,-30.51
13646,-35.04
13658,-39.29
13669,-42.44
13680,-43.63
13692,-42.27
13704,-38.22
13716,-31.86
13728,-24.0
13740,-15.6
13752,-7.54
13764,-0.36
13776,5.72
13788,10.72
13800,14.71
13812,17.72
13824,19.69
13836,20.57
13848,20.39
13859,19.31
13870,17.7
13882,15.98
13894,14.53
13906,13.6
13918,13.26
13930,13.53
13942,14.34
13954,15.65
13966,17.35
13978,19.21
13990,20.88
14002,21.97
14014,22.17
14026,21.42
14038,19.91
14049,17.97
14060,15.95
14072,14.11
14084,12.56
14096,11.3
14108,10.24
14120,9.26
14132,8.18
14144,6.78
14156,4.84
14168,2.28
14180,-0.82
14192,-4.16
14204,-7.4
14216,-10.25
14228,-12.64
14239,-14.75
14250,-16.85
14262,-19.23
14274,-22.07
14286,-25.4
14298,-29.15
14310,-33.02
14322,-36.56
14334,-39.13
14346,-40.0
14358,-38.56
14370,-34.57
14382,-28.24
14394,-20.25
14406,-11.58
14418,-3.18
14429,4.24
14440,10.33
14452,15.06
14464,18.59
14476,21.08
14488,22.6
14500,23.15
14512,22.75
14524,21.57
14536,19.93
14548,18.29
14560,17.05
14572,16.44
14584,16.45
14596,16.85
14608,17.38
14619,17.9
14630,18.36
14642,18.85
14654,19.42
14666,20.04
14678,20.58
14690,20.85
14702,20.72
14714,20.1
14726,18.99
14738,17.49
14750,15.73
14762,13.86
14774,12.02
14786,10.25
14798,8.49
14809,6.58
14820,4.4
14832,1.92
14844,-0.78
14856,-3.47
14868,-5.94
14880,-8.06
14892,-9.86
14904,-11.49
14916,-13.19
14928,-15.22
14940,-17.82
14952,-21.1
14964,-25.0
14976,-29.25
14988,-33.35
14999,-36.61
15010,-38.32
15022,-37.92
15034,-35.17
15046,-30.2
15058,-23.55
15070,-15.99
15082,-8.33
15094,-1.27
15106,4.8
15118,9.75
15130,13.63
15142,16.55
15154,18.54
15166,19.59
15178,19.62
15189,18.72
15200,17.12
15212,15.27
15224,13.67
15236,12.7
15248,12.53
15260,13.03
15272,13.91
15284,14.87
15296,15.73
15308,16.47
15320,17.13
15332,17.76
15344,18.32
15356,18.66
15368,18.59
15379,17.96
15390,16.74
15402,15.03
15414,13.01
15426,10.89
15438,8.86
15450,7.03
15462,5.42
15474,3.94
15486,2.48
15498,0.97
15510,-0.64
15522,-2.33
15534,-4.09
15546,-5.92
15558,-7.83
15569,-9.8
15580,-11.79
15592,-13.76
15604,-15.7
15616,-17.75
15628,-20.14
15640,-23.11
15652,-26.76
15664,-30.87
15676,-34.86
15688,-37.92
15700,-39.21
15712,-38.13
15724,-34.52
15736,-28.7
15748,-21.34
15759,-13.26
15770,-5.28
15782,1.96
15794,8.02
15806,12.69
15818,15.92
15830,17.84
15842,18.68
15854,18.73
15866,18.3
15878,17.61
15890,16.8
15902,15.96
15914,15.16
15926,14.52
15938,14.17
15949,14.21
15960,14.68
15972,15.53
15984,16.61
15996,17.77
16008,18.86
16020,19.7
16032,20.18
16044,20.25
16056,19.88
16068,19.13
16080,18.12
16092,16.97
16104,15.75
16116,14.49
16128,13.14
16139,11.58
16150,9.76
16162,7.7
16174,5.52
16186,3.39
16198,1.48
16210,-0.2
16222,-1.74
16234,-3.35
16246,-5.21
16258,-7.43
16270,-9.96
16282,-12.64
16294,-15.26
16306,-17.69
16318,-19.93
16329,-22.12
16340,-24.5
16352,-27.28
16364,-30.59
16376,-34.34
16388,-38.16
16400,-41.46
16412,-43.52
16424,-43.72
16436,-41.7
16448,-37.54
16460,-31.64
16472,-24.66
16484,-17.23
16496,-9.89
16508,-2.98
16519,3.26
16530,8.59
16542,12.81
16554,15.73
16566,17.36
16578,17.87
16590,17.63
16602,17.08
16614,16.6
16626,16.42
16638,16.58
16650,16.98
16662,17.47
16674,17.91
16686,18.27
16698,18.62
16709,19.07
16720,19.69
16732,20.49
16744,21.36
16756,22.1
16768,22.55
16780,22.56
16792,22.12
16804,21.28
16816,20.15
16828,18.84
16840,17.42
16852,15.92
16864,14.32
16876,12.56
16888,10.61
16899,8.52
16910,6.38
16922,4.32
16934,2.49
16946,0.92
16958,-0.48
16970,-1.85
16982,-3.4
16994,-5.28
17006,-7.5
17018,-9.96
17030,-12.47
17042,-14.83
17054,-16.87
17066,-18.56
17078,-19.99
17089,-21.4
17100,-23.09
17112,-25.31
17124,-28.22
17136,-31.78
17148,-35.71
17160,-39.52
17172,-42.54
17184,-44.11
17196,-43.69
17208,-41.04
17220,-36.25
17232,-29.78
17244,-22.3
17256,-14.52
17268,-7.09
17279,-0.41
17290,5.32
17302,10.05
17314,13.82
17326,16.6
17338,18.35
17350,19.05
17362,18.81
17374,17.88
17386,16.68
17398,15.61
17410,14.97
17422,14.86
17434,15.25
17446,15.99
17458,17.0
17469,18.24
17480,19.66
17492,21.17
17504,22.52
17516,23.4
17528,23.5
17540,22.77
17552,21.36
17564,19.61
17576,17.9
17588,16.46
17600,15.32
17612,14.36
17624,13.4
17636,12.31
17648,11.05
17659,9.64
17670,8.14
17682,6.58
17694,4.99
17706,3.4
17718,1.79
17730,0.13
17742,-1.67
17754,-3.7
17766,-5.94
17778,-8.31
17790,-10.6
17802,-12.63
17814,-14.32
17826,-15.79
17838,-17.25
17849,-18.99
17860,-21.24
17872,-24.13
17884,-27.68
17896,-31.75
17908,-35.99
17920,-39.83
17932,-42.51
17944,-43.27
17956,-41.6
17968,-37.39
17980,-31.1
17992,-23.53
18004,-15.67
18016,-8.33
18028,-2.01
18039,3.13
18050,7.2
18062,10.4
18074,12.84
18086,14.55
18098,15.49
18110,15.66
18122,15.19
18134,14.4
18146,13.65
18158,13.26
18170,13.35
18182,13.84
18194,14.56
18206,15.36
18218,16.19
18229,17.09
18240,18.14
18252,19.27
18264,20.33
18276,21.07
18288,21.31
18300,20.98
18312,20.21
18324,19.18
18336,18.07
18348,17.01
18360,16.01
18372,15.0
18384,13.87
18396,12.54
18408,10.97
18419,9.22
18430,7.39
18442,5.58
18454,3.82
18466,2.03
18478,0.1
18490,-2.11
18502,-4.56
18514,-7.11
18526,-9.43
18538,-11.29
18550,-12.6
18562,-13.55
18574,-14.51
18586,-15.89
18598,-17.98
18609,-20.87
18620,-24.43
18632,-28.42
18644,-32.45
18656,-35.97
18668,-38.36
18680,-38.94
18692,-37.26
18704,-33.23
18716,-27.23
18728,-19.99
18740,-12.4
18752,-5.2
18764,1.13
18776,6.38
18788,10.5
18799,13.51
18810,15.45
18822,16.36
18834,16.36
18846,15.62
18858,14.4
18870,13.03
18882,11.81
18894,11.05
18906,10.92
18918,11.44
18930,12.46
18942,13.77
18954,15.12
18966,16.37
18978,17.41
18989,18.18
19000,18.61
19012,18.59
19024,18.08
19036,17.16
19048,16.0
19060,14.86
19072,13.89
19084,13.14
19096,12.5
19108,11.73
19120,10.65
19132,9.16
19144,7.26
19156,5.09
19168,2.86
19179,0.79
19190,-0.96
19202,-2.39
19214,-3.64
19226,-5.0
19238,-6.69
19250,-8.82
19262,-11.26
19274,-13.79
19286,-16.11
19298,-18.09
19310,-19.77
19322,-21.35
19334,-23.09
19346,-25.27
19358,-28.06
19369,-31.46
19380,-35.24
19392,-38.87
19404,-41.66
19416,-42.85
19428,-41.84
19440,-38.43
19452,-32.84
19464,-25.68
19476,-17.78
19488,-10.01
19500,-3.06
19512,2.66
19524,7.02
19536,10.18
19548,12.43
19559,14.03
19570,15.12
19582,15.73
19594,15.78
19606,15.33
19618,14.53
19630,13.71
19642,13.18
19654,13.11
19666,13.5
19678,14.21
19690,15.07
19702,15.97
19714,16.89
19726,17.83
19738,18.68
19749,19.3
19760,19.46
19772,19.06
19784,18.1
19796,16.78
19808,15.33
19820,13.95
19832,12.73
19844,11.61
19856,10.53
19868,9.4
19880,8.15
19892,6.79
19904,5.29
19916,3.66
19928,1.94
19939,0.13
19950,-1.74
19962,-3.68
19974,-5.66
19986,-7.68
19998,-9.69
20010,-11.62
20022,-13.44
20034,-15.14
20046,-16.79
20058,-18.52
20070,-20.5
20082,-22.88
20094,-25.83
20106,-29.35
20118,-33.27
20129,-37.12
20140,-40.18
20152,-41.62
20164,-40.74
20176,-37.26
20188,-31.45
20200,-24.09
20212,-16.18
20224,-8.61
20236,-1.98
20248,3.52
20260,7.96
20272,11.51
20284,14.28
20296,16.3
20308,17.52
20319,17.96
20330,17.73
20342,17.08
20354,16.32
20366,15.7
20378,15.41
20390,15.51
20402,15.99
20414,16.77
20426,17.78
20438,18.99
20450,20.32
20462,21.68
20474,22.89
20486,23.77
20498,24.14
20509,23.91
20520,23.12
20532,21.9
20544,20.46
20556,18.97
20568,17.61
20580,16.42
20592,15.4
20604,14.46
20616,13.43
20628,12.21
20640,10.71
20652,8.95
20664,7.02
20676,5.08
20688,3.28
20699,1.71
20710,0.38
20722,-0.85
20734,-2.14
20746,-3.67
20758,-5.52
20770,-7.67
20782,-9.94
20794,-12.17
20806,-14.25
20818,-16.22
20830,-18.26
20842,-20.6
20854,-23.41
20866,-26.72
20878,-30.41
20889,-34.18
20900,-37.57
20912,-40.02
20924,-40.95
20936,-39.96
20948,-36.84
20960,-31.82
20972,-25.45
20984,-18.45
20996,-11.51
