seconds,BVP
3,6.51
15,6.95
27,7.68
39,8.82
51,10.48
63,12.57
75,14.91
87,17.28
99,19.47
111,21.4
123,23.03
135,24.44
146,25.72
157,27.02
169,28.46
181,30.16
193,32.19
205,34.55
217,37.18
229,40.04
241,43.11
253,46.44
265,50.1
277,54.09
289,58.3
301,62.5
313,66.49
325,70.21
336,73.84
347,77.73
359,82.33
371,87.94
383,94.56
395,101.81
407,109.02
419,115.37
431,120.07
443,122.45
455,122.03
467,118.44
479,111.47
491,101.05
503,87.3
515,70.58
526,51.45
537,30.62
549,8.94
561,-12.65
573,-33.13
585,-51.44
597,-66.58
609,-77.72
621,-84.49
633,-87.0
645,-85.92
657,-82.19
669,-76.77
681,-70.4
693,-63.48
705,-56.27
716,-49.07
727,-42.43
739,-37.16
751,-33.96
763,-33.11
775,-34.18
787,-36.08
799,-37.42
811,-37.02
823,-34.43
835,-29.99
847,-24.65
859,-19.49
871,-15.28
883,-12.36
895,-10.62
906,-9.78
917,-9.61
929,-9.9
941,-10.49
953,-11.1
965,-11.29
977,-10.62
989,-8.78
1001,-5.91
1013,-2.65
1025,-0.06
1037,0.72
1049,-1.13
1061,-5.78
1073,-12.72
1085,-20.89
1096,-29.1
1107,-36.43
1119,-42.46
1131,-47.24
1143,-51.17
1155,-54.66
1167,-58.02
1179,-61.39
1191,-64.82
1203,-68.31
1215,-71.74
1227,-74.81
1239,-76.87
1251,-77.0
1263,-74.23
1275,-68.0
1286,-58.55
1297,-47.05
1309,-35.35
1321,-25.31
1333,-18.05
1345,-13.46
1357,-10.39
1369,-7.23
1381,-2.83
1393,2.98
1405,9.38
1417,15.1
1429,19.09
1441,20.97
1453,20.97
1465,19.61
1476,17.32
1487,14.26
1499,10.49
1511,6.13
1523,1.48
1535,-3.08
1547,-7.27
1559,-11.05
1571,-14.54
1583,-17.84
1595,-20.8
1607,-23.01
1619,-23.89
1631,-22.97
1643,-20.04
1655,-15.28
1666,-9.13
1677,-2.26
1689,4.57
1701,10.5
1713,14.79
1725,16.88
1737,16.71
1749,14.84
1761,12.35
1773,10.51
1785,10.3
1797,11.97
1809,15.08
1821,18.78
1833,22.36
1845,25.59
1856,28.66
1867,31.76
1879,34.6
1891,36.3
1903,35.72
1915,32.1
1927,25.61
1939,17.4
1951,9.09
1963,2.08
1975,-3.03
1987,-6.48
1999,-9.04
2011,-11.54
2023,-14.48
2035,-17.99
2046,-21.93
2057,-26.1
2069,-30.28
2081,-34.3
2093,-38.05
2105,-41.53
2117,-44.77
2129,-47.64
2141,-49.74
2153,-50.32
2165,-48.65
2177,-44.38
2189,-37.9
2201,-30.28
2213,-22.88
2225,-16.7
2236,-12.01
2247,-8.39
2259,-5.18
2271,-2.0
2283,1.01
2295,3.3
2307,4.33
2319,3.98
2331,2.6
2343,0.85
2355,-0.73
2367,-1.89
2379,-2.73
2391,-3.52
2403,-4.55
2415,-5.85
2426,-7.29
2437,-8.63
2449,-9.67
2461,-10.34
2473,-10.68
2485,-10.75
2497,-10.63
2509,-10.3
2521,-9.72
2533,-8.83
2545,-7.65
2557,-6.24
2569,-4.7
2581,-3.11
2593,-1.5
2605,0.16
2616,1.97
2627,4.03
2639,6.35
2651,8.79
2663,11.12
2675,13.08
2687,14.54
2699,15.6
2711,16.55
2723,17.73
2735,19.31
2747,21.25
2759,23.3
2771,25.14
2783,26.56
2795,27.55
2806,28.28
2817,29.03
2829,30.03
2841,31.42
2853,33.17
2865,35.11
2877,37.05
2889,38.74
2901,40.0
2913,40.7
2925,40.82
2937,40.41
2949,39.62
2961,38.6
2973,37.46
2985,36.18
2996,34.53
3007,32.04
3019,28.16
3031,22.39
3043,14.54
3055,4.94
3067,-5.69
3079,-16.33
3091,-26.02
3103,-34.01
3115,-39.88
3127,-43.46
3139,-44.73
3151,-43.78
3163,-40.85
3175,-36.33
3186,-30.81
3197,-24.91
3209,-19.22
3221,-14.19
3233,-10.13
3245,-7.25
3257,-5.6
3269,-5.03
3281,-5.12
3293,-5.25
3305,-4.87
3317,-3.71
3329,-1.93
3341,-0.11
3353,1.06
3365,1.07
3376,-0.12
3387,-2.14
3399,-4.4
3411,-6.34
3423,-7.63
3435,-8.15
3447,-7.89
3459,-6.74
3471,-4.54
3483,-1.15
3495,3.42
3507,8.81
3519,14.4
3531,19.44
3543,23.41
3555,26.27
3566,28.42
3577,30.6
3589,33.47
3601,37.34
3613,42.07
3625,47.11
3637,51.74
3649,55.23
3661,56.94
3673,56.37
3685,53.24
3697,47.68
3709,40.26
3721,32.0
3733,24.05
3745,17.27
3756,11.89
3767,7.39
3779,2.73
3791,-3.12
3803,-10.71
3815,-19.84
3827,-29.7
3839,-39.24
3851,-47.59
3863,-54.36
3875,-59.56
3887,-63.36
3899,-65.85
3911,-66.93
3923,-66.36
3935,-64.04
3946,-60.19
3957,-55.36
3969,-50.23
3981,-45.3
3993,-40.71
4005,-36.17
4017,-31.2
4029,-25.46
4041,-18.92
4053,-11.86
4065,-4.76
4077,1.92
4089,7.8
4101,12.49
4113,15.59
4125,16.73
4136,15.83
4147,13.24
4159,9.83
4171,6.71
4183,4.77
4195,4.34
4207,5.04
4219,6.12
4231,6.86
4243,6.91
4255,6.39
4267,5.56
4279,4.54
4291,3.16
4303,1.08
4315,-1.85
4326,-5.38
4337,-8.82
4349,-11.34
4361,-12.3
4373,-11.52
4385,-9.36
4397,-6.47
4409,-3.55
4421,-1.06
4433,0.69
4445,1.55
4457,1.32
4469,-0.2
4481,-3.13
4493,-7.27
4505,-12.11
4516,-16.9
4527,-20.9
4539,-23.61
4551,-24.92
4563,-25.03
4575,-24.32
4587,-23.07
4599,-21.41
4611,-19.34
4623,-16.9
4635,-14.2
4647,-11.5
4659,-8.98
4671,-6.72
4683,-4.62
4695,-2.51
4706,-0.28
4717,2.0
4729,4.13
4741,5.84
4753,6.96
4765,7.48
4777,7.53
4789,7.36
4801,7.14
4813,6.96
4825,6.83
4837,6.67
4849,6.39
4861,5.93
4873,5.25
4885,4.38
4896,3.42
4907,2.47
4919,1.61
4931,0.86
4943,0.18
4955,-0.51
4967,-1.22
4979,-1.88
4991,-2.4
5003,-2.66
5015,-2.59
5027,-2.22
5039,-1.63
5051,-0.96
5063,-0.38
5075,-0.0
5086,0.06
5097,-0.24
5109,-0.87
5121,-1.73
5133,-2.71
5145,-3.68
5157,-4.56
5169,-5.28
5181,-5.85
5193,-6.25
5205,-6.46
5217,-6.48
5229,-6.35
5241,-6.08
5253,-5.71
5265,-5.31
5276,-4.95
5287,-4.72
5299,-4.72
5311,-4.99
5323,-5.49
5335,-6.1
5347,-6.63
5359,-6.89
5371,-6.76
5383,-6.21
5395,-5.35
5407,-4.35
5419,-3.45
5431,-2.85
5443,-2.63
5455,-2.76
5466,-3.04
5477,-3.24
5489,-3.18
5501,-2.83
5513,-2.35
5525,-1.98
5537,-1.91
5549,-2.15
5561,-2.59
5573,-3.05
5585,-3.41
5597,-3.67
5609,-3.95
5621,-4.38
5633,-5.0
5645,-5.72
5656,-6.4
5667,-6.88
5679,-7.08
5691,-7.01
5703,-6.74
5715,-6.34
5727,-5.87
5739,-5.33
5751,-4.67
5763,-3.87
5775,-2.87
5787,-1.64
5799,-0.19
5811,1.41
5823,3.09
5835,4.72
5846,6.19
5857,7.45
5869,8.49
5881,9.33
5893,10.01
5905,10.51
5917,10.82
5929,10.93
5941,10.87
5953,10.71
5965,10.51
5977,10.18
5989,9.55
6001,8.37
6013,6.41
6025,3.64
6036,0.31
6047,-3.14
6059,-6.18
6071,-8.41
6083,-9.7
6095,-10.28
6107,-10.6
6119,-11.14
6131,-12.18
6143,-13.66
6155,-15.25
6167,-16.45
6179,-16.81
6191,-16.0
6203,-13.81
6215,-10.12
6226,-4.88
6237,1.73
6249,9.34
6261,17.42
6273,25.4
6285,32.87
6297,39.6
6309,45.44
6321,50.19
6333,53.47
6345,54.9
6357,54.29
6369,51.84
6381,48.17
6393,44.06
6405,40.18
6416,36.84
6427,34.05
6439,31.63
6451,29.41
6463,27.33
6475,25.4
6487,23.61
6499,21.83
6511,19.9
6523,17.62
6535,14.88
6547,11.67
6559,8.11
6571,4.33
6583,0.42
6595,-3.55
6606,-7.6
6617,-11.72
6629,-15.83
6641,-19.78
6653,-23.45
6665,-26.78
6677,-29.89
6689,-32.96
6701,-36.14
6713,-39.45
6725,-42.75
6737,-45.81
6749,-48.51
6761,-50.86
6773,-53.06
6785,-55.37
6796,-57.93
6807,-60.66
6819,-63.28
6831,-65.51
6843,-67.15
6855,-68.2
6867,-68.68
6879,-68.49
6891,-67.3
6903,-64.7
6915,-60.53
6927,-55.17
6939,-49.61
6951,-45.1
6963,-42.43
6975,-41.34
6986,-40.4
6997,-37.65
7009,-31.6
7021,-22.15
7033,-10.83
7045,-0.11
7057,7.72
7069,11.62
7081,12.06
7093,10.5
7105,8.46
7117,6.74
7129,5.32
7141,3.79
7153,2.03
7165,0.55
7176,0.37
7187,2.32
7199,6.61
7211,12.57
7223,18.98
7235,24.69
7247,29.11
7259,32.37
7271,35.04
7283,37.7
7295,40.55
7307,43.29
7319,45.37
7331,46.25
7343,45.74
7355,44.06
7366,41.73
7377,39.28
7389,37.11
7401,35.35
7413,33.94
7425,32.7
7437,31.45
7449,30.09
7461,28.57
7473,26.96
7485,25.41
7497,24.1
7509,23.18
7521,22.74
7533,22.72
7545,23.0
7556,23.43
7567,23.86
7579,24.19
7591,24.3
7603,24.09
7615,23.48
7627,22.41
7639,20.96
7651,19.27
7663,17.57
7675,16.08
7687,14.94
7699,14.25
7711,13.98
7723,14.06
7735,14.36
7746,14.71
7757,14.89
7769,14.76
7781,14.29
7793,13.55
7805,12.67
7817,11.73
7829,10.63
7841,9.17
7853,7.19
7865,4.7
7877,2.01
7889,-0.38
7901,-1.99
7913,-2.6
7925,-2.26
7936,-1.26
7947,0.07
7959,1.51
7971,2.9
7983,4.13
7995,5.02
8007,5.42
8019,5.29
8031,4.79
8043,4.23
8055,3.91
8067,3.96
8079,4.24
8091,4.4
8103,4.08
8115,3.17
8126,1.86
8137,0.52
8149,-0.45
8161,-0.79
8173,-0.5
8185,0.28
8197,1.34
8209,2.52
8221,3.76
8233,5.01
8245,6.18
8257,7.15
8269,7.76
8281,7.97
8293,7.9
8305,7.83
8316,8.11
8327,8.94
8339,10.36
8351,12.2
8363,14.12
8375,15.76
8387,16.82
8399,17.09
8411,16.51
8423,15.24
8435,13.65
8447,12.29
8459,11.73
8471,12.33
8483,14.0
8495,16.17
8506,17.98
8517,18.62
8529,17.76
8541,15.7
8553,13.32
8565,11.77
8577,11.95
8589,14.2
8601,18.2
8613,23.11
8625,27.93
8637,31.76
8649,34.03
8661,34.47
8673,33.02
8685,29.87
8696,25.4
8707,20.27
8719,15.4
8731,11.85
8743,10.48
8755,11.69
8767,15.14
8779,19.73
8791,23.9
8803,26.11
8815,25.34
8827,21.37
8839,14.72
8851,6.36
8863,-2.67
8875,-11.5
8886,-19.5
8897,-26.13
8909,-30.98
8921,-33.82
8933,-34.74
8945,-34.18
8957,-32.77
8969,-31.07
8981,-29.33
8993,-27.51
9005,-25.51
9017,-23.4
9029,-21.51
9041,-20.27
9053,-19.94
9065,-20.38
9076,-21.1
9087,-21.56
9099,-21.43
9111,-20.73
9123,-19.8
9135,-18.97
9147,-18.29
9159,-17.53
9171,-16.3
9183,-14.24
9195,-11.34
9207,-7.87
9219,-4.3
9231,-1.07
9243,1.72
9255,4.26
9266,6.96
9277,10.14
9289,13.84
9301,17.8
9313,21.57
9325,24.69
9337,26.91
9349,28.26
9361,28.96
9373,29.34
9385,29.73
9397,30.36
9409,31.34
9421,32.6
9433,34.02
9445,35.4
9456,36.65
9467,37.81
9479,39.09
9491,40.74
9503,42.94
9515,45.65
9527,48.6
9539,51.23
9551,52.87
9563,52.92
9575,50.95
9587,46.93
9599,41.22
9611,34.55
9623,27.81
9635,21.73
9646,16.59
9657,12.1
9669,7.51
9681,1.96
9693,-5.08
9705,-13.5
9717,-22.48
9729,-30.81
9741,-37.21
9753,-40.86
9765,-41.56
9777,-39.73
9789,-36.12
9801,-31.5
9813,-26.43
9825,-21.12
9836,-15.58
9847,-9.77
9859,-3.71
9871,2.38
9883,8.2
9895,13.43
9907,17.89
9919,21.59
9931,24.73
9943,27.56
9955,30.36
9967,33.32
9979,36.45
9991,39.62
10003,42.48
10015,44.55
10026,45.19
10037,43.69
10049,39.39
10061,31.95
10073,21.56
10085,9.17
10097,-3.66
10109,-15.16
10121,-23.98
10133,-29.67
10145,-32.78
10157,-34.48
10169,-35.95
10181,-37.76
10193,-39.74
10205,-41.32
10216,-42.05
10227,-42.04
10239,-41.87
10251,-42.26
10263,-43.49
10275,-45.2
10287,-46.57
10299,-46.79
10311,-45.44
10323,-42.66
10335,-38.91
10347,-34.67
10359,-30.23
10371,-25.76
10383,-21.44
10395,-17.62
10406,-14.74
10417,-13.13
10429,-12.82
10441,-13.41
10453,-14.29
10465,-14.79
10477,-14.47
10489,-13.18
10501,-11.1
10513,-8.67
10525,-6.41
10537,-4.89
10549,-4.56
10561,-5.65
10573,-8.09
10585,-11.51
10596,-15.32
10607,-18.84
10619,-21.51
10631,-22.94
10643,-23.03
10655,-21.96
10667,-20.14
10679,-18.1
10691,-16.34
10703,-15.17
10715,-14.67
10727,-14.69
10739,-15.0
10751,-15.36
10763,-15.61
10775,-15.74
10786,-15.78
10797,-15.89
10809,-16.24
10821,-17.0
10833,-18.32
10845,-20.19
10857,-22.42
10869,-24.64
10881,-26.34
10893,-27.07
10905,-26.64
10917,-25.15
10929,-22.97
10941,-20.58
10953,-18.36
10965,-16.55
10976,-15.17
10987,-14.12
10999,-13.27
11011,-12.39
11023,-11.2
11035,-9.42
11047,-6.87
11059,-3.58
11071,0.1
11083,3.63
11095,6.41
11107,7.91
11119,7.68
11131,5.29
11143,0.49
11155,-6.49
11166,-14.65
11177,-22.28
11189,-27.46
11201,-28.89
11213,-26.55
11225,-21.79
11237,-16.69
11249,-13.09
11261,-11.91
11273,-12.94
11285,-15.36
11297,-18.33
11309,-21.39
11321,-24.44
11333,-27.39
11345,-29.91
11356,-31.5
11367,-31.73
11379,-30.56
11391,-28.47
11403,-26.18
11415,-24.46
11427,-23.81
11439,-24.35
11451,-25.8
11463,-27.62
11475,-29.13
11487,-29.63
11499,-28.53
11511,-25.46
11523,-20.41
11535,-13.72
11546,-6.05
11557,1.76
11569,8.91
11581,14.74
11593,18.96
11605,21.55
11617,22.77
11629,22.95
11641,22.45
11653,21.52
11665,20.29
11677,18.85
11689,17.3
11701,15.76
11713,14.41
11725,13.41
11736,12.81
11747,12.5
11759,12.28
11771,11.95
11783,11.41
11795,10.77
11807,10.26
11819,10.12
11831,10.43
11843,11.12
11855,11.96
11867,12.65
11879,12.94
11891,12.66
11903,11.81
11915,10.51
11926,8.97
11937,7.45
11949,6.23
11961,5.46
11973,5.17
11985,5.24
11997,5.47
12009,5.67
12021,5.79
12033,5.85
12045,5.97
12057,6.24
12069,6.69
12081,7.28
12093,7.97
12105,8.68
12116,9.41
12127,10.14
12139,10.85
12151,11.48
12163,11.96
12175,12.21
12187,12.23
12199,12.09
12211,11.9
12223,11.79
12235,11.82
12247,11.95
12259,12.06
12271,12.03
12283,11.78
12295,11.36
12306,10.88
12317,10.52
12329,10.35
12341,10.34
12353,10.33
12365,10.09
12377,9.45
12389,8.4
12401,7.08
12413,5.77
12425,4.83
12437,4.55
12449,5.13
12461,6.6
12473,8.8
12485,11.44
12496,14.02
12507,15.95
12519,16.63
12531,15.64
12543,12.91
12555,8.85
12567,4.22
12579,-0.02
12591,-3.03
12603,-4.39
12615,-4.1
12627,-2.55
12639,-0.26
12651,2.27
12663,4.71
12675,6.91
12686,8.83
12697,10.5
12709,12.0
12721,13.48
12733,15.16
12745,17.24
12757,19.83
12769,22.92
12781,26.4
12793,30.13
12805,34.06
12817,38.21
12829,42.68
12841,47.49
12853,52.55
12865,57.68
12876,62.7
12887,67.57
12899,72.43
12911,77.53
12923,83.12
12935,89.3
12947,95.95
12959,102.75
12971,109.28
12983,115.09
12995,119.77
13007,123.02
13019,124.71
13031,124.83
13043,123.42
13055,120.41
13066,115.48
13077,108.15
13089,97.89
13101,84.42
13113,67.91
13125,48.99
13137,28.64
13149,7.97
13161,-11.98
13173,-30.46
13185,-47.02
13197,-61.56
13209,-74.18
13221,-85.01
13233,-93.86
13245,-100.1
13256,-102.71
13267,-100.67
13279,-93.56
13291,-82.01
13303,-67.88
13315,-53.7
13327,-41.95
13339,-34.22
13351,-30.79
13363,-30.7
13375,-32.21
13387,-33.45
13399,-33.02
13411,-30.28
13423,-25.48
13435,-19.51
13446,-13.62
13457,-9.02
13469,-6.57
13481,-6.64
13493,-9.14
13505,-13.57
13517,-19.2
13529,-25.19
13541,-30.68
13553,-34.88
13565,-37.18
13577,-37.3
13589,-35.43
13601,-32.32
13613,-29.26
13625,-27.82
13636,-29.39
13647,-34.63
13659,-43.08
13671,-53.05
13683,-62.07
13695,-67.7
13707,-68.38
13719,-63.95
13731,-55.68
13743,-45.71
13755,-36.27
13767,-29.06
13779,-24.88
13791,-23.78
13803,-25.26
13815,-28.7
13826,-33.58
13837,-39.51
13849,-46.11
13861,-52.82
13873,-58.88
13885,-63.34
13897,-65.35
13909,-64.61
13921,-61.48
13933,-57.01
13945,-52.46
13957,-48.89
13969,-46.75
13981,-45.9
13993,-45.73
14005,-45.36
14016,-43.84
14027,-40.23
14039,-33.93
14051,-24.89
14063,-13.88
14075,-2.41
14087,7.67
14099,14.68
14111,17.71
14123,16.72
14135,12.41
14147,5.83
14159,-1.89
14171,-9.66
14183,-16.45
14195,-21.29
14206,-23.5
14217,-22.98
14229,-20.32
14241,-16.64
14253,-13.32
14265,-11.41
14277,-11.4
14289,-13.13
14301,-15.96
14313,-19.01
14325,-21.5
14337,-22.93
14349,-23.15
14361,-22.37
14373,-20.96
14385,-19.37
14396,-17.95
14407,-16.84
14419,-15.99
14431,-15.22
14443,-14.3
14455,-13.09
14467,-11.56
14479,-9.75
14491,-7.73
14503,-5.52
14515,-3.1
14527,-0.51
14539,2.14
14551,4.62
14563,6.69
14575,8.13
14586,8.89
14597,9.07
14609,8.91
14621,8.69
14633,8.61
14645,8.82
14657,9.31
14669,10.03
14681,10.9
14693,11.84
14705,12.83
14717,13.93
14729,15.18
14741,16.66
14753,18.39
14765,20.27
14776,22.16
14787,23.89
14799,25.29
14811,26.29
14823,26.95
14835,27.4
14847,27.81
14859,28.27
14871,28.75
14883,29.12
14895,29.23
14907,28.94
14919,28.27
14931,27.34
14943,26.32
14955,25.32
14966,24.32
14977,23.2
14989,21.82
15001,20.14
15013,18.25
15025,16.34
15037,14.62
15049,13.17
15061,11.95
15073,10.86
15085,9.81
15097,8.81
15109,7.89
15121,7.14
15133,6.6
15145,6.29
15156,6.21
15167,6.38
15179,6.76
15191,7.3
15203,7.89
15215,8.39
15227,8.69
15239,8.74
15251,8.55
15263,8.16
15275,7.62
15287,6.99
15299,6.3
15311,5.58
15323,4.88
15335,4.22
15346,3.61
15357,3.04
15369,2.51
15381,2.01
15393,1.58
15405,1.21
15417,0.91
15429,0.64
15441,0.35
15453,-0.02
15465,-0.46
15477,-0.96
15489,-1.45
15501,-1.87
15513,-2.21
15525,-2.49
15536,-2.7
15547,-2.79
15559,-2.66
15571,-2.24
15583,-1.52
15595,-0.63
15607,0.26
15619,0.96
15631,1.39
15643,1.63
15655,1.83
15667,2.11
15679,2.53
15691,3.05
15703,3.52
15715,3.88
15726,4.06
15737,4.13
15749,4.15
15761,4.16
15773,4.13
15785,3.98
15797,3.62
15809,3.04
15821,2.38
15833,1.8
15845,1.51
15857,1.62
15869,2.09
15881,2.73
15893,3.32
15905,3.67
15916,3.7
15927,3.49
15939,3.2
15951,3.01
15963,3.06
15975,3.4
15987,3.95
15999,4.56
16011,5.05
16023,5.3
16035,5.26
16047,4.96
16059,4.45
16071,3.8
16083,3.07
16095,2.36
16106,1.74
16117,1.32
16129,1.14
16141,1.22
16153,1.48
16165,1.81
16177,2.11
16189,2.33
16201,2.41
16213,2.34
16225,2.11
16237,1.73
16249,1.27
16261,0.79
16273,0.33
16285,-0.11
16296,-0.56
16307,-1.05
16319,-1.54
16331,-1.97
16343,-2.26
16355,-2.34
16367,-2.2
16379,-1.85
16391,-1.31
16403,-0.6
16415,0.24
16427,1.11
16439,1.86
16451,2.35
16463,2.5
16475,2.32
16486,1.93
16497,1.49
16509,1.13
16521,0.93
16533,0.87
16545,0.93
16557,1.0
16569,0.99
16581,0.85
16593,0.54
16605,0.09
16617,-0.41
16629,-0.87
16641,-1.24
16653,-1.49
16665,-1.67
16676,-1.88
16687,-2.16
16699,-2.5
16711,-2.81
16723,-2.95
16735,-2.81
16747,-2.36
16759,-1.66
16771,-0.88
16783,-0.16
16795,0.43
16807,0.9
16819,1.36
16831,1.88
16843,2.44
16855,2.91
16866,3.14
16877,3.08
16889,2.75
16901,2.33
16913,1.98
16925,1.83
16937,1.87
16949,2.01
16961,2.14
16973,2.16
16985,2.05
16997,1.84
17009,1.55
17021,1.17
17033,0.71
17045,0.17
17056,-0.4
17067,-0.93
17079,-1.32
17091,-1.47
17103,-1.37
17115,-1.04
17127,-0.5
17139,0.21
17151,1.06
17163,2.02
17175,2.99
17187,3.79
17199,4.23
17211,4.16
17223,3.63
17235,2.78
17246,1.86
17257,1.05
17269,0.45
17281,0.04
17293,-0.28
17305,-0.57
17317,-0.91
17329,-1.27
17341,-1.64
17353,-1.94
17365,-2.15
17377,-2.19
17389,-2.04
17401,-1.75
17413,-1.4
17425,-1.13
17436,-1.04
17447,-1.15
17459,-1.35
17471,-1.49
17483,-1.39
17495,-0.96
17507,-0.23
17519,0.74
17531,1.79
17543,2.73
17555,3.43
17567,3.8
17579,3.88
17591,3.77
17603,3.65
17615,3.61
17626,3.68
17637,3.78
17649,3.8
17661,3.7
17673,3.51
17685,3.34
17697,3.29
17709,3.37
17721,3.45
17733,3.42
17745,3.15
17757,2.67
17769,2.04
17781,1.37
17793,0.71
17805,0.06
17816,-0.57
17827,-1.1
17839,-1.43
17851,-1.46
17863,-1.19
17875,-0.72
17887,-0.19
17899,0.31
17911,0.77
17923,1.27
17935,1.86
17947,2.54
17959,3.2
17971,3.66
17983,3.81
17995,3.61
18006,3.13
18017,2.55
18029,2.07
18041,1.86
18053,1.96
18065,2.32
18077,2.74
18089,3.02
18101,2.99
18113,2.61
18125,1.99
18137,1.33
18149,0.81
18161,0.51
18173,0.38
18185,0.31
18196,0.19
18207,-0.02
18219,-0.24
18231,-0.33
18243,-0.16
18255,0.31
18267,1.04
18279,1.92
18291,2.81
18303,3.62
18315,4.26
18327,4.7
18339,4.95
18351,5.03
18363,5.01
18375,4.95
18386,4.91
18397,4.9
18409,4.88
18421,4.75
18433,4.44
18445,3.94
18457,3.31
18469,2.63
18481,1.98
18493,1.39
18505,0.85
18517,0.35
18529,-0.12
18541,-0.56
18553,-0.95
18565,-1.27
18576,-1.53
18587,-1.71
18599,-1.81
18611,-1.78
18623,-1.6
18635,-1.23
18647,-0.71
18659,-0.09
18671,0.56
18683,1.16
18695,1.67
18707,2.03
18719,2.22
18731,2.22
18743,2.01
18755,1.7
18766,1.4
18777,1.25
18789,1.29
18801,1.41
18813,1.4
18825,1.07
18837,0.38
18849,-0.56
18861,-1.48
18873,-2.2
18885,-2.62
18897,-2.82
18909,-2.92
18921,-3.01
18933,-3.09
18945,-3.08
18956,-2.96
18967,-2.76
18979,-2.59
18991,-2.55
19003,-2.65
19015,-2.82
19027,-2.93
19039,-2.86
19051,-2.58
19063,-2.11
19075,-1.59
19087,-1.14
19099,-0.85
19111,-0.74
19123,-0.75
19135,-0.8
19146,-0.81
19157,-0.78
19169,-0.78
19181,-0.88
19193,-1.12
19205,-1.47
19217,-1.81
19229,-2.01
19241,-2.0
19253,-1.82
19265,-1.57
19277,-1.42
19289,-1.44
19301,-1.64
19313,-1.94
19325,-2.25
19336,-2.49
19347,-2.67
19359,-2.87
19371,-3.17
19383,-3.6
19395,-4.09
19407,-4.51
19419,-4.72
19431,-4.63
19443,-4.26
19455,-3.68
19467,-3.04
19479,-2.46
19491,-1.93
19503,-1.41
19515,-0.81
19526,-0.12
19537,0.63
19549,1.29
19561,1.75
19573,1.92
19585,1.77
19597,1.42
19609,0.99
19621,0.64
19633,0.48
19645,0.56
19657,0.86
19669,1.25
19681,1.59
19693,1.74
19705,1.67
19716,1.46
19727,1.29
19739,1.34
19751,1.63
19763,2.04
19775,2.31
19787,2.27
19799,1.91
19811,1.38
19823,0.96
19835,0.82
19847,0.97
19859,1.26
19871,1.46
19883,1.41
19895,1.14
19906,0.79
19917,0.55
19929,0.54
19941,0.76
19953,1.1
19965,1.42
19977,1.65
19989,1.74
20001,1.73
20013,1.66
20025,1.57
20037,1.47
20049,1.35
20061,1.22
20073,1.11
20085,1.06
20096,1.07
20107,1.11
20119,1.07
20131,0.87
20143,0.49
20155,0.01
20167,-0.41
20179,-0.6
20191,-0.5
20203,-0.14
20215,0.33
20227,0.74
20239,0.97
20251,1.03
20263,0.98
20275,0.93
20286,0.93
20297,0.97
20309,1.03
20321,1.12
20333,1.26
20345,1.5
20357,1.81
20369,2.08
20381,2.19
20393,2.05
20405,1.67
20417,1.15
20429,0.63
20441,0.2
20453,-0.16
20465,-0.51
20476,-0.92
20487,-1.42
20499,-1.94
20511,-2.4
20523,-2.69
20535,-2.79
20547,-2.69
20559,-2.49
20571,-2.32
20583,-2.3
20595,-2.51
20607,-2.9
20619,-3.36
20631,-3.69
20643,-3.77
20655,-3.58
20666,-3.21
20677,-2.83
20689,-2.56
20701,-2.41
20713,-2.32
20725,-2.2
20737,-2.02
20749,-1.81
20761,-1.65
20773,-1.61
20785,-1.7
20797,-1.85
20809,-1.96
20821,-1.93
20833,-1.71
20845,-1.34
20856,-0.92
20867,-0.54
20879,-0.27
20891,-0.07
20903,0.11
20915,0.33
20927,0.56
20939,0.71
20951,0.67
20963,0.37
20975,-0.12
20987,-0.68
20999,-1.17
