seconds,BVP
9,-37.33
21,-74.38
33,-116.38
45,-156.26
57,-189.13
69,-212.4
81,-225.26
93,-228.05
105,-222.2
117,-209.97
129,-194.13
141,-177.17
153,-160.84
165,-146.49
177,-135.49
188,-129.92
199,-132.02
211,-143.07
223,-161.96
235,-184.95
247,-206.48
259,-221.0
271,-224.63
283,-215.69
295,-194.67
307,-163.48
319,-125.07
331,-83.13
343,-41.55
355,-3.25
367,30.86
378,62.23
389,93.73
401,127.41
413,162.91
425,196.9
437,224.28
449,240.13
461,241.5
473,228.31
485,202.65
497,167.8
509,127.09
521,83.17
533,37.59
545,-9.11
557,-56.62
568,-103.86
579,-147.53
591,-181.85
603,-199.34
615,-193.36
627,-160.93
639,-104.61
651,-32.19
663,45.52
675,117.45
687,174.62
699,210.73
711,222.35
723,208.78
735,172.58
747,120.07
758,60.99
769,6.39
781,-34.87
793,-59.26
805,-69.95
817,-75.02
829,-83.88
841,-102.68
853,-131.57
865,-164.65
877,-192.51
889,-206.32
901,-201.59
913,-179.93
925,-148.2
937,-115.8
948,-90.71
959,-76.64
971,-72.17
983,-72.03
995,-69.95
1007,-61.26
1019,-44.42
1031,-20.32
1043,9.19
1055,42.99
1067,81.07
1079,123.5
1091,168.71
1103,212.17
1115,246.95
1127,265.53
1138,262.24
1149,235.35
1161,187.62
1173,125.69
1185,58.27
1197,-5.57
1209,-58.15
1221,-94.07
1233,-110.77
1245,-108.74
1257,-91.21
1269,-63.59
1281,-32.71
1293,-5.34
1305,12.83
1317,17.87
1328,8.34
1339,-14.18
1351,-44.87
1363,-76.35
1375,-100.49
1387,-110.84
1399,-104.99
1411,-85.66
1423,-59.98
1435,-37.31
1447,-26.18
1459,-31.55
1471,-53.28
1483,-86.41
1495,-122.79
1507,-153.46
1518,-171.15
1529,-171.81
1541,-155.2
1553,-124.42
1565,-84.9
1577,-43.45
1589,-7.65
1601,14.93
1613,17.5
1625,-4.24
1637,-49.76
1649,-112.16
1661,-178.86
1673,-234.07
1685,-263.32
1697,-258.13
1708,-218.82
1719,-154.97
1731,-82.58
1743,-19.15
1755,21.58
1767,33.7
1779,20.56
1791,-7.06
1803,-34.96
1815,-50.44
1827,-46.02
1839,-21.15
1851,18.66
1863,64.33
1875,106.34
1887,137.62
1898,154.97
1909,159.34
1921,154.7
1933,146.35
1945,139.09
1957,135.85
1969,136.86
1981,140.04
1993,141.96
2005,139.26
2017,129.89
2029,113.56
2041,91.24
2053,64.24
2065,33.67
2077,0.68
2088,-32.66
2099,-62.51
2111,-83.8
2123,-91.75
2135,-84.56
2147,-65.1
2159,-40.55
2171,-19.67
2183,-8.84
2195,-9.15
2207,-15.7
2219,-20.0
2231,-13.54
2243,8.37
2255,44.38
2267,87.38
2278,126.92
2289,153.19
2301,161.24
2313,153.21
2325,137.61
2337,126.0
2349,128.22
2361,148.25
2373,182.84
2385,222.96
2397,257.85
2409,278.87
2421,281.95
2433,267.2
2445,236.84
2457,193.01
2468,137.32
2479,72.26
2491,2.77
2503,-63.1
2515,-116.09
2527,-148.95
2539,-160.21
2551,-155.23
2563,-144.46
2575,-139.49
2587,-148.31
2599,-173.23
2611,-211.11
2623,-255.64
2635,-299.75
2647,-337.09
2658,-362.55
2669,-372.76
2681,-367.02
2693,-348.07
2705,-321.72
2717,-295.04
2729,-273.41
2741,-257.9
2753,-244.89
2765,-228.07
2777,-201.95
2789,-165.34
2801,-122.08
2813,-78.81
2825,-41.34
2837,-11.46
2848,13.95
2859,40.56
2871,72.75
2883,110.65
2895,149.6
2907,182.98
2919,205.97
2931,218.45
2943,225.23
2955,233.4
2967,248.52
2979,271.68
2991,298.76
3003,322.2
3015,334.41
3027,330.65
3038,310.26
3049,276.23
3061,233.35
3073,186.23
3085,137.92
3097,90.11
3109,43.75
3121,0.7
3133,-35.71
3145,-60.94
3157,-70.63
3169,-62.88
3181,-40.03
3193,-9.16
3205,19.35
3217,34.25
3228,26.98
3239,-5.54
3251,-59.22
3263,-123.35
3275,-183.28
3287,-224.46
3299,-236.85
3311,-218.15
3323,-174.77
3335,-119.6
3347,-67.71
3359,-30.89
3371,-13.94
3383,-13.81
3395,-21.69
3407,-26.71
3418,-19.83
3429,3.59
3441,43.11
3453,94.14
3465,149.97
3477,202.84
3489,245.51
3501,272.82
3513,282.84
3525,277.29
3537,260.96
3549,240.24
3561,221.32
3573,209.55
3585,206.88
3597,211.24
3608,217.46
3619,219.05
3631,210.79
3643,190.86
3655,161.51
3667,128.68
3679,101.46
3691,87.07
3703,88.41
3715,103.88
3727,128.89
3739,158.18
3751,187.66
3763,215.13
3775,240.25
3787,265.54
3798,291.53
3809,314.74
3821,327.64
3833,321.11
3845,288.14
3857,226.77
3869,141.32
3881,29.58
3893,-97.77
3905,-222.25
3917,-324.81
3929,-394.3
3941,-430.55
3953,-440.15
3965,-431.03
3977,-409.55
3988,-380.56
3999,-346.47
4011,-310.93
4023,-278.28
4035,-252.17
4047,-233.92
4059,-221.86
4071,-212.64
4083,-203.02
4095,-191.25
4107,-175.82
4119,-157.77
4131,-139.55
4143,-123.92
4155,-112.47
4167,-104.71
4178,-98.89
4189,-93.04
4201,-85.99
4213,-76.6
4225,-65.06
4237,-52.42
4249,-39.96
4261,-28.33
4273,-16.98
4285,-4.81
4297,9.23
4309,25.37
4321,43.41
4333,62.16
4345,79.75
4357,94.47
4368,104.45
4379,108.7
4391,107.08
4403,100.17
4415,88.79
4427,74.26
4439,58.15
4451,42.01
4463,27.26
4475,15.05
4487,6.35
4499,1.83
4511,1.7
4523,5.34
4535,11.93
4547,20.6
4558,30.42
4569,40.57
4581,50.21
4593,58.83
4605,66.16
4617,72.04
4629,75.72
4641,76.83
4653,75.3
4665,71.33
4677,65.34
4689,57.86
4701,49.61
4713,41.47
4725,34.46
4737,28.43
4748,23.54
4759,20.09
4771,18.36
4783,18.43
4795,20.26
4807,23.37
4819,26.47
4831,35.24
4843,51.34
4855,75.33
4867,106.89
4879,144.97
4891,187.68
4903,232.47
4915,276.44
4927,316.43
4938,349.41
4949,371.59
4961,380.31
4973,373.95
4985,352.22
4997,316.17
5009,268.18
5021,211.83
5033,151.43
5045,91.73
5057,36.3
5069,-11.65
5081,-50.1
5093,-78.37
5105,-97.22
5117,-108.57
5128,-114.98
5139,-119.4
5151,-124.21
5163,-131.73
5175,-142.9
5187,-157.42
5199,-173.78
5211,-189.63
5223,-202.27
5235,-209.04
5247,-207.99
5259,-197.87
5271,-178.82
5283,-152.41
5295,-120.75
5307,-85.89
5318,-49.61
5329,-13.52
5341,21.03
5353,53.16
5365,82.26
5377,107.97
5389,129.67
5401,146.96
5413,159.77
5425,168.15
5437,171.96
5449,170.88
5461,164.69
5473,153.23
5485,136.81
5497,114.85
5508,87.72
5519,56.88
5531,24.55
5543,-7.55
5555,-38.79
5567,-69.22
5579,-100.11
5591,-132.67
5603,-171.35
5615,-218.24
5627,-271.51
5639,-326.06
5651,-376.05
5663,-416.91
5675,-444.74
5687,-458.68
5698,-459.01
5709,-454.54
5721,-451.9
5733,-452.41
5745,-453.33
5757,-451.6
5769,-446.99
5781,-439.34
5793,-432.22
5805,-428.26
5817,-440.56
5829,-475.95
5841,-530.69
5853,-593.69
5865,-653.19
5877,-702.6
5888,-736.79
5899,-758.33
5911,-769.85
5923,-788.68
5935,-824.97
5947,-875.87
5959,-930.23
5971,-976.76
5983,-1011.43
5995,-1032.75
6007,-1049.49
6019,-970.68
6031,-759.84
6043,-450.32
6055,-123.9
6067,148.16
6078,339.77
6089,431.28
6101,462.91
6113,464.06
6125,453.22
6137,424.7
6149,371.89
6161,311.18
6173,257.42
6185,222.62
6197,211.13
6209,225.53
6221,258.79
6233,303.73
6245,342.54
6257,363.59
6268,366.46
6279,357.73
6291,346.15
6303,336.48
6315,332.48
6327,330.91
6339,328.85
6351,317.68
6363,293.45
6375,259.51
6387,222.57
6399,189.83
6411,165.06
6423,150.76
6435,144.83
6447,145.15
6458,146.65
6469,146.09
6481,143.09
6493,138.14
6505,132.11
6517,124.96
6529,117.58
6541,110.58
6553,106.16
6565,106.18
6577,112.45
6589,125.87
6601,144.97
6613,166.35
6625,185.38
6637,198.08
6648,202.02
6659,197.15
6671,185.64
6683,170.93
6695,156.71
6707,146.32
6719,141.96
6731,143.47
6743,147.12
6755,145.97
6767,132.09
6779,100.73
6791,53.93
6803,0.85
6815,-44.93
6827,-71.31
6838,-72.79
6849,-52.59
6861,-20.26
6873,13.16
6885,39.95
6897,57.78
6909,68.0
6921,72.79
6933,72.73
6945,66.6
6957,53.08
6969,32.85
6981,9.34
6993,-12.09
7005,-26.17
7017,-30.01
7028,-23.91
7039,-11.19
7051,3.53
7063,16.24
7075,25.1
7087,30.88
7099,36.25
7111,44.53
7123,57.85
7135,76.82
7147,100.5
7159,127.06
7171,154.46
7183,180.81
7195,204.61
7207,224.9
7218,242.25
7229,258.91
7241,278.68
7253,304.68
7265,337.0
7277,370.64
7289,396.36
7301,403.95
7313,386.36
7325,342.91
7337,278.9
7349,202.99
7361,124.13
7373,50.08
7385,-12.19
7397,-56.08
7408,-76.37
7419,-72.06
7431,-48.76
7443,-18.03
7455,7.04
7467,17.88
7479,14.64
7491,5.05
7503,-0.87
7515,3.06
7527,16.76
7539,35.6
7551,54.46
7563,70.61
7575,82.83
7587,88.49
7598,82.42
7609,58.83
7621,16.37
7633,-37.89
7645,-88.49
7657,-117.35
7669,-112.02
7681,-72.19
7693,-10.93
7705,50.58
7717,90.81
7729,95.24
7741,59.94
7753,-8.76
7765,-97.1
7777,-187.77
7788,-263.3
7799,-309.54
7811,-318.71
7823,-291.64
7835,-238.67
7847,-177.46
7859,-128.43
7871,-108.74
7883,-126.43
7895,-177.75
7907,-248.64
7919,-319.75
7931,-373.22
7943,-397.95
7955,-391.68
7967,-359.86
7978,-311.99
7989,-258.06
8001,-206.0
8013,-160.78
8025,-124.48
8037,-96.76
8049,-75.17
8061,-55.95
8073,-35.1
8085,-9.73
8097,20.81
8109,54.7
8121,88.23
8133,117.78
8145,140.97
8157,157.33
8168,167.71
8179,173.52
8191,175.95
8203,176.34
8215,176.67
8227,179.75
8239,188.95
8251,207.03
8263,235.15
8275,272.17
8287,314.29
8299,355.55
8311,388.58
8323,406.07
8335,402.28
8347,374.84
8358,325.49
8369,259.69
8381,185.08
8393,109.03
8405,36.44
8417,-31.27
8429,-95.17
8441,-156.45
8453,-213.62
8465,-261.76
8477,-293.81
8489,-303.46
8501,-288.66
8513,-252.78
8525,-203.69
8537,-150.39
8548,-99.94
8559,-54.84
8571,-13.67
8583,26.7
8595,68.74
8607,112.4
8619,155.6
8631,195.19
8643,228.26
8655,253.03
8667,269.44
8679,279.38
8691,286.04
8703,293.04
8715,301.86
8727,310.46
8738,313.16
8749,302.74
8761,273.6
8773,224.43
8785,159.03
8797,85.2
8809,12.32
8821,-51.22
8833,-99.63
8845,-130.55
8857,-145.24
8869,-148.3
8881,-146.74
8893,-148.36
8905,-159.83
8917,-184.66
8928,-222.76
8939,-270.18
8951,-319.69
8963,-362.04
8975,-387.44
8987,-388.01
8999,-360.51
9011,-308.16
9023,-240.12
9035,-168.8
9047,-105.14
9059,-54.95
9071,-17.91
9083,10.73
9095,36.96
9107,65.15
9118,96.8
9129,131.33
9141,167.17
9153,202.43
9165,234.62
9177,260.6
9189,277.03
9201,281.45
9213,273.46
9225,254.88
9237,228.19
9249,194.69
9261,153.37
9273,102.26
9285,41.61
9297,-22.76
9308,-79.0
9319,-112.47
9331,-112.04
9343,-76.27
9355,-15.64
9367,50.49
9379,100.88
9391,120.16
9403,103.52
9415,57.13
9427,-5.38
9439,-68.01
9451,-116.79
9463,-142.04
9475,-139.0
9487,-107.57
9498,-52.87
9509,14.71
9521,80.9
9533,131.14
9545,155.58
9557,153.17
9569,131.99
9581,105.07
9593,83.87
9605,73.03
9617,68.77
9629,62.31
9641,45.52
9653,15.15
9665,-26.21
9677,-72.72
9688,-118.35
9699,-158.71
9711,-190.15
9723,-208.82
9735,-210.42
9747,-192.25
9759,-155.97
9771,-108.06
9783,-57.82
9795,-12.99
9807,23.15
9819,52.25
9831,77.7
9843,101.02
9855,119.47
9867,127.2
9878,118.56
9889,91.44
9901,48.88
9913,-1.83
9925,-51.03
9937,-88.97
9949,-108.23
9961,-105.61
9973,-83.53
9985,-50.37
9997,-18.82
10009,-2.18
10021,-9.48
10033,-41.68
10045,-90.43
10057,-141.19
10068,-178.37
10079,-190.57
10091,-173.31
10103,-128.87
10115,-63.88
10127,13.46
10139,94.87
10151,172.56
10163,238.98
10175,287.76
10187,314.91
10199,320.69
10211,310.67
10223,295.13
10235,286.01
10247,292.45
10258,316.77
10269,352.86
10281,388.4
10293,409.44
10305,405.95
10317,375.69
10329,324.22
10341,262.01
10353,199.82
10365,144.95
10377,99.85
10389,63.55
10401,34.14
10413,10.79
10425,-5.96
10437,-15.56
10448,-19.37
10459,-21.12
10471,-26.16
10483,-39.47
10495,-63.74
10507,-98.26
10519,-139.29
10531,-181.6
10543,-220.44
10555,-253.16
10567,-279.96
10579,-303.99
10591,-329.69
10603,-360.69
10615,-397.13
10627,-434.29
10638,-463.03
10649,-472.44
10661,-453.95
10673,-405.51
10685,-333.88
10697,-253.52
10709,-182.34
10721,-135.98
10733,-123.05
10745,-142.62
10757,-185.36
10769,-236.67
10781,-281.01
10793,-305.71
10805,-303.54
10817,-273.97
10828,-223.27
10839,-163.35
10851,-108.99
10863,-73.97
10875,-66.66
10887,-87.08
10899,-126.69
10911,-171.51
10923,-207.44
10935,-225.07
10947,-221.89
10959,-201.17
10971,-168.49
10983,-128.13
10995,-81.87
11007,-30.72
11018,21.99
11029,68.84
11041,100.47
11053,110.13
11065,98.41
11077,75.01
11089,55.57
11101,54.85
11113,80.37
11125,129.57
11137,191.8
11149,253.58
11161,303.94
11173,337.48
11185,354.23
11197,357.51
11208,352.08
11219,342.92
11231,334.93
11243,332.01
11255,335.49
11267,342.69
11279,347.09
11291,340.56
11303,316.93
11315,275.44
11327,221.58
11339,164.83
11351,114.2
11363,74.32
11375,43.68
11387,16.29
11398,-14.49
11409,-52.37
11421,-96.38
11433,-142.08
11445,-184.64
11457,-221.67
11469,-254.21
11481,-285.43
11493,-317.75
11505,-350.25
11517,-377.77
11529,-392.11
11541,-385.57
11553,-354.44
11565,-301.13
11577,-233.96
11588,-164.17
11599,-101.57
11611,-50.84
11623,-10.92
11635,22.55
11647,53.41
11659,82.36
11671,107.31
11683,126.01
11695,138.47
11707,147.21
11719,154.61
11731,159.75
11743,158.06
11755,144.18
11767,116.55
11778,80.87
11789,49.45
11801,36.05
11813,49.33
11825,88.16
11837,141.76
11849,194.22
11861,230.82
11873,242.42
11885,227.04
11897,187.93
11909,131.71
11921,66.44
11933,1.15
11945,-54.33
11957,-90.31
11968,-99.31
11979,-78.82
11991,-33.25
12003,25.88
12015,82.37
12027,119.88
12039,127.19
12051,101.82
12063,50.58
12075,-13.24
12087,-74.87
12099,-123.26
12111,-154.57
12123,-172.7
12135,-186.62
12147,-205.87
12158,-235.87
12169,-275.28
12181,-316.46
12193,-348.38
12205,-360.74
12217,-347.45
12229,-308.44
12241,-250.07
12253,-183.89
12265,-123.58
12277,-81.27
12289,-63.88
12301,-70.89
12313,-94.83
12325,-124.13
12337,-147.41
12348,-156.96
12359,-150.05
12371,-128.08
12383,-95.07
12395,-56.5
12407,-19.16
12419,9.31
12431,22.23
12443,16.65
12455,-4.35
12467,-31.54
12479,-52.75
12491,-57.97
12503,-42.7
12515,-8.52
12527,39.01
12538,93.27
12549,147.59
12561,194.59
12573,225.39
12585,230.88
12597,205.29
12609,150.5
12621,77.93
12633,5.93
12645,-46.59
12657,-66.82
12669,-52.53
12681,-11.69
12693,41.95
12705,95.07
12717,139.27
12728,172.38
12739,195.95
12751,211.51
12763,218.24
12775,213.98
12787,198.41
12799,176.08
12811,156.47
12823,149.72
12835,160.7
12847,184.88
12859,208.91
12871,215.86
12883,192.95
12895,137.3
12907,57.17
12918,-31.6
12929,-111.66
12941,-169.32
12953,-197.03
12965,-193.3
12977,-161.66
12989,-109.8
13001,-49.25
13013,6.19
13025,43.19
13037,52.84
13049,34.0
13061,-5.47
13073,-51.18
13085,-86.95
13097,-101.31
13108,-91.83
13119,-65.85
13131,-37.19
13143,-20.29
13155,-24.83
13167,-53.31
13179,-102.2
13191,-164.83
13203,-234.22
13215,-303.87
13227,-367.02
13239,-415.81
13251,-441.84
13263,-438.82
13275,-405.69
13287,-348.38
13298,-278.18
13309,-207.8
13321,-146.59
13333,-98.06
13345,-60.46
13357,-29.62
13369,-2.05
13381,23.32
13393,45.76
13405,64.34
13417,78.74
13429,88.9
13441,94.26
13453,93.49
13465,85.74
13477,71.91
13488,55.01
13499,38.96
13511,26.63
13523,18.29
13535,12.04
13547,5.73
13559,-1.05
13571,-6.02
13583,-5.32
13595,4.51
13607,24.75
13619,54.37
13631,90.87
13643,131.58
13655,174.54
13667,218.18
13678,260.97
13689,301.01
13701,336.35
13713,365.17
13725,386.61
13737,401.16
13749,411.23
13761,420.76
13773,433.6
13785,451.49
13797,472.42
13809,490.76
13821,499.59
13833,494.19
13845,474.69
13857,446.82
13868,419.26
13879,399.69
13891,390.97
13903,389.74
13915,388.02
13927,376.93
13939,350.82
13951,309.41
13963,257.68
13975,203.4
13987,153.83
13999,113.28
14011,82.35
14023,58.88
14035,40.11
14047,24.39
14058,11.63
14069,2.54
14081,-2.7
14093,-5.6
14105,-9.0
14117,-16.19
14129,-29.84
14141,-50.68
14153,-77.27
14165,-106.58
14177,-135.17
14189,-160.42
14201,-181.34
14213,-198.26
14225,-212.39
14237,-225.28
14248,-238.24
14259,-252.17
14271,-267.58
14283,-284.61
14295,-302.96
14307,-322.0
14319,-340.6
14331,-357.83
14343,-373.39
14355,-388.5
14367,-405.8
14379,-428.06
14391,-455.65
14403,-484.6
14415,-506.26
14427,-509.51
14438,-485.44
14449,-432.01
14461,-356.58
14473,-274.45
14485,-203.52
14497,-157.22
14509,-139.31
14521,-142.72
14533,-153.04
14545,-155.14
14557,-139.62
14569,-106.45
14581,-63.98
14593,-24.13
14605,4.01
14617,18.7
14628,26.15
14639,36.82
14651,59.54
14663,97.17
14675,145.6
14687,196.43
14699,240.95
14711,272.99
14723,289.6
14735,289.99
14747,274.75
14759,246.11
14771,209.07
14783,171.13
14795,139.97
14807,119.86
14818,108.87
14829,99.58
14841,83.29
14853,55.96
14865,21.5
14877,-9.62
14889,-26.41
14901,-24.68
14913,-10.43
14925,2.52
14937,0.13
14949,-23.75
14961,-63.15
14973,-102.3
14985,-123.43
14997,-115.58
15008,-79.81
15019,-27.79
15031,24.31
15043,63.45
15055,84.08
15067,88.21
15079,82.14
15091,72.44
15103,63.88
15115,59.2
15127,60.19
15139,67.58
15151,80.6
15163,95.93
15175,107.9
15187,110.13
15198,97.93
15209,70.08
15221,29.12
15233,-19.78
15245,-70.92
15257,-119.72
15269,-163.69
15281,-202.29
15293,-236.18
15305,-266.33
15317,-292.7
15329,-313.85
15341,-326.68
15353,-327.27
15365,-311.71
15377,-277.31
15388,-223.92
15399,-155.06
15411,-79.1
15423,-8.43
15435,42.96
15447,64.32
15459,52.65
15471,15.67
15483,-30.13
15495,-65.5
15507,-75.34
15519,-54.04
15531,-6.1
15543,57.08
15555,122.16
15567,177.54
15578,215.52
15589,232.44
15601,228.61
15613,208.57
15625,180.72
15637,155.5
15649,141.37
15661,141.0
15673,149.38
15685,155.52
15697,147.12
15709,115.98
15721,61.8
15733,-7.26
15745,-77.37
15757,-134.06
15768,-167.09
15779,-173.73
15791,-159.43
15803,-135.93
15815,-117.11
15827,-113.7
15839,-129.51
15851,-160.03
15863,-194.03
15875,-218.25
15887,-222.49
15899,-202.79
15911,-161.8
15923,-106.14
15935,-42.72
15947,23.69
15958,90.68
15969,156.26
15981,216.86
15993,266.59
16005,299.29
16017,312.0
16029,307.18
16041,292.47
16053,277.36
16065,269.38
16077,271.44
16089,281.77
16101,295.71
16113,307.75
16125,312.83
16137,306.38
16148,284.59
16159,244.73
16171,186.67
16183,113.54
16195,31.46
16207,-52.26
16219,-131.0
16231,-200.27
16243,-257.55
16255,-301.17
16267,-330.18
16279,-344.76
16291,-347.67
16303,-344.53
16315,-342.23
16327,-345.77
16338,-355.53
16349,-366.14
16361,-368.22
16373,-352.54
16385,-314.16
16397,-254.67
16409,-181.63
16421,-105.28
16433,-34.7
16445,24.75
16457,72.18
16469,109.88
16481,141.71
16493,171.75
16505,203.55
16517,239.24
16528,278.68
16539,318.84
16551,353.48
16563,374.7
16575,374.97
16587,349.86
16599,300.77
16611,235.89
16623,168.8
16635,114.8
16647,85.83
16659,85.9
16671,109.45
16683,143.13
16695,170.87
16707,179.69
16718,163.81
16729,125.54
16741,73.11
16753,16.95
16765,-33.89
16777,-73.92
16789,-101.56
16801,-118.0
16813,-125.57
16825,-126.79
16837,-123.93
16849,-119.43
16861,-115.59
16873,-113.93
16885,-113.93
16897,-112.19
16908,-102.88
16919,-79.4
16931,-37.32
16943,23.53
16955,98.29
16967,178.03
16979,251.98
16991,309.89
17003,343.9
17015,349.37
17027,325.83
17039,277.01
17051,210.44
17063,135.88
17075,62.73
17087,-2.48
17098,-57.03
17109,-101.18
17121,-136.76
17133,-165.8
17145,-190.32
17157,-212.91
17169,-237.16
17181,-266.83
17193,-303.41
17205,-344.01
17217,-381.12
17229,-405.19
17241,-408.93
17253,-391.19
17265,-357.8
17277,-318.74
17288,-283.15
17299,-254.7
17311,-230.09
17323,-201.56
17335,-161.74
17347,-107.96
17359,-43.91
17371,21.82
17383,79.1
17395,119.13
17407,136.33
17419,128.76
17431,98.25
17443,50.74
17455,-3.67
17467,-52.09
17478,-82.16
17489,-86.44
17501,-66.16
17513,-31.36
17525,2.7
17537,21.89
17549,19.71
17561,-0.31
17573,-26.48
17585,-44.36
17597,-42.66
17609,-17.66
17621,26.17
17633,78.37
17645,126.27
17657,159.36
17668,172.16
17679,165.26
17691,144.3
17703,117.44
17715,92.12
17727,73.19
17739,62.24
17751,58.68
17763,61.27
17775,68.27
17787,76.38
17799,79.7
17811,70.45
17823,42.23
17835,-5.42
17847,-63.99
17858,-117.48
17869,-148.21
17881,-144.77
17893,-108.09
17905,-52.0
17917,1.81
17929,32.42
17941,27.36
17953,-14.06
17965,-82.69
17977,-163.91
17989,-242.93
18001,-308.02
18013,-351.56
18025,-370.32
18037,-365.48
18048,-342.35
18059,-309.11
18071,-274.51
18083,-244.66
18095,-221.29
18107,-201.99
18119,-182.44
18131,-159.43
18143,-132.51
18155,-103.37
18167,-73.61
18179,-42.81
18191,-8.29
18203,32.69
18215,80.18
18227,129.74
18238,173.13
18249,201.04
18261,207.49
18273,192.91
18285,164.62
18297,134.58
18309,115.06
18321,114.42
18333,134.47
18345,170.13
18357,210.97
18369,244.28
18381,258.18
18393,244.69
18405,202.63
18417,138.79
18428,66.91
18439,3.51
18451,-38.38
18463,-54.92
18475,-53.18
18487,-47.79
18499,-53.17
18511,-75.63
18523,-110.06
18535,-142.58
18547,-157.84
18559,-146.52
18571,-109.28
18583,-55.44
18595,1.4
18607,48.46
18618,77.24
18629,84.52
18641,71.94
18653,45.04
18665,12.23
18677,-16.79
18689,-32.91
18701,-29.72
18713,-5.28
18725,37.49
18737,91.54
18749,147.17
18761,193.88
18773,222.37
18785,226.89
18797,207.31
18808,170.44
18819,128.9
18831,97.83
18843,89.38
18855,107.42
18867,145.16
18879,186.7
18891,212.55
18903,206.74
18915,163.04
18927,87.43
18939,-4.16
18951,-91.43
18963,-156.67
18975,-189.95
18987,-190.94
18998,-167.76
19009,-133.74
19021,-103.15
19033,-87.4
19045,-92.24
19057,-116.51
19069,-152.81
19081,-189.98
19093,-216.64
19105,-224.93
19117,-212.37
19129,-181.43
19141,-137.57
19153,-86.54
19165,-32.66
19177,21.43
19188,74.03
19199,122.96
19211,164.7
19223,194.76
19235,208.96
19247,205.37
19259,185.82
19271,156.33
19283,125.38
19295,100.75
19307,86.16
19319,79.22
19331,72.84
19343,58.9
19355,33.3
19367,-1.04
19378,-35.11
19389,-59.01
19401,-67.59
19413,-63.35
19425,-54.21
19437,-47.55
19449,-44.78
19461,-39.84
19473,-22.45
19485,15.84
19497,75.9
19509,149.24
19521,220.85
19533,275.08
19545,301.93
19557,300.63
19568,279.45
19579,252.25
19591,232.73
19603,229.14
19615,241.11
19627,260.07
19639,272.78
19651,267.28
19663,238.04
19675,187.99
19687,126.58
19699,64.49
19711,8.88
19723,-39.18
19735,-83.19
19747,-127.35
19758,-172.12
19769,-212.47
19781,-239.47
19793,-245.0
19805,-227.09
19817,-192.77
19829,-156.46
19841,-134.54
19853,-138.0
19865,-167.33
19877,-212.09
19889,-256.12
19901,-284.64
19913,-290.29
19925,-274.32
19937,-243.24
19948,-203.79
19959,-159.43
19971,-110.9
19983,-59.6
19995,-11.15
20007,24.82
20019,38.67
20031,26.85
20043,-4.46
20055,-40.73
20067,-65.12
20079,-66.29
20091,-43.23
20103,-4.5
20115,37.43
20127,72.52
20138,96.83
20149,111.33
20161,117.53
20173,114.21
20185,97.36
20197,63.87
20209,15.88
20221,-37.68
20233,-84.19
20245,-113.39
20257,-122.33
20269,-116.44
20281,-106.13
20293,-101.08
20305,-106.03
20317,-119.34
20328,-135.32
20339,-147.32
20351,-150.37
20363,-141.88
20375,-121.2
20387,-88.66
20399,-44.89
20411,8.86
20423,70.03
20435,133.43
20447,190.63
20459,230.97
20471,244.74
20483,227.41
20495,183.18
20507,125.52
20518,73.32
20529,44.35
20541,48.22
20553,82.71
20565,134.89
20577,186.21
20589,219.01
20601,221.59
20613,190.86
20625,131.77
20637,55.26
20649,-24.65
20661,-93.57
20673,-139.38
20685,-154.72
20697,-138.66
20708,-97.69
20719,-44.72
20731,3.62
20743,31.28
20755,27.65
20767,-9.38
20779,-72.93
20791,-149.71
20803,-224.35
20815,-283.51
20827,-318.3
20839,-324.88
20851,-303.72
20863,-258.45
20875,-195.3
20887,-122.32
20898,-48.13
20909,20.21
20921,78.83
20933,127.41
20945,167.65
20957,200.94
20969,227.06
20981,244.24
20993,250.92
