seconds,BVP
9,-4.28
21,-4.47
33,-4.7
45,-5.04
57,-5.53
69,-6.18
81,-7.0
93,-7.95
105,-8.94
117,-9.81
129,-10.35
141,-10.4
153,-9.87
165,-8.84
176,-7.49
187,-6.06
199,-4.73
211,-3.57
223,-2.53
235,-1.53
247,-0.54
259,0.43
271,1.28
283,1.94
295,2.41
307,2.75
319,3.09
331,3.49
343,3.94
355,4.3
366,4.38
377,4.06
389,3.37
401,2.48
413,1.63
425,1.02
437,0.72
449,0.69
461,0.79
473,0.96
485,1.19
497,1.53
509,2.05
521,2.74
533,3.58
545,4.48
556,5.34
567,6.09
579,6.67
591,7.02
603,7.1
615,6.9
627,6.43
639,5.74
651,4.94
663,4.2
675,3.7
687,3.58
699,3.92
711,4.64
723,5.55
735,6.37
746,6.87
757,6.98
769,6.78
781,6.45
793,6.17
805,5.99
817,5.9
829,5.89
841,6.05
853,6.57
865,7.68
877,9.52
889,11.98
901,14.77
913,17.51
925,19.83
936,21.52
947,22.55
959,22.99
971,23.03
983,22.92
995,22.96
1007,23.47
1019,24.7
1031,26.81
1043,29.76
1055,33.38
1067,37.45
1079,41.78
1091,46.32
1103,51.06
1115,56.01
1126,61.09
1137,66.08
1149,70.73
1161,74.82
1173,78.22
1185,80.88
1197,82.82
1209,83.99
1221,84.28
1233,83.47
1245,81.25
1257,77.22
1269,70.85
1281,61.48
1293,48.52
1305,31.66
1316,11.2
1327,-11.76
1339,-35.33
1351,-57.26
1363,-75.39
1375,-88.23
1387,-95.29
1399,-97.04
1411,-94.73
1423,-90.03
1435,-84.76
1447,-80.52
1459,-78.47
1471,-79.02
1483,-81.64
1495,-84.97
1506,-87.21
1517,-86.71
1529,-82.48
1541,-74.56
1553,-63.8
1565,-51.53
1577,-39.01
1589,-27.08
1601,-16.12
1613,-6.09
1625,3.17
1637,11.71
1649,19.43
1661,26.03
1673,31.08
1685,34.16
1696,34.96
1707,33.38
1719,29.61
1731,24.13
1743,17.73
1755,11.36
1767,5.99
1779,2.4
1791,0.91
1803,1.3
1815,2.83
1827,4.55
1839,5.59
1851,5.56
1863,4.55
1875,3.04
1886,1.61
1897,0.68
1909,0.39
1921,0.56
1933,0.88
1945,0.98
1957,0.59
1969,-0.35
1981,-1.71
1993,-3.18
2005,-4.42
2017,-5.19
2029,-5.51
2041,-5.67
2053,-6.15
2065,-7.48
2076,-10.01
2087,-13.87
2099,-18.84
2111,-24.51
2123,-30.28
2135,-35.6
2147,-40.16
2159,-43.94
2171,-47.21
2183,-50.32
2195,-53.37
2207,-56.08
2219,-57.7
2231,-57.3
2243,-54.13
2255,-47.99
2266,-39.35
2277,-29.2
2289,-18.71
2301,-8.81
2313,0.12
2325,8.3
2337,16.38
2349,25.16
2361,35.11
2373,46.1
2385,57.16
2397,66.56
2409,72.18
2421,72.09
2433,65.11
2445,51.38
2456,32.5
2467,11.4
2479,-8.24
2491,-22.9
2503,-30.11
2515,-29.13
2527,-21.08
2539,-8.54
2551,5.34
2563,17.74
2575,26.9
2587,32.28
2599,34.43
2611,34.39
2623,33.32
2635,32.16
2646,31.47
2657,31.36
2669,31.46
2681,30.95
2693,28.78
2705,24.04
2717,16.37
2729,6.19
2741,-5.35
2753,-16.73
2765,-26.52
2777,-33.8
2789,-38.32
2801,-40.42
2813,-40.78
2825,-40.19
2836,-39.25
2847,-38.24
2859,-37.02
2871,-35.09
2883,-31.81
2895,-26.72
2907,-19.87
2919,-12.04
2931,-4.64
2943,0.56
2955,2.02
2967,-1.12
2979,-8.75
2991,-19.76
3003,-32.49
3015,-45.12
3026,-56.22
3037,-65.07
3049,-71.62
3061,-76.28
3073,-79.45
3085,-81.26
3097,-81.48
3109,-79.81
3121,-76.17
3133,-70.92
3145,-64.86
3157,-58.9
3169,-53.62
3181,-49.05
3193,-44.58
3205,-39.22
3216,-32.05
3227,-22.55
3239,-10.89
3251,2.15
3263,15.44
3275,27.78
3287,38.25
3299,46.34
3311,51.91
3323,55.11
3335,56.26
3347,55.82
3359,54.4
3371,52.78
3383,51.69
3395,51.69
3406,52.85
3417,54.73
3429,56.47
3441,57.15
3453,56.07
3465,52.98
3477,48.11
3489,42.01
3501,35.36
3513,28.78
3525,22.67
3537,17.08
3549,11.76
3561,6.3
3573,0.27
3585,-6.55
3596,-13.94
3607,-21.21
3619,-27.24
3631,-30.81
3643,-31.01
3655,-27.63
3667,-21.3
3679,-13.3
3691,-5.11
3703,2.07
3715,7.67
3727,11.74
3739,14.74
3751,17.17
3763,19.29
3775,21.09
3786,22.37
3797,22.94
3809,22.69
3821,21.75
3833,20.38
3845,18.91
3857,17.72
3869,17.09
3881,17.04
3893,17.23
3905,16.91
3917,15.05
3929,10.6
3941,2.93
3953,-7.76
3965,-20.21
3976,-32.31
3987,-41.63
3999,-46.19
4011,-45.22
4023,-39.42
4035,-30.77
4047,-21.86
4059,-15.02
4071,-11.7
4083,-12.11
4095,-15.33
4107,-19.72
4119,-23.46
4131,-25.14
4143,-24.08
4155,-20.51
4166,-15.36
4177,-9.88
4189,-5.18
4201,-1.81
4213,0.26
4225,1.55
4237,2.67
4249,4.02
4261,5.65
4273,7.36
4285,8.9
4297,10.18
4309,11.26
4321,12.24
4333,13.12
4345,13.65
4356,13.35
4367,11.75
4379,8.6
4391,3.97
4403,-1.85
4415,-8.44
4427,-15.32
4439,-21.88
4451,-27.28
4463,-30.43
4475,-30.34
4487,-26.49
4499,-19.28
4511,-10.17
4523,-1.24
4535,5.39
4546,8.3
4557,7.22
4569,2.94
4581,-3.03
4593,-9.05
4605,-13.8
4617,-16.59
4629,-17.35
4641,-16.46
4653,-14.59
4665,-12.4
4677,-10.4
4689,-8.84
4701,-7.82
4713,-7.32
4725,-7.29
4736,-7.6
4747,-7.99
4759,-8.08
4771,-7.38
4783,-5.54
4795,-2.52
4807,1.3
4819,5.27
4831,8.66
4843,10.99
4855,12.2
4867,12.62
4879,12.82
4891,13.26
4903,14.08
4915,15.08
4926,15.78
4937,15.7
4949,14.55
4961,12.34
4973,9.33
4985,5.94
4997,2.56
5009,-0.5
5021,-3.08
5033,-5.13
5045,-6.64
5057,-7.7
5069,-8.37
5081,-8.71
5093,-8.77
5105,-8.51
5116,-7.95
5127,-7.11
5139,-6.15
5151,-5.3
5163,-4.81
5175,-4.83
5187,-5.35
5199,-6.18
5211,-7.04
5223,-7.58
5235,-7.55
5247,-6.84
5259,-5.55
5271,-3.93
5283,-2.35
5295,-1.1
5306,-0.32
5317,0.09
5329,0.36
5341,0.73
5353,1.24
5365,1.75
5377,2.0
5389,1.82
5401,1.24
5413,0.55
5425,0.1
5437,0.11
5449,0.51
5461,0.97
5473,0.93
5485,-0.22
5496,-3.14
5507,-8.39
5519,-16.33
5531,-26.73
5543,-38.56
5555,-49.92
5567,-58.48
5579,-62.19
5591,-60.04
5603,-52.41
5615,-40.88
5627,-27.54
5639,-14.19
5651,-1.92
5663,8.85
5675,17.99
5686,25.37
5697,30.75
5709,34.01
5721,35.44
5733,35.73
5745,35.77
5757,36.26
5769,37.44
5781,39.04
5793,40.49
5805,41.28
5817,41.06
5829,39.84
5841,37.81
5853,35.27
5865,32.51
5876,29.71
5887,26.9
5899,24.0
5911,20.84
5923,17.28
5935,13.3
5947,9.1
5959,5.05
5971,1.51
5983,-1.28
5995,-3.35
6007,-4.95
6019,-6.45
6031,-8.16
6043,-10.2
6055,-12.51
6066,-14.83
6077,-16.81
6089,-18.07
6101,-18.35
6113,-17.59
6125,-15.98
6137,-13.91
6149,-11.85
6161,-10.11
6173,-8.67
6185,-7.2
6197,-5.15
6209,-1.99
6221,2.6
6233,8.62
6245,15.68
6256,22.97
6267,29.33
6279,33.44
6291,34.23
6303,31.39
6315,25.68
6327,18.87
6339,13.18
6351,10.51
6363,11.66
6375,16.13
6387,22.41
6399,28.6
6411,33.14
6423,35.02
6435,33.86
6446,29.64
6457,22.62
6469,13.36
6481,2.76
6493,-7.93
6505,-17.39
6517,-24.53
6529,-28.76
6541,-29.96
6553,-28.36
6565,-24.21
6577,-17.71
6589,-9.13
6601,1.02
6613,11.72
6625,21.59
6636,29.2
6647,33.51
6659,34.18
6671,31.64
6683,26.81
6695,20.66
6707,13.89
6719,6.76
6731,-0.65
6743,-8.23
6755,-15.61
6767,-22.15
6779,-27.24
6791,-30.47
6803,-31.9
6815,-31.88
6826,-30.94
6837,-29.45
6849,-27.55
6861,-25.2
6873,-22.28
6885,-18.77
6897,-14.75
6909,-10.45
6921,-6.15
6933,-2.16
6945,1.29
6957,4.1
6969,6.33
6981,8.19
6993,9.92
7005,11.64
7016,13.32
7027,14.83
7039,15.98
7051,16.69
7063,17.02
7075,17.1
7087,17.06
7099,16.97
7111,16.83
7123,16.63
7135,16.41
7147,16.28
7159,16.38
7171,16.85
7183,17.76
7195,19.06
7206,20.56
7217,21.94
7229,22.76
7241,22.55
7253,21.04
7265,18.26
7277,14.63
7289,10.88
7301,7.86
7313,6.26
7325,6.4
7337,8.14
7349,10.92
7361,13.93
7373,16.29
7385,17.32
7396,16.59
7407,14.06
7419,10.05
7431,5.06
7443,-0.28
7455,-5.33
7467,-9.51
7479,-12.38
7491,-13.7
7503,-13.48
7515,-12.05
7527,-9.91
7539,-7.63
7551,-5.56
7563,-3.8
7575,-2.22
7586,-0.74
7597,0.53
7609,1.13
7621,0.46
7633,-1.84
7645,-5.67
7657,-10.39
7669,-15.07
7681,-18.92
7693,-21.64
7705,-23.57
7717,-25.45
7729,-27.99
7741,-31.45
7753,-35.47
7765,-39.22
7776,-41.7
7787,-42.07
7799,-39.95
7811,-35.39
7823,-28.83
7835,-21.02
7847,-12.83
7859,-5.16
7871,1.18
7883,5.66
7895,8.08
7907,8.6
7919,7.7
7931,5.97
7943,4.01
7955,2.25
7966,0.91
7977,0.1
7989,-0.27
8001,-0.32
8013,-0.23
8025,-0.11
8037,-0.07
8049,-0.18
8061,-0.48
8073,-0.95
8085,-1.48
8097,-1.89
8109,-2.02
8121,-1.8
8133,-1.32
8145,-0.81
8156,-0.51
8167,-0.58
8179,-0.95
8191,-1.44
8203,-1.74
8215,-1.6
8227,-0.91
8239,0.3
8251,1.87
8263,3.58
8275,5.24
8287,6.69
8299,7.81
8311,8.53
8323,8.87
8335,8.86
8346,8.63
8357,8.31
8369,8.01
8381,7.83
8393,7.81
8405,7.94
8417,8.2
8429,8.56
8441,8.96
8453,9.38
8465,9.76
8477,10.06
8489,10.21
8501,10.15
8513,9.81
8525,9.17
8536,8.27
8547,7.28
8559,6.39
8571,5.82
8583,5.66
8595,5.89
8607,6.34
8619,6.82
8631,7.24
8643,7.65
8655,8.24
8667,9.21
8679,10.69
8691,12.58
8703,14.58
8715,16.34
8726,17.58
8737,18.26
8749,18.64
8761,19.2
8773,20.47
8785,22.78
8797,26.15
8809,30.23
8821,34.34
8833,37.58
8845,39.06
8857,38.15
8869,34.73
8881,29.41
8893,23.5
8905,18.66
8916,16.29
8927,16.85
8939,19.58
8951,22.6
8963,23.69
8975,21.12
8987,14.38
8999,4.24
9011,-7.71
9023,-19.68
9035,-30.36
9047,-38.98
9059,-45.26
9071,-49.08
9083,-50.46
9095,-49.61
9106,-47.11
9117,-43.94
9129,-41.25
9141,-39.89
9153,-40.09
9165,-41.4
9177,-42.86
9189,-43.44
9201,-42.43
9213,-39.59
9225,-35.12
9237,-29.56
9249,-23.54
9261,-17.65
9273,-12.27
9285,-7.57
9296,-3.51
9307,0.07
9319,3.4
9331,6.64
9343,9.87
9355,13.08
9367,16.17
9379,18.98
9391,21.28
9403,22.89
9415,23.68
9427,23.7
9439,23.16
9451,22.41
9463,21.8
9475,21.57
9486,21.86
9497,22.65
9509,23.79
9521,25.09
9533,26.31
9545,27.2
9557,27.61
9569,27.51
9581,26.95
9593,26.08
9605,25.04
9617,23.97
9629,23.02
9641,22.34
9653,22.09
9665,22.36
9676,23.13
9687,24.19
9699,25.28
9711,26.14
9723,26.66
9735,26.9
9747,27.03
9759,27.2
9771,27.48
9783,27.86
9795,28.31
9807,28.76
9819,29.1
9831,29.16
9843,28.73
9855,27.67
9866,26.0
9877,23.92
9889,21.75
9901,19.7
9913,17.79
9925,15.86
9937,13.67
9949,11.01
9961,7.73
9973,3.73
9985,-1.0
9997,-6.36
10009,-12.03
10021,-17.53
10033,-22.41
10045,-26.46
10056,-29.8
10067,-32.72
10079,-35.49
10091,-38.08
10103,-40.29
10115,-41.84
10127,-42.65
10139,-42.85
10151,-42.72
10163,-42.56
10175,-42.51
10187,-42.63
10199,-42.92
10211,-43.45
10223,-44.23
10235,-45.17
10246,-46.05
10257,-46.62
10269,-46.72
10281,-46.3
10293,-45.43
10305,-44.14
10317,-42.43
10329,-40.22
10341,-37.5
10353,-34.35
10365,-30.93
10377,-27.46
10389,-24.05
10401,-20.75
10413,-17.49
10425,-14.22
10436,-10.97
10447,-7.89
10459,-5.15
10471,-2.89
10483,-1.14
10495,0.25
10507,1.49
10519,2.74
10531,3.98
10543,5.05
10555,5.73
10567,5.92
10579,5.71
10591,5.41
10603,5.41
10615,6.04
10626,7.42
10637,9.46
10649,11.85
10661,14.11
10673,15.62
10685,15.8
10697,14.21
10709,10.68
10721,5.37
10733,-1.26
10745,-8.56
10757,-15.88
10769,-22.68
10781,-28.68
10793,-33.68
10805,-37.48
10816,-39.69
10827,-39.85
10839,-37.62
10851,-33.09
10863,-26.97
10875,-20.47
10887,-14.9
10899,-11.18
10911,-9.56
10923,-9.57
10935,-10.4
10947,-11.33
10959,-12.01
10971,-12.55
10983,-13.31
10995,-14.67
11006,-16.92
11017,-20.17
11029,-24.24
11041,-28.6
11053,-32.35
11065,-34.34
11077,-33.56
11089,-29.53
11101,-22.61
11113,-13.92
11125,-4.88
11137,3.3
11149,10.09
11161,15.63
11173,20.48
11185,25.11
11196,29.65
11207,33.8
11219,37.12
11231,39.34
11243,40.5
11255,40.97
11267,41.18
11279,41.38
11291,41.5
11303,41.23
11315,40.23
11327,38.37
11339,35.88
11351,33.31
11363,31.27
11375,30.22
11386,30.19
11397,30.81
11409,31.41
11421,31.38
11433,30.36
11445,28.42
11457,26.01
11469,23.68
11481,21.9
11493,20.88
11505,20.6
11517,20.91
11529,21.69
11541,22.9
11553,24.54
11565,26.59
11576,28.9
11587,31.21
11599,33.21
11611,34.64
11623,35.37
11635,35.53
11647,35.47
11659,35.64
11671,36.52
11683,38.4
11695,41.22
11707,44.62
11719,47.94
11731,50.47
11743,51.56
11755,50.83
11766,48.17
11777,43.83
11789,38.28
11801,32.21
11813,26.31
11825,21.11
11837,16.88
11849,13.54
11861,10.84
11873,8.49
11885,6.26
11897,4.0
11909,1.52
11921,-1.42
11933,-5.06
11945,-9.44
11956,-14.25
11967,-18.88
11979,-22.57
11991,-24.87
12003,-25.76
12015,-25.78
12027,-25.68
12039,-26.13
12051,-27.37
12063,-29.24
12075,-31.37
12087,-33.4
12099,-35.22
12111,-36.89
12123,-38.51
12135,-40.08
12146,-41.42
12157,-42.29
12169,-42.51
12181,-42.09
12193,-41.25
12205,-40.24
12217,-39.25
12229,-38.2
12241,-36.82
12253,-34.81
12265,-32.04
12277,-28.7
12289,-25.25
12301,-22.22
12313,-19.93
12325,-18.41
12336,-17.33
12347,-16.29
12359,-15.03
12371,-13.57
12383,-12.14
12395,-11.0
12407,-10.24
12419,-9.68
12431,-8.97
12443,-7.85
12455,-6.25
12467,-4.38
12479,-2.51
12491,-0.83
12503,0.57
12515,1.74
12526,2.65
12537,3.2
12549,3.23
12561,2.64
12573,1.51
12585,0.11
12597,-1.17
12609,-2.05
12621,-2.41
12633,-2.4
12645,-2.28
12657,-2.28
12669,-2.51
12681,-2.9
12693,-3.28
12705,-3.5
12716,-3.44
12727,-3.11
12739,-2.56
12751,-1.84
12763,-0.99
12775,-0.06
12787,0.82
12799,1.47
12811,1.73
12823,1.49
12835,0.81
12847,-0.1
12859,-0.98
12871,-1.67
12883,-2.2
12895,-2.75
12906,-3.57
12917,-4.77
12929,-6.3
12941,-7.91
12953,-9.32
12965,-10.27
12977,-10.64
12989,-10.45
13001,-9.8
13013,-8.85
13025,-7.81
13037,-6.94
13049,-6.41
13061,-6.33
13073,-6.66
13085,-7.23
13096,-7.81
13107,-8.27
13119,-8.57
13131,-8.8
13143,-9.02
13155,-9.26
13167,-9.41
13179,-9.31
13191,-8.86
13203,-8.06
13215,-7.04
13227,-6.03
13239,-5.27
13251,-4.96
13263,-5.18
13275,-5.87
13286,-6.85
13297,-7.77
13309,-8.29
13321,-8.18
13333,-7.38
13345,-6.07
13357,-4.58
13369,-3.27
13381,-2.39
13393,-2.04
13405,-2.18
13417,-2.65
13429,-3.25
13441,-3.83
13453,-4.25
13465,-4.46
13476,-4.38
13487,-4.02
13499,-3.39
13511,-2.56
13523,-1.62
13535,-0.73
13547,-0.01
13559,0.43
13571,0.56
13583,0.4
13595,0.03
13607,-0.42
13619,-0.85
13631,-1.18
13643,-1.44
13655,-1.64
13666,-1.79
13677,-1.87
13689,-1.79
13701,-1.47
13713,-0.85
13725,0.06
13737,1.19
13749,2.44
13761,3.73
13773,5.06
13785,6.46
13797,8.04
13809,9.87
13821,11.94
13833,14.19
13845,16.44
13856,18.52
13867,20.32
13879,21.75
13891,22.85
13903,23.66
13915,24.22
13927,24.66
13939,25.21
13951,26.11
13963,27.45
13975,28.87
13987,29.52
13999,28.31
14011,24.48
14023,18.08
14035,10.11
14046,2.01
14057,-5.07
14069,-10.82
14081,-15.76
14093,-20.77
14105,-26.4
14117,-32.67
14129,-39.17
14141,-45.52
14153,-51.71
14165,-57.9
14177,-64.03
14189,-69.44
14201,-72.89
14213,-73.15
14225,-69.66
14236,-62.8
14247,-53.68
14259,-43.55
14271,-33.24
14283,-22.99
14295,-12.68
14307,-2.24
14319,8.03
14331,17.51
14343,25.52
14355,31.6
14367,35.71
14379,38.16
14391,39.36
14403,39.63
14415,39.11
14426,37.87
14437,36.02
14449,33.84
14461,31.73
14473,30.04
14485,28.96
14497,28.43
14509,28.21
14521,28.04
14533,27.7
14545,27.18
14557,26.52
14569,25.84
14581,25.21
14593,24.69
14605,24.4
14616,24.47
14627,24.92
14639,25.53
14651,25.78
14663,24.97
14675,22.48
14687,18.1
14699,12.11
14711,5.16
14723,-1.96
14735,-8.64
14747,-14.51
14759,-19.36
14771,-23.03
14783,-25.3
14795,-25.99
14806,-25.11
14817,-23.0
14829,-20.24
14841,-17.48
14853,-15.18
14865,-13.48
14877,-12.23
14889,-11.11
14901,-9.86
14913,-8.39
14925,-6.79
14937,-5.27
14949,-4.03
14961,-3.18
14973,-2.71
14985,-2.49
14996,-2.39
15007,-2.31
15019,-2.23
15031,-2.26
15043,-2.47
15055,-2.91
15067,-3.45
15079,-3.8
15091,-3.68
15103,-2.89
15115,-1.51
15127,0.15
15139,1.71
15151,2.83
15163,3.4
15175,3.52
15186,3.44
15197,3.35
15209,3.29
15221,3.2
15233,2.97
15245,2.57
15257,2.08
15269,1.64
15281,1.36
15293,1.22
15305,1.12
15317,0.92
15329,0.52
15341,-0.08
15353,-0.87
15365,-1.84
15376,-3.04
15387,-4.52
15399,-6.24
15411,-8.04
15423,-9.57
15435,-10.46
15447,-10.46
15459,-9.53
15471,-7.87
15483,-5.84
15495,-3.79
15507,-1.95
15519,-0.33
15531,1.14
15543,2.58
15555,4.0
15566,5.3
15577,6.31
15589,6.88
15601,6.97
15613,6.7
15625,6.22
15637,5.71
15649,5.27
15661,4.91
15673,4.55
15685,4.11
15697,3.5
15709,2.66
15721,1.57
15733,0.27
15745,-1.18
15756,-2.69
15767,-4.19
15779,-5.56
15791,-6.66
15803,-7.35
15815,-7.53
15827,-7.16
15839,-6.35
15851,-5.31
15863,-4.36
15875,-3.75
15887,-3.59
15899,-3.77
15911,-4.08
15923,-4.28
15935,-4.24
15946,-4.04
15957,-3.87
15969,-3.93
15981,-4.33
15993,-4.99
16005,-5.68
16017,-6.11
16029,-6.05
16041,-5.41
16053,-4.26
16065,-2.77
16077,-1.14
16089,0.41
16101,1.68
16113,2.53
16125,2.96
16136,3.11
16147,3.21
16159,3.58
16171,4.46
16183,5.91
16195,7.8
16207,9.79
16219,11.5
16231,12.65
16243,13.16
16255,13.15
16267,12.92
16279,12.77
16291,12.92
16303,13.41
16315,14.14
16326,14.95
16337,15.62
16349,15.98
16361,15.92
16373,15.38
16385,14.35
16397,12.9
16409,11.18
16421,9.36
16433,7.62
16445,6.02
16457,4.52
16469,3.04
16481,1.48
16493,-0.2
16505,-1.93
16516,-3.56
16527,-4.94
16539,-5.93
16551,-6.42
16563,-6.39
16575,-5.91
16587,-5.12
16599,-4.28
16611,-3.64
16623,-3.38
16635,-3.52
16647,-3.92
16659,-4.33
16671,-4.57
16683,-4.56
16695,-4.42
16706,-4.3
16717,-4.28
16729,-4.31
16741,-4.21
16753,-3.8
16765,-3.04
16777,-2.08
16789,-1.19
16801,-0.64
16813,-0.5
16825,-0.67
16837,-0.98
16849,-1.26
16861,-1.5
16873,-1.85
16885,-2.46
16896,-3.41
16907,-4.55
16919,-5.61
16931,-6.23
16943,-6.19
16955,-5.47
16967,-4.33
16979,-3.18
16991,-2.44
17003,-2.39
17015,-3.05
17027,-4.16
17039,-5.3
17051,-6.04
17063,-6.17
17075,-5.74
17086,-5.04
17097,-4.35
17109,-3.77
17121,-3.14
17133,-2.13
17145,-0.5
17157,1.77
17169,4.4
17181,6.94
17193,9.03
17205,10.42
17217,10.92
17229,10.31
17241,8.25
17253,4.61
17265,-0.2
17276,-5.04
17287,-8.35
17299,-8.8
17311,-6.1
17323,-1.34
17335,3.33
17347,5.62
17359,4.17
17371,-0.86
17383,-7.89
17395,-14.82
17407,-19.86
17419,-22.31
17431,-22.5
17443,-21.37
17455,-19.93
17466,-18.78
17477,-18.21
17489,-18.24
17501,-19.01
17513,-20.74
17525,-23.65
17537,-27.7
17549,-32.5
17561,-37.24
17573,-41.01
17585,-43.05
17597,-43.07
17609,-41.34
17621,-38.64
17633,-36.04
17645,-34.57
17656,-34.78
17667,-36.41
17679,-38.44
17691,-39.41
17703,-38.04
17715,-33.69
17727,-26.57
17739,-17.51
17751,-7.62
17763,2.09
17775,10.83
17787,17.89
17799,22.65
17811,24.58
17823,23.56
17835,20.09
17846,15.23
17857,10.32
17869,6.38
17881,3.86
17893,2.48
17905,1.66
17917,0.8
17929,-0.42
17941,-2.05
17953,-3.89
17965,-5.58
17977,-6.63
17989,-6.43
18001,-4.42
18013,-0.26
18025,5.94
18036,13.58
18047,21.71
18059,29.39
18071,35.94
18083,41.13
18095,45.05
18107,47.94
18119,50.0
18131,51.33
18143,52.0
18155,52.11
18167,51.82
18179,51.27
18191,50.5
18203,49.42
18215,47.93
18226,46.0
18237,43.69
18249,41.13
18261,38.43
18273,35.59
18285,32.51
18297,29.1
18309,25.39
18321,21.54
18333,17.79
18345,14.36
18357,11.26
18369,8.37
18381,5.51
18393,2.65
18405,-0.09
18416,-2.44
18427,-4.18
18439,-5.29
18451,-5.99
18463,-6.59
18475,-7.35
18487,-8.34
18499,-9.43
18511,-10.38
18523,-11.04
18535,-11.34
18547,-11.38
18559,-11.19
18571,-10.8
18583,-10.13
18595,-9.1
18606,-7.7
18617,-5.99
18629,-4.1
18641,-2.18
18653,-0.35
18665,1.33
18677,2.82
18689,4.06
18701,5.01
18713,5.6
18725,5.88
18737,5.93
18749,5.95
18761,6.13
18773,6.59
18785,7.32
18796,8.22
18807,9.1
18819,9.83
18831,10.42
18843,10.95
18855,11.57
18867,12.34
18879,13.28
18891,14.28
18903,15.27
18915,16.18
18927,17.04
18939,17.9
18951,18.83
18963,19.92
18975,21.25
18986,22.95
18997,25.15
19009,27.89
19021,31.03
19033,34.32
19045,37.43
19057,40.11
19069,42.32
19081,44.23
19093,46.14
19105,48.34
19117,50.98
19129,53.98
19141,57.18
19153,60.37
19165,63.38
19176,66.11
19187,68.46
19199,70.39
19211,71.85
19223,72.85
19235,73.34
19247,73.11
19259,71.74
19271,68.55
19283,62.77
19295,53.71
19307,40.98
19319,24.72
19331,5.66
19343,-14.83
19355,-35.0
19366,-52.88
19377,-66.67
19389,-75.14
19401,-77.8
19413,-75.14
19425,-68.47
19437,-59.72
19449,-51.05
19461,-44.47
19473,-41.37
19485,-42.23
19497,-46.45
19509,-52.49
19521,-58.33
19533,-62.01
19545,-62.32
19556,-59.01
19567,-52.82
19579,-45.12
19591,-37.39
19603,-30.86
19615,-26.26
19627,-23.77
19639,-23.17
19651,-23.98
19663,-25.65
19675,-27.6
19687,-29.35
19699,-30.56
19711,-31.04
19723,-30.8
19735,-30.05
19746,-29.17
19757,-28.56
19769,-28.5
19781,-29.04
19793,-29.95
19805,-30.67
19817,-30.51
19829,-28.81
19841,-25.27
19853,-20.04
19865,-13.79
19877,-7.43
19889,-1.84
19901,2.47
19913,5.48
19925,7.59
19936,9.36
19947,11.19
19959,13.24
19971,15.46
19983,17.79
19995,20.22
20007,22.81
20019,25.55
20031,28.32
20043,30.92
20055,33.32
20067,35.76
20079,38.71
20091,42.61
20103,47.59
20115,53.33
20126,58.94
20137,63.22
20149,64.86
20161,62.81
20173,56.48
20185,45.97
20197,32.14
20209,16.41
20221,0.51
20233,-13.96
20245,-25.78
20257,-34.38
20269,-39.69
20281,-42.06
20293,-42.0
20305,-40.18
20316,-37.3
20327,-34.06
20339,-31.08
20351,-28.78
20363,-27.27
20375,-26.45
20387,-26.04
20399,-25.74
20411,-25.28
20423,-24.52
20435,-23.45
20447,-22.21
20459,-20.99
20471,-19.97
20483,-19.29
20495,-18.96
20506,-18.91
20517,-19.01
20529,-19.13
20541,-19.19
20553,-19.22
20565,-19.4
20577,-20.19
20589,-22.16
20601,-25.81
20613,-31.23
20625,-37.93
20637,-44.86
20649,-50.68
20661,-54.24
20673,-54.83
20685,-52.44
20696,-47.57
20707,-41.12
20719,-34.12
20731,-27.62
20743,-22.45
20755,-19.05
20767,-17.3
20779,-16.49
20791,-15.55
20803,-13.52
20815,-9.89
20827,-4.84
20839,0.92
20851,6.51
20863,11.17
20875,14.55
20886,16.62
20897,17.59
20909,17.71
20921,17.18
20933,16.16
20945,14.8
20957,13.3
20969,11.87
20981,10.74
20993,10.09
