seconds,BVP
5,13.42
16,13.44
28,13.47
40,13.3
52,12.67
64,11.6
76,10.55
88,10.24
100,11.37
112,14.23
124,18.55
136,23.59
148,28.5
160,32.57
172,35.42
184,36.96
195,37.32
206,36.68
218,35.25
230,33.28
242,31.02
254,28.78
266,26.88
278,25.53
290,24.84
302,24.68
314,24.78
326,24.69
338,23.98
350,22.3
362,19.57
374,15.91
385,11.67
396,7.28
408,3.15
420,-0.44
432,-3.34
444,-5.55
456,-7.17
468,-8.36
480,-9.21
492,-9.79
504,-10.1
516,-10.16
528,-10.06
540,-9.98
552,-10.13
564,-10.67
575,-11.55
586,-12.48
598,-12.95
610,-12.36
622,-10.25
634,-6.44
646,-1.08
658,5.32
670,12.09
682,18.53
694,24.13
706,28.63
718,31.96
730,34.14
742,35.23
754,35.26
765,34.27
776,32.44
788,30.1
800,27.69
812,25.64
824,24.26
836,23.61
848,23.54
860,23.81
872,24.16
884,24.43
896,24.54
908,24.41
920,24.0
932,23.23
944,22.08
955,20.56
966,18.75
978,16.75
990,14.63
1002,12.44
1014,10.2
1026,7.98
1038,5.85
1050,3.92
1062,2.26
1074,0.84
1086,-0.51
1098,-2.0
1110,-3.82
1122,-6.0
1134,-8.35
1145,-10.49
1156,-11.94
1168,-12.23
1180,-11.04
1192,-8.33
1204,-4.28
1216,0.68
1228,6.01
1240,11.18
1252,15.72
1264,19.34
1276,21.87
1288,23.32
1300,23.74
1312,23.27
1324,22.08
1335,20.42
1346,18.6
1358,16.93
1370,15.69
1382,15.05
1394,15.0
1406,15.41
1418,16.02
1430,16.55
1442,16.78
1454,16.55
1466,15.85
1478,14.74
1490,13.35
1502,11.76
1514,10.08
1525,8.35
1536,6.66
1548,5.07
1560,3.58
1572,2.17
1584,0.72
1596,-0.87
1608,-2.61
1620,-4.42
1632,-6.17
1644,-7.75
1656,-9.16
1668,-10.53
1680,-12.09
1692,-14.02
1704,-16.41
1715,-19.11
1726,-21.75
1738,-23.81
1750,-24.69
1762,-23.9
1774,-21.26
1786,-16.93
1798,-11.48
1810,-5.69
1822,-0.31
1834,4.16
1846,7.51
1858,9.8
1870,11.18
1882,11.76
1894,11.6
1905,10.75
1916,9.38
1928,7.84
1940,6.52
1952,5.78
1964,5.76
1976,6.34
1988,7.23
2000,8.03
2012,8.44
2024,8.33
2036,7.72
2048,6.73
2060,5.52
2072,4.17
2084,2.77
2095,1.35
2106,-0.02
2118,-1.29
2130,-2.42
2142,-3.44
2154,-4.39
2166,-5.31
2178,-6.26
2190,-7.19
2202,-8.01
2214,-8.61
2226,-9.01
2238,-9.3
2250,-9.69
2262,-10.45
2274,-11.73
2285,-13.59
2296,-15.86
2308,-18.18
2320,-20.09
2332,-21.08
2344,-20.76
2356,-18.91
2368,-15.6
2380,-11.14
2392,-6.05
2404,-0.92
2416,3.68
2428,7.41
2440,10.14
2452,12.03
2464,13.4
2475,14.58
2486,15.8
2498,17.1
2510,18.33
2522,19.26
2534,19.76
2546,19.85
2558,19.72
2570,19.6
2582,19.66
2594,19.92
2606,20.19
2618,20.26
2630,19.92
2642,19.13
2654,17.94
2665,16.54
2676,15.08
2688,13.67
2700,12.3
2712,10.91
2724,9.44
2736,7.88
2748,6.31
2760,4.85
2772,3.63
2784,2.68
2796,1.92
2808,1.15
2820,0.18
2832,-1.12
2844,-2.79
2855,-4.73
2866,-6.86
2878,-9.09
2890,-11.37
2902,-13.52
2914,-15.3
2926,-16.25
2938,-15.89
2950,-13.89
2962,-10.27
2974,-5.41
2986,0.0
2998,5.24
3010,9.78
3022,13.35
3034,15.9
3045,17.44
3056,17.99
3068,17.6
3080,16.42
3092,14.82
3104,13.23
3116,12.1
3128,11.63
3140,11.74
3152,12.22
3164,12.82
3176,13.44
3188,14.12
3200,14.96
3212,15.94
3224,16.92
3235,17.69
3246,18.03
3258,17.79
3270,16.81
3282,14.93
3294,11.94
3306,7.74
3318,2.5
3330,-3.32
3342,-9.01
3354,-13.96
3366,-17.83
3378,-20.68
3390,-22.81
3402,-24.56
3414,-26.03
3425,-27.16
3436,-27.78
3448,-27.87
3460,-27.55
3472,-27.01
3484,-26.32
3496,-25.27
3508,-23.45
3520,-20.42
3532,-15.93
3544,-10.17
3556,-3.68
3568,2.75
3580,8.32
3592,12.39
3604,14.65
3615,15.09
3626,14.01
3638,11.82
3650,9.01
3662,6.0
3674,3.15
3686,0.75
3698,-0.93
3710,-1.66
3722,-1.32
3734,0.04
3746,2.14
3758,4.52
3770,6.6
3782,7.91
3794,8.25
3805,7.7
3816,6.62
3828,5.46
3840,4.59
3852,4.12
3864,3.91
3876,3.64
3888,2.99
3900,1.81
3912,0.22
3924,-1.56
3936,-3.2
3948,-4.53
3960,-5.54
3972,-6.4
3984,-7.34
3995,-8.56
4006,-10.14
4018,-12.01
4030,-13.96
4042,-15.65
4054,-16.69
4066,-16.67
4078,-15.32
4090,-12.56
4102,-8.55
4114,-3.66
4126,1.58
4138,6.63
4150,11.0
4162,14.33
4174,16.46
4185,17.34
4196,17.11
4208,16.01
4220,14.34
4232,12.45
4244,10.63
4256,9.14
4268,8.14
4280,7.75
4292,8.02
4304,8.85
4316,10.01
4328,11.12
4340,11.8
4352,11.83
4364,11.2
4375,10.18
4386,9.05
4398,8.0
4410,7.01
4422,5.91
4434,4.54
4446,2.93
4458,1.28
4470,-0.15
4482,-1.22
4494,-1.98
4506,-2.65
4518,-3.43
4530,-4.46
4542,-5.78
4554,-7.36
4565,-9.13
4576,-10.99
4588,-12.71
4600,-13.88
4612,-14.06
4624,-12.89
4636,-10.34
4648,-6.67
4660,-2.38
4672,1.99
4684,6.0
4696,9.39
4708,11.99
4720,13.68
4732,14.39
4744,14.11
4755,12.99
4766,11.3
4778,9.38
4790,7.59
4802,6.2
4814,5.36
4826,5.13
4838,5.42
4850,6.06
4862,6.82
4874,7.52
4886,8.05
4898,8.43
4910,8.71
4922,8.9
4934,8.92
4945,8.58
4956,7.71
4968,6.25
4980,4.37
4992,2.36
5004,0.52
5016,-0.98
5028,-2.18
5040,-3.31
5052,-4.64
5064,-6.37
5076,-8.54
5088,-11.05
5100,-13.67
5112,-16.16
5124,-18.26
5135,-19.72
5146,-20.31
5158,-19.82
5170,-18.1
5182,-15.16
5194,-11.23
5206,-6.73
5218,-2.24
5230,1.7
5242,4.68
5254,6.52
5266,7.25
5278,7.04
5290,6.11
5302,4.72
5314,3.12
5325,1.6
5336,0.45
5348,-0.08
5360,0.1
5372,0.89
5384,2.0
5396,3.1
5408,3.91
5420,4.34
5432,4.45
5444,4.32
5456,4.02
5468,3.49
5480,2.6
5492,1.29
5504,-0.43
5515,-2.42
5526,-4.45
5538,-6.33
5550,-7.93
5562,-9.2
5574,-10.13
5586,-10.77
5598,-11.19
5610,-11.51
5622,-11.95
5634,-12.73
5646,-14.01
5658,-15.71
5670,-17.4
5682,-18.46
5694,-18.18
5705,-16.11
5716,-12.23
5728,-6.97
5740,-1.08
5752,4.69
5764,9.75
5776,13.82
5788,16.9
5800,19.08
5812,20.5
5824,21.3
5836,21.68
5848,21.93
5860,22.4
5872,23.39
5884,25.06
5895,27.35
5906,30.05
5918,32.92
5930,35.86
5942,38.88
5954,42.13
5966,45.68
5978,49.41
5990,52.99
6002,56.05
6014,58.4
6026,60.19
6038,61.97
6050,64.49
6062,68.27
6074,73.39
6085,79.3
6096,85.03
6108,89.63
6120,92.68
6132,94.53
6144,96.18
6156,98.8
6168,103.15
6180,109.15
6192,116.02
6204,122.63
6216,127.87
6228,130.86
6240,130.7
6252,126.25
6264,116.14
6275,99.07
6286,74.36
6298,42.28
6310,3.69
6322,-40.71
6334,-90.97
6346,-147.53
6358,-209.85
6370,-274.64
6382,-335.31
6394,-383.01
6406,-409.52
6418,-410.39
6430,-386.78
6442,-345.06
6454,-294.18
6465,-242.46
6476,-195.17
6488,-154.07
6500,-118.58
6512,-87.72
6524,-61.37
6536,-40.38
6548,-25.64
6560,-17.03
6572,-12.94
6584,-10.77
6596,-7.85
6608,-2.53
6620,5.36
6632,14.54
6644,23.16
6655,29.54
6666,32.83
6678,33.16
6690,31.31
6702,28.27
6714,24.81
6726,21.24
6738,17.59
6750,13.83
6762,10.28
6774,7.7
6786,7.16
6798,9.54
6810,15.07
6822,23.07
6834,32.16
6845,40.84
6856,48.09
6868,53.64
6880,57.85
6892,61.22
6904,63.95
6916,65.74
6928,65.99
6940,64.15
6952,60.08
6964,54.13
6976,46.9
6988,39.0
7000,30.87
7012,22.7
7024,14.61
7035,6.78
7046,-0.44
7058,-6.58
7070,-11.15
7082,-13.82
7094,-14.52
7106,-13.46
7118,-11.11
7130,-7.98
7142,-4.52
7154,-0.93
7166,2.9
7178,7.25
7190,12.4
7202,18.37
7214,24.76
7225,30.85
7236,35.81
7248,39.01
7260,40.28
7272,39.99
7284,38.9
7296,37.96
7308,38.07
7320,39.85
7332,43.53
7344,48.82
7356,54.84
7368,60.22
7380,63.36
7392,63.04
7404,58.95
7415,52.12
7426,44.7
7438,39.36
7450,38.32
7462,42.44
7474,51.08
7486,62.39
7498,74.24
7510,85.02
7522,94.15
7534,101.92
7546,109.03
7558,116.0
7570,122.75
7582,128.65
7594,132.81
7605,134.51
7616,133.57
7628,130.39
7640,125.76
7652,120.44
7664,114.87
7676,109.05
7688,102.79
7700,96.15
7712,89.73
7724,84.76
7736,82.74
7748,84.87
7760,91.73
7772,103.16
7784,118.46
7795,136.58
7806,156.08
7818,174.97
7830,190.73
7842,200.69
7854,202.78
7866,196.32
7878,182.34
7890,163.21
7902,141.79
7914,120.39
7926,100.19
7938,81.34
7950,63.4
7962,45.91
7974,28.55
7985,10.95
7996,-7.58
8008,-27.9
8020,-50.59
8032,-75.29
8044,-100.34
8056,-123.18
8068,-141.18
8080,-152.64
8092,-157.31
8104,-156.2
8116,-150.9
8128,-143.06
8140,-134.03
8152,-125.07
8164,-117.46
8175,-112.39
8186,-110.44
8198,-111.12
8210,-112.79
8222,-113.3
8234,-111.05
8246,-105.83
8258,-98.94
8270,-92.58
8282,-88.85
8294,-88.85
8306,-92.53
8318,-99.01
8330,-107.22
8342,-116.43
8354,-126.25
8365,-136.48
8376,-146.71
8388,-156.28
8400,-164.34
8412,-170.22
8424,-173.76
8436,-175.34
8448,-175.78
8460,-175.95
8472,-176.53
8484,-177.73
8496,-179.38
8508,-181.0
8520,-182.06
8532,-182.11
8544,-180.87
8555,-178.35
8566,-174.88
8578,-171.09
8590,-167.85
8602,-166.07
8614,-166.53
8626,-169.71
8638,-175.86
8650,-184.98
8662,-196.95
8674,-211.48
8686,-228.08
8698,-246.08
8710,-264.57
8722,-282.46
8734,-298.36
8745,-310.47
8756,-316.66
8768,-314.77
8780,-303.19
8792,-281.47
8804,-250.71
8816,-213.23
8828,-171.86
8840,-129.1
8852,-86.6
8864,-45.35
8876,-6.13
8888,29.91
8900,61.28
8912,86.63
8924,105.41
8935,118.23
8946,126.65
8958,132.46
8970,136.96
8982,140.55
8994,142.95
9006,143.68
9018,142.64
9030,140.22
9042,137.19
9054,134.19
9066,131.47
9078,128.89
9090,126.03
9102,122.57
9114,118.47
9125,113.96
9136,109.5
9148,105.55
9160,102.42
9172,100.17
9184,98.52
9196,96.99
9208,95.0
9220,92.1
9232,88.07
9244,83.05
9256,77.33
9268,71.25
9280,64.97
9292,58.46
9304,51.61
9315,44.38
9326,36.99
9338,29.94
9350,23.93
9362,19.64
9374,17.51
9386,17.64
9398,19.67
9410,22.94
9422,26.68
9434,30.16
9446,32.87
9458,34.54
9470,35.1
9482,34.59
9494,33.13
9505,30.91
9516,28.2
9528,25.37
9540,22.79
9552,20.76
9564,19.46
9576,18.87
9588,18.82
9600,18.99
9612,19.03
9624,18.64
9636,17.66
9648,16.1
9660,14.1
9672,11.91
9684,9.73
9695,7.71
9706,5.83
9718,4.04
9730,2.19
9742,0.22
9754,-1.89
9766,-4.04
9778,-6.08
9790,-7.81
9802,-9.08
9814,-9.84
9826,-10.14
9838,-10.16
9850,-10.09
9862,-10.11
9874,-10.39
9885,-11.08
9896,-12.27
9908,-13.89
9920,-15.66
9932,-17.01
9944,-17.23
9956,-15.65
9968,-11.91
9980,-6.11
9992,1.17
10004,9.06
10016,16.68
10028,23.35
10040,28.7
10052,32.68
10064,35.38
10075,36.99
10086,37.65
10098,37.57
10110,37.0
10122,36.25
10134,35.64
10146,35.39
10158,35.58
10170,36.1
10182,36.72
10194,37.15
10206,37.22
10218,36.85
10230,36.1
10242,35.1
10254,34.03
10265,32.95
10276,31.87
10288,30.7
10300,29.33
10312,27.7
10324,25.88
10336,24.01
10348,22.31
10360,20.87
10372,19.68
10384,18.53
10396,17.19
10408,15.44
10420,13.26
10432,10.76
10444,8.18
10455,5.74
10466,3.53
10478,1.55
10490,-0.3
10502,-2.17
10514,-4.18
10526,-6.32
10538,-8.54
10550,-10.6
10562,-12.16
10574,-12.75
10586,-11.86
10598,-9.08
10610,-4.3
10622,2.16
10634,9.62
10645,17.18
10656,23.97
10668,29.35
10680,33.02
10692,34.94
10704,35.23
10716,34.15
10728,32.02
10740,29.29
10752,26.48
10764,24.14
10776,22.65
10788,22.16
10800,22.48
10812,23.24
10824,24.02
10835,24.47
10846,24.44
10858,23.98
10870,23.26
10882,22.48
10894,21.79
10906,21.22
10918,20.7
10930,20.09
10942,19.26
10954,18.19
10966,16.89
10978,15.46
10990,13.95
11002,12.35
11014,10.64
11025,8.78
11036,6.76
11048,4.65
11060,2.5
11072,0.4
11084,-1.62
11096,-3.59
11108,-5.54
11120,-7.56
11132,-9.74
11144,-12.19
11156,-14.97
11168,-17.99
11180,-21.0
11192,-23.5
11204,-24.86
11215,-24.46
11226,-21.98
11238,-17.4
11250,-11.19
11262,-4.07
11274,3.09
11286,9.56
11298,14.85
11310,18.76
11322,21.29
11334,22.56
11346,22.69
11358,21.86
11370,20.33
11382,18.48
11394,16.74
11405,15.53
11416,15.06
11428,15.28
11440,15.83
11452,16.26
11464,16.24
11476,15.67
11488,14.77
11500,13.92
11512,13.43
11524,13.39
11536,13.63
11548,13.81
11560,13.62
11572,12.87
11584,11.59
11595,9.9
11606,7.98
11618,5.97
11630,4.01
11642,2.22
11654,0.73
11666,-0.44
11678,-1.35
11690,-2.19
11702,-3.2
11714,-4.63
11726,-6.59
11738,-9.03
11750,-11.83
11762,-14.8
11774,-17.8
11785,-20.8
11796,-23.85
11808,-27.01
11820,-30.33
11832,-33.7
11844,-36.78
11856,-39.01
11868,-39.67
11880,-38.14
11892,-34.1
11904,-27.76
11916,-19.87
11928,-11.48
11940,-3.67
11952,2.79
11964,7.59
11975,10.81
11986,12.78
11998,13.82
12010,14.24
12022,14.25
12034,14.05
12046,13.87
12058,13.93
12070,14.37
12082,15.2
12094,16.33
12106,17.61
12118,18.92
12130,20.21
12142,21.47
12154,22.66
12165,23.66
12176,24.35
12188,24.56
12200,24.23
12212,23.36
12224,22.09
12236,20.61
12248,19.07
12260,17.59
12272,16.12
12284,14.58
12296,12.81
12308,10.74
12320,8.37
12332,5.8
12344,3.16
12355,0.56
12366,-1.98
12378,-4.49
12390,-6.99
12402,-9.46
12414,-11.87
12426,-14.18
12438,-16.45
12450,-18.75
12462,-21.04
12474,-23.06
12486,-24.29
12498,-24.13
12510,-22.1
12522,-18.09
12534,-12.41
12545,-5.78
12556,0.99
12568,7.16
12580,12.26
12592,16.06
12604,18.55
12616,19.81
12628,19.98
12640,19.31
12652,18.08
12664,16.66
12676,15.38
12688,14.5
12700,14.1
12712,14.09
12724,14.22
12735,14.22
12746,13.86
12758,13.03
12770,11.74
12782,10.08
12794,8.16
12806,6.05
12818,3.83
12830,1.55
12842,-0.73
12854,-2.95
12866,-5.05
12878,-7.0
12890,-8.77
12902,-10.38
12914,-11.81
12925,-13.04
12936,-14.02
12948,-14.71
12960,-15.05
12972,-15.05
12984,-14.77
12996,-14.33
13008,-13.89
13020,-13.64
13032,-13.71
13044,-14.11
13056,-14.66
13068,-15.04
13080,-14.78
13092,-13.48
13104,-10.88
13115,-7.02
13126,-2.21
13138,3.0
13150,8.02
13162,12.29
13174,15.45
13186,17.32
13198,17.9
13210,17.36
13222,15.91
13234,13.82
13246,11.42
13258,9.07
13270,7.15
13282,5.95
13294,5.61
13305,5.99
13316,6.7
13328,7.22
13340,7.1
13352,6.08
13364,4.26
13376,1.95
13388,-0.41
13400,-2.51
13412,-4.25
13424,-5.71
13436,-7.1
13448,-8.54
13460,-10.08
13472,-11.59
13484,-12.93
13495,-14.01
13506,-14.84
13518,-15.55
13530,-16.26
13542,-17.07
13554,-17.98
13566,-18.93
13578,-19.81
13590,-20.45
13602,-20.64
13614,-20.04
13626,-18.34
13638,-15.3
13650,-10.91
13662,-5.44
13674,0.6
13685,6.6
13696,11.95
13708,16.22
13720,19.18
13732,20.78
13744,21.18
13756,20.61
13768,19.44
13780,18.01
13792,16.68
13804,15.71
13816,15.24
13828,15.28
13840,15.73
13852,16.4
13864,17.09
13875,17.62
13886,17.89
13898,17.83
13910,17.38
13922,16.48
13934,15.08
13946,13.13
13958,10.7
13970,7.96
13982,5.16
13994,2.58
14006,0.38
14018,-1.44
14030,-3.04
14042,-4.69
14054,-6.68
14065,-9.17
14076,-12.16
14088,-15.43
14100,-18.57
14112,-21.0
14124,-22.17
14136,-21.66
14148,-19.29
14160,-15.28
14172,-10.11
14184,-4.48
14196,0.89
14208,5.47
14220,8.98
14232,11.36
14244,12.74
14255,13.29
14266,13.15
14278,12.46
14290,11.38
14302,10.1
14314,8.89
14326,7.96
14338,7.46
14350,7.42
14362,7.78
14374,8.39
14386,9.12
14398,9.79
14410,10.21
14422,10.14
14434,9.4
14445,7.89
14456,5.7
14468,3.07
14480,0.35
14492,-2.16
14504,-4.28
14516,-6.02
14528,-7.54
14540,-9.04
14552,-10.71
14564,-12.64
14576,-14.89
14588,-17.39
14600,-19.95
14612,-22.23
14624,-23.74
14635,-23.97
14646,-22.53
14658,-19.33
14670,-14.66
14682,-9.12
14694,-3.5
14706,1.53
14718,5.54
14730,8.4
14742,10.21
14754,11.15
14766,11.4
14778,11.07
14790,10.22
14802,9.01
14814,7.67
14825,6.5
14836,5.78
14848,5.66
14860,6.09
14872,6.82
14884,7.54
14896,7.98
14908,8.02
14920,7.67
14932,7.04
14944,6.22
14956,5.24
14968,4.08
14980,2.75
14992,1.27
15004,-0.28
15015,-1.76
15026,-3.1
15038,-4.27
15050,-5.35
15062,-6.46
15074,-7.71
15086,-9.22
15098,-11.04
15110,-13.22
15122,-15.7
15134,-18.34
15146,-20.84
15158,-22.78
15170,-23.64
15182,-22.97
15194,-20.48
15205,-16.25
15216,-10.73
15228,-4.67
15240,1.1
15252,5.94
15264,9.55
15276,11.98
15288,13.5
15300,14.39
15312,14.83
15324,14.86
15336,14.51
15348,13.86
15360,13.13
15372,12.52
15384,12.19
15395,12.14
15406,12.21
15418,12.26
15430,12.18
15442,11.99
15454,11.77
15466,11.57
15478,11.36
15490,11.02
15502,10.42
15514,9.49
15526,8.22
15538,6.71
15550,5.07
15562,3.35
15574,1.6
15585,-0.2
15596,-2.05
15608,-3.96
15620,-5.85
15632,-7.66
15644,-9.28
15656,-10.67
15668,-11.82
15680,-12.84
15692,-13.88
15704,-15.11
15716,-16.69
15728,-18.7
15740,-21.11
15752,-23.7
15764,-26.06
15775,-27.63
15786,-27.79
15798,-26.1
15810,-22.46
15822,-17.19
15834,-10.97
15846,-4.66
15858,1.02
15870,5.62
15882,9.04
15894,11.39
15906,12.89
15918,13.69
15930,13.93
15942,13.69
15954,13.13
15965,12.46
15976,11.97
15988,11.86
16000,12.19
16012,12.91
16024,13.75
16036,14.49
16048,14.96
16060,15.12
16072,15.05
16084,14.85
16096,14.47
16108,13.82
16120,12.75
16132,11.19
16144,9.23
16155,7.1
16166,5.08
16178,3.34
16190,1.95
16202,0.8
16214,-0.25
16226,-1.34
16238,-2.56
16250,-3.94
16262,-5.48
16274,-7.16
16286,-8.92
16298,-10.63
16310,-12.14
16322,-13.36
16334,-14.33
16345,-15.25
16356,-16.4
16368,-18.03
16380,-20.16
16392,-22.56
16404,-24.7
16416,-25.92
16428,-25.63
16440,-23.5
16452,-19.61
16464,-14.38
16476,-8.52
16488,-2.76
16500,2.25
16512,6.17
16524,8.94
16535,10.68
16546,11.64
16558,11.98
16570,11.85
16582,11.33
16594,10.53
16606,9.62
16618,8.81
16630,8.3
16642,8.18
16654,8.42
16666,8.86
16678,9.31
16690,9.65
16702,9.86
16714,9.94
16725,9.91
16736,9.71
16748,9.23
16760,8.39
16772,7.15
16784,5.58
16796,3.84
16808,2.12
16820,0.59
16832,-0.68
16844,-1.74
16856,-2.72
16868,-3.8
16880,-5.13
16892,-6.75
16904,-8.57
16915,-10.44
16926,-12.15
16938,-13.58
16950,-14.72
16962,-15.71
16974,-16.74
16986,-18.04
16998,-19.77
17010,-21.91
17022,-24.25
17034,-26.32
17046,-27.54
17058,-27.34
17070,-25.42
17082,-21.84
17094,-16.97
17105,-11.46
17116,-5.97
17128,-1.04
17140,3.03
17152,6.14
17164,8.35
17176,9.82
17188,10.69
17200,11.14
17212,11.26
17224,11.12
17236,10.76
17248,10.26
17260,9.7
17272,9.23
17284,8.99
17295,9.01
17306,9.24
17318,9.58
17330,9.9
17342,10.1
17354,10.14
17366,10.0
17378,9.65
17390,9.06
17402,8.21
17414,7.12
17426,5.82
17438,4.41
17450,2.98
17462,1.63
17474,0.45
17485,-0.51
17496,-1.25
17508,-1.84
17520,-2.41
17532,-3.13
17544,-4.1
17556,-5.34
17568,-6.74
17580,-8.16
17592,-9.49
17604,-10.67
17616,-11.76
17628,-12.87
17640,-14.09
17652,-15.53
17664,-17.19
17675,-19.04
17686,-20.93
17698,-22.61
17710,-23.7
17722,-23.79
17734,-22.52
17746,-19.75
17758,-15.59
17770,-10.43
17782,-4.85
17794,0.58
17806,5.35
17818,9.18
17830,11.98
17842,13.79
17854,14.71
17865,14.88
17876,14.42
17888,13.53
17900,12.43
17912,11.37
17924,10.57
17936,10.18
17948,10.2
17960,10.51
17972,10.92
17984,11.22
17996,11.25
18008,10.94
18020,10.33
18032,9.53
18044,8.71
18055,8.05
18066,7.65
18078,7.52
18090,7.53
18102,7.51
18114,7.3
18126,6.84
18138,6.14
18150,5.27
18162,4.28
18174,3.19
18186,1.97
18198,0.65
18210,-0.71
18222,-2.03
18234,-3.25
18245,-4.37
18256,-5.47
18268,-6.61
18280,-7.88
18292,-9.3
18304,-10.85
18316,-12.52
18328,-14.28
18340,-16.09
18352,-17.84
18364,-19.3
18376,-20.16
18388,-20.05
18400,-18.72
18412,-16.04
18424,-12.19
18435,-7.58
18446,-2.79
18458,1.61
18470,5.19
18482,7.74
18494,9.26
18506,9.89
18518,9.79
18530,9.1
18542,7.98
18554,6.68
18566,5.53
18578,4.9
18590,5.03
18602,5.97
18614,7.46
18625,9.1
18636,10.4
18648,11.02
18660,10.89
18672,10.18
18684,9.2
18696,8.25
18708,7.51
18720,6.91
18732,6.31
18744,5.51
18756,4.45
18768,3.17
18780,1.84
18792,0.63
18804,-0.38
18815,-1.2
18826,-1.91
18838,-2.6
18850,-3.37
18862,-4.24
18874,-5.2
18886,-6.19
18898,-7.14
18910,-7.98
18922,-8.68
18934,-9.27
18946,-9.86
18958,-10.61
18970,-11.71
18982,-13.26
18994,-15.26
19005,-17.48
19016,-19.56
19028,-20.99
19040,-21.33
19052,-20.31
19064,-17.86
19076,-14.18
19088,-9.57
19100,-4.49
19112,0.6
19124,5.24
19136,9.01
19148,11.61
19160,12.92
19172,13.05
19184,12.28
19195,10.99
19206,9.57
19218,8.33
19230,7.47
19242,7.09
19254,7.16
19266,7.56
19278,8.09
19290,8.53
19302,8.73
19314,8.65
19326,8.38
19338,8.06
19350,7.76
19362,7.49
19374,7.13
19385,6.53
19396,5.59
19408,4.33
19420,2.89
19432,1.49
19444,0.31
19456,-0.57
19468,-1.19
19480,-1.68
19492,-2.26
19504,-3.09
19516,-4.23
19528,-5.59
19540,-6.99
19552,-8.2
19564,-9.07
19575,-9.66
19586,-10.14
19598,-10.83
19610,-12.0
19622,-13.72
19634,-15.87
19646,-18.03
19658,-19.66
19670,-20.2
19682,-19.26
19694,-16.75
19706,-12.88
19718,-8.18
19730,-3.27
19742,1.26
19754,4.96
19765,7.61
19776,9.22
19788,9.89
19800,9.84
19812,9.27
19824,8.41
19836,7.48
19848,6.71
19860,6.25
19872,6.17
19884,6.4
19896,6.81
19908,7.19
19920,7.42
19932,7.45
19944,7.33
19955,7.1
19966,6.81
19978,6.46
19990,5.98
20002,5.37
20014,4.59
20026,3.69
20038,2.71
20050,1.68
20062,0.63
20074,-0.39
20086,-1.34
20098,-2.19
20110,-2.93
20122,-3.62
20134,-4.35
20145,-5.2
20156,-6.15
20168,-7.12
20180,-8.02
20192,-8.81
20204,-9.56
20216,-10.44
20228,-11.61
20240,-13.17
20252,-15.06
20264,-17.07
20276,-18.86
20288,-19.98
20300,-20.04
20312,-18.74
20324,-16.02
20335,-12.06
20346,-7.3
20358,-2.3
20370,2.33
20382,6.15
20394,8.91
20406,10.58
20418,11.31
20430,11.29
20442,10.72
20454,9.78
20466,8.68
20478,7.61
20490,6.8
20502,6.44
20514,6.62
20525,7.24
20536,8.09
20548,8.9
20560,9.42
20572,9.57
20584,9.38
20596,8.99
20608,8.52
20620,8.0
20632,7.35
20644,6.49
20656,5.37
20668,4.08
20680,2.81
20692,1.76
20704,1.01
20715,0.44
20726,-0.2
20738,-1.17
20750,-2.57
20762,-4.3
20774,-6.07
20786,-7.55
20798,-8.55
20810,-9.06
20822,-9.28
20834,-9.51
20846,-10.01
20858,-10.95
20870,-12.38
20882,-14.23
20894,-16.3
20905,-18.28
20916,-19.73
20928,-20.16
20940,-19.2
20952,-16.69
20964,-12.78
20976,-7.93
20988,-2.77
