seconds,BVP
2,24.99
14,24.49
26,23.14
38,21.16
50,18.92
62,16.73
73,14.76
84,13.03
96,11.46
108,10.04
120,8.81
132,7.92
144,7.44
156,7.34
168,7.39
180,7.31
192,6.84
204,5.89
216,4.54
228,3.03
240,1.65
252,0.58
263,-0.11
274,-0.53
286,-0.93
298,-1.52
310,-2.51
322,-3.91
334,-5.61
346,-7.39
358,-9.06
370,-10.48
382,-11.68
394,-12.81
406,-14.05
418,-15.6
430,-17.63
442,-20.18
453,-23.12
464,-26.05
476,-28.33
488,-29.16
500,-27.9
512,-24.26
524,-18.56
536,-11.67
548,-4.7
560,1.37
572,5.99
584,9.09
596,11.04
608,12.31
620,13.31
632,14.26
643,15.17
654,15.99
666,16.65
678,17.12
690,17.38
702,17.44
714,17.33
726,17.13
738,16.85
750,16.52
762,16.13
774,15.63
786,15.0
798,14.23
810,13.34
822,12.36
833,11.31
844,10.21
856,9.07
868,7.93
880,6.82
892,5.78
904,4.89
916,4.16
928,3.62
940,3.23
952,2.93
964,2.6
976,2.11
988,1.34
1000,0.26
1012,-1.05
1023,-2.41
1034,-3.63
1046,-4.58
1058,-5.27
1070,-5.88
1082,-6.65
1094,-7.79
1106,-9.41
1118,-11.48
1130,-13.85
1142,-16.32
1154,-18.57
1166,-20.18
1178,-20.66
1190,-19.47
1202,-16.28
1213,-11.11
1224,-4.45
1236,2.83
1248,9.7
1260,15.34
1272,19.34
1284,21.84
1296,23.34
1308,24.36
1320,25.27
1332,26.16
1344,26.94
1356,27.53
1368,27.97
1380,28.4
1392,28.9
1403,29.37
1414,29.51
1426,28.92
1438,27.34
1450,24.72
1462,21.28
1474,17.34
1486,13.19
1498,9.0
1510,4.83
1522,0.74
1534,-3.18
1546,-6.76
1558,-9.82
1570,-12.27
1582,-14.12
1593,-15.49
1604,-16.46
1616,-17.01
1628,-16.95
1640,-16.03
1652,-13.99
1664,-10.73
1676,-6.32
1688,-1.0
1700,4.94
1712,11.26
1724,17.76
1736,24.26
1748,30.52
1760,36.25
1772,41.15
1783,44.98
1794,47.58
1806,48.78
1818,48.42
1830,46.33
1842,42.46
1854,37.02
1866,30.6
1878,24.02
1890,18.03
1902,13.08
1914,9.11
1926,5.61
1938,2.0
1950,-2.16
1962,-6.87
1973,-11.78
1984,-16.37
1996,-20.19
2008,-22.98
2020,-24.75
2032,-25.63
2044,-25.75
2056,-25.2
2068,-24.01
2080,-22.2
2092,-19.81
2104,-16.88
2116,-13.46
2128,-9.65
2140,-5.66
2152,-1.78
2163,1.63
2174,4.23
2186,5.81
2198,6.36
2210,6.04
2222,5.13
2234,3.91
2246,2.52
2258,1.04
2270,-0.52
2282,-2.04
2294,-3.36
2306,-4.24
2318,-4.44
2330,-3.87
2342,-2.57
2353,-0.8
2364,1.12
2376,2.78
2388,3.84
2400,4.17
2412,3.81
2424,2.98
2436,1.93
2448,0.84
2460,-0.3
2472,-1.68
2484,-3.68
2496,-6.69
2508,-11.03
2520,-16.84
2532,-23.91
2543,-31.65
2554,-39.06
2566,-44.93
2578,-48.1
2590,-47.9
2602,-44.39
2614,-38.36
2626,-31.08
2638,-23.8
2650,-17.37
2662,-12.07
2674,-7.75
2686,-4.02
2698,-0.52
2710,2.99
2722,6.66
2733,10.64
2744,15.13
2756,20.31
2768,26.27
2780,32.96
2792,40.18
2804,47.58
2816,54.8
2828,61.46
2840,67.25
2852,71.87
2864,75.1
2876,76.65
2888,76.15
2900,73.18
2912,67.34
2923,58.44
2934,46.72
2946,32.82
2958,17.77
2970,2.71
2982,-11.39
2994,-23.93
3006,-34.76
3018,-44.01
3030,-51.86
3042,-58.42
3054,-63.67
3066,-67.54
3078,-70.01
3090,-71.23
3102,-71.48
3113,-71.07
3124,-70.28
3136,-69.29
3148,-68.24
3160,-67.35
3172,-66.82
3184,-66.68
3196,-66.7
3208,-66.29
3220,-64.73
3232,-61.4
3244,-56.11
3256,-49.2
3268,-41.45
3280,-33.81
3292,-27.05
3303,-21.62
3314,-17.52
3326,-14.52
3338,-12.26
3350,-10.45
3362,-8.89
3374,-7.53
3386,-6.42
3398,-5.67
3410,-5.39
3422,-5.61
3434,-6.24
3446,-7.09
3458,-7.91
3470,-8.39
3482,-8.24
3493,-7.16
3504,-4.93
3516,-1.42
3528,3.28
3540,8.94
3552,15.21
3564,21.72
3576,28.24
3588,34.62
3600,40.86
3612,46.97
3624,52.92
3636,58.65
3648,64.06
3660,69.07
3672,73.57
3683,77.46
3694,80.58
3706,82.74
3718,83.69
3730,83.13
3742,80.73
3754,76.14
3766,69.12
3778,59.54
3790,47.52
3802,33.44
3814,17.91
3826,1.76
3838,-13.97
3850,-28.14
3862,-39.68
3873,-47.78
3884,-52.08
3896,-52.8
3908,-50.69
3920,-46.79
3932,-42.25
3944,-37.98
3956,-34.58
3968,-32.2
3980,-30.72
3992,-29.81
4004,-29.13
4016,-28.46
4028,-27.76
4040,-27.11
4052,-26.63
4063,-26.36
4074,-26.17
4086,-25.82
4098,-25.07
4110,-23.73
4122,-21.77
4134,-19.3
4146,-16.55
4158,-13.85
4170,-11.55
4182,-9.89
4194,-8.94
4206,-8.53
4218,-8.36
4230,-8.09
4242,-7.58
4253,-6.96
4264,-6.53
4276,-6.64
4288,-7.45
4300,-8.81
4312,-10.44
4324,-12.0
4336,-13.33
4348,-14.46
4360,-15.54
4372,-16.68
4384,-17.9
4396,-19.1
4408,-20.21
4420,-21.25
4432,-22.36
4443,-23.66
4454,-25.06
4466,-26.17
4478,-26.37
4490,-25.06
4502,-21.91
4514,-17.09
4526,-11.23
4538,-5.13
4550,0.44
4562,5.04
4574,8.55
4586,11.09
4598,12.87
4610,14.05
4622,14.72
4633,14.95
4644,14.85
4656,14.56
4668,14.21
4680,13.93
4692,13.79
4704,13.79
4716,13.89
4728,14.03
4740,14.13
4752,14.18
4764,14.16
4776,14.06
4788,13.8
4800,13.23
4812,12.16
4823,10.44
4834,8.14
4846,5.52
4858,2.99
4870,0.98
4882,-0.29
4894,-0.92
4906,-1.22
4918,-1.6
4930,-2.32
4942,-3.37
4954,-4.54
4966,-5.51
4978,-6.04
4990,-6.11
5002,-5.88
5013,-5.71
5024,-5.97
5036,-6.94
5048,-8.64
5060,-10.77
5072,-12.7
5084,-13.68
5096,-13.07
5108,-10.55
5120,-6.31
5132,-0.96
5144,4.7
5156,9.91
5168,14.18
5180,17.33
5192,19.44
5203,20.65
5214,21.16
5226,21.11
5238,20.67
5250,19.95
5262,19.04
5274,17.96
5286,16.73
5298,15.4
5310,14.1
5322,13.04
5334,12.35
5346,12.13
5358,12.28
5370,12.61
5382,12.94
5393,13.13
5404,13.16
5416,13.03
5428,12.73
5440,12.19
5452,11.38
5464,10.34
5476,9.16
5488,8.01
5500,6.97
5512,6.02
5524,5.08
5536,4.08
5548,3.0
5560,1.96
5572,1.13
5583,0.59
5594,0.35
5606,0.3
5618,0.29
5630,0.22
5642,0.06
5654,-0.11
5666,-0.14
5678,0.32
5690,1.66
5702,4.28
5714,8.33
5726,13.61
5738,19.45
5750,24.88
5762,28.94
5773,30.97
5784,30.81
5796,28.79
5808,25.49
5820,21.46
5832,17.08
5844,12.48
5856,7.63
5868,2.5
5880,-2.78
5892,-7.88
5904,-12.33
5916,-15.62
5928,-17.4
5940,-17.6
5952,-16.42
5963,-14.38
5974,-12.01
5986,-9.8
5998,-8.02
6010,-6.77
6022,-6.0
6034,-5.68
6046,-5.78
6058,-6.23
6070,-6.92
6082,-7.66
6094,-8.24
6106,-8.53
6118,-8.5
6130,-8.27
6142,-8.01
6153,-7.86
6164,-7.93
6176,-8.21
6188,-8.7
6200,-9.38
6212,-10.21
6224,-11.18
6236,-12.34
6248,-13.79
6260,-15.66
6272,-17.91
6284,-20.25
6296,-22.08
6308,-22.64
6320,-21.32
6332,-17.99
6343,-13.06
6354,-7.37
6366,-1.84
6378,2.87
6390,6.53
6402,9.22
6414,11.2
6426,12.62
6438,13.5
6450,13.76
6462,13.39
6474,12.48
6486,11.24
6498,9.92
6510,8.71
6522,7.76
6533,7.11
6544,6.82
6556,6.9
6568,7.29
6580,7.91
6592,8.61
6604,9.24
6616,9.64
6628,9.66
6640,9.22
6652,8.35
6664,7.21
6676,6.06
6688,5.17
6700,4.69
6712,4.6
6723,4.68
6734,4.63
6746,4.19
6758,3.29
6770,2.06
6782,0.76
6794,-0.39
6806,-1.27
6818,-1.93
6830,-2.54
6842,-3.27
6854,-4.2
6866,-5.26
6878,-6.1
6890,-6.24
6902,-5.19
6913,-2.65
6924,1.36
6936,6.4
6948,11.79
6960,16.8
6972,20.88
6984,23.79
6996,25.59
7008,26.47
7020,26.69
7032,26.48
7044,25.98
7056,25.32
7068,24.61
7080,23.96
7092,23.48
7103,23.23
7114,23.21
7126,23.32
7138,23.42
7150,23.36
7162,23.03
7174,22.44
7186,21.69
7198,20.9
7210,20.11
7222,19.26
7234,18.15
7246,16.61
7258,14.55
7270,12.06
7282,9.36
7293,6.71
7304,4.32
7316,2.25
7328,0.45
7340,-1.24
7352,-3.04
7364,-5.08
7376,-7.4
7388,-9.86
7400,-12.13
7412,-13.71
7424,-14.07
7436,-12.82
7448,-9.87
7460,-5.53
7472,-0.39
7483,4.76
7494,9.28
7506,12.76
7518,15.17
7530,16.76
7542,17.93
7554,19.06
7566,20.28
7578,21.45
7590,22.18
7602,22.05
7614,20.8
7626,18.44
7638,15.31
7650,11.87
7662,8.52
7673,5.37
7684,2.28
7696,-1.07
7708,-4.9
7720,-9.24
7732,-13.98
7744,-18.87
7756,-23.64
7768,-28.07
7780,-31.87
7792,-34.68
7804,-36.12
7816,-35.89
7828,-33.95
7840,-30.57
7852,-26.25
7863,-21.62
7874,-17.25
7886,-13.59
7898,-10.89
7910,-9.15
7922,-8.1
7934,-7.28
7946,-6.12
7958,-4.15
7970,-1.25
7982,2.32
7994,5.98
8006,9.13
8018,11.39
8030,12.71
8042,13.31
8053,13.44
8064,13.16
8076,12.3
8088,10.72
8100,8.4
8112,5.6
8124,2.79
8136,0.46
8148,-1.1
8160,-1.87
8172,-2.05
8184,-1.96
8196,-1.81
8208,-1.78
8220,-1.93
8232,-2.31
8243,-2.91
8254,-3.65
8266,-4.39
8278,-4.97
8290,-5.27
8302,-5.26
8314,-5.09
8326,-4.99
8338,-5.18
8350,-5.89
8362,-7.27
8374,-9.36
8386,-12.04
8398,-14.91
8410,-17.33
8422,-18.56
8433,-17.98
8444,-15.38
8456,-11.13
8468,-6.04
8480,-1.19
8492,2.5
8504,4.52
8516,4.81
8528,3.74
8540,1.87
8552,-0.29
8564,-2.38
8576,-4.26
8588,-5.9
8600,-7.33
8612,-8.52
8623,-9.37
8634,-9.77
8646,-9.61
8658,-8.95
8670,-7.93
8682,-6.83
8694,-5.87
8706,-5.23
8718,-4.95
8730,-5.01
8742,-5.36
8754,-5.93
8766,-6.72
8778,-7.72
8790,-8.93
8802,-10.26
8813,-11.62
8824,-12.92
8836,-14.2
8848,-15.63
8860,-17.46
8872,-19.93
8884,-22.92
8896,-25.97
8908,-28.24
8920,-28.81
8932,-27.11
8944,-23.14
8956,-17.53
8968,-11.31
8980,-5.54
8992,-0.92
9003,2.34
9014,4.44
9026,5.81
9038,6.87
9050,7.93
9062,9.17
9074,10.67
9086,12.37
9098,14.22
9110,16.05
9122,17.77
9134,19.34
9146,20.86
9158,22.59
9170,24.77
9182,27.56
9193,30.9
9204,34.46
9216,37.78
9228,40.42
9240,42.06
9252,42.57
9264,41.99
9276,40.48
9288,38.24
9300,35.57
9312,32.78
9324,30.17
9336,27.96
9348,26.13
9360,24.47
9372,22.56
9383,20.04
9394,16.74
9406,12.89
9418,9.08
9430,6.06
9442,4.43
9454,4.39
9466,5.62
9478,7.43
9490,9.09
9502,10.16
9514,10.65
9526,10.91
9538,11.37
9550,12.23
9562,13.37
9573,14.4
9584,14.97
9596,14.93
9608,14.43
9620,13.78
9632,13.3
9644,13.14
9656,13.23
9668,13.34
9680,13.18
9692,12.47
9704,11.08
9716,8.94
9728,6.11
9740,2.7
9752,-1.22
9763,-5.56
9774,-10.29
9786,-15.33
9798,-20.54
9810,-25.68
9822,-30.51
9834,-34.86
9846,-38.71
9858,-42.18
9870,-45.47
9882,-48.76
9894,-52.12
9906,-55.56
9918,-59.07
9930,-62.65
9942,-66.33
9953,-70.01
9964,-73.54
9976,-76.66
9988,-79.18
10000,-81.03
10012,-82.21
10024,-82.64
10036,-82.01
10048,-79.76
10060,-75.34
10072,-68.58
10084,-59.84
10096,-50.13
10108,-40.65
10120,-32.4
10132,-25.83
10143,-20.83
10154,-16.96
10166,-13.75
10178,-10.9
10190,-8.27
10202,-5.78
10214,-3.32
10226,-0.75
10238,2.0
10250,4.91
10262,7.81
10274,10.53
10286,12.97
10298,15.12
10310,16.99
10322,18.61
10333,19.92
10344,20.82
10356,21.21
10368,20.99
10380,20.19
10392,18.89
10404,17.23
10416,15.35
10428,13.35
10440,11.25
10452,9.01
10464,6.61
10476,4.04
10488,1.39
10500,-1.19
10512,-3.56
10523,-5.62
10534,-7.32
10546,-8.68
10558,-9.72
10570,-10.47
10582,-11.02
10594,-11.49
10606,-12.09
10618,-13.1
10630,-14.56
10642,-16.3
10654,-17.81
10666,-18.28
10678,-16.99
10690,-13.53
10702,-8.05
10713,-1.32
10724,5.51
10736,11.34
10748,15.44
10760,17.65
10772,18.31
10784,17.96
10796,17.1
10808,15.99
10820,14.7
10832,13.19
10844,11.5
10856,9.78
10868,8.21
10880,6.93
10892,5.93
10903,5.08
10914,4.21
10926,3.19
10938,2.0
10950,0.72
10962,-0.53
10974,-1.75
10986,-2.95
10998,-4.23
11010,-5.61
11022,-7.04
11034,-8.31
11046,-9.17
11058,-9.4
11070,-8.93
11082,-7.81
11093,-6.26
11104,-4.55
11116,-2.95
11128,-1.65
11140,-0.83
11152,-0.55
11164,-0.82
11176,-1.6
11188,-2.67
11200,-3.72
11212,-4.36
11224,-4.3
11236,-3.44
11248,-2.01
11260,-0.49
11272,0.6
11283,0.88
11294,0.28
11306,-0.84
11318,-1.81
11330,-1.83
11342,-0.23
11354,3.32
11366,8.65
11378,15.15
11390,21.83
11402,27.59
11414,31.52
11426,33.19
11438,32.75
11450,30.89
11462,28.5
11473,26.45
11484,25.22
11496,24.83
11508,25.03
11520,25.37
11532,25.45
11544,25.03
11556,23.99
11568,22.35
11580,20.19
11592,17.68
11604,14.98
11616,12.28
11628,9.73
11640,7.45
11652,5.49
11663,3.93
11674,2.75
11686,1.86
11698,1.03
11710,0.0
11722,-1.38
11734,-3.09
11746,-4.85
11758,-6.32
11770,-7.24
11782,-7.66
11794,-7.88
11806,-8.3
11818,-9.18
11830,-10.47
11842,-11.87
11853,-12.98
11864,-13.56
11876,-13.67
11888,-13.64
11900,-13.85
11912,-14.55
11924,-15.71
11936,-17.14
11948,-18.53
11960,-19.55
11972,-19.88
11984,-19.15
11996,-16.97
12008,-13.14
12020,-7.7
12032,-1.13
12043,5.75
12054,12.04
12066,17.02
12078,20.39
12090,22.29
12102,23.15
12114,23.47
12126,23.58
12138,23.59
12150,23.44
12162,23.03
12174,22.31
12186,21.36
12198,20.35
12210,19.46
12222,18.76
12233,18.19
12244,17.53
12256,16.56
12268,15.13
12280,13.2
12292,10.82
12304,8.06
12316,4.97
12328,1.52
12340,-2.26
12352,-6.29
12364,-10.36
12376,-14.23
12388,-17.75
12400,-20.94
12412,-23.92
12423,-26.87
12434,-29.82
12446,-32.61
12458,-34.93
12470,-36.39
12482,-36.67
12494,-35.57
12506,-33.05
12518,-29.19
12530,-24.28
12542,-18.76
12554,-13.19
12566,-8.09
12578,-3.73
12590,0.05
12602,3.75
12613,8.03
12624,13.31
12636,19.51
12648,26.02
12660,31.92
12672,36.34
12684,38.69
12696,38.87
12708,37.11
12720,33.82
12732,29.44
12744,24.34
12756,18.83
12768,13.21
12780,7.71
12792,2.51
12803,-2.29
12814,-6.65
12826,-10.61
12838,-14.16
12850,-17.29
12862,-19.85
12874,-21.62
12886,-22.36
12898,-21.84
12910,-19.94
12922,-16.72
12934,-12.45
12946,-7.59
12958,-2.71
12970,1.64
12982,5.06
12993,7.32
13004,8.41
13016,8.43
13028,7.54
13040,5.94
13052,3.8
13064,1.35
13076,-1.18
13088,-3.54
13100,-5.51
13112,-6.95
13124,-7.89
13136,-8.54
13148,-9.21
13160,-10.21
13172,-11.66
13183,-13.34
13194,-14.68
13206,-14.97
13218,-13.65
13230,-10.68
13242,-6.55
13254,-2.23
13266,1.29
13278,3.36
13290,3.93
13302,3.46
13314,2.63
13326,2.04
13338,1.97
13350,2.37
13362,2.98
13373,3.52
13384,3.82
13396,3.84
13408,3.57
13420,3.03
13432,2.33
13444,1.62
13456,1.18
13468,1.3
13480,2.24
13492,4.13
13504,6.97
13516,10.65
13528,15.01
13540,19.86
13552,24.99
13563,30.13
13574,34.98
13586,39.09
13598,41.99
13610,43.2
13622,42.33
13634,39.16
13646,33.66
13658,26.04
13670,16.68
13682,6.13
13694,-5.07
13706,-16.35
13718,-27.25
13730,-37.25
13742,-45.78
13753,-52.2
13764,-55.92
13776,-56.56
13788,-54.1
13800,-49.07
13812,-42.42
13824,-35.3
13836,-28.83
13848,-23.68
13860,-20.03
13872,-17.6
13884,-15.89
13896,-14.45
13908,-13.01
13920,-11.48
13932,-9.79
13943,-7.78
13954,-5.1
13966,-1.32
13978,3.9
13990,10.65
14002,18.69
14014,27.53
14026,36.59
14038,45.32
14050,53.39
14062,60.71
14074,67.33
14086,73.26
14098,78.31
14110,81.98
14122,83.46
14133,81.95
14144,76.89
14156,68.26
14168,56.71
14180,43.35
14192,29.48
14204,16.2
14216,4.2
14228,-6.3
14240,-15.32
14252,-23.01
14264,-29.47
14276,-34.73
14288,-38.79
14300,-41.58
14312,-43.0
14323,-42.89
14334,-41.1
14346,-37.58
14358,-32.53
14370,-26.48
14382,-20.16
14394,-14.32
14406,-9.52
14418,-5.99
14430,-3.66
14442,-2.31
14454,-1.73
14466,-1.74
14478,-2.24
14490,-3.11
14502,-4.17
14513,-5.21
14524,-6.04
14536,-6.56
14548,-6.78
14560,-6.81
14572,-6.77
14584,-6.81
14596,-6.99
14608,-7.26
14620,-7.5
14632,-7.54
14644,-7.25
14656,-6.67
14668,-5.99
14680,-5.55
14692,-5.62
14703,-6.29
14714,-7.37
14726,-8.52
14738,-9.34
14750,-9.66
14762,-9.54
14774,-9.21
14786,-9.0
14798,-9.1
14810,-9.61
14822,-10.48
14834,-11.59
14846,-12.71
14858,-13.49
14870,-13.47
14882,-12.16
14893,-9.26
14904,-4.84
14916,0.67
14928,6.51
14940,11.89
14952,16.21
14964,19.23
14976,21.02
14988,21.88
15000,22.06
15012,21.78
15024,21.16
15036,20.27
15048,19.23
15060,18.27
15072,17.63
15083,17.53
15094,18.07
15106,19.14
15118,20.49
15130,21.76
15142,22.67
15154,23.09
15166,23.04
15178,22.7
15190,22.22
15202,21.73
15214,21.19
15226,20.5
15238,19.54
15250,18.25
15262,16.74
15273,15.27
15284,14.19
15296,13.83
15308,14.32
15320,15.46
15332,16.74
15344,17.51
15356,17.3
15368,16.17
15380,14.84
15392,14.5
15404,16.39
15416,21.23
15428,28.84
15440,38.09
15452,47.35
15463,54.96
15474,59.74
15486,61.25
15498,59.73
15510,55.96
15522,51.0
15534,46.0
15546,41.86
15558,39.0
15570,37.12
15582,35.15
15594,31.48
15606,24.58
15618,13.78
15630,-0.12
15642,-14.83
15653,-27.05
15664,-33.61
15676,-32.69
15688,-24.56
15700,-11.48
15712,3.17
15724,16.23
15736,25.77
15748,31.39
15760,33.72
15772,33.46
15784,30.47
15796,23.59
15808,11.21
15820,-7.64
15832,-32.31
15843,-60.13
15854,-86.91
15866,-108.2
15878,-120.62
15890,-122.97
15902,-116.37
15914,-103.53
15926,-87.49
15938,-70.49
15950,-53.54
15962,-36.89
15974,-20.96
15986,-7.11
15998,2.53
16010,6.03
16022,2.89
16033,-5.36
16044,-15.58
16056,-24.29
16068,-29.26
16080,-30.36
16092,-29.22
16104,-28.2
16116,-29.03
16128,-32.15
16140,-36.85
16152,-41.88
16164,-46.24
16176,-49.61
16188,-52.3
16200,-54.93
16212,-58.13
16223,-62.23
16234,-67.25
16246,-72.82
16258,-78.28
16270,-82.79
16282,-85.53
16294,-85.92
16306,-83.79
16318,-79.47
16330,-73.7
16342,-67.4
16354,-61.38
16366,-56.09
16378,-51.43
16390,-46.8
16402,-41.25
16413,-33.88
16424,-24.34
16436,-12.9
16448,-0.55
16460,11.39
16472,21.78
16484,30.04
16496,36.31
16508,41.21
16520,45.51
16532,49.77
16544,54.26
16556,59.07
16568,64.25
16580,69.77
16592,75.51
16603,80.94
16614,85.17
16626,87.06
16638,85.55
16650,80.06
16662,70.64
16674,57.91
16686,42.93
16698,26.87
16710,10.89
16722,-4.01
16734,-17.01
16746,-27.51
16758,-35.14
16770,-39.8
16782,-41.57
16793,-40.66
16804,-37.35
16816,-31.98
16828,-25.02
16840,-17.11
16852,-9.03
16864,-1.62
16876,4.48
16888,8.99
16900,12.08
16912,14.36
16924,16.7
16936,19.97
16948,24.77
16960,31.23
16972,38.88
16983,46.78
16994,53.68
17006,58.31
17018,59.72
17030,57.47
17042,51.66
17054,42.85
17066,31.78
17078,19.16
17090,5.57
17102,-8.45
17114,-22.2
17126,-34.64
17138,-44.43
17150,-50.19
17162,-50.85
17173,-46.06
17184,-36.29
17196,-22.7
17208,-6.79
17220,9.96
17232,26.29
17244,41.21
17256,53.88
17268,63.57
17280,69.74
17292,72.11
17304,70.83
17316,66.41
17328,59.69
17340,51.52
17352,42.68
17363,33.7
17374,24.94
17386,16.62
17398,8.85
17410,1.75
17422,-4.64
17434,-10.39
17446,-15.58
17458,-20.24
17470,-24.21
17482,-27.13
17494,-28.55
17506,-28.19
17518,-26.23
17530,-23.32
17542,-20.52
17553,-18.84
17564,-18.89
17576,-20.65
17588,-23.53
17600,-26.66
17612,-29.25
17624,-30.81
17636,-31.21
17648,-30.6
17660,-29.18
17672,-27.17
17684,-24.68
17696,-21.85
17708,-18.85
17720,-15.88
17732,-13.21
17743,-11.02
17754,-9.38
17766,-8.22
17778,-7.37
17790,-6.64
17802,-5.91
17814,-5.21
17826,-4.59
17838,-4.18
17850,-4.01
17862,-4.07
17874,-4.31
17886,-4.65
17898,-5.08
17910,-5.53
17922,-5.93
17933,-6.17
17944,-6.22
17956,-6.13
17968,-6.06
17980,-6.24
17992,-6.83
18004,-7.89
18016,-9.35
18028,-11.09
18040,-12.92
18052,-14.67
18064,-16.01
18076,-16.59
18088,-16.02
18100,-14.12
18112,-11.04
18123,-7.31
18134,-3.73
18146,-1.05
18158,0.21
18170,-0.02
18182,-1.5
18194,-3.82
18206,-6.66
18218,-9.87
18230,-13.49
18242,-17.6
18254,-22.27
18266,-27.42
18278,-32.93
18290,-38.67
18302,-44.57
18313,-50.6
18324,-56.58
18336,-62.05
18348,-66.13
18360,-67.65
18372,-65.51
18384,-59.05
18396,-48.44
18408,-34.69
18420,-19.33
18432,-3.99
18444,10.11
18456,22.26
18468,32.25
18480,40.01
18492,45.47
18503,48.47
18514,48.94
18526,47.15
18538,43.77
18550,39.77
18562,36.11
18574,33.37
18586,31.69
18598,30.89
18610,30.66
18622,30.98
18634,32.09
18646,34.37
18658,37.95
18670,42.54
18682,47.25
18693,50.98
18704,52.73
18716,52.0
18728,48.83
18740,43.78
18752,37.46
18764,30.38
18776,22.83
18788,14.85
18800,6.52
18812,-2.0
18824,-10.31
18836,-17.83
18848,-23.92
18860,-28.06
18872,-29.93
18883,-29.5
18894,-27.05
18906,-22.95
18918,-17.58
18930,-11.1
18942,-3.49
18954,5.35
18966,15.35
18978,26.22
18990,37.37
19002,48.07
19014,57.69
19026,65.88
19038,72.6
19050,78.04
19062,82.34
19073,85.47
19084,87.06
19096,86.5
19108,82.9
19120,75.3
19132,62.77
19144,44.73
19156,21.27
19168,-6.45
19180,-36.11
19192,-64.38
19204,-87.62
19216,-102.8
19228,-108.38
19240,-104.81
19252,-94.26
19263,-79.87
19274,-64.66
19286,-50.68
19298,-38.65
19310,-28.2
19322,-18.51
19334,-8.95
19346,0.54
19358,9.61
19370,17.81
19382,25.07
19394,31.84
19406,39.0
19418,47.48
19430,57.81
19442,69.84
19453,82.71
19464,95.1
19476,105.64
19488,113.33
19500,117.81
19512,119.36
19524,118.64
19536,116.29
19548,112.66
19560,107.61
19572,100.64
19584,91.09
19596,78.45
19608,62.7
19620,44.55
19632,25.58
19643,8.08
19654,-5.32
19666,-12.39
19678,-12.15
19690,-5.49
19702,4.71
19714,14.27
19726,19.13
19738,16.92
19750,7.95
19762,-4.71
19774,-16.43
19786,-22.94
19798,-22.32
19810,-16.01
19822,-8.41
19833,-5.1
19844,-10.49
19856,-25.95
19868,-49.34
19880,-76.09
19892,-101.14
19904,-120.78
19916,-133.62
19928,-140.03
19940,-141.1
19952,-137.54
19964,-129.42
19976,-116.8
19988,-100.64
20000,-83.08
20012,-66.62
20023,-52.79
20034,-41.08
20046,-28.97
20058,-13.24
20070,8.15
20082,34.8
20094,63.85
20106,91.23
20118,113.33
20130,127.78
20142,133.16
20154,128.1
20166,110.69
20178,79.17
20190,33.66
20202,-22.25
20213,-81.36
20224,-134.62
20236,-174.3
20248,-196.6
20260,-202.44
20272,-196.01
20284,-181.92
20296,-162.98
20308,-139.6
20320,-111.09
20332,-77.72
20344,-41.88
20356,-7.62
20368,21.27
20380,42.92
20392,58.26
20403,70.05
20414,81.07
20426,92.65
20438,104.29
20450,114.46
20462,122.05
20474,127.21
20486,131.23
20498,135.72
20510,141.37
20522,147.4
20534,151.79
20546,152.11
20558,146.57
20570,134.6
20582,116.86
20593,94.82
20604,70.25
20616,44.81
20628,19.9
20640,-3.3
20652,-23.83
20664,-40.95
20676,-54.21
20688,-63.55
20700,-69.27
20712,-71.89
20724,-72.06
20736,-70.45
20748,-67.74
20760,-64.52
20772,-61.32
20783,-58.47
20794,-56.14
20806,-54.34
20818,-52.92
20830,-51.75
20842,-50.72
20854,-49.78
20866,-48.92
20878,-48.14
20890,-47.4
20902,-46.63
20914,-45.77
20926,-44.77
20938,-43.63
20950,-42.36
20962,-40.98
20973,-39.48
20984,-37.82
20996,-35.95
