seconds,BVP
8,3.51
20,2.98
32,2.64
44,2.53
56,2.71
68,3.21
80,3.9
92,4.74
104,5.64
115,6.66
126,7.87
138,9.4
150,11.21
162,13.11
174,14.89
186,16.26
198,17.13
210,17.55
222,17.75
234,17.95
246,18.35
258,18.96
270,19.76
282,20.74
294,21.84
305,23.02
316,24.23
328,25.27
340,25.94
352,26.02
364,25.47
376,24.42
388,23.28
400,22.5
412,22.53
424,23.61
436,25.67
448,28.3
460,30.94
472,33.09
484,34.45
495,35.0
506,34.87
518,34.3
530,33.51
542,32.63
554,31.84
566,31.24
578,30.74
590,30.02
602,28.55
614,25.63
626,20.84
638,14.09
650,5.68
662,-3.74
674,-13.53
685,-23.24
696,-32.6
708,-41.52
720,-49.95
732,-57.75
744,-64.71
756,-70.51
768,-74.81
780,-77.24
792,-77.53
804,-75.53
816,-71.27
828,-65.02
840,-57.22
852,-48.44
864,-39.21
875,-29.99
886,-21.2
898,-13.19
910,-6.27
922,-0.62
934,3.68
946,6.73
958,8.6
970,9.42
982,9.29
994,8.27
1006,6.41
1018,3.88
1030,0.91
1042,-2.3
1054,-5.52
1065,-8.7
1076,-11.89
1088,-15.25
1100,-18.95
1112,-23.14
1124,-27.87
1136,-33.07
1148,-38.65
1160,-44.42
1172,-50.26
1184,-55.98
1196,-61.41
1208,-66.27
1220,-70.16
1232,-72.66
1244,-73.39
1255,-72.16
1266,-68.96
1278,-64.04
1290,-57.78
1302,-50.63
1314,-43.02
1326,-35.3
1338,-27.73
1350,-20.47
1362,-13.53
1374,-6.75
1386,0.16
1398,7.49
1410,15.38
1422,23.74
1434,32.14
1445,39.93
1456,46.45
1468,51.19
1480,54.06
1492,55.35
1504,55.61
1516,55.44
1528,55.26
1540,55.17
1552,55.01
1564,54.51
1576,53.41
1588,51.63
1600,49.22
1612,46.36
1624,43.19
1635,39.78
1646,36.17
1658,32.4
1670,28.56
1682,24.71
1694,20.91
1706,17.16
1718,13.45
1730,9.73
1742,6.03
1754,2.44
1766,-0.94
1778,-4.01
1790,-6.74
1802,-9.19
1814,-11.44
1825,-13.54
1836,-15.52
1848,-17.34
1860,-19.0
1872,-20.5
1884,-21.84
1896,-22.94
1908,-23.59
1920,-23.51
1932,-22.44
1944,-20.28
1956,-17.16
1968,-13.45
1980,-9.68
1992,-6.32
2004,-3.67
2015,-1.81
2026,-0.61
2038,0.14
2050,0.7
2062,1.21
2074,1.77
2086,2.34
2098,2.91
2110,3.42
2122,3.88
2134,4.26
2146,4.49
2158,4.5
2170,4.2
2182,3.63
2194,2.89
2205,2.15
2216,1.51
2228,0.98
2240,0.42
2252,-0.34
2264,-1.41
2276,-2.78
2288,-4.35
2300,-6.03
2312,-7.74
2324,-9.46
2336,-11.17
2348,-12.8
2360,-14.27
2372,-15.49
2384,-16.39
2395,-16.94
2406,-17.21
2418,-17.21
2430,-16.99
2442,-16.56
2454,-15.89
2466,-14.98
2478,-13.81
2490,-12.28
2502,-10.26
2514,-7.66
2526,-4.4
2538,-0.59
2550,3.51
2562,7.5
2574,10.9
2585,13.36
2596,14.76
2608,15.28
2620,15.24
2632,15.02
2644,14.84
2656,14.74
2668,14.56
2680,14.12
2692,13.32
2704,12.2
2716,11.0
2728,9.87
2740,8.93
2752,8.14
2764,7.35
2775,6.46
2786,5.43
2798,4.36
2810,3.4
2822,2.68
2834,2.2
2846,1.88
2858,1.54
2870,1.03
2882,0.26
2894,-0.72
2906,-1.83
2918,-2.97
2930,-4.07
2942,-5.11
2954,-6.05
2965,-6.83
2976,-7.4
2988,-7.75
3000,-7.93
3012,-8.06
3024,-8.23
3036,-8.42
3048,-8.4
3060,-7.85
3072,-6.44
3084,-4.04
3096,-0.83
3108,2.77
3120,6.27
3132,9.23
3144,11.44
3155,12.91
3166,13.7
3178,13.94
3190,13.65
3202,12.87
3214,11.66
3226,10.26
3238,8.93
3250,7.92
3262,7.34
3274,7.09
3286,6.94
3298,6.61
3310,6.01
3322,5.23
3334,4.48
3345,4.01
3356,3.89
3368,4.0
3380,4.02
3392,3.64
3404,2.64
3416,1.05
3428,-0.94
3440,-3.02
3452,-4.9
3464,-6.44
3476,-7.65
3488,-8.64
3500,-9.56
3512,-10.42
3524,-11.26
3535,-11.97
3546,-12.5
3558,-12.81
3570,-12.89
3582,-12.66
3594,-12.02
3606,-10.79
3618,-8.81
3630,-6.11
3642,-2.87
3654,0.51
3666,3.6
3678,6.04
3690,7.7
3702,8.66
3714,9.11
3725,9.3
3736,9.34
3748,9.28
3760,9.04
3772,8.6
3784,8.01
3796,7.4
3808,6.91
3820,6.57
3832,6.37
3844,6.17
3856,5.87
3868,5.42
3880,4.88
3892,4.34
3904,3.88
3915,3.5
3926,3.08
3938,2.49
3950,1.58
3962,0.32
3974,-1.2
3986,-2.83
3998,-4.36
4010,-5.65
4022,-6.65
4034,-7.43
4046,-8.11
4058,-8.9
4070,-9.88
4082,-11.06
4094,-12.33
4105,-13.44
4116,-14.12
4128,-14.12
4140,-13.38
4152,-11.95
4164,-10.16
4176,-8.43
4188,-7.15
4200,-6.66
4212,-7.09
4224,-8.4
4236,-10.3
4248,-12.46
4260,-14.39
4272,-15.72
4284,-16.25
4295,-15.99
4306,-15.12
4318,-13.91
4330,-12.57
4342,-11.12
4354,-9.45
4366,-7.35
4378,-4.71
4390,-1.56
4402,1.95
4414,5.55
4426,9.03
4438,12.18
4450,14.92
4462,17.23
4474,19.11
4485,20.58
4496,21.72
4508,22.58
4520,23.35
4532,24.19
4544,25.26
4556,26.65
4568,28.34
4580,30.16
4592,31.83
4604,33.08
4616,33.68
4628,33.5
4640,32.6
4652,31.13
4664,29.4
4675,27.7
4686,26.19
4698,24.85
4710,23.39
4722,21.44
4734,18.59
4746,14.74
4758,9.93
4770,4.52
4782,-1.07
4794,-6.49
4806,-11.41
4818,-15.65
4830,-19.12
4842,-21.81
4854,-23.73
4865,-24.94
4876,-25.57
4888,-25.7
4900,-25.4
4912,-24.64
4924,-23.33
4936,-21.44
4948,-19.01
4960,-16.2
4972,-13.28
4984,-10.59
4996,-8.38
5008,-6.84
5020,-6.02
5032,-5.94
5044,-6.54
5055,-7.67
5066,-9.11
5078,-10.66
5090,-12.06
5102,-13.13
5114,-13.81
5126,-14.08
5138,-13.99
5150,-13.63
5162,-13.1
5174,-12.48
5186,-11.87
5198,-11.24
5210,-10.44
5222,-9.2
5234,-7.23
5245,-4.34
5256,-0.63
5268,3.54
5280,7.63
5292,11.18
5304,13.93
5316,15.85
5328,17.05
5340,17.64
5352,17.7
5364,17.26
5376,16.35
5388,15.05
5400,13.5
5412,11.86
5424,10.25
5435,8.78
5446,7.51
5458,6.47
5470,5.66
5482,5.03
5494,4.44
5506,3.73
5518,2.87
5530,1.86
5542,0.82
5554,-0.12
5566,-0.9
5578,-1.53
5590,-2.07
5602,-2.63
5614,-3.28
5625,-4.06
5636,-4.98
5648,-6.02
5660,-7.14
5672,-8.24
5684,-9.22
5696,-9.98
5708,-10.49
5720,-10.78
5732,-11.03
5744,-11.39
5756,-11.96
5768,-12.82
5780,-13.92
5792,-15.1
5804,-16.13
5815,-16.63
5826,-16.23
5838,-14.65
5850,-11.84
5862,-8.0
5874,-3.6
5886,0.83
5898,4.8
5910,7.98
5922,10.3
5934,11.88
5946,12.96
5958,13.71
5970,14.28
5982,14.71
5994,14.97
6005,14.99
6016,14.72
6028,14.19
6040,13.51
6052,12.82
6064,12.22
6076,11.8
6088,11.55
6100,11.43
6112,11.29
6124,10.93
6136,10.23
6148,9.1
6160,7.62
6172,5.96
6184,4.36
6195,2.93
6206,1.73
6218,0.67
6230,-0.41
6242,-1.56
6254,-2.81
6266,-4.1
6278,-5.38
6290,-6.63
6302,-7.85
6314,-9.03
6326,-10.12
6338,-11.09
6350,-11.94
6362,-12.73
6374,-13.49
6385,-14.18
6396,-14.65
6408,-14.56
6420,-13.63
6432,-11.69
6444,-8.79
6456,-5.19
6468,-1.31
6480,2.45
6492,5.77
6504,8.48
6516,10.6
6528,12.17
6540,13.28
6552,13.9
6564,14.02
6575,13.6
6586,12.69
6598,11.51
6610,10.31
6622,9.32
6634,8.65
6646,8.25
6658,7.91
6670,7.43
6682,6.68
6694,5.7
6706,4.66
6718,3.77
6730,3.14
6742,2.7
6754,2.32
6765,1.8
6776,1.0
6788,-0.11
6800,-1.48
6812,-3.05
6824,-4.7
6836,-6.32
6848,-7.76
6860,-8.91
6872,-9.73
6884,-10.3
6896,-10.79
6908,-11.37
6920,-12.15
6932,-13.08
6944,-13.9
6955,-14.27
6966,-13.86
6978,-12.48
6990,-10.05
7002,-6.72
7014,-2.8
7026,1.27
7038,5.02
7050,8.09
7062,10.28
7074,11.52
7086,11.93
7098,11.74
7110,11.19
7122,10.46
7134,9.65
7145,8.84
7156,8.01
7168,7.18
7180,6.36
7192,5.57
7204,4.9
7216,4.44
7228,4.29
7240,4.43
7252,4.8
7264,5.25
7276,5.58
7288,5.66
7300,5.4
7312,4.81
7324,3.93
7335,2.83
7346,1.56
7358,0.15
7370,-1.36
7382,-2.88
7394,-4.34
7406,-5.65
7418,-6.78
7430,-7.75
7442,-8.7
7454,-9.73
7466,-10.98
7478,-12.51
7490,-14.28
7502,-16.15
7514,-17.82
7525,-18.91
7536,-19.09
7548,-18.1
7560,-15.84
7572,-12.49
7584,-8.44
7596,-4.17
7608,-0.17
7620,3.16
7632,5.67
7644,7.43
7656,8.64
7668,9.56
7680,10.39
7692,11.18
7704,11.84
7715,12.23
7726,12.23
7738,11.8
7750,11.05
7762,10.13
7774,9.26
7786,8.55
7798,8.08
7810,7.8
7822,7.57
7834,7.24
7846,6.69
7858,5.9
7870,4.91
7882,3.88
7894,2.97
7905,2.25
7916,1.71
7928,1.16
7940,0.4
7952,-0.73
7964,-2.25
7976,-3.98
7988,-5.63
8000,-6.94
8012,-7.81
8024,-8.37
8036,-8.87
8048,-9.6
8060,-10.68
8072,-12.05
8084,-13.52
8095,-14.75
8106,-15.41
8118,-15.23
8130,-13.96
8142,-11.54
8154,-8.08
8166,-3.9
8178,0.52
8190,4.63
8202,7.97
8214,10.29
8226,11.55
8238,11.93
8250,11.7
8262,11.14
8274,10.53
8285,10.04
8296,9.76
8308,9.61
8320,9.49
8332,9.28
8344,8.91
8356,8.4
8368,7.81
8380,7.2
8392,6.56
8404,5.85
8416,5.03
8428,4.16
8440,3.3
8452,2.56
8464,1.96
8475,1.43
8486,0.88
8498,0.21
8510,-0.6
8522,-1.53
8534,-2.54
8546,-3.58
8558,-4.66
8570,-5.77
8582,-6.9
8594,-8.04
8606,-9.16
8618,-10.24
8630,-11.3
8642,-12.35
8654,-13.41
8665,-14.54
8676,-15.76
8688,-16.98
8700,-18.03
8712,-18.57
8724,-18.21
8736,-16.67
8748,-13.88
8760,-10.09
8772,-5.78
8784,-1.49
8796,2.31
8808,5.33
8820,7.5
8832,8.92
8844,9.74
8855,10.1
8866,10.13
8878,9.88
8890,9.4
8902,8.78
8914,8.05
8926,7.34
8938,6.75
8950,6.32
8962,6.04
8974,5.82
8986,5.64
8998,5.53
9010,5.61
9022,5.97
9034,6.65
9045,7.52
9056,8.46
9068,9.33
9080,10.11
9092,10.9
9104,11.73
9116,12.55
9128,13.08
9140,13.06
9152,12.24
9164,10.54
9176,8.08
9188,5.07
9200,1.72
9212,-1.82
9224,-5.4
9235,-8.93
9246,-12.23
9258,-15.13
9270,-17.48
9282,-19.15
9294,-20.15
9306,-20.46
9318,-20.12
9330,-19.08
9342,-17.36
9354,-15.04
9366,-12.37
9378,-9.72
9390,-7.5
9402,-6.06
9414,-5.54
9425,-5.88
9436,-6.83
9448,-8.03
9460,-9.14
9472,-9.89
9484,-10.13
9496,-9.75
9508,-8.76
9520,-7.16
9532,-5.03
9544,-2.45
9556,0.41
9568,3.4
9580,6.29
9592,8.84
9604,10.92
9615,12.44
9626,13.46
9638,14.08
9650,14.39
9662,14.41
9674,14.08
9686,13.34
9698,12.13
9710,10.49
9722,8.57
9734,6.53
9746,4.49
9758,2.43
9770,0.32
9782,-1.93
9794,-4.25
9805,-6.5
9816,-8.53
9828,-10.23
9840,-11.59
9852,-12.74
9864,-13.74
9876,-14.6
9888,-15.19
9900,-15.23
9912,-14.46
9924,-12.75
9936,-10.12
9948,-6.78
9960,-3.09
9972,0.61
9984,3.95
9995,6.7
10006,8.77
10018,10.25
10030,11.28
10042,12.06
10054,12.71
10066,13.27
10078,13.69
10090,13.9
10102,13.85
10114,13.59
10126,13.26
10138,12.94
10150,12.65
10162,12.34
10174,11.95
10185,11.42
10196,10.82
10208,10.2
10220,9.61
10232,9.03
10244,8.3
10256,7.24
10268,5.75
10280,3.78
10292,1.44
10304,-1.13
10316,-3.82
10328,-6.5
10340,-9.07
10352,-11.32
10364,-13.02
10375,-13.91
10386,-13.89
10398,-12.95
10410,-11.25
10422,-9.01
10434,-6.42
10446,-3.63
10458,-0.65
10470,2.54
10482,6.04
10494,9.87
10506,14.03
10518,18.42
10530,22.74
10542,26.58
10554,29.52
10565,31.21
10576,31.55
10588,30.63
10600,28.68
10612,26.04
10624,23.08
10636,20.14
10648,17.59
10660,15.69
10672,14.56
10684,14.07
10696,13.85
10708,13.37
10720,12.17
10732,9.99
10744,6.88
10755,3.17
10766,-0.7
10778,-4.34
10790,-7.52
10802,-10.19
10814,-12.41
10826,-14.32
10838,-16.09
10850,-17.9
10862,-19.91
10874,-22.21
10886,-24.84
10898,-27.68
10910,-30.53
10922,-33.14
10934,-35.26
10945,-36.78
10956,-37.65
10968,-37.89
10980,-37.54
10992,-36.59
11004,-35.0
11016,-32.78
11028,-30.02
11040,-26.9
11052,-23.6
11064,-20.22
11076,-16.77
11088,-13.13
11100,-9.25
11112,-5.17
11124,-1.17
11135,2.39
11146,5.18
11158,7.06
11170,8.13
11182,8.64
11194,8.89
11206,9.06
11218,9.16
11230,9.09
11242,8.77
11254,8.26
11266,7.61
11278,6.98
11290,6.46
11302,5.99
11314,5.45
11325,4.71
11336,3.66
11348,2.24
11360,0.56
11372,-1.31
11384,-3.16
11396,-4.75
11408,-5.88
11420,-6.44
11432,-6.42
11444,-5.97
11456,-5.25
11468,-4.33
11480,-3.14
11492,-1.49
11504,0.81
11515,3.89
11526,7.75
11538,12.33
11550,17.46
11562,22.91
11574,28.35
11586,33.4
11598,37.65
11610,40.74
11622,42.49
11634,43.0
11646,42.48
11658,41.21
11670,39.36
11682,37.06
11694,34.38
11705,31.42
11716,28.31
11728,25.14
11740,21.91
11752,18.45
11764,14.45
11776,9.6
11788,3.74
11800,-3.12
11812,-10.78
11824,-18.99
11836,-27.63
11848,-36.63
11860,-46.0
11872,-55.65
11884,-65.3
11895,-74.4
11906,-82.28
11918,-88.28
11930,-91.87
11942,-92.82
11954,-91.2
11966,-87.25
11978,-81.42
11990,-74.23
12002,-66.21
12014,-57.85
12026,-49.47
12038,-41.21
12050,-33.04
12062,-24.81
12074,-16.38
12085,-7.77
12096,0.88
12108,9.33
12120,17.29
12132,24.6
12144,31.2
12156,37.16
12168,42.58
12180,47.52
12192,51.99
12204,55.89
12216,59.04
12228,61.24
12240,62.36
12252,62.33
12264,61.19
12275,59.07
12286,56.2
12298,52.81
12310,49.1
12322,45.27
12334,41.39
12346,37.52
12358,33.64
12370,29.74
12382,25.78
12394,21.71
12406,17.53
12418,13.27
12430,9.06
12442,5.11
12454,1.7
12465,-1.04
12476,-3.03
12488,-4.45
12500,-5.56
12512,-6.6
12524,-7.67
12536,-8.7
12548,-9.49
12560,-9.82
12572,-9.57
12584,-8.69
12596,-7.24
12608,-5.29
12620,-2.95
12632,-0.38
12644,2.17
12655,4.39
12666,5.95
12678,6.65
12690,6.49
12702,5.67
12714,4.46
12726,3.21
12738,2.05
12750,0.98
12762,-0.15
12774,-1.52
12786,-3.18
12798,-5.05
12810,-6.9
12822,-8.51
12834,-9.7
12845,-10.49
12856,-10.99
12868,-11.41
12880,-11.85
12892,-12.33
12904,-12.77
12916,-13.14
12928,-13.36
12940,-13.46
12952,-13.43
12964,-13.28
12976,-12.97
12988,-12.49
13000,-11.83
13012,-11.04
13024,-10.25
13035,-9.59
13046,-9.16
13058,-9.07
13070,-9.33
13082,-9.95
13094,-10.88
13106,-12.04
13118,-13.3
13130,-14.51
13142,-15.42
13154,-15.76
13166,-15.29
13178,-13.77
13190,-11.2
13202,-7.75
13214,-3.8
13225,0.14
13236,3.62
13248,6.32
13260,8.14
13272,9.15
13284,9.55
13296,9.58
13308,9.51
13320,9.51
13332,9.65
13344,9.86
13356,9.99
13368,9.85
13380,9.35
13392,8.54
13404,7.65
13415,6.93
13426,6.57
13438,6.55
13450,6.72
13462,6.82
13474,6.64
13486,6.09
13498,5.2
13510,4.07
13522,2.8
13534,1.47
13546,0.03
13558,-1.51
13570,-3.17
13582,-4.87
13594,-6.49
13605,-7.89
13616,-8.98
13628,-9.77
13640,-10.35
13652,-10.91
13664,-11.58
13676,-12.47
13688,-13.5
13700,-14.51
13712,-15.23
13724,-15.43
13736,-14.9
13748,-13.57
13760,-11.44
13772,-8.64
13784,-5.42
13795,-2.07
13806,1.09
13818,3.87
13830,6.12
13842,7.86
13854,9.16
13866,10.18
13878,11.05
13890,11.83
13902,12.48
13914,12.9
13926,12.95
13938,12.57
13950,11.79
13962,10.76
13974,9.73
13985,8.88
13996,8.28
14008,7.9
14020,7.57
14032,7.1
14044,6.44
14056,5.55
14068,4.52
14080,3.5
14092,2.53
14104,1.65
14116,0.84
14128,0.04
14140,-0.84
14152,-1.79
14164,-2.82
14175,-3.9
14186,-4.98
14198,-6.03
14210,-6.99
14222,-7.84
14234,-8.53
14246,-9.13
14258,-9.67
14270,-10.29
14282,-11.06
14294,-11.99
14306,-12.93
14318,-13.65
14330,-13.82
14342,-13.22
14354,-11.73
14365,-9.39
14376,-6.47
14388,-3.27
14400,-0.13
14412,2.64
14424,4.92
14436,6.67
14448,8.01
14460,9.14
14472,10.2
14484,11.23
14496,12.16
14508,12.76
14520,12.88
14532,12.44
14544,11.55
14555,10.5
14566,9.54
14578,8.89
14590,8.57
14602,8.45
14614,8.33
14626,8.03
14638,7.46
14650,6.62
14662,5.56
14674,4.36
14686,3.06
14698,1.69
14710,0.26
14722,-1.16
14734,-2.5
14745,-3.67
14756,-4.63
14768,-5.37
14780,-5.97
14792,-6.55
14804,-7.17
14816,-7.89
14828,-8.7
14840,-9.57
14852,-10.46
14864,-11.37
14876,-12.32
14888,-13.25
14900,-14.01
14912,-14.33
14924,-13.92
14935,-12.52
14946,-10.06
14958,-6.65
14970,-2.59
14982,1.66
14994,5.68
15006,9.13
15018,11.84
15030,13.8
15042,15.12
15054,15.89
15066,16.21
15078,16.11
15090,15.58
15102,14.63
15114,13.43
15125,12.11
15136,10.9
15148,9.95
15160,9.34
15172,8.99
15184,8.82
15196,8.7
15208,8.53
15220,8.31
15232,8.08
15244,7.85
15256,7.65
15268,7.4
15280,7.05
15292,6.5
15304,5.7
15315,4.58
15326,3.12
15338,1.25
15350,-1.03
15362,-3.74
15374,-6.89
15386,-10.44
15398,-14.33
15410,-18.49
15422,-22.82
15434,-27.18
15446,-31.4
15458,-35.26
15470,-38.48
15482,-40.76
15494,-41.82
15505,-41.34
15516,-39.16
15528,-35.31
15540,-30.03
15552,-23.84
15564,-17.38
15576,-11.25
15588,-5.89
15600,-1.52
15612,1.91
15624,4.56
15636,6.58
15648,8.11
15660,9.2
15672,9.96
15684,10.53
15695,11.07
15706,11.75
15718,12.57
15730,13.4
15742,14.03
15754,14.24
15766,13.96
15778,13.29
15790,12.44
15802,11.58
15814,10.84
15826,10.11
15838,9.22
15850,8.03
15862,6.57
15874,4.95
15885,3.38
15896,2.02
15908,0.87
15920,-0.18
15932,-1.28
15944,-2.51
15956,-3.79
15968,-4.95
15980,-5.79
15992,-6.2
16004,-6.16
16016,-5.71
16028,-4.87
16040,-3.61
16052,-1.84
16064,0.42
16075,3.0
16086,5.6
16098,7.87
16110,9.58
16122,10.7
16134,11.35
16146,11.73
16158,11.92
16170,11.87
16182,11.41
16194,10.48
16206,9.15
16218,7.68
16230,6.37
16242,5.41
16254,4.81
16265,4.41
16276,3.98
16288,3.4
16300,2.64
16312,1.8
16324,1.0
16336,0.29
16348,-0.33
16360,-0.92
16372,-1.56
16384,-2.33
16396,-3.24
16408,-4.21
16420,-5.23
16432,-6.24
16444,-7.24
16455,-8.23
16466,-9.21
16478,-10.19
16490,-11.17
16502,-12.07
16514,-12.79
16526,-13.17
16538,-12.98
16550,-12.01
16562,-10.16
16574,-7.46
16586,-4.21
16598,-0.8
16610,2.37
16622,4.99
16634,6.95
16645,8.3
16656,9.15
16668,9.64
16680,9.85
16692,9.79
16704,9.51
16716,9.02
16728,8.45
16740,7.93
16752,7.56
16764,7.35
16776,7.21
16788,6.96
16800,6.44
16812,5.55
16824,4.34
16835,2.97
16846,1.7
16858,0.72
16870,0.01
16882,-0.56
16894,-1.21
16906,-2.15
16918,-3.43
16930,-4.91
16942,-6.35
16954,-7.52
16966,-8.33
16978,-8.9
16990,-9.44
17002,-10.15
17014,-11.15
17025,-12.3
17036,-13.32
17048,-13.81
17060,-13.4
17072,-11.9
17084,-9.37
17096,-6.06
17108,-2.41
17120,1.16
17132,4.31
17144,6.94
17156,9.03
17168,10.7
17180,12.01
17192,12.95
17204,13.45
17215,13.43
17226,12.89
17238,11.87
17250,10.62
17262,9.3
17274,8.09
17286,7.09
17298,6.26
17310,5.52
17322,4.78
17334,3.97
17346,3.07
17358,2.11
17370,1.12
17382,0.17
17394,-0.67
17405,-1.41
17416,-2.08
17428,-2.79
17440,-3.67
17452,-4.86
17464,-6.42
17476,-8.27
17488,-10.23
17500,-12.08
17512,-13.64
17524,-14.87
17536,-15.82
17548,-16.59
17560,-17.23
17572,-17.73
17584,-17.98
17595,-17.85
17606,-17.11
17618,-15.59
17630,-13.04
17642,-9.42
17654,-4.79
17666,0.64
17678,6.41
17690,12.0
17702,16.9
17714,20.83
17726,23.6
17738,25.24
17750,25.81
17762,25.45
17774,24.32
17785,22.59
17796,20.49
17808,18.17
17820,15.76
17832,13.32
17844,10.95
17856,8.73
17868,6.83
17880,5.38
17892,4.45
17904,4.04
17916,4.02
17928,4.22
17940,4.5
17952,4.8
17964,5.04
17975,5.26
17986,5.41
17998,5.49
18010,5.47
18022,5.32
18034,4.97
18046,4.33
18058,3.34
18070,1.98
18082,0.32
18094,-1.52
18106,-3.41
18118,-5.28
18130,-7.12
18142,-8.99
18154,-10.88
18165,-12.78
18176,-14.55
18188,-15.94
18200,-16.64
18212,-16.38
18224,-14.96
18236,-12.38
18248,-8.87
18260,-4.83
18272,-0.75
18284,2.88
18296,5.72
18308,7.61
18320,8.59
18332,8.85
18344,8.68
18355,8.32
18366,7.94
18378,7.58
18390,7.13
18402,6.43
18414,5.33
18426,3.81
18438,1.97
18450,0.08
18462,-1.59
18474,-2.87
18486,-3.71
18498,-4.24
18510,-4.6
18522,-4.93
18534,-5.32
18545,-5.74
18556,-6.2
18568,-6.71
18580,-7.3
18592,-8.01
18604,-8.85
18616,-9.8
18628,-10.72
18640,-11.54
18652,-12.14
18664,-12.48
18676,-12.62
18688,-12.61
18700,-12.58
18712,-12.61
18724,-12.75
18735,-12.96
18746,-13.21
18758,-13.4
18770,-13.48
18782,-13.36
18794,-12.88
18806,-11.88
18818,-10.2
18830,-7.75
18842,-4.64
18854,-1.16
18866,2.32
18878,5.43
18890,7.97
18902,9.93
18914,11.44
18925,12.68
18936,13.78
18948,14.76
18960,15.58
18972,16.17
18984,16.47
18996,16.47
19008,16.2
19020,15.68
19032,14.95
19044,14.08
19056,13.18
19068,12.28
19080,11.46
19092,10.71
19104,10.03
19115,9.4
19126,8.74
19138,8.03
19150,7.22
19162,6.27
19174,5.16
19186,3.93
19198,2.63
19210,1.33
19222,0.07
19234,-1.18
19246,-2.45
19258,-3.8
19270,-5.25
19282,-6.74
19294,-8.2
19305,-9.52
19316,-10.62
19328,-11.55
19340,-12.39
19352,-13.23
19364,-14.11
19376,-14.98
19388,-15.66
19400,-15.93
19412,-15.53
19424,-14.25
19436,-11.97
19448,-8.79
19460,-4.93
19472,-0.81
19484,3.12
19495,6.45
19506,8.91
19518,10.48
19530,11.35
19542,11.76
19554,11.85
19566,11.72
19578,11.31
19590,10.64
19602,9.8
19614,8.94
19626,8.27
19638,7.86
19650,7.68
19662,7.6
19674,7.45
19685,7.11
19696,6.59
19708,5.96
19720,5.3
19732,4.64
19744,3.97
19756,3.21
19768,2.28
19780,1.19
19792,-0.02
19804,-1.19
19816,-2.22
19828,-3.06
19840,-3.75
19852,-4.38
19864,-5.06
19875,-5.8
19886,-6.54
19898,-7.2
19910,-7.73
19922,-8.13
19934,-8.52
19946,-9.05
19958,-9.79
19970,-10.72
19982,-11.71
19994,-12.56
20006,-13.01
20018,-12.82
20030,-11.79
20042,-9.79
20054,-6.9
20065,-3.36
20076,0.4
20088,3.92
20100,6.79
20112,8.84
20124,10.06
20136,10.64
20148,10.84
20160,10.89
20172,10.86
20184,10.7
20196,10.36
20208,9.82
20220,9.16
20232,8.55
20244,8.12
20255,7.91
20266,7.86
20278,7.78
20290,7.48
20302,6.88
20314,6.04
20326,5.12
20338,4.31
20350,3.69
20362,3.2
20374,2.74
20386,2.19
20398,1.54
20410,0.83
20422,0.13
20434,-0.52
20445,-1.2
20456,-2.01
20468,-3.13
20480,-4.59
20492,-6.31
20504,-8.11
20516,-9.72
20528,-10.95
20540,-11.74
20552,-12.16
20564,-12.34
20576,-12.46
20588,-12.53
20600,-12.47
20612,-12.09
20624,-11.17
20635,-9.6
20646,-7.39
20658,-4.77
20670,-2.04
20682,0.44
20694,2.4
20706,3.65
20718,4.15
20730,3.97
20742,3.27
20754,2.29
20766,1.25
20778,0.39
20790,-0.11
20802,-0.11
20814,0.45
20825,1.5
20836,3.01
20848,4.79
20860,6.74
20872,8.67
20884,10.41
20896,11.78
20908,12.64
20920,12.96
20932,12.75
20944,12.2
20956,11.43
20968,10.6
20980,9.71
20992,8.65
