seconds,BVP
4,-4.18
16,-24.88
28,-44.17
39,-59.45
50,-68.78
62,-72.07
74,-71.19
86,-69.15
98,-68.64
110,-70.89
122,-75.34
134,-80.3
146,-84.07
158,-85.79
170,-85.87
182,-85.53
194,-86.12
206,-88.33
218,-91.86
229,-95.57
240,-97.98
252,-98.0
264,-95.34
276,-90.46
288,-84.27
300,-77.59
312,-70.74
324,-63.6
336,-55.82
348,-47.26
360,-38.23
372,-29.47
384,-21.88
396,-16.07
408,-12.16
419,-9.7
430,-7.91
442,-6.09
454,-3.8
466,-1.04
478,1.85
490,4.39
502,6.17
514,6.91
526,6.45
538,4.64
550,1.39
562,-3.31
574,-9.24
586,-15.88
598,-22.44
609,-28.05
620,-32.02
632,-34.08
644,-34.5
656,-33.92
668,-33.11
680,-32.67
692,-32.75
704,-33.16
716,-33.47
728,-33.42
740,-33.1
752,-33.13
764,-34.54
776,-38.44
788,-45.61
799,-56.03
810,-68.61
822,-81.25
834,-91.23
846,-96.0
858,-93.93
870,-84.89
882,-70.33
894,-52.94
906,-35.78
918,-21.44
930,-11.5
942,-6.46
954,-5.91
966,-8.92
978,-14.24
989,-20.51
1000,-26.46
1012,-31.08
1024,-33.96
1036,-35.31
1048,-35.77
1060,-36.07
1072,-36.67
1084,-37.62
1096,-38.79
1108,-40.18
1120,-42.16
1132,-45.38
1144,-50.45
1156,-57.61
1168,-66.61
1179,-76.83
1190,-87.55
1202,-98.09
1214,-107.72
1226,-115.61
1238,-120.71
1250,-122.02
1262,-118.91
1274,-111.49
1286,-100.64
1298,-87.89
1310,-74.92
1322,-63.12
1334,-53.11
1346,-44.42
1358,-35.47
1369,-23.92
1380,-7.43
1392,15.29
1404,43.62
1416,74.88
1428,105.04
1440,130.11
1452,147.56
1464,157.07
1476,160.28
1488,159.73
1500,157.59
1512,154.82
1524,151.17
1536,145.77
1548,137.91
1559,127.42
1570,114.75
1582,100.67
1594,85.92
1606,71.12
1618,56.86
1630,43.78
1642,32.66
1654,24.28
1666,19.2
1678,17.46
1690,18.51
1702,21.32
1714,24.61
1726,27.18
1738,28.21
1749,27.32
1760,24.57
1772,20.28
1784,14.89
1796,8.78
1808,2.27
1820,-4.4
1832,-10.89
1844,-16.78
1856,-21.5
1868,-24.48
1880,-25.39
1892,-24.28
1904,-21.69
1916,-18.44
1928,-15.36
1939,-13.04
1950,-11.68
1962,-11.15
1974,-11.24
1986,-11.77
1998,-12.63
2010,-13.74
2022,-14.94
2034,-15.97
2046,-16.52
2058,-16.32
2070,-15.22
2082,-13.25
2094,-10.58
2106,-7.47
2118,-4.23
2129,-1.2
2140,1.34
2152,3.21
2164,4.34
2176,4.8
2188,4.8
2200,4.58
2212,4.44
2224,4.62
2236,5.24
2248,6.3
2260,7.58
2272,8.84
2284,9.81
2296,10.34
2308,10.41
2319,10.09
2330,9.46
2342,8.57
2354,7.36
2366,5.8
2378,3.86
2390,1.63
2402,-0.66
2414,-2.69
2426,-4.07
2438,-4.46
2450,-3.62
2462,-1.53
2474,1.62
2486,5.4
2498,9.26
2509,12.64
2520,15.11
2532,16.44
2544,16.6
2556,15.75
2568,14.12
2580,12.0
2592,9.71
2604,7.59
2616,6.0
2628,5.22
2640,5.43
2652,6.62
2664,8.51
2676,10.64
2688,12.35
2699,13.07
2710,12.36
2722,10.12
2734,6.54
2746,2.02
2758,-2.95
2770,-7.94
2782,-12.62
2794,-16.7
2806,-19.87
2818,-21.78
2830,-22.02
2842,-20.3
2854,-16.56
2866,-11.16
2878,-4.85
2889,1.24
2900,5.88
2912,8.07
2924,7.25
2936,3.53
2948,-2.35
2960,-9.35
2972,-16.32
2984,-22.39
2996,-26.99
3008,-29.9
3020,-31.1
3032,-30.75
3044,-29.12
3056,-26.61
3068,-23.74
3079,-21.08
3090,-19.12
3102,-18.21
3114,-18.49
3126,-19.94
3138,-22.38
3150,-25.48
3162,-28.67
3174,-31.24
3186,-32.33
3198,-31.23
3210,-27.58
3222,-21.56
3234,-13.91
3246,-5.68
3258,2.03
3269,8.42
3280,13.16
3292,16.31
3304,18.13
3316,18.87
3328,18.68
3340,17.63
3352,15.82
3364,13.5
3376,11.06
3388,8.91
3400,7.36
3412,6.42
3424,5.92
3436,5.5
3448,4.89
3459,3.96
3470,2.75
3482,1.39
3494,-0.04
3506,-1.67
3518,-3.71
3530,-6.38
3542,-9.57
3554,-12.79
3566,-15.21
3578,-15.95
3590,-14.38
3602,-10.39
3614,-4.39
3626,2.87
3638,10.53
3649,17.78
3660,23.99
3672,28.73
3684,31.72
3696,32.86
3708,32.27
3720,30.3
3732,27.37
3744,23.92
3756,20.22
3768,16.42
3780,12.59
3792,8.82
3804,5.26
3816,2.13
3828,-0.41
3839,-2.3
3850,-3.63
3862,-4.6
3874,-5.47
3886,-6.56
3898,-8.21
3910,-10.74
3922,-14.34
3934,-18.85
3946,-23.68
3958,-27.88
3970,-30.38
3982,-30.45
3994,-27.86
4006,-23.13
4018,-17.19
4029,-11.13
4040,-5.81
4052,-1.65
4064,1.31
4076,3.29
4088,4.55
4100,5.31
4112,5.68
4124,5.75
4136,5.56
4148,5.14
4160,4.5
4172,3.68
4184,2.72
4196,1.66
4208,0.54
4219,-0.63
4230,-1.87
4242,-3.2
4254,-4.63
4266,-6.18
4278,-7.87
4290,-9.85
4302,-12.3
4314,-15.34
4326,-18.91
4338,-22.65
4350,-25.89
4362,-27.83
4374,-27.76
4386,-25.3
4398,-20.48
4409,-13.75
4420,-5.86
4432,2.39
4444,10.18
4456,16.88
4468,22.04
4480,25.42
4492,27.05
4504,27.12
4516,25.94
4528,23.92
4540,21.47
4552,19.01
4564,16.87
4576,15.25
4588,14.17
4599,13.49
4610,13.0
4622,12.46
4634,11.77
4646,10.91
4658,9.92
4670,8.75
4682,7.28
4694,5.25
4706,2.43
4718,-1.23
4730,-5.53
4742,-9.89
4754,-13.57
4766,-15.76
4778,-15.9
4789,-13.78
4800,-9.65
4812,-4.06
4824,2.3
4836,8.74
4848,14.77
4860,19.98
4872,24.07
4884,26.77
4896,27.88
4908,27.38
4920,25.54
4932,22.85
4944,19.93
4956,17.37
4968,15.46
4979,14.27
4990,13.61
5002,13.23
5014,12.92
5026,12.58
5038,12.2
5050,11.79
5062,11.34
5074,10.8
5086,10.06
5098,9.04
5110,7.66
5122,5.86
5134,3.66
5146,1.15
5158,-1.45
5169,-3.77
5180,-5.32
5192,-5.68
5204,-4.56
5216,-2.0
5228,1.61
5240,5.58
5252,9.14
5264,11.65
5276,12.88
5288,13.02
5300,12.58
5312,12.07
5324,11.74
5336,11.41
5348,10.59
5359,8.79
5370,5.77
5382,1.67
5394,-3.11
5406,-8.23
5418,-13.65
5430,-19.57
5442,-26.38
5454,-34.28
5466,-43.18
5478,-52.67
5490,-62.07
5502,-70.69
5514,-77.92
5526,-83.42
5538,-87.3
5549,-90.18
5560,-93.08
5572,-97.02
5584,-102.41
5596,-108.57
5608,-113.61
5620,-114.94
5632,-110.12
5644,-97.81
5656,-78.41
5668,-53.94
5680,-27.63
5692,-3.08
5704,16.64
5716,29.65
5728,35.97
5739,37.54
5750,37.89
5762,40.95
5774,49.6
5786,64.47
5798,83.67
5810,103.57
5822,120.42
5834,131.87
5846,137.74
5858,139.73
5870,140.39
5882,141.88
5894,145.27
5906,150.41
5918,156.25
5929,161.29
5940,164.03
5952,163.31
5964,158.52
5976,149.77
5988,137.85
6000,123.97
6012,109.39
6024,95.11
6036,81.73
6048,69.47
6060,58.27
6072,47.8
6084,37.46
6096,26.52
6108,14.2
6119,-0.08
6130,-16.52
6142,-34.81
6154,-54.27
6166,-74.04
6178,-93.28
6190,-111.37
6202,-127.85
6214,-142.27
6226,-153.94
6238,-161.83
6250,-164.72
6262,-161.6
6274,-152.2
6286,-137.42
6298,-119.28
6309,-100.51
6320,-83.7
6332,-70.56
6344,-61.54
6356,-55.88
6368,-52.19
6380,-48.98
6392,-45.1
6404,-39.8
6416,-32.76
6428,-23.95
6440,-13.71
6452,-2.85
6464,7.26
6476,14.84
6488,18.19
6499,16.16
6510,8.7
6522,-3.01
6534,-16.78
6546,-29.96
6558,-40.09
6570,-45.45
6582,-45.4
6594,-40.38
6606,-31.7
6618,-21.12
6630,-10.37
6642,-0.79
6654,6.93
6666,12.71
6678,16.86
6689,19.79
6700,21.84
6712,23.15
6724,23.8
6736,23.89
6748,23.6
6760,23.25
6772,23.12
6784,23.38
6796,23.99
6808,24.79
6820,25.56
6832,26.22
6844,26.81
6856,27.41
6868,27.92
6879,28.04
6890,27.2
6902,24.86
6914,20.74
6926,14.99
6938,8.21
6950,1.25
6962,-5.0
6974,-9.79
6986,-12.56
6998,-12.84
7010,-10.37
7022,-5.14
7034,2.37
7046,11.16
7058,19.85
7069,27.02
7080,31.67
7092,33.46
7104,32.85
7116,30.72
7128,28.12
7140,25.96
7152,24.8
7164,24.98
7176,26.6
7188,29.6
7200,33.74
7212,38.63
7224,43.68
7236,48.35
7248,52.16
7259,54.85
7270,56.32
7282,56.49
7294,55.26
7306,52.45
7318,47.94
7330,41.81
7342,34.4
7354,26.28
7366,18.07
7378,10.26
7390,3.18
7402,-3.03
7414,-8.32
7426,-12.77
7438,-16.55
7449,-19.95
7460,-23.34
7472,-27.02
7484,-31.09
7496,-35.43
7508,-39.74
7520,-43.61
7532,-46.72
7544,-48.87
7556,-50.0
7568,-50.15
7580,-49.38
7592,-47.82
7604,-45.62
7616,-42.9
7628,-39.76
7639,-36.26
7650,-32.44
7662,-28.38
7674,-24.25
7686,-20.36
7698,-17.08
7710,-14.72
7722,-13.49
7734,-13.39
7746,-14.23
7758,-15.68
7770,-17.35
7782,-18.87
7794,-19.92
7806,-20.27
7818,-19.74
7829,-18.3
7840,-16.04
7852,-13.29
7864,-10.55
7876,-8.38
7888,-7.16
7900,-6.99
7912,-7.57
7924,-8.38
7936,-8.87
7948,-8.76
7960,-8.07
7972,-7.11
7984,-6.26
7996,-5.76
8008,-5.59
8019,-5.51
8030,-5.2
8042,-4.45
8054,-3.19
8066,-1.53
8078,0.3
8090,2.08
8102,3.6
8114,4.69
8126,5.23
8138,5.15
8150,4.41
8162,3.03
8174,1.09
8186,-1.28
8198,-3.85
8209,-6.28
8220,-8.13
8232,-8.97
8244,-8.52
8256,-6.84
8268,-4.3
8280,-1.58
8292,0.63
8304,1.82
8316,1.84
8328,0.89
8340,-0.61
8352,-2.16
8364,-3.41
8376,-4.17
8388,-4.44
8399,-4.29
8410,-3.79
8422,-3.0
8434,-1.94
8446,-0.64
8458,0.83
8470,2.38
8482,3.92
8494,5.36
8506,6.61
8518,7.54
8530,7.93
8542,7.53
8554,6.15
8566,3.77
8578,0.62
8589,-2.87
8600,-6.19
8612,-8.91
8624,-10.73
8636,-11.51
8648,-11.2
8660,-9.85
8672,-7.61
8684,-4.81
8696,-1.97
8708,0.33
8720,1.65
8732,1.82
8744,1.04
8756,-0.27
8768,-1.64
8779,-2.76
8790,-3.48
8802,-3.85
8814,-3.96
8826,-3.84
8838,-3.47
8850,-2.78
8862,-1.71
8874,-0.22
8886,1.67
8898,3.83
8910,5.95
8922,7.62
8934,8.37
8946,7.86
8958,6.02
8969,3.15
8980,-0.19
8992,-3.34
9004,-5.81
9016,-7.34
9028,-7.91
9040,-7.63
9052,-6.64
9064,-5.13
9076,-3.29
9088,-1.4
9100,0.26
9112,1.46
9124,2.11
9136,2.33
9148,2.27
9159,2.07
9170,1.8
9182,1.47
9194,1.07
9206,0.67
9218,0.37
9230,0.27
9242,0.38
9254,0.64
9266,1.0
9278,1.46
9290,2.09
9302,2.96
9314,4.04
9326,5.12
9338,5.88
9349,5.98
9360,5.21
9372,3.58
9384,1.31
9396,-1.25
9408,-3.72
9420,-5.78
9432,-7.22
9444,-7.94
9456,-7.89
9468,-7.12
9480,-5.71
9492,-3.87
9504,-1.89
9516,-0.1
9528,1.19
9539,1.85
9550,1.9
9562,1.53
9574,0.98
9586,0.44
9598,0.0
9610,-0.37
9622,-0.75
9634,-1.19
9646,-1.65
9658,-1.98
9670,-1.99
9682,-1.49
9694,-0.37
9706,1.34
9718,3.45
9729,5.66
9740,7.53
9752,8.64
9764,8.67
9776,7.51
9788,5.3
9800,2.45
9812,-0.53
9824,-3.14
9836,-5.1
9848,-6.31
9860,-6.88
9872,-6.93
9884,-6.52
9896,-5.65
9908,-4.3
9919,-2.61
9930,-0.87
9942,0.52
9954,1.23
9966,1.18
9978,0.58
9990,-0.2
10002,-0.82
10014,-1.12
10026,-1.2
10038,-1.26
10050,-1.45
10062,-1.75
10074,-1.94
10086,-1.79
10098,-1.13
10109,0.04
10120,1.6
10132,3.34
10144,5.04
10156,6.45
10168,7.35
10180,7.47
10192,6.64
10204,4.85
10216,2.36
10228,-0.38
10240,-2.85
10252,-4.62
10264,-5.49
10276,-5.47
10288,-4.7
10299,-3.38
10310,-1.73
10322,0.07
10334,1.81
10346,3.22
10358,4.09
10370,4.3
10382,3.87
10394,2.96
10406,1.84
10418,0.7
10430,-0.27
10442,-1.05
10454,-1.64
10466,-2.05
10478,-2.3
10489,-2.38
10500,-2.26
10512,-1.89
10524,-1.21
10536,-0.22
10548,1.01
10560,2.33
10572,3.55
10584,4.4
10596,4.71
10608,4.36
10620,3.33
10632,1.73
10644,-0.2
10656,-2.16
10668,-3.78
10679,-4.78
10690,-5.0
10702,-4.46
10714,-3.36
10726,-1.96
10738,-0.54
10750,0.73
10762,1.73
10774,2.4
10786,2.73
10798,2.73
10810,2.46
10822,2.03
10834,1.55
10846,1.13
10858,0.8
10869,0.54
10880,0.3
10892,0.0
10904,-0.35
10916,-0.71
10928,-0.98
10940,-1.02
10952,-0.73
10964,0.02
10976,1.22
10988,2.77
11000,4.39
11012,5.65
11024,6.14
11036,5.63
11048,4.17
11059,2.15
11070,0.07
11082,-1.61
11094,-2.72
11106,-3.3
11118,-3.48
11130,-3.3
11142,-2.67
11154,-1.51
11166,0.16
11178,2.05
11190,3.7
11202,4.67
11214,4.71
11226,3.9
11238,2.55
11249,1.11
11260,-0.08
11272,-0.85
11284,-1.2
11296,-1.29
11308,-1.29
11320,-1.32
11332,-1.4
11344,-1.45
11356,-1.36
11368,-1.06
11380,-0.53
11392,0.2
11404,1.12
11416,2.19
11428,3.35
11439,4.42
11450,5.15
11462,5.26
11474,4.62
11486,3.28
11498,1.53
11510,-0.27
11522,-1.76
11534,-2.75
11546,-3.17
11558,-3.09
11570,-2.57
11582,-1.63
11594,-0.31
11606,1.27
11618,2.89
11629,4.25
11640,5.02
11652,5.05
11664,4.33
11676,3.11
11688,1.79
11700,0.72
11712,0.12
11724,-0.01
11736,0.16
11748,0.39
11760,0.47
11772,0.37
11784,0.16
11796,-0.01
11808,0.0
11819,0.27
11830,0.74
11842,1.35
11854,2.02
11866,2.73
11878,3.45
11890,4.12
11902,4.59
11914,4.57
11926,3.87
11938,2.45
11950,0.51
11962,-1.52
11974,-3.15
11986,-4.05
11998,-4.1
12009,-3.39
12020,-2.18
12032,-0.7
12044,0.85
12056,2.36
12068,3.69
12080,4.68
12092,5.15
12104,4.96
12116,4.13
12128,2.77
12140,1.14
12152,-0.51
12164,-1.94
12176,-3.0
12188,-3.62
12199,-3.78
12210,-3.59
12222,-3.2
12234,-2.8
12246,-2.53
12258,-2.49
12270,-2.62
12282,-2.84
12294,-3.02
12306,-3.06
12318,-2.87
12330,-2.41
12342,-1.69
12354,-0.74
12366,0.27
12378,1.13
12389,1.56
12400,1.37
12412,0.52
12424,-0.79
12436,-2.21
12448,-3.34
12460,-3.96
12472,-4.01
12484,-3.6
12496,-2.86
12508,-1.85
12520,-0.54
12532,1.13
12544,3.12
12556,5.25
12568,7.2
12579,8.6
12590,9.25
12602,9.11
12614,8.38
12626,7.35
12638,6.27
12650,5.29
12662,4.49
12674,3.84
12686,3.38
12698,3.15
12710,3.22
12722,3.61
12734,4.27
12746,5.03
12758,5.68
12769,5.94
12780,5.64
12792,4.71
12804,3.32
12816,1.78
12828,0.46
12840,-0.33
12852,-0.51
12864,-0.21
12876,0.25
12888,0.49
12900,0.21
12912,-0.73
12924,-2.24
12936,-4.08
12948,-5.92
12959,-7.45
12970,-8.43
12982,-8.77
12994,-8.46
13006,-7.59
13018,-6.28
13030,-4.65
13042,-2.83
13054,-0.94
13066,0.86
13078,2.4
13090,3.52
13102,4.11
13114,4.15
13126,3.7
13138,2.88
13149,1.86
13160,0.81
13172,-0.15
13184,-0.92
13196,-1.47
13208,-1.84
13220,-2.07
13232,-2.19
13244,-2.24
13256,-2.21
13268,-2.07
13280,-1.86
13292,-1.64
13304,-1.52
13316,-1.58
13328,-1.88
13339,-2.35
13350,-2.83
13362,-3.14
13374,-3.16
13386,-2.89
13398,-2.49
13410,-2.17
13422,-2.08
13434,-2.26
13446,-2.6
13458,-2.87
13470,-2.89
13482,-2.48
13494,-1.59
13506,-0.22
13518,1.63
13529,3.99
13540,6.91
13552,10.33
13564,14.04
13576,17.63
13588,20.58
13600,22.38
13612,22.72
13624,21.6
13636,19.3
13648,16.24
13660,12.87
13672,9.54
13684,6.41
13696,3.51
13708,0.86
13719,-1.49
13730,-3.38
13742,-4.61
13754,-5.02
13766,-4.68
13778,-3.82
13790,-2.86
13802,-2.23
13814,-2.15
13826,-2.56
13838,-3.09
13850,-3.26
13862,-2.7
13874,-1.31
13886,0.68
13898,2.85
13909,4.75
13920,6.05
13932,6.55
13944,6.17
13956,4.87
13968,2.75
13980,0.02
13992,-2.89
14004,-5.41
14016,-7.01
14028,-7.36
14040,-6.52
14052,-4.82
14064,-2.73
14076,-0.67
14088,1.1
14099,2.47
14110,3.36
14122,3.73
14134,3.56
14146,2.92
14158,2.01
14170,1.02
14182,0.15
14194,-0.54
14206,-1.09
14218,-1.61
14230,-2.19
14242,-2.9
14254,-3.68
14266,-4.46
14278,-5.05
14289,-5.31
14300,-5.12
14312,-4.52
14324,-3.68
14336,-2.9
14348,-2.41
14360,-2.28
14372,-2.35
14384,-2.29
14396,-1.81
14408,-0.76
14420,0.72
14432,2.29
14444,3.54
14456,4.11
14468,3.82
14479,2.69
14490,0.89
14502,-1.26
14514,-3.45
14526,-5.38
14538,-6.83
14550,-7.65
14562,-7.79
14574,-7.25
14586,-6.11
14598,-4.51
14610,-2.64
14622,-0.73
14634,0.95
14646,2.17
14658,2.8
14669,2.78
14680,2.24
14692,1.4
14704,0.5
14716,-0.22
14728,-0.66
14740,-0.83
14752,-0.79
14764,-0.65
14776,-0.48
14788,-0.3
14800,-0.09
14812,0.14
14824,0.35
14836,0.48
14848,0.48
14859,0.36
14870,0.22
14882,0.22
14894,0.55
14906,1.33
14918,2.57
14930,4.06
14942,5.47
14954,6.34
14966,6.29
14978,5.12
14990,2.98
15002,0.28
15014,-2.43
15026,-4.62
15038,-5.96
15049,-6.38
15060,-5.98
15072,-4.93
15084,-3.4
15096,-1.48
15108,0.65
15120,2.81
15132,4.66
15144,5.92
15156,6.4
15168,6.1
15180,5.17
15192,3.9
15204,2.54
15216,1.24
15228,0.11
15239,-0.8
15250,-1.44
15262,-1.75
15274,-1.73
15286,-1.46
15298,-1.14
15310,-0.95
15322,-0.98
15334,-1.2
15346,-1.4
15358,-1.36
15370,-0.88
15382,0.06
15394,1.36
15406,2.81
15418,4.13
15429,4.99
15440,5.14
15452,4.43
15464,2.87
15476,0.72
15488,-1.61
15500,-3.65
15512,-5.03
15524,-5.59
15536,-5.35
15548,-4.51
15560,-3.27
15572,-1.79
15584,-0.21
15596,1.41
15608,2.93
15619,4.2
15630,5.07
15642,5.43
15654,5.23
15666,4.55
15678,3.48
15690,2.18
15702,0.85
15714,-0.28
15726,-0.99
15738,-1.16
15750,-0.87
15762,-0.35
15774,0.07
15786,0.09
15798,-0.36
15809,-1.15
15820,-1.93
15832,-2.33
15844,-2.08
15856,-1.11
15868,0.45
15880,2.38
15892,4.31
15904,5.87
15916,6.65
15928,6.29
15940,4.68
15952,2.04
15964,-1.08
15976,-3.96
15988,-5.89
15999,-6.52
16010,-5.89
16022,-4.38
16034,-2.5
16046,-0.68
16058,0.89
16070,2.25
16082,3.5
16094,4.67
16106,5.6
16118,6.08
16130,5.95
16142,5.17
16154,3.9
16166,2.39
16178,0.92
16189,-0.34
16200,-1.28
16212,-1.88
16224,-2.13
16236,-2.07
16248,-1.76
16260,-1.3
16272,-0.83
16284,-0.47
16296,-0.26
16308,-0.16
16320,-0.08
16332,0.09
16344,0.42
16356,0.96
16368,1.76
16379,2.75
16390,3.77
16402,4.5
16414,4.54
16426,3.6
16438,1.67
16450,-0.89
16462,-3.46
16474,-5.36
16486,-6.17
16498,-5.84
16510,-4.65
16522,-3.03
16534,-1.34
16546,0.26
16558,1.76
16569,3.12
16580,4.24
16592,4.93
16604,5.01
16616,4.46
16628,3.42
16640,2.14
16652,0.83
16664,-0.34
16676,-1.28
16688,-1.93
16700,-2.25
16712,-2.24
16724,-1.94
16736,-1.49
16748,-1.03
16759,-0.7
16770,-0.56
16782,-0.6
16794,-0.79
16806,-1.13
16818,-1.61
16830,-2.19
16842,-2.7
16854,-2.88
16866,-2.49
16878,-1.49
16890,-0.07
16902,1.36
16914,2.27
16926,2.31
16938,1.38
16949,-0.28
16960,-2.2
16972,-3.85
16984,-4.81
16996,-4.88
17008,-4.12
17020,-2.79
17032,-1.17
17044,0.47
17056,1.99
17068,3.34
17080,4.47
17092,5.32
17104,5.81
17116,5.87
17128,5.48
17139,4.76
17150,3.87
17162,2.96
17174,2.11
17186,1.28
17198,0.4
17210,-0.54
17222,-1.48
17234,-2.24
17246,-2.64
17258,-2.59
17270,-2.15
17282,-1.53
17294,-0.97
17306,-0.68
17318,-0.71
17329,-0.99
17340,-1.34
17352,-1.6
17364,-1.6
17376,-1.26
17388,-0.54
17400,0.47
17412,1.57
17424,2.38
17436,2.52
17448,1.74
17460,0.05
17472,-2.18
17484,-4.34
17496,-5.87
17508,-6.39
17519,-5.94
17530,-4.76
17542,-3.2
17554,-1.52
17566,0.22
17578,2.02
17590,3.87
17602,5.63
17614,7.07
17626,7.94
17638,8.08
17650,7.48
17662,6.3
17674,4.8
17686,3.2
17698,1.69
17709,0.38
17720,-0.63
17732,-1.3
17744,-1.58
17756,-1.48
17768,-1.09
17780,-0.53
17792,0.05
17804,0.54
17816,0.89
17828,1.1
17840,1.2
17852,1.19
17864,1.06
17876,0.86
17888,0.7
17899,0.79
17910,1.26
17922,2.14
17934,3.19
17946,4.04
17958,4.23
17970,3.5
17982,1.88
17994,-0.3
18006,-2.52
18018,-4.26
18030,-5.18
18042,-5.23
18054,-4.6
18066,-3.57
18078,-2.37
18089,-1.11
18100,0.21
18112,1.62
18124,3.03
18136,4.21
18148,4.86
18160,4.75
18172,3.84
18184,2.37
18196,0.69
18208,-0.79
18220,-1.86
18232,-2.53
18244,-2.93
18256,-3.22
18268,-3.43
18279,-3.47
18290,-3.24
18302,-2.72
18314,-2.07
18326,-1.53
18338,-1.26
18350,-1.26
18362,-1.3
18374,-1.03
18386,-0.17
18398,1.32
18410,3.19
18422,5.01
18434,6.25
18446,6.48
18458,5.5
18469,3.37
18480,0.42
18492,-2.84
18504,-5.85
18516,-8.08
18528,-9.24
18540,-9.21
18552,-8.14
18564,-6.3
18576,-4.03
18588,-1.67
18600,0.5
18612,2.3
18624,3.67
18636,4.56
18648,4.96
18659,4.86
18670,4.28
18682,3.25
18694,1.88
18706,0.34
18718,-1.13
18730,-2.34
18742,-3.14
18754,-3.47
18766,-3.37
18778,-2.91
18790,-2.23
18802,-1.47
18814,-0.76
18826,-0.2
18838,0.21
18849,0.54
18860,1.01
18872,1.82
18884,3.09
18896,4.72
18908,6.4
18920,7.67
18932,8.04
18944,7.23
18956,5.22
18968,2.31
18980,-1.0
18992,-4.16
19004,-6.71
19016,-8.36
19028,-8.98
19039,-8.53
19050,-7.12
19062,-4.86
19074,-2.04
19086,0.98
19098,3.76
19110,5.85
19122,6.97
19134,7.06
19146,6.26
19158,4.9
19170,3.34
19182,1.81
19194,0.45
19206,-0.76
19218,-1.8
19229,-2.67
19240,-3.26
19252,-3.5
19264,-3.4
19276,-3.07
19288,-2.69
19300,-2.38
19312,-2.16
19324,-1.88
19336,-1.39
19348,-0.57
19360,0.55
19372,1.8
19384,2.98
19396,3.87
19408,4.26
19419,3.95
19430,2.85
19442,0.95
19454,-1.47
19466,-3.97
19478,-6.02
19490,-7.16
19502,-7.22
19514,-6.28
19526,-4.64
19538,-2.63
19550,-0.51
19562,1.54
19574,3.4
19586,4.9
19598,5.89
19609,6.25
19620,5.94
19632,5.08
19644,3.82
19656,2.4
19668,0.98
19680,-0.31
19692,-1.38
19704,-2.19
19716,-2.66
19728,-2.74
19740,-2.43
19752,-1.82
19764,-1.1
19776,-0.53
19788,-0.35
19799,-0.64
19810,-1.27
19822,-1.94
19834,-2.28
19846,-2.04
19858,-1.23
19870,-0.11
19882,0.86
19894,1.27
19906,0.84
19918,-0.4
19930,-2.13
19942,-3.92
19954,-5.32
19966,-6.03
19978,-5.96
19989,-5.18
20000,-3.81
20012,-2.02
20024,0.05
20036,2.22
20048,4.26
20060,5.94
20072,7.11
20084,7.71
20096,7.78
20108,7.46
20120,6.86
20132,6.02
20144,4.94
20156,3.63
20168,2.2
20179,0.8
20190,-0.35
20202,-1.1
20214,-1.43
20226,-1.45
20238,-1.36
20250,-1.34
20262,-1.47
20274,-1.71
20286,-2.01
20298,-2.29
20310,-2.52
20322,-2.74
20334,-2.96
20346,-3.22
20358,-3.53
20369,-3.94
20380,-4.54
20392,-5.46
20404,-6.77
20416,-8.38
20428,-10.05
20440,-11.45
20452,-12.25
20464,-12.21
20476,-11.25
20488,-9.48
20500,-7.09
20512,-4.32
20524,-1.39
20536,1.55
20548,4.39
20559,7.0
20570,9.2
20582,10.83
20594,11.73
20606,11.83
20618,11.23
20630,10.13
20642,8.77
20654,7.41
20666,6.2
20678,5.16
20690,4.33
20702,3.73
20714,3.39
20726,3.38
20738,3.65
20749,4.09
20760,4.46
20772,4.51
20784,4.06
20796,3.1
20808,1.82
20820,0.51
20832,-0.55
20844,-1.21
20856,-1.48
20868,-1.5
20880,-1.49
20892,-1.66
20904,-2.21
20916,-3.25
20928,-4.78
20939,-6.65
20950,-8.52
20962,-9.94
20974,-10.48
20986,-9.9
20998,-8.24
