seconds,BVP
1,-38.75
13,-19.86
25,-1.86
37,13.77
49,26.2
61,35.21
73,41.09
85,44.43
97,45.88
109,46.05
121,45.36
133,44.09
145,42.42
157,40.55
168,38.68
179,37.03
191,35.76
203,34.97
215,34.66
227,34.87
239,35.63
251,36.95
263,38.78
275,40.88
287,42.84
299,44.17
311,44.5
323,43.71
335,41.9
347,39.36
358,36.36
369,33.09
381,29.59
393,25.87
405,21.97
417,18.04
429,14.31
441,10.98
453,8.1
465,5.54
477,3.07
489,0.43
501,-2.45
513,-5.48
525,-8.39
537,-10.94
548,-12.95
559,-14.52
571,-15.84
583,-17.24
595,-19.0
607,-21.29
619,-24.14
631,-27.43
643,-30.97
655,-34.47
667,-37.73
679,-40.65
691,-43.37
703,-46.29
715,-49.93
727,-54.73
738,-60.71
749,-67.36
761,-73.5
773,-77.59
785,-78.07
797,-73.88
809,-64.8
821,-51.51
833,-35.48
845,-18.47
857,-2.17
869,12.18
881,23.9
893,32.8
905,39.03
917,42.86
928,44.63
939,44.66
951,43.33
963,41.07
975,38.33
987,35.53
999,33.03
1011,31.03
1023,29.66
1035,28.93
1047,28.91
1059,29.63
1071,31.11
1083,33.28
1095,35.87
1107,38.45
1118,40.55
1129,41.75
1141,41.83
1153,40.8
1165,38.83
1177,36.22
1189,33.27
1201,30.22
1213,27.26
1225,24.52
1237,21.95
1249,19.49
1261,17.01
1273,14.47
1285,11.91
1297,9.51
1308,7.42
1319,5.69
1331,4.18
1343,2.56
1355,0.51
1367,-2.24
1379,-5.66
1391,-9.52
1403,-13.41
1415,-16.97
1427,-19.98
1439,-22.48
1451,-24.77
1463,-27.2
1475,-30.09
1487,-33.54
1498,-37.43
1509,-41.43
1521,-45.2
1533,-48.5
1545,-51.36
1557,-54.0
1569,-56.82
1581,-60.33
1593,-64.91
1605,-70.63
1617,-77.04
1629,-83.08
1641,-87.21
1653,-87.73
1665,-83.4
1677,-73.82
1688,-59.64
1699,-42.45
1711,-24.21
1723,-6.82
1735,8.37
1747,20.68
1759,29.99
1771,36.53
1783,40.68
1795,42.83
1807,43.41
1819,42.82
1831,41.5
1843,39.83
1855,38.1
1867,36.46
1878,34.96
1889,33.59
1901,32.42
1913,31.64
1925,31.49
1937,32.23
1949,33.94
1961,36.37
1973,39.05
1985,41.33
1997,42.7
2009,42.89
2021,41.97
2033,40.24
2045,38.09
2057,35.84
2068,33.65
2079,31.54
2091,29.47
2103,27.42
2115,25.38
2127,23.34
2139,21.3
2151,19.26
2163,17.24
2175,15.3
2187,13.49
2199,11.84
2211,10.32
2223,8.85
2235,7.35
2247,5.74
2258,4.0
2269,2.15
2281,0.21
2293,-1.83
2305,-4.02
2317,-6.4
2329,-9.02
2341,-11.81
2353,-14.67
2365,-17.45
2377,-20.02
2389,-22.31
2401,-24.42
2413,-26.6
2425,-29.1
2437,-32.14
2448,-35.69
2459,-39.55
2471,-43.37
2483,-46.85
2495,-49.86
2507,-52.56
2519,-55.35
2531,-58.77
2543,-63.27
2555,-69.02
2567,-75.77
2579,-82.62
2591,-88.19
2603,-90.8
2615,-88.91
2627,-81.64
2638,-69.11
2649,-52.52
2661,-33.81
2673,-15.1
2685,1.85
2697,15.95
2709,26.81
2721,34.55
2733,39.55
2745,42.26
2757,43.1
2769,42.55
2781,41.04
2793,39.03
2805,36.88
2817,34.83
2828,33.04
2839,31.58
2851,30.54
2863,29.99
2875,30.04
2887,30.79
2899,32.26
2911,34.36
2923,36.84
2935,39.33
2947,41.38
2959,42.58
2971,42.7
2983,41.74
2995,39.91
3007,37.51
3018,34.84
3029,32.08
3041,29.34
3053,26.64
3065,24.02
3077,21.52
3089,19.16
3101,16.88
3113,14.63
3125,12.37
3137,10.19
3149,8.22
3161,6.56
3173,5.18
3185,3.95
3197,2.56
3208,0.78
3219,-1.51
3231,-4.22
3243,-7.09
3255,-9.8
3267,-12.16
3279,-14.15
3291,-16.0
3303,-18.07
3315,-20.73
3327,-24.16
3339,-28.26
3351,-32.68
3363,-36.92
3375,-40.57
3387,-43.44
3398,-45.62
3409,-47.39
3421,-49.19
3433,-51.47
3445,-54.66
3457,-59.0
3469,-64.36
3481,-70.07
3493,-74.88
3505,-77.21
3517,-75.54
3529,-68.97
3541,-57.61
3553,-42.54
3565,-25.54
3577,-8.53
3588,6.9
3599,19.78
3611,29.74
3623,36.84
3635,41.33
3647,43.49
3659,43.61
3671,41.95
3683,38.89
3695,34.89
3707,30.52
3719,26.32
3731,22.76
3743,20.18
3755,18.78
3767,18.62
3778,19.65
3789,21.65
3801,24.31
3813,27.25
3825,30.02
3837,32.27
3849,33.75
3861,34.37
3873,34.15
3885,33.18
3897,31.58
3909,29.46
3921,26.92
3933,24.11
3945,21.17
3957,18.23
3968,15.43
3979,12.83
3991,10.46
4003,8.25
4015,6.08
4027,3.81
4039,1.33
4051,-1.35
4063,-4.11
4075,-6.75
4087,-9.11
4099,-11.2
4111,-13.17
4123,-15.28
4135,-17.8
4147,-20.81
4158,-24.22
4169,-27.8
4181,-31.3
4193,-34.56
4205,-37.58
4217,-40.48
4229,-43.52
4241,-47.08
4253,-51.53
4265,-57.13
4277,-63.8
4289,-70.95
4301,-77.34
4313,-81.34
4325,-81.33
4337,-76.23
4348,-65.91
4359,-51.27
4371,-34.0
4383,-16.14
4395,0.5
4407,14.64
4419,25.66
4431,33.53
4443,38.58
4455,41.33
4467,42.36
4479,42.17
4491,41.2
4503,39.72
4515,37.96
4527,36.06
4538,34.16
4549,32.42
4561,31.03
4573,30.19
4585,30.09
4597,30.83
4609,32.4
4621,34.61
4633,37.1
4645,39.41
4657,41.12
4669,41.91
4681,41.66
4693,40.47
4705,38.56
4717,36.21
4728,33.66
4739,31.05
4751,28.41
4763,25.76
4775,23.06
4787,20.34
4799,17.63
4811,14.95
4823,12.29
4835,9.6
4847,6.78
4859,3.81
4871,0.68
4883,-2.52
4895,-5.71
4907,-8.76
4918,-11.65
4929,-14.44
4941,-17.32
4953,-20.51
4965,-24.15
4977,-28.28
4989,-32.75
5001,-37.31
5013,-41.65
5025,-45.55
5037,-48.97
5049,-52.08
5061,-55.28
5073,-59.09
5085,-63.96
5097,-69.99
5108,-76.68
5119,-82.9
5131,-87.03
5143,-87.38
5155,-82.73
5167,-72.77
5179,-58.23
5191,-40.74
5203,-22.33
5215,-4.9
5227,10.18
5239,22.23
5251,31.16
5263,37.21
5275,40.82
5287,42.44
5298,42.54
5309,41.54
5321,39.91
5333,38.08
5345,36.38
5357,35.03
5369,34.09
5381,33.54
5393,33.38
5405,33.72
5417,34.7
5429,36.36
5441,38.63
5453,41.17
5465,43.46
5477,45.02
5488,45.53
5499,44.92
5511,43.39
5523,41.26
5535,38.78
5547,36.09
5559,33.17
5571,30.01
5583,26.65
5595,23.21
5607,19.88
5619,16.86
5631,14.28
5643,12.16
5655,10.4
5667,8.83
5678,7.3
5689,5.69
5701,3.92
5713,1.99
5725,-0.05
5737,-2.14
5749,-4.2
5761,-6.18
5773,-8.11
5785,-10.07
5797,-12.21
5809,-14.74
5821,-17.74
5833,-21.18
5845,-24.88
5857,-28.56
5868,-31.99
5879,-35.11
5891,-38.06
5903,-41.17
5915,-44.86
5927,-49.45
5939,-54.98
5951,-61.0
5963,-66.49
5975,-70.01
5987,-70.02
5999,-65.39
6011,-55.81
6023,-41.98
6035,-25.44
6047,-8.17
6058,7.97
6069,21.66
6081,32.27
6093,39.78
6105,44.51
6117,46.95
6129,47.55
6141,46.66
6153,44.63
6165,41.75
6177,38.4
6189,34.92
6201,31.71
6213,29.06
6225,27.21
6237,26.27
6248,26.24
6259,27.06
6271,28.61
6283,30.69
6295,33.01
6307,35.22
6319,36.9
6331,37.74
6343,37.55
6355,36.37
6367,34.4
6379,31.94
6391,29.3
6403,26.65
6415,24.08
6427,21.58
6438,19.11
6449,16.66
6461,14.27
6473,11.97
6485,9.79
6497,7.7
6509,5.61
6521,3.45
6533,1.17
6545,-1.18
6557,-3.51
6569,-5.75
6581,-7.89
6593,-10.07
6605,-12.47
6617,-15.26
6628,-18.52
6639,-22.21
6651,-26.15
6663,-30.1
6675,-33.84
6687,-37.31
6699,-40.59
6711,-43.92
6723,-47.59
6735,-51.9
6747,-57.06
6759,-63.09
6771,-69.64
6783,-76.01
6795,-81.06
6807,-83.43
6818,-81.85
6829,-75.5
6841,-64.42
6853,-49.49
6865,-32.37
6877,-14.95
6889,1.06
6901,14.55
6913,25.08
6925,32.75
6937,37.95
6949,41.14
6961,42.77
6973,43.21
6985,42.85
6997,42.01
7008,40.98
7019,39.9
7031,38.85
7043,37.83
7055,36.93
7067,36.29
7079,36.05
7091,36.34
7103,37.08
7115,38.11
7127,39.13
7139,39.85
7151,40.1
7163,39.79
7175,38.94
7187,37.6
7198,35.89
7209,34.0
7221,32.11
7233,30.39
7245,28.89
7257,27.53
7269,26.12
7281,24.52
7293,22.69
7305,20.71
7317,18.84
7329,17.26
7341,16.11
7353,15.34
7365,14.81
7377,14.3
7388,13.67
7399,12.78
7411,11.64
7423,10.3
7435,8.86
7447,7.46
7459,6.2
7471,5.12
7483,4.09
7495,2.95
7507,1.44
7519,-0.61
7531,-3.29
7543,-6.52
7555,-10.09
7567,-13.72
7578,-17.11
7589,-20.07
7601,-22.55
7613,-24.69
7625,-26.8
7637,-29.18
7649,-32.07
7661,-35.47
7673,-39.17
7685,-42.85
7697,-46.26
7709,-49.29
7721,-52.06
7733,-54.88
7745,-58.12
7757,-62.18
7768,-67.28
7779,-73.26
7791,-79.42
7803,-84.44
7815,-86.67
7827,-84.55
7839,-77.17
7851,-64.69
7863,-48.38
7875,-30.24
7887,-12.41
7899,3.41
7911,16.23
7923,25.79
7935,32.34
7947,36.32
7958,38.29
7969,38.73
7981,38.08
7993,36.79
8005,35.23
8017,33.73
8029,32.48
8041,31.57
8053,30.97
8065,30.6
8077,30.44
8089,30.57
8101,31.14
8113,32.29
8125,34.03
8137,36.13
8148,38.18
8159,39.7
8171,40.29
8183,39.82
8195,38.41
8207,36.37
8219,34.05
8231,31.71
8243,29.47
8255,27.38
8267,25.41
8279,23.47
8291,21.52
8303,19.51
8315,17.42
8327,15.23
8338,12.96
8349,10.64
8361,8.38
8373,6.29
8385,4.43
8397,2.82
8409,1.29
8421,-0.37
8433,-2.4
8445,-4.85
8457,-7.59
8469,-10.32
8481,-12.67
8493,-14.44
8505,-15.63
8517,-16.48
8528,-17.36
8539,-18.64
8551,-20.59
8563,-23.24
8575,-26.47
8587,-29.94
8599,-33.28
8611,-36.18
8623,-38.56
8635,-40.64
8647,-42.88
8659,-45.84
8671,-49.98
8683,-55.36
8695,-61.5
8707,-67.32
8718,-71.31
8729,-71.94
8741,-68.1
8753,-59.47
8765,-46.77
8777,-31.52
8789,-15.61
8801,-0.79
8813,11.72
8825,21.41
8837,28.28
8849,32.59
8861,34.68
8873,34.87
8885,33.48
8897,30.93
8908,27.68
8919,24.22
8931,21.01
8943,18.41
8955,16.66
8967,15.95
8979,16.26
8991,17.53
9003,19.59
9015,22.21
9027,25.18
9039,28.24
9051,31.14
9063,33.57
9075,35.22
9087,35.83
9098,35.29
9109,33.74
9121,31.49
9133,28.93
9145,26.39
9157,24.03
9169,21.85
9181,19.69
9193,17.41
9205,14.85
9217,11.95
9229,8.72
9241,5.22
9253,1.62
9265,-1.89
9277,-5.09
9288,-7.86
9299,-10.19
9311,-12.28
9323,-14.45
9335,-17.05
9347,-20.33
9359,-24.32
9371,-28.83
9383,-33.51
9395,-38.02
9407,-42.14
9419,-45.85
9431,-49.37
9443,-53.08
9455,-57.41
9467,-62.64
9478,-68.72
9489,-75.12
9501,-80.78
9513,-84.31
9525,-84.29
9537,-79.7
9549,-70.32
9561,-56.84
9573,-40.71
9585,-23.78
9597,-7.8
9609,5.95
9621,16.78
9633,24.64
9645,29.85
9657,32.88
9668,34.26
9679,34.42
9691,33.77
9703,32.66
9715,31.44
9727,30.35
9739,29.57
9751,29.13
9763,28.99
9775,29.09
9787,29.39
9799,29.98
9811,30.96
9823,32.41
9835,34.25
9847,36.21
9858,37.9
9869,38.91
9881,39.03
9893,38.17
9905,36.52
9917,34.3
9929,31.76
9941,29.02
9953,26.15
9965,23.16
9977,20.08
9989,16.99
10001,14.0
10013,11.2
10025,8.61
10037,6.17
10048,3.77
10059,1.27
10071,-1.35
10083,-4.06
10095,-6.71
10107,-9.17
10119,-11.41
10131,-13.58
10143,-15.91
10155,-18.61
10167,-21.76
10179,-25.25
10191,-28.87
10203,-32.37
10215,-35.63
10227,-38.67
10238,-41.68
10249,-44.93
10261,-48.73
10273,-53.39
10285,-59.1
10297,-65.78
10309,-72.79
10321,-78.97
10333,-82.73
10345,-82.51
10357,-77.33
10369,-67.16
10381,-52.99
10393,-36.55
10405,-19.72
10417,-4.11
10428,9.27
10439,19.99
10451,28.03
10463,33.58
10475,36.91
10487,38.37
10499,38.38
10511,37.44
10523,36.02
10535,34.42
10547,32.8
10559,31.24
10571,29.78
10583,28.5
10595,27.58
10607,27.16
10618,27.34
10629,28.07
10641,29.14
10653,30.26
10665,31.05
10677,31.15
10689,30.28
10701,28.32
10713,25.34
10725,21.58
10737,17.39
10749,13.12
10761,8.98
10773,5.04
10785,1.22
10797,-2.61
10808,-6.54
10819,-10.55
10831,-14.51
10843,-18.22
10855,-21.48
10867,-24.2
10879,-26.38
10891,-28.14
10903,-29.65
10915,-31.04
10927,-32.39
10939,-33.68
10951,-34.75
10963,-35.41
10975,-35.49
10987,-34.88
10998,-33.69
11009,-32.17
11021,-30.73
11033,-29.81
11045,-29.6
11057,-29.94
11069,-30.13
11081,-29.01
11093,-25.27
11105,-17.86
11117,-6.41
11129,8.61
11141,25.9
11153,43.81
11165,60.74
11177,75.54
11188,87.68
11199,97.09
11211,103.95
11223,108.49
11235,110.9
11247,111.36
11259,110.18
11271,107.76
11283,104.52
11295,100.76
11307,96.63
11319,92.05
11331,86.93
11343,81.25
11355,75.14
11367,68.87
11378,62.7
11389,56.67
11401,50.63
11413,44.23
11425,37.13
11437,29.2
11449,20.56
11461,11.64
11473,2.96
11485,-4.98
11497,-11.87
11509,-17.68
11521,-22.58
11533,-26.85
11545,-30.72
11557,-34.35
11568,-37.74
11579,-40.83
11591,-43.5
11603,-45.68
11615,-47.35
11627,-48.56
11639,-49.46
11651,-50.27
11663,-51.23
11675,-52.54
11687,-54.22
11699,-56.15
11711,-58.07
11723,-59.77
11735,-61.11
11747,-62.16
11758,-63.21
11769,-64.69
11781,-67.01
11793,-70.36
11805,-74.46
11817,-78.46
11829,-81.0
11841,-80.56
11853,-75.89
11865,-66.53
11877,-52.98
11889,-36.61
11901,-19.22
11913,-2.59
11925,11.98
11937,23.75
11948,32.47
11959,38.28
11971,41.53
11983,42.66
11995,42.24
12007,40.82
12019,38.89
12031,36.74
12043,34.45
12055,32.0
12067,29.29
12079,26.35
12091,23.34
12103,20.51
12115,18.11
12127,16.29
12138,15.09
12149,14.35
12161,13.8
12173,13.12
12185,11.93
12197,9.97
12209,7.17
12221,3.66
12233,-0.13
12245,-3.63
12257,-6.35
12269,-8.05
12281,-8.82
12293,-9.0
12305,-8.95
12317,-8.88
12328,-8.76
12339,-8.41
12351,-7.61
12363,-6.35
12375,-4.79
12387,-3.22
12399,-1.89
12411,-0.91
12423,-0.31
12435,-0.03
12447,-0.11
12459,-0.59
12471,-1.6
12483,-3.21
12495,-5.46
12507,-8.3
12518,-11.56
12529,-15.0
12541,-18.34
12553,-21.37
12565,-24.02
12577,-26.43
12589,-28.86
12601,-31.65
12613,-35.14
12625,-39.57
12637,-44.94
12649,-50.88
12661,-56.57
12673,-60.76
12685,-62.05
12697,-59.28
12708,-51.99
12719,-40.64
12731,-26.55
12743,-11.45
12755,3.05
12767,15.75
12779,26.11
12791,34.0
12803,39.59
12815,43.11
12827,44.88
12839,45.22
12851,44.53
12863,43.24
12875,41.72
12887,40.24
12898,39.0
12909,38.1
12921,37.55
12933,37.37
12945,37.45
12957,37.73
12969,38.15
12981,38.68
12993,39.26
13005,39.83
13017,40.25
13029,40.31
13041,39.84
13053,38.69
13065,36.88
13077,34.53
13088,31.85
13099,29.05
13111,26.33
13123,23.76
13135,21.4
13147,19.23
13159,17.23
13171,15.37
13183,13.61
13195,11.88
13207,10.09
13219,8.11
13231,5.87
13243,3.41
13255,0.85
13267,-1.64
13278,-3.95
13289,-6.09
13301,-8.23
13313,-10.63
13325,-13.53
13337,-17.02
13349,-20.97
13361,-25.1
13373,-29.07
13385,-32.66
13397,-35.82
13409,-38.69
13421,-41.6
13433,-44.94
13445,-49.02
13457,-53.94
13468,-59.41
13479,-64.7
13491,-68.63
13503,-69.9
13515,-67.36
13527,-60.46
13539,-49.45
13551,-35.39
13563,-19.82
13575,-4.44
13587,9.28
13599,20.44
13611,28.64
13623,34.0
13635,36.94
13647,37.95
13658,37.51
13669,36.04
13681,33.88
13693,31.36
13705,28.84
13717,26.66
13729,25.14
13741,24.45
13753,24.6
13765,25.44
13777,26.78
13789,28.41
13801,30.18
13813,31.93
13825,33.46
13837,34.51
13848,34.81
13859,34.16
13871,32.47
13883,29.82
13895,26.47
13907,22.77
13919,19.1
13931,15.81
13943,13.09
13955,10.95
13967,9.18
13979,7.49
13991,5.61
14003,3.48
14015,1.28
14027,-0.59
14038,-1.77
14049,-2.09
14061,-1.74
14073,-1.18
14085,-0.96
14097,-1.51
14109,-2.93
14121,-5.02
14133,-7.43
14145,-9.81
14157,-12.02
14169,-14.1
14181,-16.21
14193,-18.52
14205,-21.11
14217,-23.93
14228,-26.85
14239,-29.76
14251,-32.62
14263,-35.53
14275,-38.66
14287,-42.28
14299,-46.68
14311,-52.04
14323,-58.27
14335,-64.89
14347,-70.98
14359,-75.21
14371,-76.23
14383,-72.99
14395,-65.13
14407,-53.18
14418,-38.38
14429,-22.44
14441,-7.06
14453,6.44
14465,17.29
14477,25.3
14489,30.7
14501,33.94
14513,35.57
14525,36.09
14537,35.91
14549,35.35
14561,34.59
14573,33.75
14585,32.9
14597,32.09
14608,31.38
14619,30.89
14631,30.72
14643,31.01
14655,31.86
14667,33.29
14679,35.18
14691,37.29
14703,39.28
14715,40.81
14727,41.64
14739,41.64
14751,40.91
14763,39.66
14775,38.14
14787,36.54
14798,34.9
14809,33.1
14821,31.01
14833,28.58
14845,25.9
14857,23.21
14869,20.78
14881,18.76
14893,17.1
14905,15.66
14917,14.18
14929,12.53
14941,10.66
14953,8.64
14965,6.56
14977,4.47
14988,2.38
14999,0.28
15011,-1.87
15023,-4.08
15035,-6.38
15047,-8.77
15059,-11.23
15071,-13.68
15083,-16.01
15095,-18.17
15107,-20.2
15119,-22.24
15131,-24.51
15143,-27.15
15155,-30.13
15167,-33.29
15178,-36.38
15189,-39.15
15201,-41.53
15213,-43.61
15225,-45.7
15237,-48.2
15249,-51.48
15261,-55.79
15273,-61.01
15285,-66.6
15297,-71.51
15309,-74.39
15321,-73.88
15333,-69.08
15345,-59.83
15357,-46.9
15368,-31.71
15379,-16.01
15391,-1.44
15403,10.84
15415,20.23
15427,26.66
15439,30.47
15451,32.16
15463,32.29
15475,31.39
15487,29.9
15499,28.11
15511,26.26
15523,24.53
15535,23.06
15547,21.97
15558,21.39
15569,21.4
15581,22.02
15593,23.19
15605,24.78
15617,26.62
15629,28.47
15641,30.06
15653,31.08
15665,31.28
15677,30.5
15689,28.73
15701,26.17
15713,23.14
15725,19.97
15737,16.92
15748,14.05
15759,11.27
15771,8.44
15783,5.48
15795,2.44
15807,-0.54
15819,-3.25
15831,-5.61
15843,-7.63
15855,-9.45
15867,-11.17
15879,-12.82
15891,-14.32
15903,-15.61
15915,-16.69
15927,-17.76
15938,-19.19
15949,-21.28
15961,-24.19
15973,-27.76
15985,-31.58
15997,-35.15
16009,-38.06
16021,-40.23
16033,-41.9
16045,-43.62
16057,-46.02
16069,-49.69
16081,-54.99
16093,-61.74
16105,-69.2
16117,-76.07
16128,-80.66
16139,-81.39
16151,-77.29
16163,-68.24
16175,-55.14
16187,-39.63
16199,-23.61
16211,-8.81
16223,3.52
16235,12.8
16247,19.01
16259,22.55
16271,24.1
16283,24.37
16295,24.01
16307,23.49
16318,23.04
16329,22.7
16341,22.42
16353,22.16
16365,21.97
16377,22.04
16389,22.64
16401,23.95
16413,26.02
16425,28.7
16437,31.64
16449,34.45
16461,36.72
16473,38.13
16485,38.46
16497,37.65
16508,35.74
16519,32.95
16531,29.56
16543,25.96
16555,22.51
16567,19.47
16579,16.91
16591,14.76
16603,12.9
16615,11.19
16627,9.59
16639,8.13
16651,6.85
16663,5.79
16675,4.89
16687,4.07
16698,3.2
16709,2.2
16721,1.05
16733,-0.22
16745,-1.58
16757,-3.07
16769,-4.82
16781,-7.06
16793,-10.01
16805,-13.79
16817,-18.28
16829,-23.21
16841,-28.21
16853,-32.91
16865,-37.17
16877,-41.09
16888,-45.04
16899,-49.55
16911,-55.11
16923,-62.0
16935,-70.02
16947,-78.43
16959,-85.86
16971,-90.67
16983,-91.3
16995,-86.77
17007,-77.03
17019,-63.03
17031,-46.43
17043,-29.12
17055,-12.78
17067,1.49
17078,13.15
17089,22.19
17101,28.88
17113,33.58
17125,36.65
17137,38.37
17149,39.01
17161,38.8
17173,37.95
17185,36.64
17197,34.99
17209,33.11
17221,31.15
17233,29.32
17245,27.95
17257,27.43
17268,28.03
17279,29.84
17291,32.59
17303,35.72
17315,38.55
17327,40.46
17339,41.13
17351,40.6
17363,39.18
17375,37.31
17387,35.45
17399,33.87
17411,32.67
17423,31.75
17435,30.9
17447,29.85
17458,28.4
17469,26.46
17481,24.11
17493,21.61
17505,19.26
17517,17.27
17529,15.67
17541,14.25
17553,12.73
17565,10.89
17577,8.7
17589,6.4
17601,4.32
17613,2.7
17625,1.6
17637,0.87
17648,0.15
17659,-0.87
17671,-2.39
17683,-4.5
17695,-7.09
17707,-10.02
17719,-13.11
17731,-16.23
17743,-19.37
17755,-22.69
17767,-26.54
17779,-31.35
17791,-37.39
17803,-44.49
17815,-51.82
17827,-58.0
17838,-61.43
17849,-60.8
17861,-55.61
17873,-46.31
17885,-34.18
17897,-20.85
17909,-7.84
17921,3.79
17933,13.44
17945,20.91
17957,26.21
17969,29.42
17981,30.73
17993,30.46
18005,29.04
18017,26.94
18028,24.58
18039,22.26
18051,20.18
18063,18.49
18075,17.3
18087,16.74
18099,16.91
18111,17.88
18123,19.64
18135,22.04
18147,24.81
18159,27.55
18171,29.77
18183,31.03
18195,31.08
18207,29.92
18218,27.85
18229,25.27
18241,22.55
18253,19.86
18265,17.17
18277,14.32
18289,11.26
18301,8.02
18313,4.81
18325,1.78
18337,-0.97
18349,-3.52
18361,-6.04
18373,-8.66
18385,-11.5
18397,-14.57
18408,-17.86
18419,-21.32
18431,-24.83
18443,-28.2
18455,-31.24
18467,-33.84
18479,-36.07
18491,-38.28
18503,-40.92
18515,-44.48
18527,-49.16
18539,-54.68
18551,-60.27
18563,-64.67
18575,-66.49
18587,-64.6
18598,-58.45
18609,-48.37
18621,-35.47
18633,-21.34
18645,-7.61
18657,4.46
18669,14.24
18681,21.61
18693,26.81
18705,30.12
18717,31.8
18729,32.08
18741,31.2
18753,29.54
18765,27.52
18777,25.5
18788,23.74
18799,22.34
18811,21.38
18823,20.94
18835,21.09
18847,21.94
18859,23.47
18871,25.56
18883,27.9
18895,30.12
18907,31.84
18919,32.75
18931,32.7
18943,31.66
18955,29.74
18967,27.18
18978,24.26
18989,21.25
19001,18.36
19013,15.65
19025,13.08
19037,10.56
19049,7.98
19061,5.31
19073,2.6
19085,-0.01
19097,-2.39
19109,-4.53
19121,-6.51
19133,-8.58
19145,-10.95
19157,-13.78
19168,-17.03
19179,-20.55
19191,-24.13
19203,-27.63
19215,-31.09
19227,-34.65
19239,-38.61
19251,-43.25
19263,-48.79
19275,-55.24
19287,-62.31
19299,-69.29
19311,-75.03
19323,-78.13
19335,-77.29
19347,-71.73
19358,-61.5
19369,-47.59
19381,-31.64
19393,-15.49
19405,-0.74
19417,11.63
19429,21.23
19441,28.14
19453,32.71
19465,35.34
19477,36.44
19489,36.38
19501,35.57
19513,34.36
19525,33.07
19537,31.86
19548,30.83
19559,29.98
19571,29.35
19583,29.04
19595,29.27
19607,30.24
19619,32.04
19631,34.55
19643,37.35
19655,39.87
19667,41.55
19679,42.04
19691,41.33
19703,39.68
19715,37.54
19727,35.35
19738,33.33
19749,31.53
19761,29.8
19773,27.92
19785,25.73
19797,23.15
19809,20.2
19821,17.02
19833,13.81
19845,10.75
19857,8.0
19869,5.62
19881,3.57
19893,1.7
19905,-0.13
19917,-2.06
19928,-4.13
19939,-6.27
19951,-8.42
19963,-10.55
19975,-12.77
19987,-15.25
19999,-18.18
20011,-21.61
20023,-25.48
20035,-29.57
20047,-33.61
20059,-37.34
20071,-40.64
20083,-43.55
20095,-46.3
20107,-49.28
20118,-53.01
20129,-57.94
20141,-64.17
20153,-71.25
20165,-77.99
20177,-82.67
20189,-83.49
20201,-79.2
20213,-69.54
20225,-55.42
20237,-38.66
20249,-21.4
20261,-5.43
20273,8.07
20285,18.73
20297,26.65
20308,32.16
20319,35.64
20331,37.41
20343,37.85
20355,37.34
20367,36.29
20379,35.02
20391,33.71
20403,32.47
20415,31.33
20427,30.38
20439,29.81
20451,29.83
20463,30.61
20475,32.16
20487,34.33
20498,36.8
20509,39.17
20521,41.06
20533,42.2
20545,42.5
20557,42.01
20569,40.93
20581,39.42
20593,37.56
20605,35.42
20617,33.0
20629,30.33
20641,27.58
20653,24.89
20665,22.4
20677,20.13
20688,17.99
20699,15.89
20711,13.75
20723,11.63
20735,9.62
20747,7.82
20759,6.29
20771,5.0
20783,3.84
20795,2.68
20807,1.34
20819,-0.3
20831,-2.26
20843,-4.49
20855,-6.81
20867,-9.0
20878,-10.93
20889,-12.6
20901,-14.19
20913,-15.96
20925,-18.17
20937,-20.87
20949,-23.95
20961,-27.07
20973,-29.92
20985,-32.32
20997,-34.28
