seconds,BVP
8,4.42
20,2.62
32,2.14
44,2.7
56,3.79
68,4.85
79,5.47
90,5.45
102,4.82
114,3.73
126,2.33
138,0.71
150,-1.13
162,-3.24
174,-5.69
186,-8.54
198,-11.79
210,-15.36
222,-18.97
234,-22.13
246,-24.2
258,-24.48
269,-22.5
280,-18.21
292,-12.02
304,-4.74
316,2.66
328,9.29
340,14.55
352,18.09
364,19.86
376,19.94
388,18.55
400,15.98
412,12.69
424,9.14
436,5.88
448,3.37
459,1.92
470,1.59
482,2.17
494,3.23
506,4.25
518,4.8
530,4.68
542,3.91
554,2.75
566,1.4
578,0.02
590,-1.47
602,-3.23
614,-5.45
626,-8.2
638,-11.44
649,-14.97
660,-18.47
672,-21.45
684,-23.34
696,-23.54
708,-21.63
720,-17.56
732,-11.69
744,-4.74
756,2.38
768,8.83
780,13.97
792,17.41
804,18.96
816,18.63
828,16.67
839,13.51
850,9.79
862,6.22
874,3.41
886,1.7
898,1.11
910,1.39
922,2.11
934,2.86
946,3.32
958,3.34
970,2.9
982,2.06
994,0.92
1006,-0.43
1018,-1.97
1029,-3.72
1040,-5.74
1052,-8.14
1064,-10.93
1076,-14.01
1088,-17.08
1100,-19.65
1112,-21.11
1124,-20.95
1136,-18.91
1148,-15.09
1160,-9.91
1172,-3.99
1184,2.07
1196,7.68
1208,12.38
1219,15.78
1230,17.55
1242,17.54
1254,15.83
1266,12.83
1278,9.17
1290,5.59
1302,2.66
1314,0.73
1326,-0.15
1338,-0.16
1350,0.38
1362,1.1
1374,1.7
1386,1.95
1398,1.74
1409,1.07
1420,0.04
1432,-1.24
1444,-2.72
1456,-4.45
1468,-6.61
1480,-9.39
1492,-12.78
1504,-16.57
1516,-20.17
1528,-22.82
1540,-23.77
1552,-22.57
1564,-19.2
1576,-14.09
1588,-7.93
1599,-1.49
1610,4.56
1622,9.79
1634,13.89
1646,16.65
1658,17.9
1670,17.55
1682,15.71
1694,12.75
1706,9.27
1718,5.96
1730,3.4
1742,1.89
1754,1.34
1766,1.4
1778,1.67
1789,1.83
1800,1.82
1812,1.68
1824,1.49
1836,1.23
1848,0.74
1860,-0.15
1872,-1.59
1884,-3.64
1896,-6.31
1908,-9.56
1920,-13.3
1932,-17.28
1944,-21.01
1956,-23.82
1968,-24.94
1979,-23.82
1990,-20.31
2002,-14.75
2014,-7.89
2026,-0.61
2038,6.24
2050,12.02
2062,16.35
2074,19.01
2086,19.99
2098,19.37
2110,17.42
2122,14.53
2134,11.21
2146,8.02
2158,5.43
2169,3.74
2180,3.01
2192,3.03
2204,3.49
2216,4.01
2228,4.3
2240,4.22
2252,3.73
2264,2.91
2276,1.81
2288,0.45
2300,-1.17
2312,-3.15
2324,-5.61
2336,-8.62
2348,-12.14
2359,-15.9
2370,-19.39
2382,-21.94
2394,-22.86
2406,-21.71
2418,-18.4
2430,-13.27
2442,-6.95
2454,-0.17
2466,6.35
2478,12.05
2490,16.5
2502,19.45
2514,20.77
2526,20.53
2538,18.93
2549,16.36
2560,13.31
2572,10.28
2584,7.7
2596,5.88
2608,4.95
2620,4.81
2632,5.24
2644,5.89
2656,6.45
2668,6.64
2680,6.31
2692,5.45
2704,4.16
2716,2.57
2728,0.81
2739,-1.06
2750,-3.09
2762,-5.39
2774,-8.09
2786,-11.25
2798,-14.67
2810,-17.98
2822,-20.51
2834,-21.63
2846,-20.8
2858,-17.84
2870,-12.96
2882,-6.69
2894,0.21
2906,6.96
2918,12.87
2929,17.43
2940,20.31
2952,21.43
2964,20.89
2976,18.99
2988,16.16
3000,12.96
3012,9.92
3024,7.46
3036,5.86
3048,5.17
3060,5.24
3072,5.79
3084,6.42
3096,6.79
3108,6.67
3119,5.97
3130,4.77
3142,3.27
3154,1.63
3166,-0.03
3178,-1.67
3190,-3.37
3202,-5.22
3214,-7.35
3226,-9.83
3238,-12.66
3250,-15.71
3262,-18.63
3274,-20.92
3286,-21.97
3298,-21.29
3309,-18.68
3320,-14.32
3332,-8.76
3344,-2.7
3356,3.2
3368,8.42
3380,12.63
3392,15.61
3404,17.21
3416,17.38
3428,16.21
3440,13.99
3452,11.2
3464,8.37
3476,5.99
3488,4.4
3499,3.73
3510,3.87
3522,4.54
3534,5.35
3546,5.95
3558,6.06
3570,5.61
3582,4.69
3594,3.52
3606,2.25
3618,0.94
3630,-0.46
3642,-2.05
3654,-3.93
3666,-6.1
3678,-8.55
3689,-11.25
3700,-14.1
3712,-16.86
3724,-19.13
3736,-20.35
3748,-19.95
3760,-17.57
3772,-13.23
3784,-7.43
3796,-0.94
3808,5.34
3820,10.65
3832,14.49
3844,16.65
3856,17.19
3868,16.3
3879,14.3
3890,11.56
3902,8.49
3914,5.5
3926,2.95
3938,1.07
3950,-0.04
3962,-0.4
3974,-0.18
3986,0.4
3998,1.05
4010,1.54
4022,1.64
4034,1.23
4046,0.28
4058,-1.14
4069,-2.88
4080,-4.79
4092,-6.76
4104,-8.79
4116,-10.95
4128,-13.36
4140,-16.03
4152,-18.79
4164,-21.27
4176,-22.96
4188,-23.36
4200,-22.04
4212,-18.86
4224,-13.97
4236,-7.83
4248,-1.13
4259,5.37
4270,10.95
4282,15.07
4294,17.43
4306,18.02
4318,16.98
4330,14.64
4342,11.37
4354,7.67
4366,4.08
4378,1.1
4390,-0.85
4402,-1.64
4414,-1.43
4426,-0.64
4438,0.25
4449,0.82
4460,0.91
4472,0.55
4484,-0.1
4496,-0.92
4508,-1.86
4520,-2.97
4532,-4.33
4544,-6.05
4556,-8.24
4568,-10.98
4580,-14.29
4592,-18.02
4604,-21.73
4616,-24.81
4628,-26.51
4639,-26.21
4650,-23.68
4662,-19.09
4674,-13.03
4686,-6.26
4698,0.47
4710,6.54
4722,11.48
4734,14.97
4746,16.81
4758,16.95
4770,15.55
4782,13.0
4794,9.84
4806,6.63
4818,3.88
4829,1.9
4840,0.84
4852,0.7
4864,1.31
4876,2.36
4888,3.42
4900,4.06
4912,3.97
4924,3.13
4936,1.73
4948,0.1
4960,-1.52
4972,-3.08
4984,-4.77
4996,-6.82
5008,-9.38
5019,-12.43
5030,-15.83
5042,-19.39
5054,-22.83
5066,-25.8
5078,-27.79
5090,-28.16
5102,-26.38
5114,-22.24
5126,-16.01
5138,-8.45
5150,-0.56
5162,6.67
5174,12.51
5186,16.58
5198,18.78
5209,19.29
5220,18.35
5232,16.32
5244,13.61
5256,10.61
5268,7.76
5280,5.43
5292,3.91
5304,3.31
5316,3.57
5328,4.44
5340,5.49
5352,6.33
5364,6.67
5376,6.39
5388,5.56
5399,4.33
5410,2.82
5422,1.09
5434,-0.86
5446,-3.09
5458,-5.66
5470,-8.61
5482,-11.96
5494,-15.65
5506,-19.45
5518,-22.94
5530,-25.45
5542,-26.29
5554,-24.91
5566,-21.16
5578,-15.36
5589,-8.22
5600,-0.62
5612,6.64
5624,12.98
5636,17.98
5648,21.41
5660,23.09
5672,22.94
5684,21.11
5696,17.99
5708,14.2
5720,10.48
5732,7.43
5744,5.42
5756,4.49
5768,4.41
5779,4.8
5790,5.31
5802,5.67
5814,5.7
5826,5.38
5838,4.7
5850,3.72
5862,2.5
5874,1.07
5886,-0.56
5898,-2.44
5910,-4.66
5922,-7.28
5934,-10.35
5946,-13.82
5958,-17.5
5969,-20.98
5980,-23.72
5992,-25.05
6004,-24.42
6016,-21.49
6028,-16.34
6040,-9.44
6052,-1.56
6064,6.4
6076,13.61
6088,19.45
6100,23.49
6112,25.53
6124,25.58
6136,23.86
6148,20.77
6159,16.88
6170,12.8
6182,9.14
6194,6.29
6206,4.45
6218,3.63
6230,3.62
6242,4.1
6254,4.71
6266,5.1
6278,5.09
6290,4.57
6302,3.66
6314,2.46
6326,1.11
6338,-0.41
6349,-2.19
6360,-4.4
6372,-7.19
6384,-10.6
6396,-14.5
6408,-18.54
6420,-22.2
6432,-24.87
6444,-25.93
6456,-24.94
6468,-21.72
6480,-16.46
6492,-9.69
6504,-2.18
6516,5.21
6528,11.68
6539,16.59
6550,19.56
6562,20.45
6574,19.38
6586,16.7
6598,12.99
6610,9.01
6622,5.5
6634,3.05
6646,1.92
6658,1.98
6670,2.77
6682,3.69
6694,4.27
6706,4.27
6718,3.74
6729,2.87
6740,1.88
6752,0.82
6764,-0.34
6776,-1.74
6788,-3.49
6800,-5.66
6812,-8.27
6824,-11.36
6836,-14.92
6848,-18.8
6860,-22.57
6872,-25.56
6884,-26.95
6896,-26.07
6908,-22.66
6919,-17.0
6930,-9.83
6942,-2.08
6954,5.34
6966,11.69
6978,16.48
6990,19.4
7002,20.31
7014,19.28
7026,16.62
7038,12.89
7050,8.79
7062,5.02
7074,2.15
7086,0.47
7098,-0.01
7109,0.42
7120,1.32
7132,2.22
7144,2.77
7156,2.81
7168,2.36
7180,1.55
7192,0.48
7204,-0.78
7216,-2.32
7228,-4.29
7240,-6.86
7252,-10.12
7264,-14.04
7276,-18.33
7288,-22.46
7299,-25.69
7310,-27.22
7322,-26.46
7334,-23.19
7346,-17.66
7358,-10.51
7370,-2.59
7382,5.27
7394,12.32
7406,18.02
7418,21.94
7430,23.84
7442,23.61
7454,21.46
7466,17.86
7478,13.59
7489,9.5
7500,6.31
7512,4.43
7524,3.84
7536,4.18
7548,4.96
7560,5.76
7572,6.33
7584,6.61
7596,6.67
7608,6.49
7620,6.01
7632,5.05
7644,3.43
7656,1.02
7668,-2.22
7679,-6.25
7690,-10.96
7702,-16.08
7714,-21.11
7726,-25.32
7738,-27.87
7750,-28.03
7762,-25.41
7774,-20.15
7786,-12.89
7798,-4.62
7810,3.66
7822,11.1
7834,17.16
7846,21.54
7858,24.11
7869,24.83
7880,23.78
7892,21.22
7904,17.66
7916,13.79
7928,10.35
7940,7.95
7952,6.85
7964,6.97
7976,7.91
7988,9.13
8000,10.15
8012,10.68
8024,10.64
8036,10.13
8048,9.28
8059,8.13
8070,6.68
8082,4.81
8094,2.42
8106,-0.56
8118,-4.12
8130,-8.2
8142,-12.55
8154,-16.79
8166,-20.29
8178,-22.35
8190,-22.34
8202,-19.92
8214,-15.22
8226,-8.76
8238,-1.4
8249,6.02
8260,12.75
8272,18.27
8284,22.23
8296,24.44
8308,24.85
8320,23.56
8332,20.97
8344,17.64
8356,14.27
8368,11.45
8380,9.54
8392,8.6
8404,8.45
8416,8.77
8428,9.27
8439,9.7
8450,9.9
8462,9.78
8474,9.27
8486,8.3
8498,6.86
8510,4.99
8522,2.8
8534,0.36
8546,-2.35
8558,-5.44
8570,-9.03
8582,-13.07
8594,-17.18
8606,-20.63
8618,-22.49
8629,-21.92
8640,-18.53
8652,-12.56
8664,-4.83
8676,3.52
8688,11.37
8700,17.87
8712,22.55
8724,25.21
8736,25.89
8748,24.77
8760,22.15
8772,18.52
8784,14.49
8796,10.71
8808,7.78
8819,6.05
8830,5.53
8842,5.96
8854,6.85
8866,7.69
8878,8.11
8890,7.94
8902,7.22
8914,6.13
8926,4.86
8938,3.5
8950,1.97
8962,0.13
8974,-2.21
8986,-5.17
8998,-8.76
9009,-12.81
9020,-16.97
9032,-20.6
9044,-22.95
9056,-23.32
9068,-21.31
9080,-16.96
9092,-10.78
9104,-3.64
9116,3.52
9128,9.86
9140,14.76
9152,17.86
9164,19.05
9176,18.4
9188,16.2
9199,12.92
9210,9.17
9222,5.64
9234,2.91
9246,1.33
9258,0.92
9270,1.4
9282,2.31
9294,3.13
9306,3.51
9318,3.3
9330,2.56
9342,1.48
9354,0.22
9366,-1.12
9378,-2.6
9389,-4.34
9400,-6.56
9412,-9.41
9424,-12.97
9436,-17.14
9448,-21.53
9460,-25.44
9472,-28.01
9484,-28.45
9496,-26.29
9508,-21.59
9520,-15.0
9532,-7.49
9544,-0.13
9556,6.22
9568,11.03
9579,14.09
9590,15.39
9602,15.04
9614,13.17
9626,10.04
9638,6.04
9650,1.73
9662,-2.24
9674,-5.31
9686,-7.13
9698,-7.75
9710,-7.52
9722,-7.03
9734,-6.83
9746,-7.26
9758,-8.4
9769,-10.13
9780,-12.22
9792,-14.52
9804,-17.04
9816,-19.87
9828,-23.16
9840,-26.98
9852,-31.24
9864,-35.68
9876,-39.85
9888,-43.1
9900,-44.65
9912,-43.78
9924,-40.0
9936,-33.21
9948,-23.84
9959,-12.75
9970,-1.03
9982,10.27
9994,20.36
10006,28.76
10018,35.28
10030,39.97
10042,42.99
10054,44.57
10066,45.03
10078,44.77
10090,44.2
10102,43.66
10114,43.4
10126,43.48
10138,43.85
10149,44.4
10160,45.07
10172,45.86
10184,46.74
10196,47.57
10208,47.95
10220,47.21
10232,44.62
10244,39.56
10256,31.78
10268,21.44
10280,9.1
10292,-4.47
10304,-18.42
10316,-31.86
10328,-43.89
10339,-53.63
10350,-60.32
10362,-63.55
10374,-63.36
10386,-60.29
10398,-55.18
10410,-48.92
10422,-42.24
10434,-35.6
10446,-29.28
10458,-23.52
10470,-18.59
10482,-14.78
10494,-12.28
10506,-11.04
10518,-10.75
10529,-10.91
10540,-10.99
10552,-10.57
10564,-9.48
10576,-7.76
10588,-5.64
10600,-3.4
10612,-1.28
10624,0.59
10636,2.28
10648,3.92
10660,5.64
10672,7.44
10684,9.17
10696,10.56
10708,11.27
10719,11.05
10730,9.81
10742,7.64
10754,4.87
10766,2.02
10778,-0.26
10790,-1.22
10802,-0.3
10814,2.84
10826,8.05
10838,14.71
10850,21.85
10862,28.41
10874,33.48
10886,36.52
10898,37.39
10909,36.33
10920,33.77
10932,30.31
10944,26.55
10956,23.08
10968,20.36
10980,18.65
10992,17.94
11004,18.0
11016,18.44
11028,18.83
11040,18.86
11052,18.38
11064,17.42
11076,16.16
11088,14.8
11099,13.45
11110,12.15
11122,10.86
11134,9.46
11146,7.91
11158,6.21
11170,4.49
11182,3.01
11194,2.14
11206,2.29
11218,3.9
11230,7.29
11242,12.53
11254,19.42
11266,27.45
11278,35.91
11289,44.07
11300,51.32
11312,57.17
11324,61.28
11336,63.49
11348,63.78
11360,62.4
11372,59.87
11384,56.84
11396,53.94
11408,51.56
11420,49.71
11432,48.12
11444,46.42
11456,44.4
11468,42.13
11479,39.86
11490,37.89
11502,36.33
11514,35.05
11526,33.77
11538,32.21
11550,30.21
11562,27.71
11574,24.76
11586,21.36
11598,17.56
11610,13.49
11622,9.44
11634,5.82
11646,2.99
11658,1.02
11669,-0.51
11680,-2.4
11692,-5.46
11704,-10.1
11716,-15.99
11728,-22.13
11740,-27.14
11752,-29.91
11764,-30.01
11776,-27.95
11788,-24.95
11800,-22.49
11812,-21.79
11824,-23.45
11836,-27.37
11848,-32.92
11859,-39.31
11870,-45.83
11882,-52.05
11894,-57.82
11906,-63.2
11918,-68.34
11930,-73.4
11942,-78.6
11954,-84.21
11966,-90.55
11978,-97.95
11990,-106.6
12002,-116.43
12014,-127.07
12026,-137.83
12038,-147.82
12049,-156.11
12060,-161.88
12072,-164.54
12084,-163.74
12096,-159.37
12108,-151.59
12120,-140.76
12132,-127.44
12144,-112.37
12156,-96.39
12168,-80.37
12180,-65.13
12192,-51.28
12204,-39.19
12216,-28.85
12228,-19.94
12239,-11.98
12250,-4.48
12262,2.83
12274,9.93
12286,16.56
12298,22.37
12310,27.1
12322,30.71
12334,33.41
12346,35.48
12358,37.15
12370,38.51
12382,39.49
12394,39.94
12406,39.74
12418,38.81
12429,37.12
12440,34.65
12452,31.33
12464,27.12
12476,22.2
12488,17.03
12500,12.38
12512,9.15
12524,8.08
12536,9.48
12548,13.08
12560,18.18
12572,23.9
12584,29.36
12596,33.86
12608,36.92
12619,38.18
12630,37.41
12642,34.59
12654,30.06
12666,24.47
12678,18.75
12690,13.79
12702,10.24
12714,8.32
12726,7.82
12738,8.21
12750,8.9
12762,9.44
12774,9.62
12786,9.48
12798,9.17
12809,8.84
12820,8.52
12832,8.11
12844,7.4
12856,6.24
12868,4.56
12880,2.47
12892,0.21
12904,-1.86
12916,-3.32
12928,-3.74
12940,-2.73
12952,-0.0
12964,4.45
12976,10.34
12988,17.05
12999,23.76
13010,29.65
13022,34.09
13034,36.73
13046,37.5
13058,36.59
13070,34.34
13082,31.18
13094,27.58
13106,24.06
13118,21.07
13130,18.92
13142,17.71
13154,17.37
13166,17.65
13178,18.24
13189,18.86
13200,19.31
13212,19.44
13224,19.16
13236,18.38
13248,17.03
13260,14.99
13272,12.17
13284,8.47
13296,3.92
13308,-1.29
13320,-6.75
13332,-11.8
13344,-15.64
13356,-17.55
13368,-17.06
13379,-14.12
13390,-9.07
13402,-2.55
13414,4.66
13426,11.78
13438,18.16
13450,23.19
13462,26.41
13474,27.47
13486,26.27
13498,23.06
13510,18.37
13522,12.99
13534,7.7
13546,3.11
13558,-0.47
13569,-3.06
13580,-4.87
13592,-6.18
13604,-7.25
13616,-8.29
13628,-9.43
13640,-10.81
13652,-12.49
13664,-14.51
13676,-16.84
13688,-19.46
13700,-22.37
13712,-25.61
13724,-29.1
13736,-32.51
13748,-35.21
13759,-36.3
13770,-34.86
13782,-30.34
13794,-22.75
13806,-12.77
13818,-1.6
13830,9.36
13842,18.86
13854,26.03
13866,30.46
13878,32.18
13890,31.45
13902,28.79
13914,24.77
13926,20.04
13938,15.24
13949,10.89
13960,7.32
13972,4.64
13984,2.71
13996,1.26
14008,-0.03
14020,-1.35
14032,-2.77
14044,-4.23
14056,-5.69
14068,-7.28
14080,-9.35
14092,-12.36
14104,-16.71
14116,-22.42
14128,-28.99
14139,-35.37
14150,-40.21
14162,-42.23
14174,-40.6
14186,-35.2
14198,-26.63
14210,-16.02
14222,-4.69
14234,6.12
14246,15.44
14258,22.64
14270,27.39
14282,29.64
14294,29.58
14306,27.68
14318,24.52
14329,20.81
14340,17.19
14352,14.16
14364,11.94
14376,10.48
14388,9.51
14400,8.68
14412,7.7
14424,6.46
14436,5.0
14448,3.47
14460,1.96
14472,0.37
14484,-1.6
14496,-4.41
14508,-8.44
14519,-13.71
14530,-19.77
14542,-25.61
14554,-29.96
14566,-31.58
14578,-29.76
14590,-24.48
14602,-16.49
14614,-6.99
14626,2.66
14638,11.37
14650,18.45
14662,23.59
14674,26.71
14686,27.84
14698,27.14
14709,24.87
14720,21.51
14732,17.64
14744,13.9
14756,10.76
14768,8.41
14780,6.78
14792,5.57
14804,4.43
14816,3.1
14828,1.5
14840,-0.32
14852,-2.24
14864,-4.19
14876,-6.24
14888,-8.59
14899,-11.58
14910,-15.47
14922,-20.35
14934,-25.91
14946,-31.43
14958,-35.83
14970,-37.89
14982,-36.67
14994,-31.77
15006,-23.5
15018,-12.9
15030,-1.35
15042,9.79
15054,19.52
15066,27.29
15078,32.94
15089,36.48
15100,37.98
15112,37.53
15124,35.35
15136,31.89
15148,27.81
15160,23.88
15172,20.73
15184,18.67
15196,17.6
15208,17.11
15220,16.65
15232,15.73
15244,14.1
15256,11.76
15268,8.89
15279,5.74
15290,2.49
15302,-0.76
15314,-4.03
15326,-7.4
15338,-11.04
15350,-15.13
15362,-19.84
15374,-25.21
15386,-30.95
15398,-36.4
15410,-40.56
15422,-42.29
15434,-40.7
15446,-35.45
15458,-26.95
15469,-16.22
15480,-4.66
15492,6.39
15504,15.89
15516,23.22
15528,28.17
15540,30.82
15552,31.42
15564,30.38
15576,28.21
15588,25.51
15600,22.88
15612,20.83
15624,19.61
15636,19.24
15648,19.49
15659,20.03
15670,20.51
15682,20.69
15694,20.49
15706,19.92
15718,19.08
15730,18.03
15742,16.79
15754,15.25
15766,13.26
15778,10.69
15790,7.53
15802,3.96
15814,0.3
15826,-3.06
15838,-5.9
15849,-8.23
15860,-10.32
15872,-12.61
15884,-15.54
15896,-19.38
15908,-24.1
15920,-29.31
15932,-34.27
15944,-37.95
15956,-39.3
15968,-37.5
15980,-32.27
15992,-23.94
16004,-13.47
16016,-2.14
16028,8.83
16039,18.47
16050,26.19
16062,31.69
16074,34.89
16086,35.83
16098,34.77
16110,32.14
16122,28.61
16134,24.89
16146,21.59
16158,19.09
16170,17.5
16182,16.73
16194,16.54
16206,16.66
16218,16.79
16229,16.7
16240,16.25
16252,15.42
16264,14.26
16276,12.81
16288,11.04
16300,8.78
16312,5.88
16324,2.36
16336,-1.59
16348,-5.57
16360,-9.16
16372,-12.14
16384,-14.56
16396,-16.67
16408,-18.83
16419,-21.34
16430,-24.32
16442,-27.73
16454,-31.26
16466,-34.37
16478,-36.3
16490,-36.21
16502,-33.43
16514,-27.73
16526,-19.48
16538,-9.59
16550,0.67
16562,10.09
16574,17.74
16586,23.14
16598,26.27
16609,27.29
16620,26.54
16632,24.36
16644,21.12
16656,17.33
16668,13.54
16680,10.36
16692,8.27
16704,7.45
16716,7.76
16728,8.77
16740,9.96
16752,10.82
16764,11.11
16776,10.8
16788,10.0
16799,8.92
16810,7.68
16822,6.28
16834,4.62
16846,2.57
16858,-0.01
16870,-3.17
16882,-6.84
16894,-10.82
16906,-14.84
16918,-18.61
16930,-21.9
16942,-24.64
16954,-26.88
16966,-28.85
16978,-30.84
16989,-33.24
17000,-36.33
17012,-40.2
17024,-44.54
17036,-48.59
17048,-51.24
17060,-51.34
17072,-48.11
17084,-41.45
17096,-32.05
17108,-21.12
17120,-10.0
17132,0.16
17144,8.68
17156,15.2
17168,19.62
17179,21.9
17190,22.11
17202,20.55
17214,17.78
17226,14.55
17238,11.63
17250,9.52
17262,8.36
17274,7.94
17286,7.89
17298,7.88
17310,7.72
17322,7.42
17334,7.08
17346,6.8
17358,6.62
17369,6.48
17380,6.3
17392,5.97
17404,5.43
17416,4.65
17428,3.67
17440,2.49
17452,1.19
17464,-0.22
17476,-1.73
17488,-3.39
17500,-5.29
17512,-7.55
17524,-10.31
17536,-13.62
17548,-17.45
17559,-21.5
17570,-25.22
17582,-27.82
17594,-28.49
17606,-26.65
17618,-22.15
17630,-15.41
17642,-7.3
17654,1.09
17666,8.77
17678,15.09
17690,19.73
17702,22.65
17714,23.92
17726,23.65
17738,22.03
17749,19.39
17760,16.24
17772,13.22
17784,10.92
17796,9.69
17808,9.55
17820,10.24
17832,11.33
17844,12.45
17856,13.37
17868,14.06
17880,14.57
17892,14.91
17904,14.99
17916,14.61
17928,13.58
17939,11.78
17950,9.27
17962,6.28
17974,3.19
17986,0.32
17998,-2.15
18010,-4.24
18022,-6.23
18034,-8.51
18046,-11.52
18058,-15.51
18070,-20.46
18082,-25.96
18094,-31.29
18106,-35.46
18118,-37.52
18129,-36.8
18140,-33.14
18152,-26.99
18164,-19.28
18176,-11.22
18188,-3.98
18200,1.63
18212,5.14
18224,6.49
18236,5.81
18248,3.33
18260,-0.75
18272,-6.12
18284,-12.33
18296,-18.71
18308,-24.51
18319,-29.04
18330,-31.91
18342,-33.13
18354,-33.11
18366,-32.44
18378,-31.65
18390,-31.05
18402,-30.56
18414,-29.83
18426,-28.38
18438,-25.82
18450,-22.0
18462,-17.15
18474,-11.85
18486,-6.87
18498,-2.98
18509,-0.75
18520,-0.33
18532,-1.43
18544,-3.45
18556,-5.65
18568,-7.49
18580,-8.71
18592,-9.32
18604,-9.48
18616,-9.24
18628,-8.4
18640,-6.41
18652,-2.38
18664,4.84
18676,16.23
18688,32.09
18699,51.46
18710,72.0
18722,90.27
18734,102.63
18746,106.42
18758,100.9
18770,87.55
18782,69.63
18794,51.05
18806,35.16
18818,23.76
18830,16.89
18842,13.05
18854,10.04
18866,5.82
18878,-0.65
18889,-9.09
18900,-17.96
18912,-25.07
18924,-28.55
18936,-27.51
18948,-22.49
18960,-15.03
18972,-7.09
18984,-0.23
18996,4.78
19008,7.96
19020,9.69
19032,10.18
19044,9.43
19056,7.31
19068,4.05
19079,0.58
19090,-1.53
19102,-0.49
19114,5.03
19126,15.34
19138,29.51
19150,45.62
19162,61.19
19174,73.9
19186,82.04
19198,84.84
19210,82.59
19222,76.4
19234,67.83
19246,58.38
19258,49.09
19269,40.33
19280,31.94
19292,23.5
19304,14.67
19316,5.46
19328,-3.83
19340,-12.89
19352,-21.57
19364,-29.98
19376,-38.35
19388,-46.78
19400,-55.05
19412,-62.67
19424,-69.06
19436,-73.93
19448,-77.38
19459,-79.99
19470,-82.56
19482,-85.83
19494,-90.17
19506,-95.45
19518,-101.04
19530,-105.93
19542,-108.88
19554,-108.68
19566,-104.38
19578,-95.51
19590,-82.27
19602,-65.52
19614,-46.63
19626,-27.18
19638,-8.66
19649,7.68
19660,20.95
19672,30.56
19684,36.19
19696,37.94
19708,36.36
19720,32.54
19732,27.92
19744,23.97
19756,21.75
19768,21.65
19780,23.35
19792,26.09
19804,29.04
19816,31.58
19828,33.44
19839,34.56
19850,34.92
19862,34.42
19874,32.9
19886,30.31
19898,26.81
19910,22.83
19922,18.85
19934,15.19
19946,11.84
19958,8.45
19970,4.52
19982,-0.27
19994,-5.81
20006,-11.55
20018,-16.53
20029,-19.78
20040,-20.58
20052,-18.71
20064,-14.55
20076,-8.9
20088,-2.76
20100,2.89
20112,7.32
20124,10.12
20136,11.2
20148,10.69
20160,8.86
20172,6.06
20184,2.63
20196,-1.0
20208,-4.42
20219,-7.23
20230,-9.16
20242,-10.15
20254,-10.36
20266,-10.1
20278,-9.75
20290,-9.54
20302,-9.49
20314,-9.41
20326,-9.07
20338,-8.34
20350,-7.32
20362,-6.34
20374,-5.83
20386,-6.19
20398,-7.61
20409,-10.04
20420,-13.22
20432,-16.69
20444,-19.89
20456,-22.25
20468,-23.15
20480,-22.12
20492,-18.97
20504,-13.79
20516,-7.09
20528,0.4
20540,7.78
20552,14.26
20564,19.21
20576,22.25
20588,23.28
20599,22.43
20610,20.03
20622,16.53
20634,12.43
20646,8.21
20658,4.31
20670,1.13
20682,-1.1
20694,-2.26
20706,-2.51
20718,-2.13
20730,-1.57
20742,-1.18
20754,-1.16
20766,-1.45
20778,-1.83
20789,-2.09
20800,-2.22
20812,-2.4
20824,-2.99
20836,-4.32
20848,-6.5
20860,-9.32
20872,-12.3
20884,-14.76
20896,-16.03
20908,-15.62
20920,-13.29
20932,-9.13
20944,-3.52
20956,2.98
20968,9.7
20979,15.92
20990,21.02
