seconds,BVP
6,8.43
18,11.78
30,19.15
42,30.63
54,45.56
66,62.69
78,80.55
90,97.82
102,113.48
113,126.88
124,137.58
136,145.28
148,149.84
160,151.34
172,150.19
184,147.07
196,142.84
208,138.22
220,133.68
232,129.34
244,125.09
256,120.74
268,116.19
280,111.48
292,106.72
303,102.05
314,97.6
326,93.4
338,89.41
350,85.57
362,81.78
374,77.93
386,74.02
398,70.15
410,66.61
422,63.74
434,61.8
446,60.82
458,60.49
470,60.39
482,60.23
493,60.23
504,61.15
516,64.0
528,69.55
540,77.74
552,87.49
564,96.9
576,103.95
588,107.08
600,105.65
612,99.89
624,90.56
636,78.52
648,64.49
660,49.04
672,32.72
683,16.19
694,0.13
706,-14.81
718,-28.07
730,-39.19
742,-47.76
754,-53.38
766,-55.88
778,-55.48
790,-53.02
802,-49.95
814,-48.03
826,-48.79
838,-53.05
850,-60.56
862,-70.15
873,-80.16
884,-89.06
896,-95.99
908,-101.13
920,-105.5
932,-110.84
944,-119.05
956,-131.57
968,-148.67
980,-168.75
992,-188.06
1004,-201.13
1016,-202.21
1028,-187.35
1040,-156.26
1052,-113.12
1063,-65.54
1074,-22.18
1086,10.12
1098,28.21
1110,32.95
1122,27.8
1134,16.91
1146,3.55
1158,-10.31
1170,-23.53
1182,-35.11
1194,-43.85
1206,-48.75
1218,-49.64
1230,-47.6
1242,-44.73
1253,-43.32
1264,-44.87
1276,-49.44
1288,-55.76
1300,-61.76
1312,-65.53
1324,-66.01
1336,-63.32
1348,-58.55
1360,-53.28
1372,-48.89
1384,-46.25
1396,-45.44
1408,-45.99
1420,-47.17
1432,-48.36
1443,-49.33
1454,-50.32
1466,-51.93
1478,-54.84
1490,-59.5
1502,-65.87
1514,-73.35
1526,-80.97
1538,-87.75
1550,-93.02
1562,-96.68
1574,-99.25
1586,-101.7
1598,-105.09
1610,-110.18
1622,-117.11
1633,-125.05
1644,-132.13
1656,-135.58
1668,-132.3
1680,-119.71
1692,-96.77
1704,-64.56
1716,-26.29
1728,13.51
1740,50.25
1752,80.49
1764,102.62
1776,116.75
1788,124.09
1800,126.11
1812,124.09
1823,118.99
1834,111.67
1846,103.14
1858,94.6
1870,87.21
1882,81.83
1894,78.79
1906,77.91
1918,78.71
1930,80.6
1942,83.09
1954,85.84
1966,88.64
1978,91.31
1990,93.74
2002,95.89
2013,97.85
2024,99.91
2036,102.44
2048,105.76
2060,109.87
2072,114.26
2084,117.9
2096,119.46
2108,117.65
2120,111.75
2132,101.73
2144,88.3
2156,72.66
2168,56.11
2180,39.75
2192,24.25
2203,9.9
2214,-3.29
2226,-15.39
2238,-26.28
2250,-35.54
2262,-42.42
2274,-46.04
2286,-45.64
2298,-40.92
2310,-32.23
2322,-20.55
2334,-7.29
2346,6.06
2358,18.17
2370,28.05
2382,35.02
2393,38.65
2404,38.74
2416,35.42
2428,29.25
2440,21.29
2452,12.92
2464,5.59
2476,0.44
2488,-2.08
2500,-2.21
2512,-0.84
2524,0.92
2536,2.16
2548,2.49
2560,2.22
2572,2.18
2583,3.43
2594,6.7
2606,12.14
2618,19.15
2630,26.61
2642,33.31
2654,38.43
2666,41.77
2678,43.7
2690,44.88
2702,45.8
2714,46.59
2726,46.99
2738,46.57
2750,45.07
2762,42.56
2773,39.53
2784,36.64
2796,34.5
2808,33.39
2820,33.18
2832,33.42
2844,33.5
2856,32.89
2868,31.18
2880,28.2
2892,24.02
2904,19.04
2916,14.0
2928,9.84
2940,7.43
2952,7.16
2963,8.65
2974,10.7
2986,11.72
2998,10.26
3010,5.58
3022,-2.16
3034,-12.13
3046,-23.21
3058,-34.46
3070,-45.3
3082,-55.45
3094,-64.8
3106,-73.27
3118,-80.84
3130,-87.64
3142,-93.94
3153,-100.03
3164,-105.97
3176,-111.34
3188,-115.29
3200,-116.75
3212,-114.9
3224,-109.56
3236,-101.24
3248,-91.08
3260,-80.41
3272,-70.4
3284,-61.75
3296,-54.66
3308,-48.92
3320,-44.15
3332,-39.92
3343,-35.92
3354,-31.95
3366,-27.93
3378,-23.86
3390,-19.78
3402,-15.77
3414,-11.96
3426,-8.56
3438,-5.74
3450,-3.58
3462,-2.03
3474,-0.96
3486,-0.17
3498,0.38
3510,0.49
3522,-0.22
3533,-2.15
3544,-5.55
3556,-10.3
3568,-15.98
3580,-22.05
3592,-27.99
3604,-33.46
3616,-38.15
3628,-41.73
3640,-43.69
3652,-43.37
3664,-40.13
3676,-33.59
3688,-23.93
3700,-11.94
3712,1.07
3723,13.56
3734,24.11
3746,31.76
3758,36.18
3770,37.61
3782,36.65
3794,34.02
3806,30.28
3818,25.8
3830,20.82
3842,15.59
3854,10.46
3866,5.91
3878,2.44
3890,0.47
3902,0.18
3913,1.44
3924,3.81
3936,6.57
3948,8.98
3960,10.4
3972,10.56
3984,9.58
3996,7.87
4008,5.86
4020,3.72
4032,1.28
4044,-1.89
4056,-6.14
4068,-11.51
4080,-17.61
4092,-23.74
4103,-29.2
4114,-33.57
4126,-36.97
4138,-39.91
4150,-43.15
4162,-47.3
4174,-52.59
4186,-58.75
4198,-65.09
4210,-70.78
4222,-75.15
4234,-78.03
4246,-79.81
4258,-81.35
4270,-83.83
4282,-88.3
4293,-95.48
4304,-105.43
4316,-117.18
4328,-128.63
4340,-136.61
4352,-137.54
4364,-128.43
4376,-108.01
4388,-77.43
4400,-40.21
4412,-1.23
4424,34.69
4436,64.06
4448,85.37
4460,98.79
4472,105.46
4483,106.71
4494,103.68
4506,97.38
4518,88.92
4530,79.67
4542,71.02
4554,64.03
4566,59.05
4578,55.73
4590,53.28
4602,50.94
4614,48.4
4626,45.93
4638,44.18
4650,43.78
4662,44.95
4673,47.25
4684,49.76
4696,51.31
4708,51.01
4720,48.54
4732,44.23
4744,38.9
4756,33.42
4768,28.42
4780,24.01
4792,19.83
4804,15.28
4816,9.83
4828,3.32
4840,-4.01
4852,-11.61
4863,-18.92
4874,-25.5
4886,-31.21
4898,-36.17
4910,-40.72
4922,-45.3
4934,-50.44
4946,-56.48
4958,-63.43
4970,-70.63
4982,-76.75
4994,-79.97
5006,-78.51
5018,-71.31
5030,-58.46
5042,-41.23
5053,-21.69
5064,-2.09
5076,15.76
5088,30.66
5100,42.08
5112,49.84
5124,54.03
5136,54.83
5148,52.62
5160,48.05
5172,41.99
5184,35.46
5196,29.41
5208,24.52
5220,21.14
5232,19.25
5243,18.65
5254,19.01
5266,20.0
5278,21.36
5290,22.85
5302,24.26
5314,25.35
5326,25.88
5338,25.71
5350,24.82
5362,23.29
5374,21.24
5386,18.81
5398,16.05
5410,12.97
5422,9.53
5433,5.74
5444,1.63
5456,-2.74
5468,-7.25
5480,-11.77
5492,-16.23
5504,-20.61
5516,-25.05
5528,-29.84
5540,-35.34
5552,-41.67
5564,-48.46
5576,-54.65
5588,-58.62
5600,-58.63
5612,-53.4
5623,-42.67
5634,-27.28
5646,-8.96
5658,10.29
5670,28.72
5682,45.09
5694,58.77
5706,69.44
5718,77.04
5730,81.61
5742,83.34
5754,82.64
5766,80.09
5778,76.3
5790,71.86
5802,67.21
5813,62.7
5824,58.63
5836,55.28
5848,52.92
5860,51.72
5872,51.69
5884,52.56
5896,53.75
5908,54.26
5920,52.83
5932,48.12
5944,39.08
5956,25.24
5968,7.02
5980,-14.43
5992,-37.53
6003,-60.71
6014,-82.79
6026,-103.07
6038,-121.11
6050,-136.45
6062,-148.42
6074,-156.31
6086,-159.7
6098,-158.8
6110,-154.43
6122,-147.75
6134,-139.91
6146,-131.71
6158,-123.65
6170,-116.12
6182,-109.56
6193,-104.39
6204,-100.63
6216,-97.66
6228,-94.18
6240,-88.66
6252,-79.84
6264,-67.13
6276,-50.75
6288,-31.47
6300,-10.32
6312,11.54
6324,32.76
6336,51.82
6348,67.19
6360,77.69
6372,82.94
6383,83.58
6394,81.29
6406,78.23
6418,76.5
6430,77.55
6442,81.81
6454,88.67
6466,96.71
6478,104.09
6490,109.12
6502,110.76
6514,108.8
6526,103.83
6538,96.87
6550,88.91
6562,80.6
6573,72.1
6584,63.25
6596,53.77
6608,43.55
6620,32.77
6632,21.95
6644,11.94
6656,3.76
6668,-1.56
6680,-3.27
6692,-1.25
6704,3.73
6716,10.04
6728,15.42
6740,17.66
6752,15.34
6763,8.38
6774,-1.85
6786,-12.93
6798,-22.19
6810,-27.53
6822,-27.87
6834,-23.24
6846,-14.47
6858,-2.72
6870,10.88
6882,25.35
6894,39.81
6906,53.39
6918,65.15
6930,74.3
6942,80.47
6953,83.9
6964,85.44
6976,86.22
6988,87.19
7000,88.63
7012,90.05
7024,90.51
7036,89.18
7048,85.85
7060,81.15
7072,76.3
7084,72.47
7096,70.21
7108,69.07
7120,67.79
7132,64.82
7143,59.04
7154,50.23
7166,39.17
7178,27.31
7190,16.09
7202,6.45
7214,-1.43
7226,-7.97
7238,-13.77
7250,-19.19
7262,-24.28
7274,-28.92
7286,-33.12
7298,-37.26
7310,-41.93
7322,-47.57
7333,-54.15
7344,-61.02
7356,-67.12
7368,-71.43
7380,-73.44
7392,-73.28
7404,-71.66
7416,-69.55
7428,-67.81
7440,-67.04
7452,-67.52
7464,-69.35
7476,-72.61
7488,-77.43
7500,-83.82
7512,-91.54
7523,-99.87
7534,-107.55
7546,-112.88
7558,-114.0
7570,-109.37
7582,-98.24
7594,-81.03
7606,-59.36
7618,-35.74
7630,-12.93
7642,6.86
7654,22.37
7666,33.55
7678,41.11
7690,46.05
7702,49.16
7713,50.82
7724,51.01
7736,49.65
7748,46.82
7760,42.83
7772,38.2
7784,33.39
7796,28.72
7808,24.24
7820,19.82
7832,15.23
7844,10.25
7856,4.71
7868,-1.52
7880,-8.42
7892,-15.75
7903,-22.89
7914,-28.88
7926,-32.62
7938,-33.1
7950,-29.83
7962,-22.96
7974,-13.26
7986,-1.92
7998,9.8
8010,20.74
8022,29.96
8034,36.76
8046,40.62
8058,41.34
8070,39.09
8082,34.42
8093,28.21
8104,21.46
8116,15.04
8128,9.57
8140,5.31
8152,2.27
8164,0.25
8176,-0.95
8188,-1.49
8200,-1.43
8212,-0.81
8224,0.29
8236,1.62
8248,2.79
8260,3.35
8272,2.92
8283,1.37
8294,-1.18
8306,-4.38
8318,-7.84
8330,-11.28
8342,-14.58
8354,-17.84
8366,-21.22
8378,-24.96
8390,-29.17
8402,-33.79
8414,-38.45
8426,-42.46
8438,-44.86
8450,-44.69
8462,-41.3
8473,-34.63
8484,-25.26
8496,-14.25
8508,-2.76
8520,8.21
8532,18.04
8544,26.32
8556,32.82
8568,37.29
8580,39.49
8592,39.33
8604,36.96
8616,32.88
8628,27.9
8640,22.93
8652,18.76
8663,15.9
8674,14.44
8686,14.09
8698,14.36
8710,14.77
8722,15.03
8734,15.07
8746,14.97
8758,14.77
8770,14.39
8782,13.69
8794,12.52
8806,10.93
8818,9.09
8830,7.23
8842,5.43
8853,3.64
8864,1.66
8876,-0.6
8888,-2.91
8900,-4.71
8912,-5.1
8924,-3.28
8936,1.15
8948,7.9
8960,16.03
8972,24.22
8984,31.29
8996,36.56
9008,40.02
9020,42.18
9032,43.75
9043,45.28
9054,46.98
9066,48.66
9078,49.88
9090,50.11
9102,48.8
9114,45.46
9126,39.71
9138,31.46
9150,21.1
9162,9.45
9174,-2.49
9186,-14.03
9198,-25.07
9210,-36.2
9222,-48.2
9233,-61.47
9244,-75.52
9256,-88.98
9268,-99.98
9280,-106.91
9292,-108.84
9304,-105.72
9316,-98.19
9328,-87.27
9340,-74.15
9352,-60.09
9364,-46.35
9376,-33.91
9388,-23.29
9400,-14.37
9412,-6.62
9423,0.51
9434,7.26
9446,13.48
9458,18.78
9470,22.88
9482,25.72
9494,27.5
9506,28.4
9518,28.39
9530,27.14
9542,24.09
9554,18.73
9566,10.83
9578,0.7
9590,-10.83
9602,-22.55
9613,-33.15
9624,-41.6
9636,-47.38
9648,-50.5
9660,-51.28
9672,-50.13
9684,-47.33
9696,-43.13
9708,-37.91
9720,-32.31
9732,-27.18
9744,-23.33
9756,-21.34
9768,-21.43
9780,-23.52
9792,-27.36
9803,-32.54
9814,-38.41
9826,-43.9
9838,-47.44
9850,-47.22
9862,-41.63
9874,-29.83
9886,-12.19
9898,9.71
9910,33.43
9922,56.35
9934,76.21
9946,91.45
9958,101.3
9970,105.62
9982,104.77
9993,99.56
10004,91.21
10016,81.19
10028,70.99
10040,61.79
10052,54.17
10064,48.11
10076,43.17
10088,38.81
10100,34.62
10112,30.42
10124,26.22
10136,22.02
10148,17.77
10160,13.28
10172,8.3
10183,2.6
10194,-3.95
10206,-11.36
10218,-19.49
10230,-28.13
10242,-37.05
10254,-46.05
10266,-55.03
10278,-63.99
10290,-72.94
10302,-81.75
10314,-90.15
10326,-97.5
10338,-102.96
10350,-105.55
10362,-104.39
10373,-98.94
10384,-89.18
10396,-75.65
10408,-59.39
10420,-41.78
10432,-24.32
10444,-8.39
10456,4.91
10468,14.89
10480,21.24
10492,23.99
10504,23.43
10516,20.14
10528,14.97
10540,9.15
10552,4.17
10563,1.61
10574,2.74
10586,8.18
10598,17.73
10610,30.47
10622,45.01
10634,59.87
10646,73.81
10658,85.9
10670,95.52
10682,102.31
10694,106.08
10706,106.86
10718,104.89
10730,100.63
10742,94.68
10753,87.61
10764,79.78
10776,71.36
10788,62.36
10800,52.83
10812,42.95
10824,33.06
10836,23.58
10848,14.84
10860,6.95
10872,-0.2
10884,-6.87
10896,-13.31
10908,-19.64
10920,-25.89
10932,-31.94
10943,-37.67
10954,-42.96
10966,-47.74
10978,-52.04
10990,-56.07
11002,-60.25
11014,-65.2
11026,-71.48
11038,-79.12
11050,-87.32
11062,-94.32
11074,-97.78
11086,-95.57
11098,-86.51
11110,-70.9
11122,-50.46
11133,-27.8
11144,-5.7
11156,13.53
11168,28.37
11180,38.13
11192,42.82
11204,42.98
11216,39.54
11228,33.63
11240,26.43
11252,18.99
11264,12.11
11276,6.33
11288,1.98
11300,-0.82
11312,-2.16
11323,-2.36
11334,-1.88
11346,-1.22
11358,-0.73
11370,-0.51
11382,-0.46
11394,-0.45
11406,-0.38
11418,-0.31
11430,-0.42
11442,-0.87
11454,-1.71
11466,-2.85
11478,-4.11
11490,-5.27
11502,-6.22
11513,-6.95
11524,-7.58
11536,-8.28
11548,-9.21
11560,-10.39
11572,-11.72
11584,-12.93
11596,-13.72
11608,-13.9
11620,-13.52
11632,-12.89
11644,-12.53
11656,-12.96
11668,-14.5
11680,-17.11
11692,-20.42
11703,-23.84
11714,-26.88
11726,-29.3
11738,-31.29
11750,-33.41
11762,-36.39
11774,-40.91
11786,-47.25
11798,-55.08
11810,-63.43
11822,-70.76
11834,-75.33
11846,-75.63
11858,-70.79
11870,-60.78
11882,-46.42
11893,-29.14
11904,-10.62
11916,7.49
11928,23.83
11940,37.44
11952,47.75
11964,54.64
11976,58.36
11988,59.45
12000,58.58
12012,56.46
12024,53.71
12036,50.82
12048,48.16
12060,46.0
12072,44.47
12083,43.64
12094,43.54
12106,44.11
12118,45.26
12130,46.84
12142,48.61
12154,50.28
12166,51.58
12178,52.22
12190,52.08
12202,51.14
12214,49.54
12226,47.51
12238,45.31
12250,43.13
12262,41.08
12273,39.12
12284,37.12
12296,34.91
12308,32.33
12320,29.35
12332,26.04
12344,22.63
12356,19.41
12368,16.62
12380,14.38
12392,12.55
12404,10.82
12416,8.77
12428,6.04
12440,2.49
12452,-1.74
12463,-6.3
12474,-10.78
12486,-14.86
12498,-18.43
12510,-21.57
12522,-24.55
12534,-27.77
12546,-31.64
12558,-36.45
12570,-42.21
12582,-48.4
12594,-53.92
12606,-57.3
12618,-57.09
12630,-52.33
12642,-43.01
12653,-30.02
12664,-14.93
12676,0.55
12688,15.0
12700,27.57
12712,37.88
12724,45.86
12736,51.54
12748,54.91
12760,56.08
12772,55.35
12784,53.3
12796,50.71
12808,48.38
12820,46.99
12832,46.88
12843,48.13
12854,50.54
12866,53.87
12878,57.89
12890,62.44
12902,67.41
12914,72.68
12926,78.05
12938,83.23
12950,87.88
12962,91.74
12974,94.68
12986,96.82
12998,98.44
13010,99.94
13022,101.68
13033,103.88
13044,106.62
13056,109.87
13068,113.56
13080,117.69
13092,122.32
13104,127.49
13116,133.11
13128,138.88
13140,144.24
13152,148.32
13164,150.08
13176,148.41
13188,142.29
13200,131.02
13212,114.34
13223,92.52
13234,66.3
13246,36.72
13258,4.97
13270,-27.84
13282,-60.62
13294,-92.32
13306,-121.9
13318,-148.41
13330,-171.09
13342,-189.5
13354,-203.5
13366,-213.23
13378,-218.9
13390,-220.79
13402,-219.18
13413,-214.44
13424,-207.0
13436,-197.23
13448,-185.45
13460,-171.86
13472,-156.72
13484,-140.58
13496,-124.46
13508,-109.72
13520,-97.65
13532,-88.99
13544,-83.64
13556,-80.66
13568,-78.75
13580,-76.81
13592,-74.29
13603,-71.25
13614,-68.08
13626,-65.05
13638,-62.04
13650,-58.54
13662,-53.91
13674,-47.75
13686,-40.1
13698,-31.43
13710,-22.42
13722,-13.67
13734,-5.45
13746,2.28
13758,9.71
13770,17.0
13782,24.05
13793,30.5
13804,35.86
13816,39.74
13828,42.07
13840,43.07
13852,43.24
13864,43.1
13876,43.05
13888,43.23
13900,43.56
13912,43.85
13924,43.82
13936,43.27
13948,42.03
13960,40.08
13972,37.55
13983,34.67
13994,31.78
14006,29.25
14018,27.34
14030,26.08
14042,25.22
14054,24.25
14066,22.44
14078,19.06
14090,13.58
14102,6.01
14114,-2.93
14126,-11.75
14138,-18.57
14150,-21.64
14162,-19.95
14173,-13.56
14184,-3.6
14196,8.18
14208,20.02
14220,30.56
14232,39.11
14244,45.5
14256,49.82
14268,52.2
14280,52.72
14292,51.49
14304,48.73
14316,44.84
14328,40.35
14340,35.89
14352,32.01
14363,29.11
14374,27.36
14386,26.77
14398,27.22
14410,28.52
14422,30.49
14434,32.81
14446,35.04
14458,36.61
14470,36.96
14482,35.72
14494,32.89
14506,28.89
14518,24.37
14530,20.0
14542,16.16
14553,12.93
14564,10.1
14576,7.36
14588,4.47
14600,1.31
14612,-2.11
14624,-5.7
14636,-9.31
14648,-12.76
14660,-15.86
14672,-18.53
14684,-20.77
14696,-22.75
14708,-24.69
14720,-26.78
14732,-29.05
14743,-31.42
14754,-33.68
14766,-35.67
14778,-37.37
14790,-39.0
14802,-40.99
14814,-43.86
14826,-48.01
14838,-53.47
14850,-59.66
14862,-65.38
14874,-69.11
14886,-69.42
14898,-65.53
14910,-57.56
14922,-46.52
14933,-33.93
14944,-21.26
14956,-9.59
14968,0.5
14980,8.83
14992,15.34
15004,19.92
15016,22.43
15028,22.79
15040,21.17
15052,18.03
15064,14.03
15076,9.95
15088,6.47
15100,4.08
15112,3.05
15123,3.45
15134,5.19
15146,8.07
15158,11.81
15170,16.05
15182,20.37
15194,24.3
15206,27.44
15218,29.44
15230,30.15
15242,29.58
15254,27.97
15266,25.61
15278,22.79
15290,19.73
15302,16.58
15313,13.33
15324,9.91
15336,6.26
15348,2.39
15360,-1.58
15372,-5.39
15384,-8.82
15396,-11.78
15408,-14.38
15420,-16.88
15432,-19.63
15444,-22.76
15456,-26.19
15468,-29.62
15480,-32.7
15492,-35.21
15503,-37.2
15514,-38.99
15526,-41.02
15538,-43.8
15550,-47.64
15562,-52.57
15574,-58.1
15586,-63.24
15598,-66.63
15610,-66.89
15622,-63.1
15634,-55.13
15646,-43.79
15658,-30.46
15670,-16.74
15682,-3.89
15693,7.39
15704,16.82
15716,24.43
15728,30.19
15740,33.96
15752,35.61
15764,35.13
15776,32.87
15788,29.43
15800,25.58
15812,21.99
15824,19.09
15836,17.04
15848,15.79
15860,15.23
15872,15.28
15883,15.88
15894,16.97
15906,18.4
15918,19.88
15930,21.09
15942,21.75
15954,21.72
15966,21.02
15978,19.81
15990,18.23
16002,16.39
16014,14.27
16026,11.75
16038,8.75
16050,5.29
16062,1.49
16073,-2.41
16084,-6.16
16096,-9.64
16108,-12.89
16120,-16.1
16132,-19.45
16144,-23.04
16156,-26.79
16168,-30.43
16180,-33.68
16192,-36.32
16204,-38.36
16216,-40.02
16228,-41.67
16240,-43.79
16252,-46.84
16263,-51.05
16274,-56.32
16286,-61.98
16298,-66.85
16310,-69.4
16322,-68.31
16334,-62.86
16346,-53.25
16358,-40.57
16370,-26.32
16382,-11.99
16394,1.34
16406,13.06
16418,22.89
16430,30.59
16442,35.89
16453,38.59
16464,38.73
16476,36.73
16488,33.35
16500,29.46
16512,25.76
16524,22.67
16536,20.28
16548,18.56
16560,17.43
16572,16.98
16584,17.43
16596,18.99
16608,21.72
16620,25.49
16632,29.9
16643,34.38
16654,38.3
16666,41.02
16678,41.98
16690,40.8
16702,37.45
16714,32.42
16726,26.77
16738,21.91
16750,19.27
16762,19.73
16774,23.28
16786,28.98
16798,35.36
16810,40.92
16822,44.72
16833,46.66
16844,47.34
16856,47.81
16868,49.13
16880,52.08
16892,56.93
16904,63.4
16916,70.59
16928,77.14
16940,81.41
16952,82.02
16964,78.26
16976,70.51
16988,60.23
17000,49.53
17012,40.41
17023,34.03
17034,30.19
17046,27.49
17058,23.81
17070,17.04
17082,5.78
17094,-10.17
17106,-29.61
17118,-50.19
17130,-69.19
17142,-84.38
17154,-94.94
17166,-101.63
17178,-106.39
17190,-111.19
17202,-116.94
17213,-122.96
17224,-127.36
17236,-127.91
17248,-123.11
17260,-112.5
17272,-96.45
17284,-75.55
17296,-50.38
17308,-21.73
17320,8.84
17332,38.68
17344,64.52
17356,83.48
17368,94.2
17380,97.46
17392,95.81
17403,92.58
17414,90.55
17426,91.1
17438,94.13
17450,98.55
17462,103.05
17474,106.61
17486,108.67
17498,109.05
17510,107.77
17522,104.94
17534,100.69
17546,95.14
17558,88.38
17570,80.33
17582,70.83
17593,59.84
17604,47.57
17616,34.7
17628,22.22
17640,11.08
17652,1.92
17664,-5.18
17676,-10.59
17688,-14.93
17700,-18.81
17712,-22.76
17724,-27.15
17736,-32.29
17748,-38.47
17760,-45.96
17772,-54.86
17783,-65.02
17794,-75.92
17806,-86.77
17818,-96.58
17830,-104.46
17842,-109.79
17854,-112.4
17866,-112.55
17878,-110.71
17890,-107.41
17902,-103.02
17914,-97.8
17926,-91.96
17938,-85.8
17950,-79.74
17962,-74.31
17973,-69.94
17984,-66.83
17996,-64.95
18008,-64.0
18020,-63.53
18032,-63.07
18044,-62.24
18056,-60.93
18068,-59.33
18080,-58.0
18092,-57.63
18104,-58.89
18116,-62.11
18128,-67.05
18140,-72.92
18152,-78.36
18163,-81.75
18174,-81.48
18186,-76.34
18198,-65.83
18210,-50.39
18222,-31.41
18234,-11.06
18246,8.18
18258,23.99
18270,34.76
18282,39.66
18294,38.68
18306,32.25
18318,21.18
18330,6.64
18342,-9.67
18353,-25.58
18364,-38.74
18376,-47.23
18388,-50.12
18400,-47.72
18412,-41.22
18424,-32.07
18436,-21.33
18448,-9.5
18460,3.13
18472,16.06
18484,28.19
18496,38.08
18508,44.45
18520,46.86
18532,45.92
18543,43.03
18554,39.75
18566,37.18
18578,35.72
18590,35.05
18602,34.59
18614,33.66
18626,31.72
18638,28.29
18650,22.9
18662,15.24
18674,5.29
18686,-6.54
18698,-19.61
18710,-33.4
18722,-47.91
18733,-63.63
18744,-81.02
18756,-99.68
18768,-117.76
18780,-131.97
18792,-138.56
18804,-134.74
18816,-119.88
18828,-95.9
18840,-66.73
18852,-37.0
18864,-10.7
18876,9.75
18888,23.68
18900,31.85
18912,35.9
18923,37.74
18934,39.18
18946,41.73
18958,46.49
18970,54.06
18982,64.52
18994,77.38
19006,91.64
19018,106.0
19030,119.08
19042,129.73
19054,137.35
19066,142.04
19078,144.52
19090,145.89
19102,147.26
19113,149.39
19124,152.54
19136,156.53
19148,160.84
19160,164.7
19172,167.0
19184,166.27
19196,160.74
19208,148.89
19220,130.14
19232,105.46
19244,77.48
19256,49.87
19268,26.11
19280,8.33
19292,-3.32
19303,-10.44
19314,-15.41
19326,-20.22
19338,-25.79
19350,-31.93
19362,-37.97
19374,-43.47
19386,-48.73
19398,-54.61
19410,-62.09
19422,-71.58
19434,-82.67
19446,-94.24
19458,-104.99
19470,-113.93
19482,-120.69
19493,-125.42
19504,-128.42
19516,-129.79
19528,-129.24
19540,-126.28
19552,-120.45
19564,-111.6
19576,-100.15
19588,-87.01
19600,-73.48
19612,-60.95
19624,-50.63
19636,-43.26
19648,-38.91
19660,-36.98
19672,-36.41
19683,-36.1
19694,-35.29
19706,-33.86
19718,-32.29
19730,-31.47
19742,-32.3
19754,-35.3
19766,-40.36
19778,-46.7
19790,-52.91
19802,-57.29
19814,-58.17
19826,-54.38
19838,-45.55
19850,-32.23
19862,-15.81
19873,1.92
19884,19.16
19896,34.55
19908,47.36
19920,57.51
19932,65.33
19944,71.25
19956,75.46
19968,77.8
19980,77.78
19992,74.91
20004,68.9
20016,60.06
20028,49.23
20040,37.75
20052,27.03
20063,18.11
20074,11.46
20086,6.91
20098,3.98
20110,2.28
20122,1.78
20134,2.65
20146,4.99
20158,8.25
20170,11.16
20182,11.95
20194,9.08
20206,1.92
20218,-8.8
20230,-21.26
20242,-33.21
20253,-42.77
20264,-48.98
20276,-51.85
20288,-52.08
20300,-50.67
20312,-48.62
20324,-46.83
20336,-45.88
20348,-45.89
20360,-46.17
20372,-45.27
20384,-41.35
20396,-32.93
20408,-19.83
20420,-3.73
20432,11.99
20443,23.31
20454,26.95
20466,21.79
20478,9.34
20490,-6.76
20502,-22.05
20514,-32.82
20526,-37.11
20538,-34.98
20550,-27.9
20562,-17.91
20574,-6.77
20586,4.45
20598,15.34
20610,25.94
20622,36.51
20633,47.49
20644,59.45
20656,72.93
20668,88.15
20680,104.69
20692,121.35
20704,136.41
20716,148.06
20728,155.03
20740,156.99
20752,154.59
20764,149.12
20776,142.13
20788,135.01
20800,128.79
20812,124.15
20823,121.52
20834,121.15
20846,123.15
20858,127.35
20870,133.14
20882,139.37
20894,144.37
20906,146.18
20918,142.94
20930,133.48
20942,117.71
20954,96.84
20966,73.21
20978,49.76
20990,29.25
