seconds,BVP
9,39.96
21,38.85
33,38.37
45,38.43
57,38.84
69,39.4
81,39.9
93,40.15
105,40.02
116,39.4
127,38.26
139,36.57
151,34.35
163,31.65
175,28.5
187,24.97
199,21.12
211,17.08
223,13.09
235,9.36
247,6.14
259,3.49
271,1.27
283,-0.9
295,-3.58
306,-7.35
317,-12.66
329,-19.59
341,-27.66
353,-35.89
365,-42.82
377,-46.93
389,-46.98
401,-42.45
413,-33.72
425,-21.99
437,-8.96
449,3.7
461,14.73
473,23.47
485,29.86
496,34.13
507,36.57
519,37.38
531,36.65
543,34.49
555,31.11
567,26.95
579,22.56
591,18.59
603,15.56
615,13.72
627,13.04
639,13.21
651,13.76
663,14.24
675,14.3
686,13.77
697,12.65
709,11.04
721,9.0
733,6.52
745,3.49
757,-0.17
769,-4.47
781,-9.21
793,-14.05
805,-18.57
817,-22.53
829,-25.84
841,-28.66
853,-31.31
865,-34.15
876,-37.52
887,-41.7
899,-46.85
911,-52.83
923,-59.08
935,-64.54
947,-67.87
959,-67.73
971,-63.28
983,-54.55
995,-42.4
1007,-28.34
1019,-14.02
1031,-0.85
1043,10.37
1055,19.37
1066,26.27
1077,31.32
1089,34.74
1101,36.64
1113,37.08
1125,36.25
1137,34.53
1149,32.42
1161,30.47
1173,29.07
1185,28.31
1197,28.0
1209,27.75
1221,27.23
1233,26.24
1245,24.81
1256,23.11
1267,21.31
1279,19.42
1291,17.3
1303,14.66
1315,11.23
1327,6.9
1339,1.86
1351,-3.5
1363,-8.74
1375,-13.49
1387,-17.66
1399,-21.38
1411,-25.0
1423,-28.88
1435,-33.31
1446,-38.45
1457,-44.31
1469,-50.72
1481,-57.19
1493,-62.91
1505,-66.76
1517,-67.47
1529,-64.15
1541,-56.57
1553,-45.35
1565,-31.79
1577,-17.47
1589,-3.82
1601,8.19
1613,18.16
1625,25.99
1636,31.79
1647,35.65
1659,37.71
1671,38.13
1683,37.22
1695,35.38
1707,33.05
1719,30.69
1731,28.6
1743,26.95
1755,25.74
1767,24.78
1779,23.89
1791,22.91
1803,21.83
1815,20.75
1826,19.77
1837,18.85
1849,17.72
1861,16.06
1873,13.6
1885,10.32
1897,6.51
1909,2.62
1921,-0.93
1933,-3.97
1945,-6.61
1957,-9.18
1969,-12.08
1981,-15.64
1993,-20.06
2005,-25.35
2016,-31.41
2027,-37.98
2039,-44.55
2051,-50.34
2063,-54.34
2075,-55.49
2087,-53.04
2099,-46.77
2111,-37.19
2123,-25.42
2135,-12.85
2147,-0.8
2159,9.79
2171,18.5
2183,25.29
2195,30.3
2206,33.7
2217,35.61
2229,36.11
2241,35.36
2253,33.67
2265,31.46
2277,29.22
2289,27.3
2301,25.9
2313,25.04
2325,24.61
2337,24.4
2349,24.26
2361,24.02
2373,23.51
2385,22.59
2396,21.13
2407,19.11
2419,16.6
2431,13.81
2443,10.89
2455,7.94
2467,4.92
2479,1.68
2491,-1.9
2503,-5.77
2515,-9.76
2527,-13.55
2539,-16.91
2551,-19.76
2563,-22.24
2575,-24.65
2586,-27.37
2597,-30.72
2609,-34.86
2621,-39.73
2633,-44.94
2645,-49.72
2657,-53.06
2669,-53.83
2681,-51.15
2693,-44.72
2705,-34.96
2717,-22.99
2729,-10.26
2741,1.84
2753,12.29
2765,20.62
2776,26.75
2787,30.8
2799,32.9
2811,33.13
2823,31.63
2835,28.71
2847,24.91
2859,20.91
2871,17.41
2883,14.91
2895,13.6
2907,13.35
2919,13.82
2931,14.61
2943,15.34
2955,15.78
2966,15.85
2977,15.56
2989,15.04
3001,14.33
3013,13.42
3025,12.15
3037,10.31
3049,7.75
3061,4.47
3073,0.68
3085,-3.29
3097,-7.12
3109,-10.58
3121,-13.56
3133,-16.02
3145,-17.89
3156,-19.09
3167,-19.6
3179,-19.43
3191,-18.75
3203,-17.71
3215,-16.57
3227,-15.55
3239,-15.03
3251,-15.48
3263,-17.52
3275,-21.68
3287,-28.18
3299,-36.75
3311,-46.6
3323,-56.62
3335,-65.75
3346,-73.26
3357,-78.9
3369,-82.85
3381,-85.45
3393,-86.9
3405,-87.19
3417,-86.09
3429,-83.34
3441,-78.94
3453,-73.3
3465,-67.24
3477,-61.85
3489,-58.12
3501,-56.51
3513,-56.63
3525,-57.3
3536,-56.77
3547,-53.38
3559,-46.2
3571,-35.45
3583,-22.57
3595,-9.74
3607,0.7
3619,7.06
3631,8.85
3643,6.89
3655,3.1
3667,-0.08
3679,-0.48
3691,3.17
3703,10.82
3715,21.23
3726,32.45
3737,42.36
3749,49.34
3761,52.51
3773,51.89
3785,48.35
3797,43.45
3809,39.18
3821,37.55
3833,39.94
3845,46.67
3857,56.75
3869,68.17
3881,78.63
3893,86.24
3905,90.12
3916,90.43
3927,88.03
3939,84.03
3951,79.48
3963,75.07
3975,71.16
3987,67.75
3999,64.41
4011,60.41
4023,54.82
4035,47.07
4047,37.4
4059,27.19
4071,18.67
4083,14.19
4095,15.19
4106,21.54
4117,31.6
4129,42.9
4141,53.24
4153,61.32
4165,66.86
4177,69.92
4189,70.23
4201,66.95
4213,58.98
4225,45.8
4237,28.15
4249,7.98
4261,-12.17
4273,-30.12
4285,-44.87
4296,-56.75
4307,-67.02
4319,-77.22
4331,-88.46
4343,-101.12
4355,-114.76
4367,-128.35
4379,-140.59
4391,-150.17
4403,-155.97
4415,-157.28
4427,-153.86
4439,-145.98
4451,-134.44
4463,-120.32
4475,-104.78
4486,-88.76
4497,-72.87
4509,-57.41
4521,-42.62
4533,-28.77
4545,-16.17
4557,-4.97
4569,4.88
4581,13.57
4593,21.15
4605,27.33
4617,31.47
4629,32.9
4641,31.35
4653,27.29
4665,21.83
4676,16.2
4687,11.16
4699,6.64
4711,1.91
4723,-3.81
4735,-10.72
4747,-18.15
4759,-24.83
4771,-29.53
4783,-31.56
4795,-31.04
4807,-28.6
4819,-24.93
4831,-20.43
4843,-15.11
4855,-8.86
4866,-1.79
4877,5.57
4889,12.38
4901,17.8
4913,21.23
4925,22.53
4937,21.91
4949,19.98
4961,17.52
4973,15.52
4985,14.95
4997,16.63
5009,20.91
5021,27.56
5033,35.77
5045,44.48
5056,52.72
5067,59.87
5079,65.78
5091,70.53
5103,74.23
5115,76.82
5127,78.05
5139,77.68
5151,75.68
5163,72.36
5175,68.34
5187,64.31
5199,60.85
5211,58.19
5223,56.21
5235,54.54
5246,52.85
5257,50.98
5269,49.02
5281,47.24
5293,45.88
5305,44.89
5317,43.96
5329,42.55
5341,40.15
5353,36.44
5365,31.42
5377,25.32
5389,18.47
5401,11.19
5413,3.74
5425,-3.62
5436,-10.66
5447,-17.21
5459,-23.24
5471,-28.83
5483,-34.17
5495,-39.4
5507,-44.41
5519,-48.8
5531,-51.9
5543,-52.91
5555,-51.17
5567,-46.37
5579,-38.69
5591,-28.76
5603,-17.44
5615,-5.51
5626,6.42
5637,17.96
5649,28.77
5661,38.3
5673,45.71
5685,50.05
5697,50.62
5709,47.49
5721,41.67
5733,35.05
5745,29.86
5757,27.94
5769,30.13
5781,35.99
5793,43.95
5805,51.94
5816,58.12
5827,61.45
5839,61.85
5851,60.09
5863,57.33
5875,54.77
5887,53.4
5899,53.77
5911,55.75
5923,58.26
5935,59.18
5947,55.73
5959,45.27
5971,26.4
5983,-0.24
5995,-31.95
6006,-64.9
6017,-95.52
6029,-121.64
6041,-142.75
6053,-159.39
6065,-171.98
6077,-180.02
6089,-182.08
6101,-176.59
6113,-162.89
6125,-141.72
6137,-115.15
6149,-85.9
6161,-56.53
6173,-28.97
6185,-4.53
6196,15.88
6207,31.55
6219,42.03
6231,47.33
6243,48.02
6255,45.18
6267,40.08
6279,33.82
6291,27.13
6303,20.36
6315,13.68
6327,7.24
6339,1.33
6351,-3.72
6363,-7.71
6375,-10.53
6386,-12.27
6397,-13.01
6409,-12.86
6421,-11.93
6433,-10.47
6445,-8.95
6457,-8.01
6469,-8.22
6481,-9.79
6493,-12.55
6505,-15.98
6517,-19.54
6529,-22.87
6541,-25.93
6553,-28.8
6565,-31.39
6576,-33.25
6587,-33.71
6599,-32.07
6611,-27.94
6623,-21.41
6635,-12.93
6647,-3.19
6659,7.16
6671,17.51
6683,27.32
6695,36.06
6707,43.18
6719,48.27
6731,51.17
6743,52.05
6755,51.38
6766,49.75
6777,47.64
6789,45.29
6801,42.72
6813,39.79
6825,36.45
6837,32.76
6849,28.9
6861,25.07
6873,21.35
6885,17.7
6897,14.01
6909,10.14
6921,6.08
6933,1.88
6945,-2.36
6956,-6.6
6967,-10.79
6979,-14.91
6991,-18.88
7003,-22.63
7015,-26.13
7027,-29.45
7039,-32.76
7051,-36.25
7063,-39.93
7075,-43.51
7087,-46.45
7099,-48.04
7111,-47.69
7123,-45.05
7135,-40.15
7146,-33.28
7157,-24.88
7169,-15.45
7181,-5.48
7193,4.49
7205,13.87
7217,22.05
7229,28.51
7241,32.91
7253,35.2
7265,35.62
7277,34.59
7289,32.62
7301,30.22
7313,27.83
7325,25.76
7336,24.17
7347,23.01
7359,22.07
7371,21.05
7383,19.74
7395,18.05
7407,16.1
7419,14.1
7431,12.24
7443,10.58
7455,9.01
7467,7.27
7479,5.11
7491,2.39
7503,-0.87
7515,-4.45
7526,-8.12
7537,-11.63
7549,-14.9
7561,-18.02
7573,-21.25
7585,-24.84
7597,-28.97
7609,-33.47
7621,-37.9
7633,-41.45
7645,-43.25
7657,-42.5
7669,-38.83
7681,-32.38
7693,-23.82
7705,-14.21
7716,-4.67
7727,3.91
7739,10.99
7751,16.49
7763,20.59
7775,23.59
7787,25.68
7799,26.93
7811,27.33
7823,26.95
7835,25.97
7847,24.68
7859,23.43
7871,22.48
7883,21.94
7895,21.79
7906,21.87
7917,21.99
7929,22.0
7941,21.87
7953,21.63
7965,21.37
7977,21.15
7989,20.97
8001,20.7
8013,20.21
8025,19.32
8037,17.9
8049,15.92
8061,13.47
8073,10.74
8085,7.93
8096,5.21
8107,2.56
8119,-0.19
8131,-3.38
8143,-7.3
8155,-12.1
8167,-17.65
8179,-23.57
8191,-29.37
8203,-34.51
8215,-38.53
8227,-41.0
8239,-41.53
8251,-39.85
8263,-35.84
8275,-29.76
8286,-22.18
8297,-13.89
8309,-5.69
8321,1.86
8333,8.51
8345,14.22
8357,19.06
8369,22.98
8381,25.88
8393,27.58
8405,28.03
8417,27.39
8429,26.0
8441,24.33
8453,22.81
8465,21.73
8476,21.22
8487,21.22
8499,21.55
8511,21.98
8523,22.31
8535,22.36
8547,22.06
8559,21.39
8571,20.38
8583,19.08
8595,17.54
8607,15.81
8619,13.9
8631,11.82
8643,9.54
8655,7.03
8666,4.31
8677,1.52
8689,-1.19
8701,-3.69
8713,-5.97
8725,-8.2
8737,-10.61
8749,-13.41
8761,-16.6
8773,-19.95
8785,-23.06
8797,-25.42
8809,-26.49
8821,-25.89
8833,-23.38
8845,-18.93
8856,-12.81
8867,-5.59
8879,1.98
8891,9.12
8903,15.19
8915,19.86
8927,23.14
8939,25.23
8951,26.39
8963,26.81
8975,26.59
8987,25.84
8999,24.67
9011,23.3
9023,21.98
9035,20.96
9046,20.42
9057,20.42
9069,20.94
9081,21.81
9093,22.72
9105,23.34
9117,23.37
9129,22.69
9141,21.45
9153,20.0
9165,18.74
9177,17.86
9189,17.24
9201,16.48
9213,15.12
9225,12.95
9236,10.15
9247,7.3
9259,5.05
9271,3.9
9283,3.85
9295,4.37
9307,4.61
9319,3.75
9331,1.4
9343,-2.22
9355,-6.19
9367,-9.2
9379,-9.76
9391,-6.68
9403,0.71
9415,12.18
9426,26.56
9437,41.68
9449,54.91
9461,63.87
9473,67.23
9485,65.24
9497,59.56
9509,52.45
9521,45.72
9533,39.8
9545,33.76
9557,26.01
9569,15.27
9581,1.49
9593,-14.11
9605,-29.53
9616,-42.84
9627,-52.85
9639,-59.19
9651,-62.14
9663,-62.26
9675,-60.14
9687,-56.39
9699,-51.69
9711,-46.88
9723,-42.83
9735,-40.29
9747,-39.62
9759,-40.66
9771,-42.67
9783,-44.47
9795,-44.81
9806,-42.68
9817,-37.68
9829,-30.17
9841,-21.12
9853,-11.8
9865,-3.34
9877,3.51
9889,8.51
9901,11.81
9913,13.89
9925,15.37
9937,16.9
9949,19.02
9961,21.89
9973,25.23
9985,28.29
9996,30.12
10007,29.96
10019,27.55
10031,23.31
10043,18.11
10055,13.02
10067,8.94
10079,6.5
10091,5.97
10103,7.43
10115,10.75
10127,15.72
10139,21.99
10151,29.1
10163,36.63
10175,44.12
10186,51.06
10197,56.75
10209,60.32
10221,60.91
10233,57.93
10245,51.42
10257,42.13
10269,31.39
10281,20.55
10293,10.71
10305,2.4
10317,-4.33
10329,-9.61
10341,-13.47
10353,-15.87
10365,-16.82
10376,-16.63
10387,-16.02
10399,-15.9
10411,-17.1
10423,-19.99
10435,-24.37
10447,-29.62
10459,-34.94
10471,-39.64
10483,-43.32
10495,-45.93
10507,-47.63
10519,-48.69
10531,-49.39
10543,-49.96
10555,-50.48
10566,-50.97
10577,-51.39
10589,-51.74
10601,-52.09
10613,-52.51
10625,-53.15
10637,-54.08
10649,-55.38
10661,-57.14
10673,-59.53
10685,-62.62
10697,-66.25
10709,-69.86
10721,-72.52
10733,-73.17
10745,-71.03
10756,-65.9
10767,-58.31
10779,-49.2
10791,-39.63
10803,-30.31
10815,-21.56
10827,-13.33
10839,-5.51
10851,1.82
10863,8.31
10875,13.57
10887,17.26
10899,19.41
10911,20.35
10923,20.7
10935,21.08
10946,21.94
10957,23.41
10969,25.31
10981,27.36
10993,29.27
11005,30.95
11017,32.42
11029,33.74
11041,34.82
11053,35.41
11065,35.15
11077,33.77
11089,31.27
11101,27.86
11113,23.91
11125,19.74
11136,15.52
11147,11.27
11159,6.97
11171,2.66
11183,-1.48
11195,-5.28
11207,-8.66
11219,-11.72
11231,-14.68
11243,-17.81
11255,-21.37
11267,-25.51
11279,-30.28
11291,-35.59
11303,-41.22
11315,-46.74
11326,-51.49
11337,-54.64
11349,-55.38
11361,-53.14
11373,-47.88
11385,-40.11
11397,-30.81
11409,-21.1
11421,-11.98
11433,-4.07
11445,2.36
11457,7.35
11469,11.02
11481,13.51
11493,14.99
11505,15.61
11516,15.59
11527,15.23
11539,14.8
11551,14.54
11563,14.66
11575,15.27
11587,16.43
11599,18.06
11611,19.97
11623,21.86
11635,23.42
11647,24.37
11659,24.53
11671,23.87
11683,22.48
11695,20.53
11706,18.23
11717,15.74
11729,13.16
11741,10.47
11753,7.56
11765,4.38
11777,0.92
11789,-2.71
11801,-6.33
11813,-9.74
11825,-12.88
11837,-15.83
11849,-18.92
11861,-22.54
11873,-27.09
11885,-32.76
11896,-39.37
11907,-46.3
11919,-52.47
11931,-56.67
11943,-57.86
11955,-55.55
11967,-49.93
11979,-41.76
11991,-32.07
12003,-21.78
12015,-11.53
12027,-1.66
12039,7.6
12051,16.02
12063,23.33
12075,29.26
12086,33.72
12097,36.76
12109,38.64
12121,39.62
12133,39.94
12145,39.76
12157,39.2
12169,38.43
12181,37.62
12193,36.98
12205,36.62
12217,36.48
12229,36.4
12241,36.08
12253,35.24
12265,33.74
12276,31.58
12287,28.97
12299,26.12
12311,23.26
12323,20.46
12335,17.71
12347,14.88
12359,11.91
12371,8.72
12383,5.3
12395,1.66
12407,-2.18
12419,-6.16
12431,-10.18
12443,-14.08
12455,-17.74
12466,-21.17
12477,-24.6
12489,-28.39
12501,-32.93
12513,-38.39
12525,-44.42
12537,-50.25
12549,-54.68
12561,-56.52
12573,-54.94
12585,-49.71
12597,-41.32
12609,-30.81
12621,-19.43
12633,-8.33
12645,1.65
12656,10.13
12667,17.06
12679,22.58
12691,26.92
12703,30.27
12715,32.69
12727,34.25
12739,34.99
12751,35.07
12763,34.73
12775,34.24
12787,33.83
12799,33.64
12811,33.63
12823,33.67
12835,33.62
12846,33.4
12857,32.99
12869,32.38
12881,31.5
12893,30.13
12905,28.08
12917,25.19
12929,21.54
12941,17.36
12953,12.97
12965,8.62
12977,4.42
12989,0.27
13001,-3.97
13013,-8.38
13025,-12.89
13036,-17.37
13047,-21.65
13059,-25.73
13071,-29.76
13083,-33.98
13095,-38.67
13107,-43.97
13119,-49.87
13131,-56.13
13143,-62.29
13155,-67.72
13167,-71.68
13179,-73.45
13191,-72.45
13203,-68.54
13215,-62.03
13226,-53.74
13237,-44.76
13249,-36.15
13261,-28.71
13273,-22.79
13285,-18.41
13297,-15.42
13309,-13.7
13321,-13.23
13333,-14.02
13345,-15.93
13357,-18.6
13369,-21.42
13381,-23.75
13393,-25.05
13405,-25.05
13416,-23.72
13427,-21.23
13439,-17.75
13451,-13.46
13463,-8.49
13475,-2.98
13487,2.89
13499,8.88
13511,14.78
13523,20.36
13535,25.46
13547,29.92
13559,33.61
13571,36.43
13583,38.37
13595,39.51
13606,40.03
13617,40.13
13629,39.93
13641,39.43
13653,38.48
13665,36.89
13677,34.51
13689,31.26
13701,27.22
13713,22.63
13725,17.97
13737,13.97
13749,11.6
13761,11.89
13773,15.7
13785,23.4
13796,34.65
13807,48.5
13819,63.62
13831,78.64
13843,92.46
13855,104.39
13867,114.15
13879,121.65
13891,126.88
13903,129.8
13915,130.38
13927,128.69
13939,124.97
13951,119.6
13963,113.05
13975,105.73
13986,97.98
13997,90.06
14009,82.22
14021,74.85
14033,68.36
14045,63.13
14057,59.35
14069,56.85
14081,55.1
14093,53.39
14105,51.08
14117,47.79
14129,43.6
14141,38.93
14153,34.32
14165,30.16
14176,26.5
14187,23.05
14199,19.28
14211,14.67
14223,8.88
14235,1.89
14247,-6.12
14259,-14.77
14271,-23.61
14283,-32.21
14295,-40.17
14307,-47.29
14319,-53.57
14331,-59.27
14343,-64.73
14355,-70.17
14366,-75.45
14377,-80.04
14389,-83.13
14401,-83.9
14413,-81.85
14425,-77.01
14437,-69.87
14449,-61.36
14461,-52.6
14473,-44.6
14485,-38.09
14497,-33.35
14509,-30.29
14521,-28.48
14533,-27.38
14545,-26.53
14556,-25.66
14567,-24.67
14579,-23.53
14591,-22.23
14603,-20.76
14615,-19.19
14627,-17.77
14639,-16.76
14651,-16.33
14663,-16.37
14675,-16.44
14687,-15.98
14699,-14.58
14711,-12.18
14723,-9.06
14735,-5.65
14746,-2.25
14757,1.07
14769,4.46
14781,8.08
14793,11.9
14805,15.61
14817,18.79
14829,20.99
14841,21.96
14853,21.59
14865,20.0
14877,17.43
14889,14.23
14901,10.75
14913,7.28
14925,4.04
14936,1.11
14947,-1.55
14959,-4.08
14971,-6.72
14983,-9.8
14995,-13.68
15007,-18.64
15019,-24.74
15031,-31.66
15043,-38.69
15055,-44.86
15067,-49.19
15079,-50.99
15091,-49.96
15103,-46.26
15115,-40.36
15126,-32.89
15137,-24.56
15149,-16.04
15161,-7.91
15173,-0.64
15185,5.48
15197,10.43
15209,14.38
15221,17.65
15233,20.52
15245,23.16
15257,25.52
15269,27.41
15281,28.62
15293,28.99
15305,28.59
15316,27.69
15327,26.64
15339,25.77
15351,25.32
15363,25.34
15375,25.7
15387,26.17
15399,26.47
15411,26.37
15423,25.74
15435,24.64
15447,23.23
15459,21.64
15471,19.9
15483,17.86
15495,15.2
15506,11.6
15517,6.9
15529,1.23
15541,-4.93
15553,-10.87
15565,-15.75
15577,-18.86
15589,-19.84
15601,-18.83
15613,-16.6
15625,-14.37
15637,-13.44
15649,-14.77
15661,-18.53
15673,-23.88
15685,-29.08
15696,-31.89
15707,-30.2
15719,-22.72
15731,-9.46
15743,8.29
15755,28.09
15767,47.07
15779,62.61
15791,72.89
15803,77.24
15815,76.19
15827,71.14
15839,64.02
15851,56.72
15863,50.73
15875,46.83
15886,44.91
15897,44.15
15909,43.36
15921,41.47
15933,38.09
15945,33.73
15957,29.83
15969,28.12
15981,29.89
15993,35.33
16005,43.04
16017,50.37
16029,54.14
16041,51.69
16053,41.62
16065,24.1
16076,0.5
16087,-27.28
16099,-57.37
16111,-88.28
16123,-118.69
16135,-147.23
16147,-172.26
16159,-192.01
16171,-204.95
16183,-210.29
16195,-208.14
16207,-199.46
16219,-185.71
16231,-168.43
16243,-148.96
16255,-128.26
16266,-106.94
16277,-85.38
16289,-63.73
16301,-41.94
16313,-19.65
16325,3.6
16337,28.3
16349,54.57
16361,81.7
16373,108.1
16385,131.39
16397,149.05
16409,159.08
16421,160.63
16433,154.12
16445,140.99
16456,123.18
16467,102.51
16479,80.48
16491,58.21
16503,36.64
16515,16.68
16527,-0.88
16539,-15.53
16551,-27.31
16563,-36.92
16575,-45.71
16587,-55.43
16599,-67.99
16611,-85.07
16623,-107.83
16635,-136.5
16646,-170.28
16657,-207.3
16669,-244.82
16681,-279.69
16693,-308.58
16705,-328.56
16717,-337.42
16729,-334.07
16741,-318.8
16753,-293.33
16765,-260.63
16777,-224.3
16789,-187.88
16801,-154.12
16813,-124.57
16825,-99.61
16836,-78.73
16847,-61.03
16859,-45.54
16871,-31.5
16883,-18.43
16895,-6.28
16907,4.56
16919,13.17
16931,18.37
16943,19.2
16955,15.39
16967,7.77
16979,-1.86
16991,-11.25
17003,-18.44
17015,-22.26
17026,-22.56
17037,-19.94
17049,-15.25
17061,-9.22
17073,-2.31
17085,5.21
17097,13.04
17109,20.84
17121,28.26
17133,35.15
17145,41.52
17157,47.47
17169,53.16
17181,58.64
17193,63.96
17205,69.1
17216,74.0
17227,78.4
17239,81.8
17251,83.68
17263,83.72
17275,81.98
17287,79.03
17299,75.64
17311,72.4
17323,69.5
17335,66.74
17347,63.87
17359,60.93
17371,58.38
17383,56.8
17395,56.5
17406,57.14
17417,57.86
17429,57.68
17441,56.02
17453,53.01
17465,49.41
17477,46.22
17489,44.19
17501,43.47
17513,43.56
17525,43.46
17537,41.98
17549,38.19
17561,31.62
17573,22.56
17585,12.01
17596,1.46
17607,-7.42
17619,-13.29
17631,-15.33
17643,-13.46
17655,-8.26
17667,-0.66
17679,8.13
17691,16.86
17703,24.34
17715,29.58
17727,31.96
17739,31.39
17751,28.23
17763,23.15
17775,16.91
17786,10.1
17797,3.14
17809,-3.6
17821,-9.76
17833,-14.79
17845,-18.07
17857,-19.22
17869,-18.23
17881,-15.62
17893,-12.22
17905,-8.95
17917,-6.66
17929,-5.87
17941,-6.82
17953,-9.4
17965,-13.09
17976,-17.1
17987,-20.52
17999,-22.58
18011,-22.96
18023,-21.83
18035,-19.64
18047,-16.77
18059,-13.13
18071,-8.07
18083,-0.51
18095,10.41
18107,24.68
18119,40.88
18131,56.24
18143,67.39
18155,71.49
18166,67.56
18177,57.01
18189,43.41
18201,31.31
18213,24.75
18225,26.17
18237,36.08
18249,53.45
18261,76.4
18273,102.7
18285,129.87
18297,155.15
18309,175.62
18321,188.67
18333,192.72
18345,187.71
18356,175.08
18367,157.46
18379,138.02
18391,119.71
18403,104.71
18415,94.06
18427,87.54
18439,84.02
18451,81.96
18463,80.18
18475,78.34
18487,77.0
18499,77.21
18511,79.85
18523,85.01
18535,91.89
18546,99.11
18557,105.41
18569,110.19
18581,113.69
18593,116.76
18605,120.32
18617,124.9
18629,130.38
18641,136.09
18653,141.07
18665,144.51
18677,146.0
18689,145.56
18701,143.41
18713,139.73
18725,134.59
18736,128.06
18747,120.43
18759,112.19
18771,103.86
18783,95.52
18795,86.55
18807,75.67
18819,61.54
18831,43.45
18843,21.86
18855,-1.51
18867,-24.22
18879,-43.8
18891,-58.6
18903,-68.1
18915,-72.94
18926,-74.5
18937,-74.35
18949,-73.85
18961,-73.78
18973,-74.35
18985,-75.33
18997,-76.26
19009,-76.63
19021,-76.01
19033,-74.21
19045,-71.46
19057,-68.61
19069,-67.28
19081,-69.42
19093,-76.67
19105,-89.32
19116,-105.85
19127,-123.27
19139,-138.2
19151,-148.34
19163,-153.43
19175,-155.2
19187,-156.27
19199,-158.77
19211,-163.22
19223,-168.28
19235,-171.44
19247,-170.28
19259,-163.55
19271,-151.76
19283,-136.96
19295,-122.06
19306,-109.79
19317,-101.98
19329,-99.23
19341,-100.99
19353,-106.07
19365,-113.18
19377,-121.33
19389,-130.0
19401,-139.06
19413,-148.67
19425,-159.07
19437,-170.36
19449,-182.33
19461,-194.3
19473,-205.2
19485,-213.86
19496,-219.51
19507,-222.25
19519,-223.23
19531,-224.15
19543,-226.51
19555,-230.57
19567,-234.7
19579,-235.47
19591,-228.7
19603,-210.84
19615,-180.33
19627,-138.22
19639,-87.79
19651,-33.46
19663,20.47
19675,70.65
19686,114.93
19697,152.08
19709,181.31
19721,202.1
19733,214.3
19745,218.44
19757,215.67
19769,207.62
19781,195.97
19793,182.11
19805,166.98
19817,151.1
19829,134.64
19841,117.52
19853,99.54
19865,80.57
19876,60.84
19887,40.99
19899,21.92
19911,4.29
19923,-11.99
19935,-27.91
19947,-45.02
19959,-64.6
19971,-86.95
19983,-111.08
19995,-135.24
20007,-157.82
20019,-178.05
20031,-196.0
20043,-212.09
20055,-226.23
20066,-237.41
20077,-243.89
20089,-244.09
20101,-237.4
20113,-224.61
20125,-207.66
20137,-188.85
20149,-170.03
20161,-152.03
20173,-134.7
20185,-117.34
20197,-99.41
20209,-80.87
20221,-62.39
20233,-44.95
20245,-29.36
20256,-15.86
20267,-4.03
20279,6.88
20291,17.4
20303,27.41
20315,36.09
20327,42.32
20339,45.23
20351,44.71
20363,41.49
20375,36.83
20387,31.96
20399,27.59
20411,23.71
20423,19.82
20435,15.26
20446,9.74
20457,3.52
20469,-2.56
20481,-7.36
20493,-9.77
20505,-8.98
20517,-4.72
20529,2.81
20541,13.03
20553,25.13
20565,38.27
20577,51.69
20589,64.67
20601,76.57
20613,86.8
20625,94.9
20636,100.58
20647,103.84
20659,105.01
20671,104.7
20683,103.7
20695,102.71
20707,102.24
20719,102.41
20731,103.01
20743,103.61
20755,103.83
20767,103.44
20779,102.44
20791,100.99
20803,99.23
20815,97.17
20826,94.65
20837,91.43
20849,87.32
20861,82.35
20873,76.84
20885,71.26
20897,66.13
20909,61.75
20921,58.12
20933,54.9
20945,51.48
20957,47.21
20969,41.56
20981,34.25
20993,25.39
