seconds,BVP
3,11.46
15,10.89
27,10.35
39,10.25
51,10.95
63,12.69
75,15.47
87,19.1
99,23.17
111,27.14
123,30.48
135,32.79
146,33.98
157,34.16
169,33.63
181,32.6
193,31.18
205,29.35
217,27.17
229,24.89
241,22.99
253,22.0
265,22.3
277,23.96
289,26.67
301,29.98
313,33.49
325,36.98
336,40.5
347,44.25
359,48.38
371,52.87
383,57.54
395,62.02
407,65.92
419,68.91
431,70.76
443,71.36
455,70.67
467,68.66
479,65.3
491,60.58
503,54.46
515,46.9
526,37.84
537,27.21
549,15.03
561,1.57
573,-12.58
585,-26.54
597,-39.3
609,-50.08
621,-58.52
633,-64.68
645,-68.97
657,-71.83
669,-73.49
681,-73.93
693,-72.9
705,-70.14
716,-65.5
727,-59.1
739,-51.41
751,-43.29
763,-36.04
775,-31.14
787,-29.86
799,-32.76
811,-39.41
823,-48.45
835,-58.07
847,-66.7
859,-73.48
871,-78.36
883,-81.71
895,-83.83
906,-84.65
917,-83.82
929,-81.21
941,-77.34
953,-73.42
965,-70.84
977,-70.42
989,-71.83
1001,-73.64
1013,-73.96
1025,-71.39
1037,-65.79
1049,-58.38
1061,-51.07
1073,-45.54
1085,-42.38
1096,-40.93
1107,-39.77
1119,-37.44
1131,-33.19
1143,-27.15
1155,-20.06
1167,-12.72
1179,-5.54
1191,1.49
1203,8.64
1215,16.04
1227,23.59
1239,30.98
1251,37.97
1263,44.53
1275,50.89
1286,57.35
1297,64.12
1309,71.18
1321,78.38
1333,85.55
1345,92.59
1357,99.44
1369,105.98
1381,111.91
1393,116.75
1405,119.97
1417,121.1
1429,119.9
1441,116.37
1453,110.69
1465,103.1
1476,93.83
1487,83.09
1499,71.08
1511,58.18
1523,44.96
1535,32.1
1547,20.29
1559,9.96
1571,1.22
1583,-6.15
1595,-12.52
1607,-18.23
1619,-23.43
1631,-28.08
1643,-31.94
1655,-34.79
1666,-36.46
1677,-36.95
1689,-36.42
1701,-35.13
1713,-33.42
1725,-31.6
1737,-29.85
1749,-28.24
1761,-26.74
1773,-25.27
1785,-23.79
1797,-22.35
1809,-20.99
1821,-19.77
1833,-18.68
1845,-17.64
1856,-16.5
1867,-15.08
1879,-13.21
1891,-10.79
1903,-7.87
1915,-4.64
1927,-1.43
1939,1.39
1951,3.51
1963,4.78
1975,5.21
1987,4.93
1999,4.05
2011,2.67
2023,0.88
2035,-1.21
2046,-3.41
2057,-5.42
2069,-7.05
2081,-8.15
2093,-8.8
2105,-9.15
2117,-9.39
2129,-9.6
2141,-9.84
2153,-10.11
2165,-10.48
2177,-11.08
2189,-11.98
2201,-13.13
2213,-14.32
2225,-15.26
2236,-15.68
2247,-15.54
2259,-15.02
2271,-14.37
2283,-13.87
2295,-13.62
2307,-13.57
2319,-13.63
2331,-13.73
2343,-13.92
2355,-14.27
2367,-14.79
2379,-15.43
2391,-16.0
2403,-16.3
2415,-16.13
2426,-15.4
2437,-14.12
2449,-12.48
2461,-10.72
2473,-9.13
2485,-7.92
2497,-7.2
2509,-6.92
2521,-6.94
2533,-7.09
2545,-7.27
2557,-7.46
2569,-7.68
2581,-7.94
2593,-8.21
2605,-8.4
2616,-8.46
2627,-8.34
2639,-8.04
2651,-7.53
2663,-6.82
2675,-5.92
2687,-4.86
2699,-3.73
2711,-2.61
2723,-1.59
2735,-0.74
2747,-0.12
2759,0.23
2771,0.32
2783,0.18
2795,-0.07
2806,-0.27
2817,-0.29
2829,-0.05
2841,0.37
2853,0.82
2865,1.12
2877,1.17
2889,1.02
2901,0.76
2913,0.54
2925,0.41
2937,0.3
2949,0.11
2961,-0.23
2973,-0.76
2985,-1.43
2996,-2.17
3007,-2.94
3019,-3.71
3031,-4.43
3043,-4.99
3055,-5.16
3067,-4.67
3079,-3.37
3091,-1.28
3103,1.32
3115,3.98
3127,6.26
3139,7.83
3151,8.67
3163,8.95
3175,8.95
3186,8.92
3197,8.95
3209,9.01
3221,9.0
3233,8.84
3245,8.55
3257,8.2
3269,7.87
3281,7.57
3293,7.25
3305,6.85
3317,6.39
3329,5.92
3341,5.54
3353,5.33
3365,5.25
3376,5.25
3387,5.17
3399,4.91
3411,4.41
3423,3.71
3435,2.91
3447,2.1
3459,1.34
3471,0.64
3483,-0.07
3495,-0.85
3507,-1.72
3519,-2.66
3531,-3.63
3543,-4.56
3555,-5.41
3566,-6.13
3577,-6.67
3589,-7.02
3601,-7.18
3613,-7.23
3625,-7.31
3637,-7.53
3649,-7.96
3661,-8.55
3673,-9.11
3685,-9.39
3697,-9.12
3709,-8.1
3721,-6.25
3733,-3.65
3745,-0.57
3756,2.57
3767,5.33
3779,7.37
3791,8.55
3803,8.99
3815,8.91
3827,8.57
3839,8.1
3851,7.61
3863,7.15
3875,6.82
3887,6.66
3899,6.71
3911,6.85
3923,6.92
3935,6.76
3946,6.31
3957,5.67
3969,4.99
3981,4.4
3993,3.9
4005,3.41
4017,2.81
4029,2.09
4041,1.29
4053,0.56
4065,-0.0
4077,-0.37
4089,-0.62
4101,-0.9
4113,-1.35
4125,-2.05
4136,-2.96
4147,-3.89
4159,-4.64
4171,-5.04
4183,-5.05
4195,-4.78
4207,-4.47
4219,-4.3
4231,-4.4
4243,-4.76
4255,-5.29
4267,-5.89
4279,-6.53
4291,-7.21
4303,-7.95
4315,-8.79
4326,-9.72
4337,-10.69
4349,-11.6
4361,-12.3
4373,-12.57
4385,-12.21
4397,-11.12
4409,-9.36
4421,-7.19
4433,-4.92
4445,-2.77
4457,-0.83
4469,0.94
4481,2.62
4493,4.15
4505,5.36
4516,5.99
4527,5.94
4539,5.29
4551,4.37
4563,3.57
4575,3.13
4587,3.08
4599,3.18
4611,3.17
4623,2.86
4635,2.25
4647,1.53
4659,0.93
4671,0.62
4683,0.56
4695,0.67
4706,0.77
4717,0.8
4729,0.72
4741,0.57
4753,0.34
4765,0.02
4777,-0.42
4789,-0.97
4801,-1.55
4813,-2.08
4825,-2.47
4837,-2.72
4849,-2.94
4861,-3.31
4873,-3.97
4885,-4.99
4896,-6.36
4907,-7.94
4919,-9.55
4931,-11.05
4943,-12.31
4955,-13.31
4967,-14.04
4979,-14.55
4991,-14.86
5003,-14.97
5015,-14.88
5027,-14.53
5039,-13.88
5051,-12.85
5063,-11.36
5075,-9.32
5086,-6.77
5097,-3.81
5109,-0.74
5121,2.09
5133,4.44
5145,6.18
5157,7.43
5169,8.45
5181,9.45
5193,10.52
5205,11.53
5217,12.23
5229,12.47
5241,12.25
5253,11.85
5265,11.69
5276,12.16
5287,13.47
5299,15.54
5311,18.05
5323,20.51
5335,22.39
5347,23.16
5359,22.32
5371,19.5
5383,14.61
5395,7.93
5407,0.2
5419,-7.65
5431,-14.94
5443,-21.59
5455,-28.35
5466,-36.38
5477,-46.58
5489,-58.92
5501,-72.16
5513,-84.27
5525,-93.19
5537,-97.75
5549,-97.95
5561,-94.78
5573,-89.48
5585,-83.04
5597,-75.79
5609,-67.7
5621,-58.72
5633,-49.18
5645,-39.84
5656,-31.56
5667,-24.98
5679,-20.18
5691,-16.7
5703,-13.7
5715,-10.35
5727,-6.11
5739,-0.86
5751,5.04
5763,11.1
5775,16.92
5787,22.31
5799,27.36
5811,32.21
5823,36.97
5835,41.61
5846,46.05
5857,50.2
5869,54.13
5881,57.99
5893,62.07
5905,66.58
5917,71.58
5929,76.92
5941,82.19
5953,86.89
5965,90.5
5977,92.71
5989,93.46
6001,92.92
6013,91.4
6025,89.06
6036,85.94
6047,81.9
6059,76.92
6071,71.21
6083,65.24
6095,59.6
6107,54.66
6119,50.4
6131,46.42
6143,42.22
6155,37.51
6167,32.4
6179,27.29
6191,22.54
6203,18.02
6215,13.03
6226,6.57
6237,-2.18
6249,-13.28
6261,-25.95
6273,-38.86
6285,-50.71
6297,-60.73
6309,-68.84
6321,-75.36
6333,-80.51
6345,-84.15
6357,-85.8
6369,-84.97
6381,-81.58
6393,-76.12
6405,-69.5
6416,-62.66
6427,-56.32
6439,-50.8
6451,-46.12
6463,-42.17
6475,-38.79
6487,-35.83
6499,-33.03
6511,-30.02
6523,-26.44
6535,-22.03
6547,-16.8
6559,-11.02
6571,-5.05
6583,0.84
6595,6.58
6606,12.14
6617,17.36
6629,21.84
6641,25.04
6653,26.5
6665,26.22
6677,24.67
6689,22.65
6701,20.92
6713,19.89
6725,19.48
6737,19.3
6749,18.96
6761,18.25
6773,17.18
6785,15.84
6796,14.25
6807,12.37
6819,10.19
6831,7.9
6843,5.94
6855,4.98
6867,5.75
6879,8.86
6891,14.68
6903,23.18
6915,33.94
6927,46.12
6939,58.61
6951,70.26
6963,80.1
6975,87.56
6986,92.47
6997,94.94
7009,95.18
7021,93.28
7033,89.18
7045,82.85
7057,74.39
7069,64.21
7081,52.98
7093,41.53
7105,30.64
7117,20.81
7129,12.18
7141,4.59
7153,-2.29
7165,-8.83
7176,-15.3
7187,-21.76
7199,-28.1
7211,-34.14
7223,-39.63
7235,-44.38
7247,-48.25
7259,-51.13
7271,-53.02
7283,-54.04
7295,-54.44
7307,-54.56
7319,-54.75
7331,-55.14
7343,-55.63
7355,-55.89
7366,-55.51
7377,-54.17
7389,-51.82
7401,-48.75
7413,-45.49
7425,-42.62
7437,-40.51
7449,-39.18
7461,-38.27
7473,-37.18
7485,-35.33
7497,-32.4
7509,-28.53
7521,-24.2
7533,-20.04
7545,-16.52
7556,-13.75
7567,-11.56
7579,-9.69
7591,-7.99
7603,-6.56
7615,-5.62
7627,-5.27
7639,-5.38
7651,-5.57
7663,-5.39
7675,-4.59
7687,-3.21
7699,-1.5
7711,0.21
7723,1.75
7735,3.11
7746,4.38
7757,5.66
7769,6.97
7781,8.2
7793,9.27
7805,10.14
7817,10.8
7829,11.26
7841,11.53
7853,11.6
7865,11.47
7877,11.17
7889,10.68
7901,9.99
7913,9.05
7925,7.82
7936,6.36
7947,4.83
7959,3.43
7971,2.31
7983,1.5
7995,0.93
8007,0.48
8019,0.05
8031,-0.36
8043,-0.71
8055,-0.95
8067,-1.08
8079,-1.16
8091,-1.2
8103,-1.13
8115,-0.76
8126,0.12
8137,1.62
8149,3.69
8161,6.05
8173,8.3
8185,10.09
8197,11.24
8209,11.73
8221,11.74
8233,11.46
8245,11.05
8257,10.59
8269,10.08
8281,9.53
8293,8.99
8305,8.51
8316,8.1
8327,7.75
8339,7.42
8351,7.04
8363,6.65
8375,6.28
8387,5.95
8399,5.62
8411,5.2
8423,4.59
8435,3.76
8447,2.84
8459,2.01
8471,1.46
8483,1.25
8495,1.31
8506,1.46
8517,1.56
8529,1.61
8541,1.7
8553,1.98
8565,2.44
8577,2.98
8589,3.34
8601,3.32
8613,2.84
8625,1.97
8637,0.9
8649,-0.24
8661,-1.38
8673,-2.6
8685,-3.94
8696,-5.41
8707,-6.83
8719,-7.95
8731,-8.52
8743,-8.38
8755,-7.55
8767,-6.16
8779,-4.43
8791,-2.6
8803,-0.87
8815,0.62
8827,1.79
8839,2.67
8851,3.37
8863,4.02
8875,4.75
8886,5.54
8897,6.24
8909,6.65
8921,6.6
8933,6.1
8945,5.32
8957,4.47
8969,3.74
8981,3.17
8993,2.66
9005,2.11
9017,1.51
9029,0.98
9041,0.72
9053,0.88
9065,1.52
9076,2.47
9087,3.47
9099,4.21
9111,4.44
9123,4.07
9135,3.18
9147,1.98
9159,0.72
9171,-0.41
9183,-1.35
9195,-2.2
9207,-3.06
9219,-3.96
9231,-4.78
9243,-5.31
9255,-5.39
9266,-5.04
9277,-4.52
9289,-4.28
9301,-4.69
9313,-5.88
9325,-7.67
9337,-9.61
9349,-11.17
9361,-11.96
9373,-11.79
9385,-10.77
9397,-9.18
9409,-7.39
9421,-5.72
9433,-4.38
9445,-3.49
9456,-3.02
9467,-2.92
9479,-3.06
9491,-3.31
9503,-3.55
9515,-3.61
9527,-3.33
9539,-2.61
9551,-1.49
9563,-0.14
9575,1.14
9587,2.05
9599,2.44
9611,2.39
9623,2.2
9635,2.21
9646,2.64
9657,3.51
9669,4.6
9681,5.69
9693,6.55
9705,7.11
9717,7.37
9729,7.35
9741,7.0
9753,6.28
9765,5.21
9777,3.87
9789,2.46
9801,1.06
9813,-0.28
9825,-1.66
9836,-3.2
9847,-4.92
9859,-6.72
9871,-8.42
9883,-9.87
9895,-11.03
9907,-12.01
9919,-12.93
9931,-13.86
9943,-14.73
9955,-15.31
9967,-15.36
9979,-14.66
9991,-13.15
10003,-10.89
10015,-8.04
10026,-4.89
10037,-1.81
10049,0.74
10061,2.37
10073,2.86
10085,2.31
10097,1.14
10109,-0.11
10121,-0.99
10133,-1.32
10145,-1.19
10157,-0.8
10169,-0.25
10181,0.62
10193,2.1
10205,4.41
10216,7.57
10227,11.23
10239,14.94
10251,18.29
10263,21.04
10275,23.18
10287,24.77
10299,25.79
10311,26.21
10323,26.05
10335,25.5
10347,24.94
10359,24.75
10371,25.07
10383,25.65
10395,25.87
10406,25.12
10417,23.02
10429,19.69
10441,15.63
10453,11.44
10465,7.52
10477,3.94
10489,0.59
10501,-2.66
10513,-5.62
10525,-7.9
10537,-9.03
10549,-8.74
10561,-7.16
10573,-4.76
10585,-2.19
10596,-0.06
10607,1.28
10619,1.75
10631,1.44
10643,0.47
10655,-1.04
10667,-3.02
10679,-5.38
10691,-7.94
10703,-10.44
10715,-12.55
10727,-14.09
10739,-15.05
10751,-15.65
10763,-16.26
10775,-17.16
10786,-18.42
10797,-19.88
10809,-21.16
10821,-21.97
10833,-22.18
10845,-21.91
10857,-21.52
10869,-21.38
10881,-21.83
10893,-23.03
10905,-24.99
10917,-27.61
10929,-30.62
10941,-33.64
10953,-36.14
10965,-37.62
10976,-37.86
10987,-37.04
10999,-35.72
11011,-34.63
11023,-34.23
11035,-34.41
11047,-34.52
11059,-33.65
11071,-31.09
11083,-26.71
11095,-20.93
11107,-14.56
11119,-8.28
11131,-2.44
11143,3.0
11155,8.31
11166,13.71
11177,19.2
11189,24.6
11201,29.6
11213,33.91
11225,37.37
11237,39.95
11249,41.78
11261,43.0
11273,43.73
11285,43.94
11297,43.56
11309,42.58
11321,41.14
11333,39.6
11345,38.42
11356,37.95
11367,38.33
11379,39.39
11391,40.91
11403,42.72
11415,44.91
11427,47.67
11439,51.13
11451,55.14
11463,59.3
11475,63.04
11487,65.87
11499,67.53
11511,67.98
11523,67.24
11535,65.33
11546,62.21
11557,57.77
11569,51.87
11581,44.28
11593,34.69
11605,22.89
11617,9.13
11629,-5.66
11641,-19.69
11653,-30.84
11665,-37.38
11677,-38.79
11689,-36.1
11701,-31.74
11713,-28.75
11725,-29.9
11736,-36.94
11747,-50.17
11759,-68.45
11771,-89.42
11783,-110.0
11795,-127.12
11807,-138.47
11819,-143.18
11831,-142.09
11843,-137.38
11855,-131.67
11867,-127.06
11879,-124.44
11891,-123.39
11903,-122.63
11915,-120.68
11926,-116.49
11937,-109.66
11949,-100.41
11961,-89.28
11973,-76.94
11985,-63.94
11997,-50.7
12009,-37.62
12021,-25.17
12033,-13.85
12045,-4.21
12057,3.44
12069,9.21
12081,13.75
12093,18.05
12105,23.07
12116,29.25
12127,36.29
12139,43.28
12151,49.16
12163,53.18
12175,55.19
12187,55.59
12199,54.97
12211,53.8
12223,52.17
12235,50.02
12247,47.43
12259,44.82
12271,42.95
12283,42.63
12295,44.27
12306,47.72
12317,52.32
12329,57.24
12341,61.87
12353,65.99
12365,69.61
12377,72.71
12389,75.02
12401,75.93
12413,74.92
12425,71.85
12437,67.17
12449,61.75
12461,56.51
12473,52.0
12485,48.32
12496,45.24
12507,42.45
12519,39.78
12531,37.23
12543,34.79
12555,32.35
12567,29.66
12579,26.44
12591,22.61
12603,18.33
12615,13.95
12627,9.84
12639,6.24
12651,3.1
12663,0.2
12675,-2.82
12686,-6.24
12697,-10.11
12709,-14.19
12721,-18.03
12733,-21.04
12745,-22.83
12757,-23.29
12769,-22.69
12781,-21.56
12793,-20.43
12805,-19.6
12817,-19.05
12829,-18.52
12841,-17.71
12853,-16.47
12865,-14.9
12876,-13.29
12887,-11.96
12899,-11.1
12911,-10.7
12923,-10.62
12935,-10.63
12947,-10.54
12959,-10.24
12971,-9.7
12983,-8.93
12995,-7.97
13007,-6.89
13019,-5.79
13031,-4.82
13043,-4.05
13055,-3.49
13066,-3.05
13077,-2.59
13089,-2.0
13101,-1.25
13113,-0.41
13125,0.39
13137,1.08
13149,1.65
13161,2.13
13173,2.56
13185,2.97
13197,3.41
13209,3.89
13221,4.4
13233,4.88
13245,5.18
13256,5.14
13267,4.7
13279,3.97
13291,3.24
13303,2.78
13315,2.71
13327,2.91
13339,3.04
13351,2.8
13363,2.12
13375,1.24
13387,0.52
13399,0.27
13411,0.55
13423,1.11
13435,1.61
13446,1.77
13457,1.53
13469,1.06
13481,0.54
13493,0.06
13505,-0.51
13517,-1.36
13529,-2.61
13541,-4.14
13553,-5.61
13565,-6.59
13577,-6.82
13589,-6.35
13601,-5.47
13613,-4.56
13625,-3.85
13636,-3.36
13647,-2.92
13659,-2.3
13671,-1.38
13683,-0.15
13695,1.29
13707,2.86
13719,4.5
13731,6.16
13743,7.73
13755,9.05
13767,9.89
13779,10.1
13791,9.7
13803,8.85
13815,7.79
13826,6.72
13837,5.7
13849,4.68
13861,3.59
13873,2.43
13885,1.35
13897,0.54
13909,0.12
13921,-0.02
13933,-0.16
13945,-0.6
13957,-1.51
13969,-2.77
13981,-4.06
13993,-4.99
14005,-5.44
14016,-5.54
14027,-5.63
14039,-6.02
14051,-6.77
14063,-7.7
14075,-8.52
14087,-9.04
14099,-9.3
14111,-9.53
14123,-9.94
14135,-10.58
14147,-11.22
14159,-11.52
14171,-11.23
14183,-10.36
14195,-9.19
14206,-8.12
14217,-7.41
14229,-7.0
14241,-6.52
14253,-5.41
14265,-3.24
14277,0.11
14289,4.33
14301,8.86
14313,13.06
14325,16.44
14337,18.8
14349,20.17
14361,20.69
14373,20.47
14385,19.62
14396,18.28
14407,16.71
14419,15.32
14431,14.38
14443,13.83
14455,13.12
14467,11.39
14479,7.92
14491,2.6
14503,-3.85
14515,-10.26
14527,-15.57
14539,-19.44
14551,-22.31
14563,-25.0
14575,-28.12
14586,-31.52
14597,-34.52
14609,-36.3
14621,-36.5
14633,-35.49
14645,-34.04
14657,-32.91
14669,-32.32
14681,-31.98
14693,-31.33
14705,-29.96
14717,-27.87
14729,-25.43
14741,-23.14
14753,-21.36
14765,-20.17
14776,-19.36
14787,-18.55
14799,-17.36
14811,-15.54
14823,-13.08
14835,-10.21
14847,-7.31
14859,-4.74
14871,-2.75
14883,-1.39
14895,-0.53
14907,0.09
14919,0.68
14931,1.41
14943,2.33
14955,3.52
14966,5.18
14977,7.65
14989,11.25
15001,16.15
15013,22.21
15025,28.93
15037,35.59
15049,41.5
15061,46.18
15073,49.46
15085,51.32
15097,51.8
15109,50.85
15121,48.39
15133,44.5
15145,39.5
15156,33.87
15167,28.16
15179,22.73
15191,17.66
15203,12.81
15215,7.99
15227,3.13
15239,-1.62
15251,-5.91
15263,-9.38
15275,-11.83
15287,-13.33
15299,-14.27
15311,-15.19
15323,-16.54
15335,-18.52
15346,-20.93
15357,-23.31
15369,-25.1
15381,-25.92
15393,-25.64
15405,-24.38
15417,-22.41
15429,-19.95
15441,-17.21
15453,-14.39
15465,-11.67
15477,-9.24
15489,-7.19
15501,-5.48
15513,-3.88
15525,-2.18
15536,-0.26
15547,1.83
15559,3.87
15571,5.62
15583,6.96
15595,7.88
15607,8.5
15619,8.94
15631,9.31
15643,9.68
15655,10.06
15667,10.43
15679,10.68
15691,10.62
15703,10.07
15715,8.94
15726,7.34
15737,5.53
15749,3.88
15761,2.58
15773,1.67
15785,0.93
15797,0.11
15809,-0.94
15821,-2.22
15833,-3.58
15845,-4.91
15857,-6.2
15869,-7.53
15881,-9.0
15893,-10.53
15905,-11.93
15916,-12.95
15927,-13.46
15939,-13.5
15951,-13.25
15963,-12.85
15975,-12.33
15987,-11.54
15999,-10.26
16011,-8.37
16023,-5.84
16035,-2.89
16047,0.2
16059,3.16
16071,5.75
16083,7.8
16095,9.18
16106,9.89
16117,10.03
16129,9.83
16141,9.56
16153,9.45
16165,9.58
16177,9.91
16189,10.29
16201,10.52
16213,10.41
16225,9.82
16237,8.73
16249,7.22
16261,5.56
16273,4.14
16285,3.33
16296,3.35
16307,4.14
16319,5.35
16331,6.46
16343,7.01
16355,6.73
16367,5.65
16379,4.03
16391,2.21
16403,0.51
16415,-0.93
16427,-2.05
16439,-2.91
16451,-3.52
16463,-3.89
16475,-4.07
16486,-4.18
16497,-4.41
16509,-4.99
16521,-6.07
16533,-7.56
16545,-9.12
16557,-10.27
16569,-10.53
16581,-9.69
16593,-7.86
16605,-5.42
16617,-2.86
16629,-0.55
16641,1.37
16653,2.94
16665,4.31
16676,5.57
16687,6.63
16699,7.26
16711,7.21
16723,6.39
16735,4.92
16747,3.18
16759,1.62
16771,0.56
16783,0.08
16795,0.03
16807,0.15
16819,0.29
16831,0.47
16843,0.85
16855,1.53
16866,2.44
16877,3.3
16889,3.75
16901,3.61
16913,2.99
16925,2.26
16937,1.81
16949,1.8
16961,2.01
16973,1.93
16985,1.1
16997,-0.63
17009,-2.96
17021,-5.31
17033,-7.13
17045,-8.19
17056,-8.72
17067,-9.21
17079,-10.07
17091,-11.4
17103,-12.92
17115,-14.14
17127,-14.63
17139,-14.17
17151,-12.82
17163,-10.78
17175,-8.29
17187,-5.57
17199,-2.83
17211,-0.29
17223,1.85
17235,3.47
17246,4.6
17257,5.41
17269,6.14
17281,6.93
17293,7.78
17305,8.51
17317,8.93
17329,8.97
17341,8.76
17353,8.6
17365,8.76
17377,9.36
17389,10.22
17401,11.02
17413,11.41
17425,11.33
17436,10.92
17447,10.47
17459,10.17
17471,9.97
17483,9.6
17495,8.79
17507,7.45
17519,5.76
17531,4.15
17543,2.99
17555,2.46
17567,2.45
17579,2.73
17591,3.12
17603,3.54
17615,4.1
17626,4.9
17637,5.95
17649,7.16
17661,8.33
17673,9.41
17685,10.5
17697,11.99
17709,14.35
17721,17.98
17733,22.97
17745,29.1
17757,35.89
17769,42.92
17781,50.05
17793,57.45
17805,65.52
17816,74.41
17827,83.77
17839,92.73
17851,100.15
17863,105.28
17875,108.09
17887,109.32
17899,110.02
17911,110.99
17923,112.37
17935,113.68
17947,114.21
17959,113.54
17971,111.72
17983,109.19
17995,106.31
18006,102.97
18017,98.57
18029,92.21
18041,83.27
18053,71.72
18065,58.27
18077,44.05
18089,30.24
18101,17.62
18113,6.42
18125,-3.51
18137,-12.39
18149,-20.23
18161,-26.81
18173,-31.97
18185,-35.81
18196,-38.82
18207,-41.68
18219,-44.84
18231,-48.15
18243,-50.9
18255,-52.19
18267,-51.56
18279,-49.26
18291,-46.21
18303,-43.51
18315,-41.99
18327,-41.99
18339,-43.45
18351,-46.13
18363,-49.77
18375,-54.13
18386,-58.9
18397,-63.66
18409,-67.96
18421,-71.39
18433,-73.65
18445,-74.57
18457,-74.06
18469,-72.13
18481,-68.95
18493,-65.04
18505,-61.14
18517,-58.02
18529,-56.11
18541,-55.3
18553,-55.05
18565,-54.71
18576,-53.81
18587,-52.28
18599,-50.34
18611,-48.34
18623,-46.6
18635,-45.32
18647,-44.59
18659,-44.43
18671,-44.74
18683,-45.27
18695,-45.63
18707,-45.38
18719,-44.25
18731,-42.21
18743,-39.55
18755,-36.76
18766,-34.35
18777,-32.71
18789,-32.05
18801,-32.36
18813,-33.48
18825,-35.12
18837,-36.87
18849,-38.26
18861,-38.88
18873,-38.42
18885,-36.81
18897,-34.17
18909,-30.78
18921,-26.99
18933,-23.17
18945,-19.67
18956,-16.79
18967,-14.71
18979,-13.46
18991,-12.85
19003,-12.61
19015,-12.38
19027,-11.88
19039,-10.95
19051,-9.58
19063,-7.9
19075,-6.09
19087,-4.41
19099,-3.08
19111,-2.26
19123,-2.0
19135,-2.13
19146,-2.39
19157,-2.48
19169,-2.2
19181,-1.52
19193,-0.62
19205,0.27
19217,0.93
19229,1.31
19241,1.42
19253,1.36
19265,1.15
19277,0.78
19289,0.24
19301,-0.43
19313,-1.1
19325,-1.6
19336,-1.8
19347,-1.72
19359,-1.51
19371,-1.42
19383,-1.7
19395,-2.46
19407,-3.75
19419,-5.44
19431,-7.36
19443,-9.26
19455,-10.91
19467,-12.1
19479,-12.69
19491,-12.66
19503,-12.03
19515,-10.86
19526,-9.19
19537,-7.09
19549,-4.68
19561,-2.18
19573,0.13
19585,2.01
19597,3.33
19609,4.21
19621,4.88
19633,5.61
19645,6.48
19657,7.43
19669,8.23
19681,8.66
19693,8.59
19705,8.1
19716,7.36
19727,6.59
19739,6.0
19751,5.71
19763,5.74
19775,6.02
19787,6.43
19799,6.83
19811,7.07
19823,7.04
19835,6.67
19847,5.95
19859,4.9
19871,3.58
19883,2.11
19895,0.64
19906,-0.67
19917,-1.7
19929,-2.46
19941,-3.08
19953,-3.76
19965,-4.75
19977,-6.14
19989,-7.89
20001,-9.76
20013,-11.5
20025,-12.93
20037,-14.05
20049,-14.98
20061,-15.86
20073,-16.76
20085,-17.56
20096,-18.01
20107,-17.85
20119,-16.95
20131,-15.33
20143,-13.22
20155,-10.86
20167,-8.49
20179,-6.24
20191,-4.18
20203,-2.35
20215,-0.81
20227,0.37
20239,1.09
20251,1.3
20263,1.03
20275,0.39
20286,-0.39
20297,-1.05
20309,-1.36
20321,-1.19
20333,-0.59
20345,0.26
20357,1.08
20369,1.64
20381,1.83
20393,1.71
20405,1.41
20417,1.09
20429,0.83
20441,0.62
20453,0.36
20465,-0.06
20476,-0.75
20487,-1.71
20499,-2.89
20511,-4.15
20523,-5.34
20535,-6.32
20547,-7.05
20559,-7.6
20571,-8.12
20583,-8.84
20595,-9.9
20607,-11.28
20619,-12.79
20631,-14.09
20643,-14.81
20655,-14.67
20666,-13.51
20677,-11.37
20689,-8.46
20701,-5.08
20713,-1.58
20725,1.76
20737,4.69
20749,7.09
20761,8.92
20773,10.22
20785,11.03
20797,11.4
20809,11.45
20821,11.31
20833,11.17
20845,11.21
20856,11.48
20867,11.91
20879,12.32
20891,12.51
20903,12.37
20915,12.0
20927,11.53
20939,11.13
20951,10.85
20963,10.57
20975,10.09
20987,9.19
20999,7.8
