seconds,BVP
0,-109.34
12,-102.8
24,-96.55
36,-90.06
48,-83.19
60,-76.59
72,-71.29
84,-68.04
96,-66.62
108,-65.74
120,-63.41
132,-57.67
144,-47.58
155,-33.58
166,-17.37
178,-1.16
190,13.32
202,25.33
214,35.14
226,43.44
238,50.55
250,56.1
262,59.18
274,59.0
286,55.53
298,49.71
310,43.07
322,37.14
334,32.9
345,30.52
356,29.56
368,29.31
380,29.18
392,28.91
404,28.64
416,28.85
428,30.17
440,33.18
452,38.08
464,44.48
476,51.32
488,57.12
500,60.45
512,60.49
524,57.44
535,52.54
546,47.6
558,44.31
570,43.55
582,45.0
594,47.46
606,49.47
618,50.2
630,49.79
642,49.35
654,50.33
666,53.89
678,60.36
690,69.21
702,79.11
714,88.21
725,94.31
736,95.35
748,89.98
760,78.23
772,61.54
784,42.18
796,22.09
808,2.12
820,-17.96
832,-38.43
844,-58.35
856,-75.01
868,-84.72
880,-84.53
892,-74.21
904,-56.98
915,-38.86
926,-26.83
938,-26.97
950,-43.12
962,-76.15
974,-123.53
986,-179.29
998,-234.77
1010,-280.03
1022,-306.4
1034,-309.08
1046,-288.79
1058,-251.44
1070,-205.9
1082,-160.72
1094,-121.5
1105,-89.82
1116,-64.19
1128,-42.57
1140,-24.63
1152,-12.93
1164,-12.0
1176,-25.75
1188,-54.27
1200,-91.87
1212,-127.96
1224,-150.81
1236,-152.79
1248,-133.97
1260,-101.95
1272,-67.65
1284,-39.6
1295,-20.0
1306,-4.89
1318,11.93
1330,33.85
1342,58.74
1354,80.22
1366,91.86
1378,91.22
1390,81.21
1402,68.21
1414,58.14
1426,53.57
1438,53.2
1450,53.64
1462,52.17
1474,48.39
1485,44.28
1496,43.06
1508,47.75
1520,59.62
1532,77.8
1544,99.52
1556,121.11
1568,139.11
1580,151.44
1592,157.86
1604,159.5
1616,158.65
1628,157.27
1640,156.45
1652,156.45
1664,157.2
1675,158.76
1686,161.5
1698,165.47
1710,169.3
1722,170.7
1734,166.42
1746,154.14
1758,134.1
1770,109.85
1782,86.95
1794,70.99
1806,64.96
1818,63.91
1830,61.43
1842,51.08
1854,30.21
1865,1.4
1876,-29.08
1888,-54.62
1900,-70.29
1912,-73.88
1924,-66.92
1936,-52.57
1948,-35.69
1960,-21.61
1972,-16.28
1984,-21.51
1996,-36.9
2008,-59.47
2020,-84.11
2032,-106.24
2044,-122.04
2055,-130.41
2066,-133.03
2078,-133.77
2090,-137.2
2102,-147.37
2114,-166.68
2126,-189.19
2138,-208.95
2150,-218.6
2162,-212.16
2174,-187.58
2186,-148.23
2198,-102.07
2210,-59.24
2222,-28.11
2234,-12.32
2245,-10.85
2256,-18.03
2268,-26.5
2280,-29.91
2292,-24.6
2304,-10.01
2316,11.51
2328,35.99
2340,58.92
2352,75.56
2364,82.76
2376,79.25
2388,65.62
2400,44.14
2412,18.33
2424,-7.83
2435,-30.45
2446,-46.32
2458,-53.99
2470,-53.5
2482,-46.51
2494,-35.83
2506,-24.58
2518,-15.29
2530,-9.24
2542,-6.31
2554,-5.31
2566,-5.01
2578,-4.6
2590,-4.13
2602,-4.41
2614,-6.48
2625,-11.05
2636,-18.21
2648,-27.38
2660,-37.51
2672,-47.48
2684,-56.22
2696,-62.97
2708,-67.24
2720,-68.71
2732,-67.06
2744,-61.81
2756,-52.45
2768,-38.66
2780,-20.72
2792,0.29
2804,22.57
2815,44.07
2826,62.95
2838,77.96
2850,88.61
2862,94.93
2874,97.34
2886,96.29
2898,92.34
2910,86.07
2922,78.2
2934,69.57
2946,61.06
2958,53.43
2970,47.22
2982,42.66
2994,39.76
3005,38.49
3016,38.77
3028,40.57
3040,43.71
3052,47.79
3064,52.08
3076,55.69
3088,57.86
3100,58.18
3112,56.77
3124,54.14
3136,50.9
3148,47.47
3160,43.79
3172,39.45
3184,33.93
3195,26.94
3206,18.68
3218,9.79
3230,1.12
3242,-6.62
3254,-13.12
3266,-18.56
3278,-23.44
3290,-28.43
3302,-34.05
3314,-40.44
3326,-47.18
3338,-53.23
3350,-57.13
3362,-57.32
3374,-52.63
3385,-42.71
3396,-28.28
3408,-10.98
3420,7.01
3432,23.55
3444,37.1
3456,46.87
3468,52.79
3480,55.19
3492,54.47
3504,50.95
3516,44.85
3528,36.55
3540,26.65
3552,16.08
3564,5.89
3575,-3.06
3586,-10.28
3598,-15.86
3610,-20.21
3622,-23.82
3634,-26.91
3646,-29.4
3658,-31.0
3670,-31.49
3682,-30.9
3694,-29.47
3706,-27.44
3718,-24.79
3730,-21.3
3742,-16.67
3754,-10.94
3765,-4.61
3776,1.51
3788,6.65
3800,10.33
3812,12.44
3824,12.79
3836,10.83
3848,5.57
3860,-3.87
3872,-17.46
3884,-33.61
3896,-49.31
3908,-60.96
3920,-65.63
3932,-62.16
3944,-51.41
3955,-35.79
3966,-18.3
3978,-1.55
3990,12.82
4002,24.31
4014,33.33
4026,40.89
4038,48.08
4050,55.62
4062,63.55
4074,71.11
4086,76.99
4098,79.78
4110,78.56
4122,73.21
4134,64.52
4145,53.83
4156,42.67
4168,32.41
4180,23.92
4192,17.67
4204,13.71
4216,11.73
4228,11.21
4240,11.38
4252,11.36
4264,10.21
4276,7.17
4288,1.83
4300,-5.54
4312,-14.0
4324,-22.04
4335,-28.09
4346,-31.2
4358,-31.48
4370,-30.3
4382,-29.75
4394,-31.79
4406,-37.3
4418,-45.6
4430,-54.63
4442,-61.74
4454,-64.72
4466,-62.48
4478,-55.29
4490,-44.31
4502,-31.06
4514,-16.91
4525,-3.01
4536,9.62
4548,19.94
4560,27.02
4572,30.29
4584,29.82
4596,26.36
4608,21.09
4620,15.28
4632,9.91
4644,5.61
4656,2.64
4668,0.96
4680,0.26
4692,0.09
4704,-0.04
4715,-0.46
4726,-1.15
4738,-1.81
4750,-1.99
4762,-1.47
4774,-0.39
4786,0.69
4798,1.15
4810,0.61
4822,-0.8
4834,-2.4
4846,-3.29
4858,-2.76
4870,-0.66
4882,2.41
4894,5.19
4905,6.18
4916,4.21
4928,-0.99
4940,-8.63
4952,-16.98
4964,-24.02
4976,-28.11
4988,-28.48
5000,-25.33
5012,-19.51
5024,-12.07
5036,-4.02
5048,3.79
5060,10.6
5072,15.64
5084,18.4
5095,18.75
5106,17.1
5118,14.34
5130,11.43
5142,9.08
5154,7.58
5166,6.82
5178,6.49
5190,6.28
5202,5.95
5214,5.3
5226,4.17
5238,2.45
5250,0.19
5262,-2.29
5274,-4.47
5285,-5.76
5296,-5.83
5308,-4.7
5320,-2.85
5332,-0.94
5344,0.36
5356,0.73
5368,0.18
5380,-1.02
5392,-2.68
5404,-4.94
5416,-8.45
5428,-14.07
5440,-22.44
5452,-33.34
5464,-45.39
5475,-56.15
5486,-62.89
5498,-63.38
5510,-56.8
5522,-43.95
5534,-27.02
5546,-8.78
5558,8.19
5570,22.11
5582,32.23
5594,38.67
5606,42.11
5618,43.48
5630,43.73
5642,43.61
5654,43.63
5665,43.87
5676,44.13
5688,43.98
5700,42.93
5712,40.64
5724,36.98
5736,32.05
5748,26.18
5760,19.85
5772,13.6
5784,7.93
5796,3.11
5808,-0.82
5820,-3.98
5832,-6.47
5844,-8.22
5855,-8.93
5866,-8.25
5878,-6.21
5890,-3.36
5902,-0.85
5914,-0.06
5926,-2.16
5938,-7.6
5950,-15.89
5962,-25.68
5974,-35.08
5986,-42.1
5998,-45.09
6010,-43.13
6022,-36.23
6034,-25.3
6045,-11.95
6056,1.88
6068,14.42
6080,24.38
6092,31.11
6104,34.54
6116,35.0
6128,33.09
6140,29.56
6152,25.17
6164,20.7
6176,16.79
6188,13.84
6200,11.97
6212,11.1
6224,11.03
6235,11.58
6246,12.61
6258,13.98
6270,15.54
6282,17.1
6294,18.46
6306,19.47
6318,20.02
6330,19.97
6342,19.16
6354,17.49
6366,15.0
6378,11.96
6390,8.85
6402,6.03
6414,3.6
6425,1.31
6436,-1.27
6448,-4.33
6460,-7.53
6472,-10.01
6484,-10.85
6496,-9.48
6508,-6.07
6520,-1.4
6532,3.44
6544,7.5
6556,10.21
6568,11.36
6580,10.94
6592,9.12
6604,6.13
6615,2.3
6626,-2.01
6638,-6.61
6650,-11.47
6662,-16.73
6674,-22.42
6686,-28.34
6698,-33.94
6710,-38.54
6722,-41.56
6734,-42.75
6746,-42.2
6758,-40.31
6770,-37.6
6782,-34.76
6794,-32.48
6805,-31.4
6816,-31.84
6828,-33.68
6840,-36.4
6852,-39.36
6864,-42.23
6876,-45.21
6888,-49.01
6900,-54.44
6912,-61.84
6924,-70.71
6936,-79.67
6948,-86.88
6960,-90.7
6972,-90.13
6984,-85.03
6995,-75.9
7006,-63.59
7018,-48.95
7030,-32.74
7042,-15.7
7054,1.32
7066,17.36
7078,31.49
7090,43.08
7102,52.04
7114,58.85
7126,64.34
7138,69.29
7150,74.05
7162,78.49
7174,82.19
7185,84.9
7196,86.99
7208,89.47
7220,93.64
7232,100.3
7244,109.02
7256,118.0
7268,124.6
7280,126.47
7292,122.73
7304,114.34
7316,103.74
7328,93.62
7340,85.76
7352,80.33
7364,76.14
7375,71.47
7386,64.97
7398,56.17
7410,45.43
7422,33.62
7434,21.68
7446,10.47
7458,0.72
7470,-6.99
7482,-12.26
7494,-15.05
7506,-15.71
7518,-14.92
7530,-13.48
7542,-12.09
7554,-11.14
7565,-10.8
7576,-11.01
7588,-11.66
7600,-12.63
7612,-13.87
7624,-15.36
7636,-17.14
7648,-19.24
7660,-21.6
7672,-24.01
7684,-26.17
7696,-27.73
7708,-28.38
7720,-27.98
7732,-26.57
7744,-24.33
7755,-21.6
7766,-18.79
7778,-16.39
7790,-14.8
7802,-14.28
7814,-14.77
7826,-15.93
7838,-17.29
7850,-18.57
7862,-19.87
7874,-21.72
7886,-24.81
7898,-29.59
7910,-35.84
7922,-42.52
7934,-47.98
7945,-50.47
7956,-48.76
7968,-42.57
7980,-32.63
7992,-20.41
8004,-7.63
8016,4.22
8028,14.17
8040,21.77
8052,27.06
8064,30.34
8076,32.02
8088,32.58
8100,32.42
8112,31.82
8124,30.94
8135,29.76
8146,28.26
8158,26.44
8170,24.39
8182,22.3
8194,20.36
8206,18.64
8218,17.12
8230,15.66
8242,14.1
8254,12.31
8266,10.35
8278,8.44
8290,6.93
8302,6.15
8314,6.24
8325,7.06
8336,8.09
8348,8.56
8360,7.58
8372,4.36
8384,-1.65
8396,-10.54
8408,-21.75
8420,-34.05
8432,-45.63
8444,-54.44
8456,-58.78
8468,-57.76
8480,-51.65
8492,-41.76
8504,-29.96
8515,-18.15
8526,-7.74
8538,0.51
8550,6.45
8562,10.25
8574,12.21
8586,12.58
8598,11.59
8610,9.51
8622,6.68
8634,3.51
8646,0.45
8658,-2.17
8670,-4.15
8682,-5.5
8694,-6.36
8705,-6.92
8716,-7.35
8728,-7.73
8740,-8.08
8752,-8.35
8764,-8.6
8776,-8.96
8788,-9.58
8800,-10.57
8812,-11.92
8824,-13.44
8836,-14.95
8848,-16.37
8860,-17.84
8872,-19.73
8884,-22.4
8895,-26.0
8906,-30.22
8918,-34.2
8930,-36.79
8942,-36.88
8954,-33.8
8966,-27.58
8978,-18.93
8990,-9.01
9002,0.89
9014,9.65
9026,16.52
9038,21.2
9050,23.72
9062,24.38
9074,23.54
9085,21.55
9096,18.64
9108,14.93
9120,10.5
9132,5.55
9144,0.51
9156,-3.95
9168,-7.02
9180,-8.08
9192,-6.88
9204,-3.65
9216,0.97
9228,6.12
9240,10.97
9252,14.87
9264,17.43
9275,18.51
9286,18.15
9298,16.56
9310,14.04
9322,10.9
9334,7.43
9346,3.81
9358,0.11
9370,-3.66
9382,-7.47
9394,-11.17
9406,-14.36
9418,-16.4
9430,-16.5
9442,-13.88
9454,-8.14
9465,0.46
9476,10.94
9488,21.73
9500,31.09
9512,37.58
9524,40.46
9536,39.75
9548,36.17
9560,30.75
9572,24.54
9584,18.44
9596,13.13
9608,9.12
9620,6.83
9632,6.55
9644,8.35
9655,11.96
9666,16.79
9678,22.02
9690,26.77
9702,30.35
9714,32.3
9726,32.37
9738,30.42
9750,26.35
9762,20.07
9774,11.72
9786,1.8
9798,-8.79
9810,-18.86
9822,-27.25
9834,-33.11
9845,-36.17
9856,-36.73
9868,-35.49
9880,-33.25
9892,-30.7
9904,-28.21
9916,-25.73
9928,-22.93
9940,-19.3
9952,-14.39
9964,-8.02
9976,-0.34
9988,8.09
10000,16.53
10012,24.21
10024,30.52
10035,35.05
10046,37.66
10058,38.42
10070,37.64
10082,35.8
10094,33.46
10106,31.17
10118,29.29
10130,27.89
10142,26.76
10154,25.53
10166,23.85
10178,21.5
10190,18.47
10202,14.99
10214,11.53
10225,8.7
10236,7.11
10248,7.12
10260,8.65
10272,11.1
10284,13.41
10296,14.44
10308,13.31
10320,9.69
10332,3.9
10344,-3.31
10356,-10.99
10368,-18.28
10380,-24.59
10392,-29.62
10404,-33.28
10415,-35.74
10426,-37.28
10438,-38.32
10450,-39.33
10462,-40.74
10474,-42.81
10486,-45.54
10498,-48.58
10510,-51.31
10522,-52.88
10534,-52.51
10546,-49.67
10558,-44.21
10570,-36.62
10582,-28.06
10594,-20.06
10605,-14.08
10616,-10.94
10628,-10.49
10640,-11.59
10652,-12.45
10664,-11.13
10676,-6.35
10688,2.01
10700,12.76
10712,23.96
10724,33.6
10736,40.29
10748,43.66
10760,44.52
10772,45.19
10784,48.73
10795,57.91
10806,73.92
10818,95.52
10830,118.87
10842,138.38
10854,148.45
10866,145.53
10878,130.24
10890,106.19
10902,77.86
10914,48.56
10926,19.64
10938,-8.88
10950,-37.16
10962,-64.48
10974,-89.04
10985,-106.99
10996,-115.62
11008,-115.14
11020,-108.59
11032,-99.73
11044,-90.75
11056,-81.67
11068,-71.0
11080,-57.08
11092,-36.46
11104,-7.91
11116,26.03
11128,59.33
11140,85.35
11152,100.07
11164,103.36
11175,98.64
11186,91.78
11198,93.16
11210,111.79
11222,151.31
11234,208.39
11246,274.51
11258,339.45
11270,393.56
11282,429.27
11294,420.32
11306,353.44
11318,237.66
11330,102.88
11342,-18.85
11354,-109.62
11365,-167.13
11376,-197.96
11388,-211.08
11400,-214.3
11412,-209.65
11424,-197.79
11436,-180.72
11448,-162.51
11460,-147.36
11472,-137.16
11484,-131.59
11496,-129.23
11508,-128.77
11520,-126.6
11532,-120.15
11544,-109.84
11555,-97.91
11566,-87.22
11578,-78.8
11590,-71.8
11602,-64.38
11614,-55.3
11626,-43.01
11638,-27.68
11650,-11.48
11662,2.44
11674,11.7
11686,16.22
11698,17.57
11710,17.9
11722,18.62
11734,20.81
11745,24.47
11756,28.6
11768,31.63
11780,31.93
11792,30.07
11804,26.53
11816,21.9
11828,16.64
11840,11.33
11852,6.49
11864,2.48
11876,-0.56
11888,-2.78
11900,-4.45
11912,-6.14
11924,-8.2
11935,-10.66
11946,-13.17
11958,-15.13
11970,-16.01
11982,-15.51
11994,-13.71
12006,-10.95
12018,-7.93
12030,-5.31
12042,-3.7
12054,-3.45
12066,-4.55
12078,-6.52
12090,-8.47
12102,-9.31
12114,-8.0
12125,-3.94
12136,2.91
12148,11.91
12160,21.73
12172,30.64
12184,37.05
12196,40.16
12208,40.42
12220,39.59
12232,40.2
12244,44.72
12256,54.63
12268,69.78
12280,88.28
12292,106.97
12304,122.12
12315,130.48
12326,130.02
12338,120.46
12350,103.13
12362,80.3
12374,54.11
12386,25.68
12398,-4.97
12410,-38.3
12422,-74.24
12434,-111.56
12446,-148.0
12458,-180.84
12470,-207.94
12482,-228.07
12494,-240.89
12505,-246.69
12516,-245.99
12528,-239.68
12540,-228.99
12552,-215.35
12564,-200.03
12576,-183.79
12588,-166.97
12600,-149.76
12612,-132.73
12624,-116.61
12636,-101.79
12648,-87.85
12660,-73.51
12672,-57.44
12684,-39.0
12695,-18.35
12706,4.31
12718,29.3
12730,57.63
12742,89.6
12754,123.02
12766,152.58
12778,171.05
12790,172.52
12802,155.46
12814,123.79
12826,85.39
12838,49.47
12850,24.11
12862,15.04
12874,25.16
12885,54.22
12896,98.14
12908,148.46
12920,193.56
12932,221.59
12944,224.27
12956,199.4
12968,151.01
12980,87.51
12992,18.88
13004,-45.2
13016,-96.64
13028,-129.72
13040,-142.08
13052,-135.73
13064,-117.19
13075,-95.53
13086,-78.75
13098,-70.98
13110,-71.0
13122,-74.11
13134,-75.46
13146,-72.75
13158,-67.11
13170,-61.64
13182,-58.84
13194,-58.9
13206,-59.75
13218,-58.65
13230,-54.29
13242,-47.82
13254,-42.53
13265,-42.1
13276,-48.49
13288,-60.81
13300,-75.6
13312,-88.62
13324,-96.8
13336,-99.46
13348,-98.18
13360,-95.54
13372,-93.66
13384,-93.18
13396,-93.53
13408,-93.62
13420,-92.89
13432,-91.7
13444,-91.05
13455,-92.01
13466,-94.92
13478,-99.29
13490,-103.96
13502,-107.63
13514,-109.32
13526,-108.57
13538,-105.31
13550,-99.71
13562,-91.88
13574,-81.87
13586,-69.89
13598,-56.43
13610,-42.35
13622,-28.74
13634,-16.68
13645,-6.87
13656,0.45
13668,5.34
13680,7.92
13692,8.1
13704,5.6
13716,0.04
13728,-8.72
13740,-20.38
13752,-33.99
13764,-48.14
13776,-61.1
13788,-71.31
13800,-77.77
13812,-80.46
13824,-80.32
13835,-78.87
13846,-77.45
13858,-76.49
13870,-75.35
13882,-72.77
13894,-67.72
13906,-59.96
13918,-50.03
13930,-38.55
13942,-25.52
13954,-10.13
13966,8.7
13978,31.27
13990,56.55
14002,82.33
14014,106.22
14025,126.81
14036,144.11
14048,159.11
14060,172.7
14072,184.76
14084,194.05
14096,198.81
14108,197.79
14120,190.95
14132,179.56
14144,165.55
14156,150.89
14168,136.98
14180,124.53
14192,113.74
14204,104.4
14215,96.0
14226,87.79
14238,78.93
14250,68.85
14262,57.54
14274,45.72
14286,34.61
14298,25.39
14310,18.69
14322,14.48
14334,12.31
14346,11.76
14358,12.77
14370,15.55
14382,20.06
14394,25.68
14405,31.15
14416,35.19
14428,37.12
14440,37.41
14452,37.37
14464,38.47
14476,41.43
14488,45.91
14500,50.84
14512,55.19
14524,58.55
14536,61.28
14548,64.0
14560,67.07
14572,70.35
14584,73.37
14595,75.87
14606,78.08
14618,80.61
14630,84.19
14642,89.07
14654,94.93
14666,101.02
14678,106.73
14690,111.84
14702,116.69
14714,121.86
14726,127.59
14738,133.66
14750,139.01
14762,142.09
14774,141.35
14785,135.78
14796,125.11
14808,109.7
14820,90.21
14832,67.18
14844,41.64
14856,15.08
14868,-10.24
14880,-31.72
14892,-47.36
14904,-56.68
14916,-61.06
14928,-62.78
14940,-63.97
14952,-64.09
14964,-61.32
14975,-53.31
14986,-38.86
14998,-18.8
15010,4.46
15022,28.27
15034,50.93
15046,71.14
15058,89.72
15070,105.29
15082,114.78
15094,114.22
15106,100.33
15118,72.17
15130,31.63
15142,-17.22
15154,-70.59
15165,-121.91
15176,-167.02
15188,-202.93
15200,-227.96
15212,-242.24
15224,-247.79
15236,-248.39
15248,-248.55
15260,-253.24
15272,-261.29
15284,-270.94
15296,-278.84
15308,-281.67
15320,-277.6
15332,-266.38
15344,-249.66
15355,-219.68
15366,-193.55
15378,-170.27
15390,-149.46
15402,-128.9
15414,-104.95
15426,-73.83
15438,-32.74
15450,16.98
15462,68.72
15474,112.66
15486,144.02
15498,159.47
15510,160.55
15522,152.83
15534,143.56
15545,140.41
15556,147.79
15568,165.29
15580,190.2
15592,221.61
15604,255.24
15616,285.78
15628,308.38
15640,320.08
15652,322.25
15664,317.79
15676,308.24
15688,295.74
15700,283.47
15712,271.13
15724,256.48
15735,236.75
15746,200.48
15758,146.97
15770,93.61
15782,44.76
15794,-0.76
15806,-40.8
15818,-74.0
15830,-99.95
15842,-119.63
15854,-135.21
15866,-147.94
15878,-159.87
15890,-174.53
15902,-192.18
15914,-210.37
15925,-226.97
15936,-241.18
15948,-253.8
15960,-266.44
15972,-278.79
15984,-289.37
15996,-296.94
16008,-298.23
16020,-290.25
16032,-272.65
16044,-247.47
16056,-217.8
16068,-186.24
16080,-153.48
16092,-119.74
16104,-86.44
16115,-54.7
16126,-25.52
16138,0.23
16150,22.62
16162,42.56
16174,61.11
16186,78.72
16198,94.31
16210,105.49
16222,110.81
16234,110.55
16246,106.17
16258,99.4
16270,90.99
16282,80.2
16294,65.6
16305,46.27
16316,22.92
16328,-1.23
16340,-21.49
16352,-33.68
16364,-35.82
16376,-28.86
16388,-16.21
16400,-2.12
16412,9.94
16424,18.33
16436,23.25
16448,25.81
16460,26.69
16472,25.26
16484,19.84
16495,8.77
16506,-7.98
16518,-27.94
16530,-46.56
16542,-58.87
16554,-61.62
16566,-54.75
16578,-41.31
16590,-25.88
16602,-12.36
16614,-2.37
16626,4.93
16638,11.62
16650,19.23
16662,27.61
16674,34.86
16685,38.56
16696,37.09
16708,30.59
16720,20.74
16732,9.85
16744,-0.21
16756,-8.65
16768,-15.63
16780,-21.72
16792,-27.35
16804,-32.51
16816,-36.85
16828,-39.68
16840,-40.2
16852,-37.6
16864,-31.36
16875,-21.61
16886,-9.31
16898,3.99
16910,16.72
16922,27.94
16934,37.76
16946,46.85
16958,55.72
16970,64.0
16982,70.42
16994,73.44
17006,72.28
17018,67.57
17030,61.17
17042,55.33
17054,51.54
17065,49.95
17076,49.52
17088,48.8
17100,46.73
17112,43.14
17124,38.6
17136,33.88
17148,29.47
17160,25.3
17172,20.8
17184,15.28
17196,8.32
17208,0.1
17220,-8.51
17232,-16.26
17244,-21.96
17255,-25.05
17266,-25.98
17278,-26.26
17290,-27.92
17302,-32.57
17314,-40.43
17326,-49.9
17338,-58.19
17350,-62.87
17362,-63.44
17374,-62.18
17386,-63.27
17398,-70.71
17410,-86.09
17422,-107.52
17434,-130.24
17445,-148.43
17456,-157.49
17468,-155.27
17480,-142.22
17492,-120.47
17504,-93.0
17516,-63.13
17528,-34.39
17540,-10.15
17552,7.28
17564,17.95
17576,25.0
17588,34.18
17600,51.81
17612,81.87
17624,123.93
17635,172.71
17646,219.81
17658,256.61
17670,277.08
17682,279.2
17694,264.55
17706,236.9
17718,200.75
17730,160.48
17742,120.43
17754,84.95
17766,58.08
17778,42.91
17790,40.64
17802,50.21
17814,68.64
17825,91.82
17836,115.46
17848,136.12
17860,151.97
17872,163.07
17884,171.27
17896,178.88
17908,186.96
17920,193.99
17932,195.58
17944,185.73
17956,159.11
17968,113.67
17980,52.26
17992,-17.6
18004,-85.82
18015,-142.66
18026,-181.57
18038,-200.84
18050,-203.38
18062,-195.39
18074,-184.12
18086,-175.84
18098,-174.5
18110,-181.21
18122,-194.55
18134,-211.21
18146,-227.1
18158,-238.05
18170,-240.5
18182,-231.87
18194,-210.96
18205,-178.3
18216,-136.31
18228,-89.02
18240,-41.36
18252,1.98
18264,38.31
18276,68.03
18288,94.64
18300,123.29
18312,158.28
18324,201.11
18336,249.74
18348,299.46
18360,344.73
18372,381.05
18384,405.49
18395,416.61
18406,413.75
18418,396.84
18430,366.6
18442,324.87
18454,274.42
18466,218.25
18478,158.58
18490,96.22
18502,31.05
18514,-36.6
18526,-104.61
18538,-168.61
18550,-222.92
18562,-262.47
18574,-284.5
18585,-289.43
18596,-280.48
18608,-262.51
18620,-241.01
18632,-221.37
18644,-208.91
18656,-208.24
18668,-221.94
18680,-249.05
18692,-284.34
18704,-319.47
18716,-345.9
18728,-358.13
18740,-355.7
18752,-342.63
18764,-324.96
18775,-307.78
18786,-293.27
18798,-280.77
18810,-268.27
18822,-254.19
18834,-238.06
18846,-220.09
18858,-200.31
18870,-178.06
18882,-152.45
18894,-123.27
18906,-91.67
18918,-59.87
18930,-29.93
18942,-2.38
18954,24.52
18965,54.57
18976,92.29
18988,140.91
19000,200.46
19012,267.05
19024,333.1
19036,389.28
19048,427.06
19060,441.01
19072,430.07
19084,397.42
19096,348.81
19108,290.63
19120,228.62
19132,167.65
19144,112.47
19155,68.01
19166,39.0
19178,28.3
19190,35.2
19202,54.7
19214,78.63
19226,98.09
19238,106.26
19250,100.37
19262,81.85
19274,55.35
19286,26.51
19298,0.02
19310,-21.58
19322,-38.14
19334,-51.17
19345,-62.95
19356,-75.47
19368,-89.46
19380,-103.78
19392,-115.76
19404,-122.27
19416,-121.3
19428,-113.09
19440,-99.92
19452,-85.14
19464,-71.52
19476,-60.33
19488,-51.42
19500,-44.14
19512,-38.27
19524,-34.32
19535,-33.18
19546,-35.11
19558,-39.22
19570,-43.67
19582,-46.75
19594,-47.93
19606,-48.47
19618,-50.72
19630,-56.98
19642,-68.62
19654,-85.15
19666,-104.65
19678,-124.17
19690,-140.53
19702,-151.03
19714,-154.15
19725,-150.1
19736,-140.69
19748,-128.71
19760,-116.68
19772,-106.25
19784,-97.77
19796,-90.45
19808,-82.8
19820,-73.32
19832,-61.42
19844,-47.86
19856,-34.42
19868,-22.5
19880,-12.47
19892,-3.6
19904,5.38
19915,15.39
19926,26.31
19938,36.8
19950,44.9
19962,48.95
19974,49.36
19986,47.61
19998,44.87
20010,41.28
20022,36.47
20034,30.35
20046,23.36
20058,16.3
20070,9.77
20082,5.72
20094,5.09
20105,6.5
20116,6.82
20128,3.45
20140,-4.07
20152,-14.36
20164,-25.49
20176,-35.88
20188,-41.35
20200,-38.58
20212,-27.52
20224,-11.64
20236,5.16
20248,20.58
20260,34.4
20272,47.51
20284,61.36
20295,82.27
20306,116.96
20318,168.81
20330,236.26
20342,314.76
20354,397.68
20366,476.54
20378,540.98
20390,554.77
20402,494.27
20414,367.88
20426,214.35
20438,74.61
20450,-28.92
20462,-92.75
20474,-123.56
20485,-131.22
20496,-125.25
20508,-109.78
20520,-88.62
20532,-68.29
20544,-57.24
20556,-59.45
20568,-74.42
20580,-96.99
20592,-120.54
20604,-140.26
20616,-151.01
20628,-150.64
20640,-140.67
20652,-125.05
20664,-106.47
20675,-84.64
20686,-57.48
20698,-23.93
20710,13.65
20722,49.93
20734,76.17
20746,83.36
20758,66.61
20770,29.3
20782,-16.73
20794,-55.47
20806,-73.0
20818,-63.26
20830,-28.68
20842,20.35
20854,69.41
20865,104.36
20876,115.7
20888,101.0
20900,64.89
20912,17.74
20924,-29.45
20936,-68.52
20948,-96.26
20960,-112.61
20972,-118.28
20984,-112.85
20996,-94.81
