seconds,BVP
1,-3.81
12,0.84
24,5.86
36,11.24
48,16.89
60,22.52
72,27.63
84,31.71
96,34.43
108,35.72
120,35.8
132,34.98
144,33.52
156,31.55
168,29.16
180,26.38
191,23.27
202,19.94
214,16.52
226,13.2
238,10.15
250,7.59
262,5.76
274,4.85
286,5.0
298,6.3
310,8.71
322,12.06
334,16.04
346,20.24
358,24.23
370,27.7
381,30.4
392,32.26
404,33.3
416,33.64
428,33.47
440,33.03
452,32.47
464,31.87
476,31.15
488,30.09
500,28.57
512,26.64
524,24.58
536,22.74
548,21.42
560,20.7
571,20.49
582,20.65
594,21.07
606,21.78
618,22.75
630,23.82
642,24.64
654,24.71
666,23.59
678,21.03
690,17.19
702,12.54
714,7.75
726,3.37
738,-0.35
750,-3.51
761,-6.5
772,-9.69
784,-13.14
796,-16.48
808,-19.07
820,-20.28
832,-19.95
844,-18.45
856,-16.64
868,-15.51
880,-15.74
892,-17.58
904,-20.75
916,-24.7
928,-28.7
940,-32.05
951,-34.22
962,-34.92
974,-34.24
986,-32.65
998,-30.87
1010,-29.67
1022,-29.48
1034,-30.19
1046,-31.25
1058,-31.92
1070,-31.73
1082,-30.73
1094,-29.44
1106,-28.49
1118,-28.24
1130,-28.49
1141,-28.67
1152,-28.17
1164,-26.7
1176,-24.41
1188,-21.8
1200,-19.35
1212,-17.26
1224,-15.47
1236,-13.8
1248,-12.15
1260,-10.64
1272,-9.5
1284,-8.88
1296,-8.73
1308,-8.74
1320,-8.56
1331,-7.97
1342,-6.97
1354,-5.77
1366,-4.54
1378,-3.27
1390,-1.59
1402,0.99
1414,4.83
1426,9.86
1438,15.53
1450,21.05
1462,25.73
1474,29.34
1486,32.04
1498,34.18
1510,35.85
1521,36.78
1532,36.43
1544,34.3
1556,30.29
1568,24.63
1580,17.62
1592,9.41
1604,-0.11
1616,-10.94
1628,-22.56
1640,-33.81
1652,-43.15
1664,-49.22
1676,-51.52
1688,-50.63
1700,-47.94
1711,-45.1
1722,-43.31
1734,-42.91
1746,-43.45
1758,-43.99
1770,-43.61
1782,-41.78
1794,-38.56
1806,-34.51
1818,-30.41
1830,-26.99
1842,-24.6
1854,-23.14
1866,-22.14
1878,-21.0
1890,-19.19
1901,-16.41
1912,-12.54
1924,-7.59
1936,-1.66
1948,5.1
1960,12.39
1972,19.75
1984,26.64
1996,32.57
2008,37.26
2020,40.76
2032,43.44
2044,45.85
2056,48.57
2068,52.08
2080,56.67
2091,62.36
2102,68.92
2114,75.88
2126,82.54
2138,88.09
2150,91.71
2162,92.73
2174,90.68
2186,85.35
2198,76.85
2210,65.53
2222,52.0
2234,37.1
2246,21.88
2258,7.42
2270,-5.2
2281,-15.18
2292,-22.06
2304,-25.87
2316,-27.1
2328,-26.53
2340,-25.15
2352,-23.81
2364,-23.11
2376,-23.21
2388,-23.88
2400,-24.56
2412,-24.65
2424,-23.73
2436,-21.75
2448,-19.07
2460,-16.27
2471,-13.92
2482,-12.31
2494,-11.41
2506,-10.87
2518,-10.18
2530,-8.88
2542,-6.71
2554,-3.63
2566,0.1
2578,4.02
2590,7.59
2602,10.36
2614,12.06
2626,12.73
2638,12.63
2650,12.1
2661,11.44
2672,10.79
2684,10.19
2696,9.58
2708,8.96
2720,8.33
2732,7.72
2744,7.09
2756,6.37
2768,5.5
2780,4.53
2792,3.68
2804,3.25
2816,3.49
2828,4.49
2840,6.02
2851,7.65
2862,8.92
2874,9.48
2886,9.24
2898,8.34
2910,7.08
2922,5.76
2934,4.59
2946,3.65
2958,2.95
2970,2.4
2982,1.85
2994,1.21
3006,0.39
3018,-0.63
3030,-1.81
3041,-3.06
3052,-4.34
3064,-5.58
3076,-6.81
3088,-8.06
3100,-9.41
3112,-10.92
3124,-12.65
3136,-14.61
3148,-16.64
3160,-18.44
3172,-19.57
3184,-19.62
3196,-18.38
3208,-15.97
3220,-12.83
3231,-9.55
3242,-6.64
3254,-4.37
3266,-2.78
3278,-1.67
3290,-0.88
3302,-0.29
3314,0.11
3326,0.26
3338,0.18
3350,-0.01
3362,-0.11
3374,0.03
3386,0.53
3398,1.33
3410,2.28
3421,3.2
3432,3.95
3444,4.47
3456,4.79
3468,4.97
3480,5.05
3492,5.01
3504,4.83
3516,4.51
3528,4.13
3540,3.81
3552,3.66
3564,3.67
3576,3.71
3588,3.61
3600,3.23
3611,2.54
3622,1.66
3634,0.77
3646,0.05
3658,-0.43
3670,-0.66
3682,-0.73
3694,-0.73
3706,-0.78
3718,-0.95
3730,-1.29
3742,-1.8
3754,-2.46
3766,-3.22
3778,-4.04
3790,-4.88
3801,-5.71
3812,-6.53
3824,-7.31
3836,-8.05
3848,-8.72
3860,-9.33
3872,-9.86
3884,-10.32
3896,-10.69
3908,-10.95
3920,-11.18
3932,-11.5
3944,-12.12
3956,-13.2
3968,-14.79
3980,-16.69
3991,-18.47
4002,-19.59
4014,-19.56
4026,-18.14
4038,-15.41
4050,-11.79
4062,-7.85
4074,-4.17
4086,-1.17
4098,0.94
4110,2.17
4122,2.66
4134,2.62
4146,2.29
4158,1.91
4170,1.73
4181,1.94
4192,2.62
4204,3.68
4216,4.88
4228,5.94
4240,6.62
4252,6.86
4264,6.75
4276,6.47
4288,6.22
4300,6.14
4312,6.27
4324,6.58
4336,7.03
4348,7.58
4360,8.16
4371,8.67
4382,9.0
4394,9.01
4406,8.65
4418,7.98
4430,7.1
4442,6.21
4454,5.44
4466,4.89
4478,4.55
4490,4.32
4502,4.12
4514,3.88
4526,3.63
4538,3.43
4550,3.36
4561,3.43
4572,3.54
4584,3.55
4596,3.36
4608,2.93
4620,2.36
4632,1.79
4644,1.31
4656,0.94
4668,0.56
4680,0.03
4692,-0.71
4704,-1.61
4716,-2.54
4728,-3.35
4740,-3.93
4751,-4.29
4762,-4.54
4774,-4.82
4786,-5.28
4798,-5.98
4810,-6.94
4822,-8.05
4834,-9.17
4846,-10.17
4858,-10.94
4870,-11.45
4882,-11.74
4894,-11.87
4906,-12.01
4918,-12.33
4930,-13.01
4941,-14.13
4952,-15.63
4964,-17.21
4976,-18.37
4988,-18.56
5000,-17.33
5012,-14.6
5024,-10.68
5036,-6.18
5048,-1.85
5060,1.73
5072,4.23
5084,5.65
5096,6.18
5108,6.11
5120,5.69
5131,5.12
5142,4.54
5154,4.09
5166,3.85
5178,3.9
5190,4.22
5202,4.75
5214,5.42
5226,6.16
5238,6.95
5250,7.81
5262,8.73
5274,9.69
5286,10.65
5298,11.51
5310,12.16
5321,12.51
5332,12.48
5344,12.08
5356,11.39
5368,10.53
5380,9.65
5392,8.86
5404,8.21
5416,7.61
5428,6.96
5440,6.13
5452,5.1
5464,3.91
5476,2.69
5488,1.55
5500,0.57
5511,-0.21
5522,-0.83
5534,-1.31
5546,-1.67
5558,-1.92
5570,-2.07
5582,-2.15
5594,-2.22
5606,-2.34
5618,-2.57
5630,-2.93
5642,-3.38
5654,-3.87
5666,-4.31
5678,-4.62
5690,-4.79
5701,-4.87
5712,-4.97
5724,-5.24
5736,-5.76
5748,-6.53
5760,-7.46
5772,-8.39
5784,-9.18
5796,-9.79
5808,-10.26
5820,-10.74
5832,-11.43
5844,-12.46
5856,-13.8
5868,-15.27
5880,-16.49
5891,-17.01
5902,-16.47
5914,-14.75
5926,-11.96
5938,-8.5
5950,-4.86
5962,-1.51
5974,1.23
5986,3.19
5998,4.32
6010,4.7
6022,4.44
6034,3.72
6046,2.73
6058,1.68
6070,0.73
6081,-0.05
6092,-0.65
6104,-1.11
6116,-1.49
6128,-1.8
6140,-2.03
6152,-2.07
6164,-1.81
6176,-1.11
6188,0.06
6200,1.66
6212,3.48
6224,5.27
6236,6.82
6248,8.0
6260,8.84
6271,9.45
6282,9.9
6294,10.23
6306,10.4
6318,10.35
6330,10.07
6342,9.57
6354,8.93
6366,8.18
6378,7.31
6390,6.29
6402,5.12
6414,3.9
6426,2.75
6438,1.82
6450,1.13
6461,0.6
6472,0.04
6484,-0.78
6496,-1.99
6508,-3.6
6520,-5.48
6532,-7.44
6544,-9.29
6556,-10.86
6568,-12.1
6580,-13.02
6592,-13.73
6604,-14.42
6616,-15.3
6628,-16.53
6640,-18.12
6651,-19.8
6662,-21.11
6674,-21.47
6686,-20.39
6698,-17.71
6710,-13.65
6722,-8.78
6734,-3.83
6746,0.56
6758,3.96
6770,6.26
6782,7.57
6794,8.11
6806,8.14
6818,7.86
6830,7.43
6841,6.94
6852,6.47
6864,6.03
6876,5.64
6888,5.29
6900,4.97
6912,4.66
6924,4.37
6936,4.11
6948,3.89
6960,3.7
6972,3.51
6984,3.3
6996,3.04
7008,2.79
7020,2.7
7031,2.99
7042,3.85
7054,5.42
7066,7.62
7078,10.21
7090,12.8
7102,14.96
7114,16.4
7126,16.97
7138,16.73
7150,15.86
7162,14.59
7174,13.06
7186,11.35
7198,9.47
7210,7.45
7221,5.39
7232,3.44
7244,1.72
7256,0.27
7268,-0.99
7280,-2.19
7292,-3.43
7304,-4.68
7316,-5.84
7328,-6.78
7340,-7.43
7352,-7.91
7364,-8.41
7376,-9.12
7388,-10.11
7400,-11.27
7411,-12.38
7422,-13.22
7434,-13.66
7446,-13.73
7458,-13.64
7470,-13.68
7482,-14.15
7494,-15.27
7506,-17.0
7518,-19.08
7530,-20.95
7542,-21.93
7554,-21.44
7566,-19.18
7578,-15.31
7590,-10.38
7601,-5.16
7612,-0.4
7624,3.32
7636,5.76
7648,6.98
7660,7.24
7672,6.88
7684,6.27
7696,5.68
7708,5.32
7720,5.27
7732,5.54
7744,6.02
7756,6.54
7768,6.96
7780,7.16
7791,7.14
7802,6.99
7814,6.85
7826,6.88
7838,7.19
7850,7.75
7862,8.45
7874,9.09
7886,9.54
7898,9.71
7910,9.62
7922,9.35
7934,8.98
7946,8.59
7958,8.15
7970,7.65
7981,7.03
7992,6.29
8004,5.52
8016,4.78
8028,4.15
8040,3.62
8052,3.13
8064,2.62
8076,2.09
8088,1.6
8100,1.21
8112,0.97
8124,0.82
8136,0.67
8148,0.38
8160,-0.09
8171,-0.69
8182,-1.32
8194,-1.86
8206,-2.31
8218,-2.72
8230,-3.18
8242,-3.75
8254,-4.42
8266,-5.16
8278,-5.91
8290,-6.66
8302,-7.4
8314,-8.11
8326,-8.75
8338,-9.28
8350,-9.68
8361,-10.02
8372,-10.41
8384,-11.07
8396,-12.13
8408,-13.68
8420,-15.65
8432,-17.76
8444,-19.58
8456,-20.56
8468,-20.22
8480,-18.29
8492,-14.83
8504,-10.3
8516,-5.36
8528,-0.71
8540,3.11
8551,5.89
8562,7.66
8574,8.68
8586,9.22
8598,9.52
8610,9.73
8622,9.95
8634,10.22
8646,10.54
8658,10.86
8670,11.04
8682,10.96
8694,10.52
8706,9.75
8718,8.81
8730,7.99
8741,7.55
8752,7.62
8764,8.18
8776,9.04
8788,9.93
8800,10.62
8812,10.99
8824,11.02
8836,10.79
8848,10.37
8860,9.87
8872,9.35
8884,8.88
8896,8.45
8908,8.06
8920,7.63
8931,7.15
8942,6.63
8954,6.17
8966,5.9
8978,5.88
8990,6.07
9002,6.35
9014,6.54
9026,6.51
9038,6.17
9050,5.5
9062,4.5
9074,3.24
9086,1.73
9098,0.05
9110,-1.66
9121,-3.26
9132,-4.63
9144,-5.69
9156,-6.49
9168,-7.09
9180,-7.54
9192,-7.92
9204,-8.32
9216,-8.81
9228,-9.42
9240,-10.14
9252,-10.95
9264,-11.78
9276,-12.55
9288,-13.23
9300,-13.9
9311,-14.62
9322,-15.44
9334,-16.43
9346,-17.68
9358,-19.29
9370,-21.29
9382,-23.33
9394,-24.89
9406,-25.47
9418,-24.73
9430,-22.57
9442,-19.14
9454,-14.96
9466,-10.67
9478,-6.91
9490,-3.82
9501,-1.29
9512,0.64
9524,1.84
9536,2.3
9548,2.08
9560,1.17
9572,-0.36
9584,-2.43
9596,-4.35
9608,-5.58
9620,-6.07
9632,-5.84
9644,-4.71
9656,-2.55
9668,0.26
9680,2.96
9691,4.56
9702,5.22
9714,5.3
9726,5.61
9738,7.97
9750,15.01
9762,28.64
9774,48.62
9786,73.45
9798,96.51
9810,110.34
9822,111.75
9834,101.84
9846,84.07
9858,62.93
9870,43.41
9881,28.79
9892,19.42
9904,12.32
9916,3.92
9928,-11.11
9940,-37.11
9952,-75.28
9964,-122.71
9976,-174.56
9988,-225.46
10000,-270.46
10012,-305.77
10024,-313.8
10036,-283.71
10048,-219.49
10060,-138.25
10071,-58.01
10082,9.91
10094,61.1
10106,99.79
10118,128.15
10130,147.3
10142,156.09
10154,154.31
10166,141.43
10178,121.57
10190,97.33
10202,73.48
10214,54.72
10226,42.98
10238,37.76
10250,35.14
10261,31.05
10272,23.56
10284,13.97
10296,4.89
10308,-0.93
10320,-2.07
10332,0.86
10344,6.74
10356,13.15
10368,18.07
10380,20.68
10392,21.69
10404,22.07
10416,22.54
10428,22.96
10440,22.54
10451,20.97
10462,18.18
10474,14.75
10486,11.73
10498,9.42
10510,8.09
10522,7.54
10534,7.01
10546,5.62
10558,3.06
10570,-0.55
10582,-4.76
10594,-9.06
10606,-13.0
10618,-16.32
10630,-18.94
10641,-20.98
10652,-22.64
10664,-24.03
10676,-25.25
10688,-26.38
10700,-27.54
10712,-28.76
10724,-29.88
10736,-30.61
10748,-30.69
10760,-29.99
10772,-28.61
10784,-26.85
10796,-25.13
10808,-23.83
10820,-23.24
10831,-23.34
10842,-23.86
10854,-24.33
10866,-24.15
10878,-22.73
10890,-19.71
10902,-15.04
10914,-9.04
10926,-2.29
10938,4.53
10950,10.81
10962,16.1
10974,20.18
10986,23.01
10998,24.68
11010,25.36
11021,25.31
11032,24.83
11044,24.32
11056,24.14
11068,24.55
11080,25.58
11092,27.0
11104,28.39
11116,29.31
11128,29.47
11140,28.89
11152,27.85
11164,26.79
11176,26.05
11188,25.73
11200,25.65
11211,25.49
11222,24.9
11234,23.7
11246,21.87
11258,19.54
11270,16.9
11282,14.11
11294,11.31
11306,8.63
11318,6.14
11330,3.83
11342,1.58
11354,-0.82
11366,-3.53
11378,-6.58
11390,-9.74
11401,-12.61
11412,-14.79
11424,-16.06
11436,-16.47
11448,-16.33
11460,-16.09
11472,-16.15
11484,-16.7
11496,-17.74
11508,-19.02
11520,-20.15
11532,-20.67
11544,-20.14
11556,-18.27
11568,-15.04
11580,-10.73
11591,-5.87
11602,-1.05
11614,3.26
11626,6.77
11638,9.43
11650,11.33
11662,12.62
11674,13.43
11686,13.92
11698,14.21
11710,14.46
11722,14.8
11734,15.25
11746,15.73
11758,16.11
11770,16.24
11781,16.05
11792,15.57
11804,14.94
11816,14.24
11828,13.52
11840,12.75
11852,11.84
11864,10.76
11876,9.54
11888,8.27
11900,7.07
11912,5.94
11924,4.81
11936,3.49
11948,1.82
11960,-0.26
11971,-2.64
11982,-5.12
11994,-7.46
12006,-9.52
12018,-11.31
12030,-12.96
12042,-14.66
12054,-16.59
12066,-18.84
12078,-21.44
12090,-24.33
12102,-27.28
12114,-29.96
12126,-31.9
12138,-32.58
12150,-31.6
12161,-28.82
12172,-24.44
12184,-18.95
12196,-13.04
12208,-7.35
12220,-2.36
12232,1.7
12244,4.85
12256,7.3
12268,9.3
12280,11.04
12292,12.63
12304,14.05
12316,15.25
12328,16.13
12340,16.69
12351,16.92
12362,16.88
12374,16.62
12386,16.17
12398,15.57
12410,14.89
12422,14.15
12434,13.38
12446,12.59
12458,11.77
12470,10.91
12482,10.05
12494,9.25
12506,8.56
12518,7.97
12530,7.43
12541,6.84
12552,6.14
12564,5.3
12576,4.32
12588,3.22
12600,2.02
12612,0.7
12624,-0.74
12636,-2.26
12648,-3.77
12660,-5.11
12672,-6.17
12684,-6.9
12696,-7.4
12708,-7.91
12720,-8.77
12731,-10.27
12742,-12.45
12754,-15.04
12766,-17.44
12778,-18.93
12790,-18.85
12802,-16.89
12814,-13.18
12826,-8.2
12838,-2.68
12850,2.73
12862,7.52
12874,11.47
12886,14.53
12898,16.8
12910,18.44
12921,19.62
12932,20.53
12944,21.38
12956,22.26
12968,23.16
12980,23.95
12992,24.39
13004,24.3
13016,23.64
13028,22.54
13040,21.25
13052,20.08
13064,19.24
13076,18.79
13088,18.67
13100,18.68
13111,18.65
13122,18.42
13134,17.89
13146,17.07
13158,15.98
13170,14.74
13182,13.45
13194,12.22
13206,11.1
13218,10.12
13230,9.25
13242,8.41
13254,7.56
13266,6.64
13278,5.67
13290,4.68
13301,3.77
13312,3.04
13324,2.54
13336,2.27
13348,2.15
13360,2.08
13372,1.97
13384,1.81
13396,1.62
13408,1.48
13420,1.4
13432,1.33
13444,1.14
13456,0.76
13468,0.2
13480,-0.4
13491,-0.88
13502,-1.14
13514,-1.23
13526,-1.27
13538,-1.44
13550,-1.86
13562,-2.51
13574,-3.31
13586,-4.17
13598,-5.05
13610,-5.97
13622,-6.98
13634,-8.06
13646,-9.11
13658,-10.01
13670,-10.68
13681,-11.13
13692,-11.51
13704,-12.0
13716,-12.75
13728,-13.77
13740,-15.0
13752,-16.29
13764,-17.55
13776,-18.71
13788,-19.77
13800,-20.77
13812,-21.71
13824,-22.59
13836,-23.44
13848,-24.36
13860,-25.52
13871,-27.07
13882,-29.08
13894,-31.4
13906,-33.61
13918,-35.1
13930,-35.26
13942,-33.68
13954,-30.32
13966,-25.53
13978,-19.96
13990,-14.36
14002,-9.3
14014,-5.09
14026,-1.74
14038,0.9
14050,3.02
14061,4.73
14072,6.12
14084,7.28
14096,8.36
14108,9.51
14120,10.86
14132,12.38
14144,13.97
14156,15.45
14168,16.68
14180,17.57
14192,18.14
14204,18.45
14216,18.58
14228,18.6
14240,18.56
14251,18.53
14262,18.52
14274,18.49
14286,18.33
14298,17.91
14310,17.13
14322,16.03
14334,14.71
14346,13.33
14358,12.04
14370,10.95
14382,10.06
14394,9.33
14406,8.72
14418,8.18
14430,7.66
14441,7.16
14452,6.66
14464,6.18
14476,5.74
14488,5.34
14500,4.98
14512,4.63
14524,4.23
14536,3.77
14548,3.26
14560,2.7
14572,2.08
14584,1.4
14596,0.64
14608,-0.17
14620,-1.02
14631,-1.85
14642,-2.64
14654,-3.41
14666,-4.17
14678,-4.95
14690,-5.75
14702,-6.53
14714,-7.27
14726,-8.0
14738,-8.79
14750,-9.69
14762,-10.71
14774,-11.81
14786,-12.87
14798,-13.79
14810,-14.55
14821,-15.21
14832,-15.9
14844,-16.81
14856,-18.04
14868,-19.61
14880,-21.34
14892,-22.88
14904,-23.76
14916,-23.54
14928,-21.93
14940,-18.97
14952,-14.96
14964,-10.41
14976,-5.86
14988,-1.75
15000,1.7
15011,4.41
15022,6.37
15034,7.66
15046,8.32
15058,8.49
15070,8.34
15082,8.08
15094,7.86
15106,7.72
15118,7.63
15130,7.55
15142,7.45
15154,7.39
15166,7.49
15178,7.85
15190,8.49
15201,9.33
15212,10.21
15224,10.95
15236,11.43
15248,11.65
15260,11.67
15272,11.53
15284,11.29
15296,10.91
15308,10.36
15320,9.65
15332,8.86
15344,8.09
15356,7.44
15368,6.94
15380,6.54
15391,6.15
15402,5.73
15414,5.26
15426,4.75
15438,4.16
15450,3.43
15462,2.46
15474,1.26
15486,-0.08
15498,-1.37
15510,-2.45
15522,-3.29
15534,-4.03
15546,-4.85
15558,-5.9
15570,-7.16
15581,-8.46
15592,-9.61
15604,-10.54
15616,-11.35
15628,-12.22
15640,-13.35
15652,-14.8
15664,-16.47
15676,-18.24
15688,-20.05
15700,-21.88
15712,-23.71
15724,-25.45
15736,-26.82
15748,-27.4
15760,-26.82
15771,-24.86
15782,-21.6
15794,-17.38
15806,-12.73
15818,-8.19
15830,-4.22
15842,-1.05
15854,1.26
15866,2.82
15878,3.85
15890,4.56
15902,5.17
15914,5.79
15926,6.49
15938,7.25
15950,8.04
15961,8.8
15972,9.47
15984,10.04
15996,10.51
16008,10.94
16020,11.38
16032,11.87
16044,12.44
16056,13.1
16068,13.82
16080,14.5
16092,15.03
16104,15.28
16116,15.15
16128,14.63
16140,13.78
16151,12.76
16162,11.76
16174,10.94
16186,10.35
16198,9.96
16210,9.63
16222,9.22
16234,8.62
16246,7.82
16258,6.92
16270,6.07
16282,5.38
16294,4.85
16306,4.41
16318,3.91
16330,3.28
16341,2.55
16352,1.82
16364,1.19
16376,0.67
16388,0.13
16400,-0.6
16412,-1.64
16424,-2.99
16436,-4.53
16448,-6.01
16460,-7.21
16472,-8.05
16484,-8.56
16496,-8.92
16508,-9.33
16520,-9.95
16531,-10.89
16542,-12.1
16554,-13.48
16566,-14.89
16578,-16.16
16590,-17.18
16602,-17.91
16614,-18.4
16626,-18.81
16638,-19.35
16650,-20.21
16662,-21.49
16674,-23.09
16686,-24.72
16698,-25.94
16710,-26.27
16721,-25.36
16732,-23.06
16744,-19.52
16756,-15.15
16768,-10.49
16780,-6.07
16792,-2.36
16804,0.42
16816,2.24
16828,3.23
16840,3.67
16852,3.82
16864,3.92
16876,4.12
16888,4.5
16900,5.08
16911,5.82
16922,6.66
16934,7.5
16946,8.24
16958,8.8
16970,9.16
16982,9.42
16994,9.7
17006,10.12
17018,10.71
17030,11.4
17042,12.03
17054,12.42
17066,12.51
17078,12.34
17090,12.06
17101,11.8
17112,11.6
17124,11.43
17136,11.16
17148,10.67
17160,9.94
17172,9.01
17184,8.01
17196,7.07
17208,6.27
17220,5.62
17232,5.1
17244,4.7
17256,4.35
17268,4.02
17280,3.68
17291,3.33
17302,2.97
17314,2.64
17326,2.4
17338,2.24
17350,2.1
17362,1.88
17374,1.49
17386,0.86
17398,0.05
17410,-0.88
17422,-1.8
17434,-2.64
17446,-3.38
17458,-4.05
17470,-4.72
17481,-5.44
17492,-6.29
17504,-7.3
17516,-8.48
17528,-9.79
17540,-11.09
17552,-12.26
17564,-13.19
17576,-13.88
17588,-14.45
17600,-15.18
17612,-16.28
17624,-17.87
17636,-19.8
17648,-21.65
17660,-22.88
17671,-22.98
17682,-21.71
17694,-19.13
17706,-15.57
17718,-11.5
17730,-7.32
17742,-3.35
17754,0.2
17766,3.18
17778,5.5
17790,7.08
17802,7.97
17814,8.33
17826,8.39
17838,8.4
17850,8.49
17861,8.67
17872,8.86
17884,8.97
17896,8.97
17908,8.9
17920,8.9
17932,9.08
17944,9.51
17956,10.18
17968,10.99
17980,11.8
17992,12.45
18004,12.83
18016,12.9
18028,12.69
18040,12.28
18051,11.78
18062,11.26
18074,10.75
18086,10.22
18098,9.62
18110,8.96
18122,8.3
18134,7.7
18146,7.19
18158,6.71
18170,6.17
18182,5.46
18194,4.55
18206,3.5
18218,2.47
18230,1.59
18241,0.95
18252,0.5
18264,0.13
18276,-0.26
18288,-0.71
18300,-1.19
18312,-1.64
18324,-1.99
18336,-2.25
18348,-2.46
18360,-2.69
18372,-2.97
18384,-3.36
18396,-3.9
18408,-4.65
18420,-5.63
18431,-6.84
18442,-8.19
18454,-9.51
18466,-10.66
18478,-11.55
18490,-12.23
18502,-12.83
18514,-13.48
18526,-14.3
18538,-15.28
18550,-16.36
18562,-17.39
18574,-18.17
18586,-18.49
18598,-18.09
18610,-16.76
18621,-14.4
18632,-11.14
18644,-7.32
18656,-3.42
18668,0.12
18680,2.96
18692,4.99
18704,6.3
18716,7.07
18728,7.5
18740,7.73
18752,7.84
18764,7.88
18776,7.87
18788,7.86
18800,7.87
18811,7.92
18822,8.01
18834,8.12
18846,8.22
18858,8.36
18870,8.58
18882,8.94
18894,9.43
18906,9.97
18918,10.4
18930,10.6
18942,10.45
18954,9.97
18966,9.26
18978,8.45
18990,7.65
19001,6.87
19012,6.07
19024,5.14
19036,4.04
19048,2.76
19060,1.39
19072,0.02
19084,-1.25
19096,-2.34
19108,-3.25
19120,-3.96
19132,-4.52
19144,-4.97
19156,-5.35
19168,-5.72
19180,-6.11
19191,-6.54
19202,-7.04
19214,-7.61
19226,-8.28
19238,-9.07
19250,-10.01
19262,-11.11
19274,-12.35
19286,-13.73
19298,-15.26
19310,-16.92
19322,-18.65
19334,-20.29
19346,-21.57
19358,-22.18
19370,-21.86
19381,-20.48
19392,-18.16
19404,-15.16
19416,-11.83
19428,-8.54
19440,-5.58
19452,-3.14
19464,-1.36
19476,-0.28
19488,0.14
19500,0.0
19512,-0.52
19524,-1.22
19536,-1.94
19548,-2.53
19560,-2.91
19571,-3.02
19582,-2.83
19594,-2.29
19606,-1.4
19618,-0.12
19630,1.56
19642,3.69
19654,6.23
19666,9.1
19678,12.14
19690,15.11
19702,17.76
19714,19.84
19726,21.21
19738,21.83
19750,21.74
19761,21.07
19772,19.96
19784,18.58
19796,17.02
19808,15.41
19820,13.81
19832,12.28
19844,10.89
19856,9.65
19868,8.57
19880,7.63
19892,6.78
19904,5.96
19916,5.11
19928,4.24
19940,3.35
19951,2.48
19962,1.63
19974,0.74
19986,-0.27
19998,-1.52
20010,-3.06
20022,-4.86
20034,-6.82
20046,-8.79
20058,-10.62
20070,-12.26
20082,-13.74
20094,-15.15
20106,-16.59
20118,-18.15
20130,-19.93
20141,-21.98
20152,-24.22
20164,-26.46
20176,-28.33
20188,-29.36
20200,-29.15
20212,-27.52
20224,-24.52
20236,-20.51
20248,-15.87
20260,-10.99
20272,-6.13
20284,-1.47
20296,2.88
20308,6.78
20320,10.13
20331,12.88
20342,15.03
20354,16.65
20366,17.85
20378,18.73
20390,19.37
20402,19.81
20414,20.09
20426,20.22
20438,20.21
20450,20.06
20462,19.79
20474,19.45
20486,19.11
20498,18.81
20510,18.52
20521,18.12
20532,17.46
20544,16.51
20556,15.3
20568,14.0
20580,12.76
20592,11.68
20604,10.78
20616,9.98
20628,9.18
20640,8.33
20652,7.43
20664,6.52
20676,5.66
20688,4.88
20700,4.16
20711,3.46
20722,2.75
20734,1.96
20746,1.12
20758,0.24
20770,-0.62
20782,-1.44
20794,-2.25
20806,-3.09
20818,-4.02
20830,-4.99
20842,-5.9
20854,-6.62
20866,-7.09
20878,-7.44
20890,-7.88
20901,-8.69
20912,-10.04
20924,-11.9
20936,-14.09
20948,-16.32
20960,-18.36
20972,-20.04
20984,-21.36
20996,-22.35
