seconds,BVP
0,-9.28
12,-11.72
24,-15.48
36,-20.44
48,-26.02
60,-31.37
72,-35.48
84,-37.65
95,-37.87
106,-36.96
118,-36.27
130,-37.09
142,-40.02
154,-44.81
166,-50.57
178,-56.29
190,-61.29
202,-65.3
214,-68.34
226,-70.42
238,-71.4
250,-71.04
262,-69.2
274,-65.97
285,-61.74
296,-57.06
308,-52.51
320,-48.41
332,-44.66
344,-40.76
356,-36.06
368,-30.13
380,-23.03
392,-15.42
404,-8.3
416,-2.59
428,1.29
440,3.59
452,5.09
464,6.77
475,9.39
486,13.25
498,18.16
510,23.57
522,28.84
534,33.42
546,36.94
558,39.22
570,40.15
582,39.76
594,38.16
606,35.57
618,32.33
630,28.83
642,25.41
654,22.33
665,19.71
676,17.56
688,15.85
700,14.53
712,13.62
724,13.13
736,13.11
748,13.57
760,14.41
772,15.41
784,16.23
796,16.57
808,16.24
820,15.24
832,13.71
844,11.87
855,9.82
866,7.58
878,5.09
890,2.33
902,-0.64
914,-3.65
926,-6.46
938,-8.89
950,-10.83
962,-12.3
974,-13.37
986,-14.15
998,-14.75
1010,-15.28
1022,-15.82
1034,-16.51
1045,-17.52
1056,-18.98
1068,-20.98
1080,-23.41
1092,-25.95
1104,-28.13
1116,-29.47
1128,-29.64
1140,-28.56
1152,-26.38
1164,-23.43
1176,-20.05
1188,-16.52
1200,-13.04
1212,-9.75
1224,-6.76
1235,-4.15
1246,-2.02
1258,-0.4
1270,0.69
1282,1.34
1294,1.68
1306,1.94
1318,2.31
1330,2.95
1342,3.87
1354,4.94
1366,5.92
1378,6.6
1390,6.87
1402,6.8
1414,6.55
1425,6.33
1436,6.22
1448,6.15
1460,5.93
1472,5.42
1484,4.56
1496,3.41
1508,2.16
1520,0.94
1532,-0.14
1544,-1.15
1556,-2.14
1568,-3.15
1580,-4.13
1592,-4.93
1604,-5.34
1615,-5.26
1626,-4.69
1638,-3.76
1650,-2.7
1662,-1.79
1674,-1.23
1686,-1.19
1698,-1.69
1710,-2.64
1722,-3.84
1734,-4.99
1746,-5.77
1758,-5.88
1770,-5.16
1782,-3.55
1794,-1.18
1805,1.75
1816,4.97
1828,8.2
1840,11.19
1852,13.71
1864,15.57
1876,16.67
1888,17.0
1900,16.68
1912,15.9
1924,14.89
1936,13.82
1948,12.85
1960,12.09
1972,11.64
1984,11.61
1995,12.03
2006,12.85
2018,13.85
2030,14.75
2042,15.3
2054,15.34
2066,14.91
2078,14.11
2090,13.12
2102,12.07
2114,10.99
2126,9.87
2138,8.66
2150,7.33
2162,5.85
2174,4.29
2185,2.71
2196,1.18
2208,-0.26
2220,-1.61
2232,-2.95
2244,-4.42
2256,-6.17
2268,-8.28
2280,-10.7
2292,-13.23
2304,-15.48
2316,-16.99
2328,-17.29
2340,-16.05
2352,-13.21
2364,-9.08
2375,-4.28
2386,0.42
2398,4.31
2410,7.01
2422,8.48
2434,9.04
2446,9.17
2458,9.26
2470,9.49
2482,9.8
2494,9.99
2506,9.82
2518,9.17
2530,8.02
2542,6.45
2554,4.59
2565,2.53
2576,0.41
2588,-1.69
2600,-3.66
2612,-5.41
2624,-6.9
2636,-8.1
2648,-9.04
2660,-9.74
2672,-10.25
2684,-10.58
2696,-10.73
2708,-10.64
2720,-10.21
2732,-9.35
2744,-7.96
2755,-6.05
2766,-3.67
2778,-0.98
2790,1.83
2802,4.58
2814,7.12
2826,9.43
2838,11.6
2850,13.83
2862,16.4
2874,19.48
2886,23.1
2898,27.07
2910,31.0
2922,34.48
2934,37.19
2945,39.03
2956,40.18
2968,40.92
2980,41.55
2992,42.16
3004,42.6
3016,42.52
3028,41.56
3040,39.61
3052,36.86
3064,33.82
3076,31.1
3088,29.14
3100,28.04
3112,27.56
3124,27.27
3135,26.81
3146,26.04
3158,25.02
3170,23.93
3182,22.83
3194,21.62
3206,20.03
3218,17.85
3230,15.04
3242,11.77
3254,8.34
3266,5.01
3278,1.85
3290,-1.25
3302,-4.49
3314,-7.99
3325,-11.84
3336,-15.99
3348,-20.41
3360,-25.05
3372,-29.83
3384,-34.53
3396,-38.8
3408,-42.15
3420,-44.11
3432,-44.37
3444,-42.87
3456,-39.85
3468,-35.68
3480,-30.8
3492,-25.58
3504,-20.3
3515,-15.12
3526,-10.19
3538,-5.61
3550,-1.46
3562,2.17
3574,5.27
3586,7.85
3598,9.91
3610,11.46
3622,12.5
3634,13.03
3646,13.1
3658,12.86
3670,12.44
3682,11.95
3694,11.4
3705,10.69
3716,9.73
3728,8.42
3740,6.79
3752,4.94
3764,3.02
3776,1.19
3788,-0.44
3800,-1.84
3812,-3.04
3824,-4.14
3836,-5.23
3848,-6.4
3860,-7.65
3872,-8.9
3884,-9.97
3895,-10.65
3906,-10.68
3918,-9.87
3930,-8.12
3942,-5.49
3954,-2.16
3966,1.54
3978,5.27
3990,8.75
4002,11.78
4014,14.28
4026,16.19
4038,17.45
4050,18.01
4062,17.84
4074,17.02
4085,15.72
4096,14.21
4108,12.73
4120,11.49
4132,10.57
4144,9.95
4156,9.58
4168,9.38
4180,9.27
4192,9.14
4204,8.9
4216,8.41
4228,7.57
4240,6.35
4252,4.76
4264,2.88
4275,0.84
4286,-1.25
4298,-3.28
4310,-5.2
4322,-7.0
4334,-8.72
4346,-10.36
4358,-11.94
4370,-13.37
4382,-14.5
4394,-15.12
4406,-15.02
4418,-14.02
4430,-12.08
4442,-9.31
4454,-6.01
4465,-2.54
4476,0.7
4488,3.4
4500,5.35
4512,6.49
4524,6.83
4536,6.47
4548,5.52
4560,4.13
4572,2.5
4584,0.87
4596,-0.49
4608,-1.36
4620,-1.68
4632,-1.53
4644,-1.12
4655,-0.74
4666,-0.63
4678,-0.9
4690,-1.55
4702,-2.46
4714,-3.53
4726,-4.66
4738,-5.76
4750,-6.78
4762,-7.7
4774,-8.52
4786,-9.31
4798,-10.21
4810,-11.33
4822,-12.73
4834,-14.32
4845,-15.9
4856,-17.18
4868,-17.85
4880,-17.61
4892,-16.25
4904,-13.71
4916,-10.11
4928,-5.81
4940,-1.28
4952,2.95
4964,6.49
4976,9.16
4988,10.98
5000,12.05
5012,12.5
5024,12.4
5035,11.79
5046,10.78
5058,9.55
5070,8.36
5082,7.44
5094,6.88
5106,6.63
5118,6.53
5130,6.36
5142,6.0
5154,5.38
5166,4.53
5178,3.54
5190,2.51
5202,1.51
5214,0.55
5225,-0.39
5236,-1.38
5248,-2.53
5260,-3.91
5272,-5.58
5284,-7.54
5296,-9.74
5308,-12.08
5320,-14.41
5332,-16.48
5344,-17.99
5356,-18.6
5368,-18.05
5380,-16.24
5392,-13.28
5404,-9.5
5415,-5.36
5426,-1.32
5438,2.3
5450,5.3
5462,7.64
5474,9.36
5486,10.49
5498,11.05
5510,11.07
5522,10.63
5534,9.89
5546,9.03
5558,8.23
5570,7.57
5582,7.09
5594,6.74
5605,6.46
5616,6.25
5628,6.07
5640,5.93
5652,5.75
5664,5.44
5676,4.87
5688,3.99
5700,2.8
5712,1.39
5724,-0.14
5736,-1.72
5748,-3.31
5760,-4.93
5772,-6.64
5784,-8.49
5795,-10.52
5806,-12.68
5818,-14.84
5830,-16.74
5842,-18.01
5854,-18.29
5866,-17.27
5878,-14.89
5890,-11.36
5902,-7.14
5914,-2.81
5926,1.12
5938,4.34
5950,6.81
5962,8.69
5974,10.2
5985,11.47
5996,12.49
6008,13.13
6020,13.28
6032,12.93
6044,12.21
6056,11.39
6068,10.73
6080,10.37
6092,10.29
6104,10.36
6116,10.4
6128,10.29
6140,9.97
6152,9.52
6164,8.98
6175,8.37
6186,7.65
6198,6.78
6210,5.74
6222,4.54
6234,3.33
6246,2.21
6258,1.25
6270,0.43
6282,-0.37
6294,-1.32
6306,-2.53
6318,-4.02
6330,-5.66
6342,-7.23
6354,-8.51
6365,-9.4
6376,-9.96
6388,-10.44
6400,-11.15
6412,-12.36
6424,-14.16
6436,-16.41
6448,-18.72
6460,-20.61
6472,-21.53
6484,-21.08
6496,-19.07
6508,-15.62
6520,-11.15
6532,-6.25
6544,-1.54
6555,2.47
6566,5.51
6578,7.61
6590,8.95
6602,9.79
6614,10.35
6626,10.73
6638,10.93
6650,10.91
6662,10.71
6674,10.39
6686,10.09
6698,9.93
6710,9.96
6722,10.13
6734,10.3
6745,10.34
6756,10.17
6768,9.83
6780,9.43
6792,9.09
6804,8.83
6816,8.58
6828,8.2
6840,7.6
6852,6.77
6864,5.78
6876,4.76
6888,3.75
6900,2.75
6912,1.71
6924,0.61
6935,-0.49
6946,-1.48
6958,-2.29
6970,-2.95
6982,-3.57
6994,-4.28
7006,-5.16
7018,-6.17
7030,-7.2
7042,-8.18
7054,-9.08
7066,-9.94
7078,-10.84
7090,-11.84
7102,-12.97
7114,-14.22
7125,-15.54
7136,-16.86
7148,-17.97
7160,-18.58
7172,-18.32
7184,-16.86
7196,-14.1
7208,-10.23
7220,-5.76
7232,-1.3
7244,2.6
7256,5.62
7268,7.74
7280,9.09
7292,9.88
7304,10.24
7315,10.19
7326,9.75
7338,8.96
7350,8.02
7362,7.16
7374,6.64
7386,6.56
7398,6.88
7410,7.41
7422,7.92
7434,8.23
7446,8.28
7458,8.12
7470,7.86
7482,7.62
7494,7.42
7505,7.21
7516,6.86
7528,6.29
7540,5.49
7552,4.54
7564,3.58
7576,2.71
7588,1.95
7600,1.24
7612,0.5
7624,-0.31
7636,-1.17
7648,-2.04
7660,-2.88
7672,-3.69
7684,-4.55
7695,-5.49
7706,-6.5
7718,-7.52
7730,-8.4
7742,-9.07
7754,-9.52
7766,-9.89
7778,-10.34
7790,-11.07
7802,-12.17
7814,-13.61
7826,-15.16
7838,-16.49
7850,-17.2
7862,-16.93
7874,-15.49
7885,-12.94
7896,-9.56
7908,-5.77
7920,-2.01
7932,1.37
7944,4.14
7956,6.21
7968,7.61
7980,8.41
7992,8.74
8004,8.75
8016,8.59
8028,8.35
8040,8.09
8052,7.8
8064,7.48
8075,7.18
8086,7.01
8098,7.1
8110,7.48
8122,8.08
8134,8.65
8146,8.95
8158,8.81
8170,8.19
8182,7.24
8194,6.17
8206,5.2
8218,4.42
8230,3.86
8242,3.49
8254,3.23
8265,3.01
8276,2.73
8288,2.3
8300,1.64
8312,0.78
8324,-0.22
8336,-1.19
8348,-1.98
8360,-2.48
8372,-2.76
8384,-2.94
8396,-3.18
8408,-3.59
8420,-4.18
8432,-4.88
8444,-5.6
8455,-6.27
8466,-6.91
8478,-7.61
8490,-8.5
8502,-9.65
8514,-11.06
8526,-12.61
8538,-14.05
8550,-15.08
8562,-15.45
8574,-14.93
8586,-13.46
8598,-11.09
8610,-8.0
8622,-4.49
8634,-0.92
8645,2.35
8656,5.02
8668,6.89
8680,7.96
8692,8.32
8704,8.15
8716,7.61
8728,6.86
8740,6.02
8752,5.21
8764,4.57
8776,4.23
8788,4.26
8800,4.66
8812,5.29
8824,5.99
8835,6.58
8846,6.94
8858,7.02
8870,6.84
8882,6.45
8894,5.91
8906,5.26
8918,4.56
8930,3.83
8942,3.14
8954,2.52
8966,1.98
8978,1.5
8990,0.99
9002,0.37
9014,-0.41
9025,-1.34
9036,-2.31
9048,-3.18
9060,-3.85
9072,-4.29
9084,-4.53
9096,-4.69
9108,-4.9
9120,-5.26
9132,-5.83
9144,-6.57
9156,-7.4
9168,-8.2
9180,-8.94
9192,-9.65
9204,-10.44
9215,-11.37
9226,-12.4
9238,-13.3
9250,-13.72
9262,-13.3
9274,-11.82
9286,-9.34
9298,-6.15
9310,-2.69
9322,0.59
9334,3.34
9346,5.38
9358,6.67
9370,7.27
9382,7.3
9394,6.91
9405,6.26
9416,5.5
9428,4.77
9440,4.17
9452,3.78
9464,3.62
9476,3.68
9488,3.91
9500,4.24
9512,4.61
9524,4.96
9536,5.27
9548,5.52
9560,5.72
9572,5.85
9584,5.86
9595,5.68
9606,5.21
9618,4.4
9630,3.3
9642,2.05
9654,0.86
9666,-0.08
9678,-0.68
9690,-1.01
9702,-1.27
9714,-1.65
9726,-2.26
9738,-3.06
9750,-3.91
9762,-4.66
9774,-5.28
9785,-5.82
9796,-6.37
9808,-6.98
9820,-7.64
9832,-8.3
9844,-8.96
9856,-9.64
9868,-10.37
9880,-11.07
9892,-11.52
9904,-11.41
9916,-10.49
9928,-8.68
9940,-6.12
9952,-3.19
9964,-0.27
9975,2.27
9986,4.27
9998,5.68
10010,6.57
10022,7.03
10034,7.08
10046,6.78
10058,6.14
10070,5.26
10082,4.32
10094,3.49
10106,2.94
10118,2.75
10130,2.89
10142,3.26
10154,3.72
10165,4.12
10176,4.37
10188,4.4
10200,4.21
10212,3.87
10224,3.46
10236,3.07
10248,2.73
10260,2.4
10272,1.99
10284,1.41
10296,0.61
10308,-0.35
10320,-1.37
10332,-2.33
10344,-3.15
10355,-3.84
10366,-4.44
10378,-4.96
10390,-5.42
10402,-5.77
10414,-6.01
10426,-6.18
10438,-6.39
10450,-6.8
10462,-7.48
10474,-8.42
10486,-9.42
10498,-10.18
10510,-10.37
10522,-9.75
10534,-8.25
10545,-5.99
10556,-3.25
10568,-0.39
10580,2.27
10592,4.47
10604,6.06
10616,7.02
10628,7.37
10640,7.2
10652,6.62
10664,5.77
10676,4.81
10688,3.88
10700,3.1
10712,2.55
10724,2.24
10735,2.16
10746,2.27
10758,2.48
10770,2.74
10782,2.99
10794,3.17
10806,3.23
10818,3.13
10830,2.85
10842,2.42
10854,1.89
10866,1.34
10878,0.82
10890,0.35
10902,-0.08
10914,-0.51
10925,-0.99
10936,-1.55
10948,-2.21
10960,-3.0
10972,-3.88
10984,-4.78
10996,-5.61
11008,-6.28
11020,-6.76
11032,-7.14
11044,-7.59
11056,-8.27
11068,-9.21
11080,-10.25
11092,-11.06
11104,-11.26
11115,-10.58
11126,-8.94
11138,-6.49
11150,-3.55
11162,-0.51
11174,2.31
11186,4.68
11198,6.46
11210,7.63
11222,8.2
11234,8.21
11246,7.68
11258,6.72
11270,5.54
11282,4.39
11294,3.56
11305,3.19
11316,3.3
11328,3.7
11340,4.16
11352,4.47
11364,4.57
11376,4.53
11388,4.51
11400,4.61
11412,4.8
11424,4.89
11436,4.68
11448,4.01
11460,2.93
11472,1.62
11484,0.36
11495,-0.66
11506,-1.37
11518,-1.86
11530,-2.27
11542,-2.75
11554,-3.33
11566,-3.93
11578,-4.44
11590,-4.84
11602,-5.16
11614,-5.52
11626,-6.07
11638,-6.88
11650,-7.87
11662,-8.85
11674,-9.5
11685,-9.56
11696,-8.86
11708,-7.38
11720,-5.26
11732,-2.75
11744,-0.11
11756,2.39
11768,4.49
11780,6.01
11792,6.83
11804,6.9
11816,6.36
11828,5.4
11840,4.29
11852,3.28
11864,2.52
11875,2.1
11886,1.98
11898,2.12
11910,2.42
11922,2.83
11934,3.25
11946,3.63
11958,3.91
11970,4.03
11982,3.95
11994,3.66
12006,3.19
12018,2.59
12030,1.93
12042,1.28
12054,0.63
12065,-0.08
12076,-0.88
12088,-1.75
12100,-2.59
12112,-3.27
12124,-3.72
12136,-3.97
12148,-4.15
12160,-4.44
12172,-4.96
12184,-5.76
12196,-6.76
12208,-7.84
12220,-8.87
12232,-9.71
12244,-10.21
12255,-10.21
12266,-9.54
12278,-8.16
12290,-6.12
12302,-3.66
12314,-1.09
12326,1.29
12338,3.28
12350,4.81
12362,5.92
12374,6.64
12386,7.01
12398,7.04
12410,6.73
12422,6.15
12434,5.42
12445,4.68
12456,4.05
12468,3.6
12480,3.36
12492,3.36
12504,3.61
12516,4.05
12528,4.55
12540,4.93
12552,5.02
12564,4.75
12576,4.22
12588,3.61
12600,3.07
12612,2.68
12624,2.35
12635,1.94
12646,1.37
12658,0.62
12670,-0.21
12682,-1.02
12694,-1.77
12706,-2.46
12718,-3.16
12730,-3.91
12742,-4.68
12754,-5.47
12766,-6.23
12778,-6.99
12790,-7.76
12802,-8.53
12814,-9.19
12825,-9.55
12836,-9.38
12848,-8.48
12860,-6.77
12872,-4.35
12884,-1.49
12896,1.43
12908,4.02
12920,6.0
12932,7.21
12944,7.63
12956,7.38
12968,6.64
12980,5.62
12992,4.52
13004,3.53
13015,2.77
13026,2.34
13038,2.25
13050,2.45
13062,2.86
13074,3.34
13086,3.78
13098,4.07
13110,4.16
13122,4.01
13134,3.65
13146,3.14
13158,2.54
13170,1.94
13182,1.42
13194,1.0
13205,0.68
13216,0.39
13228,0.05
13240,-0.4
13252,-0.98
13264,-1.68
13276,-2.45
13288,-3.25
13300,-4.06
13312,-4.88
13324,-5.7
13336,-6.5
13348,-7.27
13360,-8.01
13372,-8.66
13384,-9.16
13395,-9.32
13406,-8.96
13418,-7.93
13430,-6.23
13442,-4.05
13454,-1.65
13466,0.67
13478,2.72
13490,4.43
13502,5.78
13514,6.76
13526,7.33
13538,7.41
13550,6.96
13562,6.09
13574,4.98
13585,3.92
13596,3.12
13608,2.74
13620,2.79
13632,3.17
13644,3.7
13656,4.2
13668,4.55
13680,4.68
13692,4.63
13704,4.45
13716,4.18
13728,3.85
13740,3.46
13752,3.01
13764,2.52
13775,2.02
13786,1.52
13798,1.01
13810,0.41
13822,-0.34
13834,-1.27
13846,-2.35
13858,-3.49
13870,-4.61
13882,-5.64
13894,-6.55
13906,-7.35
13918,-8.07
13930,-8.74
13942,-9.38
13954,-9.96
13965,-10.42
13976,-10.61
13988,-10.39
14000,-9.57
14012,-8.05
14024,-5.84
14036,-3.12
14048,-0.19
14060,2.58
14072,4.85
14084,6.39
14096,7.16
14108,7.22
14120,6.75
14132,5.9
14144,4.85
14155,3.78
14166,2.88
14178,2.27
14190,2.02
14202,2.07
14214,2.28
14226,2.5
14238,2.67
14250,2.83
14262,3.07
14274,3.44
14286,3.86
14298,4.2
14310,4.26
14322,3.98
14334,3.36
14345,2.53
14356,1.63
14368,0.75
14380,-0.07
14392,-0.82
14404,-1.53
14416,-2.24
14428,-2.98
14440,-3.75
14452,-4.54
14464,-5.29
14476,-5.9
14488,-6.35
14500,-6.65
14512,-6.95
14524,-7.42
14535,-8.18
14546,-9.23
14558,-10.38
14570,-11.29
14582,-11.53
14594,-10.84
14606,-9.13
14618,-6.62
14630,-3.67
14642,-0.72
14654,1.9
14666,4.03
14678,5.61
14690,6.65
14702,7.18
14714,7.2
14725,6.73
14736,5.9
14748,4.89
14760,3.92
14772,3.18
14784,2.73
14796,2.58
14808,2.67
14820,2.92
14832,3.29
14844,3.7
14856,4.08
14868,4.35
14880,4.45
14892,4.38
14904,4.14
14915,3.78
14926,3.31
14938,2.75
14950,2.12
14962,1.43
14974,0.72
14986,0.05
14998,-0.55
15010,-1.1
15022,-1.62
15034,-2.15
15046,-2.69
15058,-3.25
15070,-3.78
15082,-4.28
15094,-4.78
15105,-5.34
15116,-6.03
15128,-6.86
15140,-7.73
15152,-8.46
15164,-8.83
15176,-8.63
15188,-7.77
15200,-6.25
15212,-4.2
15224,-1.82
15236,0.66
15248,3.04
15260,5.11
15272,6.71
15284,7.76
15295,8.24
15306,8.21
15318,7.76
15330,7.06
15342,6.24
15354,5.45
15366,4.79
15378,4.35
15390,4.2
15402,4.35
15414,4.74
15426,5.27
15438,5.81
15450,6.21
15462,6.43
15474,6.41
15485,6.18
15496,5.76
15508,5.15
15520,4.37
15532,3.47
15544,2.53
15556,1.65
15568,0.92
15580,0.4
15592,0.04
15604,-0.25
15616,-0.58
15628,-1.03
15640,-1.6
15652,-2.29
15664,-3.07
15675,-3.93
15686,-4.85
15698,-5.8
15710,-6.73
15722,-7.51
15734,-7.98
15746,-8.04
15758,-7.57
15770,-6.54
15782,-5.0
15794,-3.01
15806,-0.74
15818,1.62
15830,3.85
15842,5.75
15854,7.19
15865,8.08
15876,8.4
15888,8.13
15900,7.31
15912,6.08
15924,4.64
15936,3.33
15948,2.43
15960,2.13
15972,2.46
15984,3.25
15996,4.22
16008,5.05
16020,5.5
16032,5.44
16044,4.89
16055,4.0
16066,2.97
16078,2.01
16090,1.25
16102,0.7
16114,0.26
16126,-0.19
16138,-0.77
16150,-1.51
16162,-2.39
16174,-3.34
16186,-4.28
16198,-5.14
16210,-5.84
16222,-6.39
16234,-6.82
16245,-7.25
16256,-7.78
16268,-8.49
16280,-9.37
16292,-10.33
16304,-11.24
16316,-11.88
16328,-12.04
16340,-11.52
16352,-10.17
16364,-7.99
16376,-5.16
16388,-2.04
16400,0.91
16412,3.32
16424,4.98
16435,5.91
16446,6.24
16458,6.14
16470,5.74
16482,5.13
16494,4.45
16506,3.83
16518,3.46
16530,3.42
16542,3.68
16554,4.1
16566,4.51
16578,4.77
16590,4.88
16602,4.91
16614,4.95
16625,5.01
16636,5.05
16648,4.94
16660,4.61
16672,4.04
16684,3.27
16696,2.4
16708,1.49
16720,0.55
16732,-0.4
16744,-1.36
16756,-2.29
16768,-3.14
16780,-3.83
16792,-4.35
16804,-4.73
16815,-5.05
16826,-5.41
16838,-5.91
16850,-6.62
16862,-7.53
16874,-8.57
16886,-9.55
16898,-10.2
16910,-10.25
16922,-9.51
16934,-7.95
16946,-5.74
16958,-3.19
16970,-0.67
16982,1.52
16994,3.22
17005,4.4
17016,5.16
17028,5.59
17040,5.76
17052,5.73
17064,5.52
17076,5.16
17088,4.71
17100,4.23
17112,3.83
17124,3.59
17136,3.57
17148,3.79
17160,4.16
17172,4.55
17184,4.79
17195,4.79
17206,4.55
17218,4.17
17230,3.77
17242,3.44
17254,3.18
17266,2.92
17278,2.56
17290,2.07
17302,1.45
17314,0.75
17326,0.05
17338,-0.66
17350,-1.36
17362,-2.08
17374,-2.8
17385,-3.48
17396,-4.09
17408,-4.64
17420,-5.16
17432,-5.75
17444,-6.46
17456,-7.28
17468,-8.19
17480,-9.11
17492,-9.97
17504,-10.68
17516,-11.12
17528,-11.11
17540,-10.48
17552,-9.1
17564,-6.96
17575,-4.26
17586,-1.3
17598,1.55
17610,3.95
17622,5.7
17634,6.76
17646,7.23
17658,7.23
17670,6.92
17682,6.4
17694,5.76
17706,5.11
17718,4.56
17730,4.2
17742,4.08
17754,4.18
17765,4.46
17776,4.81
17788,5.18
17800,5.49
17812,5.68
17824,5.67
17836,5.4
17848,4.87
17860,4.15
17872,3.39
17884,2.74
17896,2.26
17908,1.93
17920,1.64
17932,1.27
17944,0.74
17955,0.08
17966,-0.65
17978,-1.38
17990,-2.05
18002,-2.64
18014,-3.16
18026,-3.61
18038,-3.98
18050,-4.28
18062,-4.59
18074,-5.0
18086,-5.67
18098,-6.69
18110,-8.03
18122,-9.51
18134,-10.79
18145,-11.51
18156,-11.36
18168,-10.24
18180,-8.26
18192,-5.68
18204,-2.86
18216,-0.1
18228,2.35
18240,4.36
18252,5.83
18264,6.77
18276,7.19
18288,7.14
18300,6.71
18312,6.01
18324,5.18
18335,4.35
18346,3.66
18358,3.2
18370,3.03
18382,3.12
18394,3.4
18406,3.8
18418,4.22
18430,4.63
18442,5.0
18454,5.3
18466,5.46
18478,5.41
18490,5.1
18502,4.51
18514,3.68
18525,2.72
18536,1.77
18548,0.94
18560,0.33
18572,-0.02
18584,-0.17
18596,-0.24
18608,-0.38
18620,-0.7
18632,-1.28
18644,-2.08
18656,-3.03
18668,-3.98
18680,-4.81
18692,-5.44
18704,-5.88
18715,-6.21
18726,-6.59
18738,-7.16
18750,-8.0
18762,-9.05
18774,-10.09
18786,-10.78
18798,-10.76
18810,-9.82
18822,-7.96
18834,-5.42
18846,-2.59
18858,0.11
18870,2.37
18882,4.04
18894,5.14
18905,5.76
18916,5.99
18928,5.89
18940,5.45
18952,4.69
18964,3.7
18976,2.68
18988,1.85
19000,1.42
19012,1.45
19024,1.9
19036,2.65
19048,3.5
19060,4.28
19072,4.84
19084,5.11
19095,5.03
19106,4.65
19118,4.03
19130,3.3
19142,2.59
19154,1.99
19166,1.54
19178,1.25
19190,1.05
19202,0.91
19214,0.76
19226,0.58
19238,0.32
19250,-0.08
19262,-0.66
19274,-1.43
19285,-2.35
19296,-3.33
19308,-4.21
19320,-4.86
19332,-5.21
19344,-5.28
19356,-5.26
19368,-5.38
19380,-5.85
19392,-6.68
19404,-7.7
19416,-8.52
19428,-8.74
19440,-8.1
19452,-6.59
19464,-4.44
19475,-2.02
19486,0.31
19498,2.33
19510,3.93
19522,5.13
19534,5.9
19546,6.27
19558,6.22
19570,5.83
19582,5.23
19594,4.61
19606,4.12
19618,3.85
19630,3.78
19642,3.88
19654,4.07
19665,4.33
19676,4.65
19688,5.01
19700,5.33
19712,5.53
19724,5.5
19736,5.18
19748,4.62
19760,3.94
19772,3.25
19784,2.65
19796,2.12
19808,1.64
19820,1.16
19832,0.66
19844,0.15
19855,-0.33
19866,-0.8
19878,-1.3
19890,-1.86
19902,-2.49
19914,-3.17
19926,-3.84
19938,-4.47
19950,-5.03
19962,-5.52
19974,-5.98
19986,-6.42
19998,-6.82
20010,-7.15
20022,-7.31
20034,-7.15
20045,-6.51
20056,-5.28
20068,-3.44
20080,-1.16
20092,1.32
20104,3.66
20116,5.61
20128,6.97
20140,7.69
20152,7.79
20164,7.35
20176,6.51
20188,5.45
20200,4.37
20212,3.49
20224,2.94
20235,2.75
20246,2.86
20258,3.15
20270,3.5
20282,3.82
20294,4.04
20306,4.12
20318,3.99
20330,3.63
20342,3.06
20354,2.35
20366,1.61
20378,0.95
20390,0.36
20402,-0.19
20414,-0.78
20425,-1.45
20436,-2.16
20448,-2.83
20460,-3.4
20472,-3.88
20484,-4.37
20496,-4.9
20508,-5.47
20520,-5.97
20532,-6.32
20544,-6.54
20556,-6.79
20568,-7.31
20580,-8.25
20592,-9.6
20604,-11.07
20615,-12.28
20626,-12.82
20638,-12.44
20650,-11.11
20662,-8.96
20674,-6.28
20686,-3.41
20698,-0.65
20710,1.73
20722,3.59
20734,4.89
20746,5.67
20758,6.01
20770,5.99
20782,5.68
20794,5.12
20805,4.45
20816,3.79
20828,3.3
20840,3.09
20852,3.17
20864,3.47
20876,3.86
20888,4.24
20900,4.55
20912,4.82
20924,5.08
20936,5.3
20948,5.39
20960,5.22
20972,4.71
20984,3.85
20995,2.78
