seconds,BVP
5,-1.12
16,-0.99
27,-0.9
39,-0.81
51,-0.63
63,-0.26
75,0.35
87,1.18
99,2.16
111,3.18
123,4.14
135,5.03
147,5.92
159,6.9
171,7.98
183,9.09
195,10.07
206,10.81
217,11.3
229,11.66
241,12.1
253,12.71
265,13.45
277,14.16
289,14.65
301,14.83
313,14.8
325,14.72
337,14.78
349,15.01
361,15.38
373,15.73
385,15.98
396,16.07
407,16.05
419,15.99
431,15.99
443,16.08
455,16.26
467,16.45
479,16.46
491,16.06
503,14.95
515,12.87
527,9.65
539,5.25
551,-0.21
563,-6.34
575,-12.56
586,-18.21
597,-22.65
609,-25.49
621,-26.64
633,-26.27
645,-24.69
657,-22.14
669,-18.74
681,-14.5
693,-9.43
705,-3.69
717,2.42
729,8.38
741,13.58
753,17.45
765,19.53
776,19.59
787,17.69
799,14.1
811,9.23
823,3.51
835,-2.7
847,-9.06
859,-15.26
871,-20.95
883,-25.88
895,-29.95
907,-33.25
919,-35.98
931,-38.29
943,-40.12
955,-41.21
966,-41.35
977,-40.5
989,-38.97
1001,-37.35
1013,-36.25
1025,-35.99
1037,-36.5
1049,-37.31
1061,-37.76
1073,-37.23
1085,-35.3
1097,-31.81
1109,-26.83
1121,-20.61
1133,-13.49
1145,-5.85
1156,1.93
1167,9.49
1179,16.52
1191,22.7
1203,27.82
1215,31.71
1227,34.32
1239,35.69
1251,35.97
1263,35.35
1275,34.04
1287,32.18
1299,29.81
1311,26.96
1323,23.63
1335,19.95
1346,16.13
1357,12.44
1369,9.14
1381,6.36
1393,4.02
1405,1.88
1417,-0.36
1429,-2.92
1441,-5.82
1453,-8.86
1465,-11.71
1477,-14.07
1489,-15.74
1501,-16.75
1513,-17.26
1525,-17.51
1536,-17.66
1547,-17.79
1559,-17.86
1571,-17.78
1583,-17.43
1595,-16.77
1607,-15.76
1619,-14.38
1631,-12.64
1643,-10.59
1655,-8.34
1667,-6.05
1679,-3.88
1691,-1.92
1703,-0.24
1715,1.16
1726,2.26
1737,3.03
1749,3.47
1761,3.63
1773,3.61
1785,3.56
1797,3.61
1809,3.81
1821,4.12
1833,4.46
1845,4.73
1857,4.89
1869,4.93
1881,4.9
1893,4.81
1905,4.69
1916,4.6
1927,4.6
1939,4.76
1951,5.13
1963,5.71
1975,6.44
1987,7.24
1999,8.02
2011,8.64
2023,9.03
2035,9.11
2047,8.87
2059,8.39
2071,7.86
2083,7.42
2095,7.19
2106,7.11
2117,7.03
2129,6.76
2141,6.23
2153,5.51
2165,4.78
2177,4.27
2189,4.0
2201,3.88
2213,3.67
2225,3.18
2237,2.37
2249,1.4
2261,0.56
2273,0.1
2285,0.1
2296,0.51
2307,1.12
2319,1.74
2331,2.26
2343,2.64
2355,2.9
2367,3.02
2379,2.93
2391,2.58
2403,1.97
2415,1.26
2427,0.66
2439,0.37
2451,0.47
2463,0.8
2475,1.15
2486,1.3
2497,1.15
2509,0.76
2521,0.28
2533,-0.17
2545,-0.52
2557,-0.79
2569,-1.05
2581,-1.35
2593,-1.68
2605,-1.98
2617,-2.18
2629,-2.23
2641,-2.11
2653,-1.86
2665,-1.52
2676,-1.13
2687,-0.7
2699,-0.22
2711,0.36
2723,1.0
2735,1.62
2747,2.08
2759,2.27
2771,2.2
2783,1.96
2795,1.74
2807,1.66
2819,1.77
2831,2.02
2843,2.28
2855,2.47
2866,2.54
2877,2.46
2889,2.23
2901,1.85
2913,1.41
2925,1.02
2937,0.86
2949,1.05
2961,1.59
2973,2.36
2985,3.14
2997,3.79
3009,4.27
3021,4.65
3033,5.08
3045,5.61
3056,6.23
3067,6.78
3079,7.12
3091,7.2
3103,7.07
3115,6.85
3127,6.65
3139,6.54
3151,6.49
3163,6.45
3175,6.31
3187,6.03
3199,5.59
3211,5.03
3223,4.47
3235,4.01
3246,3.72
3257,3.58
3269,3.47
3281,3.26
3293,2.86
3305,2.32
3317,1.81
3329,1.56
3341,1.72
3353,2.33
3365,3.24
3377,4.27
3389,5.28
3401,6.21
3413,7.06
3425,7.85
3436,8.55
3447,9.09
3459,9.43
3471,9.57
3483,9.6
3495,9.61
3507,9.71
3519,9.93
3531,10.3
3543,10.77
3555,11.36
3567,12.05
3579,12.8
3591,13.56
3603,14.23
3615,14.72
3626,15.03
3637,15.26
3649,15.62
3661,16.3
3673,17.47
3685,19.06
3697,20.84
3709,22.39
3721,23.26
3733,23.15
3745,21.98
3757,19.97
3769,17.57
3781,15.31
3793,13.65
3805,12.8
3816,12.8
3827,13.5
3839,14.78
3851,16.53
3863,18.7
3875,21.2
3887,23.8
3899,26.14
3911,27.78
3923,28.35
3935,27.66
3947,25.7
3959,22.6
3971,18.51
3983,13.52
3995,7.64
4006,0.94
4017,-6.4
4029,-14.09
4041,-21.72
4053,-28.92
4065,-35.4
4077,-41.02
4089,-45.69
4101,-49.34
4113,-51.87
4125,-53.27
4137,-53.64
4149,-53.17
4161,-52.14
4173,-50.7
4185,-48.82
4196,-46.37
4207,-43.23
4219,-39.39
4231,-35.13
4243,-30.83
4255,-26.93
4267,-23.72
4279,-21.3
4291,-19.63
4303,-18.57
4315,-18.04
4327,-17.95
4339,-18.2
4351,-18.7
4363,-19.3
4375,-19.91
4386,-20.4
4397,-20.75
4409,-20.92
4421,-20.92
4433,-20.75
4445,-20.36
4457,-19.65
4469,-18.47
4481,-16.68
4493,-14.23
4505,-11.19
4517,-7.73
4529,-4.09
4541,-0.47
4553,2.98
4565,6.23
4576,9.31
4587,12.22
4599,14.92
4611,17.24
4623,19.05
4635,20.22
4647,20.74
4659,20.7
4671,20.27
4683,19.63
4695,18.91
4707,18.19
4719,17.56
4731,17.12
4743,17.0
4755,17.34
4766,18.15
4777,19.31
4789,20.57
4801,21.71
4813,22.59
4825,23.27
4837,23.94
4849,24.73
4861,25.7
4873,26.66
4885,27.35
4897,27.54
4909,27.16
4921,26.37
4933,25.38
4945,24.37
4956,23.33
4967,22.01
4979,20.07
4991,17.18
5003,13.19
5015,8.22
5027,2.58
5039,-3.29
5051,-9.04
5063,-14.37
5075,-19.07
5087,-23.0
5099,-25.98
5111,-27.86
5123,-28.57
5135,-28.12
5146,-26.66
5157,-24.44
5169,-21.73
5181,-18.8
5193,-15.89
5205,-13.15
5217,-10.63
5229,-8.31
5241,-6.1
5253,-3.88
5265,-1.64
5277,0.55
5289,2.54
5301,4.18
5313,5.42
5325,6.35
5336,7.13
5347,7.9
5359,8.75
5371,9.66
5383,10.58
5395,11.47
5407,12.33
5419,13.19
5431,14.09
5443,14.99
5455,15.87
5467,16.71
5479,17.53
5491,18.38
5503,19.23
5515,20.0
5526,20.54
5537,20.7
5549,20.51
5561,20.12
5573,19.79
5585,19.74
5597,20.04
5609,20.57
5621,21.07
5633,21.26
5645,20.98
5657,20.25
5669,19.16
5681,17.87
5693,16.43
5705,14.9
5716,13.27
5727,11.57
5739,9.8
5751,7.9
5763,5.72
5775,3.05
5787,-0.26
5799,-4.23
5811,-8.64
5823,-13.17
5835,-17.54
5847,-21.58
5859,-25.32
5871,-28.87
5883,-32.28
5895,-35.44
5906,-38.13
5917,-40.1
5929,-41.2
5941,-41.44
5953,-40.98
5965,-40.02
5977,-38.76
5989,-37.33
6001,-35.75
6013,-33.98
6025,-31.94
6037,-29.55
6049,-26.87
6061,-24.05
6073,-21.32
6085,-18.91
6096,-16.94
6107,-15.37
6119,-14.04
6131,-12.77
6143,-11.42
6155,-9.93
6167,-8.35
6179,-6.78
6191,-5.34
6203,-4.14
6215,-3.26
6227,-2.74
6239,-2.52
6251,-2.48
6263,-2.51
6275,-2.49
6286,-2.4
6297,-2.25
6309,-2.07
6321,-1.9
6333,-1.73
6345,-1.54
6357,-1.32
6369,-1.08
6381,-0.87
6393,-0.73
6405,-0.71
6417,-0.83
6429,-1.05
6441,-1.24
6453,-1.25
6465,-0.98
6476,-0.39
6487,0.42
6499,1.25
6511,1.95
6523,2.41
6535,2.65
6547,2.76
6559,2.83
6571,2.9
6583,2.99
6595,3.08
6607,3.18
6619,3.3
6631,3.47
6643,3.65
6655,3.81
6666,3.91
6677,3.94
6689,3.91
6701,3.85
6713,3.77
6725,3.65
6737,3.43
6749,3.05
6761,2.45
6773,1.61
6785,0.61
6797,-0.43
6809,-1.29
6821,-1.83
6833,-2.0
6845,-1.89
6856,-1.71
6867,-1.69
6879,-1.97
6891,-2.49
6903,-3.09
6915,-3.53
6927,-3.69
6939,-3.55
6951,-3.21
6963,-2.77
6975,-2.24
6987,-1.56
6999,-0.71
7011,0.24
7023,1.04
7035,1.42
7046,1.22
7057,0.5
7069,-0.42
7081,-1.15
7093,-1.41
7105,-1.17
7117,-0.63
7129,-0.13
7141,0.1
7153,0.01
7165,-0.28
7177,-0.57
7189,-0.7
7201,-0.62
7213,-0.37
7225,-0.03
7236,0.38
7247,0.85
7259,1.45
7271,2.2
7283,3.05
7295,3.88
7307,4.54
7319,4.89
7331,4.93
7343,4.77
7355,4.61
7367,4.64
7379,4.96
7391,5.46
7403,5.94
7415,6.16
7426,5.97
7437,5.4
7449,4.59
7461,3.76
7473,3.06
7485,2.54
7497,2.14
7509,1.74
7521,1.28
7533,0.75
7545,0.18
7557,-0.38
7569,-0.91
7581,-1.4
7593,-1.85
7605,-2.31
7616,-2.77
7627,-3.25
7639,-3.75
7651,-4.24
7663,-4.65
7675,-4.91
7687,-4.99
7699,-4.89
7711,-4.66
7723,-4.38
7735,-4.08
7747,-3.78
7759,-3.48
7771,-3.21
7783,-3.08
7795,-3.16
7806,-3.52
7817,-4.06
7829,-4.62
7841,-5.0
7853,-5.09
7865,-4.91
7877,-4.62
7889,-4.41
7901,-4.37
7913,-4.49
7925,-4.6
7937,-4.51
7949,-4.1
7961,-3.37
7973,-2.44
7985,-1.48
7996,-0.64
8007,-0.02
8019,0.37
8031,0.55
8043,0.59
8055,0.56
8067,0.53
8079,0.54
8091,0.6
8103,0.71
8115,0.85
8127,0.96
8139,1.01
8151,0.99
8163,0.94
8175,0.93
8186,1.0
8197,1.17
8209,1.4
8221,1.62
8233,1.76
8245,1.83
8257,1.84
8269,1.9
8281,2.08
8293,2.39
8305,2.78
8317,3.19
8329,3.61
8341,4.08
8353,4.68
8365,5.42
8376,6.23
8387,6.94
8399,7.43
8411,7.63
8423,7.63
8435,7.61
8447,7.71
8459,8.01
8471,8.44
8483,8.88
8495,9.2
8507,9.37
8519,9.46
8531,9.6
8543,9.88
8555,10.33
8566,10.84
8577,11.28
8589,11.51
8601,11.51
8613,11.35
8625,11.17
8637,11.06
8649,11.05
8661,11.05
8673,10.89
8685,10.45
8697,9.69
8709,8.65
8721,7.4
8733,6.01
8745,4.52
8756,2.94
8767,1.31
8779,-0.29
8791,-1.75
8803,-3.03
8815,-4.16
8827,-5.25
8839,-6.39
8851,-7.6
8863,-8.81
8875,-9.85
8887,-10.59
8899,-10.98
8911,-11.13
8923,-11.21
8935,-11.39
8946,-11.74
8957,-12.14
8969,-12.38
8981,-12.22
8993,-11.52
9005,-10.31
9017,-8.76
9029,-7.1
9041,-5.51
9053,-4.1
9065,-2.86
9077,-1.78
9089,-0.89
9101,-0.25
9113,0.07
9125,0.1
9136,-0.04
9147,-0.12
9159,0.03
9171,0.46
9183,1.02
9195,1.47
9207,1.58
9219,1.29
9231,0.72
9243,0.14
9255,-0.19
9267,-0.16
9279,0.21
9291,0.71
9303,1.17
9315,1.44
9326,1.51
9337,1.44
9349,1.26
9361,0.93
9373,0.37
9385,-0.53
9397,-1.75
9409,-3.19
9421,-4.63
9433,-5.87
9445,-6.83
9457,-7.55
9469,-8.16
9481,-8.81
9493,-9.56
9505,-10.4
9516,-11.25
9527,-12.04
9539,-12.7
9551,-13.11
9563,-13.11
9575,-12.53
9587,-11.27
9599,-9.37
9611,-7.06
9623,-4.7
9635,-2.6
9647,-0.89
9659,0.45
9671,1.55
9683,2.55
9695,3.44
9706,4.15
9717,4.61
9729,4.83
9741,4.89
9753,4.88
9765,4.8
9777,4.57
9789,4.04
9801,3.16
9813,2.05
9825,0.94
9837,0.09
9849,-0.38
9861,-0.5
9873,-0.45
9885,-0.4
9896,-0.45
9907,-0.57
9919,-0.63
9931,-0.51
9943,-0.19
9955,0.27
9967,0.73
9979,1.1
9991,1.36
10003,1.6
10015,1.95
10027,2.48
10039,3.16
10051,3.84
10063,4.33
10075,4.52
10086,4.4
10097,4.11
10109,3.81
10121,3.63
10133,3.58
10145,3.55
10157,3.42
10169,3.08
10181,2.52
10193,1.81
10205,1.04
10217,0.33
10229,-0.2
10241,-0.46
10253,-0.43
10265,-0.17
10276,0.18
10287,0.47
10299,0.6
10311,0.55
10323,0.4
10335,0.22
10347,0.1
10359,0.06
10371,0.08
10383,0.14
10395,0.23
10407,0.39
10419,0.62
10431,0.9
10443,1.15
10455,1.31
10466,1.34
10477,1.27
10489,1.13
10501,0.99
10513,0.88
10525,0.8
10537,0.73
10549,0.63
10561,0.48
10573,0.29
10585,0.12
10597,0.03
10609,0.1
10621,0.38
10633,0.81
10645,1.32
10656,1.8
10667,2.16
10679,2.4
10691,2.58
10703,2.79
10715,3.1
10727,3.44
10739,3.74
10751,3.9
10763,3.89
10775,3.8
10787,3.74
10799,3.81
10811,4.03
10823,4.35
10835,4.64
10846,4.77
10857,4.67
10869,4.36
10881,3.89
10893,3.4
10905,3.04
10917,2.91
10929,3.12
10941,3.67
10953,4.52
10965,5.55
10977,6.56
10989,7.38
11001,7.89
11013,8.07
11025,7.99
11036,7.79
11047,7.59
11059,7.41
11071,7.22
11083,6.89
11095,6.33
11107,5.56
11119,4.71
11131,4.0
11143,3.59
11155,3.48
11167,3.5
11179,3.41
11191,3.0
11203,2.22
11215,1.23
11226,0.27
11237,-0.43
11249,-0.73
11261,-0.7
11273,-0.42
11285,-0.01
11297,0.46
11309,0.98
11321,1.5
11333,2.0
11345,2.38
11357,2.58
11369,2.57
11381,2.37
11393,2.06
11405,1.69
11416,1.32
11427,0.99
11439,0.72
11451,0.52
11463,0.4
11475,0.36
11487,0.35
11499,0.32
11511,0.17
11523,-0.13
11535,-0.54
11547,-0.96
11559,-1.33
11571,-1.57
11583,-1.73
11595,-1.91
11606,-2.22
11617,-2.69
11629,-3.31
11641,-3.98
11653,-4.65
11665,-5.24
11677,-5.72
11689,-6.01
11701,-6.03
11713,-5.75
11725,-5.26
11737,-4.74
11749,-4.46
11761,-4.58
11773,-5.13
11785,-5.88
11796,-6.52
11807,-6.8
11819,-6.61
11831,-6.06
11843,-5.37
11855,-4.73
11867,-4.22
11879,-3.82
11891,-3.46
11903,-3.09
11915,-2.74
11927,-2.43
11939,-2.16
11951,-1.89
11963,-1.56
11975,-1.19
11986,-0.84
11997,-0.62
12009,-0.62
12021,-0.82
12033,-1.11
12045,-1.4
12057,-1.59
12069,-1.67
12081,-1.64
12093,-1.51
12105,-1.28
12117,-0.96
12129,-0.62
12141,-0.38
12153,-0.39
12165,-0.66
12176,-1.11
12187,-1.55
12199,-1.74
12211,-1.54
12223,-0.98
12235,-0.25
12247,0.37
12259,0.66
12271,0.58
12283,0.25
12295,-0.07
12307,-0.16
12319,0.02
12331,0.36
12343,0.62
12355,0.57
12366,0.16
12377,-0.48
12389,-1.1
12401,-1.47
12413,-1.48
12425,-1.22
12437,-0.92
12449,-0.8
12461,-1.0
12473,-1.5
12485,-2.18
12497,-2.93
12509,-3.64
12521,-4.3
12533,-4.92
12545,-5.49
12556,-6.02
12567,-6.48
12579,-6.89
12591,-7.22
12603,-7.46
12615,-7.56
12627,-7.44
12639,-7.05
12651,-6.38
12663,-5.54
12675,-4.66
12687,-3.87
12699,-3.22
12711,-2.67
12723,-2.16
12735,-1.61
12746,-1.0
12757,-0.36
12769,0.27
12781,0.83
12793,1.26
12805,1.52
12817,1.61
12829,1.51
12841,1.29
12853,0.97
12865,0.59
12877,0.14
12889,-0.41
12901,-1.02
12913,-1.61
12925,-2.07
12936,-2.25
12947,-2.11
12959,-1.69
12971,-1.14
12983,-0.61
12995,-0.19
13007,0.09
13019,0.33
13031,0.63
13043,1.04
13055,1.53
13067,2.05
13079,2.57
13091,3.08
13103,3.59
13115,4.13
13126,4.65
13137,5.11
13149,5.51
13161,5.84
13173,6.14
13185,6.42
13197,6.66
13209,6.79
13221,6.78
13233,6.62
13245,6.39
13257,6.21
13269,6.15
13281,6.23
13293,6.41
13305,6.61
13316,6.78
13327,6.92
13339,7.01
13351,7.04
13363,6.98
13375,6.82
13387,6.58
13399,6.34
13411,6.18
13423,6.17
13435,6.3
13447,6.54
13459,6.8
13471,6.95
13483,6.91
13495,6.6
13506,6.01
13517,5.24
13529,4.42
13541,3.72
13553,3.25
13565,3.0
13577,2.9
13589,2.8
13601,2.58
13613,2.22
13625,1.77
13637,1.36
13649,1.1
13661,1.03
13673,1.13
13685,1.34
13696,1.6
13707,1.9
13719,2.27
13731,2.73
13743,3.27
13755,3.84
13767,4.35
13779,4.74
13791,5.02
13803,5.22
13815,5.36
13827,5.43
13839,5.39
13851,5.16
13863,4.76
13875,4.26
13886,3.81
13897,3.55
13909,3.51
13921,3.58
13933,3.61
13945,3.42
13957,2.95
13969,2.23
13981,1.35
13993,0.47
14005,-0.34
14017,-1.01
14029,-1.54
14041,-1.96
14053,-2.28
14065,-2.54
14076,-2.78
14087,-3.06
14099,-3.4
14111,-3.76
14123,-4.05
14135,-4.16
14147,-4.06
14159,-3.79
14171,-3.49
14183,-3.27
14195,-3.19
14207,-3.21
14219,-3.23
14231,-3.19
14243,-3.16
14255,-3.26
14266,-3.62
14277,-4.23
14289,-4.93
14301,-5.46
14313,-5.61
14325,-5.36
14337,-4.89
14349,-4.47
14361,-4.29
14373,-4.37
14385,-4.55
14397,-4.6
14409,-4.38
14421,-3.91
14433,-3.37
14445,-2.98
14456,-2.88
14467,-3.05
14479,-3.33
14491,-3.51
14503,-3.46
14515,-3.16
14527,-2.76
14539,-2.43
14551,-2.34
14563,-2.51
14575,-2.84
14587,-3.16
14599,-3.35
14611,-3.33
14623,-3.17
14635,-2.94
14646,-2.68
14657,-2.43
14669,-2.18
14681,-1.92
14693,-1.63
14705,-1.3
14717,-0.89
14729,-0.39
14741,0.22
14753,0.86
14765,1.44
14777,1.87
14789,2.13
14801,2.26
14813,2.33
14825,2.41
14836,2.53
14847,2.69
14859,2.89
14871,3.14
14883,3.46
14895,3.8
14907,4.03
14919,4.02
14931,3.65
14943,2.92
14955,2.01
14967,1.14
14979,0.56
14991,0.39
15003,0.53
15015,0.78
15026,0.88
15037,0.65
15049,0.12
15061,-0.52
15073,-1.0
15085,-1.15
15097,-0.92
15109,-0.42
15121,0.17
15133,0.71
15145,1.15
15157,1.53
15169,1.87
15181,2.14
15193,2.27
15205,2.12
15216,1.65
15227,0.93
15239,0.15
15251,-0.49
15263,-0.87
15275,-1.01
15287,-1.08
15299,-1.26
15311,-1.66
15323,-2.24
15335,-2.82
15347,-3.24
15359,-3.37
15371,-3.26
15383,-3.03
15395,-2.87
15406,-2.87
15417,-3.04
15429,-3.3
15441,-3.59
15453,-3.9
15465,-4.29
15477,-4.9
15489,-5.82
15501,-7.04
15513,-8.47
15525,-9.91
15537,-11.22
15549,-12.35
15561,-13.39
15573,-14.47
15585,-15.71
15596,-17.12
15607,-18.59
15619,-19.97
15631,-21.16
15643,-22.12
15655,-22.88
15667,-23.43
15679,-23.7
15691,-23.57
15703,-22.93
15715,-21.72
15727,-19.98
15739,-17.79
15751,-15.27
15763,-12.56
15775,-9.82
15786,-7.23
15797,-4.98
15809,-3.14
15821,-1.59
15833,-0.12
15845,1.56
15857,3.53
15869,5.64
15881,7.55
15893,8.88
15905,9.45
15917,9.31
15929,8.7
15941,7.85
15953,6.91
15965,5.89
15976,4.82
15987,3.75
15999,2.85
16011,2.32
16023,2.26
16035,2.65
16047,3.32
16059,4.06
16071,4.73
16083,5.29
16095,5.81
16107,6.42
16119,7.23
16131,8.2
16143,9.2
16155,9.99
16166,10.36
16177,10.22
16189,9.66
16201,8.89
16213,8.13
16225,7.55
16237,7.17
16249,6.95
16261,6.78
16273,6.58
16285,6.29
16297,5.86
16309,5.26
16321,4.5
16333,3.64
16345,2.78
16356,2.05
16367,1.53
16379,1.25
16391,1.15
16403,1.12
16415,1.03
16427,0.81
16439,0.43
16451,-0.05
16463,-0.49
16475,-0.78
16487,-0.82
16499,-0.6
16511,-0.24
16523,0.17
16535,0.52
16546,0.81
16557,1.04
16569,1.24
16581,1.4
16593,1.49
16605,1.51
16617,1.48
16629,1.45
16641,1.5
16653,1.64
16665,1.87
16677,2.18
16689,2.54
16701,2.96
16713,3.41
16725,3.88
16736,4.34
16747,4.79
16759,5.26
16771,5.77
16783,6.33
16795,6.91
16807,7.38
16819,7.61
16831,7.5
16843,7.08
16855,6.46
16867,5.84
16879,5.41
16891,5.31
16903,5.55
16915,6.05
16926,6.67
16937,7.27
16949,7.75
16961,8.07
16973,8.23
16985,8.25
16997,8.15
17009,7.95
17021,7.68
17033,7.4
17045,7.18
17057,7.06
17069,7.0
17081,6.91
17093,6.63
17105,6.05
17116,5.14
17127,3.96
17139,2.67
17151,1.51
17163,0.64
17175,0.2
17187,0.16
17199,0.44
17211,0.84
17223,1.17
17235,1.25
17247,1.0
17259,0.49
17271,-0.11
17283,-0.6
17295,-0.84
17306,-0.83
17317,-0.74
17329,-0.76
17341,-1.07
17353,-1.68
17365,-2.52
17377,-3.46
17389,-4.42
17401,-5.42
17413,-6.51
17425,-7.71
17437,-8.89
17449,-9.83
17461,-10.31
17473,-10.29
17485,-9.92
17496,-9.47
17507,-9.24
17519,-9.3
17531,-9.56
17543,-9.79
17555,-9.78
17567,-9.46
17579,-8.87
17591,-8.13
17603,-7.34
17615,-6.53
17627,-5.72
17639,-4.93
17651,-4.23
17663,-3.71
17675,-3.42
17686,-3.32
17697,-3.26
17709,-3.12
17721,-2.82
17733,-2.39
17745,-1.95
17757,-1.6
17769,-1.38
17781,-1.27
17793,-1.2
17805,-1.15
17817,-1.13
17829,-1.19
17841,-1.34
17853,-1.56
17865,-1.77
17876,-1.84
17887,-1.69
17899,-1.3
17911,-0.71
17923,-0.02
17935,0.71
17947,1.4
17959,2.02
17971,2.58
17983,3.07
17995,3.52
18007,3.89
18019,4.16
18031,4.29
18043,4.26
18055,4.09
18066,3.83
18077,3.55
18089,3.28
18101,3.05
18113,2.92
18125,2.91
18137,3.01
18149,3.19
18161,3.32
18173,3.3
18185,3.06
18197,2.6
18209,2.02
18221,1.39
18233,0.8
18245,0.27
18256,-0.14
18267,-0.38
18279,-0.39
18291,-0.14
18303,0.3
18315,0.82
18327,1.23
18339,1.4
18351,1.33
18363,1.14
18375,0.98
18387,0.96
18399,1.09
18411,1.25
18423,1.33
18435,1.26
18446,1.03
18457,0.76
18469,0.56
18481,0.53
18493,0.67
18505,0.91
18517,1.15
18529,1.32
18541,1.39
18553,1.39
18565,1.39
18577,1.42
18589,1.44
18601,1.36
18613,1.14
18625,0.8
18636,0.43
18647,0.15
18659,0.04
18671,0.06
18683,0.13
18695,0.16
18707,0.16
18719,0.26
18731,0.61
18743,1.27
18755,2.2
18767,3.2
18779,4.05
18791,4.61
18803,4.87
18815,4.93
18826,4.92
18837,4.94
18849,5.04
18861,5.19
18873,5.38
18885,5.53
18897,5.59
18909,5.56
18921,5.46
18933,5.35
18945,5.29
18957,5.27
18969,5.2
18981,4.94
18993,4.36
19005,3.46
19016,2.34
19027,1.2
19039,0.24
19051,-0.4
19063,-0.71
19075,-0.78
19087,-0.74
19099,-0.73
19111,-0.84
19123,-1.14
19135,-1.63
19147,-2.21
19159,-2.78
19171,-3.18
19183,-3.39
19195,-3.44
19206,-3.52
19217,-3.79
19229,-4.33
19241,-5.07
19253,-5.82
19265,-6.37
19277,-6.65
19289,-6.71
19301,-6.7
19313,-6.78
19325,-7.01
19337,-7.38
19349,-7.8
19361,-8.19
19373,-8.52
19385,-8.71
19396,-8.7
19407,-8.39
19419,-7.77
19431,-6.89
19443,-5.93
19455,-5.11
19467,-4.57
19479,-4.34
19491,-4.3
19503,-4.24
19515,-4.01
19527,-3.55
19539,-2.86
19551,-2.03
19563,-1.19
19575,-0.42
19586,0.16
19597,0.46
19609,0.46
19621,0.23
19633,-0.1
19645,-0.33
19657,-0.29
19669,0.03
19681,0.53
19693,0.98
19705,1.15
19717,0.92
19729,0.33
19741,-0.44
19753,-1.18
19765,-1.65
19776,-1.76
19787,-1.49
19799,-0.91
19811,-0.15
19823,0.67
19835,1.46
19847,2.19
19859,2.83
19871,3.38
19883,3.78
19895,3.96
19907,3.85
19919,3.46
19931,2.87
19943,2.19
19955,1.51
19966,0.87
19977,0.25
19989,-0.4
20001,-1.03
20013,-1.55
20025,-1.89
20037,-2.01
20049,-1.99
20061,-2.02
20073,-2.25
20085,-2.74
20097,-3.41
20109,-4.06
20121,-4.55
20133,-4.78
20145,-4.8
20156,-4.73
20167,-4.67
20179,-4.63
20191,-4.6
20203,-4.49
20215,-4.25
20227,-3.88
20239,-3.44
20251,-3.08
20263,-2.94
20275,-3.1
20287,-3.57
20299,-4.22
20311,-4.94
20323,-5.6
20335,-6.17
20346,-6.7
20357,-7.3
20369,-8.09
20381,-9.13
20393,-10.37
20405,-11.69
20417,-12.93
20429,-13.96
20441,-14.71
20453,-15.2
20465,-15.49
20477,-15.71
20489,-15.94
20501,-16.25
20513,-16.54
20525,-16.67
20536,-16.41
20547,-15.62
20559,-14.21
20571,-12.23
20583,-9.82
20595,-7.16
20607,-4.43
20619,-1.81
20631,0.59
20643,2.7
20655,4.55
20667,6.23
20679,7.88
20691,9.57
20703,11.33
20715,13.06
20726,14.62
20737,15.89
20749,16.76
20761,17.23
20773,17.36
20785,17.21
20797,16.89
20809,16.49
20821,16.13
20833,15.86
20845,15.67
20857,15.47
20869,15.14
20881,14.56
20893,13.72
20905,12.7
20916,11.66
20927,10.77
20939,10.11
20951,9.66
20963,9.29
20975,8.84
20987,8.13
20999,7.12
