seconds,BVP
0,12.73
12,11.04
24,9.3
36,7.91
48,7.21
60,7.28
72,7.96
84,8.88
96,9.62
108,9.87
119,9.56
130,8.77
142,7.7
154,6.51
166,5.23
178,3.81
190,2.16
202,0.19
214,-2.13
226,-4.8
238,-7.85
250,-11.21
262,-14.68
274,-17.83
286,-20.03
298,-20.64
309,-19.23
320,-15.75
332,-10.62
344,-4.56
356,1.63
368,7.25
380,11.89
392,15.36
404,17.65
416,18.77
428,18.74
440,17.65
452,15.71
464,13.26
476,10.76
488,8.7
499,7.4
510,6.98
522,7.3
534,8.03
546,8.73
558,9.09
570,8.95
582,8.34
594,7.4
606,6.28
618,5.05
630,3.69
642,2.1
654,0.22
666,-2.04
678,-4.68
689,-7.67
700,-10.81
712,-13.79
724,-16.13
736,-17.29
748,-16.83
760,-14.57
772,-10.73
784,-5.81
796,-0.44
808,4.79
820,9.45
832,13.26
844,15.99
856,17.46
868,17.6
879,16.47
890,14.35
902,11.72
914,9.1
926,6.96
938,5.57
950,5.04
962,5.23
974,5.89
986,6.69
998,7.3
1010,7.5
1022,7.18
1034,6.41
1046,5.34
1058,4.11
1069,2.8
1080,1.4
1092,-0.17
1104,-2.01
1116,-4.2
1128,-6.76
1140,-9.59
1152,-12.45
1164,-14.9
1176,-16.41
1188,-16.42
1200,-14.64
1212,-11.11
1224,-6.28
1236,-0.8
1248,4.6
1259,9.32
1270,12.99
1282,15.41
1294,16.54
1306,16.43
1318,15.26
1330,13.32
1342,11.0
1354,8.72
1366,6.81
1378,5.48
1390,4.75
1402,4.51
1414,4.56
1426,4.69
1438,4.72
1449,4.54
1460,4.09
1472,3.37
1484,2.44
1496,1.41
1508,0.33
1520,-0.81
1532,-2.16
1544,-3.95
1556,-6.4
1568,-9.61
1580,-13.39
1592,-17.26
1604,-20.52
1616,-22.41
1628,-22.37
1639,-20.22
1650,-16.16
1662,-10.76
1674,-4.7
1686,1.31
1698,6.69
1710,11.06
1722,14.16
1734,15.93
1746,16.41
1758,15.77
1770,14.27
1782,12.23
1794,10.01
1806,7.96
1818,6.43
1829,5.61
1840,5.56
1852,6.1
1864,6.87
1876,7.43
1888,7.47
1900,6.87
1912,5.76
1924,4.43
1936,3.12
1948,1.93
1960,0.72
1972,-0.75
1984,-2.79
1996,-5.57
2008,-9.07
2019,-13.08
2030,-17.12
2042,-20.58
2054,-22.83
2066,-23.31
2078,-21.76
2090,-18.27
2102,-13.26
2114,-7.36
2126,-1.26
2138,4.44
2150,9.32
2162,13.12
2174,15.67
2186,16.89
2198,16.82
2209,15.62
2220,13.62
2232,11.28
2244,9.11
2256,7.52
2268,6.74
2280,6.79
2292,7.5
2304,8.58
2316,9.72
2328,10.68
2340,11.26
2352,11.36
2364,10.91
2376,9.92
2388,8.4
2399,6.45
2410,4.16
2422,1.64
2434,-1.07
2446,-3.97
2458,-7.06
2470,-10.37
2482,-13.74
2494,-16.91
2506,-19.39
2518,-20.66
2530,-20.28
2542,-18.06
2554,-14.13
2566,-8.96
2578,-3.22
2589,2.41
2600,7.37
2612,11.26
2624,13.9
2636,15.23
2648,15.38
2660,14.6
2672,13.24
2684,11.68
2696,10.22
2708,9.06
2720,8.24
2732,7.79
2744,7.69
2756,7.93
2768,8.41
2779,8.92
2790,9.14
2802,8.79
2814,7.76
2826,6.18
2838,4.35
2850,2.62
2862,1.17
2874,-0.03
2886,-1.17
2898,-2.45
2910,-4.01
2922,-5.86
2934,-8.02
2946,-10.51
2958,-13.31
2969,-16.25
2980,-18.9
2992,-20.55
3004,-20.52
3016,-18.37
3028,-14.2
3040,-8.6
3052,-2.5
3064,3.23
3076,7.98
3088,11.54
3100,13.91
3112,15.18
3124,15.41
3136,14.63
3148,12.98
3159,10.79
3170,8.49
3182,6.53
3194,5.2
3206,4.56
3218,4.52
3230,4.88
3242,5.46
3254,6.14
3266,6.82
3278,7.38
3290,7.71
3302,7.68
3314,7.23
3326,6.35
3338,5.12
3349,3.71
3360,2.26
3372,0.84
3384,-0.55
3396,-2.06
3408,-3.91
3420,-6.24
3432,-9.04
3444,-11.98
3456,-14.5
3468,-15.95
3480,-15.82
3492,-13.94
3504,-10.51
3516,-6.08
3528,-1.33
3539,3.11
3550,6.79
3562,9.47
3574,11.08
3586,11.66
3598,11.28
3610,10.07
3622,8.25
3634,6.1
3646,4.01
3658,2.33
3670,1.31
3682,1.0
3694,1.28
3706,1.86
3718,2.48
3729,2.9
3740,3.06
3752,2.92
3764,2.47
3776,1.68
3788,0.55
3800,-0.86
3812,-2.41
3824,-3.92
3836,-5.3
3848,-6.58
3860,-7.96
3872,-9.67
3884,-11.86
3896,-14.47
3908,-17.15
3919,-19.35
3930,-20.53
3942,-20.32
3954,-18.66
3966,-15.81
3978,-12.24
3990,-8.47
4002,-4.91
4014,-1.8
4026,0.77
4038,2.74
4050,4.03
4062,4.57
4074,4.31
4086,3.32
4098,1.89
4109,0.39
4120,-0.81
4132,-1.49
4144,-1.64
4156,-1.41
4168,-1.05
4180,-0.77
4192,-0.67
4204,-0.71
4216,-0.8
4228,-0.88
4240,-0.94
4252,-1.05
4264,-1.34
4276,-1.92
4288,-2.89
4299,-4.29
4310,-6.11
4322,-8.22
4334,-10.35
4346,-12.08
4358,-12.93
4370,-12.55
4382,-10.87
4394,-8.22
4406,-5.21
4418,-2.51
4430,-0.63
4442,0.26
4454,0.3
4466,-0.25
4478,-1.16
4489,-2.31
4500,-3.69
4512,-5.28
4524,-6.94
4536,-8.43
4548,-9.49
4560,-9.93
4572,-9.72
4584,-8.94
4596,-7.78
4608,-6.43
4620,-5.06
4632,-3.76
4644,-2.56
4656,-1.55
4668,-0.86
4679,-0.69
4690,-1.25
4702,-2.69
4714,-5.02
4726,-8.12
4738,-11.79
4750,-15.78
4762,-19.86
4774,-23.82
4786,-27.33
4798,-29.95
4810,-31.12
4822,-30.3
4834,-27.21
4846,-22.0
4858,-15.26
4869,-7.91
4880,-0.89
4892,5.07
4904,9.6
4916,12.67
4928,14.42
4940,15.03
4952,14.64
4964,13.39
4976,11.49
4988,9.29
5000,7.26
5012,5.83
5024,5.26
5036,5.51
5048,6.27
5059,7.05
5070,7.4
5082,7.07
5094,6.11
5106,4.8
5118,3.41
5130,2.1
5142,0.81
5154,-0.7
5166,-2.68
5178,-5.29
5190,-8.5
5202,-12.08
5214,-15.68
5226,-18.81
5238,-20.96
5249,-21.64
5260,-20.51
5272,-17.52
5284,-12.97
5296,-7.42
5308,-1.59
5320,3.9
5332,8.57
5344,12.2
5356,14.66
5368,15.91
5380,15.94
5392,14.87
5404,12.94
5416,10.58
5428,8.32
5439,6.64
5450,5.89
5462,6.12
5474,7.12
5486,8.46
5498,9.64
5510,10.27
5522,10.19
5534,9.5
5546,8.44
5558,7.3
5570,6.26
5582,5.29
5594,4.21
5606,2.74
5618,0.69
5629,-2.0
5640,-5.13
5652,-8.31
5664,-11.01
5676,-12.66
5688,-12.79
5700,-11.13
5712,-7.73
5724,-2.97
5736,2.51
5748,8.02
5760,12.92
5772,16.77
5784,19.37
5796,20.67
5808,20.76
5819,19.83
5830,18.13
5842,16.01
5854,13.86
5866,12.07
5878,10.84
5890,10.23
5902,10.1
5914,10.25
5926,10.47
5938,10.62
5950,10.61
5962,10.38
5974,9.89
5986,9.09
5998,7.98
6009,6.6
6020,4.93
6032,2.95
6044,0.57
6056,-2.2
6068,-5.21
6080,-8.12
6092,-10.38
6104,-11.48
6116,-11.05
6128,-9.02
6140,-5.63
6152,-1.3
6164,3.44
6176,8.09
6188,12.26
6199,15.6
6210,17.89
6222,18.98
6234,18.89
6246,17.81
6258,16.03
6270,13.91
6282,11.83
6294,10.08
6306,8.84
6318,8.15
6330,7.93
6342,7.99
6354,8.09
6366,8.05
6378,7.75
6389,7.19
6400,6.47
6412,5.65
6424,4.72
6436,3.6
6448,2.13
6460,0.2
6472,-2.22
6484,-4.97
6496,-7.71
6508,-10.01
6520,-11.38
6532,-11.42
6544,-9.93
6556,-6.97
6568,-2.88
6579,1.82
6590,6.53
6602,10.74
6614,14.02
6626,16.12
6638,16.94
6650,16.53
6662,15.09
6674,12.97
6686,10.59
6698,8.36
6710,6.57
6722,5.35
6734,4.68
6746,4.42
6758,4.4
6769,4.44
6780,4.41
6792,4.23
6804,3.9
6816,3.46
6828,2.97
6840,2.42
6852,1.74
6864,0.75
6876,-0.7
6888,-2.67
6900,-5.06
6912,-7.6
6924,-9.86
6936,-11.38
6948,-11.76
6959,-10.74
6970,-8.31
6982,-4.72
6994,-0.42
7006,3.99
7018,7.92
7030,10.91
7042,12.68
7054,13.2
7066,12.59
7078,11.12
7090,9.1
7102,6.89
7114,4.83
7126,3.19
7138,2.14
7149,1.7
7160,1.76
7172,2.13
7184,2.6
7196,2.98
7208,3.17
7220,3.12
7232,2.82
7244,2.31
7256,1.59
7268,0.66
7280,-0.54
7292,-2.03
7304,-3.8
7316,-5.73
7328,-7.58
7339,-9.01
7350,-9.66
7362,-9.23
7374,-7.58
7386,-4.8
7398,-1.17
7410,2.91
7422,6.96
7434,10.55
7446,13.31
7458,14.98
7470,15.43
7482,14.69
7494,13.02
7506,10.79
7518,8.56
7529,6.84
7540,6.0
7552,6.17
7564,7.17
7576,8.56
7588,9.76
7600,10.26
7612,9.82
7624,8.5
7636,6.62
7648,4.56
7660,2.55
7672,0.58
7684,-1.6
7696,-4.34
7708,-7.85
7719,-12.11
7730,-16.72
7742,-21.08
7754,-24.49
7766,-26.41
7778,-26.6
7790,-25.13
7802,-22.35
7814,-18.78
7826,-14.96
7838,-11.37
7850,-8.44
7862,-6.5
7874,-5.73
7886,-6.15
7898,-7.51
7909,-9.34
7920,-11.05
7932,-12.13
7944,-12.28
7956,-11.56
7968,-10.23
7980,-8.7
7992,-7.27
8004,-6.12
8016,-5.27
8028,-4.69
8040,-4.32
8052,-4.17
8064,-4.22
8076,-4.54
8088,-5.13
8099,-6.09
8110,-7.44
8122,-9.16
8134,-11.05
8146,-12.74
8158,-13.69
8170,-13.39
8182,-11.58
8194,-8.31
8206,-4.03
8218,0.61
8230,4.9
8242,8.26
8254,10.33
8266,10.98
8278,10.33
8289,8.68
8300,6.43
8312,4.01
8324,1.78
8336,0.01
8348,-1.19
8360,-1.79
8372,-1.88
8384,-1.56
8396,-1.01
8408,-0.39
8420,0.11
8432,0.41
8444,0.45
8456,0.23
8468,-0.29
8479,-1.19
8490,-2.59
8502,-4.6
8514,-7.13
8526,-9.89
8538,-12.42
8550,-14.21
8562,-14.87
8574,-14.21
8586,-12.27
8598,-9.28
8610,-5.55
8622,-1.55
8634,2.21
8646,5.12
8658,6.71
8669,6.76
8680,5.44
8692,3.24
8704,0.78
8716,-1.35
8728,-2.84
8740,-3.62
8752,-3.82
8764,-3.67
8776,-3.32
8788,-2.93
8800,-2.57
8812,-2.32
8824,-2.22
8836,-2.3
8848,-2.6
8859,-3.17
8870,-4.07
8882,-5.4
8894,-7.18
8906,-9.32
8918,-11.59
8930,-13.59
8942,-14.9
8954,-15.12
8966,-14.05
8978,-11.69
8990,-8.3
9002,-4.34
9014,-0.32
9026,3.27
9038,6.11
9049,7.96
9060,8.77
9072,8.54
9084,7.37
9096,5.48
9108,3.19
9120,0.89
9132,-1.02
9144,-2.25
9156,-2.69
9168,-2.45
9180,-1.84
9192,-1.24
9204,-0.92
9216,-0.99
9228,-1.36
9239,-1.84
9250,-2.28
9262,-2.71
9274,-3.34
9286,-4.41
9298,-6.1
9310,-8.31
9322,-10.7
9334,-12.75
9346,-13.95
9358,-13.97
9370,-12.73
9382,-10.37
9394,-7.17
9406,-3.45
9418,0.36
9429,3.87
9440,6.63
9452,8.26
9464,8.57
9476,7.65
9488,5.82
9500,3.6
9512,1.47
9524,-0.25
9536,-1.44
9548,-2.13
9560,-2.47
9572,-2.59
9584,-2.57
9596,-2.46
9608,-2.29
9619,-2.11
9630,-1.97
9642,-1.97
9654,-2.17
9666,-2.65
9678,-3.46
9690,-4.62
9702,-6.13
9714,-7.91
9726,-9.77
9738,-11.42
9750,-12.45
9762,-12.42
9774,-11.07
9786,-8.35
9798,-4.59
9809,-0.33
9820,3.77
9832,7.1
9844,9.27
9856,10.11
9868,9.67
9880,8.19
9892,6.08
9904,3.81
9916,1.81
9928,0.33
9940,-0.56
9952,-1.01
9964,-1.22
9976,-1.36
9988,-1.45
9999,-1.47
10010,-1.39
10022,-1.24
10034,-1.15
10046,-1.22
10058,-1.6
10070,-2.41
10082,-3.77
10094,-5.79
10106,-8.43
10118,-11.47
10130,-14.38
10142,-16.44
10154,-16.94
10166,-15.47
10178,-12.09
10189,-7.39
10200,-2.2
10212,2.58
10224,6.33
10236,8.81
10248,10.01
10260,10.14
10272,9.41
10284,8.02
10296,6.21
10308,4.24
10320,2.42
10332,1.0
10344,0.15
10356,-0.16
10368,-0.06
10379,0.19
10390,0.37
10402,0.32
10414,-0.05
10426,-0.73
10438,-1.68
10450,-2.84
10462,-4.21
10474,-5.83
10486,-7.77
10498,-10.04
10510,-12.47
10522,-14.66
10534,-16.01
10546,-15.98
10558,-14.28
10569,-11.01
10580,-6.63
10592,-1.85
10604,2.67
10616,6.48
10628,9.36
10640,11.25
10652,12.18
10664,12.16
10676,11.25
10688,9.64
10700,7.64
10712,5.69
10724,4.15
10736,3.21
10748,2.8
10759,2.73
10770,2.73
10782,2.7
10794,2.62
10806,2.54
10818,2.47
10830,2.26
10842,1.7
10854,0.56
10866,-1.31
10878,-3.9
10890,-7.02
10902,-10.34
10914,-13.37
10926,-15.6
10938,-16.51
10949,-15.73
10960,-13.22
10972,-9.22
10984,-4.3
10996,0.86
11008,5.63
11020,9.59
11032,12.52
11044,14.38
11056,15.22
11068,15.15
11080,14.29
11092,12.87
11104,11.15
11116,9.47
11128,8.15
11139,7.34
11150,7.04
11162,7.12
11174,7.32
11186,7.49
11198,7.51
11210,7.36
11222,7.03
11234,6.5
11246,5.67
11258,4.44
11270,2.71
11282,0.47
11294,-2.24
11306,-5.3
11318,-8.54
11329,-11.63
11340,-14.14
11352,-15.56
11364,-15.48
11376,-13.75
11388,-10.56
11400,-6.38
11412,-1.81
11424,2.67
11436,6.75
11448,10.27
11460,13.14
11472,15.19
11484,16.25
11496,16.22
11508,15.27
11519,13.8
11530,12.33
11542,11.34
11554,10.97
11566,11.11
11578,11.47
11590,11.77
11602,11.91
11614,11.96
11626,12.0
11638,12.1
11650,12.14
11662,11.91
11674,11.2
11686,9.94
11698,8.22
11709,6.24
11720,4.28
11732,2.5
11744,0.93
11756,-0.47
11768,-1.84
11780,-3.25
11792,-4.79
11804,-6.47
11816,-8.31
11828,-10.33
11840,-12.54
11852,-14.86
11864,-17.01
11876,-18.59
11888,-19.03
11899,-17.86
11910,-14.9
11922,-10.34
11934,-4.8
11946,0.91
11958,6.03
11970,10.01
11982,12.69
11994,14.19
12006,14.79
12018,14.78
12030,14.33
12042,13.56
12054,12.52
12066,11.37
12078,10.33
12089,9.68
12100,9.62
12112,10.15
12124,11.06
12136,12.03
12148,12.71
12160,12.91
12172,12.64
12184,12.01
12196,11.23
12208,10.38
12220,9.5
12232,8.55
12244,7.48
12256,6.28
12268,4.94
12279,3.46
12290,1.84
12302,0.13
12314,-1.57
12326,-3.13
12338,-4.47
12350,-5.59
12362,-6.57
12374,-7.53
12386,-8.59
12398,-9.85
12410,-11.39
12422,-13.3
12434,-15.54
12446,-17.91
12458,-19.96
12469,-21.09
12480,-20.7
12492,-18.5
12504,-14.61
12516,-9.55
12528,-4.13
12540,0.91
12552,5.02
12564,7.95
12576,9.7
12588,10.38
12600,10.18
12612,9.3
12624,7.98
12636,6.51
12648,5.2
12659,4.3
12670,3.93
12682,4.03
12694,4.47
12706,5.02
12718,5.5
12730,5.82
12742,5.95
12754,5.9
12766,5.67
12778,5.25
12790,4.57
12802,3.58
12814,2.31
12826,0.81
12838,-0.76
12849,-2.27
12860,-3.59
12872,-4.69
12884,-5.65
12896,-6.62
12908,-7.86
12920,-9.56
12932,-11.73
12944,-14.14
12956,-16.32
12968,-17.69
12980,-17.73
12992,-16.23
13004,-13.31
13016,-9.44
13028,-5.19
13039,-1.13
13050,2.42
13062,5.29
13074,7.43
13086,8.8
13098,9.36
13110,9.09
13122,8.14
13134,6.77
13146,5.33
13158,4.14
13170,3.36
13182,3.01
13194,2.96
13206,3.02
13218,3.08
13229,3.08
13240,3.0
13252,2.83
13264,2.52
13276,1.98
13288,1.13
13300,-0.08
13312,-1.67
13324,-3.58
13336,-5.71
13348,-7.91
13360,-10.07
13372,-12.09
13384,-13.97
13396,-15.78
13408,-17.69
13419,-19.9
13430,-22.55
13442,-25.6
13454,-28.75
13466,-31.5
13478,-33.22
13490,-33.35
13502,-31.57
13514,-27.91
13526,-22.69
13538,-16.49
13550,-9.98
13562,-3.81
13574,1.52
13586,5.68
13598,8.48
13609,9.95
13620,10.27
13632,9.72
13644,8.65
13656,7.39
13668,6.19
13680,5.23
13692,4.59
13704,4.28
13716,4.31
13728,4.61
13740,5.09
13752,5.63
13764,6.02
13776,6.08
13788,5.64
13799,4.6
13810,2.98
13822,0.92
13834,-1.42
13846,-3.85
13858,-6.31
13870,-8.8
13882,-11.4
13894,-14.24
13906,-17.44
13918,-21.1
13930,-25.17
13942,-29.46
13954,-33.5
13966,-36.58
13978,-37.89
13989,-36.75
14000,-32.9
14012,-26.62
14024,-18.7
14036,-10.24
14048,-2.28
14060,4.38
14072,9.37
14084,12.65
14096,14.39
14108,14.9
14120,14.52
14132,13.6
14144,12.45
14156,11.38
14168,10.65
14179,10.43
14190,10.79
14202,11.65
14214,12.77
14226,13.82
14238,14.52
14250,14.7
14262,14.38
14274,13.68
14286,12.74
14298,11.58
14310,10.14
14322,8.29
14334,5.98
14346,3.28
14358,0.35
14369,-2.65
14380,-5.67
14392,-8.76
14404,-12.1
14416,-15.84
14428,-19.95
14440,-24.12
14452,-27.77
14464,-30.09
14476,-30.32
14488,-27.95
14500,-22.99
14512,-15.98
14524,-7.86
14536,0.34
14548,7.72
14559,13.76
14570,18.27
14582,21.28
14594,22.94
14606,23.42
14618,22.9
14630,21.67
14642,20.13
14654,18.69
14666,17.73
14678,17.41
14690,17.7
14702,18.37
14714,19.14
14726,19.78
14738,20.17
14749,20.24
14760,19.99
14772,19.35
14784,18.25
14796,16.6
14808,14.4
14820,11.77
14832,8.93
14844,6.11
14856,3.48
14868,1.02
14880,-1.48
14892,-4.34
14904,-7.83
14916,-11.97
14928,-16.39
14939,-20.39
14950,-23.07
14962,-23.62
14974,-21.57
14986,-16.97
14998,-10.36
15010,-2.61
15022,5.34
15034,12.66
15046,18.75
15058,23.3
15070,26.2
15082,27.52
15094,27.47
15106,26.37
15118,24.58
15129,22.49
15140,20.45
15152,18.69
15164,17.43
15176,16.82
15188,16.87
15200,17.5
15212,18.42
15224,19.25
15236,19.57
15248,19.11
15260,17.84
15272,15.93
15284,13.68
15296,11.37
15308,9.16
15319,7.06
15330,4.96
15342,2.67
15354,-0.01
15366,-3.25
15378,-7.11
15390,-11.43
15402,-15.75
15414,-19.34
15426,-21.35
15438,-21.12
15450,-18.39
15462,-13.41
15474,-6.85
15486,0.4
15498,7.47
15509,13.67
15520,18.56
15532,21.88
15544,23.57
15556,23.7
15568,22.51
15580,20.41
15592,17.89
15604,15.42
15616,13.39
15628,12.04
15640,11.42
15652,11.43
15664,11.81
15676,12.27
15688,12.52
15699,12.4
15710,11.88
15722,11.08
15734,10.15
15746,9.17
15758,8.15
15770,6.95
15782,5.39
15794,3.31
15806,0.62
15818,-2.67
15830,-6.41
15842,-10.3
15854,-13.88
15866,-16.59
15878,-17.86
15889,-17.29
15900,-14.79
15912,-10.58
15924,-5.15
15936,0.84
15948,6.74
15960,12.01
15972,16.24
15984,19.17
15996,20.67
16008,20.71
16020,19.43
16032,17.09
16044,14.08
16056,10.91
16068,8.04
16079,5.87
16090,4.57
16102,4.12
16114,4.23
16126,4.52
16138,4.57
16150,4.09
16162,3.01
16174,1.49
16186,-0.2
16198,-1.77
16210,-3.14
16222,-4.39
16234,-5.83
16246,-7.76
16258,-10.39
16269,-13.75
16280,-17.6
16292,-21.5
16304,-24.89
16316,-27.09
16328,-27.49
16340,-25.68
16352,-21.59
16364,-15.61
16376,-8.49
16388,-1.18
16400,5.47
16412,10.89
16424,14.85
16436,17.34
16448,18.4
16459,18.07
16470,16.41
16482,13.69
16494,10.37
16506,7.09
16518,4.45
16530,2.8
16542,2.15
16554,2.18
16566,2.46
16578,2.63
16590,2.5
16602,2.09
16614,1.49
16626,0.75
16638,-0.11
16649,-1.21
16660,-2.7
16672,-4.71
16684,-7.38
16696,-10.72
16708,-14.66
16720,-18.97
16732,-23.24
16744,-26.85
16756,-29.13
16768,-29.45
16780,-27.46
16792,-23.21
16804,-17.15
16816,-10.03
16828,-2.69
16839,4.14
16850,9.91
16862,14.3
16874,17.13
16886,18.35
16898,18.01
16910,16.33
16922,13.68
16934,10.55
16946,7.48
16958,4.91
16970,3.12
16982,2.19
16994,1.94
17006,2.04
17018,2.17
17029,2.03
17040,1.53
17052,0.73
17064,-0.2
17076,-1.08
17088,-1.86
17100,-2.68
17112,-3.78
17124,-5.45
17136,-7.9
17148,-11.16
17160,-15.06
17172,-19.18
17184,-22.86
17196,-25.33
17208,-25.86
17219,-24.0
17230,-19.67
17242,-13.32
17254,-5.78
17266,1.98
17278,9.05
17290,14.78
17302,18.81
17314,21.01
17326,21.4
17338,20.13
17350,17.51
17362,13.99
17374,10.16
17386,6.58
17398,3.69
17409,1.72
17420,0.65
17432,0.24
17444,0.16
17456,0.08
17468,-0.3
17480,-1.07
17492,-2.16
17504,-3.35
17516,-4.43
17528,-5.26
17540,-5.92
17552,-6.7
17564,-7.97
17576,-10.05
17588,-13.03
17599,-16.67
17610,-20.41
17622,-23.5
17634,-25.16
17646,-24.83
17658,-22.27
17670,-17.67
17682,-11.59
17694,-4.78
17706,1.96
17718,8.02
17730,12.98
17742,16.64
17754,18.84
17766,19.51
17778,18.69
17789,16.58
17800,13.66
17812,10.56
17824,7.94
17836,6.27
17848,5.67
17860,5.93
17872,6.63
17884,7.34
17896,7.77
17908,7.77
17920,7.4
17932,6.75
17944,5.89
17956,4.85
17968,3.56
17979,1.91
17990,-0.23
18002,-2.93
18014,-6.17
18026,-9.8
18038,-13.43
18050,-16.55
18062,-18.56
18074,-18.92
18086,-17.34
18098,-13.82
18110,-8.74
18122,-2.73
18134,3.46
18146,9.14
18158,13.78
18169,17.02
18180,18.68
18192,18.71
18204,17.27
18216,14.75
18228,11.67
18240,8.62
18252,6.12
18264,4.42
18276,3.52
18288,3.2
18300,3.16
18312,3.15
18324,2.99
18336,2.66
18348,2.19
18359,1.62
18370,0.97
18382,0.21
18394,-0.69
18406,-1.88
18418,-3.49
18430,-5.68
18442,-8.46
18454,-11.67
18466,-14.88
18478,-17.48
18490,-18.81
18502,-18.32
18514,-15.81
18526,-11.47
18538,-5.9
18549,0.08
18560,5.62
18572,10.04
18584,12.92
18596,14.1
18608,13.71
18620,11.96
18632,9.26
18644,6.06
18656,2.87
18668,0.18
18680,-1.7
18692,-2.69
18704,-2.96
18716,-2.79
18728,-2.48
18739,-2.24
18750,-2.16
18762,-2.31
18774,-2.74
18786,-3.59
18798,-4.94
18810,-6.86
18822,-9.29
18834,-12.14
18846,-15.28
18858,-18.56
18870,-21.69
18882,-24.2
18894,-25.48
18906,-24.89
18918,-22.05
18929,-17.03
18940,-10.39
18952,-3.06
18964,3.91
18976,9.65
18988,13.57
19000,15.46
19012,15.44
19024,13.88
19036,11.32
19048,8.39
19060,5.67
19072,3.61
19084,2.41
19096,2.0
19108,2.11
19119,2.37
19130,2.53
19142,2.46
19154,2.21
19166,1.89
19178,1.53
19190,1.05
19202,0.21
19214,-1.25
19226,-3.55
19238,-6.75
19250,-10.71
19262,-15.11
19274,-19.44
19286,-23.09
19298,-25.39
19309,-25.73
19320,-23.72
19332,-19.41
19344,-13.33
19356,-6.37
19368,0.45
19380,6.26
19392,10.51
19404,13.04
19416,13.93
19428,13.41
19440,11.73
19452,9.23
19464,6.31
19476,3.44
19488,1.05
19499,-0.6
19510,-1.55
19522,-2.04
19534,-2.4
19546,-2.89
19558,-3.55
19570,-4.28
19582,-4.92
19594,-5.41
19606,-5.86
19618,-6.54
19630,-7.78
19642,-9.83
19654,-12.79
19666,-16.51
19678,-20.55
19689,-24.18
19700,-26.54
19712,-26.88
19724,-24.73
19736,-20.19
19748,-13.82
19760,-6.52
19772,0.79
19784,7.4
19796,12.94
19808,17.26
19820,20.31
19832,22.04
19844,22.45
19856,21.65
19868,19.98
19879,17.98
19890,16.24
19902,15.19
19914,15.01
19926,15.59
19938,16.68
19950,18.01
19962,19.39
19974,20.76
19986,22.15
19998,23.57
20010,25.06
20022,26.56
20034,28.01
20046,29.28
20058,30.23
20069,30.77
20080,30.97
20092,31.19
20104,32.07
20116,34.47
20128,39.17
20140,46.6
20152,56.65
20164,68.68
20176,81.72
20188,94.85
20200,107.45
20212,119.31
20224,130.61
20236,141.6
20248,152.39
20259,162.78
20270,172.22
20282,179.84
20294,184.56
20306,185.23
20318,180.77
20330,170.47
20342,154.17
20354,132.52
20366,106.87
20378,79.1
20390,51.15
20402,24.62
20414,0.37
20426,-21.56
20438,-41.78
20449,-61.19
20460,-80.53
20472,-99.96
20484,-118.98
20496,-136.36
20508,-150.48
20520,-159.66
20532,-162.68
20544,-159.07
20556,-149.43
20568,-135.3
20580,-118.99
20592,-102.93
20604,-89.17
20616,-78.82
20628,-71.7
20639,-66.56
20650,-61.49
20662,-54.73
20674,-45.37
20686,-33.74
20698,-21.47
20710,-10.86
20722,-4.12
20734,-2.44
20746,-5.55
20758,-11.86
20770,-19.25
20782,-26.07
20794,-31.91
20806,-37.61
20818,-44.61
20829,-53.9
20840,-65.24
20852,-77.21
20864,-87.85
20876,-95.76
20888,-100.79
20900,-104.01
20912,-107.09
20924,-111.28
20936,-116.92
20948,-123.21
20960,-128.79
20972,-132.32
20984,-132.95
20996,-130.55
