seconds,BVP
7,5.6
19,5.31
31,4.87
43,4.28
55,3.64
67,3.05
79,2.58
91,2.24
103,1.96
115,1.66
127,1.28
139,0.82
150,0.33
161,-0.14
173,-0.53
185,-0.83
197,-1.08
209,-1.39
221,-1.85
233,-2.49
245,-3.27
257,-4.03
269,-4.59
281,-4.77
293,-4.5
305,-3.8
317,-2.74
329,-1.41
340,0.08
351,1.61
363,3.01
375,4.08
387,4.64
399,4.61
411,4.07
423,3.19
435,2.25
447,1.46
459,0.96
471,0.76
483,0.82
495,1.03
507,1.23
519,1.27
530,1.01
541,0.4
553,-0.48
565,-1.4
577,-2.09
589,-2.3
601,-1.96
613,-1.21
625,-0.33
637,0.33
649,0.57
661,0.42
673,0.12
685,0.08
697,0.65
709,2.01
720,4.09
731,6.65
743,9.36
755,11.94
767,14.22
779,16.13
791,17.62
803,18.64
815,19.16
827,19.17
839,18.75
851,18.07
863,17.27
875,16.47
887,15.57
899,14.35
910,12.46
921,9.66
933,5.88
945,1.28
957,-3.8
969,-8.99
981,-14.08
993,-19.1
1005,-24.29
1017,-29.94
1029,-36.17
1041,-42.77
1053,-49.26
1065,-54.96
1077,-59.17
1089,-61.31
1100,-61.02
1111,-58.19
1123,-52.96
1135,-45.84
1147,-37.58
1159,-29.11
1171,-21.32
1183,-14.83
1195,-9.84
1207,-6.11
1219,-3.19
1231,-0.54
1243,2.18
1255,5.14
1267,8.27
1279,11.44
1290,14.48
1301,17.19
1313,19.38
1325,20.87
1337,21.55
1349,21.48
1361,20.93
1373,20.3
1385,20.01
1397,20.36
1409,21.44
1421,23.16
1433,25.25
1445,27.44
1457,29.48
1469,31.2
1480,32.52
1491,33.52
1503,34.42
1515,35.54
1527,37.23
1539,39.65
1551,42.64
1563,45.77
1575,48.41
1587,50.04
1599,50.43
1611,49.71
1623,48.3
1635,46.67
1647,45.19
1659,44.01
1670,43.14
1681,42.51
1693,42.12
1705,42.0
1717,42.2
1729,42.71
1741,43.51
1753,44.63
1765,46.15
1777,48.25
1789,51.06
1801,54.59
1813,58.58
1825,62.56
1837,66.0
1849,68.39
1860,69.44
1871,69.12
1883,67.64
1895,65.37
1907,62.74
1919,60.1
1931,57.52
1943,54.8
1955,51.52
1967,47.26
1979,41.82
1991,35.34
2003,28.28
2015,21.17
2027,14.38
2039,8.0
2050,1.92
2061,-3.83
2073,-8.84
2085,-12.32
2097,-13.23
2109,-10.66
2121,-4.18
2133,6.0
2145,19.08
2157,33.77
2169,48.66
2181,62.43
2193,74.15
2205,83.45
2217,90.48
2229,95.65
2240,99.33
2251,101.51
2263,101.85
2275,99.95
2287,95.82
2299,90.11
2311,83.93
2323,78.37
2335,73.97
2347,70.38
2359,66.57
2371,61.32
2383,53.74
2395,43.7
2407,31.68
2419,18.52
2430,4.95
2441,-8.68
2453,-22.32
2465,-36.11
2477,-50.05
2489,-63.85
2501,-76.98
2513,-88.88
2525,-99.19
2537,-107.92
2549,-115.33
2561,-121.8
2573,-127.54
2585,-132.56
2597,-136.73
2609,-139.96
2620,-142.35
2631,-144.09
2643,-145.38
2655,-146.23
2667,-146.43
2679,-145.62
2691,-143.4
2703,-139.36
2715,-133.05
2727,-123.91
2739,-111.18
2751,-93.95
2763,-71.36
2775,-42.93
2787,-8.81
2799,29.95
2810,71.41
2821,112.88
2833,151.3
2845,183.69
2857,207.71
2869,222.1
2881,226.88
2893,223.33
2905,213.64
2917,200.35
2929,185.74
2941,171.45
2953,158.18
2965,145.87
2977,133.92
2989,121.61
3000,108.29
3011,93.45
3023,76.78
3035,58.08
3047,37.38
3059,14.92
3071,-8.7
3083,-32.66
3095,-56.01
3107,-77.93
3119,-97.96
3131,-116.02
3143,-132.42
3155,-147.65
3167,-162.14
3179,-176.16
3190,-189.77
3201,-202.81
3213,-215.03
3225,-226.03
3237,-235.41
3249,-242.75
3261,-247.73
3273,-250.27
3285,-250.52
3297,-248.91
3309,-246.05
3321,-242.57
3333,-239.03
3345,-235.69
3357,-232.43
3369,-228.65
3380,-223.47
3391,-215.93
3403,-205.39
3415,-191.88
3427,-176.16
3439,-159.57
3451,-143.58
3463,-129.32
3475,-117.33
3487,-107.56
3499,-99.59
3511,-93.01
3523,-87.52
3535,-83.05
3547,-79.65
3559,-77.42
3570,-76.52
3581,-77.03
3593,-78.87
3605,-81.57
3617,-84.07
3629,-84.88
3641,-82.32
3653,-75.16
3665,-63.04
3677,-46.77
3689,-28.06
3701,-9.08
3713,8.23
3725,22.58
3737,33.55
3749,41.4
3760,46.79
3771,50.45
3783,53.0
3795,54.81
3807,56.07
3819,56.87
3831,57.31
3843,57.55
3855,57.89
3867,58.59
3879,59.78
3891,61.27
3903,62.67
3915,63.55
3927,63.77
3939,63.61
3950,63.7
3961,64.59
3973,66.42
3985,68.63
3997,70.16
4009,69.91
4021,67.31
4033,62.61
4045,56.82
4057,51.22
4069,46.82
4081,43.94
4093,42.17
4105,40.62
4117,38.4
4129,35.0
4140,30.44
4151,25.23
4163,20.11
4175,15.74
4187,12.43
4199,10.04
4211,8.01
4223,5.64
4235,2.35
4247,-2.02
4259,-7.15
4271,-12.34
4283,-16.88
4295,-20.2
4307,-22.17
4319,-22.88
4330,-22.5
4341,-21.06
4353,-18.5
4365,-14.82
4377,-10.34
4389,-5.76
4401,-1.91
4413,0.6
4425,1.72
4437,2.01
4449,2.36
4461,3.57
4473,5.98
4485,9.39
4497,13.34
4509,17.35
4520,21.12
4531,24.53
4543,27.48
4555,29.82
4567,31.41
4579,32.2
4591,32.33
4603,32.09
4615,31.71
4627,31.13
4639,30.06
4651,28.1
4663,25.09
4675,21.33
4687,17.49
4699,14.34
4710,12.36
4721,11.51
4733,11.21
4745,10.73
4757,9.46
4769,7.27
4781,4.47
4793,1.65
4805,-0.64
4817,-2.19
4829,-3.1
4841,-3.71
4853,-4.38
4865,-5.28
4877,-6.39
4889,-7.54
4900,-8.59
4911,-9.47
4923,-10.17
4935,-10.58
4947,-10.43
4959,-9.31
4971,-6.85
4983,-3.04
4995,1.73
5007,6.66
5019,10.9
5031,13.78
5043,15.1
5055,15.0
5067,13.82
5079,11.88
5090,9.46
5101,6.9
5113,4.75
5125,3.82
5137,4.89
5149,8.42
5161,14.14
5173,21.15
5185,28.14
5197,33.9
5209,37.79
5221,39.85
5233,40.62
5245,40.74
5257,40.55
5269,39.99
5280,38.71
5291,36.34
5303,32.82
5315,28.39
5327,23.51
5339,18.66
5351,14.1
5363,9.86
5375,5.75
5387,1.52
5399,-3.05
5411,-8.04
5423,-13.43
5435,-19.1
5447,-24.86
5459,-30.53
5470,-35.92
5481,-40.9
5493,-45.35
5505,-49.14
5517,-52.01
5529,-53.64
5541,-53.7
5553,-52.03
5565,-48.73
5577,-44.17
5589,-38.87
5601,-33.26
5613,-27.53
5625,-21.6
5637,-15.36
5649,-8.79
5660,-2.11
5671,4.26
5683,9.9
5695,14.59
5707,18.4
5719,21.55
5731,24.33
5743,26.89
5755,29.24
5767,31.31
5779,32.99
5791,34.31
5803,35.29
5815,36.02
5827,36.48
5839,36.62
5850,36.32
5861,35.55
5873,34.31
5885,32.61
5897,30.47
5909,27.84
5921,24.74
5933,21.28
5945,17.74
5957,14.56
5969,12.15
5981,10.72
5993,10.22
6005,10.37
6017,10.88
6029,11.5
6040,12.17
6051,12.86
6063,13.52
6075,13.98
6087,14.07
6099,13.73
6111,13.11
6123,12.55
6135,12.43
6147,13.03
6159,14.36
6171,16.22
6183,18.3
6195,20.33
6207,22.19
6219,23.87
6230,25.38
6241,26.64
6253,27.48
6265,27.69
6277,27.11
6289,25.77
6301,23.81
6313,21.46
6325,18.84
6337,15.88
6349,12.43
6361,8.36
6373,3.79
6385,-0.82
6397,-4.78
6409,-7.4
6420,-8.25
6431,-7.44
6443,-5.51
6455,-3.28
6467,-1.53
6479,-0.68
6491,-0.7
6503,-1.23
6515,-1.75
6527,-1.83
6539,-1.23
6551,0.08
6563,2.06
6575,4.57
6587,7.47
6599,10.56
6610,13.62
6621,16.43
6633,18.84
6645,20.8
6657,22.36
6669,23.56
6681,24.38
6693,24.72
6705,24.42
6717,23.41
6729,21.73
6741,19.56
6753,17.07
6765,14.32
6777,11.2
6789,7.56
6800,3.38
6811,-1.07
6823,-5.21
6835,-8.31
6847,-9.82
6859,-9.62
6871,-8.09
6883,-5.91
6895,-3.82
6907,-2.31
6919,-1.48
6931,-1.14
6943,-0.97
6955,-0.7
6967,-0.17
6979,0.69
6990,1.91
7001,3.53
7013,5.56
7025,7.99
7037,10.67
7049,13.41
7061,15.92
7073,17.98
7085,19.42
7097,20.26
7109,20.57
7121,20.46
7133,19.95
7145,18.89
7157,17.02
7169,14.09
7180,10.0
7191,4.92
7203,-0.76
7215,-6.5
7227,-11.78
7239,-16.19
7251,-19.5
7263,-21.6
7275,-22.45
7287,-22.1
7299,-20.64
7311,-18.24
7323,-15.11
7335,-11.52
7347,-7.76
7359,-4.11
7370,-0.83
7381,1.92
7393,4.06
7405,5.69
7417,7.02
7429,8.36
7441,10.06
7453,12.29
7465,15.04
7477,18.01
7489,20.71
7501,22.56
7513,23.13
7525,22.27
7537,20.24
7549,17.58
7560,14.93
7571,12.82
7583,11.5
7595,10.89
7607,10.69
7619,10.46
7631,9.79
7643,8.39
7655,6.21
7667,3.5
7679,0.74
7691,-1.47
7703,-2.65
7715,-2.66
7727,-1.7
7739,-0.26
7750,1.08
7761,1.87
7773,1.89
7785,1.15
7797,-0.16
7809,-1.73
7821,-3.15
7833,-4.01
7845,-4.02
7857,-3.11
7869,-1.54
7881,0.25
7893,1.83
7905,3.03
7917,4.0
7929,5.12
7940,6.72
7951,8.89
7963,11.37
7975,13.72
7987,15.47
7999,16.26
8011,15.95
8023,14.43
8035,11.7
8047,7.78
8059,3.0
8071,-2.01
8083,-6.27
8095,-8.77
8107,-8.89
8119,-6.61
8130,-2.68
8141,1.72
8153,5.46
8165,7.83
8177,8.78
8189,8.75
8201,8.27
8213,7.69
8225,6.98
8237,5.88
8249,4.18
8261,1.96
8273,-0.34
8285,-2.12
8297,-2.93
8309,-2.62
8320,-1.47
8331,0.02
8343,1.38
8355,2.41
8367,3.25
8379,4.22
8391,5.56
8403,7.25
8415,8.93
8427,10.08
8439,10.22
8451,9.18
8463,7.14
8475,4.54
8487,1.88
8499,-0.47
8510,-2.34
8521,-3.75
8533,-4.74
8545,-5.3
8557,-5.41
8569,-5.09
8581,-4.54
8593,-4.12
8605,-4.27
8617,-5.32
8629,-7.32
8641,-9.95
8653,-12.6
8665,-14.54
8677,-15.24
8689,-14.53
8700,-12.6
8711,-9.96
8723,-7.13
8735,-4.48
8747,-2.09
8759,0.17
8771,2.56
8783,5.19
8795,8.03
8807,10.82
8819,13.21
8831,14.92
8843,15.78
8855,15.77
8867,14.98
8879,13.51
8890,11.47
8901,8.91
8913,5.97
8925,2.88
8937,-0.01
8949,-2.35
8961,-3.93
8973,-4.8
8985,-5.3
8997,-5.99
9009,-7.4
9021,-9.89
9033,-13.53
9045,-18.05
9057,-22.95
9069,-27.56
9080,-31.19
9091,-33.27
9103,-33.39
9115,-31.47
9127,-27.75
9139,-22.8
9151,-17.27
9163,-11.76
9175,-6.64
9187,-1.94
9199,2.51
9211,6.88
9223,11.2
9235,15.24
9247,18.65
9259,21.1
9270,22.49
9281,22.97
9293,22.85
9305,22.46
9317,21.99
9329,21.48
9341,20.9
9353,20.27
9365,19.73
9377,19.49
9389,19.7
9401,20.29
9413,20.97
9425,21.32
9437,21.0
9449,19.96
9460,18.55
9471,17.35
9483,16.99
9495,17.83
9507,19.87
9519,22.75
9531,26.08
9543,29.57
9555,33.21
9567,37.03
9579,40.91
9591,44.35
9603,46.56
9615,46.78
9627,44.72
9639,40.77
9650,35.86
9661,31.04
9673,26.95
9685,23.6
9697,20.54
9709,17.21
9721,13.36
9733,9.13
9745,4.83
9757,0.67
9769,-3.42
9781,-7.69
9793,-12.29
9805,-17.08
9817,-21.65
9829,-25.64
9840,-29.05
9851,-32.31
9863,-36.09
9875,-40.83
9887,-46.42
9899,-52.07
9911,-56.62
9923,-59.02
9935,-58.73
9947,-55.85
9959,-51.02
9971,-45.08
9983,-38.79
9995,-32.65
10007,-26.93
10019,-21.84
10030,-17.55
10041,-14.18
10053,-11.72
10065,-9.94
10077,-8.39
10089,-6.63
10101,-4.34
10113,-1.43
10125,1.99
10137,5.73
10149,9.64
10161,13.55
10173,17.18
10185,20.09
10197,21.77
10209,21.88
10220,20.46
10231,18.02
10243,15.27
10255,12.76
10267,10.58
10279,8.28
10291,5.19
10303,0.86
10315,-4.65
10327,-10.77
10339,-16.75
10351,-22.08
10363,-26.72
10375,-30.96
10387,-35.13
10399,-39.26
10410,-43.01
10421,-45.93
10433,-47.75
10445,-48.64
10457,-49.07
10469,-49.53
10481,-50.16
10493,-50.6
10505,-50.12
10517,-48.04
10529,-44.03
10541,-38.31
10553,-31.52
10565,-24.43
10577,-17.7
10589,-11.69
10600,-6.46
10611,-1.93
10623,1.98
10635,5.34
10647,8.1
10659,10.27
10671,11.85
10683,12.97
10695,13.77
10707,14.36
10719,14.77
10731,14.86
10743,14.41
10755,13.21
10767,11.2
10779,8.5
10790,5.4
10801,2.2
10813,-0.97
10825,-4.23
10837,-7.86
10849,-12.19
10861,-17.32
10873,-23.0
10885,-28.62
10897,-33.41
10909,-36.62
10921,-37.78
10933,-36.86
10945,-34.23
10957,-30.62
10969,-26.8
10980,-23.48
10991,-21.02
11003,-19.41
11015,-18.33
11027,-17.29
11039,-15.9
11051,-13.9
11063,-11.23
11075,-7.98
11087,-4.25
11099,-0.15
11111,4.2
11123,8.6
11135,12.79
11147,16.45
11159,19.29
11170,21.11
11181,21.92
11193,21.91
11205,21.4
11217,20.73
11229,20.16
11241,19.78
11253,19.55
11265,19.32
11277,18.99
11289,18.5
11301,17.86
11313,17.12
11325,16.31
11337,15.41
11349,14.4
11360,13.23
11371,11.88
11383,10.28
11395,8.35
11407,6.03
11419,3.3
11431,0.3
11443,-2.72
11455,-5.44
11467,-7.53
11479,-8.76
11491,-8.98
11503,-8.18
11515,-6.46
11527,-4.07
11539,-1.37
11550,1.22
11561,3.31
11573,4.6
11585,5.0
11597,4.57
11609,3.5
11621,2.05
11633,0.51
11645,-0.77
11657,-1.47
11669,-1.36
11681,-0.32
11693,1.59
11705,4.09
11717,6.82
11729,9.34
11740,11.31
11751,12.54
11763,13.0
11775,12.79
11787,12.1
11799,11.06
11811,9.74
11823,8.15
11835,6.31
11847,4.3
11859,2.27
11871,0.36
11883,-1.27
11895,-2.56
11907,-3.54
11919,-4.3
11930,-4.91
11941,-5.37
11953,-5.63
11965,-5.61
11977,-5.24
11989,-4.53
12001,-3.58
12013,-2.58
12025,-1.66
12037,-0.83
12049,0.05
12061,1.25
12073,3.0
12085,5.4
12097,8.36
12109,11.62
12120,14.9
12131,17.95
12143,20.55
12155,22.49
12167,23.51
12179,23.35
12191,21.83
12203,19.0
12215,15.18
12227,10.91
12239,6.8
12251,3.31
12263,0.64
12275,-1.27
12287,-2.67
12299,-3.84
12310,-4.95
12321,-6.03
12333,-6.95
12345,-7.47
12357,-7.33
12369,-6.42
12381,-4.84
12393,-2.99
12405,-1.42
12417,-0.61
12429,-0.77
12441,-1.63
12453,-2.56
12465,-2.75
12477,-1.63
12489,0.9
12500,4.43
12511,8.25
12523,11.6
12535,13.99
12547,15.29
12559,15.64
12571,15.3
12583,14.53
12595,13.43
12607,12.03
12619,10.34
12631,8.39
12643,6.29
12655,4.16
12667,2.15
12679,0.29
12690,-1.41
12701,-3.04
12713,-4.66
12725,-6.33
12737,-8.04
12749,-9.76
12761,-11.44
12773,-13.06
12785,-14.63
12797,-16.18
12809,-17.66
12821,-18.97
12833,-19.92
12845,-20.23
12857,-19.68
12869,-18.08
12880,-15.4
12891,-11.79
12903,-7.5
12915,-2.9
12927,1.64
12939,5.78
12951,9.25
12963,11.88
12975,13.56
12987,14.31
12999,14.24
13011,13.54
13023,12.47
13035,11.28
13047,10.19
13059,9.24
13070,8.38
13081,7.45
13093,6.32
13105,4.94
13117,3.38
13129,1.81
13141,0.39
13153,-0.81
13165,-1.8
13177,-2.76
13189,-3.88
13201,-5.33
13213,-7.18
13225,-9.36
13237,-11.67
13249,-13.79
13260,-15.38
13271,-16.07
13283,-15.6
13295,-13.85
13307,-10.94
13319,-7.16
13331,-2.94
13343,1.26
13355,5.06
13367,8.18
13379,10.51
13391,12.04
13403,12.86
13415,13.16
13427,13.2
13439,13.26
13450,13.51
13461,14.01
13473,14.57
13485,14.9
13497,14.66
13509,13.64
13521,11.83
13533,9.4
13545,6.62
13557,3.8
13569,1.18
13581,-1.07
13593,-2.89
13605,-4.32
13617,-5.52
13629,-6.74
13640,-8.21
13651,-10.01
13663,-12.05
13675,-13.97
13687,-15.33
13699,-15.78
13711,-15.19
13723,-13.7
13735,-11.66
13747,-9.42
13759,-7.21
13771,-5.13
13783,-3.19
13795,-1.37
13807,0.29
13819,1.73
13830,2.91
13841,3.86
13853,4.65
13865,5.37
13877,6.12
13889,6.95
13901,7.84
13913,8.74
13925,9.56
13937,10.11
13949,10.29
13961,10.04
13973,9.44
13985,8.64
13997,7.77
14009,6.88
14020,5.9
14031,4.69
14043,3.17
14055,1.33
14067,-0.65
14079,-2.56
14091,-4.21
14103,-5.44
14115,-6.19
14127,-6.47
14139,-6.28
14151,-5.67
14163,-4.67
14175,-3.39
14187,-1.98
14199,-0.64
14210,0.45
14221,1.22
14233,1.67
14245,1.95
14257,2.19
14269,2.53
14281,3.0
14293,3.58
14305,4.24
14317,4.96
14329,5.77
14341,6.68
14353,7.67
14365,8.66
14377,9.55
14389,10.25
14400,10.75
14411,11.03
14423,11.14
14435,11.09
14447,10.94
14459,10.7
14471,10.38
14483,9.93
14495,9.29
14507,8.41
14519,7.35
14531,6.33
14543,5.71
14555,5.81
14567,6.83
14579,8.65
14590,10.94
14601,13.23
14613,15.14
14625,16.44
14637,17.12
14649,17.31
14661,17.21
14673,17.09
14685,17.25
14697,18.0
14709,19.58
14721,22.04
14733,25.16
14745,28.54
14757,31.71
14769,34.33
14780,36.28
14791,37.73
14803,39.02
14815,40.57
14827,42.64
14839,45.2
14851,47.84
14863,49.8
14875,50.11
14887,47.93
14899,42.91
14911,35.38
14923,26.35
14935,17.17
14947,8.99
14959,2.38
14970,-2.81
14981,-7.22
14993,-11.54
15005,-16.09
15017,-20.74
15029,-25.1
15041,-28.8
15053,-31.81
15065,-34.41
15077,-37.02
15089,-39.88
15101,-42.86
15113,-45.5
15125,-47.17
15137,-47.44
15149,-46.22
15160,-43.81
15171,-40.72
15183,-37.41
15195,-34.13
15207,-30.85
15219,-27.35
15231,-23.45
15243,-19.11
15255,-14.56
15267,-10.16
15279,-6.26
15291,-3.04
15303,-0.4
15315,1.94
15327,4.27
15339,6.72
15350,9.2
15361,11.44
15373,13.1
15385,14.02
15397,14.21
15409,13.87
15421,13.26
15433,12.61
15445,12.03
15457,11.51
15469,10.95
15481,10.24
15493,9.24
15505,7.93
15517,6.4
15529,4.89
15540,3.72
15551,3.15
15563,3.2
15575,3.62
15587,3.89
15599,3.48
15611,2.08
15623,-0.33
15635,-3.42
15647,-6.78
15659,-9.99
15671,-12.84
15683,-15.22
15695,-17.12
15707,-18.54
15719,-19.56
15730,-20.39
15741,-21.42
15753,-23.1
15765,-25.72
15777,-29.27
15789,-33.37
15801,-37.43
15813,-40.87
15825,-43.32
15837,-44.68
15849,-44.99
15861,-44.37
15873,-42.91
15885,-40.68
15897,-37.87
15909,-34.74
15920,-31.64
15931,-28.88
15943,-26.59
15955,-24.72
15967,-23.09
15979,-21.47
15991,-19.65
16003,-17.52
16015,-14.99
16027,-12.09
16039,-8.96
16051,-5.8
16063,-2.85
16075,-0.29
16087,1.81
16099,3.48
16110,4.84
16121,6.03
16133,7.13
16145,8.16
16157,9.07
16169,9.75
16181,10.13
16193,10.2
16205,10.05
16217,9.83
16229,9.71
16241,9.81
16253,10.19
16265,10.79
16277,11.52
16289,12.3
16300,12.99
16311,13.42
16323,13.42
16335,12.81
16347,11.53
16359,9.68
16371,7.51
16383,5.34
16395,3.47
16407,2.1
16419,1.26
16431,0.93
16443,1.01
16455,1.42
16467,2.09
16479,2.92
16490,3.81
16501,4.62
16513,5.21
16525,5.5
16537,5.48
16549,5.23
16561,4.84
16573,4.43
16585,4.04
16597,3.67
16609,3.32
16621,3.05
16633,2.96
16645,3.13
16657,3.59
16669,4.25
16680,4.91
16691,5.41
16703,5.63
16715,5.56
16727,5.23
16739,4.63
16751,3.74
16763,2.54
16775,1.09
16787,-0.42
16799,-1.77
16811,-2.75
16823,-3.28
16835,-3.37
16847,-3.09
16859,-2.52
16870,-1.69
16881,-0.68
16893,0.39
16905,1.33
16917,2.01
16929,2.38
16941,2.54
16953,2.65
16965,2.83
16977,3.07
16989,3.26
17001,3.28
17013,3.11
17025,2.87
17037,2.8
17049,3.03
17060,3.58
17071,4.29
17083,4.92
17095,5.3
17107,5.39
17119,5.24
17131,4.94
17143,4.49
17155,3.84
17167,2.9
17179,1.67
17191,0.26
17203,-1.13
17215,-2.35
17227,-3.35
17239,-4.2
17250,-5.08
17261,-6.06
17273,-7.15
17285,-8.21
17297,-9.05
17309,-9.57
17321,-9.75
17333,-9.69
17345,-9.5
17357,-9.27
17369,-9.01
17381,-8.68
17393,-8.22
17405,-7.62
17417,-6.87
17429,-5.98
17440,-4.9
17451,-3.56
17463,-1.88
17475,0.1
17487,2.27
17499,4.42
17511,6.33
17523,7.79
17535,8.69
17547,9.0
17559,8.77
17571,8.06
17583,7.02
17595,5.76
17607,4.49
17619,3.37
17630,2.53
17641,2.0
17653,1.66
17665,1.33
17677,0.87
17689,0.25
17701,-0.44
17713,-1.02
17725,-1.35
17737,-1.42
17749,-1.33
17761,-1.21
17773,-1.15
17785,-1.12
17797,-1.02
17809,-0.73
17820,-0.13
17831,0.85
17843,2.29
17855,4.23
17867,6.63
17879,9.36
17891,12.11
17903,14.54
17915,16.3
17927,17.22
17939,17.32
17951,16.83
17963,16.05
17975,15.3
17987,14.81
17999,14.69
18010,14.89
18021,15.3
18033,15.73
18045,16.03
18057,16.11
18069,16.01
18081,15.84
18093,15.76
18105,15.89
18117,16.25
18129,16.75
18141,17.19
18153,17.36
18165,17.15
18177,16.58
18189,15.84
18200,15.24
18211,15.09
18223,15.52
18235,16.39
18247,17.35
18259,17.86
18271,17.44
18283,15.82
18295,13.09
18307,9.61
18319,5.93
18331,2.56
18343,-0.23
18355,-2.42
18367,-4.21
18379,-5.85
18390,-7.6
18401,-9.59
18413,-11.86
18425,-14.43
18437,-17.25
18449,-20.26
18461,-23.27
18473,-26.02
18485,-28.17
18497,-29.41
18509,-29.59
18521,-28.77
18533,-27.26
18545,-25.46
18557,-23.76
18569,-22.42
18580,-21.5
18591,-20.91
18603,-20.43
18615,-19.85
18627,-19.02
18639,-17.87
18651,-16.5
18663,-15.03
18675,-13.66
18687,-12.5
18699,-11.6
18711,-10.91
18723,-10.28
18735,-9.64
18747,-8.94
18759,-8.21
18770,-7.51
18781,-6.87
18793,-6.26
18805,-5.62
18817,-4.92
18829,-4.18
18841,-3.46
18853,-2.86
18865,-2.44
18877,-2.19
18889,-2.08
18901,-2.05
18913,-2.05
18925,-2.07
18937,-2.1
18949,-2.19
18960,-2.34
18971,-2.54
18983,-2.73
18995,-2.82
19007,-2.76
19019,-2.52
19031,-2.15
19043,-1.69
19055,-1.19
19067,-0.64
19079,-0.03
19091,0.68
19103,1.47
19115,2.27
19127,2.97
19139,3.42
19150,3.54
19161,3.3
19173,2.79
19185,2.1
19197,1.41
19209,0.84
19221,0.45
19233,0.23
19245,0.12
19257,0.04
19269,-0.05
19281,-0.14
19293,-0.23
19305,-0.39
19317,-0.71
19329,-1.28
19340,-2.1
19351,-3.02
19363,-3.79
19375,-4.18
19387,-4.04
19399,-3.39
19411,-2.36
19423,-1.13
19435,0.12
19447,1.27
19459,2.22
19471,2.91
19483,3.28
19495,3.35
19507,3.21
19519,2.98
19530,2.79
19541,2.7
19553,2.71
19565,2.73
19577,2.69
19589,2.51
19601,2.17
19613,1.69
19625,1.11
19637,0.53
19649,0.07
19661,-0.18
19673,-0.15
19685,0.14
19697,0.57
19709,0.99
19720,1.22
19731,1.2
19743,0.95
19755,0.62
19767,0.36
19779,0.31
19791,0.54
19803,1.03
19815,1.7
19827,2.44
19839,3.08
19851,3.53
19863,3.7
19875,3.65
19887,3.47
19899,3.3
19910,3.27
19921,3.39
19933,3.59
19945,3.75
19957,3.78
19969,3.65
19981,3.47
19993,3.38
20005,3.54
20017,4.05
20029,4.89
20041,5.93
20053,6.99
20065,7.86
20077,8.39
20089,8.58
20100,8.53
20111,8.46
20123,8.63
20135,9.24
20147,10.4
20159,12.03
20171,13.96
20183,15.92
20195,17.64
20207,18.91
20219,19.64
20231,19.87
20243,19.74
20255,19.44
20267,19.14
20279,18.98
20290,18.99
20301,19.13
20313,19.24
20325,19.12
20337,18.57
20349,17.43
20361,15.69
20373,13.45
20385,10.93
20397,8.34
20409,5.84
20421,3.44
20433,1.07
20445,-1.38
20457,-4.02
20469,-6.8
20480,-9.6
20491,-12.24
20503,-14.55
20515,-16.46
20527,-18.03
20539,-19.42
20551,-20.82
20563,-22.39
20575,-24.14
20587,-25.96
20599,-27.65
20611,-28.97
20623,-29.73
20635,-29.88
20647,-29.51
20659,-28.82
20670,-28.12
20681,-27.66
20693,-27.55
20705,-27.62
20717,-27.51
20729,-26.77
20741,-25.14
20753,-22.64
20765,-19.6
20777,-16.52
20789,-13.85
20801,-11.83
20813,-10.37
20825,-9.19
20837,-7.89
20849,-6.15
20860,-3.81
20871,-0.83
20883,2.67
20895,6.56
20907,10.67
20919,14.93
20931,19.27
20943,23.68
20955,28.1
20967,32.39
20979,36.4
20991,39.98
