seconds,BVP
7,-15.32
19,-14.95
30,-14.26
41,-13.25
53,-11.96
65,-10.47
77,-8.87
89,-7.23
101,-5.5
113,-3.75
125,-1.99
137,-0.33
149,1.12
161,2.31
173,3.28
185,4.16
197,5.13
209,6.36
220,7.94
231,9.99
243,12.6
255,15.84
267,19.69
279,23.94
291,28.18
303,31.99
315,35.09
327,37.42
339,39.24
351,40.89
363,42.54
375,44.17
387,45.41
399,45.77
410,44.89
421,42.73
433,39.57
445,35.99
457,32.55
469,29.52
481,26.79
493,23.89
505,20.31
517,15.89
529,10.93
541,6.09
553,2.04
565,-0.93
577,-3.08
589,-4.97
600,-7.2
611,-9.98
623,-13.04
635,-15.92
647,-18.14
659,-19.47
671,-19.86
683,-19.45
695,-18.43
707,-17.26
719,-16.64
731,-17.41
743,-20.25
755,-25.23
767,-31.69
779,-38.36
790,-43.88
801,-47.27
813,-48.31
825,-47.45
837,-45.53
849,-43.37
861,-41.37
873,-39.41
885,-36.77
897,-32.43
909,-25.37
921,-15.18
933,-2.37
945,11.52
957,24.32
969,33.97
980,39.15
991,39.74
1003,36.6
1015,31.11
1027,24.55
1039,17.74
1051,11.06
1063,4.74
1075,-0.91
1087,-5.49
1099,-8.62
1111,-10.28
1123,-10.85
1135,-11.01
1147,-11.44
1159,-12.51
1170,-14.12
1181,-15.84
1193,-17.13
1205,-17.61
1217,-17.21
1229,-16.18
1241,-14.92
1253,-13.85
1265,-13.27
1277,-13.24
1289,-13.65
1301,-14.25
1313,-14.66
1325,-14.57
1337,-13.74
1349,-12.12
1360,-9.82
1371,-7.07
1383,-4.03
1395,-0.79
1407,2.55
1419,5.95
1431,9.29
1443,12.49
1455,15.47
1467,18.25
1479,20.97
1491,23.79
1503,26.87
1515,30.2
1527,33.67
1539,37.05
1550,40.12
1561,42.69
1573,44.62
1585,45.82
1597,46.27
1609,46.03
1621,45.21
1633,44.05
1645,42.73
1657,41.34
1669,39.76
1681,37.75
1693,34.99
1705,31.33
1717,26.79
1729,21.59
1740,15.98
1751,10.11
1763,4.04
1775,-2.17
1787,-8.3
1799,-14.05
1811,-19.05
1823,-23.08
1835,-26.2
1847,-28.59
1859,-30.45
1871,-31.83
1883,-32.54
1895,-32.4
1907,-31.42
1919,-29.91
1930,-28.42
1941,-27.5
1953,-27.46
1965,-28.31
1977,-29.83
1989,-31.74
2001,-33.9
2013,-36.28
2025,-38.87
2037,-41.56
2049,-44.04
2061,-45.78
2073,-46.26
2085,-45.09
2097,-42.17
2109,-37.76
2120,-32.43
2131,-26.85
2143,-21.62
2155,-17.04
2167,-13.02
2179,-9.16
2191,-4.89
2203,0.32
2215,6.74
2227,14.19
2239,22.12
2251,29.65
2263,35.79
2275,39.65
2287,40.61
2299,38.47
2310,33.49
2321,26.31
2333,17.89
2345,9.24
2357,1.35
2369,-5.08
2381,-9.72
2393,-12.61
2405,-14.12
2417,-14.73
2429,-14.85
2441,-14.69
2453,-14.2
2465,-13.21
2477,-11.57
2489,-9.3
2500,-6.69
2511,-4.14
2523,-2.02
2535,-0.54
2547,0.32
2559,0.72
2571,0.83
2583,0.77
2595,0.63
2607,0.41
2619,0.16
2631,-0.12
2643,-0.39
2655,-0.6
2667,-0.64
2679,-0.35
2690,0.42
2701,1.77
2713,3.66
2725,5.92
2737,8.22
2749,10.27
2761,11.86
2773,12.98
2785,13.75
2797,14.41
2809,15.22
2821,16.35
2833,17.92
2845,19.9
2857,22.16
2869,24.49
2880,26.58
2891,28.11
2903,28.85
2915,28.82
2927,28.3
2939,27.9
2951,28.28
2963,29.89
2975,32.73
2987,36.28
2999,39.6
3011,41.7
3023,41.92
3035,40.14
3047,36.87
3059,32.96
3070,29.21
3081,26.06
3093,23.36
3105,20.65
3117,17.37
3129,13.26
3141,8.49
3153,3.54
3165,-1.14
3177,-5.34
3189,-9.24
3201,-13.22
3213,-17.54
3225,-22.17
3237,-26.84
3249,-31.15
3260,-34.9
3271,-38.13
3283,-41.02
3295,-43.69
3307,-46.1
3319,-48.06
3331,-49.35
3343,-50.04
3355,-50.41
3367,-51.02
3379,-52.38
3391,-54.72
3403,-57.83
3415,-61.01
3427,-63.38
3439,-64.12
3450,-62.9
3461,-59.93
3473,-56.0
3485,-51.98
3497,-48.5
3509,-45.54
3521,-42.49
3533,-38.37
3545,-32.25
3557,-23.61
3569,-12.47
3581,0.56
3593,14.44
3605,27.86
3617,39.41
3629,47.89
3640,52.57
3651,53.4
3663,51.04
3675,46.61
3687,41.3
3699,35.97
3711,31.02
3723,26.38
3735,21.87
3747,17.42
3759,13.2
3771,9.48
3783,6.5
3795,4.25
3807,2.48
3819,0.83
3830,-1.04
3841,-3.22
3853,-5.49
3865,-7.43
3877,-8.48
3889,-8.25
3901,-6.6
3913,-3.74
3925,-0.1
3937,3.76
3949,7.47
3961,10.81
3973,13.83
3985,16.72
3997,19.64
4009,22.69
4020,25.85
4031,28.98
4043,31.87
4055,34.28
4067,35.9
4079,36.43
4091,35.65
4103,33.5
4115,30.21
4127,26.23
4139,22.11
4151,18.31
4163,15.05
4175,12.19
4187,9.31
4199,6.01
4210,2.0
4221,-2.63
4233,-7.43
4245,-11.77
4257,-15.01
4269,-16.85
4281,-17.39
4293,-17.1
4305,-16.58
4317,-16.33
4329,-16.46
4341,-16.81
4353,-17.12
4365,-17.27
4377,-17.36
4389,-17.55
4400,-17.9
4411,-18.15
4423,-17.86
4435,-16.66
4447,-14.51
4459,-11.83
4471,-9.22
4483,-7.2
4495,-5.85
4507,-4.83
4519,-3.57
4531,-1.62
4543,1.17
4555,4.59
4567,8.28
4579,11.85
4590,15.01
4601,17.5
4613,19.15
4625,20.01
4637,20.34
4649,20.69
4661,21.65
4673,23.55
4685,26.11
4697,28.34
4709,28.78
4721,26.1
4733,19.61
4745,9.68
4757,-2.35
4769,-14.59
4780,-25.28
4791,-33.21
4803,-37.97
4815,-39.83
4827,-39.43
4839,-37.41
4851,-34.34
4863,-30.59
4875,-26.44
4887,-22.11
4899,-17.73
4911,-13.33
4923,-8.8
4935,-4.05
4947,1.04
4959,6.42
4970,12.0
4981,17.56
4993,22.9
5005,27.83
5017,32.23
5029,35.99
5041,38.94
5053,40.93
5065,41.79
5077,41.38
5089,39.59
5101,36.42
5113,31.92
5125,26.29
5137,19.82
5149,12.85
5160,5.71
5171,-1.4
5183,-8.36
5195,-15.02
5207,-21.07
5219,-25.9
5231,-28.72
5243,-28.8
5255,-25.86
5267,-20.33
5279,-13.32
5291,-6.28
5303,-0.43
5315,3.55
5327,5.69
5339,6.47
5350,6.39
5361,5.65
5373,4.05
5385,1.16
5397,-3.28
5409,-9.16
5421,-15.91
5433,-22.75
5445,-28.87
5457,-33.74
5469,-37.16
5481,-39.12
5493,-39.68
5505,-38.84
5517,-36.61
5529,-33.13
5540,-28.86
5551,-24.49
5563,-20.86
5575,-18.65
5587,-17.93
5599,-18.06
5611,-17.58
5623,-14.58
5635,-7.33
5647,5.01
5659,21.79
5671,40.88
5683,59.13
5695,73.41
5707,81.51
5719,82.79
5730,78.06
5741,69.1
5753,57.86
5765,45.86
5777,34.08
5789,23.06
5801,13.17
5813,4.79
5825,-1.78
5837,-6.49
5849,-9.71
5861,-12.14
5873,-14.54
5885,-17.44
5897,-20.86
5909,-24.35
5920,-27.16
5931,-28.73
5943,-28.88
5955,-28.01
5967,-26.84
5979,-26.12
5991,-26.42
6003,-27.89
6015,-30.37
6027,-33.42
6039,-36.55
6051,-39.29
6063,-41.31
6075,-42.5
6087,-42.99
6099,-43.12
6110,-43.17
6121,-43.23
6133,-42.96
6145,-41.71
6157,-38.73
6169,-33.54
6181,-26.27
6193,-17.66
6205,-8.84
6217,-1.0
6229,4.96
6241,8.55
6253,9.67
6265,8.43
6277,5.09
6289,-0.02
6300,-6.4
6311,-13.3
6323,-19.8
6335,-24.95
6347,-28.08
6359,-28.91
6371,-27.67
6383,-24.87
6395,-21.17
6407,-17.03
6419,-12.6
6431,-7.82
6443,-2.46
6455,3.6
6467,10.21
6479,16.96
6490,23.29
6501,28.57
6513,32.41
6525,34.73
6537,35.77
6549,36.01
6561,35.95
6573,35.98
6585,36.23
6597,36.63
6609,36.91
6621,36.8
6633,36.12
6645,34.75
6657,32.77
6669,30.3
6680,27.57
6691,24.76
6703,22.09
6715,19.66
6727,17.52
6739,15.64
6751,13.94
6763,12.38
6775,10.94
6787,9.65
6799,8.54
6811,7.66
6823,7.0
6835,6.54
6847,6.26
6859,6.07
6870,5.95
6881,5.88
6893,5.84
6905,5.82
6917,5.81
6929,5.8
6941,5.74
6953,5.61
6965,5.33
6977,4.89
6989,4.3
7001,3.63
7013,3.07
7025,2.81
7037,3.01
7049,3.62
7060,4.37
7071,4.76
7083,4.24
7095,2.41
7107,-0.85
7119,-5.25
7131,-10.3
7143,-15.47
7155,-20.35
7167,-24.64
7179,-28.11
7191,-30.58
7203,-32.09
7215,-33.0
7227,-34.08
7239,-36.24
7250,-39.94
7261,-44.63
7273,-48.62
7285,-49.51
7297,-45.22
7309,-34.96
7321,-19.72
7333,-1.93
7345,15.49
7357,30.15
7369,40.88
7381,47.64
7393,51.13
7405,52.16
7417,51.26
7429,48.75
7440,44.89
7451,40.13
7463,35.12
7475,30.47
7487,26.54
7499,23.29
7511,20.37
7523,17.37
7535,14.03
7547,10.43
7559,6.93
7571,3.98
7583,1.94
7595,0.93
7607,0.86
7619,1.46
7630,2.4
7641,3.43
7653,4.38
7665,5.23
7677,6.07
7689,7.03
7701,8.22
7713,9.66
7725,11.24
7737,12.85
7749,14.51
7761,16.42
7773,18.86
7785,22.09
7797,26.07
7809,30.34
7820,34.09
7831,36.3
7843,36.14
7855,33.25
7867,27.83
7879,20.62
7891,12.66
7903,5.07
7915,-1.21
7927,-5.62
7939,-8.12
7951,-9.25
7963,-10.0
7975,-11.5
7987,-14.57
7999,-19.3
8010,-24.96
8021,-30.15
8033,-33.41
8045,-33.79
8057,-31.26
8069,-26.73
8081,-21.64
8093,-17.41
8105,-15.02
8117,-14.84
8129,-16.67
8141,-19.99
8153,-24.05
8165,-27.99
8177,-30.93
8189,-32.19
8200,-31.52
8211,-29.28
8223,-26.27
8235,-23.28
8247,-20.49
8259,-17.13
8271,-11.78
8283,-3.21
8295,8.7
8307,22.47
8319,35.47
8331,45.01
8343,49.4
8355,48.68
8367,44.28
8379,38.08
8390,31.49
8401,25.06
8413,18.66
8425,12.16
8437,5.85
8449,0.41
8461,-3.49
8473,-5.66
8485,-6.55
8497,-7.1
8509,-8.16
8521,-10.16
8533,-12.9
8545,-15.66
8557,-17.58
8569,-17.94
8580,-16.43
8591,-13.21
8603,-8.89
8615,-4.25
8627,-0.07
8639,3.06
8651,4.89
8663,5.5
8675,5.2
8687,4.35
8699,3.17
8711,1.63
8723,-0.52
8735,-3.62
8747,-7.92
8759,-13.4
8770,-19.67
8781,-26.04
8793,-31.65
8805,-35.66
8817,-37.33
8829,-36.21
8841,-32.3
8853,-26.09
8865,-18.68
8877,-11.51
8889,-6.08
8901,-3.42
8913,-3.79
8925,-6.52
8937,-10.29
8949,-13.64
8960,-15.5
8971,-15.45
8983,-13.61
8995,-10.39
9007,-6.18
9019,-1.28
9031,3.99
9043,9.15
9055,13.48
9067,16.34
9079,17.48
9091,17.26
9103,16.61
9115,16.61
9127,17.99
9139,20.76
9150,24.21
9161,27.27
9173,28.99
9185,29.01
9197,27.6
9209,25.46
9221,23.41
9233,21.99
9245,21.37
9257,21.36
9269,21.65
9281,22.02
9293,22.4
9305,22.88
9317,23.54
9329,24.37
9340,25.22
9351,25.94
9363,26.45
9375,26.87
9387,27.39
9399,28.15
9411,29.13
9423,30.15
9435,30.88
9447,30.97
9459,30.2
9471,28.41
9483,25.53
9495,21.57
9507,16.57
9519,10.7
9530,4.34
9541,-1.95
9553,-7.54
9565,-11.93
9577,-14.95
9589,-16.79
9601,-17.93
9613,-18.89
9625,-20.02
9637,-21.41
9649,-22.94
9661,-24.49
9673,-26.14
9685,-28.15
9697,-30.82
9709,-34.3
9720,-38.58
9731,-43.53
9743,-49.01
9755,-54.9
9767,-60.91
9779,-66.4
9791,-70.42
9803,-71.83
9815,-69.75
9827,-64.03
9839,-55.32
9851,-44.93
9863,-34.35
9875,-24.81
9887,-16.99
9899,-10.96
9910,-6.42
9921,-2.85
9933,0.23
9945,3.16
9957,6.08
9969,8.96
9981,11.69
9993,14.11
10005,16.13
10017,17.67
10029,18.7
10041,19.28
10053,19.49
10065,19.5
10077,19.51
10089,19.78
10100,20.46
10111,21.52
10123,22.68
10135,23.4
10147,23.16
10159,21.56
10171,18.51
10183,14.22
10195,9.18
10207,3.92
10219,-1.13
10231,-5.76
10243,-10.05
10255,-14.32
10267,-18.96
10279,-24.18
10290,-29.81
10301,-35.18
10313,-39.23
10325,-40.92
10337,-39.61
10349,-35.41
10361,-29.13
10373,-21.96
10385,-14.92
10397,-8.49
10409,-2.55
10421,3.3
10433,9.41
10445,15.79
10457,22.07
10469,27.66
10480,32.05
10491,34.85
10503,35.84
10515,34.89
10527,31.9
10539,26.78
10551,19.65
10563,10.88
10575,1.22
10587,-8.27
10599,-16.49
10611,-22.49
10623,-25.76
10635,-26.31
10647,-24.56
10659,-21.22
10670,-17.01
10681,-12.55
10693,-8.34
10705,-4.84
10717,-2.44
10729,-1.41
10741,-1.76
10753,-3.11
10765,-4.74
10777,-5.89
10789,-6.02
10801,-5.1
10813,-3.52
10825,-1.95
10837,-1.06
10849,-1.21
10860,-2.36
10871,-4.03
10883,-5.59
10895,-6.43
10907,-6.18
10919,-4.81
10931,-2.63
10943,-0.18
10955,1.88
10967,3.03
10979,3.07
10991,2.25
11003,1.29
11015,1.05
11027,2.25
11039,4.99
11050,8.69
11061,12.16
11073,14.14
11085,13.86
11097,11.4
11109,7.76
11121,4.36
11133,2.45
11145,2.6
11157,4.57
11169,7.61
11181,10.89
11193,13.91
11205,16.62
11217,19.17
11229,21.69
11240,24.0
11251,25.68
11263,26.28
11275,25.51
11287,23.45
11299,20.48
11311,17.16
11323,13.95
11335,11.15
11347,8.76
11359,6.58
11371,4.3
11383,1.69
11395,-1.3
11407,-4.42
11419,-7.21
11430,-9.16
11441,-9.97
11453,-9.63
11465,-8.48
11477,-7.05
11489,-5.83
11501,-5.08
11513,-4.79
11525,-4.75
11537,-4.79
11549,-4.83
11561,-5.0
11573,-5.4
11585,-6.08
11597,-6.91
11609,-7.66
11620,-8.19
11631,-8.55
11643,-8.89
11655,-9.37
11667,-9.98
11679,-10.51
11691,-10.67
11703,-10.19
11715,-9.0
11727,-7.22
11739,-5.04
11751,-2.63
11763,-0.14
11775,2.16
11787,3.98
11799,4.94
11810,4.89
11821,3.99
11833,2.77
11845,1.95
11857,2.21
11869,3.83
11881,6.59
11893,9.91
11905,13.04
11917,15.43
11929,16.88
11941,17.57
11953,17.86
11965,18.17
11977,18.72
11989,19.51
12000,20.35
12011,20.98
12023,21.15
12035,20.7
12047,19.62
12059,18.03
12071,16.18
12083,14.35
12095,12.84
12107,11.84
12119,11.35
12131,11.2
12143,11.13
12155,10.9
12167,10.39
12179,9.61
12190,8.75
12201,8.07
12213,7.83
12225,8.18
12237,9.02
12249,10.07
12261,10.88
12273,11.06
12285,10.44
12297,9.14
12309,7.57
12321,6.21
12333,5.44
12345,5.28
12357,5.5
12369,5.68
12380,5.46
12391,4.72
12403,3.56
12415,2.19
12427,0.62
12439,-1.46
12451,-4.58
12463,-9.21
12475,-15.43
12487,-22.78
12499,-30.44
12511,-37.51
12523,-43.39
12535,-48.04
12547,-51.79
12559,-55.19
12570,-58.68
12581,-62.53
12593,-66.82
12605,-71.39
12617,-75.73
12629,-78.88
12641,-79.52
12653,-76.29
12665,-68.41
12677,-56.11
12689,-40.76
12701,-24.51
12713,-9.5
12725,2.74
12737,11.72
12749,17.83
12760,21.84
12771,24.44
12783,25.9
12795,26.21
12807,25.33
12819,23.52
12831,21.35
12843,19.54
12855,18.63
12867,18.75
12879,19.56
12891,20.42
12903,20.73
12915,20.17
12927,18.75
12939,16.67
12950,14.18
12961,11.38
12973,8.31
12985,5.07
12997,1.96
13009,-0.57
13021,-2.13
13033,-2.6
13045,-2.29
13057,-1.73
13069,-1.44
13081,-1.58
13093,-1.81
13105,-1.5
13117,-0.08
13129,2.75
13140,6.83
13151,11.6
13163,16.4
13175,20.51
13187,23.31
13199,24.22
13211,22.86
13223,19.1
13235,13.31
13247,6.33
13259,-0.68
13271,-6.46
13283,-10.09
13295,-11.22
13307,-10.13
13319,-7.62
13330,-4.74
13341,-2.38
13353,-1.11
13365,-1.03
13377,-1.89
13389,-3.26
13401,-4.76
13413,-6.03
13425,-6.7
13437,-6.34
13449,-4.48
13461,-0.82
13473,4.45
13485,10.57
13497,16.37
13509,20.66
13520,22.69
13531,22.41
13543,20.34
13555,17.23
13567,13.75
13579,10.22
13591,6.72
13603,3.28
13615,-0.03
13627,-2.98
13639,-5.38
13651,-7.12
13663,-8.24
13675,-8.86
13687,-9.1
13699,-9.13
13710,-9.1
13721,-9.2
13733,-9.57
13745,-10.25
13757,-11.06
13769,-11.59
13781,-11.4
13793,-10.11
13805,-7.59
13817,-4.07
13829,0.01
13841,4.11
13853,7.81
13865,10.86
13877,13.19
13889,14.84
13900,15.79
13911,16.0
13923,15.4
13935,13.97
13947,11.91
13959,9.62
13971,7.55
13983,6.1
13995,5.36
14007,5.06
14019,4.78
14031,4.22
14043,3.38
14055,2.64
14067,2.47
14079,3.06
14090,4.07
14101,4.76
14113,4.41
14125,2.76
14137,0.26
14149,-2.06
14161,-3.13
14173,-2.35
14185,0.06
14197,3.23
14209,6.06
14221,7.69
14233,7.91
14245,7.1
14257,6.03
14269,5.37
14280,5.49
14291,6.25
14303,7.18
14315,7.69
14327,7.35
14339,6.14
14351,4.32
14363,2.31
14375,0.39
14387,-1.45
14399,-3.49
14411,-6.03
14423,-9.16
14435,-12.65
14447,-15.93
14459,-18.47
14470,-19.96
14481,-20.5
14493,-20.44
14505,-20.13
14517,-19.66
14529,-18.76
14541,-16.97
14553,-13.9
14565,-9.54
14577,-4.42
14589,0.64
14601,4.8
14613,7.56
14625,8.91
14637,9.29
14649,9.35
14660,9.69
14671,10.62
14683,12.11
14695,13.95
14707,15.91
14719,17.86
14731,19.72
14743,21.43
14755,22.86
14767,23.74
14779,23.81
14791,22.87
14803,20.99
14815,18.45
14827,15.74
14839,13.26
14850,11.26
14861,9.8
14873,8.88
14885,8.59
14897,9.16
14909,10.88
14921,13.79
14933,17.45
14945,20.97
14957,23.24
14969,23.5
14981,21.74
14993,18.69
15005,15.45
15017,12.88
15029,11.12
15040,9.57
15051,7.39
15063,4.04
15075,-0.26
15087,-4.67
15099,-8.16
15111,-10.09
15123,-10.51
15135,-10.05
15147,-9.46
15159,-9.17
15171,-9.08
15183,-8.82
15195,-8.08
15207,-6.91
15219,-5.74
15230,-5.16
15241,-5.55
15253,-6.82
15265,-8.4
15277,-9.47
15289,-9.45
15301,-8.23
15313,-6.29
15325,-4.42
15337,-3.33
15349,-3.36
15361,-4.27
15373,-5.43
15385,-6.12
15397,-5.94
15409,-4.94
15420,-3.58
15431,-2.55
15443,-2.36
15455,-3.16
15467,-4.68
15479,-6.38
15491,-7.72
15503,-8.43
15515,-8.55
15527,-8.35
15539,-8.16
15551,-8.16
15563,-8.34
15575,-8.55
15587,-8.62
15599,-8.43
15610,-7.93
15621,-7.05
15633,-5.7
15645,-3.83
15657,-1.61
15669,0.44
15681,1.6
15693,1.07
15705,-1.48
15717,-5.73
15729,-10.68
15741,-14.91
15753,-17.07
15765,-16.32
15777,-12.6
15789,-6.54
15800,0.76
15811,8.02
15823,14.11
15835,18.17
15847,19.75
15859,18.8
15871,15.71
15883,11.15
15895,5.99
15907,1.02
15919,-3.2
15931,-6.49
15943,-9.03
15955,-11.13
15967,-13.17
15979,-15.32
15990,-17.52
16001,-19.48
16013,-20.81
16025,-21.18
16037,-20.39
16049,-18.52
16061,-15.9
16073,-12.99
16085,-10.3
16097,-8.14
16109,-6.67
16121,-5.8
16133,-5.33
16145,-5.04
16157,-4.8
16169,-4.64
16180,-4.67
16191,-5.01
16203,-5.72
16215,-6.8
16227,-8.09
16239,-9.33
16251,-10.23
16263,-10.55
16275,-10.21
16287,-9.33
16299,-8.19
16311,-7.09
16323,-6.23
16335,-5.62
16347,-5.08
16359,-4.37
16370,-3.3
16381,-1.78
16393,0.08
16405,2.04
16417,3.75
16429,4.88
16441,5.19
16453,4.66
16465,3.58
16477,2.4
16489,1.65
16501,1.68
16513,2.55
16525,4.01
16537,5.67
16549,7.24
16560,8.58
16571,9.78
16583,11.05
16595,12.58
16607,14.41
16619,16.39
16631,18.24
16643,19.65
16655,20.37
16667,20.32
16679,19.67
16691,18.73
16703,17.82
16715,17.1
16727,16.53
16739,16.0
16750,15.52
16761,15.34
16773,15.84
16785,17.35
16797,19.86
16809,22.93
16821,25.84
16833,27.82
16845,28.47
16857,27.78
16869,26.14
16881,24.17
16893,22.47
16905,21.5
16917,21.49
16929,22.37
16940,23.78
16951,25.16
16963,25.96
16975,25.88
16987,25.04
16999,23.9
17011,22.93
17023,22.4
17035,22.22
17047,22.01
17059,21.49
17071,20.59
17083,19.49
17095,18.41
17107,17.41
17119,16.26
17130,14.69
17141,12.55
17153,9.98
17165,7.35
17177,5.01
17189,3.16
17201,1.78
17213,0.7
17225,-0.25
17237,-1.23
17249,-2.55
17261,-4.69
17273,-8.17
17285,-13.3
17297,-19.92
17309,-27.36
17320,-34.68
17331,-41.03
17343,-45.96
17355,-49.48
17367,-51.8
17379,-53.13
17391,-53.5
17403,-52.85
17415,-51.15
17427,-48.65
17439,-45.75
17451,-42.98
17463,-40.71
17475,-39.06
17487,-37.87
17499,-36.83
17510,-35.63
17521,-34.08
17533,-32.27
17545,-30.54
17557,-29.38
17569,-29.33
17581,-30.68
17593,-33.38
17605,-36.92
17617,-40.48
17629,-43.18
17641,-44.25
17653,-43.31
17665,-40.39
17677,-35.97
17689,-30.69
17700,-25.3
17711,-20.39
17723,-16.39
17735,-13.62
17747,-12.29
17759,-12.56
17771,-14.52
17783,-18.09
17795,-22.92
17807,-28.47
17819,-34.08
17831,-39.03
17843,-42.7
17855,-44.49
17867,-43.88
17879,-40.52
17890,-34.31
17901,-25.58
17913,-15.03
17925,-3.54
17937,8.15
17949,19.68
17961,31.21
17973,43.06
17985,55.52
17997,68.36
18009,80.79
18021,91.49
18033,99.02
18045,102.31
18057,100.98
18069,95.53
18080,87.14
18091,77.36
18103,67.59
18115,58.78
18127,51.28
18139,44.98
18151,39.46
18163,34.19
18175,28.6
18187,22.24
18199,14.84
18211,6.42
18223,-2.6
18235,-11.4
18247,-19.02
18259,-24.64
18270,-27.93
18281,-29.16
18293,-29.1
18305,-28.66
18317,-28.6
18329,-29.28
18341,-30.66
18353,-32.53
18365,-34.66
18377,-36.95
18389,-39.35
18401,-41.68
18413,-43.42
18425,-43.85
18437,-42.3
18449,-38.6
18460,-33.35
18471,-27.75
18483,-23.25
18495,-20.92
18507,-21.04
18519,-23.19
18531,-26.54
18543,-30.31
18555,-34.08
18567,-37.66
18579,-40.84
18591,-43.07
18603,-43.51
18615,-41.3
18627,-35.99
18639,-27.84
18650,-17.82
18661,-7.29
18673,2.54
18685,11.0
18697,18.12
18709,24.48
18721,30.69
18733,37.1
18745,43.53
18757,49.4
18769,54.01
18781,56.98
18793,58.38
18805,58.77
18817,58.81
18829,58.94
18840,59.13
18851,58.92
18863,57.65
18875,54.83
18887,50.3
18899,44.31
18911,37.31
18923,29.79
18935,22.16
18947,14.82
18959,8.28
18971,3.2
18983,0.25
18995,-0.17
19007,1.81
19019,5.41
19030,9.44
19041,12.64
19053,14.17
19065,13.84
19077,12.06
19089,9.5
19101,6.78
19113,4.06
19125,1.1
19137,-2.55
19149,-7.32
19161,-13.23
19173,-19.93
19185,-26.72
19197,-32.9
19209,-37.92
19220,-41.59
19231,-43.93
19243,-45.11
19255,-45.27
19267,-44.54
19279,-43.11
19291,-41.31
19303,-39.64
19315,-38.57
19327,-38.34
19339,-38.79
19351,-39.39
19363,-39.46
19375,-38.52
19387,-36.4
19399,-33.35
19410,-29.8
19421,-26.13
19433,-22.61
19445,-19.39
19457,-16.59
19469,-14.4
19481,-13.05
19493,-12.65
19505,-13.04
19517,-13.79
19529,-14.27
19541,-13.85
19553,-12.06
19565,-8.68
19577,-3.83
19589,2.06
19600,8.35
19611,14.31
19623,19.32
19635,23.09
19647,25.65
19659,27.3
19671,28.35
19683,28.89
19695,28.77
19707,27.75
19719,25.82
19731,23.42
19743,21.34
19755,20.42
19767,21.09
19779,23.09
19790,25.56
19801,27.46
19813,28.1
19825,27.49
19837,26.26
19849,25.24
19861,24.94
19873,25.22
19885,25.34
19897,24.41
19909,21.82
19921,17.59
19933,12.3
19945,6.83
19957,2.0
19969,-1.7
19980,-4.1
19991,-5.29
20003,-5.46
20015,-4.86
20027,-3.71
20039,-2.24
20051,-0.68
20063,0.84
20075,2.31
20087,3.89
20099,5.87
20111,8.54
20123,12.0
20135,16.1
20147,20.36
20159,24.12
20170,26.87
20181,28.39
20193,28.97
20205,29.24
20217,29.88
20229,31.33
20241,33.59
20253,36.3
20265,38.82
20277,40.64
20289,41.36
20301,40.88
20313,39.29
20325,36.89
20337,34.17
20349,31.68
20360,29.92
20371,29.01
20383,28.68
20395,28.2
20407,26.72
20419,23.67
20431,19.04
20443,13.53
20455,8.36
20467,4.8
20479,3.73
20491,5.44
20503,9.55
20515,15.36
20527,22.18
20539,29.51
20550,37.06
20561,44.58
20573,51.62
20585,57.59
20597,61.87
20609,64.07
20621,64.21
20633,62.65
20645,59.84
20657,56.06
20669,51.38
20681,45.72
20693,39.08
20705,31.64
20717,23.71
20729,15.53
20740,7.14
20751,-1.53
20763,-10.59
20775,-19.86
20787,-28.87
20799,-36.93
20811,-43.39
20823,-47.87
20835,-50.37
20847,-51.14
20859,-50.56
20871,-48.97
20883,-46.6
20895,-43.65
20907,-40.3
20919,-36.8
20930,-33.47
20941,-30.68
20953,-28.73
20965,-27.91
20977,-28.6
20989,-31.22
