seconds,BVP
10,34.65
22,30.98
34,27.12
46,23.78
58,21.27
70,19.6
82,18.64
94,18.14
106,17.84
118,17.43
130,16.68
141,15.43
152,13.73
164,11.78
176,9.88
188,8.31
200,7.23
212,6.65
224,6.41
236,6.24
248,5.88
260,5.15
272,4.02
284,2.6
296,1.09
308,-0.27
320,-1.27
331,-1.77
342,-1.8
354,-1.49
366,-1.07
378,-0.78
390,-0.74
402,-0.93
414,-1.21
426,-1.44
438,-1.5
450,-1.43
462,-1.31
474,-1.28
486,-1.43
498,-1.73
510,-2.11
521,-2.45
532,-2.66
544,-2.71
556,-2.68
568,-2.75
580,-3.12
592,-3.96
604,-5.32
616,-7.05
628,-8.87
640,-10.46
652,-11.6
664,-12.28
676,-12.7
688,-13.21
700,-14.12
711,-15.59
722,-17.56
734,-19.79
746,-21.93
758,-23.69
770,-24.89
782,-25.59
794,-25.98
806,-26.46
818,-27.49
830,-29.51
842,-32.67
854,-36.66
866,-40.54
878,-42.89
890,-42.14
901,-37.18
912,-27.87
924,-15.25
936,-1.25
948,11.81
960,22.03
972,28.41
984,30.93
996,30.39
1008,27.94
1020,24.72
1032,21.62
1044,19.21
1056,17.76
1068,17.24
1080,17.43
1091,17.92
1102,18.32
1114,18.35
1126,17.93
1138,17.16
1150,16.26
1162,15.47
1174,14.93
1186,14.73
1198,14.87
1210,15.24
1222,15.62
1234,15.68
1246,15.11
1258,13.73
1270,11.6
1281,9.03
1292,6.5
1304,4.43
1316,3.06
1328,2.34
1340,2.05
1352,1.89
1364,1.66
1376,1.31
1388,0.9
1400,0.57
1412,0.41
1424,0.44
1436,0.58
1448,0.67
1460,0.56
1471,0.15
1482,-0.59
1494,-1.51
1506,-2.45
1518,-3.23
1530,-3.78
1542,-4.16
1554,-4.54
1566,-5.1
1578,-5.96
1590,-7.12
1602,-8.41
1614,-9.64
1626,-10.61
1638,-11.24
1650,-11.64
1661,-12.05
1672,-12.74
1684,-13.9
1696,-15.52
1708,-17.39
1720,-19.19
1732,-20.61
1744,-21.52
1756,-21.95
1768,-22.14
1780,-22.4
1792,-23.07
1804,-24.45
1816,-26.74
1828,-29.85
1840,-33.25
1851,-35.93
1862,-36.58
1874,-33.99
1886,-27.63
1898,-17.94
1910,-6.31
1922,5.32
1934,15.11
1946,21.87
1958,25.25
1970,25.72
1982,24.16
1994,21.53
2006,18.61
2018,15.99
2030,14.02
2041,12.86
2052,12.49
2064,12.74
2076,13.33
2088,13.94
2100,14.3
2112,14.26
2124,13.82
2136,13.14
2148,12.45
2160,11.99
2172,11.92
2184,12.2
2196,12.64
2208,12.91
2220,12.73
2231,11.94
2242,10.64
2254,9.1
2266,7.61
2278,6.42
2290,5.57
2302,4.99
2314,4.53
2326,4.08
2338,3.55
2350,2.92
2362,2.19
2374,1.36
2386,0.45
2398,-0.45
2410,-1.24
2421,-1.8
2432,-2.09
2444,-2.17
2456,-2.2
2468,-2.36
2480,-2.74
2492,-3.37
2504,-4.2
2516,-5.14
2528,-6.15
2540,-7.19
2552,-8.23
2564,-9.26
2576,-10.24
2588,-11.2
2600,-12.17
2611,-13.23
2622,-14.38
2634,-15.58
2646,-16.7
2658,-17.65
2670,-18.45
2682,-19.19
2694,-20.12
2706,-21.46
2718,-23.38
2730,-25.86
2742,-28.52
2754,-30.65
2766,-31.29
2778,-29.54
2790,-24.89
2801,-17.52
2812,-8.33
2824,1.25
2836,9.73
2848,16.02
2860,19.66
2872,20.84
2884,20.15
2896,18.35
2908,16.11
2920,13.97
2932,12.25
2944,11.12
2956,10.55
2968,10.41
2980,10.52
2991,10.71
3002,10.9
3014,11.07
3026,11.26
3038,11.49
3050,11.78
3062,12.12
3074,12.53
3086,12.97
3098,13.4
3110,13.72
3122,13.78
3134,13.48
3146,12.75
3158,11.63
3170,10.24
3181,8.78
3192,7.41
3204,6.28
3216,5.41
3228,4.78
3240,4.24
3252,3.67
3264,2.97
3276,2.16
3288,1.36
3300,0.71
3312,0.29
3324,0.11
3336,0.04
3348,-0.07
3360,-0.36
3371,-0.92
3382,-1.74
3394,-2.77
3406,-3.91
3418,-5.0
3430,-5.9
3442,-6.52
3454,-6.87
3466,-7.11
3478,-7.49
3490,-8.25
3502,-9.52
3514,-11.21
3526,-13.11
3538,-14.98
3550,-16.61
3561,-17.91
3572,-18.89
3584,-19.65
3596,-20.35
3608,-21.22
3620,-22.59
3632,-24.77
3644,-27.88
3656,-31.63
3668,-35.22
3680,-37.44
3692,-37.0
3704,-33.05
3716,-25.55
3728,-15.43
3740,-4.28
3751,6.12
3762,14.36
3774,19.72
3786,22.24
3798,22.5
3810,21.27
3822,19.28
3834,17.14
3846,15.27
3858,14.01
3870,13.54
3882,13.9
3894,14.87
3906,16.09
3918,17.13
3930,17.61
3941,17.42
3952,16.65
3964,15.57
3976,14.51
3988,13.67
4000,13.12
4012,12.76
4024,12.42
4036,11.92
4048,11.16
4060,10.12
4072,8.86
4084,7.46
4096,6.0
4108,4.53
4120,3.05
4131,1.53
4142,-0.06
4154,-1.75
4166,-3.5
4178,-5.29
4190,-7.07
4202,-8.76
4214,-10.36
4226,-11.92
4238,-13.55
4250,-15.42
4262,-17.61
4274,-20.12
4286,-22.8
4298,-25.34
4310,-27.51
4321,-29.15
4332,-30.33
4344,-31.23
4356,-32.08
4368,-32.95
4380,-33.72
4392,-34.12
4404,-33.79
4416,-32.49
4428,-30.22
4440,-27.26
4452,-24.08
4464,-21.2
4476,-19.0
4488,-17.6
4500,-16.81
4511,-16.25
4522,-15.53
4534,-14.5
4546,-13.36
4558,-12.64
4570,-13.09
4582,-15.37
4594,-19.83
4606,-26.2
4618,-33.46
4630,-39.83
4642,-43.16
4654,-41.43
4666,-33.51
4678,-19.63
4690,-1.55
4701,17.97
4712,35.87
4724,49.78
4736,58.51
4748,62.21
4760,62.01
4772,59.4
4784,55.83
4796,52.29
4808,49.4
4820,47.38
4832,46.23
4844,45.75
4856,45.63
4868,45.46
4880,44.88
4891,43.58
4902,41.47
4914,38.65
4926,35.42
4938,32.21
4950,29.42
4962,27.33
4974,25.93
4986,24.95
4998,23.92
5010,22.4
5022,20.16
5034,17.32
5046,14.28
5058,11.56
5070,9.56
5081,8.41
5092,7.91
5104,7.72
5116,7.47
5128,6.93
5140,6.01
5152,4.76
5164,3.3
5176,1.78
5188,0.32
5200,-0.95
5212,-1.98
5224,-2.8
5236,-3.52
5248,-4.31
5260,-5.38
5271,-6.84
5282,-8.72
5294,-10.97
5306,-13.41
5318,-15.8
5330,-17.89
5342,-19.46
5354,-20.41
5366,-20.85
5378,-21.09
5390,-21.49
5402,-22.34
5414,-23.71
5426,-25.39
5438,-27.01
5450,-28.2
5461,-28.75
5472,-28.79
5484,-28.64
5496,-28.79
5508,-29.68
5520,-31.54
5532,-34.27
5544,-37.37
5556,-39.94
5568,-40.84
5580,-38.94
5592,-33.55
5604,-24.74
5616,-13.48
5628,-1.39
5640,9.72
5651,18.39
5662,23.9
5674,26.33
5686,26.34
5698,24.84
5710,22.73
5722,20.64
5734,18.97
5746,17.87
5758,17.31
5770,17.15
5782,17.2
5794,17.31
5806,17.39
5818,17.4
5830,17.32
5841,17.15
5852,16.88
5864,16.53
5876,16.18
5888,15.95
5900,15.86
5912,15.85
5924,15.7
5936,15.18
5948,14.14
5960,12.63
5972,10.85
5984,9.06
5996,7.47
6008,6.16
6020,5.06
6031,4.1
6042,3.21
6054,2.4
6066,1.7
6078,1.13
6090,0.62
6102,0.02
6114,-0.85
6126,-2.07
6138,-3.58
6150,-5.15
6162,-6.51
6174,-7.43
6186,-7.86
6198,-8.02
6210,-8.25
6221,-8.95
6232,-10.33
6244,-12.33
6256,-14.64
6268,-16.81
6280,-18.5
6292,-19.6
6304,-20.27
6316,-20.89
6328,-21.89
6340,-23.65
6352,-26.3
6364,-29.66
6376,-33.11
6388,-35.65
6400,-36.13
6411,-33.56
6422,-27.56
6434,-18.58
6446,-7.89
6458,2.77
6470,11.73
6482,17.9
6494,20.98
6506,21.44
6518,20.14
6530,18.02
6542,15.85
6554,14.14
6566,13.2
6578,13.12
6590,13.86
6601,15.26
6612,17.05
6624,18.9
6636,20.49
6648,21.59
6660,22.1
6672,22.09
6684,21.72
6696,21.21
6708,20.76
6720,20.49
6732,20.39
6744,20.33
6756,20.09
6768,19.42
6780,18.24
6791,16.55
6802,14.58
6814,12.6
6826,10.84
6838,9.41
6850,8.24
6862,7.17
6874,6.0
6886,4.61
6898,3.06
6910,1.54
6922,0.32
6934,-0.42
6946,-0.67
6958,-0.63
6970,-0.61
6981,-0.96
6992,-1.86
7004,-3.29
7016,-5.03
7028,-6.75
7040,-8.18
7052,-9.22
7064,-10.0
7076,-10.81
7088,-11.99
7100,-13.73
7112,-16.03
7124,-18.65
7136,-21.24
7148,-23.46
7160,-25.14
7171,-26.28
7182,-27.12
7194,-28.08
7206,-29.6
7218,-32.05
7230,-35.56
7242,-39.77
7254,-43.77
7266,-46.15
7278,-45.34
7290,-40.16
7302,-30.4
7314,-17.02
7326,-1.97
7338,12.36
7350,23.94
7361,31.58
7372,35.18
7384,35.45
7396,33.55
7408,30.63
7420,27.62
7432,25.14
7444,23.57
7456,23.03
7468,23.37
7480,24.28
7492,25.33
7504,26.15
7516,26.49
7528,26.32
7540,25.71
7551,24.82
7562,23.82
7574,22.87
7586,22.11
7598,21.59
7610,21.22
7622,20.78
7634,20.0
7646,18.67
7658,16.78
7670,14.57
7682,12.36
7694,10.45
7706,8.94
7718,7.72
7730,6.61
7741,5.49
7752,4.39
7764,3.44
7776,2.77
7788,2.37
7800,2.13
7812,1.87
7824,1.44
7836,0.85
7848,0.2
7860,-0.41
7872,-0.95
7884,-1.46
7896,-2.1
7908,-2.95
7920,-4.04
7931,-5.29
7942,-6.56
7954,-7.74
7966,-8.79
7978,-9.78
7990,-10.84
8002,-12.13
8014,-13.76
8026,-15.71
8038,-17.84
8050,-19.91
8062,-21.64
8074,-22.84
8086,-23.51
8098,-23.83
8110,-24.15
8121,-24.94
8132,-26.58
8144,-29.26
8156,-32.8
8168,-36.52
8180,-39.32
8192,-39.87
8204,-37.06
8216,-30.37
8228,-20.27
8240,-8.08
8252,4.3
8264,15.01
8276,22.76
8288,27.07
8300,28.31
8311,27.36
8322,25.24
8334,22.85
8346,20.73
8358,19.13
8370,18.02
8382,17.31
8394,16.84
8406,16.55
8418,16.34
8430,16.17
8442,15.94
8454,15.58
8466,15.04
8478,14.4
8490,13.77
8501,13.26
8512,12.92
8524,12.65
8536,12.24
8548,11.47
8560,10.23
8572,8.57
8584,6.7
8596,4.91
8608,3.43
8620,2.41
8632,1.8
8644,1.48
8656,1.22
8668,0.81
8680,0.14
8691,-0.8
8702,-1.87
8714,-2.86
8726,-3.54
8738,-3.76
8750,-3.51
8762,-2.95
8774,-2.36
8786,-2.02
8798,-2.15
8810,-2.77
8822,-3.76
8834,-4.86
8846,-5.81
8858,-6.45
8870,-6.75
8881,-6.85
8892,-6.97
8904,-7.36
8916,-8.2
8928,-9.54
8940,-11.26
8952,-13.14
8964,-14.87
8976,-16.23
8988,-17.12
9000,-17.63
9012,-18.04
9024,-18.74
9036,-20.13
9048,-22.36
9060,-25.19
9071,-27.82
9082,-29.08
9094,-27.7
9106,-22.84
9118,-14.5
9130,-3.63
9142,8.1
9154,18.86
9166,27.23
9178,32.6
9190,35.08
9202,35.33
9214,34.16
9226,32.25
9238,30.1
9250,28.07
9261,26.43
9272,25.39
9284,24.98
9296,25.09
9308,25.44
9320,25.66
9332,25.44
9344,24.57
9356,23.07
9368,21.09
9380,18.87
9392,16.67
9404,14.65
9416,12.85
9428,11.16
9440,9.4
9451,7.38
9462,5.02
9474,2.43
9486,-0.14
9498,-2.36
9510,-3.91
9522,-4.62
9534,-4.57
9546,-4.08
9558,-3.62
9570,-3.63
9582,-4.37
9594,-5.74
9606,-7.34
9618,-8.61
9630,-9.07
9641,-8.51
9652,-7.07
9664,-5.2
9676,-3.49
9688,-2.42
9700,-2.23
9712,-2.87
9724,-4.06
9736,-5.37
9748,-6.45
9760,-7.09
9772,-7.41
9784,-7.72
9796,-8.51
9808,-10.2
9820,-12.95
9831,-16.58
9842,-20.53
9854,-24.07
9866,-26.53
9878,-27.52
9890,-27.09
9902,-25.64
9914,-23.85
9926,-22.41
9938,-21.86
9950,-22.43
9962,-24.05
9974,-26.34
9986,-28.79
9998,-30.93
10010,-32.39
10021,-33.01
10032,-32.81
10044,-31.92
10056,-30.55
10068,-28.95
10080,-27.38
10092,-26.1
10104,-25.38
10116,-25.4
10128,-26.16
10140,-27.53
10152,-29.18
10164,-30.74
10176,-31.93
10188,-32.61
10200,-32.79
10211,-32.58
10222,-32.04
10234,-31.08
10246,-29.46
10258,-26.89
10270,-23.14
10282,-18.23
10294,-12.45
10306,-6.28
10318,-0.27
10330,5.19
10342,9.96
10354,14.11
10366,17.86
10378,21.4
10390,24.84
10401,28.14
10412,31.11
10424,33.49
10436,34.97
10448,35.38
10460,34.58
10472,32.58
10484,29.44
10496,25.31
10508,20.36
10520,14.81
10532,8.84
10544,2.5
10556,-4.3
10568,-11.82
10580,-20.29
10591,-29.63
10602,-39.18
10614,-47.61
10626,-53.22
10638,-54.42
10650,-50.43
10662,-41.64
10674,-29.59
10686,-16.51
10698,-4.59
10710,4.52
10722,10.12
10734,12.33
10746,11.85
10758,9.62
10770,6.65
10781,3.82
10792,1.83
10804,1.09
10816,1.67
10828,3.3
10840,5.52
10852,7.82
10864,9.89
10876,11.71
10888,13.46
10900,15.4
10912,17.72
10924,20.4
10936,23.2
10948,25.75
10960,27.62
10971,28.49
10982,28.19
10994,26.82
11006,24.63
11018,21.98
11030,19.21
11042,16.55
11054,14.16
11066,12.12
11078,10.48
11090,9.22
11102,8.28
11114,7.54
11126,6.88
11138,6.13
11150,5.15
11161,3.8
11172,2.01
11184,-0.24
11196,-2.86
11208,-5.7
11220,-8.61
11232,-11.53
11244,-14.6
11256,-18.16
11268,-22.69
11280,-28.62
11292,-36.07
11304,-44.6
11316,-53.13
11328,-59.99
11340,-63.31
11351,-61.52
11362,-53.94
11374,-41.13
11386,-24.82
11398,-7.42
11410,8.65
11422,21.71
11434,31.07
11446,37.06
11458,40.52
11470,42.45
11482,43.52
11494,44.05
11506,44.09
11518,43.64
11530,42.83
11541,41.94
11552,41.29
11564,41.04
11576,41.06
11588,40.99
11600,40.4
11612,39.05
11624,37.05
11636,34.82
11648,32.86
11660,31.46
11672,30.49
11684,29.48
11696,27.81
11708,25.01
11720,21.0
11731,16.1
11742,10.85
11754,5.82
11766,1.39
11778,-2.35
11790,-5.53
11802,-8.42
11814,-11.31
11826,-14.37
11838,-17.7
11850,-21.23
11862,-24.78
11874,-28.16
11886,-31.19
11898,-33.84
11910,-36.24
11921,-38.76
11932,-41.92
11944,-46.26
11956,-52.0
11968,-58.8
11980,-65.53
11992,-70.46
12004,-71.69
12016,-67.82
12028,-58.55
12040,-44.83
12052,-28.58
12064,-12.04
12076,2.85
12088,14.93
12100,23.81
12111,29.78
12122,33.45
12134,35.64
12146,37.18
12158,38.84
12170,41.14
12182,44.22
12194,47.79
12206,51.27
12218,54.01
12230,55.56
12242,55.8
12254,55.0
12266,53.65
12278,52.28
12290,51.33
12301,51.01
12312,51.29
12324,51.89
12336,52.41
12348,52.45
12360,51.7
12372,50.02
12384,47.49
12396,44.33
12408,40.9
12420,37.53
12432,34.49
12444,31.9
12456,29.71
12468,27.76
12480,25.91
12491,24.03
12502,22.13
12514,20.25
12526,18.46
12538,16.81
12550,15.29
12562,13.87
12574,12.48
12586,11.08
12598,9.59
12610,7.95
12622,6.16
12634,4.26
12646,2.31
12658,0.35
12670,-1.67
12681,-3.84
12692,-6.18
12704,-8.57
12716,-10.8
12728,-12.65
12740,-14.06
12752,-15.19
12764,-16.35
12776,-17.85
12788,-19.85
12800,-22.26
12812,-24.88
12824,-27.45
12836,-29.85
12848,-32.12
12860,-34.4
12871,-36.89
12882,-39.74
12894,-43.03
12906,-46.7
12918,-50.57
12930,-54.39
12942,-57.88
12954,-60.89
12966,-63.43
12978,-65.71
12990,-68.18
13002,-71.37
13014,-75.81
13026,-81.72
13038,-88.73
13050,-95.72
13061,-100.86
13072,-102.05
13084,-97.54
13096,-86.67
13108,-70.16
13120,-50.0
13132,-28.81
13144,-9.1
13156,7.42
13168,20.0
13180,28.76
13192,34.26
13204,37.27
13216,38.56
13228,38.9
13240,39.06
13251,39.7
13262,41.22
13274,43.64
13286,46.56
13298,49.37
13310,51.45
13322,52.46
13334,52.42
13346,51.69
13358,50.79
13370,50.14
13382,49.92
13394,50.04
13406,50.18
13418,49.97
13430,49.16
13441,47.7
13452,45.71
13464,43.46
13476,41.19
13488,39.03
13500,37.0
13512,35.02
13524,33.01
13536,30.93
13548,28.83
13560,26.78
13572,24.87
13584,23.15
13596,21.61
13608,20.2
13620,18.83
13631,17.45
13642,16.04
13654,14.6
13666,13.18
13678,11.83
13690,10.57
13702,9.35
13714,8.09
13726,6.68
13738,5.03
13750,3.1
13762,0.93
13774,-1.31
13786,-3.46
13798,-5.36
13810,-6.96
13821,-8.35
13832,-9.74
13844,-11.34
13856,-13.27
13868,-15.48
13880,-17.77
13892,-19.9
13904,-21.74
13916,-23.34
13928,-24.94
13940,-26.86
13952,-29.34
13964,-32.47
13976,-36.09
13988,-39.92
14000,-43.63
14011,-46.97
14022,-49.82
14034,-52.27
14046,-54.61
14058,-57.32
14070,-60.98
14082,-65.98
14094,-72.23
14106,-78.94
14118,-84.52
14130,-87.0
14142,-84.61
14154,-76.41
14166,-62.75
14178,-45.17
14190,-25.97
14201,-7.47
14212,8.5
14224,20.93
14236,29.59
14248,34.78
14260,37.17
14272,37.59
14284,36.97
14296,36.25
14308,36.15
14320,37.04
14332,38.86
14344,41.17
14356,43.37
14368,44.91
14380,45.51
14391,45.2
14402,44.29
14414,43.19
14426,42.29
14438,41.83
14450,41.82
14462,42.05
14474,42.16
14486,41.81
14498,40.78
14510,39.06
14522,36.85
14534,34.42
14546,32.02
14558,29.78
14570,27.72
14581,25.77
14592,23.87
14604,22.03
14616,20.29
14628,18.68
14640,17.2
14652,15.79
14664,14.36
14676,12.88
14688,11.35
14700,9.82
14712,8.33
14724,6.91
14736,5.49
14748,4.04
14760,2.49
14771,0.87
14782,-0.74
14794,-2.21
14806,-3.45
14818,-4.45
14830,-5.36
14842,-6.41
14854,-7.8
14866,-9.64
14878,-11.86
14890,-14.22
14902,-16.48
14914,-18.49
14926,-20.31
14938,-22.2
14950,-24.41
14961,-27.11
14972,-30.23
14984,-33.52
14996,-36.67
15008,-39.44
15020,-41.74
15032,-43.68
15044,-45.49
15056,-47.51
15068,-50.12
15080,-53.7
15092,-58.39
15104,-63.89
15116,-69.31
15128,-73.22
15140,-74.0
15151,-70.37
15162,-61.88
15174,-49.12
15186,-33.55
15198,-17.09
15210,-1.57
15222,11.72
15234,22.09
15246,29.42
15258,33.98
15270,36.21
15282,36.66
15294,35.94
15306,34.66
15318,33.33
15330,32.32
15341,31.76
15352,31.61
15364,31.66
15376,31.71
15388,31.63
15400,31.44
15412,31.28
15424,31.36
15436,31.82
15448,32.65
15460,33.63
15472,34.45
15484,34.79
15496,34.41
15508,33.34
15520,31.69
15531,29.72
15542,27.61
15554,25.5
15566,23.42
15578,21.39
15590,19.38
15602,17.43
15614,15.56
15626,13.79
15638,12.14
15650,10.57
15662,9.05
15674,7.59
15686,6.21
15698,4.92
15710,3.72
15721,2.51
15732,1.14
15744,-0.55
15756,-2.6
15768,-4.94
15780,-7.37
15792,-9.66
15804,-11.71
15816,-13.54
15828,-15.35
15840,-17.38
15852,-19.8
15864,-22.67
15876,-25.93
15888,-29.4
15900,-32.9
15911,-36.26
15922,-39.35
15934,-42.1
15946,-44.56
15958,-46.93
15970,-49.53
15982,-52.8
15994,-57.02
16006,-62.05
16018,-67.1
16030,-70.81
16042,-71.54
16054,-67.98
16066,-59.64
16078,-47.12
16090,-31.95
16101,-16.08
16112,-1.31
16124,11.11
16136,20.62
16148,27.22
16160,31.22
16172,33.12
16184,33.51
16196,33.0
16208,32.23
16220,31.69
16232,31.64
16244,32.03
16256,32.6
16268,32.98
16280,32.91
16291,32.34
16302,31.45
16314,30.6
16326,30.11
16338,30.14
16350,30.63
16362,31.3
16374,31.81
16386,31.84
16398,31.26
16410,30.08
16422,28.44
16434,26.52
16446,24.48
16458,22.42
16470,20.39
16481,18.42
16492,16.5
16504,14.64
16516,12.88
16528,11.24
16540,9.73
16552,8.31
16564,6.92
16576,5.48
16588,3.99
16600,2.52
16612,1.21
16624,0.2
16636,-0.48
16648,-0.89
16660,-1.23
16671,-1.69
16682,-2.44
16694,-3.54
16706,-4.96
16718,-6.56
16730,-8.16
16742,-9.61
16754,-10.86
16766,-11.94
16778,-13.07
16790,-14.49
16802,-16.4
16814,-18.82
16826,-21.55
16838,-24.27
16850,-26.65
16861,-28.56
16872,-30.08
16884,-31.53
16896,-33.32
16908,-35.89
16920,-39.55
16932,-44.41
16944,-50.19
16956,-56.12
16968,-60.93
16980,-63.15
16992,-61.5
17004,-55.38
17016,-45.18
17028,-32.14
17040,-18.01
17051,-4.48
17062,7.22
17074,16.48
17086,23.17
17098,27.45
17110,29.65
17122,30.21
17134,29.72
17146,28.86
17158,28.26
17170,28.29
17182,28.93
17194,29.85
17206,30.63
17218,30.94
17230,30.73
17241,30.17
17252,29.56
17264,29.17
17276,29.12
17288,29.35
17300,29.71
17312,30.04
17324,30.18
17336,30.06
17348,29.63
17360,28.89
17372,27.84
17384,26.51
17396,24.94
17408,23.2
17420,21.42
17431,19.73
17442,18.26
17454,17.1
17466,16.24
17478,15.6
17490,15.04
17502,14.45
17514,13.81
17526,13.2
17538,12.74
17550,12.5
17562,12.44
17574,12.38
17586,12.07
17598,11.24
17610,9.8
17621,7.8
17632,5.49
17644,3.18
17656,1.17
17668,-0.41
17680,-1.65
17692,-2.77
17704,-4.07
17716,-5.72
17728,-7.7
17740,-9.76
17752,-11.5
17764,-12.51
17776,-12.53
17788,-11.52
17800,-9.66
17811,-7.39
17822,-5.34
17834,-4.24
17846,-4.74
17858,-7.13
17870,-10.98
17882,-15.15
17894,-17.98
17906,-17.86
17918,-13.86
17930,-6.17
17942,3.96
17954,14.58
17966,23.73
17978,29.98
17990,32.59
18001,31.47
18012,26.94
18024,19.51
18036,9.79
18048,-1.5
18060,-13.63
18072,-25.87
18084,-37.63
18096,-48.51
18108,-58.31
18120,-66.98
18132,-74.58
18144,-81.17
18156,-86.85
18168,-91.74
18180,-95.98
18191,-99.7
18202,-103.04
18214,-106.05
18226,-108.68
18238,-110.7
18250,-111.65
18262,-110.99
18274,-108.16
18286,-102.9
18298,-95.31
18310,-85.92
18322,-75.44
18334,-64.64
18346,-54.09
18358,-44.11
18370,-34.78
18381,-25.97
18392,-17.47
18404,-9.06
18416,-0.62
18428,7.84
18440,16.1
18452,23.85
18464,30.77
18476,36.65
18488,41.43
18500,45.17
18512,47.9
18524,49.62
18536,50.27
18548,49.85
18560,48.51
18571,46.55
18582,44.41
18594,42.57
18606,41.45
18618,41.38
18630,42.41
18642,44.19
18654,45.82
18666,45.99
18678,43.27
18690,36.64
18702,25.83
18714,11.52
18726,-4.89
18738,-21.68
18750,-37.22
18761,-50.21
18772,-59.68
18784,-64.96
18796,-65.49
18808,-60.99
18820,-51.55
18832,-37.93
18844,-21.56
18856,-4.48
18868,11.02
18880,22.85
18892,29.64
18904,31.12
18916,28.18
18928,22.64
18940,16.66
18951,12.14
18962,10.17
18974,10.97
18986,14.06
18998,18.6
19010,23.73
19022,28.64
19034,32.61
19046,35.01
19058,35.36
19070,33.46
19082,29.47
19094,23.89
19106,17.37
19118,10.48
19130,3.49
19141,-3.67
19152,-11.27
19164,-19.65
19176,-29.07
19188,-39.6
19200,-51.19
19212,-63.66
19224,-76.63
19236,-89.29
19248,-100.16
19260,-107.06
19272,-107.54
19284,-99.62
19296,-82.6
19308,-57.6
19320,-27.37
19331,4.55
19342,34.87
19354,61.32
19366,82.87
19378,99.33
19390,110.8
19402,117.37
19414,119.16
19426,116.72
19438,111.17
19450,104.09
19462,96.99
19474,90.7
19486,85.2
19498,79.78
19510,73.53
19521,65.88
19532,56.78
19544,46.75
19556,36.48
19568,26.68
19580,17.97
19592,10.89
19604,5.93
19616,3.44
19628,3.39
19640,5.25
19652,8.03
19664,10.59
19676,12.08
19688,12.29
19700,11.72
19711,11.27
19722,11.79
19734,13.65
19746,16.61
19758,19.94
19770,22.76
19782,24.39
19794,24.51
19806,23.09
19818,20.24
19830,16.07
19842,10.7
19854,4.41
19866,-2.27
19878,-8.62
19890,-14.02
19901,-18.14
19912,-21.13
19924,-23.45
19936,-25.65
19948,-28.06
19960,-30.7
19972,-33.36
19984,-35.87
19996,-38.17
20008,-40.41
20020,-42.82
20032,-45.64
20044,-49.04
20056,-53.11
20068,-57.87
20080,-63.17
20091,-68.65
20102,-73.83
20114,-78.15
20126,-81.33
20138,-83.41
20150,-84.84
20162,-86.17
20174,-87.63
20186,-88.87
20198,-88.86
20210,-86.17
20222,-79.46
20234,-67.92
20246,-51.51
20258,-31.0
20270,-7.7
20281,16.83
20292,41.02
20304,63.47
20316,83.13
20328,99.3
20340,111.62
20352,119.95
20364,124.25
20376,124.46
20388,120.63
20400,113.13
20412,102.9
20424,91.44
20436,80.55
20448,71.76
20460,65.83
20471,62.57
20482,61.11
20494,60.45
20506,59.93
20518,59.52
20530,59.52
20542,60.26
20554,61.69
20566,63.38
20578,64.79
20590,65.55
20602,65.69
20614,65.45
20626,65.03
20638,64.39
20650,63.27
20661,61.42
20672,58.77
20684,55.48
20696,51.75
20708,47.76
20720,43.6
20732,39.53
20744,36.12
20756,34.22
20768,34.56
20780,37.24
20792,41.35
20804,45.21
20816,46.97
20828,45.3
20840,39.93
20851,31.55
20862,21.33
20874,10.38
20886,-0.64
20898,-11.48
20910,-22.06
20922,-32.25
20934,-41.71
20946,-50.0
20958,-56.76
20970,-61.94
20982,-65.84
20994,-69.08
