seconds,BVP
6,0.63
18,2.64
30,4.94
41,7.1
52,8.83
64,10.03
76,10.76
88,11.18
100,11.39
112,11.44
124,11.34
136,11.05
148,10.55
160,9.87
172,8.99
184,7.91
196,6.67
208,5.37
220,4.2
231,3.32
242,2.87
254,2.82
266,3.03
278,3.29
290,3.42
302,3.39
314,3.28
326,3.28
338,3.56
350,4.3
362,5.56
374,7.29
386,9.33
398,11.42
410,13.21
421,14.35
432,14.62
444,14.02
456,12.78
468,11.3
480,10.06
492,9.37
504,9.35
516,9.89
528,10.72
540,11.61
552,12.39
564,13.01
576,13.46
588,13.68
600,13.59
611,13.05
622,12.0
634,10.46
646,8.59
658,6.6
670,4.73
682,3.2
694,2.16
706,1.58
718,1.28
730,0.89
742,0.02
754,-1.59
766,-3.91
778,-6.68
790,-9.5
801,-12.09
812,-14.38
824,-16.44
836,-18.43
848,-20.33
860,-21.98
872,-23.15
884,-23.76
896,-23.92
908,-23.87
920,-23.8
932,-23.68
944,-23.2
956,-21.98
968,-19.75
980,-16.54
991,-12.69
1002,-8.71
1014,-5.07
1026,-1.98
1038,0.6
1050,2.83
1062,4.85
1074,6.67
1086,8.11
1098,9.04
1110,9.39
1122,9.34
1134,9.17
1146,9.2
1158,9.53
1170,10.05
1181,10.44
1192,10.41
1204,9.82
1216,8.76
1228,7.48
1240,6.22
1252,5.1
1264,4.06
1276,3.03
1288,1.99
1300,1.06
1312,0.41
1324,0.16
1336,0.26
1348,0.47
1360,0.55
1371,0.35
1382,-0.08
1394,-0.42
1406,-0.27
1418,0.75
1430,2.9
1442,6.16
1454,10.22
1466,14.52
1478,18.43
1490,21.34
1502,22.88
1514,22.92
1526,21.62
1538,19.25
1550,16.11
1561,12.45
1572,8.47
1584,4.41
1596,0.52
1608,-2.91
1620,-5.67
1632,-7.72
1644,-9.17
1656,-10.29
1668,-11.33
1680,-12.46
1692,-13.69
1704,-14.89
1716,-15.87
1728,-16.48
1740,-16.73
1751,-16.81
1762,-17.08
1774,-17.91
1786,-19.57
1798,-21.99
1810,-24.81
1822,-27.44
1834,-29.28
1846,-29.94
1858,-29.31
1870,-27.56
1882,-24.95
1894,-21.81
1906,-18.5
1918,-15.46
1930,-13.16
1941,-12.03
1952,-12.32
1964,-13.95
1976,-16.51
1988,-19.45
2000,-22.22
2012,-24.53
2024,-26.29
2036,-27.68
2048,-28.98
2060,-30.46
2072,-32.27
2084,-34.39
2096,-36.58
2108,-38.43
2120,-39.49
2131,-39.43
2142,-38.19
2154,-35.94
2166,-33.13
2178,-30.23
2190,-27.67
2202,-25.73
2214,-24.52
2226,-23.9
2238,-23.58
2250,-23.1
2262,-21.98
2274,-19.8
2286,-16.4
2298,-11.93
2310,-6.81
2321,-1.65
2332,2.98
2344,6.64
2356,9.2
2368,10.76
2380,11.56
2392,11.89
2404,11.91
2416,11.69
2428,11.16
2440,10.31
2452,9.18
2464,7.94
2476,6.8
2488,5.91
2500,5.28
2511,4.79
2522,4.22
2534,3.4
2546,2.25
2558,0.86
2570,-0.61
2582,-2.01
2594,-3.26
2606,-4.36
2618,-5.39
2630,-6.47
2642,-7.69
2654,-9.06
2666,-10.49
2678,-11.81
2690,-12.73
2701,-12.99
2712,-12.34
2724,-10.6
2736,-7.71
2748,-3.74
2760,1.18
2772,6.8
2784,12.75
2796,18.55
2808,23.64
2820,27.46
2832,29.61
2844,30.01
2856,28.95
2868,27.06
2880,25.12
2891,23.77
2902,23.42
2914,24.06
2926,25.38
2938,26.91
2950,28.21
2962,29.01
2974,29.24
2986,28.96
2998,28.24
3010,27.14
3022,25.62
3034,23.68
3046,21.34
3058,18.71
3070,15.91
3081,13.02
3092,10.05
3104,6.92
3116,3.58
3128,0.0
3140,-3.75
3152,-7.57
3164,-11.29
3176,-14.68
3188,-17.44
3200,-19.2
3212,-19.64
3224,-18.6
3236,-16.18
3248,-12.71
3260,-8.65
3271,-4.43
3282,-0.37
3294,3.37
3306,6.73
3318,9.67
3330,12.17
3342,14.2
3354,15.77
3366,16.92
3378,17.74
3390,18.35
3402,18.92
3414,19.57
3426,20.4
3438,21.37
3450,22.36
3461,23.14
3472,23.5
3484,23.26
3496,22.36
3508,20.79
3520,18.63
3532,16.0
3544,13.05
3556,10.01
3568,7.05
3580,4.33
3592,1.89
3604,-0.37
3616,-2.6
3628,-4.99
3640,-7.71
3651,-10.83
3662,-14.3
3674,-17.89
3686,-21.22
3698,-23.74
3710,-24.89
3722,-24.24
3734,-21.71
3746,-17.57
3758,-12.35
3770,-6.67
3782,-0.97
3794,4.58
3806,10.02
3818,15.44
3830,20.75
3841,25.63
3852,29.64
3864,32.47
3876,34.11
3888,34.92
3900,35.47
3912,36.23
3924,37.31
3936,38.45
3948,39.14
3960,38.89
3972,37.51
3984,35.19
3996,32.4
4008,29.67
4020,27.31
4031,25.37
4042,23.69
4054,22.06
4066,20.36
4078,18.59
4090,16.81
4102,15.03
4114,13.12
4126,10.82
4138,7.89
4150,4.21
4162,-0.14
4174,-4.9
4186,-9.7
4198,-14.22
4210,-18.2
4221,-21.5
4232,-24.0
4244,-25.54
4256,-25.92
4268,-24.97
4280,-22.69
4292,-19.27
4304,-15.14
4316,-10.79
4328,-6.62
4340,-2.88
4352,0.39
4364,3.24
4376,5.69
4388,7.7
4400,9.2
4411,10.16
4422,10.65
4434,10.85
4446,10.97
4458,11.17
4470,11.47
4482,11.79
4494,12.01
4506,12.06
4518,11.99
4530,11.92
4542,11.93
4554,11.99
4566,11.92
4578,11.43
4590,10.26
4601,8.29
4612,5.58
4624,2.38
4636,-0.98
4648,-4.25
4660,-7.26
4672,-9.97
4684,-12.44
4696,-14.77
4708,-17.1
4720,-19.61
4732,-22.49
4744,-25.84
4756,-29.57
4768,-33.35
4780,-36.63
4791,-38.79
4802,-39.31
4814,-37.99
4826,-34.97
4838,-30.68
4850,-25.71
4862,-20.59
4874,-15.75
4886,-11.38
4898,-7.57
4910,-4.34
4922,-1.69
4934,0.33
4946,1.72
4958,2.53
4970,2.92
4981,3.11
4992,3.32
5004,3.68
5016,4.21
5028,4.84
5040,5.49
5052,6.15
5064,6.8
5076,7.38
5088,7.8
5100,7.89
5112,7.5
5124,6.53
5136,5.06
5148,3.22
5160,1.26
5171,-0.64
5182,-2.33
5194,-3.71
5206,-4.78
5218,-5.59
5230,-6.21
5242,-6.79
5254,-7.42
5266,-8.15
5278,-8.94
5290,-9.67
5302,-10.23
5314,-10.5
5326,-10.38
5338,-9.73
5350,-8.39
5361,-6.17
5372,-2.97
5384,1.14
5396,5.91
5408,10.94
5420,15.8
5432,20.15
5444,23.75
5456,26.55
5468,28.52
5480,29.71
5492,30.21
5504,30.18
5516,29.85
5528,29.45
5540,29.09
5551,28.71
5562,28.09
5574,27.01
5586,25.34
5598,23.17
5610,20.68
5622,18.05
5634,15.37
5646,12.52
5658,9.34
5670,5.73
5682,1.74
5694,-2.45
5706,-6.6
5718,-10.53
5730,-14.16
5741,-17.48
5752,-20.49
5764,-23.14
5776,-25.41
5788,-27.24
5800,-28.7
5812,-29.87
5824,-30.86
5836,-31.77
5848,-32.62
5860,-33.4
5872,-33.98
5884,-34.17
5896,-33.69
5908,-32.3
5920,-29.87
5931,-26.44
5942,-22.27
5954,-17.79
5966,-13.41
5978,-9.49
5990,-6.23
6002,-3.62
6014,-1.58
6026,0.02
6038,1.33
6050,2.4
6062,3.27
6074,3.9
6086,4.25
6098,4.31
6110,4.18
6121,4.0
6132,3.96
6144,4.13
6156,4.54
6168,5.07
6180,5.56
6192,5.88
6204,5.94
6216,5.71
6228,5.2
6240,4.41
6252,3.36
6264,2.12
6276,0.82
6288,-0.41
6300,-1.47
6311,-2.36
6322,-3.2
6334,-4.15
6346,-5.38
6358,-6.93
6370,-8.7
6382,-10.44
6394,-11.76
6406,-12.31
6418,-11.85
6430,-10.3
6442,-7.84
6454,-4.81
6466,-1.59
6478,1.44
6490,4.02
6501,6.01
6512,7.33
6524,8.0
6536,8.05
6548,7.53
6560,6.59
6572,5.45
6584,4.32
6596,3.4
6608,2.78
6620,2.45
6632,2.28
6644,2.15
6656,1.92
6668,1.49
6680,0.82
6691,-0.11
6702,-1.29
6714,-2.67
6726,-4.2
6738,-5.78
6750,-7.29
6762,-8.65
6774,-9.84
6786,-10.96
6798,-12.19
6810,-13.71
6822,-15.64
6834,-17.92
6846,-20.33
6858,-22.43
6870,-23.72
6881,-23.79
6892,-22.42
6904,-19.7
6916,-16.01
6928,-11.89
6940,-7.82
6952,-4.13
6964,-0.93
6976,1.83
6988,4.23
7000,6.28
7012,7.97
7024,9.24
7036,10.06
7048,10.52
7060,10.72
7071,10.81
7082,10.88
7094,11.0
7106,11.17
7118,11.31
7130,11.32
7142,11.03
7154,10.34
7166,9.22
7178,7.77
7190,6.14
7202,4.48
7214,2.87
7226,1.26
7238,-0.46
7250,-2.39
7261,-4.61
7272,-7.12
7284,-9.87
7296,-12.79
7308,-15.75
7320,-18.5
7332,-20.64
7344,-21.73
7356,-21.36
7368,-19.39
7380,-15.99
7392,-11.66
7404,-7.01
7416,-2.62
7428,1.14
7440,4.18
7451,6.57
7462,8.45
7474,9.9
7486,10.94
7498,11.6
7510,11.93
7522,12.06
7534,12.14
7546,12.25
7558,12.4
7570,12.51
7582,12.49
7594,12.26
7606,11.8
7618,11.06
7630,10.05
7641,8.81
7652,7.39
7664,5.9
7676,4.43
7688,3.04
7700,1.66
7712,0.2
7724,-1.43
7736,-3.21
7748,-5.05
7760,-6.82
7772,-8.49
7784,-10.17
7796,-12.04
7808,-14.2
7820,-16.47
7831,-18.38
7842,-19.34
7854,-18.9
7866,-16.94
7878,-13.77
7890,-10.0
7902,-6.23
7914,-2.89
7926,-0.13
7938,2.09
7950,3.84
7962,5.15
7974,5.95
7986,6.23
7998,6.04
8010,5.57
8021,5.04
8032,4.64
8044,4.44
8056,4.46
8068,4.69
8080,5.19
8092,6.04
8104,7.34
8116,9.05
8128,11.04
8140,13.09
8152,15.01
8164,16.65
8176,17.97
8188,19.05
8200,19.99
8211,20.9
8222,21.89
8234,23.0
8246,24.17
8258,25.23
8270,25.96
8282,26.13
8294,25.57
8306,24.23
8318,22.18
8330,19.58
8342,16.6
8354,13.48
8366,10.44
8378,7.74
8390,5.55
8401,3.97
8412,2.93
8424,2.29
8436,1.9
8448,1.65
8460,1.56
8472,1.7
8484,2.12
8496,2.82
8508,3.68
8520,4.57
8532,5.38
8544,5.96
8556,6.19
8568,5.9
8580,4.94
8591,3.22
8602,0.77
8614,-2.26
8626,-5.64
8638,-9.14
8650,-12.61
8662,-15.97
8674,-19.23
8686,-22.38
8698,-25.42
8710,-28.26
8722,-30.8
8734,-32.97
8746,-34.73
8758,-36.14
8770,-37.31
8781,-38.38
8792,-39.45
8804,-40.54
8816,-41.63
8828,-42.67
8840,-43.58
8852,-44.23
8864,-44.39
8876,-43.7
8888,-41.77
8900,-38.34
8912,-33.41
8924,-27.35
8936,-20.73
8948,-14.13
8960,-7.96
8971,-2.39
8982,2.59
8994,6.99
9006,10.7
9018,13.48
9030,15.18
9042,15.8
9054,15.62
9066,15.09
9078,14.65
9090,14.55
9102,14.77
9114,15.12
9126,15.35
9138,15.32
9150,15.05
9161,14.69
9172,14.42
9184,14.28
9196,14.2
9208,14.01
9220,13.53
9232,12.65
9244,11.41
9256,9.9
9268,8.27
9280,6.62
9292,4.97
9304,3.35
9316,1.76
9328,0.23
9340,-1.2
9351,-2.56
9362,-3.93
9374,-5.39
9386,-6.9
9398,-8.29
9410,-9.17
9422,-9.16
9434,-8.0
9446,-5.76
9458,-2.81
9470,0.35
9482,3.28
9494,5.73
9506,7.7
9518,9.28
9530,10.57
9541,11.55
9552,12.13
9564,12.24
9576,11.95
9588,11.43
9600,10.95
9612,10.71
9624,10.81
9636,11.2
9648,11.72
9660,12.23
9672,12.6
9684,12.79
9696,12.78
9708,12.58
9720,12.2
9731,11.62
9742,10.85
9754,9.94
9766,8.96
9778,7.98
9790,7.04
9802,6.13
9814,5.17
9826,4.07
9838,2.71
9850,1.02
9862,-1.02
9874,-3.26
9886,-5.41
9898,-7.1
9910,-7.92
9921,-7.68
9932,-6.38
9944,-4.27
9956,-1.75
9968,0.83
9980,3.27
9992,5.52
10004,7.6
10016,9.54
10028,11.27
10040,12.66
10052,13.58
10064,14.0
10076,14.01
10088,13.78
10100,13.51
10111,13.31
10122,13.24
10134,13.29
10146,13.4
10158,13.53
10170,13.6
10182,13.55
10194,13.3
10206,12.8
10218,12.02
10230,11.0
10242,9.87
10254,8.73
10266,7.69
10278,6.75
10290,5.83
10301,4.73
10312,3.27
10324,1.31
10336,-1.15
10348,-3.93
10360,-6.7
10372,-9.03
10384,-10.51
10396,-10.85
10408,-10.02
10420,-8.2
10432,-5.76
10444,-3.13
10456,-0.69
10468,1.35
10480,2.94
10491,4.1
10502,4.9
10514,5.36
10526,5.43
10538,5.11
10550,4.41
10562,3.45
10574,2.41
10586,1.48
10598,0.78
10610,0.31
10622,0.01
10634,-0.23
10646,-0.47
10658,-0.68
10670,-0.78
10681,-0.69
10692,-0.42
10704,-0.14
10716,-0.06
10728,-0.4
10740,-1.22
10752,-2.43
10764,-3.79
10776,-5.13
10788,-6.43
10800,-7.83
10812,-9.51
10824,-11.57
10836,-13.83
10848,-15.89
10860,-17.26
10871,-17.58
10882,-16.73
10894,-14.89
10906,-12.41
10918,-9.71
10930,-7.11
10942,-4.78
10954,-2.86
10966,-1.39
10978,-0.45
10990,-0.06
11002,-0.21
11014,-0.78
11026,-1.57
11038,-2.36
11050,-2.93
11061,-3.19
11072,-3.12
11084,-2.84
11096,-2.55
11108,-2.41
11120,-2.55
11132,-2.96
11144,-3.57
11156,-4.27
11168,-4.98
11180,-5.67
11192,-6.37
11204,-7.1
11216,-7.87
11228,-8.69
11240,-9.59
11251,-10.68
11262,-12.09
11274,-13.88
11286,-15.93
11298,-17.97
11310,-19.58
11322,-20.35
11334,-20.04
11346,-18.65
11358,-16.43
11370,-13.76
11382,-11.03
11394,-8.54
11406,-6.49
11418,-5.0
11430,-4.2
11441,-4.18
11452,-4.98
11464,-6.51
11476,-8.47
11488,-10.35
11500,-11.59
11512,-11.7
11524,-10.48
11536,-8.05
11548,-4.81
11560,-1.24
11572,2.22
11584,5.3
11596,7.83
11608,9.73
11620,10.93
11631,11.3
11642,10.8
11654,9.51
11666,7.66
11678,5.59
11690,3.7
11702,2.29
11714,1.53
11726,1.4
11738,1.77
11750,2.44
11762,3.18
11774,3.78
11786,4.11
11798,4.17
11810,4.12
11821,4.27
11832,5.03
11844,6.76
11856,9.66
11868,13.6
11880,18.17
11892,22.77
11904,26.79
11916,29.79
11928,31.58
11940,32.23
11952,31.97
11964,31.1
11976,29.88
11988,28.53
12000,27.27
12011,26.23
12022,25.45
12034,24.85
12046,24.18
12058,23.14
12070,21.43
12082,18.9
12094,15.59
12106,11.71
12118,7.59
12130,3.54
12142,-0.17
12154,-3.37
12166,-5.95
12178,-7.84
12190,-9.08
12201,-9.75
12212,-10.0
12224,-9.98
12236,-9.78
12248,-9.42
12260,-8.91
12272,-8.3
12284,-7.69
12296,-7.19
12308,-6.86
12320,-6.64
12332,-6.34
12344,-5.71
12356,-4.51
12368,-2.62
12380,-0.02
12391,3.17
12402,6.71
12414,10.35
12426,13.87
12438,17.11
12450,20.02
12462,22.56
12474,24.71
12486,26.33
12498,27.23
12510,27.21
12522,26.13
12534,24.02
12546,21.05
12558,17.49
12570,13.62
12581,9.67
12592,5.8
12604,2.13
12616,-1.21
12628,-4.12
12640,-6.48
12652,-8.24
12664,-9.45
12676,-10.27
12688,-10.94
12700,-11.79
12712,-13.1
12724,-15.05
12736,-17.62
12748,-20.63
12760,-23.74
12771,-26.62
12782,-29.0
12794,-30.76
12806,-31.88
12818,-32.48
12830,-32.68
12842,-32.64
12854,-32.51
12866,-32.4
12878,-32.35
12890,-32.29
12902,-32.01
12914,-31.23
12926,-29.69
12938,-27.24
12950,-23.9
12961,-19.84
12972,-15.28
12984,-10.48
12996,-5.65
13008,-1.02
13020,3.2
13032,6.84
13044,9.8
13056,12.09
13068,13.81
13080,15.15
13092,16.29
13104,17.32
13116,18.24
13128,18.99
13140,19.49
13151,19.7
13162,19.57
13174,19.15
13186,18.5
13198,17.75
13210,17.07
13222,16.57
13234,16.33
13246,16.3
13258,16.35
13270,16.33
13282,16.1
13294,15.6
13306,14.8
13318,13.76
13330,12.59
13341,11.4
13352,10.33
13364,9.45
13376,8.78
13388,8.24
13400,7.69
13412,6.96
13424,5.95
13436,4.7
13448,3.38
13460,2.23
13472,1.45
13484,1.16
13496,1.32
13508,1.83
13520,2.55
13531,3.38
13542,4.22
13554,4.96
13566,5.47
13578,5.58
13590,5.21
13602,4.39
13614,3.28
13626,2.13
13638,1.14
13650,0.43
13662,0.01
13674,-0.22
13686,-0.37
13698,-0.51
13710,-0.7
13721,-0.96
13732,-1.24
13744,-1.47
13756,-1.56
13768,-1.43
13780,-1.08
13792,-0.62
13804,-0.25
13816,-0.17
13828,-0.51
13840,-1.25
13852,-2.27
13864,-3.36
13876,-4.37
13888,-5.23
13900,-6.01
13911,-6.85
13922,-7.89
13934,-9.18
13946,-10.6
13958,-11.87
13970,-12.66
13982,-12.68
13994,-11.84
14006,-10.23
14018,-8.12
14030,-5.81
14042,-3.5
14054,-1.3
14066,0.74
14078,2.57
14090,4.1
14101,5.19
14112,5.76
14124,5.83
14136,5.5
14148,4.93
14160,4.27
14172,3.6
14184,2.97
14196,2.4
14208,1.97
14220,1.73
14232,1.74
14244,2.0
14256,2.39
14268,2.74
14280,2.8
14291,2.38
14302,1.36
14314,-0.25
14326,-2.34
14338,-4.72
14350,-7.18
14362,-9.56
14374,-11.76
14386,-13.69
14398,-15.31
14410,-16.6
14422,-17.64
14434,-18.54
14446,-19.46
14458,-20.48
14470,-21.55
14481,-22.42
14492,-22.72
14504,-22.09
14516,-20.34
14528,-17.52
14540,-13.92
14552,-9.97
14564,-6.13
14576,-2.73
14588,0.09
14600,2.36
14612,4.16
14624,5.59
14636,6.68
14648,7.45
14660,7.88
14671,8.07
14682,8.13
14694,8.23
14706,8.47
14718,8.89
14730,9.39
14742,9.84
14754,10.11
14766,10.14
14778,9.9
14790,9.46
14802,8.88
14814,8.26
14826,7.69
14838,7.18
14850,6.7
14861,6.2
14872,5.58
14884,4.78
14896,3.76
14908,2.53
14920,1.14
14932,-0.4
14944,-2.04
14956,-3.7
14968,-5.21
14980,-6.31
14992,-6.74
15004,-6.28
15016,-4.91
15028,-2.8
15040,-0.28
15051,2.28
15062,4.59
15074,6.51
15086,8.0
15098,9.18
15110,10.19
15122,11.16
15134,12.19
15146,13.3
15158,14.41
15170,15.45
15182,16.36
15194,17.15
15206,17.93
15218,18.77
15230,19.71
15241,20.69
15252,21.61
15264,22.39
15276,23.03
15288,23.61
15300,24.2
15312,24.88
15324,25.65
15336,26.53
15348,27.52
15360,28.6
15372,29.7
15384,30.71
15396,31.5
15408,31.97
15420,32.16
15431,32.2
15442,32.19
15454,32.16
15466,32.01
15478,31.58
15490,30.75
15502,29.58
15514,28.2
15526,26.82
15538,25.54
15550,24.27
15562,22.82
15574,20.86
15586,18.15
15598,14.49
15610,9.77
15621,3.91
15632,-3.17
15644,-11.56
15656,-21.24
15668,-32.05
15680,-43.57
15692,-55.18
15704,-66.17
15716,-75.91
15728,-84.01
15740,-90.33
15752,-94.96
15764,-98.09
15776,-99.86
15788,-100.35
15800,-99.51
15811,-97.35
15822,-93.97
15834,-89.69
15846,-84.93
15858,-80.09
15870,-75.37
15882,-70.68
15894,-65.71
15906,-60.06
15918,-53.54
15930,-46.26
15942,-38.62
15954,-31.13
15966,-24.21
15978,-18.0
15990,-12.38
16001,-7.05
16012,-1.75
16024,3.63
16036,9.04
16048,14.3
16060,19.21
16072,23.64
16084,27.51
16096,30.81
16108,33.56
16120,35.74
16132,37.34
16144,38.36
16156,38.85
16168,38.94
16180,38.8
16191,38.59
16202,38.39
16214,38.18
16226,37.86
16238,37.23
16250,36.17
16262,34.59
16274,32.48
16286,29.94
16298,27.08
16310,24.09
16322,21.15
16334,18.42
16346,15.97
16358,13.82
16370,11.81
16381,9.74
16392,7.37
16404,4.61
16416,1.55
16428,-1.52
16440,-4.17
16452,-5.99
16464,-6.7
16476,-6.27
16488,-4.87
16500,-2.89
16512,-0.78
16524,1.01
16536,2.17
16548,2.59
16560,2.39
16571,1.82
16582,1.19
16594,0.71
16606,0.52
16618,0.62
16630,1.02
16642,1.77
16654,2.92
16666,4.48
16678,6.37
16690,8.43
16702,10.48
16714,12.45
16726,14.35
16738,16.2
16750,17.97
16761,19.47
16772,20.48
16784,20.86
16796,20.65
16808,20.03
16820,19.18
16832,18.07
16844,16.43
16856,13.88
16868,10.28
16880,5.91
16892,1.49
16904,-2.08
16916,-4.17
16928,-4.67
16940,-4.04
16951,-3.05
16962,-2.38
16974,-2.35
16986,-2.87
16998,-3.64
17010,-4.41
17022,-5.11
17034,-5.85
17046,-6.74
17058,-7.76
17070,-8.76
17082,-9.5
17094,-9.74
17106,-9.36
17118,-8.37
17130,-6.87
17141,-5.05
17152,-3.06
17164,-1.02
17176,1.0
17188,3.04
17200,5.18
17212,7.47
17224,9.93
17236,12.49
17248,15.05
17260,17.51
17272,19.79
17284,21.84
17296,23.62
17308,25.09
17320,26.2
17331,26.95
17342,27.4
17354,27.69
17366,27.97
17378,28.3
17390,28.6
17402,28.64
17414,28.15
17426,26.91
17438,24.9
17450,22.27
17462,19.35
17474,16.48
17486,13.91
17498,11.68
17510,9.7
17521,7.73
17532,5.56
17544,3.11
17556,0.41
17568,-2.37
17580,-5.08
17592,-7.57
17604,-9.79
17616,-11.75
17628,-13.49
17640,-15.07
17652,-16.57
17664,-18.17
17676,-20.08
17688,-22.55
17700,-25.71
17711,-29.51
17722,-33.68
17734,-37.82
17746,-41.52
17758,-44.45
17770,-46.43
17782,-47.44
17794,-47.57
17806,-46.97
17818,-45.9
17830,-44.56
17842,-43.07
17854,-41.36
17866,-39.17
17878,-36.17
17890,-32.1
17901,-26.98
17912,-21.14
17924,-15.09
17936,-9.36
17948,-4.28
17960,0.06
17972,3.8
17984,7.15
17996,10.27
18008,13.24
18020,15.98
18032,18.43
18044,20.48
18056,22.1
18068,23.26
18080,23.96
18091,24.26
18102,24.2
18114,23.83
18126,23.21
18138,22.39
18150,21.39
18162,20.27
18174,19.08
18186,17.88
18198,16.72
18210,15.6
18222,14.48
18234,13.3
18246,12.06
18258,10.81
18270,9.7
18281,8.88
18292,8.4
18304,8.2
18316,8.08
18328,7.75
18340,7.01
18352,5.79
18364,4.16
18376,2.26
18388,0.22
18400,-1.91
18412,-4.09
18424,-6.24
18436,-8.15
18448,-9.54
18460,-10.15
18471,-9.9
18482,-8.95
18494,-7.56
18506,-6.02
18518,-4.45
18530,-2.85
18542,-1.11
18554,0.81
18566,2.83
18578,4.78
18590,6.51
18602,8.02
18614,9.44
18626,11.01
18638,12.89
18650,15.05
18661,17.26
18672,19.2
18684,20.57
18696,21.27
18708,21.37
18720,21.07
18732,20.56
18744,19.92
18756,19.06
18768,17.83
18780,16.06
18792,13.64
18804,10.57
18816,6.91
18828,2.76
18840,-1.76
18851,-6.56
18862,-11.52
18874,-16.45
18886,-21.19
18898,-25.49
18910,-29.14
18922,-31.91
18934,-33.6
18946,-34.05
18958,-33.18
18970,-31.03
18982,-27.76
18994,-23.64
19006,-19.02
19018,-14.26
19030,-9.67
19041,-5.47
19052,-1.72
19064,1.57
19076,4.43
19088,6.89
19100,8.91
19112,10.46
19124,11.53
19136,12.19
19148,12.56
19160,12.8
19172,12.98
19184,13.06
19196,12.96
19208,12.55
19220,11.86
19231,10.98
19242,10.14
19254,9.51
19266,9.15
19278,8.98
19290,8.82
19302,8.51
19314,7.91
19326,6.97
19338,5.72
19350,4.21
19362,2.49
19374,0.67
19386,-1.17
19398,-2.94
19410,-4.57
19421,-6.06
19432,-7.41
19444,-8.62
19456,-9.66
19468,-10.49
19480,-11.12
19492,-11.59
19504,-11.98
19516,-12.37
19528,-12.76
19540,-13.12
19552,-13.43
19564,-13.67
19576,-13.89
19588,-14.17
19600,-14.55
19611,-15.0
19622,-15.35
19634,-15.35
19646,-14.74
19658,-13.32
19670,-11.07
19682,-8.17
19694,-4.94
19706,-1.77
19718,1.02
19730,3.23
19742,4.82
19754,5.89
19766,6.55
19778,6.91
19790,7.05
19801,7.03
19812,6.97
19824,7.02
19836,7.3
19848,7.85
19860,8.56
19872,9.19
19884,9.51
19896,9.37
19908,8.8
19920,8.0
19932,7.21
19944,6.61
19956,6.24
19968,6.03
19980,5.85
19991,5.6
20002,5.22
20014,4.69
20026,4.05
20038,3.37
20050,2.71
20062,2.17
20074,1.74
20086,1.39
20098,0.96
20110,0.31
20122,-0.66
20134,-1.89
20146,-3.2
20158,-4.31
20170,-5.0
20181,-5.12
20192,-4.7
20204,-3.87
20216,-2.89
20228,-2.05
20240,-1.64
20252,-1.81
20264,-2.57
20276,-3.71
20288,-4.99
20300,-6.16
20312,-7.13
20324,-7.97
20336,-8.92
20348,-10.16
20360,-11.74
20371,-13.46
20382,-14.99
20394,-15.94
20406,-16.07
20418,-15.39
20430,-14.14
20442,-12.78
20454,-11.89
20466,-11.97
20478,-13.36
20490,-16.12
20502,-19.95
20514,-24.26
20526,-28.28
20538,-31.29
20550,-32.81
20561,-32.7
20572,-31.1
20584,-28.35
20596,-24.81
20608,-20.79
20620,-16.53
20632,-12.32
20644,-8.45
20656,-5.17
20668,-2.63
20680,-0.74
20692,0.84
20704,2.55
20716,4.87
20728,8.03
20740,11.98
20751,16.39
20762,20.75
20774,24.59
20786,27.65
20798,29.99
20810,31.94
20822,33.94
20834,36.25
20846,38.89
20858,41.56
20870,43.83
20882,45.32
20894,45.84
20906,45.42
20918,44.2
20930,42.34
20941,39.84
20952,36.6
20964,32.47
20976,27.39
20988,21.46
