seconds,BVP
8,8.65
20,8.02
32,7.2
44,6.27
56,5.27
68,4.25
80,3.24
91,2.28
102,1.44
114,0.74
126,0.21
138,-0.14
150,-0.31
162,-0.32
174,-0.22
186,-0.11
198,-0.07
210,-0.18
222,-0.46
234,-0.91
246,-1.45
258,-2.01
270,-2.52
281,-2.94
292,-3.3
304,-3.65
316,-4.09
328,-4.7
340,-5.47
352,-6.23
364,-6.76
376,-6.73
388,-5.95
400,-4.4
412,-2.27
424,0.1
436,2.39
448,4.38
460,5.99
471,7.22
482,8.09
494,8.61
506,8.73
518,8.45
530,7.79
542,6.83
554,5.7
566,4.52
578,3.41
590,2.47
602,1.76
614,1.29
626,1.01
638,0.79
650,0.52
661,0.16
672,-0.24
684,-0.62
696,-0.92
708,-1.16
720,-1.45
732,-1.88
744,-2.5
756,-3.27
768,-4.06
780,-4.73
792,-5.25
804,-5.67
816,-6.1
828,-6.67
840,-7.44
851,-8.43
862,-9.53
874,-10.61
886,-11.43
898,-11.78
910,-11.46
922,-10.39
934,-8.61
946,-6.32
958,-3.82
970,-1.46
982,0.51
994,1.95
1006,2.85
1018,3.35
1030,3.56
1041,3.6
1052,3.52
1064,3.32
1076,2.97
1088,2.4
1100,1.61
1112,0.68
1124,-0.25
1136,-1.03
1148,-1.53
1160,-1.69
1172,-1.56
1184,-1.24
1196,-0.81
1208,-0.32
1220,0.26
1231,0.94
1242,1.67
1254,2.32
1266,2.72
1278,2.74
1290,2.41
1302,1.84
1314,1.24
1326,0.75
1338,0.45
1350,0.3
1362,0.17
1374,-0.09
1386,-0.56
1398,-1.22
1410,-1.97
1421,-2.62
1432,-2.99
1444,-2.88
1456,-2.17
1468,-0.81
1480,1.13
1492,3.45
1504,5.94
1516,8.28
1528,10.23
1540,11.59
1552,12.25
1564,12.26
1576,11.73
1588,10.89
1600,9.9
1611,8.89
1622,7.87
1634,6.79
1646,5.65
1658,4.49
1670,3.49
1682,2.81
1694,2.57
1706,2.67
1718,2.9
1730,3.0
1742,2.85
1754,2.52
1766,2.25
1778,2.24
1790,2.51
1801,2.88
1812,3.01
1824,2.6
1836,1.57
1848,0.11
1860,-1.46
1872,-2.8
1884,-3.76
1896,-4.36
1908,-4.75
1920,-5.11
1932,-5.51
1944,-5.94
1956,-6.31
1968,-6.6
1980,-6.85
1991,-7.09
2002,-7.3
2014,-7.36
2026,-7.0
2038,-5.98
2050,-4.17
2062,-1.67
2074,1.15
2086,3.78
2098,5.77
2110,6.9
2122,7.23
2134,7.02
2146,6.62
2158,6.26
2170,5.98
2181,5.68
2192,5.21
2204,4.54
2216,3.75
2228,3.01
2240,2.51
2252,2.33
2264,2.42
2276,2.64
2288,2.87
2300,3.02
2312,3.07
2324,3.04
2336,2.93
2348,2.77
2360,2.57
2371,2.35
2382,2.11
2394,1.9
2406,1.74
2418,1.62
2430,1.55
2442,1.48
2454,1.32
2466,0.95
2478,0.31
2490,-0.59
2502,-1.6
2514,-2.48
2526,-3.01
2538,-3.1
2550,-2.87
2561,-2.6
2572,-2.59
2584,-2.96
2596,-3.65
2608,-4.41
2620,-4.98
2632,-5.28
2644,-5.41
2656,-5.66
2668,-6.3
2680,-7.41
2692,-8.85
2704,-10.31
2716,-11.44
2728,-11.95
2740,-11.68
2751,-10.57
2762,-8.66
2774,-6.07
2786,-3.05
2798,0.1
2810,2.97
2822,5.26
2834,6.81
2846,7.64
2858,7.92
2870,7.79
2882,7.35
2894,6.64
2906,5.7
2918,4.65
2930,3.64
2941,2.84
2952,2.31
2964,2.06
2976,1.99
2988,2.03
3000,2.17
3012,2.43
3024,2.83
3036,3.35
3048,3.92
3060,4.41
3072,4.74
3084,4.87
3096,4.79
3108,4.49
3120,3.98
3131,3.28
3142,2.43
3154,1.49
3166,0.51
3178,-0.42
3190,-1.21
3202,-1.81
3214,-2.2
3226,-2.39
3238,-2.45
3250,-2.48
3262,-2.54
3274,-2.7
3286,-2.95
3298,-3.25
3310,-3.57
3321,-3.94
3332,-4.37
3344,-4.89
3356,-5.45
3368,-5.93
3380,-6.19
3392,-6.21
3404,-6.09
3416,-6.04
3428,-6.3
3440,-6.95
3452,-7.85
3464,-8.62
3476,-8.84
3488,-8.19
3500,-6.66
3511,-4.49
3522,-2.09
3534,0.14
3546,1.95
3558,3.28
3570,4.2
3582,4.78
3594,5.08
3606,5.05
3618,4.68
3630,4.02
3642,3.2
3654,2.38
3666,1.74
3678,1.34
3690,1.13
3701,1.04
3712,0.99
3724,0.98
3736,1.06
3748,1.29
3760,1.69
3772,2.22
3784,2.79
3796,3.32
3808,3.76
3820,4.12
3832,4.39
3844,4.54
3856,4.51
3868,4.22
3880,3.62
3891,2.75
3902,1.69
3914,0.63
3926,-0.31
3938,-1.02
3950,-1.52
3962,-1.88
3974,-2.23
3986,-2.65
3998,-3.15
4010,-3.67
4022,-4.13
4034,-4.48
4046,-4.78
4058,-5.12
4070,-5.63
4081,-6.37
4092,-7.3
4104,-8.29
4116,-9.1
4128,-9.51
4140,-9.36
4152,-8.56
4164,-7.13
4176,-5.22
4188,-3.07
4200,-0.9
4212,1.05
4224,2.67
4236,3.95
4248,4.9
4260,5.59
4271,6.06
4282,6.29
4294,6.29
4306,6.05
4318,5.61
4330,5.05
4342,4.45
4354,3.91
4366,3.49
4378,3.25
4390,3.18
4402,3.24
4414,3.36
4426,3.43
4438,3.36
4450,3.16
4461,2.82
4472,2.42
4484,2.01
4496,1.62
4508,1.25
4520,0.86
4532,0.37
4544,-0.23
4556,-0.92
4568,-1.6
4580,-2.19
4592,-2.62
4604,-2.93
4616,-3.2
4628,-3.57
4640,-4.15
4651,-4.97
4662,-5.98
4674,-7.07
4686,-8.17
4698,-9.21
4710,-10.16
4722,-10.92
4734,-11.35
4746,-11.23
4758,-10.4
4770,-8.79
4782,-6.51
4794,-3.83
4806,-1.08
4818,1.44
4830,3.51
4841,5.06
4852,6.13
4864,6.8
4876,7.18
4888,7.36
4900,7.39
4912,7.25
4924,6.91
4936,6.35
4948,5.62
4960,4.81
4972,4.04
4984,3.38
4996,2.88
5008,2.53
5020,2.33
5031,2.32
5042,2.52
5054,2.95
5066,3.48
5078,3.9
5090,3.99
5102,3.61
5114,2.82
5126,1.82
5138,0.87
5150,0.15
5162,-0.31
5174,-0.63
5186,-1.0
5198,-1.6
5210,-2.52
5221,-3.7
5232,-5.01
5244,-6.25
5256,-7.27
5268,-8.01
5280,-8.52
5292,-8.91
5304,-9.31
5316,-9.81
5328,-10.46
5340,-11.22
5352,-12.03
5364,-12.75
5376,-13.18
5388,-13.1
5400,-12.33
5411,-10.83
5422,-8.73
5434,-6.34
5446,-4.0
5458,-1.99
5470,-0.4
5482,0.89
5494,2.09
5506,3.43
5518,5.05
5530,6.93
5542,8.94
5554,10.88
5566,12.6
5578,14.0
5590,15.09
5601,15.91
5612,16.47
5624,16.72
5636,16.57
5648,15.96
5660,14.98
5672,13.81
5684,12.67
5696,11.7
5708,10.89
5720,10.08
5732,9.07
5744,7.76
5756,6.2
5768,4.56
5780,3.04
5791,1.77
5802,0.78
5814,0.04
5826,-0.5
5838,-0.89
5850,-1.17
5862,-1.37
5874,-1.52
5886,-1.64
5898,-1.73
5910,-1.81
5922,-1.96
5934,-2.27
5946,-2.86
5958,-3.71
5970,-4.69
5981,-5.61
5992,-6.28
6004,-6.68
6016,-6.9
6028,-7.13
6040,-7.48
6052,-7.99
6064,-8.6
6076,-9.27
6088,-10.01
6100,-10.84
6112,-11.69
6124,-12.33
6136,-12.4
6148,-11.54
6160,-9.56
6171,-6.57
6182,-2.99
6194,0.61
6206,3.73
6218,6.04
6230,7.48
6242,8.19
6254,8.39
6266,8.32
6278,8.12
6290,7.86
6302,7.55
6314,7.23
6326,6.88
6338,6.53
6350,6.18
6361,5.83
6372,5.43
6384,4.97
6396,4.42
6408,3.82
6420,3.31
6432,2.98
6444,2.94
6456,3.18
6468,3.59
6480,3.98
6492,4.15
6504,3.99
6516,3.51
6528,2.85
6540,2.24
6551,1.86
6562,1.82
6574,2.04
6586,2.35
6598,2.5
6610,2.3
6622,1.7
6634,0.76
6646,-0.36
6658,-1.44
6670,-2.37
6682,-3.11
6694,-3.69
6706,-4.2
6718,-4.68
6730,-5.13
6741,-5.52
6752,-5.82
6764,-6.0
6776,-6.08
6788,-6.12
6800,-6.19
6812,-6.38
6824,-6.76
6836,-7.36
6848,-8.12
6860,-8.87
6872,-9.32
6884,-9.2
6896,-8.32
6908,-6.69
6920,-4.53
6931,-2.14
6942,0.15
6954,2.13
6966,3.73
6978,4.93
6990,5.73
7002,6.14
7014,6.17
7026,5.89
7038,5.42
7050,4.93
7062,4.56
7074,4.4
7086,4.41
7098,4.55
7110,4.73
7121,4.84
7132,4.83
7144,4.67
7156,4.42
7168,4.14
7180,3.95
7192,3.87
7204,3.86
7216,3.82
7228,3.66
7240,3.35
7252,2.87
7264,2.31
7276,1.69
7288,1.08
7300,0.48
7311,-0.03
7322,-0.4
7334,-0.55
7346,-0.5
7358,-0.36
7370,-0.27
7382,-0.36
7394,-0.66
7406,-1.09
7418,-1.49
7430,-1.76
7442,-1.84
7454,-1.79
7466,-1.76
7478,-1.88
7490,-2.22
7501,-2.79
7512,-3.5
7524,-4.25
7536,-4.91
7548,-5.38
7560,-5.62
7572,-5.67
7584,-5.65
7596,-5.72
7608,-6.03
7620,-6.6
7632,-7.35
7644,-8.07
7656,-8.51
7668,-8.43
7680,-7.71
7691,-6.36
7702,-4.53
7714,-2.46
7726,-0.41
7738,1.41
7750,2.83
7762,3.81
7774,4.4
7786,4.72
7798,4.88
7810,4.95
7822,4.93
7834,4.79
7846,4.52
7858,4.14
7870,3.73
7881,3.35
7892,3.05
7904,2.84
7916,2.69
7928,2.58
7940,2.54
7952,2.61
7964,2.81
7976,3.12
7988,3.44
8000,3.64
8012,3.63
8024,3.39
8036,2.95
8048,2.4
8060,1.82
8071,1.21
8082,0.52
8094,-0.28
8106,-1.17
8118,-2.06
8130,-2.84
8142,-3.43
8154,-3.83
8166,-4.11
8178,-4.34
8190,-4.58
8202,-4.81
8214,-4.99
8226,-5.1
8238,-5.14
8250,-5.14
8261,-5.12
8272,-5.06
8284,-4.96
8296,-4.86
8308,-4.86
8320,-5.1
8332,-5.65
8344,-6.49
8356,-7.43
8368,-8.22
8380,-8.55
8392,-8.21
8404,-7.16
8416,-5.55
8428,-3.65
8440,-1.75
8451,-0.09
8462,1.24
8474,2.26
8486,3.07
8498,3.81
8510,4.55
8522,5.3
8534,6.0
8546,6.55
8558,6.83
8570,6.76
8582,6.32
8594,5.61
8606,4.81
8618,4.12
8630,3.7
8641,3.58
8652,3.69
8664,3.9
8676,4.07
8688,4.16
8700,4.16
8712,4.07
8724,3.87
8736,3.5
8748,2.92
8760,2.15
8772,1.32
8784,0.58
8796,0.07
8808,-0.18
8820,-0.27
8831,-0.37
8842,-0.56
8854,-0.91
8866,-1.35
8878,-1.75
8890,-2.06
8902,-2.26
8914,-2.42
8926,-2.64
8938,-2.97
8950,-3.39
8962,-3.87
8974,-4.36
8986,-4.86
8998,-5.4
9010,-5.98
9021,-6.55
9032,-7.07
9044,-7.5
9056,-7.85
9068,-8.22
9080,-8.7
9092,-9.33
9104,-10.01
9116,-10.53
9128,-10.6
9140,-9.98
9152,-8.61
9164,-6.61
9176,-4.25
9188,-1.84
9200,0.4
9211,2.35
9222,4.02
9234,5.39
9246,6.48
9258,7.24
9270,7.64
9282,7.75
9294,7.68
9306,7.53
9318,7.4
9330,7.27
9342,7.06
9354,6.7
9366,6.18
9378,5.54
9390,4.9
9401,4.38
9412,4.03
9424,3.86
9436,3.79
9448,3.76
9460,3.67
9472,3.52
9484,3.34
9496,3.23
9508,3.26
9520,3.44
9532,3.72
9544,3.95
9556,4.02
9568,3.86
9580,3.48
9591,2.92
9602,2.26
9614,1.55
9626,0.81
9638,0.06
9650,-0.62
9662,-1.16
9674,-1.49
9686,-1.58
9698,-1.53
9710,-1.46
9722,-1.51
9734,-1.77
9746,-2.22
9758,-2.75
9770,-3.23
9781,-3.54
9792,-3.64
9804,-3.6
9816,-3.53
9828,-3.53
9840,-3.72
9852,-4.13
9864,-4.72
9876,-5.42
9888,-6.07
9900,-6.48
9912,-6.45
9924,-5.82
9936,-4.52
9948,-2.58
9960,-0.19
9971,2.35
9982,4.67
9994,6.44
10006,7.48
10018,7.81
10030,7.56
10042,6.97
10054,6.25
10066,5.56
10078,4.94
10090,4.39
10102,3.87
10114,3.39
10126,2.98
10138,2.68
10150,2.52
10161,2.52
10172,2.68
10184,2.99
10196,3.41
10208,3.91
10220,4.48
10232,5.08
10244,5.66
10256,6.09
10268,6.22
10280,5.94
10292,5.23
10304,4.22
10316,3.13
10328,2.18
10340,1.45
10351,0.91
10362,0.43
10374,-0.12
10386,-0.78
10398,-1.43
10410,-1.95
10422,-2.24
10434,-2.34
10446,-2.41
10458,-2.62
10470,-3.02
10482,-3.6
10494,-4.21
10506,-4.76
10518,-5.2
10530,-5.61
10541,-6.07
10552,-6.61
10564,-7.17
10576,-7.66
10588,-7.99
10600,-8.22
10612,-8.45
10624,-8.86
10636,-9.48
10648,-10.22
10660,-10.82
10672,-10.98
10684,-10.45
10696,-9.17
10708,-7.21
10720,-4.78
10731,-2.15
10742,0.39
10754,2.63
10766,4.36
10778,5.52
10790,6.07
10802,6.12
10814,5.82
10826,5.35
10838,4.89
10850,4.52
10862,4.28
10874,4.08
10886,3.87
10898,3.65
10910,3.47
10921,3.44
10932,3.63
10944,4.02
10956,4.49
10968,4.87
10980,5.07
10992,5.07
11004,4.98
11016,4.92
11028,4.97
11040,5.09
11052,5.16
11064,5.03
11076,4.63
11088,3.99
11100,3.21
11111,2.43
11122,1.73
11134,1.12
11146,0.59
11158,0.09
11170,-0.4
11182,-0.87
11194,-1.29
11206,-1.64
11218,-1.94
11230,-2.22
11242,-2.55
11254,-2.99
11266,-3.57
11278,-4.28
11290,-5.06
11301,-5.79
11312,-6.35
11324,-6.62
11336,-6.61
11348,-6.41
11360,-6.18
11372,-6.08
11384,-6.23
11396,-6.63
11408,-7.2
11420,-7.78
11432,-8.2
11444,-8.29
11456,-7.89
11468,-6.85
11480,-5.12
11491,-2.79
11502,-0.06
11514,2.76
11526,5.3
11538,7.27
11550,8.5
11562,9.0
11574,8.9
11586,8.42
11598,7.79
11610,7.23
11622,6.84
11634,6.66
11646,6.63
11658,6.68
11670,6.71
11681,6.67
11692,6.52
11704,6.27
11716,5.98
11728,5.69
11740,5.47
11752,5.37
11764,5.37
11776,5.42
11788,5.41
11800,5.22
11812,4.74
11824,3.96
11836,2.89
11848,1.64
11860,0.38
11871,-0.77
11882,-1.74
11894,-2.54
11906,-3.25
11918,-3.97
11930,-4.71
11942,-5.39
11954,-5.89
11966,-6.1
11978,-6.0
11990,-5.7
12002,-5.41
12014,-5.33
12026,-5.54
12038,-6.01
12050,-6.63
12061,-7.27
12072,-7.89
12084,-8.5
12096,-9.12
12108,-9.74
12120,-10.34
12132,-10.86
12144,-11.25
12156,-11.44
12168,-11.37
12180,-10.9
12192,-9.95
12204,-8.42
12216,-6.31
12228,-3.78
12240,-1.1
12251,1.38
12262,3.37
12274,4.73
12286,5.44
12298,5.69
12310,5.72
12322,5.8
12334,6.08
12346,6.56
12358,7.11
12370,7.58
12382,7.87
12394,7.98
12406,8.02
12418,8.13
12430,8.4
12441,8.86
12452,9.43
12464,10.02
12476,10.54
12488,10.95
12500,11.22
12512,11.29
12524,11.11
12536,10.62
12548,9.75
12560,8.54
12572,7.06
12584,5.44
12596,3.84
12608,2.37
12620,1.13
12631,0.11
12642,-0.76
12654,-1.6
12666,-2.49
12678,-3.45
12690,-4.43
12702,-5.26
12714,-5.85
12726,-6.17
12738,-6.35
12750,-6.56
12762,-6.96
12774,-7.6
12786,-8.38
12798,-9.11
12810,-9.64
12821,-9.91
12832,-9.97
12844,-9.99
12856,-10.06
12868,-10.24
12880,-10.53
12892,-10.91
12904,-11.35
12916,-11.87
12928,-12.42
12940,-12.86
12952,-12.99
12964,-12.55
12976,-11.37
12988,-9.44
13000,-6.96
13011,-4.28
13022,-1.81
13034,0.13
13046,1.38
13058,1.99
13070,2.19
13082,2.25
13094,2.39
13106,2.7
13118,3.12
13130,3.53
13142,3.77
13154,3.78
13166,3.57
13178,3.27
13190,3.06
13201,3.04
13212,3.25
13224,3.62
13236,4.04
13248,4.41
13260,4.71
13272,4.98
13284,5.28
13296,5.64
13308,5.99
13320,6.24
13332,6.28
13344,6.07
13356,5.68
13368,5.2
13380,4.69
13391,4.16
13402,3.58
13414,2.94
13426,2.31
13438,1.79
13450,1.5
13462,1.49
13474,1.71
13486,1.99
13498,2.11
13510,1.91
13522,1.33
13534,0.43
13546,-0.67
13558,-1.8
13570,-2.8
13581,-3.6
13592,-4.16
13604,-4.51
13616,-4.7
13628,-4.8
13640,-4.92
13652,-5.13
13664,-5.52
13676,-6.11
13688,-6.85
13700,-7.69
13712,-8.55
13724,-9.41
13736,-10.24
13748,-10.97
13760,-11.47
13771,-11.52
13782,-10.92
13794,-9.55
13806,-7.44
13818,-4.8
13830,-1.98
13842,0.67
13854,2.92
13866,4.67
13878,5.92
13890,6.74
13902,7.16
13914,7.27
13926,7.13
13938,6.89
13950,6.64
13961,6.49
13972,6.43
13984,6.43
13996,6.38
14008,6.23
14020,6.01
14032,5.76
14044,5.58
14056,5.53
14068,5.61
14080,5.75
14092,5.88
14104,5.96
14116,5.96
14128,5.89
14140,5.75
14151,5.55
14162,5.29
14174,5.02
14186,4.78
14198,4.58
14210,4.42
14222,4.21
14234,3.83
14246,3.19
14258,2.27
14270,1.19
14282,0.12
14294,-0.75
14306,-1.33
14318,-1.65
14330,-1.85
14341,-2.05
14352,-2.35
14364,-2.78
14376,-3.32
14388,-3.94
14400,-4.62
14412,-5.33
14424,-6.04
14436,-6.7
14448,-7.24
14460,-7.66
14472,-7.95
14484,-8.16
14496,-8.36
14508,-8.64
14520,-9.06
14531,-9.66
14542,-10.37
14554,-10.96
14566,-11.15
14578,-10.67
14590,-9.31
14602,-7.11
14614,-4.3
14626,-1.28
14638,1.52
14650,3.77
14662,5.33
14674,6.23
14686,6.67
14698,6.83
14710,6.87
14721,6.86
14732,6.76
14744,6.5
14756,6.03
14768,5.4
14780,4.71
14792,4.13
14804,3.82
14816,3.83
14828,4.09
14840,4.46
14852,4.73
14864,4.8
14876,4.68
14888,4.49
14900,4.41
14911,4.56
14922,4.9
14934,5.3
14946,5.57
14958,5.57
14970,5.29
14982,4.78
14994,4.14
15006,3.44
15018,2.65
15030,1.77
15042,0.81
15054,-0.13
15066,-0.93
15078,-1.49
15090,-1.84
15101,-2.09
15112,-2.4
15124,-2.84
15136,-3.42
15148,-4.04
15160,-4.55
15172,-4.86
15184,-4.99
15196,-4.99
15208,-5.04
15220,-5.28
15232,-5.84
15244,-6.73
15256,-7.9
15268,-9.24
15280,-10.62
15291,-11.9
15302,-12.92
15314,-13.55
15326,-13.58
15338,-12.83
15350,-11.16
15362,-8.59
15374,-5.36
15386,-1.87
15398,1.41
15410,4.11
15422,6.03
15434,7.21
15446,7.84
15458,8.12
15470,8.26
15481,8.32
15492,8.29
15504,8.15
15516,7.88
15528,7.5
15540,7.07
15552,6.68
15564,6.38
15576,6.25
15588,6.32
15600,6.57
15612,7.0
15624,7.5
15636,7.98
15648,8.33
15660,8.43
15671,8.25
15682,7.79
15694,7.14
15706,6.42
15718,5.72
15730,5.12
15742,4.58
15754,4.02
15766,3.33
15778,2.46
15790,1.47
15802,0.46
15814,-0.42
15826,-1.08
15838,-1.5
15850,-1.75
15861,-1.86
15872,-1.92
15884,-1.96
15896,-2.01
15908,-2.1
15920,-2.27
15932,-2.56
15944,-2.95
15956,-3.42
15968,-3.94
15980,-4.48
15992,-5.0
16004,-5.43
16016,-5.73
16028,-5.9
16040,-6.05
16051,-6.31
16062,-6.85
16074,-7.71
16086,-8.84
16098,-10.09
16110,-11.26
16122,-12.15
16134,-12.6
16146,-12.47
16158,-11.63
16170,-10.0
16182,-7.63
16194,-4.72
16206,-1.62
16218,1.28
16230,3.67
16241,5.39
16252,6.45
16264,6.97
16276,7.12
16288,7.08
16300,6.97
16312,6.86
16324,6.77
16336,6.69
16348,6.61
16360,6.54
16372,6.46
16384,6.39
16396,6.33
16408,6.3
16420,6.29
16431,6.29
16442,6.3
16454,6.3
16466,6.25
16478,6.1
16490,5.8
16502,5.32
16514,4.71
16526,4.07
16538,3.51
16550,3.1
16562,2.8
16574,2.54
16586,2.22
16598,1.82
16610,1.35
16621,0.86
16632,0.43
16644,0.06
16656,-0.25
16668,-0.54
16680,-0.84
16692,-1.15
16704,-1.46
16716,-1.73
16728,-1.91
16740,-1.97
16752,-1.91
16764,-1.81
16776,-1.79
16788,-2.01
16800,-2.61
16811,-3.59
16822,-4.82
16834,-6.09
16846,-7.2
16858,-8.01
16870,-8.56
16882,-8.97
16894,-9.41
16906,-9.97
16918,-10.6
16930,-11.1
16942,-11.21
16954,-10.67
16966,-9.38
16978,-7.39
16990,-4.91
17001,-2.26
17012,0.26
17024,2.45
17036,4.2
17048,5.5
17060,6.4
17072,6.93
17084,7.16
17096,7.13
17108,6.92
17120,6.61
17132,6.31
17144,6.08
17156,5.97
17168,5.98
17180,6.09
17191,6.25
17202,6.43
17214,6.57
17226,6.63
17238,6.59
17250,6.43
17262,6.17
17274,5.83
17286,5.44
17298,5.03
17310,4.61
17322,4.19
17334,3.81
17346,3.51
17358,3.31
17370,3.15
17381,2.96
17392,2.57
17404,1.9
17416,0.95
17428,-0.17
17440,-1.28
17452,-2.24
17464,-2.93
17476,-3.38
17488,-3.67
17500,-3.95
17512,-4.35
17524,-4.95
17536,-5.75
17548,-6.68
17560,-7.6
17571,-8.33
17582,-8.78
17594,-8.94
17606,-8.99
17618,-9.17
17630,-9.72
17642,-10.73
17654,-12.08
17666,-13.43
17678,-14.32
17690,-14.34
17702,-13.23
17714,-11.06
17726,-8.08
17738,-4.74
17750,-1.5
17761,1.32
17772,3.58
17784,5.28
17796,6.5
17808,7.32
17820,7.8
17832,8.0
17844,8.0
17856,7.87
17868,7.66
17880,7.36
17892,6.93
17904,6.38
17916,5.77
17928,5.22
17940,4.87
17951,4.79
17962,4.97
17974,5.31
17986,5.68
17998,5.99
18010,6.21
18022,6.34
18034,6.38
18046,6.29
18058,6.03
18070,5.59
18082,5.0
18094,4.35
18106,3.74
18118,3.24
18130,2.86
18141,2.54
18152,2.19
18164,1.76
18176,1.22
18188,0.6
18200,-0.04
18212,-0.66
18224,-1.25
18236,-1.8
18248,-2.36
18260,-2.97
18272,-3.66
18284,-4.45
18296,-5.33
18308,-6.22
18320,-7.0
18331,-7.53
18342,-7.75
18354,-7.68
18366,-7.49
18378,-7.39
18390,-7.55
18402,-8.04
18414,-8.75
18426,-9.55
18438,-10.28
18450,-10.88
18462,-11.33
18474,-11.62
18486,-11.6
18498,-11.07
18510,-9.82
18521,-7.77
18532,-5.06
18544,-1.99
18556,1.05
18568,3.74
18580,5.89
18592,7.43
18604,8.43
18616,8.95
18628,9.1
18640,8.98
18652,8.71
18664,8.42
18676,8.19
18688,8.04
18700,7.9
18711,7.69
18722,7.38
18734,6.97
18746,6.55
18758,6.19
18770,5.96
18782,5.88
18794,5.9
18806,5.94
18818,5.93
18830,5.82
18842,5.59
18854,5.26
18866,4.85
18878,4.4
18890,3.9
18901,3.37
18912,2.79
18924,2.17
18936,1.52
18948,0.9
18960,0.38
18972,-0.01
18984,-0.27
18996,-0.46
19008,-0.64
19020,-0.87
19032,-1.15
19044,-1.45
19056,-1.72
19068,-1.96
19080,-2.17
19091,-2.38
19102,-2.61
19114,-2.88
19126,-3.2
19138,-3.59
19150,-4.1
19162,-4.73
19174,-5.49
19186,-6.33
19198,-7.15
19210,-7.87
19222,-8.45
19234,-8.91
19246,-9.32
19258,-9.82
19270,-10.47
19281,-11.3
19292,-12.17
19304,-12.85
19316,-13.0
19328,-12.35
19340,-10.77
19352,-8.4
19364,-5.54
19376,-2.61
19388,0.03
19400,2.21
19412,3.88
19424,5.1
19436,5.93
19448,6.39
19460,6.53
19471,6.43
19482,6.26
19494,6.18
19506,6.3
19518,6.61
19530,6.98
19542,7.19
19554,7.12
19566,6.72
19578,6.12
19590,5.49
19602,5.03
19614,4.87
19626,5.05
19638,5.52
19650,6.19
19661,6.9
19672,7.49
19684,7.84
19696,7.83
19708,7.44
19720,6.71
19732,5.7
19744,4.52
19756,3.32
19768,2.24
19780,1.42
19792,0.9
19804,0.66
19816,0.55
19828,0.43
19840,0.15
19851,-0.35
19862,-1.01
19874,-1.72
19886,-2.38
19898,-2.91
19910,-3.32
19922,-3.64
19934,-3.92
19946,-4.24
19958,-4.65
19970,-5.23
19982,-5.98
19994,-6.85
20006,-7.73
20018,-8.45
20030,-8.92
20041,-9.11
20052,-9.12
20064,-9.09
20076,-9.2
20088,-9.53
20100,-10.05
20112,-10.6
20124,-10.91
20136,-10.71
20148,-9.78
20160,-8.08
20172,-5.74
20184,-3.04
20196,-0.3
20208,2.19
20220,4.29
20231,5.91
20242,7.07
20254,7.78
20266,8.09
20278,8.03
20290,7.71
20302,7.24
20314,6.78
20326,6.43
20338,6.21
20350,6.08
20362,5.96
20374,5.81
20386,5.66
20398,5.59
20410,5.68
20421,5.96
20432,6.35
20444,6.71
20456,6.89
20468,6.81
20480,6.45
20492,5.9
20504,5.24
20516,4.5
20528,3.68
20540,2.81
20552,1.93
20564,1.17
20576,0.63
20588,0.33
20600,0.17
20611,-0.0
20622,-0.33
20634,-0.87
20646,-1.54
20658,-2.17
20670,-2.6
20682,-2.8
20694,-2.88
20706,-3.07
20718,-3.57
20730,-4.43
20742,-5.55
20754,-6.67
20766,-7.5
20778,-7.86
20790,-7.81
20801,-7.56
20812,-7.4
20824,-7.5
20836,-7.87
20848,-8.38
20860,-8.87
20872,-9.2
20884,-9.29
20896,-9.06
20908,-8.42
20920,-7.25
20932,-5.54
20944,-3.4
20956,-1.09
20968,1.07
20980,2.82
20991,4.07
