seconds,BVP
9,10.07
21,8.58
33,7.36
45,6.33
57,5.46
69,4.73
81,4.17
93,3.84
105,3.72
117,3.79
129,3.94
140,4.01
151,3.8
163,3.19
175,2.12
187,0.71
199,-0.86
211,-2.39
223,-3.79
235,-5.08
247,-6.42
259,-8.03
271,-10.02
283,-12.3
295,-14.55
307,-16.24
319,-16.85
330,-16.03
341,-13.76
353,-10.33
365,-6.24
377,-1.99
389,2.05
401,5.73
413,8.94
425,11.62
437,13.63
449,14.82
461,15.14
473,14.69
485,13.72
497,12.53
509,11.32
520,10.14
531,8.9
543,7.48
555,5.85
567,4.14
579,2.55
591,1.33
603,0.6
615,0.25
627,0.08
639,-0.16
651,-0.64
663,-1.41
675,-2.4
687,-3.51
699,-4.69
710,-5.92
721,-7.21
733,-8.56
745,-9.99
757,-11.56
769,-13.35
781,-15.43
793,-17.73
805,-20.0
817,-21.8
829,-22.61
841,-21.99
853,-19.76
865,-16.09
877,-11.4
889,-6.32
900,-1.45
911,2.8
923,6.19
935,8.72
947,10.45
959,11.49
971,11.88
983,11.66
995,10.88
1007,9.66
1019,8.22
1031,6.78
1043,5.53
1055,4.53
1067,3.77
1079,3.18
1090,2.69
1101,2.3
1113,2.04
1125,1.97
1137,2.08
1149,2.29
1161,2.47
1173,2.46
1185,2.15
1197,1.49
1209,0.55
1221,-0.5
1233,-1.49
1245,-2.33
1257,-3.01
1269,-3.65
1280,-4.44
1291,-5.56
1303,-7.07
1315,-8.91
1327,-10.89
1339,-12.69
1351,-13.95
1363,-14.34
1375,-13.64
1387,-11.77
1399,-8.81
1411,-5.03
1423,-0.8
1435,3.47
1447,7.41
1459,10.77
1470,13.42
1481,15.31
1493,16.5
1505,17.03
1517,16.94
1529,16.25
1541,15.0
1553,13.3
1565,11.33
1577,9.35
1589,7.58
1601,6.15
1613,5.08
1625,4.29
1637,3.64
1649,3.04
1660,2.43
1671,1.84
1683,1.3
1695,0.83
1707,0.4
1719,-0.1
1731,-0.79
1743,-1.73
1755,-2.87
1767,-4.1
1779,-5.25
1791,-6.24
1803,-7.07
1815,-7.83
1827,-8.71
1839,-9.82
1850,-11.23
1861,-12.9
1873,-14.66
1885,-16.19
1897,-17.1
1909,-16.97
1921,-15.52
1933,-12.71
1945,-8.76
1957,-4.12
1969,0.66
1981,5.12
1993,8.95
2005,12.0
2017,14.23
2029,15.62
2040,16.16
2051,15.85
2063,14.75
2075,13.02
2087,10.92
2099,8.78
2111,6.9
2123,5.49
2135,4.59
2147,4.07
2159,3.71
2171,3.31
2183,2.78
2195,2.15
2207,1.55
2219,1.06
2230,0.67
2241,0.24
2253,-0.36
2265,-1.2
2277,-2.23
2289,-3.33
2301,-4.37
2313,-5.32
2325,-6.24
2337,-7.26
2349,-8.44
2361,-9.75
2373,-11.11
2385,-12.44
2397,-13.7
2409,-14.89
2420,-15.91
2431,-16.57
2443,-16.52
2455,-15.42
2467,-13.06
2479,-9.52
2491,-5.13
2503,-0.39
2515,4.25
2527,8.43
2539,11.97
2551,14.77
2563,16.8
2575,18.0
2587,18.37
2599,17.94
2610,16.85
2621,15.31
2633,13.57
2645,11.84
2657,10.3
2669,9.05
2681,8.14
2693,7.54
2705,7.19
2717,6.95
2729,6.71
2741,6.39
2753,5.97
2765,5.49
2777,4.98
2789,4.43
2800,3.78
2811,2.9
2823,1.73
2835,0.25
2847,-1.41
2859,-3.07
2871,-4.56
2883,-5.84
2895,-6.96
2907,-8.08
2919,-9.33
2931,-10.75
2943,-12.3
2955,-13.92
2967,-15.54
2979,-17.06
2990,-18.32
3001,-19.01
3013,-18.75
3025,-17.23
3037,-14.3
3049,-10.18
3061,-5.36
3073,-0.47
3085,3.94
3097,7.56
3109,10.32
3121,12.29
3133,13.58
3145,14.21
3157,14.2
3169,13.6
3180,12.55
3191,11.25
3203,9.94
3215,8.76
3227,7.81
3239,7.05
3251,6.45
3263,5.91
3275,5.34
3287,4.71
3299,4.0
3311,3.28
3323,2.62
3335,2.11
3347,1.75
3359,1.47
3370,1.15
3381,0.69
3393,0.08
3405,-0.64
3417,-1.39
3429,-2.16
3441,-3.04
3453,-4.14
3465,-5.49
3477,-7.09
3489,-8.78
3501,-10.43
3513,-11.95
3525,-13.35
3537,-14.71
3549,-16.11
3560,-17.5
3571,-18.67
3583,-19.26
3595,-18.87
3607,-17.24
3619,-14.37
3631,-10.5
3643,-6.08
3655,-1.6
3667,2.53
3679,6.08
3691,8.98
3703,11.26
3715,12.96
3727,14.05
3739,14.48
3750,14.2
3761,13.22
3773,11.72
3785,9.98
3797,8.31
3809,6.93
3821,5.91
3833,5.16
3845,4.53
3857,3.92
3869,3.32
3881,2.8
3893,2.47
3905,2.32
3917,2.27
3929,2.16
3940,1.85
3951,1.3
3963,0.54
3975,-0.35
3987,-1.31
3999,-2.32
4011,-3.41
4023,-4.59
4035,-5.83
4047,-7.04
4059,-8.16
4071,-9.2
4083,-10.24
4095,-11.41
4107,-12.83
4119,-14.49
4130,-16.26
4141,-17.83
4153,-18.82
4165,-18.86
4177,-17.71
4189,-15.35
4201,-11.92
4213,-7.78
4225,-3.33
4237,1.03
4249,5.01
4261,8.4
4273,11.08
4285,13.02
4297,14.2
4309,14.61
4320,14.29
4331,13.3
4343,11.76
4355,9.81
4367,7.68
4379,5.6
4391,3.75
4403,2.26
4415,1.17
4427,0.42
4439,-0.05
4451,-0.3
4463,-0.32
4475,-0.11
4487,0.34
4499,0.94
4510,1.46
4521,1.66
4533,1.3
4545,0.33
4557,-1.1
4569,-2.7
4581,-4.14
4593,-5.18
4605,-5.77
4617,-6.12
4629,-6.54
4641,-7.38
4653,-8.84
4665,-10.83
4677,-13.02
4689,-14.89
4700,-15.94
4711,-15.81
4723,-14.38
4735,-11.78
4747,-8.26
4759,-4.17
4771,0.19
4783,4.5
4795,8.5
4807,11.93
4819,14.55
4831,16.22
4843,16.86
4855,16.54
4867,15.46
4879,13.85
4890,12.0
4901,10.16
4913,8.52
4925,7.12
4937,5.9
4949,4.75
4961,3.58
4973,2.41
4985,1.34
4997,0.48
5009,-0.08
5021,-0.4
5033,-0.62
5045,-0.91
5057,-1.42
5069,-2.16
5080,-3.08
5091,-4.04
5103,-4.93
5115,-5.71
5127,-6.42
5139,-7.13
5151,-7.9
5163,-8.78
5175,-9.79
5187,-10.97
5199,-12.33
5211,-13.81
5223,-15.22
5235,-16.25
5247,-16.51
5259,-15.65
5270,-13.54
5281,-10.27
5293,-6.19
5305,-1.72
5317,2.71
5329,6.78
5341,10.28
5353,13.04
5365,14.98
5377,16.04
5389,16.21
5401,15.61
5413,14.38
5425,12.7
5437,10.76
5449,8.76
5460,6.88
5471,5.3
5483,4.15
5495,3.44
5507,3.1
5519,3.02
5531,3.08
5543,3.21
5555,3.37
5567,3.51
5579,3.51
5591,3.23
5603,2.53
5615,1.37
5627,-0.14
5639,-1.8
5650,-3.39
5661,-4.76
5673,-5.92
5685,-7.02
5697,-8.25
5709,-9.76
5721,-11.59
5733,-13.63
5745,-15.68
5757,-17.43
5769,-18.53
5781,-18.66
5793,-17.55
5805,-15.11
5817,-11.45
5829,-6.92
5840,-2.01
5851,2.81
5863,7.17
5875,10.88
5887,13.92
5899,16.3
5911,17.97
5923,18.84
5935,18.81
5947,17.86
5959,16.17
5971,14.09
5983,11.99
5995,10.16
6007,8.72
6019,7.59
6030,6.66
6041,5.83
6053,5.06
6065,4.41
6077,3.87
6089,3.39
6101,2.83
6113,2.07
6125,1.04
6137,-0.24
6149,-1.63
6161,-2.98
6173,-4.21
6185,-5.27
6197,-6.2
6209,-7.05
6220,-7.89
6231,-8.77
6243,-9.77
6255,-10.96
6267,-12.44
6279,-14.23
6291,-16.2
6303,-18.04
6315,-19.27
6327,-19.4
6339,-18.07
6351,-15.22
6363,-11.09
6375,-6.18
6387,-1.04
6399,3.87
6410,8.24
6421,11.91
6433,14.81
6445,16.86
6457,17.97
6469,18.09
6481,17.27
6493,15.72
6505,13.74
6517,11.66
6529,9.78
6541,8.25
6553,7.07
6565,6.16
6577,5.45
6589,4.91
6600,4.56
6611,4.42
6623,4.43
6635,4.49
6647,4.46
6659,4.21
6671,3.68
6683,2.88
6695,1.82
6707,0.53
6719,-0.94
6731,-2.52
6743,-4.07
6755,-5.45
6767,-6.57
6779,-7.44
6790,-8.2
6801,-9.04
6813,-10.14
6825,-11.6
6837,-13.35
6849,-15.23
6861,-16.95
6873,-18.15
6885,-18.45
6897,-17.58
6909,-15.37
6921,-11.89
6933,-7.47
6945,-2.57
6957,2.26
6969,6.59
6980,10.17
6991,12.88
7003,14.76
7015,15.84
7027,16.15
7039,15.75
7051,14.72
7063,13.21
7075,11.43
7087,9.65
7099,8.07
7111,6.81
7123,5.92
7135,5.36
7147,5.06
7159,4.9
7170,4.86
7181,4.89
7193,4.98
7205,5.09
7217,5.11
7229,4.88
7241,4.25
7253,3.17
7265,1.72
7277,0.07
7289,-1.55
7301,-2.99
7313,-4.23
7325,-5.35
7337,-6.48
7349,-7.72
7360,-9.09
7371,-10.55
7383,-12.06
7395,-13.56
7407,-15.01
7419,-16.23
7431,-16.96
7443,-16.88
7455,-15.68
7467,-13.25
7479,-9.75
7491,-5.54
7503,-1.05
7515,3.34
7527,7.4
7539,11.02
7550,14.11
7561,16.53
7573,18.06
7585,18.55
7597,17.96
7609,16.49
7621,14.49
7633,12.35
7645,10.37
7657,8.74
7669,7.5
7681,6.62
7693,6.02
7705,5.67
7717,5.51
7729,5.49
7740,5.49
7751,5.43
7763,5.19
7775,4.75
7787,4.11
7799,3.31
7811,2.38
7823,1.31
7835,0.03
7847,-1.46
7859,-3.12
7871,-4.82
7883,-6.37
7895,-7.63
7907,-8.56
7919,-9.25
7930,-9.86
7941,-10.52
7953,-11.33
7965,-12.33
7977,-13.51
7989,-14.88
8001,-16.37
8013,-17.81
8025,-18.9
8037,-19.24
8049,-18.46
8061,-16.35
8073,-12.96
8085,-8.59
8097,-3.72
8109,1.12
8120,5.49
8131,9.08
8143,11.83
8155,13.78
8167,15.02
8179,15.64
8191,15.67
8203,15.11
8215,13.99
8227,12.51
8239,10.94
8251,9.61
8263,8.77
8275,8.48
8287,8.58
8299,8.83
8310,8.96
8321,8.9
8333,8.67
8345,8.38
8357,8.11
8369,7.83
8381,7.43
8393,6.82
8405,5.94
8417,4.82
8429,3.54
8441,2.19
8453,0.85
8465,-0.4
8477,-1.51
8489,-2.45
8500,-3.19
8511,-3.78
8523,-4.3
8535,-4.85
8547,-5.52
8559,-6.34
8571,-7.26
8583,-8.22
8595,-9.14
8607,-9.97
8619,-10.73
8631,-11.55
8643,-12.58
8655,-13.94
8667,-15.63
8679,-17.47
8690,-19.04
8701,-19.9
8713,-19.6
8725,-17.89
8737,-14.8
8749,-10.53
8761,-5.46
8773,-0.05
8785,5.25
8797,9.98
8809,13.78
8821,16.42
8833,17.85
8845,18.19
8857,17.68
8869,16.63
8880,15.28
8891,13.84
8903,12.44
8915,11.19
8927,10.16
8939,9.37
8951,8.84
8963,8.51
8975,8.31
8987,8.2
8999,8.13
9011,8.08
9023,8.03
9035,7.96
9047,7.82
9059,7.55
9070,7.09
9081,6.44
9093,5.61
9105,4.67
9117,3.7
9129,2.76
9141,1.89
9153,1.07
9165,0.25
9177,-0.63
9189,-1.54
9201,-2.47
9213,-3.33
9225,-4.09
9237,-4.72
9249,-5.25
9260,-5.68
9271,-6.01
9283,-6.24
9295,-6.38
9307,-6.55
9319,-6.85
9331,-7.41
9343,-8.21
9355,-9.17
9367,-10.08
9379,-10.75
9391,-11.14
9403,-11.31
9415,-11.46
9427,-11.83
9439,-12.63
9450,-13.95
9461,-15.71
9473,-17.74
9485,-19.72
9497,-21.23
9509,-21.84
9521,-21.21
9533,-19.13
9545,-15.7
9557,-11.2
9569,-6.13
9581,-1.01
9593,3.72
9605,7.78
9617,11.03
9629,13.46
9640,15.12
9651,16.08
9663,16.37
9675,16.02
9687,15.12
9699,13.78
9711,12.22
9723,10.68
9735,9.41
9747,8.58
9759,8.25
9771,8.35
9783,8.73
9795,9.23
9807,9.71
9819,10.06
9830,10.26
9841,10.27
9853,10.08
9865,9.65
9877,8.93
9889,7.91
9901,6.65
9913,5.26
9925,3.88
9937,2.65
9949,1.61
9961,0.74
9973,-0.06
9985,-0.86
9997,-1.65
10009,-2.34
10020,-2.83
10031,-3.05
10043,-3.04
10055,-2.92
10067,-2.89
10079,-3.09
10091,-3.6
10103,-4.41
10115,-5.42
10127,-6.53
10139,-7.6
10151,-8.56
10163,-9.38
10175,-10.09
10187,-10.77
10199,-11.52
10210,-12.47
10221,-13.67
10233,-15.07
10245,-16.48
10257,-17.58
10269,-17.98
10281,-17.29
10293,-15.29
10305,-12.01
10317,-7.76
10329,-3.03
10341,1.62
10353,5.75
10365,9.13
10377,11.73
10389,13.65
10400,14.98
10411,15.74
10423,15.9
10435,15.47
10447,14.54
10459,13.31
10471,11.99
10483,10.75
10495,9.65
10507,8.7
10519,7.92
10531,7.33
10543,7.0
10555,6.93
10567,7.07
10579,7.29
10590,7.45
10601,7.46
10613,7.28
10625,6.91
10637,6.35
10649,5.6
10661,4.69
10673,3.69
10685,2.77
10697,2.05
10709,1.59
10721,1.34
10733,1.11
10745,0.75
10757,0.14
10769,-0.67
10780,-1.57
10791,-2.38
10803,-3.05
10815,-3.61
10827,-4.15
10839,-4.83
10851,-5.66
10863,-6.6
10875,-7.55
10887,-8.41
10899,-9.16
10911,-9.83
10923,-10.47
10935,-11.13
10947,-11.78
10959,-12.37
10970,-12.87
10981,-13.32
10993,-13.8
11005,-14.46
11017,-15.38
11029,-16.53
11041,-17.71
11053,-18.59
11065,-18.77
11077,-17.95
11089,-15.99
11101,-12.97
11113,-9.15
11125,-4.89
11137,-0.56
11149,3.53
11160,7.15
11171,10.12
11183,12.32
11195,13.71
11207,14.32
11219,14.27
11231,13.75
11243,12.95
11255,12.04
11267,11.12
11279,10.28
11291,9.57
11303,9.01
11315,8.59
11327,8.28
11339,8.04
11350,7.86
11361,7.73
11373,7.67
11385,7.71
11397,7.82
11409,7.92
11421,7.9
11433,7.63
11445,7.06
11457,6.21
11469,5.19
11481,4.16
11493,3.24
11505,2.5
11517,1.91
11529,1.37
11540,0.77
11551,0.05
11563,-0.76
11575,-1.6
11587,-2.38
11599,-3.07
11611,-3.7
11623,-4.33
11635,-5.02
11647,-5.79
11659,-6.61
11671,-7.41
11683,-8.14
11695,-8.73
11707,-9.2
11719,-9.56
11730,-9.88
11741,-10.18
11753,-10.54
11765,-11.0
11777,-11.63
11789,-12.49
11801,-13.63
11813,-15.02
11825,-16.49
11837,-17.73
11849,-18.32
11861,-17.86
11873,-16.1
11885,-13.07
11897,-9.09
11909,-4.63
11920,-0.2
11931,3.84
11943,7.31
11955,10.16
11967,12.36
11979,13.82
11991,14.49
12003,14.34
12015,13.48
12027,12.18
12039,10.72
12051,9.37
12063,8.28
12075,7.45
12087,6.87
12099,6.51
12110,6.36
12121,6.38
12133,6.54
12145,6.72
12157,6.85
12169,6.89
12181,6.86
12193,6.8
12205,6.71
12217,6.52
12229,6.14
12241,5.53
12253,4.72
12265,3.85
12277,3.07
12289,2.44
12300,1.91
12311,1.34
12323,0.58
12335,-0.41
12347,-1.56
12359,-2.71
12371,-3.68
12383,-4.37
12395,-4.82
12407,-5.16
12419,-5.57
12431,-6.16
12443,-6.93
12455,-7.77
12467,-8.5
12479,-8.95
12490,-9.03
12501,-8.82
12513,-8.51
12525,-8.36
12537,-8.6
12549,-9.38
12561,-10.66
12573,-12.26
12585,-13.86
12597,-15.08
12609,-15.53
12621,-14.95
12633,-13.23
12645,-10.46
12657,-6.88
12669,-2.86
12680,1.27
12691,5.23
12703,8.78
12715,11.74
12727,13.95
12739,15.25
12751,15.6
12763,15.12
12775,14.04
12787,12.66
12799,11.25
12811,10.0
12823,8.96
12835,8.13
12847,7.53
12859,7.18
12870,7.13
12881,7.38
12893,7.85
12905,8.39
12917,8.81
12929,8.97
12941,8.8
12953,8.33
12965,7.6
12977,6.65
12989,5.49
13001,4.16
13013,2.71
13025,1.25
13037,-0.08
13049,-1.18
13060,-2.05
13071,-2.77
13083,-3.46
13095,-4.29
13107,-5.35
13119,-6.65
13131,-8.08
13143,-9.49
13155,-10.65
13167,-11.41
13179,-11.73
13191,-11.7
13203,-11.58
13215,-11.63
13227,-12.01
13239,-12.71
13250,-13.53
13261,-14.16
13273,-14.28
13285,-13.64
13297,-12.1
13309,-9.67
13321,-6.46
13333,-2.69
13345,1.35
13357,5.34
13369,8.96
13381,11.99
13393,14.26
13405,15.71
13417,16.37
13429,16.34
13440,15.75
13451,14.75
13463,13.46
13475,11.93
13487,10.2
13499,8.32
13511,6.46
13523,4.82
13535,3.63
13547,3.06
13559,3.08
13571,3.53
13583,4.14
13595,4.64
13607,4.81
13619,4.55
13630,3.79
13641,2.56
13653,0.93
13665,-0.96
13677,-2.91
13689,-4.73
13701,-6.3
13713,-7.61
13725,-8.72
13737,-9.75
13749,-10.75
13761,-11.73
13773,-12.6
13785,-13.29
13797,-13.76
13809,-14.03
13820,-14.24
13831,-14.52
13843,-15.03
13855,-15.81
13867,-16.83
13879,-17.93
13891,-18.87
13903,-19.35
13915,-19.08
13927,-17.85
13939,-15.59
13951,-12.4
13963,-8.53
13975,-4.35
13987,-0.23
13999,3.5
14010,6.62
14021,8.99
14033,10.56
14045,11.36
14057,11.48
14069,11.09
14081,10.39
14093,9.61
14105,8.9
14117,8.37
14129,8.04
14141,7.87
14153,7.77
14165,7.67
14177,7.52
14189,7.33
14200,7.14
14211,6.97
14223,6.85
14235,6.71
14247,6.49
14259,6.13
14271,5.6
14283,4.95
14295,4.25
14307,3.5
14319,2.72
14331,1.86
14343,0.9
14355,-0.12
14367,-1.14
14379,-2.12
14390,-3.09
14401,-4.14
14413,-5.38
14425,-6.86
14437,-8.54
14449,-10.31
14461,-12.04
14473,-13.6
14485,-14.81
14497,-15.52
14509,-15.5
14521,-14.59
14533,-12.73
14545,-10.06
14557,-6.84
14569,-3.45
14580,-0.22
14591,2.63
14603,5.0
14615,6.93
14627,8.48
14639,9.69
14651,10.56
14663,11.03
14675,11.06
14687,10.64
14699,9.82
14711,8.75
14723,7.63
14735,6.7
14747,6.11
14759,5.91
14770,6.01
14781,6.25
14793,6.49
14805,6.63
14817,6.64
14829,6.53
14841,6.28
14853,5.84
14865,5.12
14877,4.05
14889,2.66
14901,1.06
14913,-0.58
14925,-2.09
14937,-3.4
14949,-4.51
14960,-5.5
14971,-6.46
14983,-7.49
14995,-8.63
15007,-9.9
15019,-11.25
15031,-12.54
15043,-13.55
15055,-14.04
15067,-13.79
15079,-12.63
15091,-10.56
15103,-7.67
15115,-4.2
15127,-0.45
15139,3.27
15150,6.66
15161,9.49
15173,11.58
15185,12.84
15197,13.26
15209,12.89
15221,11.83
15233,10.28
15245,8.48
15257,6.71
15269,5.2
15281,4.1
15293,3.44
15305,3.19
15317,3.28
15329,3.6
15340,4.08
15351,4.59
15363,5.02
15375,5.26
15387,5.18
15399,4.68
15411,3.7
15423,2.26
15435,0.47
15447,-1.46
15459,-3.27
15471,-4.71
15483,-5.68
15495,-6.26
15507,-6.71
15519,-7.32
15530,-8.32
15541,-9.76
15553,-11.5
15565,-13.23
15577,-14.55
15589,-15.06
15601,-14.45
15613,-12.56
15625,-9.44
15637,-5.37
15649,-0.78
15661,3.8
15673,7.93
15685,11.3
15697,13.8
15709,15.47
15720,16.39
15731,16.61
15743,16.13
15755,14.91
15767,13.06
15779,10.8
15791,8.5
15803,6.52
15815,5.09
15827,4.22
15839,3.73
15851,3.38
15863,3.03
15875,2.7
15887,2.51
15899,2.56
15910,2.79
15921,3.04
15933,3.06
15945,2.7
15957,1.93
15969,0.83
15981,-0.44
15993,-1.73
16005,-2.92
16017,-3.97
16029,-4.87
16041,-5.72
16053,-6.61
16065,-7.65
16077,-8.92
16089,-10.44
16100,-12.1
16111,-13.67
16123,-14.81
16135,-15.19
16147,-14.52
16159,-12.69
16171,-9.77
16183,-6.02
16195,-1.87
16207,2.24
16219,5.93
16231,8.93
16243,11.12
16255,12.44
16267,12.93
16279,12.66
16290,11.75
16301,10.37
16313,8.73
16325,7.03
16337,5.47
16349,4.22
16361,3.4
16373,3.07
16385,3.2
16397,3.73
16409,4.55
16421,5.51
16433,6.46
16445,7.28
16457,7.82
16469,8.0
16480,7.81
16491,7.34
16503,6.68
16515,5.92
16527,5.05
16539,3.97
16551,2.58
16563,0.86
16575,-1.08
16587,-2.99
16599,-4.65
16611,-5.96
16623,-6.96
16635,-7.88
16647,-8.92
16659,-10.23
16670,-11.79
16681,-13.44
16693,-14.95
16705,-16.04
16717,-16.47
16729,-16.01
16741,-14.51
16753,-11.97
16765,-8.51
16777,-4.45
16789,-0.18
16801,3.84
16813,7.24
16825,9.77
16837,11.35
16849,12.03
16860,11.97
16871,11.38
16883,10.47
16895,9.46
16907,8.52
16919,7.76
16931,7.25
16943,6.94
16955,6.81
16967,6.79
16979,6.86
16991,6.99
17003,7.16
17015,7.31
17027,7.36
17039,7.23
17050,6.83
17061,6.15
17073,5.22
17085,4.11
17097,2.91
17109,1.75
17121,0.7
17133,-0.19
17145,-0.96
17157,-1.68
17169,-2.45
17181,-3.31
17193,-4.26
17205,-5.22
17217,-6.11
17229,-6.89
17240,-7.6
17251,-8.31
17263,-9.07
17275,-9.88
17287,-10.68
17299,-11.38
17311,-11.92
17323,-12.31
17335,-12.63
17347,-13.0
17359,-13.52
17371,-14.24
17383,-15.17
17395,-16.29
17407,-17.52
17419,-18.72
17430,-19.61
17441,-19.85
17453,-19.07
17465,-17.06
17477,-13.83
17489,-9.71
17501,-5.19
17513,-0.8
17525,3.08
17537,6.3
17549,8.86
17561,10.8
17573,12.17
17585,12.92
17597,13.04
17609,12.58
17620,11.71
17631,10.67
17643,9.68
17655,8.91
17667,8.38
17679,8.09
17691,7.98
17703,7.99
17715,8.05
17727,8.1
17739,8.05
17751,7.85
17763,7.48
17775,6.95
17787,6.33
17799,5.64
17810,4.85
17821,3.95
17833,2.92
17845,1.82
17857,0.77
17869,-0.09
17881,-0.72
17893,-1.15
17905,-1.48
17917,-1.89
17929,-2.51
17941,-3.4
17953,-4.49
17965,-5.65
17977,-6.67
17989,-7.43
18000,-7.86
18011,-8.03
18023,-8.11
18035,-8.23
18047,-8.55
18059,-9.1
18071,-9.92
18083,-10.99
18095,-12.24
18107,-13.47
18119,-14.36
18131,-14.49
18143,-13.46
18155,-11.17
18167,-7.8
18179,-3.84
18190,0.13
18201,3.67
18213,6.57
18225,8.88
18237,10.73
18249,12.26
18261,13.45
18273,14.22
18285,14.42
18297,14.01
18309,13.09
18321,11.86
18333,10.61
18345,9.63
18357,9.02
18369,8.75
18380,8.68
18391,8.6
18403,8.42
18415,8.13
18427,7.76
18439,7.36
18451,6.92
18463,6.37
18475,5.65
18487,4.81
18499,3.93
18511,3.13
18523,2.49
18535,1.98
18547,1.47
18559,0.79
18570,-0.19
18581,-1.47
18593,-2.96
18605,-4.49
18617,-5.9
18629,-7.08
18641,-8.01
18653,-8.72
18665,-9.24
18677,-9.59
18689,-9.77
18701,-9.8
18713,-9.75
18725,-9.71
18737,-9.78
18749,-10.01
18760,-10.43
18771,-11.02
18783,-11.75
18795,-12.63
18807,-13.62
18819,-14.6
18831,-15.28
18843,-15.29
18855,-14.31
18867,-12.14
18879,-8.88
18891,-4.86
18903,-0.55
18915,3.57
18927,7.18
18939,10.11
18950,12.34
18961,13.94
18973,14.94
18985,15.39
18997,15.3
19009,14.68
19021,13.61
19033,12.22
19045,10.69
19057,9.25
19069,8.09
19081,7.3
19093,6.89
19105,6.75
19117,6.76
19129,6.81
19140,6.82
19151,6.74
19163,6.53
19175,6.15
19187,5.6
19199,4.93
19211,4.22
19223,3.55
19235,2.95
19247,2.38
19259,1.76
19271,1.01
19283,0.1
19295,-0.93
19307,-2.03
19319,-3.13
19330,-4.16
19341,-5.06
19353,-5.75
19365,-6.17
19377,-6.29
19389,-6.18
19401,-5.99
19413,-5.9
19425,-6.08
19437,-6.61
19449,-7.41
19461,-8.32
19473,-9.1
19485,-9.58
19497,-9.68
19509,-9.51
19520,-9.34
19531,-9.5
19543,-10.27
19555,-11.7
19567,-13.64
19579,-15.67
19591,-17.29
19603,-17.99
19615,-17.45
19627,-15.56
19639,-12.45
19651,-8.47
19663,-4.1
19675,0.17
19687,3.92
19699,6.93
19710,9.14
19721,10.68
19733,11.68
19745,12.27
19757,12.49
19769,12.36
19781,11.95
19793,11.39
19805,10.82
19817,10.36
19829,10.03
19841,9.8
19853,9.6
19865,9.4
19877,9.23
19889,9.13
19900,9.1
19911,9.07
19923,8.89
19935,8.39
19947,7.46
19959,6.14
19971,4.57
19983,2.98
19995,1.59
20007,0.51
20019,-0.3
20031,-1.02
20043,-1.83
20055,-2.87
20067,-4.11
20079,-5.41
20090,-6.55
20101,-7.37
20113,-7.8
20125,-7.89
20137,-7.72
20149,-7.4
20161,-6.98
20173,-6.48
20185,-5.94
20197,-5.45
20209,-5.15
20221,-5.2
20233,-5.68
20245,-6.6
20257,-7.9
20269,-9.45
20280,-11.09
20291,-12.63
20303,-13.77
20315,-14.19
20327,-13.56
20339,-11.7
20351,-8.68
20363,-4.82
20375,-0.61
20387,3.45
20399,7.02
20411,10.0
20423,12.38
20435,14.21
20447,15.49
20459,16.14
20470,16.12
20481,15.46
20493,14.33
20505,13.0
20517,11.72
20529,10.7
20541,9.96
20553,9.43
20565,8.98
20577,8.5
20589,7.95
20601,7.31
20613,6.64
20625,5.98
20637,5.37
20649,4.84
20660,4.37
20671,3.93
20683,3.46
20695,2.9
20707,2.23
20719,1.43
20731,0.53
20743,-0.43
20755,-1.39
20767,-2.31
20779,-3.21
20791,-4.11
20803,-5.06
20815,-6.05
20827,-7.05
20839,-7.97
20850,-8.75
20861,-9.36
20873,-9.86
20885,-10.41
20897,-11.19
20909,-12.31
20921,-13.72
20933,-15.2
20945,-16.4
20957,-16.94
20969,-16.55
20981,-15.13
20993,-12.73
