seconds,BVP
9,-5.79
21,-5.96
33,-6.35
45,-6.81
57,-7.15
69,-7.16
81,-6.74
93,-5.93
105,-4.86
117,-3.78
129,-2.91
141,-2.37
153,-2.18
165,-2.16
176,-2.1
187,-1.81
199,-1.25
211,-0.52
223,0.16
235,0.57
247,0.65
259,0.45
271,0.16
283,0.03
295,0.18
307,0.6
319,1.16
331,1.65
343,1.88
355,1.74
366,1.18
377,0.28
389,-0.83
401,-1.96
413,-2.89
425,-3.43
437,-3.55
449,-3.38
461,-3.15
473,-3.09
485,-3.31
497,-3.73
509,-4.18
521,-4.47
533,-4.54
545,-4.44
556,-4.25
567,-4.0
579,-3.63
591,-3.0
603,-2.09
615,-0.97
627,0.14
639,1.01
651,1.51
663,1.65
675,1.58
687,1.53
699,1.64
711,1.96
723,2.4
735,2.86
746,3.25
757,3.55
769,3.77
781,3.94
793,4.02
805,3.93
817,3.64
829,3.16
841,2.61
853,2.09
865,1.71
877,1.46
889,1.28
901,1.12
913,0.98
925,0.93
936,1.06
947,1.47
959,2.15
971,3.04
983,4.01
995,4.95
1007,5.82
1019,6.63
1031,7.4
1043,8.16
1055,8.92
1067,9.63
1079,10.21
1091,10.63
1103,10.9
1115,11.04
1126,11.11
1137,11.12
1149,11.08
1161,11.0
1173,10.91
1185,10.84
1197,10.8
1209,10.78
1221,10.71
1233,10.54
1245,10.25
1257,9.89
1269,9.51
1281,9.14
1293,8.77
1305,8.34
1316,7.76
1327,6.99
1339,6.06
1351,5.05
1363,4.07
1375,3.22
1387,2.55
1399,2.03
1411,1.63
1423,1.29
1435,1.02
1447,0.79
1459,0.58
1471,0.36
1483,0.07
1495,-0.32
1506,-0.79
1517,-1.32
1529,-1.83
1541,-2.3
1553,-2.7
1565,-3.07
1577,-3.43
1589,-3.81
1601,-4.22
1613,-4.65
1625,-5.09
1637,-5.47
1649,-5.73
1661,-5.86
1673,-5.89
1685,-5.88
1696,-5.95
1707,-6.17
1719,-6.51
1731,-6.9
1743,-7.21
1755,-7.31
1767,-7.12
1779,-6.57
1791,-5.69
1803,-4.58
1815,-3.41
1827,-2.4
1839,-1.73
1851,-1.42
1863,-1.37
1875,-1.4
1886,-1.35
1897,-1.14
1909,-0.82
1921,-0.51
1933,-0.29
1945,-0.18
1957,-0.17
1969,-0.26
1981,-0.52
1993,-1.01
2005,-1.78
2017,-2.71
2029,-3.57
2041,-4.12
2053,-4.25
2065,-4.03
2076,-3.71
2087,-3.55
2099,-3.63
2111,-3.84
2123,-3.94
2135,-3.74
2147,-3.21
2159,-2.48
2171,-1.71
2183,-0.97
2195,-0.25
2207,0.54
2219,1.36
2231,2.06
2243,2.46
2255,2.43
2266,2.05
2277,1.54
2289,1.13
2301,0.94
2313,0.93
2325,0.94
2337,0.83
2349,0.59
2361,0.22
2373,-0.25
2385,-0.85
2397,-1.65
2409,-2.67
2421,-3.81
2433,-4.87
2445,-5.6
2456,-5.85
2467,-5.58
2479,-4.92
2491,-4.11
2503,-3.33
2515,-2.72
2527,-2.26
2539,-1.87
2551,-1.47
2563,-1.03
2575,-0.6
2587,-0.24
2599,0.05
2611,0.3
2623,0.59
2635,0.98
2646,1.44
2657,1.8
2669,1.94
2681,1.77
2693,1.37
2705,0.96
2717,0.73
2729,0.74
2741,0.85
2753,0.78
2765,0.3
2777,-0.61
2789,-1.75
2801,-2.76
2813,-3.34
2825,-3.35
2836,-2.9
2847,-2.19
2859,-1.44
2871,-0.73
2883,-0.06
2895,0.65
2907,1.43
2919,2.19
2931,2.85
2943,3.31
2955,3.6
2967,3.78
2979,3.94
2991,4.13
3003,4.28
3015,4.33
3026,4.22
3037,3.91
3049,3.47
3061,2.99
3073,2.57
3085,2.23
3097,1.97
3109,1.72
3121,1.39
3133,0.95
3145,0.39
3157,-0.24
3169,-0.87
3181,-1.46
3193,-2.04
3205,-2.59
3216,-3.11
3227,-3.5
3239,-3.66
3251,-3.5
3263,-3.06
3275,-2.53
3287,-2.19
3299,-2.28
3311,-2.89
3323,-3.94
3335,-5.21
3347,-6.46
3359,-7.49
3371,-8.23
3383,-8.69
3395,-8.94
3406,-9.05
3417,-9.09
3429,-9.07
3441,-8.97
3453,-8.78
3465,-8.47
3477,-8.08
3489,-7.73
3501,-7.5
3513,-7.45
3525,-7.51
3537,-7.55
3549,-7.38
3561,-6.87
3573,-6.02
3585,-4.9
3596,-3.68
3607,-2.5
3619,-1.45
3631,-0.55
3643,0.2
3655,0.8
3667,1.18
3679,1.3
3691,1.15
3703,0.85
3715,0.58
3727,0.56
3739,0.89
3751,1.49
3763,2.1
3775,2.4
3786,2.17
3797,1.39
3809,0.3
3821,-0.77
3833,-1.52
3845,-1.85
3857,-1.85
3869,-1.74
3881,-1.71
3893,-1.85
3905,-2.12
3917,-2.36
3929,-2.4
3941,-2.15
3953,-1.59
3965,-0.78
3976,0.15
3987,1.08
3999,1.91
4011,2.63
4023,3.29
4035,3.97
4047,4.72
4059,5.52
4071,6.33
4083,7.02
4095,7.54
4107,7.86
4119,8.05
4131,8.17
4143,8.31
4155,8.54
4166,8.9
4177,9.39
4189,10.0
4201,10.67
4213,11.25
4225,11.64
4237,11.73
4249,11.57
4261,11.27
4273,11.01
4285,10.92
4297,11.0
4309,11.13
4321,11.16
4333,10.98
4345,10.58
4356,9.99
4367,9.27
4379,8.43
4391,7.43
4403,6.23
4415,4.87
4427,3.45
4439,2.13
4451,1.05
4463,0.25
4475,-0.31
4487,-0.74
4499,-1.11
4511,-1.47
4523,-1.82
4535,-2.12
4546,-2.38
4557,-2.65
4569,-2.98
4581,-3.39
4593,-3.89
4605,-4.41
4617,-4.87
4629,-5.22
4641,-5.42
4653,-5.45
4665,-5.31
4677,-4.95
4689,-4.38
4701,-3.6
4713,-2.68
4725,-1.75
4736,-0.92
4747,-0.31
4759,0.04
4771,0.12
4783,-0.0
4795,-0.24
4807,-0.52
4819,-0.78
4831,-0.96
4843,-1.07
4855,-1.1
4867,-1.1
4879,-1.09
4891,-1.15
4903,-1.32
4915,-1.61
4926,-1.99
4937,-2.38
4949,-2.67
4961,-2.8
4973,-2.78
4985,-2.68
4997,-2.62
5009,-2.65
5021,-2.72
5033,-2.72
5045,-2.51
5057,-2.06
5069,-1.37
5081,-0.53
5093,0.36
5105,1.22
5116,2.01
5127,2.7
5139,3.23
5151,3.55
5163,3.65
5175,3.55
5187,3.27
5199,2.85
5211,2.34
5223,1.79
5235,1.28
5247,0.89
5259,0.69
5271,0.69
5283,0.78
5295,0.83
5306,0.69
5317,0.29
5329,-0.36
5341,-1.16
5353,-1.99
5365,-2.73
5377,-3.26
5389,-3.49
5401,-3.38
5413,-2.9
5425,-2.1
5437,-1.05
5449,0.14
5461,1.38
5473,2.57
5485,3.6
5496,4.43
5507,5.0
5519,5.34
5531,5.54
5543,5.62
5555,5.61
5567,5.5
5579,5.26
5591,4.97
5603,4.69
5615,4.52
5627,4.42
5639,4.26
5651,3.85
5663,3.03
5675,1.78
5686,0.26
5697,-1.26
5709,-2.55
5721,-3.41
5733,-3.81
5745,-3.75
5757,-3.31
5769,-2.57
5781,-1.64
5793,-0.64
5805,0.28
5817,1.01
5829,1.53
5841,1.83
5853,1.97
5865,1.99
5876,1.92
5887,1.76
5899,1.48
5911,1.09
5923,0.59
5935,0.0
5947,-0.64
5959,-1.28
5971,-1.89
5983,-2.46
5995,-3.05
6007,-3.72
6019,-4.55
6031,-5.55
6043,-6.65
6055,-7.68
6066,-8.45
6077,-8.86
6089,-8.9
6101,-8.71
6113,-8.48
6125,-8.36
6137,-8.39
6149,-8.5
6161,-8.55
6173,-8.44
6185,-8.12
6197,-7.61
6209,-6.98
6221,-6.29
6233,-5.62
6245,-4.97
6256,-4.4
6267,-3.89
6279,-3.48
6291,-3.18
6303,-3.02
6315,-2.96
6327,-2.93
6339,-2.81
6351,-2.49
6363,-1.94
6375,-1.24
6387,-0.56
6399,-0.09
6411,0.08
6423,-0.06
6435,-0.35
6446,-0.61
6457,-0.71
6469,-0.58
6481,-0.29
6493,0.05
6505,0.37
6517,0.65
6529,0.96
6541,1.39
6553,2.03
6565,2.91
6577,3.95
6589,5.03
6601,6.03
6613,6.83
6625,7.42
6636,7.83
6647,8.16
6659,8.45
6671,8.69
6683,8.78
6695,8.58
6707,8.03
6719,7.21
6731,6.29
6743,5.46
6755,4.84
6767,4.42
6779,4.06
6791,3.61
6803,3.03
6815,2.36
6826,1.76
6837,1.32
6849,1.07
6861,0.92
6873,0.79
6885,0.6
6897,0.37
6909,0.16
6921,0.03
6933,0.07
6945,0.29
6957,0.69
6969,1.23
6981,1.85
6993,2.47
7005,3.05
7016,3.6
7027,4.14
7039,4.76
7051,5.48
7063,6.27
7075,7.06
7087,7.73
7099,8.19
7111,8.41
7123,8.42
7135,8.33
7147,8.24
7159,8.2
7171,8.17
7183,8.08
7195,7.82
7206,7.41
7217,6.89
7229,6.37
7241,5.95
7253,5.67
7265,5.57
7277,5.66
7289,6.0
7301,6.58
7313,7.35
7325,8.12
7337,8.67
7349,8.84
7361,8.57
7373,8.01
7385,7.38
7396,6.84
7407,6.38
7419,5.86
7431,5.06
7443,3.84
7455,2.19
7467,0.27
7479,-1.66
7491,-3.38
7503,-4.78
7515,-5.88
7527,-6.81
7539,-7.7
7551,-8.57
7563,-9.37
7575,-9.98
7586,-10.32
7597,-10.41
7609,-10.33
7621,-10.21
7633,-10.17
7645,-10.25
7657,-10.44
7669,-10.64
7681,-10.8
7693,-10.86
7705,-10.76
7717,-10.47
7729,-9.94
7741,-9.17
7753,-8.16
7765,-7.0
7776,-5.76
7787,-4.53
7799,-3.45
7811,-2.6
7823,-2.05
7835,-1.8
7847,-1.78
7859,-1.87
7871,-1.97
7883,-2.02
7895,-2.04
7907,-2.1
7919,-2.22
7931,-2.4
7943,-2.54
7955,-2.58
7966,-2.49
7977,-2.32
7989,-2.18
8001,-2.15
8013,-2.24
8025,-2.37
8037,-2.41
8049,-2.25
8061,-1.88
8073,-1.34
8085,-0.72
8097,-0.08
8109,0.55
8121,1.14
8133,1.68
8145,2.15
8156,2.52
8167,2.76
8179,2.85
8191,2.78
8203,2.51
8215,2.01
8227,1.29
8239,0.41
8251,-0.51
8263,-1.28
8275,-1.78
8287,-2.0
8299,-2.03
8311,-2.06
8323,-2.23
8335,-2.57
8346,-2.98
8357,-3.33
8369,-3.53
8381,-3.67
8393,-3.9
8405,-4.39
8417,-5.14
8429,-5.93
8441,-6.45
8453,-6.44
8465,-5.87
8477,-4.91
8489,-3.91
8501,-3.13
8513,-2.68
8525,-2.49
8536,-2.41
8547,-2.29
8559,-2.1
8571,-1.89
8583,-1.75
8595,-1.71
8607,-1.7
8619,-1.61
8631,-1.32
8643,-0.76
8655,0.03
8667,0.89
8679,1.64
8691,2.09
8703,2.18
8715,1.93
8726,1.48
8737,0.96
8749,0.49
8761,0.13
8773,-0.11
8785,-0.21
8797,-0.19
8809,-0.05
8821,0.19
8833,0.47
8845,0.7
8857,0.81
8869,0.73
8881,0.45
8893,0.01
8905,-0.49
8916,-0.95
8927,-1.23
8939,-1.28
8951,-1.09
8963,-0.73
8975,-0.32
8987,0.06
8999,0.35
9011,0.56
9023,0.72
9035,0.81
9047,0.81
9059,0.7
9071,0.46
9083,0.14
9095,-0.22
9106,-0.54
9117,-0.78
9129,-0.92
9141,-0.99
9153,-1.05
9165,-1.21
9177,-1.58
9189,-2.2
9201,-3.0
9213,-3.82
9225,-4.43
9237,-4.69
9249,-4.56
9261,-4.16
9273,-3.7
9285,-3.33
9296,-3.07
9307,-2.84
9319,-2.53
9331,-2.11
9343,-1.64
9355,-1.25
9367,-1.01
9379,-0.88
9391,-0.73
9403,-0.38
9415,0.21
9427,0.96
9439,1.66
9451,2.11
9463,2.18
9475,1.91
9486,1.46
9497,1.01
9509,0.68
9521,0.52
9533,0.5
9545,0.51
9557,0.47
9569,0.31
9581,-0.03
9593,-0.52
9605,-1.1
9617,-1.66
9629,-2.09
9641,-2.31
9653,-2.31
9665,-2.13
9676,-1.86
9687,-1.6
9699,-1.35
9711,-1.14
9723,-0.94
9735,-0.73
9747,-0.51
9759,-0.28
9771,-0.05
9783,0.13
9795,0.19
9807,0.07
9819,-0.24
9831,-0.7
9843,-1.22
9855,-1.7
9866,-2.07
9877,-2.33
9889,-2.51
9901,-2.62
9913,-2.71
9925,-2.77
9937,-2.81
9949,-2.83
9961,-2.88
9973,-2.97
9985,-3.11
9997,-3.24
10009,-3.3
10021,-3.22
10033,-2.93
10045,-2.44
10056,-1.82
10067,-1.15
10079,-0.53
10091,-0.05
10103,0.28
10115,0.44
10127,0.48
10139,0.44
10151,0.39
10163,0.4
10175,0.53
10187,0.81
10199,1.24
10211,1.74
10223,2.23
10235,2.6
10246,2.83
10257,2.93
10269,2.99
10281,3.09
10293,3.3
10305,3.56
10317,3.79
10329,3.91
10341,3.89
10353,3.78
10365,3.68
10377,3.62
10389,3.59
10401,3.5
10413,3.31
10425,3.06
10436,2.9
10447,2.99
10459,3.42
10471,4.13
10483,4.95
10495,5.68
10507,6.18
10519,6.46
10531,6.59
10543,6.64
10555,6.66
10567,6.64
10579,6.57
10591,6.43
10603,6.23
10615,5.99
10626,5.73
10637,5.43
10649,5.07
10661,4.56
10673,3.84
10685,2.91
10697,1.82
10709,0.72
10721,-0.23
10733,-0.96
10745,-1.5
10757,-1.94
10769,-2.39
10781,-2.84
10793,-3.15
10805,-3.18
10816,-2.84
10827,-2.23
10839,-1.57
10851,-1.07
10863,-0.8
10875,-0.66
10887,-0.47
10899,-0.12
10911,0.33
10923,0.72
10935,0.89
10947,0.83
10959,0.67
10971,0.64
10983,0.85
10995,1.27
11006,1.75
11017,2.08
11029,2.17
11041,1.98
11053,1.57
11065,1.01
11077,0.31
11089,-0.51
11101,-1.41
11113,-2.26
11125,-2.93
11137,-3.3
11149,-3.36
11161,-3.17
11173,-2.85
11185,-2.52
11196,-2.23
11207,-1.98
11219,-1.71
11231,-1.37
11243,-0.91
11255,-0.32
11267,0.4
11279,1.17
11291,1.95
11303,2.59
11315,2.95
11327,2.9
11339,2.4
11351,1.53
11363,0.5
11375,-0.41
11386,-0.93
11397,-0.92
11409,-0.4
11421,0.44
11433,1.25
11445,1.72
11457,1.6
11469,0.85
11481,-0.38
11493,-1.79
11505,-3.01
11517,-3.75
11529,-3.89
11541,-3.48
11553,-2.74
11565,-1.89
11576,-1.1
11587,-0.43
11599,0.16
11611,0.69
11623,1.13
11635,1.44
11647,1.55
11659,1.46
11671,1.24
11683,0.96
11695,0.66
11707,0.28
11719,-0.28
11731,-1.07
11743,-2.09
11755,-3.22
11766,-4.28
11777,-5.13
11789,-5.67
11801,-5.89
11813,-5.88
11825,-5.71
11837,-5.52
11849,-5.43
11861,-5.51
11873,-5.78
11885,-6.16
11897,-6.55
11909,-6.84
11921,-6.96
11933,-6.9
11945,-6.65
11956,-6.23
11967,-5.64
11979,-4.9
11991,-4.03
12003,-3.04
12015,-1.96
12027,-0.83
12039,0.3
12051,1.34
12063,2.21
12075,2.85
12087,3.3
12099,3.61
12111,3.82
12123,3.94
12135,3.95
12146,3.81
12157,3.56
12169,3.31
12181,3.2
12193,3.32
12205,3.61
12217,3.9
12229,4.01
12241,3.9
12253,3.62
12265,3.36
12277,3.31
12289,3.56
12301,4.09
12313,4.8
12325,5.53
12336,6.15
12347,6.59
12359,6.86
12371,7.0
12383,7.12
12395,7.28
12407,7.52
12419,7.8
12431,8.01
12443,8.06
12455,7.85
12467,7.42
12479,6.89
12491,6.4
12503,6.05
12515,5.81
12526,5.5
12537,4.94
12549,4.03
12561,2.84
12573,1.58
12585,0.53
12597,-0.18
12609,-0.55
12621,-0.7
12633,-0.82
12645,-1.03
12657,-1.33
12669,-1.7
12681,-2.07
12693,-2.4
12705,-2.66
12716,-2.85
12727,-2.89
12739,-2.75
12751,-2.41
12763,-1.92
12775,-1.37
12787,-0.89
12799,-0.53
12811,-0.29
12823,-0.13
12835,-0.02
12847,0.1
12859,0.21
12871,0.31
12883,0.38
12895,0.38
12906,0.32
12917,0.19
12929,-0.01
12941,-0.25
12953,-0.51
12965,-0.74
12977,-0.9
12989,-0.96
13001,-0.96
13013,-0.95
13025,-1.01
13037,-1.15
13049,-1.34
13061,-1.51
13073,-1.59
13085,-1.49
13096,-1.24
13107,-0.87
13119,-0.47
13131,-0.09
13143,0.21
13155,0.41
13167,0.49
13179,0.46
13191,0.31
13203,0.06
13215,-0.27
13227,-0.65
13239,-1.02
13251,-1.35
13263,-1.61
13275,-1.79
13286,-1.92
13297,-2.02
13309,-2.14
13321,-2.35
13333,-2.69
13345,-3.16
13357,-3.71
13369,-4.24
13381,-4.65
13393,-4.87
13405,-4.91
13417,-4.82
13429,-4.66
13441,-4.43
13453,-4.14
13465,-3.71
13476,-3.14
13487,-2.45
13499,-1.75
13511,-1.11
13523,-0.65
13535,-0.38
13547,-0.3
13559,-0.33
13571,-0.39
13583,-0.38
13595,-0.27
13607,-0.09
13619,0.03
13631,-0.06
13643,-0.5
13655,-1.29
13666,-2.31
13677,-3.34
13689,-4.18
13701,-4.73
13713,-4.98
13725,-4.99
13737,-4.81
13749,-4.45
13761,-3.9
13773,-3.19
13785,-2.38
13797,-1.61
13809,-1.0
13821,-0.61
13833,-0.42
13845,-0.36
13856,-0.34
13867,-0.25
13879,-0.05
13891,0.29
13903,0.73
13915,1.21
13927,1.63
13939,1.89
13951,1.94
13963,1.81
13975,1.55
13987,1.27
13999,1.01
14011,0.73
14023,0.37
14035,-0.19
14046,-0.96
14057,-1.86
14069,-2.74
14081,-3.43
14093,-3.8
14105,-3.85
14117,-3.68
14129,-3.43
14141,-3.23
14153,-3.12
14165,-3.03
14177,-2.85
14189,-2.52
14201,-2.09
14213,-1.68
14225,-1.48
14236,-1.53
14247,-1.77
14259,-2.05
14271,-2.21
14283,-2.25
14295,-2.28
14307,-2.47
14319,-2.9
14331,-3.49
14343,-4.06
14355,-4.44
14367,-4.59
14379,-4.65
14391,-4.8
14403,-5.16
14415,-5.69
14426,-6.22
14437,-6.52
14449,-6.48
14461,-6.1
14473,-5.45
14485,-4.67
14497,-3.81
14509,-2.88
14521,-1.84
14533,-0.72
14545,0.4
14557,1.4
14569,2.19
14581,2.73
14593,3.12
14605,3.5
14616,4.0
14627,4.71
14639,5.57
14651,6.46
14663,7.19
14675,7.62
14687,7.72
14699,7.56
14711,7.3
14723,7.06
14735,6.91
14747,6.85
14759,6.84
14771,6.89
14783,7.01
14795,7.25
14806,7.59
14817,7.96
14829,8.28
14841,8.47
14853,8.52
14865,8.49
14877,8.46
14889,8.46
14901,8.5
14913,8.53
14925,8.51
14937,8.42
14949,8.24
14961,7.98
14973,7.58
14985,7.01
14996,6.26
15007,5.38
15019,4.47
15031,3.66
15043,3.06
15055,2.63
15067,2.31
15079,1.9
15091,1.25
15103,0.3
15115,-0.85
15127,-2.01
15139,-2.96
15151,-3.55
15163,-3.8
15175,-3.79
15186,-3.63
15197,-3.35
15209,-2.9
15221,-2.21
15233,-1.24
15245,-0.07
15257,1.15
15269,2.23
15281,3.06
15293,3.57
15305,3.8
15317,3.8
15329,3.59
15341,3.19
15353,2.64
15365,1.99
15376,1.36
15387,0.87
15399,0.61
15411,0.58
15423,0.7
15435,0.79
15447,0.67
15459,0.2
15471,-0.66
15483,-1.84
15495,-3.14
15507,-4.35
15519,-5.26
15531,-5.78
15543,-5.9
15555,-5.75
15566,-5.47
15577,-5.2
15589,-4.98
15601,-4.78
15613,-4.47
15625,-3.97
15637,-3.27
15649,-2.5
15661,-1.84
15673,-1.45
15685,-1.38
15697,-1.52
15709,-1.69
15721,-1.7
15733,-1.49
15745,-1.13
15756,-0.78
15767,-0.6
15779,-0.66
15791,-0.92
15803,-1.3
15815,-1.7
15827,-2.12
15839,-2.6
15851,-3.24
15863,-4.1
15875,-5.16
15887,-6.31
15899,-7.34
15911,-8.08
15923,-8.43
15935,-8.4
15946,-8.11
15957,-7.67
15969,-7.17
15981,-6.56
15993,-5.76
16005,-4.68
16017,-3.34
16029,-1.9
16041,-0.54
16053,0.53
16065,1.29
16077,1.83
16089,2.31
16101,2.84
16113,3.44
16125,3.97
16136,4.28
16147,4.27
16159,3.98
16171,3.6
16183,3.36
16195,3.44
16207,3.88
16219,4.49
16231,4.96
16243,4.96
16255,4.31
16267,3.1
16279,1.67
16291,0.46
16303,-0.16
16315,-0.05
16326,0.65
16337,1.58
16349,2.39
16361,2.82
16373,2.87
16385,2.73
16397,2.68
16409,2.94
16421,3.62
16433,4.6
16445,5.67
16457,6.57
16469,7.14
16481,7.39
16493,7.42
16505,7.44
16516,7.55
16527,7.77
16539,8.01
16551,8.15
16563,8.13
16575,7.99
16587,7.82
16599,7.7
16611,7.68
16623,7.68
16635,7.55
16647,7.19
16659,6.57
16671,5.79
16683,5.0
16695,4.4
16706,4.05
16717,3.91
16729,3.86
16741,3.79
16753,3.71
16765,3.71
16777,3.94
16789,4.46
16801,5.24
16813,6.07
16825,6.75
16837,7.12
16849,7.19
16861,7.1
16873,7.0
16885,7.02
16896,7.14
16907,7.27
16919,7.25
16931,6.99
16943,6.52
16955,5.94
16967,5.4
16979,4.96
16991,4.58
17003,4.14
17015,3.51
17027,2.65
17039,1.63
17051,0.58
17063,-0.44
17075,-1.45
17086,-2.56
17097,-3.84
17109,-5.31
17121,-6.81
17133,-8.18
17145,-9.27
17157,-10.04
17169,-10.62
17181,-11.12
17193,-11.62
17205,-12.1
17217,-12.47
17229,-12.64
17241,-12.61
17253,-12.45
17265,-12.24
17276,-12.04
17287,-11.79
17299,-11.44
17311,-10.9
17323,-10.16
17335,-9.31
17347,-8.49
17359,-7.83
17371,-7.4
17383,-7.19
17395,-7.09
17407,-7.04
17419,-6.96
17431,-6.88
17443,-6.82
17455,-6.8
17466,-6.8
17477,-6.8
17489,-6.77
17501,-6.71
17513,-6.63
17525,-6.52
17537,-6.32
17549,-5.99
17561,-5.48
17573,-4.84
17585,-4.13
17597,-3.46
17609,-2.89
17621,-2.42
17633,-2.05
17645,-1.73
17656,-1.46
17667,-1.24
17679,-1.04
17691,-0.84
17703,-0.6
17715,-0.3
17727,0.07
17739,0.48
17751,0.91
17763,1.34
17775,1.77
17787,2.14
17799,2.41
17811,2.51
17823,2.39
17835,2.03
17846,1.45
17857,0.66
17869,-0.3
17881,-1.38
17893,-2.49
17905,-3.47
17917,-4.12
17929,-4.25
17941,-3.83
17953,-2.94
17965,-1.81
17977,-0.75
17989,0.04
18001,0.47
18013,0.63
18025,0.72
18036,0.89
18047,1.2
18059,1.58
18071,1.91
18083,2.1
18095,2.16
18107,2.22
18119,2.4
18131,2.73
18143,3.13
18155,3.45
18167,3.49
18179,3.17
18191,2.51
18203,1.7
18215,0.96
18226,0.48
18237,0.35
18249,0.53
18261,0.89
18273,1.27
18285,1.58
18297,1.82
18309,2.1
18321,2.57
18333,3.34
18345,4.45
18357,5.78
18369,7.11
18381,8.19
18393,8.8
18405,8.88
18416,8.47
18427,7.74
18439,6.9
18451,6.18
18463,5.72
18475,5.55
18487,5.66
18499,5.97
18511,6.37
18523,6.76
18535,7.0
18547,6.98
18559,6.65
18571,6.05
18583,5.32
18595,4.68
18606,4.28
18617,4.15
18629,4.17
18641,4.15
18653,3.9
18665,3.36
18677,2.64
18689,1.93
18701,1.43
18713,1.24
18725,1.38
18737,1.74
18749,2.18
18761,2.54
18773,2.72
18785,2.66
18796,2.43
18807,2.14
18819,1.99
18831,2.08
18843,2.43
18855,2.9
18867,3.31
18879,3.52
18891,3.43
18903,3.05
18915,2.43
18927,1.63
18939,0.72
18951,-0.24
18963,-1.15
18975,-1.89
18986,-2.39
18997,-2.64
19009,-2.74
19021,-2.83
19033,-3.05
19045,-3.42
19057,-3.85
19069,-4.17
19081,-4.23
19093,-3.96
19105,-3.42
19117,-2.75
19129,-2.1
19141,-1.58
19153,-1.22
19165,-0.95
19176,-0.7
19187,-0.43
19199,-0.18
19211,-0.04
19223,-0.1
19235,-0.35
19247,-0.74
19259,-1.13
19271,-1.43
19283,-1.61
19295,-1.73
19307,-1.92
19319,-2.27
19331,-2.82
19343,-3.46
19355,-4.05
19366,-4.46
19377,-4.64
19389,-4.7
19401,-4.8
19413,-5.09
19425,-5.58
19437,-6.12
19449,-6.45
19461,-6.35
19473,-5.75
19485,-4.79
19497,-3.75
19509,-2.89
19521,-2.34
19533,-2.1
19545,-2.07
19556,-2.13
19567,-2.25
19579,-2.43
19591,-2.65
19603,-2.91
19615,-3.15
19627,-3.32
19639,-3.44
19651,-3.54
19663,-3.67
19675,-3.85
19687,-4.1
19699,-4.37
19711,-4.64
19723,-4.93
19735,-5.26
19746,-5.7
19757,-6.3
19769,-7.05
19781,-7.86
19793,-8.57
19805,-9.01
19817,-9.02
19829,-8.61
19841,-7.87
19853,-7.01
19865,-6.17
19877,-5.46
19889,-4.84
19901,-4.22
19913,-3.5
19925,-2.67
19936,-1.75
19947,-0.76
19959,0.24
19971,1.22
19983,2.09
19995,2.72
20007,3.02
20019,2.95
20031,2.61
20043,2.18
20055,1.88
20067,1.84
20079,2.12
20091,2.68
20103,3.42
20115,4.22
20126,5.01
20137,5.74
20149,6.37
20161,6.87
20173,7.23
20185,7.49
20197,7.7
20209,7.91
20221,8.11
20233,8.24
20245,8.21
20257,8.01
20269,7.7
20281,7.45
20293,7.37
20305,7.5
20316,7.71
20327,7.81
20339,7.66
20351,7.25
20363,6.72
20375,6.23
20387,5.87
20399,5.57
20411,5.2
20423,4.64
20435,3.93
20447,3.2
20459,2.62
20471,2.23
20483,1.97
20495,1.7
20506,1.29
20517,0.72
20529,0.07
20541,-0.54
20553,-1.0
20565,-1.24
20577,-1.26
20589,-1.09
20601,-0.79
20613,-0.45
20625,-0.14
20637,0.09
20649,0.21
20661,0.24
20673,0.2
20685,0.13
20696,0.06
20707,0.01
20719,-0.01
20731,-0.02
20743,-0.07
20755,-0.18
20767,-0.37
20779,-0.59
20791,-0.8
20803,-0.96
20815,-1.11
20827,-1.35
20839,-1.79
20851,-2.47
20863,-3.35
20875,-4.31
20886,-5.15
20897,-5.72
20909,-5.88
20921,-5.57
20933,-4.83
20945,-3.82
20957,-2.79
20969,-2.01
20981,-1.63
20993,-1.64
