seconds,BVP
9,-0.41
21,0.6
33,1.23
45,1.36
57,1.04
69,0.48
81,-0.05
93,-0.36
105,-0.42
116,-0.31
127,-0.2
139,-0.15
151,-0.15
163,-0.09
175,0.07
187,0.28
199,0.4
211,0.34
223,0.11
235,-0.13
247,-0.19
259,0.05
271,0.58
283,1.25
295,1.83
306,2.14
317,2.1
329,1.78
341,1.3
353,0.87
365,0.67
377,0.82
389,1.31
401,2.05
413,2.87
425,3.57
437,4.04
449,4.25
461,4.23
473,4.06
485,3.8
496,3.51
507,3.25
519,3.02
531,2.87
543,2.75
555,2.63
567,2.52
579,2.42
591,2.39
603,2.48
615,2.64
627,2.76
639,2.71
651,2.42
663,1.91
675,1.32
686,0.79
697,0.46
709,0.37
721,0.53
733,0.89
745,1.38
757,1.93
769,2.43
781,2.79
793,2.93
805,2.84
817,2.56
829,2.16
841,1.69
853,1.22
865,0.8
876,0.48
887,0.32
899,0.32
911,0.43
923,0.54
935,0.54
947,0.38
959,0.08
971,-0.27
983,-0.57
995,-0.75
1007,-0.79
1019,-0.72
1031,-0.64
1043,-0.62
1055,-0.69
1066,-0.85
1077,-1.0
1089,-1.01
1101,-0.78
1113,-0.29
1125,0.42
1137,1.25
1149,2.08
1161,2.83
1173,3.48
1185,4.05
1197,4.57
1209,5.08
1221,5.61
1233,6.19
1245,6.8
1256,7.39
1267,7.89
1279,8.16
1291,8.12
1303,7.74
1315,7.08
1327,6.33
1339,5.68
1351,5.27
1363,5.11
1375,5.08
1387,5.01
1399,4.79
1411,4.4
1423,3.94
1435,3.54
1446,3.3
1457,3.21
1469,3.19
1481,3.09
1493,2.8
1505,2.29
1517,1.58
1529,0.78
1541,0.02
1553,-0.6
1565,-1.03
1577,-1.29
1589,-1.46
1601,-1.61
1613,-1.75
1625,-1.86
1636,-1.93
1647,-1.96
1659,-2.02
1671,-2.2
1683,-2.47
1695,-2.74
1707,-2.82
1719,-2.57
1731,-2.02
1743,-1.32
1755,-0.75
1767,-0.49
1779,-0.61
1791,-0.97
1803,-1.34
1815,-1.47
1826,-1.2
1837,-0.56
1849,0.32
1861,1.23
1873,1.98
1885,2.49
1897,2.82
1909,3.06
1921,3.26
1933,3.42
1945,3.46
1957,3.33
1969,3.06
1981,2.79
1993,2.71
2005,2.92
2016,3.4
2027,3.97
2039,4.44
2051,4.62
2063,4.48
2075,4.07
2087,3.55
2099,3.01
2111,2.57
2123,2.29
2135,2.22
2147,2.4
2159,2.81
2171,3.38
2183,3.94
2195,4.3
2206,4.29
2217,3.8
2229,2.86
2241,1.64
2253,0.3
2265,-0.94
2277,-1.98
2289,-2.79
2301,-3.39
2313,-3.82
2325,-4.09
2337,-4.2
2349,-4.16
2361,-4.0
2373,-3.75
2385,-3.47
2396,-3.23
2407,-3.07
2419,-3.01
2431,-3.09
2443,-3.3
2455,-3.65
2467,-4.11
2479,-4.61
2491,-5.02
2503,-5.21
2515,-5.07
2527,-4.6
2539,-3.9
2551,-3.15
2563,-2.52
2575,-2.12
2586,-1.97
2597,-2.05
2609,-2.32
2621,-2.74
2633,-3.29
2645,-3.89
2657,-4.4
2669,-4.64
2681,-4.46
2693,-3.83
2705,-2.89
2717,-1.89
2729,-1.08
2741,-0.65
2753,-0.65
2765,-1.02
2776,-1.6
2787,-2.23
2799,-2.78
2811,-3.14
2823,-3.26
2835,-3.11
2847,-2.74
2859,-2.23
2871,-1.73
2883,-1.36
2895,-1.24
2907,-1.38
2919,-1.71
2931,-2.09
2943,-2.39
2955,-2.49
2966,-2.35
2977,-2.0
2989,-1.5
3001,-0.94
3013,-0.39
3025,0.1
3037,0.51
3049,0.82
3061,1.0
3073,1.07
3085,1.02
3097,0.89
3109,0.71
3121,0.49
3133,0.27
3145,0.1
3156,0.07
3167,0.27
3179,0.71
3191,1.26
3203,1.71
3215,1.78
3227,1.34
3239,0.46
3251,-0.57
3263,-1.37
3275,-1.68
3287,-1.47
3299,-0.94
3311,-0.43
3323,-0.15
3335,-0.17
3346,-0.36
3357,-0.52
3369,-0.57
3381,-0.51
3393,-0.43
3405,-0.43
3417,-0.52
3429,-0.64
3441,-0.71
3453,-0.68
3465,-0.54
3477,-0.33
3489,-0.08
3501,0.19
3513,0.45
3525,0.65
3536,0.73
3547,0.64
3559,0.41
3571,0.13
3583,-0.06
3595,-0.04
3607,0.16
3619,0.44
3631,0.59
3643,0.49
3655,0.14
3667,-0.3
3679,-0.62
3691,-0.64
3703,-0.34
3715,0.19
3726,0.8
3737,1.35
3749,1.75
3761,1.99
3773,2.06
3785,2.04
3797,2.02
3809,2.16
3821,2.56
3833,3.25
3845,4.06
3857,4.75
3869,5.09
3881,5.0
3893,4.59
3905,4.1
3916,3.77
3927,3.65
3939,3.69
3951,3.79
3963,3.88
3975,4.01
3987,4.28
3999,4.69
4011,5.12
4023,5.36
4035,5.24
4047,4.77
4059,4.11
4071,3.52
4083,3.17
4095,3.1
4106,3.14
4117,3.08
4129,2.77
4141,2.21
4153,1.5
4165,0.74
4177,0.01
4189,-0.7
4201,-1.38
4213,-1.99
4225,-2.44
4237,-2.6
4249,-2.44
4261,-2.05
4273,-1.61
4285,-1.33
4296,-1.35
4307,-1.68
4319,-2.19
4331,-2.75
4343,-3.2
4355,-3.49
4367,-3.61
4379,-3.61
4391,-3.51
4403,-3.32
4415,-3.04
4427,-2.7
4439,-2.35
4451,-2.1
4463,-2.07
4475,-2.29
4486,-2.74
4497,-3.26
4509,-3.68
4521,-3.82
4533,-3.61
4545,-3.1
4557,-2.43
4569,-1.81
4581,-1.45
4593,-1.43
4605,-1.66
4617,-1.97
4629,-2.09
4641,-1.88
4653,-1.28
4665,-0.44
4676,0.43
4687,1.11
4699,1.45
4711,1.42
4723,1.11
4735,0.7
4747,0.35
4759,0.23
4771,0.36
4783,0.72
4795,1.14
4807,1.46
4819,1.54
4831,1.35
4843,0.99
4855,0.6
4866,0.32
4877,0.2
4889,0.18
4901,0.17
4913,0.1
4925,-0.02
4937,-0.09
4949,-0.05
4961,0.14
4973,0.41
4985,0.64
4997,0.75
5009,0.72
5021,0.57
5033,0.38
5045,0.16
5056,-0.14
5067,-0.52
5079,-0.95
5091,-1.35
5103,-1.57
5115,-1.53
5127,-1.26
5139,-0.89
5151,-0.59
5163,-0.49
5175,-0.62
5187,-0.88
5199,-1.14
5211,-1.29
5223,-1.3
5235,-1.23
5246,-1.14
5257,-1.08
5269,-1.01
5281,-0.92
5293,-0.76
5305,-0.55
5317,-0.35
5329,-0.21
5341,-0.13
5353,-0.07
5365,0.03
5377,0.24
5389,0.53
5401,0.84
5413,1.08
5425,1.15
5436,1.05
5447,0.83
5459,0.6
5471,0.49
5483,0.58
5495,0.84
5507,1.12
5519,1.26
5531,1.12
5543,0.74
5555,0.28
5567,-0.01
5579,0.0
5591,0.31
5603,0.69
5615,0.9
5626,0.76
5637,0.31
5649,-0.28
5661,-0.75
5673,-0.99
5685,-1.03
5697,-1.04
5709,-1.17
5721,-1.48
5733,-1.87
5745,-2.16
5757,-2.21
5769,-1.98
5781,-1.53
5793,-0.99
5805,-0.47
5816,0.0
5827,0.4
5839,0.68
5851,0.8
5863,0.71
5875,0.41
5887,-0.04
5899,-0.5
5911,-0.88
5923,-1.11
5935,-1.19
5947,-1.12
5959,-0.93
5971,-0.65
5983,-0.31
5995,0.07
6006,0.45
6017,0.82
6029,1.18
6041,1.52
6053,1.84
6065,2.09
6077,2.24
6089,2.29
6101,2.35
6113,2.51
6125,2.87
6137,3.4
6149,4.0
6161,4.49
6173,4.74
6185,4.72
6196,4.49
6207,4.22
6219,4.02
6231,3.93
6243,3.88
6255,3.72
6267,3.35
6279,2.77
6291,2.12
6303,1.63
6315,1.51
6327,1.85
6339,2.59
6351,3.57
6363,4.62
6375,5.69
6386,6.81
6397,8.06
6409,9.52
6421,11.2
6433,13.06
6445,15.05
6457,17.14
6469,19.33
6481,21.67
6493,24.16
6505,26.8
6517,29.58
6529,32.48
6541,35.45
6553,38.44
6565,41.41
6576,44.38
6587,47.46
6599,50.87
6611,54.85
6623,59.51
6635,64.78
6647,70.35
6659,75.78
6671,80.54
6683,84.11
6695,86.03
6707,85.94
6719,83.62
6731,78.95
6743,71.92
6755,62.56
6766,50.96
6777,37.26
6789,21.79
6801,5.09
6813,-12.14
6825,-29.07
6837,-44.81
6849,-58.54
6861,-69.54
6873,-77.34
6885,-81.83
6897,-83.36
6909,-82.65
6921,-80.62
6933,-78.01
6945,-75.14
6956,-71.83
6967,-67.61
6979,-62.02
6991,-55.01
7003,-46.89
7015,-38.23
7027,-29.58
7039,-21.35
7051,-13.81
7063,-7.23
7075,-2.04
7087,1.32
7099,2.51
7111,1.64
7123,-0.65
7135,-3.3
7146,-5.24
7157,-5.81
7169,-5.05
7181,-3.6
7193,-2.33
7205,-1.83
7217,-2.18
7229,-2.84
7241,-3.06
7253,-2.21
7265,-0.11
7277,2.99
7289,6.57
7301,10.14
7313,13.36
7325,15.99
7336,17.77
7347,18.29
7359,17.14
7371,14.05
7383,9.19
7395,3.22
7407,-2.92
7419,-8.38
7431,-12.74
7443,-16.12
7455,-19.03
7467,-21.99
7479,-25.26
7491,-28.73
7503,-32.02
7515,-34.83
7526,-37.15
7537,-39.29
7549,-41.78
7561,-45.08
7573,-49.37
7585,-54.45
7597,-59.87
7609,-65.03
7621,-69.35
7633,-72.38
7645,-73.74
7657,-73.16
7669,-70.53
7681,-65.93
7693,-59.74
7705,-52.56
7716,-45.12
7727,-38.1
7739,-31.9
7751,-26.62
7763,-22.03
7775,-17.81
7787,-13.64
7799,-9.36
7811,-5.01
7823,-0.78
7835,3.09
7847,6.36
7859,8.85
7871,10.51
7883,11.35
7895,11.48
7906,11.09
7917,10.37
7929,9.55
7941,8.82
7953,8.26
7965,7.89
7977,7.61
7989,7.33
8001,6.96
8013,6.49
8025,5.91
8037,5.28
8049,4.64
8061,4.05
8073,3.56
8085,3.24
8096,3.15
8107,3.31
8119,3.65
8131,4.07
8143,4.41
8155,4.58
8167,4.55
8179,4.39
8191,4.16
8203,3.91
8215,3.53
8227,2.87
8239,1.79
8251,0.33
8263,-1.33
8275,-2.84
8286,-3.92
8297,-4.45
8309,-4.52
8321,-4.37
8333,-4.24
8345,-4.21
8357,-4.27
8369,-4.3
8381,-4.24
8393,-4.16
8405,-4.17
8417,-4.39
8429,-4.82
8441,-5.32
8453,-5.7
8465,-5.82
8476,-5.62
8487,-5.16
8499,-4.55
8511,-3.9
8523,-3.22
8535,-2.51
8547,-1.73
8559,-0.88
8571,-0.05
8583,0.64
8595,1.05
8607,1.12
8619,0.94
8631,0.66
8643,0.46
8655,0.45
8666,0.61
8677,0.84
8689,1.03
8701,1.15
8713,1.23
8725,1.36
8737,1.62
8749,2.0
8761,2.43
8773,2.82
8785,3.1
8797,3.25
8809,3.28
8821,3.21
8833,3.09
8845,2.98
8856,2.96
8867,3.08
8879,3.34
8891,3.62
8903,3.79
8915,3.75
8927,3.49
8939,3.07
8951,2.59
8963,2.09
8975,1.61
8987,1.11
8999,0.62
9011,0.22
9023,0.02
9035,0.12
9046,0.55
9057,1.26
9069,2.14
9081,3.02
9093,3.79
9105,4.37
9117,4.77
9129,4.99
9141,5.05
9153,4.97
9165,4.74
9177,4.33
9189,3.8
9201,3.22
9213,2.72
9225,2.44
9236,2.4
9247,2.58
9259,2.87
9271,3.15
9283,3.35
9295,3.44
9307,3.4
9319,3.25
9331,2.99
9343,2.63
9355,2.22
9367,1.85
9379,1.6
9391,1.56
9403,1.77
9415,2.2
9426,2.77
9437,3.34
9449,3.85
9461,4.28
9473,4.68
9485,5.15
9497,5.7
9509,6.26
9521,6.7
9533,6.88
9545,6.73
9557,6.3
9569,5.71
9581,5.09
9593,4.49
9605,3.89
9616,3.25
9627,2.53
9639,1.74
9651,0.98
9663,0.34
9675,-0.14
9687,-0.42
9699,-0.53
9711,-0.53
9723,-0.44
9735,-0.29
9747,-0.06
9759,0.25
9771,0.63
9783,1.04
9795,1.41
9806,1.66
9817,1.71
9829,1.56
9841,1.22
9853,0.82
9865,0.45
9877,0.21
9889,0.16
9901,0.31
9913,0.61
9925,0.97
9937,1.28
9949,1.45
9961,1.47
9973,1.35
9985,1.18
9996,1.02
10007,0.86
10019,0.66
10031,0.33
10043,-0.12
10055,-0.58
10067,-0.88
10079,-0.87
10091,-0.49
10103,0.24
10115,1.22
10127,2.37
10139,3.63
10151,4.95
10163,6.25
10175,7.4
10186,8.25
10197,8.73
10209,8.86
10221,8.76
10233,8.59
10245,8.43
10257,8.35
10269,8.31
10281,8.32
10293,8.4
10305,8.6
10317,8.91
10329,9.28
10341,9.59
10353,9.7
10365,9.54
10376,9.13
10387,8.6
10399,8.13
10411,7.81
10423,7.66
10435,7.6
10447,7.57
10459,7.5
10471,7.44
10483,7.46
10495,7.61
10507,7.83
10519,8.0
10531,7.97
10543,7.62
10555,6.98
10566,6.2
10577,5.46
10589,4.92
10601,4.59
10613,4.37
10625,4.1
10637,3.67
10649,3.06
10661,2.3
10673,1.45
10685,0.5
10697,-0.61
10709,-1.97
10721,-3.56
10733,-5.28
10745,-6.9
10756,-8.22
10767,-9.17
10779,-9.79
10791,-10.21
10803,-10.54
10815,-10.78
10827,-10.85
10839,-10.61
10851,-10.04
10863,-9.19
10875,-8.21
10887,-7.26
10899,-6.42
10911,-5.69
10923,-5.01
10935,-4.38
10946,-3.78
10957,-3.22
10969,-2.66
10981,-2.01
10993,-1.18
11005,-0.16
11017,0.96
11029,1.97
11041,2.7
11053,3.04
11065,3.0
11077,2.72
11089,2.39
11101,2.17
11113,2.13
11125,2.29
11136,2.61
11147,3.06
11159,3.62
11171,4.31
11183,5.14
11195,6.04
11207,6.93
11219,7.68
11231,8.2
11243,8.5
11255,8.65
11267,8.78
11279,8.91
11291,8.98
11303,8.81
11315,8.26
11326,7.3
11337,6.06
11349,4.74
11361,3.58
11373,2.67
11385,1.95
11397,1.32
11409,0.64
11421,-0.09
11433,-0.82
11445,-1.42
11457,-1.78
11469,-1.86
11481,-1.73
11493,-1.49
11505,-1.28
11516,-1.17
11527,-1.18
11539,-1.26
11551,-1.31
11563,-1.27
11575,-1.18
11587,-1.12
11599,-1.15
11611,-1.34
11623,-1.61
11635,-1.83
11647,-1.86
11659,-1.69
11671,-1.42
11683,-1.21
11695,-1.2
11706,-1.37
11717,-1.6
11729,-1.69
11741,-1.55
11753,-1.23
11765,-0.89
11777,-0.65
11789,-0.57
11801,-0.53
11813,-0.39
11825,-0.04
11837,0.52
11849,1.23
11861,1.99
11873,2.78
11885,3.62
11896,4.55
11907,5.52
11919,6.49
11931,7.38
11943,8.15
11955,8.8
11967,9.36
11979,9.83
11991,10.19
12003,10.44
12015,10.57
12027,10.62
12039,10.61
12051,10.58
12063,10.49
12075,10.3
12086,9.95
12097,9.36
12109,8.51
12121,7.4
12133,6.13
12145,4.86
12157,3.8
12169,3.1
12181,2.85
12193,2.98
12205,3.31
12217,3.62
12229,3.72
12241,3.52
12253,3.07
12265,2.46
12276,1.87
12287,1.37
12299,1.0
12311,0.71
12323,0.42
12335,0.1
12347,-0.21
12359,-0.45
12371,-0.59
12383,-0.63
12395,-0.66
12407,-0.78
12419,-1.03
12431,-1.35
12443,-1.64
12455,-1.79
12466,-1.74
12477,-1.54
12489,-1.22
12501,-0.81
12513,-0.27
12525,0.4
12537,1.17
12549,1.91
12561,2.46
12573,2.73
12585,2.72
12597,2.56
12609,2.34
12621,2.12
12633,1.85
12645,1.44
12656,0.85
12667,0.11
12679,-0.67
12691,-1.35
12703,-1.87
12715,-2.29
12727,-2.69
12739,-3.17
12751,-3.76
12763,-4.43
12775,-5.08
12787,-5.61
12799,-5.98
12811,-6.21
12823,-6.37
12835,-6.52
12846,-6.71
12857,-6.86
12869,-6.88
12881,-6.65
12893,-6.12
12905,-5.36
12917,-4.51
12929,-3.77
12941,-3.26
12953,-3.04
12965,-3.08
12977,-3.25
12989,-3.4
13001,-3.44
13013,-3.31
13025,-3.04
13036,-2.65
13047,-2.2
13059,-1.73
13071,-1.26
13083,-0.85
13095,-0.52
13107,-0.32
13119,-0.29
13131,-0.43
13143,-0.71
13155,-1.02
13167,-1.2
13179,-1.12
13191,-0.71
13203,-0.03
13215,0.78
13226,1.52
13237,1.98
13249,2.14
13261,2.07
13273,1.92
13285,1.83
13297,1.81
13309,1.75
13321,1.53
13333,1.07
13345,0.39
13357,-0.36
13369,-1.0
13381,-1.4
13393,-1.5
13405,-1.32
13416,-0.98
13427,-0.66
13439,-0.55
13451,-0.79
13463,-1.42
13475,-2.35
13487,-3.3
13499,-3.95
13511,-4.04
13523,-3.47
13535,-2.39
13547,-1.06
13559,0.23
13571,1.28
13583,2.05
13595,2.56
13606,2.87
13617,3.02
13629,3.0
13641,2.85
13653,2.64
13665,2.52
13677,2.59
13689,2.86
13701,3.23
13713,3.53
13725,3.65
13737,3.58
13749,3.44
13761,3.44
13773,3.68
13785,4.19
13796,4.83
13807,5.41
13819,5.8
13831,5.92
13843,5.79
13855,5.49
13867,5.14
13879,4.79
13891,4.49
13903,4.22
13915,3.94
13927,3.64
13939,3.36
13951,3.16
13963,3.1
13975,3.14
13986,3.2
13997,3.14
14009,2.86
14021,2.4
14033,1.89
14045,1.54
14057,1.5
14069,1.81
14081,2.33
14093,2.89
14105,3.29
14117,3.43
14129,3.29
14141,2.9
14153,2.32
14165,1.66
14176,0.99
14187,0.4
14199,-0.03
14211,-0.26
14223,-0.32
14235,-0.29
14247,-0.24
14259,-0.24
14271,-0.35
14283,-0.53
14295,-0.75
14307,-0.94
14319,-1.01
14331,-0.9
14343,-0.61
14355,-0.22
14366,0.16
14377,0.4
14389,0.45
14401,0.37
14413,0.27
14425,0.24
14437,0.29
14449,0.33
14461,0.24
14473,-0.05
14485,-0.5
14497,-1.01
14509,-1.42
14521,-1.64
14533,-1.66
14545,-1.52
14556,-1.29
14567,-1.04
14579,-0.84
14591,-0.74
14603,-0.77
14615,-0.95
14627,-1.24
14639,-1.56
14651,-1.87
14663,-2.16
14675,-2.52
14687,-3.05
14699,-3.78
14711,-4.67
14723,-5.55
14735,-6.26
14746,-6.7
14757,-6.89
14769,-6.97
14781,-7.07
14793,-7.31
14805,-7.65
14817,-7.99
14829,-8.21
14841,-8.22
14853,-8.05
14865,-7.76
14877,-7.46
14889,-7.17
14901,-6.89
14913,-6.6
14925,-6.23
14936,-5.73
14947,-5.05
14959,-4.19
14971,-3.2
14983,-2.22
14995,-1.38
15007,-0.81
15019,-0.56
15031,-0.54
15043,-0.61
15055,-0.59
15067,-0.36
15079,0.09
15091,0.66
15103,1.28
15115,1.85
15126,2.35
15137,2.78
15149,3.14
15161,3.39
15173,3.51
15185,3.5
15197,3.45
15209,3.44
15221,3.58
15233,3.86
15245,4.2
15257,4.43
15269,4.42
15281,4.14
15293,3.66
15305,3.1
15316,2.61
15327,2.24
15339,1.96
15351,1.7
15363,1.36
15375,0.89
15387,0.28
15399,-0.4
15411,-1.08
15423,-1.67
15435,-2.07
15447,-2.26
15459,-2.22
15471,-2.02
15483,-1.71
15495,-1.38
15506,-1.09
15517,-0.96
15529,-1.04
15541,-1.33
15553,-1.77
15565,-2.19
15577,-2.42
15589,-2.32
15601,-1.89
15613,-1.27
15625,-0.66
15637,-0.24
15649,-0.04
15661,0.02
15673,0.1
15685,0.33
15696,0.77
15707,1.35
15719,1.93
15731,2.39
15743,2.65
15755,2.7
15767,2.59
15779,2.41
15791,2.26
15803,2.23
15815,2.3
15827,2.38
15839,2.33
15851,2.03
15863,1.44
15875,0.65
15886,-0.15
15897,-0.75
15909,-1.03
15921,-1.01
15933,-0.85
15945,-0.71
15957,-0.7
15969,-0.8
15981,-0.9
15993,-0.92
16005,-0.89
16017,-0.94
16029,-1.19
16041,-1.64
16053,-2.17
16065,-2.53
16076,-2.53
16087,-2.13
16099,-1.45
16111,-0.74
16123,-0.19
16135,0.11
16147,0.17
16159,0.03
16171,-0.26
16183,-0.67
16195,-1.16
16207,-1.66
16219,-2.04
16231,-2.24
16243,-2.26
16255,-2.15
16266,-2.0
16277,-1.82
16289,-1.6
16301,-1.32
16313,-1.02
16325,-0.75
16337,-0.59
16349,-0.56
16361,-0.59
16373,-0.57
16385,-0.44
16397,-0.19
16409,0.1
16421,0.35
16433,0.49
16445,0.51
16456,0.47
16467,0.4
16479,0.27
16491,0.04
16503,-0.31
16515,-0.72
16527,-1.09
16539,-1.32
16551,-1.33
16563,-1.18
16575,-0.96
16587,-0.8
16599,-0.78
16611,-0.89
16623,-1.05
16635,-1.11
16646,-0.99
16657,-0.64
16669,-0.1
16681,0.51
16693,1.06
16705,1.4
16717,1.4
16729,1.01
16741,0.28
16753,-0.63
16765,-1.45
16777,-1.94
16789,-1.95
16801,-1.54
16813,-0.89
16825,-0.3
16836,0.02
16847,-0.03
16859,-0.36
16871,-0.79
16883,-1.16
16895,-1.44
16907,-1.69
16919,-2.02
16931,-2.5
16943,-3.12
16955,-3.74
16967,-4.24
16979,-4.56
16991,-4.73
17003,-4.84
17015,-5.0
17026,-5.21
17037,-5.42
17049,-5.55
17061,-5.56
17073,-5.5
17085,-5.47
17097,-5.51
17109,-5.58
17121,-5.53
17133,-5.21
17145,-4.54
17157,-3.57
17169,-2.44
17181,-1.3
17193,-0.25
17205,0.68
17216,1.5
17227,2.16
17239,2.58
17251,2.65
17263,2.34
17275,1.77
17287,1.17
17299,0.82
17311,0.89
17323,1.41
17335,2.21
17347,3.07
17359,3.75
17371,4.16
17383,4.32
17395,4.35
17406,4.38
17417,4.5
17429,4.72
17441,4.97
17453,5.11
17465,5.05
17477,4.71
17489,4.17
17501,3.54
17513,3.01
17525,2.73
17537,2.74
17549,2.94
17561,3.16
17573,3.2
17585,2.96
17596,2.48
17607,1.87
17619,1.25
17631,0.69
17643,0.16
17655,-0.4
17667,-1.04
17679,-1.7
17691,-2.23
17703,-2.47
17715,-2.3
17727,-1.78
17739,-1.08
17751,-0.41
17763,0.09
17775,0.44
17786,0.79
17797,1.31
17809,2.06
17821,2.98
17833,3.88
17845,4.6
17857,5.04
17869,5.25
17881,5.38
17893,5.55
17905,5.8
17917,6.08
17929,6.28
17941,6.33
17953,6.2
17965,5.9
17976,5.46
17987,4.9
17999,4.25
18011,3.54
18023,2.84
18035,2.25
18047,1.87
18059,1.8
18071,2.03
18083,2.53
18095,3.16
18107,3.75
18119,4.15
18131,4.27
18143,4.16
18155,3.95
18166,3.82
18177,3.89
18189,4.11
18201,4.3
18213,4.26
18225,3.88
18237,3.22
18249,2.51
18261,2.02
18273,2.0
18285,2.49
18297,3.31
18309,4.19
18321,4.81
18333,5.0
18345,4.81
18356,4.45
18367,4.19
18379,4.22
18391,4.56
18403,5.05
18415,5.47
18427,5.61
18439,5.36
18451,4.71
18463,3.74
18475,2.48
18487,1.0
18499,-0.66
18511,-2.39
18523,-4.0
18535,-5.28
18546,-6.07
18557,-6.37
18569,-6.28
18581,-6.01
18593,-5.77
18605,-5.69
18617,-5.76
18629,-5.88
18641,-5.94
18653,-5.9
18665,-5.82
18677,-5.83
18689,-6.04
18701,-6.37
18713,-6.73
18725,-6.89
18736,-6.74
18747,-6.27
18759,-5.55
18771,-4.68
18783,-3.78
18795,-2.91
18807,-2.12
18819,-1.46
18831,-0.96
18843,-0.63
18855,-0.43
18867,-0.22
18879,0.09
18891,0.54
18903,1.09
18915,1.66
18926,2.12
18937,2.44
18949,2.57
18961,2.5
18973,2.17
18985,1.53
18997,0.56
19009,-0.64
19021,-1.88
19033,-2.93
19045,-3.61
19057,-3.91
19069,-3.92
19081,-3.84
19093,-3.85
19105,-4.0
19116,-4.27
19127,-4.57
19139,-4.8
19151,-4.94
19163,-5.03
19175,-5.1
19187,-5.18
19199,-5.23
19211,-5.19
19223,-5.01
19235,-4.66
19247,-4.14
19259,-3.47
19271,-2.7
19283,-1.82
19295,-0.85
19306,0.2
19317,1.3
19329,2.41
19341,3.49
19353,4.46
19365,5.27
19377,5.86
19389,6.18
19401,6.23
19413,6.03
19425,5.62
19437,5.1
19449,4.53
19461,3.98
19473,3.43
19485,2.86
19496,2.25
19507,1.6
19519,0.97
19531,0.45
19543,0.06
19555,-0.24
19567,-0.53
19579,-0.93
19591,-1.49
19603,-2.18
19615,-2.9
19627,-3.51
19639,-3.93
19651,-4.18
19663,-4.32
19675,-4.42
19686,-4.5
19697,-4.53
19709,-4.46
19721,-4.29
19733,-4.06
19745,-3.88
19757,-3.86
19769,-4.07
19781,-4.5
19793,-5.05
19805,-5.57
19817,-5.92
19829,-6.08
19841,-6.08
19853,-6.04
19865,-6.06
19876,-6.16
19887,-6.29
19899,-6.3
19911,-6.07
19923,-5.56
19935,-4.82
19947,-4.01
19959,-3.26
19971,-2.7
19983,-2.34
19995,-2.14
20007,-2.08
20019,-2.08
20031,-2.09
20043,-2.08
20055,-2.01
20066,-1.87
20077,-1.67
20089,-1.42
20101,-1.12
20113,-0.75
20125,-0.35
20137,-0.02
20149,0.11
20161,-0.08
20173,-0.61
20185,-1.33
20197,-1.95
20209,-2.15
20221,-1.8
20233,-0.96
20245,0.11
20256,1.08
20267,1.71
20279,1.92
20291,1.81
20303,1.58
20315,1.42
20327,1.44
20339,1.68
20351,2.1
20363,2.63
20375,3.18
20387,3.69
20399,4.1
20411,4.37
20423,4.47
20435,4.4
20446,4.2
20457,3.93
20469,3.67
20481,3.47
20493,3.33
20505,3.19
20517,2.92
20529,2.44
20541,1.73
20553,0.9
20565,0.1
20577,-0.55
20589,-1.03
20601,-1.41
20613,-1.83
20625,-2.37
20636,-3.08
20647,-3.88
20659,-4.69
20671,-5.35
20683,-5.74
20695,-5.73
20707,-5.23
20719,-4.26
20731,-2.94
20743,-1.48
20755,-0.17
20767,0.75
20779,1.18
20791,1.15
20803,0.85
20815,0.46
20826,0.18
20837,0.08
20849,0.15
20861,0.29
20873,0.36
20885,0.25
20897,-0.08
20909,-0.59
20921,-1.15
20933,-1.63
20945,-1.92
20957,-1.98
20969,-1.84
20981,-1.6
20993,-1.33
