seconds,BVP
0,7.2
12,5.99
24,4.54
35,2.76
46,0.6
58,-1.98
70,-4.99
82,-8.37
94,-11.96
106,-15.41
118,-18.22
130,-19.84
142,-19.86
154,-18.09
166,-14.65
178,-9.84
190,-4.11
202,2.14
214,8.56
225,14.91
236,20.94
248,26.4
260,31.0
272,34.4
284,36.3
296,36.55
308,35.23
320,32.65
332,29.31
344,25.74
356,22.4
368,19.59
380,17.46
392,15.99
404,15.11
415,14.7
426,14.63
438,14.76
450,15.05
462,15.48
474,16.12
486,17.05
498,18.27
510,19.63
522,20.85
534,21.63
546,21.72
558,21.04
570,19.7
582,17.91
594,15.84
605,13.57
616,11.03
628,8.12
640,4.74
652,0.89
664,-3.34
676,-7.78
688,-12.25
700,-16.52
712,-20.32
724,-23.31
736,-25.11
748,-25.42
760,-24.16
772,-21.54
784,-18.01
795,-14.16
806,-10.5
818,-7.37
830,-4.89
842,-3.02
854,-1.68
866,-0.85
878,-0.53
890,-0.68
902,-1.17
914,-1.73
926,-2.09
938,-2.03
950,-1.49
962,-0.59
974,0.5
985,1.57
996,2.54
1008,3.36
1020,4.04
1032,4.52
1044,4.7
1056,4.49
1068,3.89
1080,3.0
1092,2.03
1104,1.17
1116,0.56
1128,0.2
1140,-0.01
1152,-0.2
1164,-0.48
1175,-0.89
1186,-1.39
1198,-1.94
1210,-2.51
1222,-3.12
1234,-3.81
1246,-4.64
1258,-5.69
1270,-6.98
1282,-8.49
1294,-10.13
1306,-11.74
1318,-13.0
1330,-13.58
1342,-13.14
1354,-11.48
1365,-8.65
1376,-4.97
1388,-0.92
1400,2.98
1412,6.3
1424,8.84
1436,10.55
1448,11.53
1460,11.88
1472,11.75
1484,11.24
1496,10.5
1508,9.74
1520,9.16
1532,8.94
1544,9.13
1555,9.69
1566,10.43
1578,11.16
1590,11.65
1602,11.79
1614,11.56
1626,11.01
1638,10.26
1650,9.39
1662,8.4
1674,7.25
1686,5.89
1698,4.31
1710,2.58
1722,0.92
1734,-0.5
1745,-1.56
1756,-2.34
1768,-3.04
1780,-3.95
1792,-5.29
1804,-7.08
1816,-9.21
1828,-11.46
1840,-13.65
1852,-15.65
1864,-17.38
1876,-18.69
1888,-19.38
1900,-19.19
1912,-17.94
1924,-15.62
1935,-12.48
1946,-8.91
1958,-5.29
1970,-1.94
1982,1.02
1994,3.58
2006,5.69
2018,7.29
2030,8.22
2042,8.44
2054,7.99
2066,7.16
2078,6.29
2090,5.7
2102,5.56
2114,5.8
2125,6.27
2136,6.74
2148,7.11
2160,7.37
2172,7.56
2184,7.73
2196,7.82
2208,7.76
2220,7.5
2232,7.02
2244,6.35
2256,5.54
2268,4.6
2280,3.53
2292,2.36
2304,1.16
2315,0.03
2326,-0.91
2338,-1.62
2350,-2.15
2362,-2.67
2374,-3.33
2386,-4.29
2398,-5.59
2410,-7.15
2422,-8.82
2434,-10.34
2446,-11.4
2458,-11.68
2470,-10.97
2482,-9.18
2494,-6.48
2505,-3.21
2516,0.17
2528,3.2
2540,5.57
2552,7.13
2564,7.95
2576,8.14
2588,7.82
2600,7.09
2612,6.02
2624,4.73
2636,3.4
2648,2.3
2660,1.65
2672,1.58
2684,2.03
2695,2.79
2706,3.55
2718,4.08
2730,4.22
2742,3.97
2754,3.45
2766,2.82
2778,2.2
2790,1.69
2802,1.28
2814,0.97
2826,0.67
2838,0.3
2850,-0.22
2862,-0.92
2874,-1.76
2885,-2.65
2896,-3.49
2908,-4.22
2920,-4.88
2932,-5.59
2944,-6.48
2956,-7.61
2968,-8.9
2980,-10.16
2992,-11.13
3004,-11.59
3016,-11.42
3028,-10.57
3040,-9.02
3052,-6.83
3064,-4.12
3075,-1.09
3086,1.95
3098,4.64
3110,6.71
3122,8.02
3134,8.61
3146,8.69
3158,8.45
3170,8.08
3182,7.63
3194,7.11
3206,6.54
3218,5.96
3230,5.48
3242,5.22
3254,5.25
3265,5.54
3276,5.96
3288,6.37
3300,6.61
3312,6.65
3324,6.48
3336,6.16
3348,5.71
3360,5.07
3372,4.2
3384,3.06
3396,1.7
3408,0.27
3420,-1.05
3432,-2.13
3444,-2.93
3455,-3.49
3466,-3.95
3478,-4.46
3490,-5.12
3502,-5.98
3514,-7.03
3526,-8.19
3538,-9.36
3550,-10.39
3562,-11.12
3574,-11.37
3586,-10.96
3598,-9.77
3610,-7.8
3622,-5.17
3634,-2.18
3645,0.82
3656,3.51
3668,5.67
3680,7.23
3692,8.17
3704,8.51
3716,8.29
3728,7.55
3740,6.43
3752,5.15
3764,3.97
3776,3.13
3788,2.75
3800,2.82
3812,3.22
3824,3.77
3835,4.29
3846,4.62
3858,4.7
3870,4.49
3882,4.06
3894,3.48
3906,2.88
3918,2.3
3930,1.74
3942,1.13
3954,0.42
3966,-0.42
3978,-1.33
3990,-2.23
4002,-3.08
4014,-3.86
4025,-4.61
4036,-5.36
4048,-6.14
4060,-6.94
4072,-7.71
4084,-8.42
4096,-9.02
4108,-9.48
4120,-9.71
4132,-9.53
4144,-8.76
4156,-7.23
4168,-4.93
4180,-2.05
4192,1.07
4204,3.98
4215,6.3
4226,7.8
4238,8.39
4250,8.16
4262,7.28
4274,5.95
4286,4.37
4298,2.8
4310,1.47
4322,0.62
4334,0.39
4346,0.77
4358,1.62
4370,2.64
4382,3.54
4394,4.1
4405,4.25
4416,4.07
4428,3.74
4440,3.43
4452,3.21
4464,3.0
4476,2.67
4488,2.09
4500,1.23
4512,0.17
4524,-0.93
4536,-1.94
4548,-2.84
4560,-3.68
4572,-4.56
4584,-5.57
4595,-6.69
4606,-7.85
4618,-8.93
4630,-9.81
4642,-10.38
4654,-10.48
4666,-9.97
4678,-8.74
4690,-6.76
4702,-4.2
4714,-1.35
4726,1.4
4738,3.7
4750,5.32
4762,6.19
4774,6.36
4785,5.92
4796,5.03
4808,3.84
4820,2.57
4832,1.47
4844,0.74
4856,0.47
4868,0.61
4880,1.02
4892,1.5
4904,1.91
4916,2.19
4928,2.35
4940,2.45
4952,2.51
4964,2.51
4975,2.39
4986,2.08
4998,1.51
5010,0.68
5022,-0.38
5034,-1.6
5046,-2.83
5058,-3.97
5070,-4.92
5082,-5.67
5094,-6.25
5106,-6.79
5118,-7.41
5130,-8.2
5142,-9.16
5154,-10.19
5165,-11.11
5176,-11.68
5188,-11.64
5200,-10.82
5212,-9.2
5224,-6.89
5236,-4.14
5248,-1.29
5260,1.33
5272,3.48
5284,5.0
5296,5.85
5308,6.02
5320,5.58
5332,4.64
5344,3.4
5355,2.11
5366,1.07
5378,0.52
5390,0.54
5402,1.08
5414,1.92
5426,2.86
5438,3.69
5450,4.3
5462,4.67
5474,4.82
5486,4.76
5498,4.52
5510,4.1
5522,3.52
5534,2.82
5545,2.02
5556,1.17
5568,0.29
5580,-0.6
5592,-1.51
5604,-2.43
5616,-3.36
5628,-4.31
5640,-5.25
5652,-6.18
5664,-7.09
5676,-8.02
5688,-8.99
5700,-10.0
5712,-10.99
5724,-11.79
5735,-12.18
5746,-11.88
5758,-10.72
5770,-8.7
5782,-6.01
5794,-3.02
5806,-0.16
5818,2.2
5830,3.84
5842,4.76
5854,5.06
5866,4.93
5878,4.51
5890,3.9
5902,3.19
5914,2.46
5925,1.84
5936,1.45
5948,1.37
5960,1.61
5972,2.04
5984,2.53
5996,2.94
6008,3.23
6020,3.43
6032,3.63
6044,3.83
6056,3.96
6068,3.86
6080,3.42
6092,2.62
6104,1.58
6115,0.54
6126,-0.32
6138,-0.91
6150,-1.25
6162,-1.44
6174,-1.61
6186,-1.83
6198,-2.15
6210,-2.63
6222,-3.28
6234,-4.13
6246,-5.15
6258,-6.24
6270,-7.21
6282,-7.87
6294,-8.03
6305,-7.57
6316,-6.44
6328,-4.67
6340,-2.43
6352,0.05
6364,2.47
6376,4.57
6388,6.12
6400,7.05
6412,7.4
6424,7.28
6436,6.84
6448,6.18
6460,5.39
6472,4.53
6484,3.69
6495,2.99
6506,2.57
6518,2.53
6530,2.85
6542,3.39
6554,3.9
6566,4.13
6578,3.96
6590,3.41
6602,2.69
6614,2.06
6626,1.69
6638,1.6
6650,1.67
6662,1.66
6674,1.38
6685,0.73
6696,-0.24
6708,-1.34
6720,-2.39
6732,-3.23
6744,-3.82
6756,-4.23
6768,-4.59
6780,-5.04
6792,-5.66
6804,-6.47
6816,-7.41
6828,-8.38
6840,-9.25
6852,-9.89
6864,-10.1
6875,-9.72
6886,-8.63
6898,-6.84
6910,-4.5
6922,-1.87
6934,0.78
6946,3.18
6958,5.13
6970,6.48
6982,7.12
6994,7.04
7006,6.37
7018,5.36
7030,4.31
7042,3.48
7054,2.99
7065,2.81
7076,2.82
7088,2.95
7100,3.15
7112,3.47
7124,3.9
7136,4.32
7148,4.58
7160,4.57
7172,4.27
7184,3.8
7196,3.34
7208,2.98
7220,2.68
7232,2.32
7244,1.75
7255,0.94
7266,-0.04
7278,-1.04
7290,-1.94
7302,-2.71
7314,-3.36
7326,-3.96
7338,-4.54
7350,-5.1
7362,-5.6
7374,-6.03
7386,-6.42
7398,-6.78
7410,-7.09
7422,-7.26
7434,-7.14
7445,-6.6
7456,-5.53
7468,-3.93
7480,-1.92
7492,0.3
7504,2.47
7516,4.32
7528,5.68
7540,6.44
7552,6.58
7564,6.13
7576,5.22
7588,4.06
7600,2.88
7612,1.96
7624,1.47
7635,1.43
7646,1.73
7658,2.15
7670,2.51
7682,2.72
7694,2.84
7706,2.97
7718,3.2
7730,3.45
7742,3.61
7754,3.5
7766,3.04
7778,2.28
7790,1.34
7802,0.38
7814,-0.5
7825,-1.26
7836,-1.94
7848,-2.57
7860,-3.22
7872,-3.92
7884,-4.7
7896,-5.59
7908,-6.57
7920,-7.58
7932,-8.53
7944,-9.27
7956,-9.66
7968,-9.55
7980,-8.86
7992,-7.53
8004,-5.62
8015,-3.29
8026,-0.81
8038,1.5
8050,3.36
8062,4.63
8074,5.3
8086,5.48
8098,5.33
8110,4.95
8122,4.44
8134,3.81
8146,3.1
8158,2.41
8170,1.82
8182,1.49
8194,1.48
8205,1.83
8216,2.42
8228,3.09
8240,3.62
8252,3.82
8264,3.61
8276,3.04
8288,2.21
8300,1.28
8312,0.37
8324,-0.43
8336,-1.12
8348,-1.69
8360,-2.15
8372,-2.51
8384,-2.8
8395,-3.09
8406,-3.45
8418,-3.93
8430,-4.56
8442,-5.28
8454,-6.03
8466,-6.76
8478,-7.46
8490,-8.11
8502,-8.68
8514,-9.06
8526,-9.04
8538,-8.39
8550,-6.98
8562,-4.86
8574,-2.31
8585,0.3
8596,2.58
8608,4.27
8620,5.31
8632,5.75
8644,5.74
8656,5.39
8668,4.83
8680,4.15
8692,3.48
8704,2.95
8716,2.7
8728,2.78
8740,3.17
8752,3.72
8764,4.29
8775,4.77
8786,5.12
8798,5.35
8810,5.51
8822,5.6
8834,5.6
8846,5.46
8858,5.11
8870,4.51
8882,3.69
8894,2.68
8906,1.57
8918,0.45
8930,-0.6
8942,-1.5
8954,-2.24
8965,-2.85
8976,-3.41
8988,-4.01
9000,-4.7
9012,-5.48
9024,-6.28
9036,-7.02
9048,-7.61
9060,-7.98
9072,-8.08
9084,-7.84
9096,-7.16
9108,-5.97
9120,-4.3
9132,-2.29
9144,-0.18
9155,1.76
9166,3.36
9178,4.54
9190,5.32
9202,5.74
9214,5.76
9226,5.34
9238,4.47
9250,3.3
9262,2.09
9274,1.17
9286,0.79
9298,1.04
9310,1.8
9322,2.79
9334,3.73
9345,4.4
9356,4.69
9368,4.64
9380,4.3
9392,3.78
9404,3.16
9416,2.47
9428,1.74
9440,0.96
9452,0.15
9464,-0.65
9476,-1.36
9488,-1.94
9500,-2.38
9512,-2.69
9524,-2.96
9535,-3.24
9546,-3.59
9558,-4.07
9570,-4.66
9582,-5.36
9594,-6.13
9606,-6.88
9618,-7.46
9630,-7.68
9642,-7.34
9654,-6.33
9666,-4.7
9678,-2.59
9690,-0.28
9702,1.96
9714,3.85
9725,5.24
9736,6.02
9748,6.17
9760,5.73
9772,4.81
9784,3.6
9796,2.36
9808,1.35
9820,0.81
9832,0.83
9844,1.35
9856,2.19
9868,3.11
9880,3.86
9892,4.31
9904,4.44
9915,4.34
9926,4.16
9938,4.0
9950,3.89
9962,3.77
9974,3.52
9986,3.08
9998,2.46
10010,1.75
10022,1.1
10034,0.58
10046,0.17
10058,-0.22
10070,-0.74
10082,-1.44
10094,-2.3
10105,-3.22
10116,-4.1
10128,-4.92
10140,-5.67
10152,-6.43
10164,-7.16
10176,-7.74
10188,-7.95
10200,-7.55
10212,-6.45
10224,-4.7
10236,-2.54
10248,-0.33
10260,1.58
10272,2.97
10284,3.78
10295,4.09
10306,4.07
10318,3.84
10330,3.49
10342,3.03
10354,2.45
10366,1.82
10378,1.25
10390,0.87
10402,0.81
10414,1.08
10426,1.54
10438,2.04
10450,2.41
10462,2.61
10474,2.67
10485,2.7
10496,2.69
10508,2.55
10520,2.12
10532,1.26
10544,0.01
10556,-1.39
10568,-2.63
10580,-3.39
10592,-3.59
10604,-3.39
10616,-3.09
10628,-3.0
10640,-3.28
10652,-3.94
10664,-4.86
10675,-5.9
10686,-6.95
10698,-7.89
10710,-8.56
10722,-8.74
10734,-8.24
10746,-6.98
10758,-5.0
10770,-2.53
10782,0.11
10794,2.6
10806,4.69
10818,6.21
10830,7.07
10842,7.22
10854,6.7
10865,5.65
10876,4.29
10888,2.96
10900,1.96
10912,1.5
10924,1.62
10936,2.2
10948,2.96
10960,3.62
10972,3.96
10984,3.9
10996,3.53
11008,3.03
11020,2.55
11032,2.19
11044,1.91
11055,1.59
11066,1.13
11078,0.48
11090,-0.33
11102,-1.17
11114,-1.92
11126,-2.53
11138,-2.99
11150,-3.38
11162,-3.77
11174,-4.23
11186,-4.8
11198,-5.49
11210,-6.27
11222,-7.03
11234,-7.58
11245,-7.68
11256,-7.09
11268,-5.7
11280,-3.56
11292,-0.96
11304,1.72
11316,4.04
11328,5.72
11340,6.63
11352,6.83
11364,6.48
11376,5.76
11388,4.84
11400,3.81
11412,2.79
11424,1.93
11435,1.36
11446,1.24
11458,1.62
11470,2.43
11482,3.46
11494,4.42
11506,5.05
11518,5.19
11530,4.88
11542,4.24
11554,3.49
11566,2.78
11578,2.16
11590,1.62
11602,1.13
11614,0.68
11625,0.28
11636,-0.06
11648,-0.39
11660,-0.79
11672,-1.33
11684,-2.04
11696,-2.92
11708,-3.87
11720,-4.83
11732,-5.76
11744,-6.65
11756,-7.48
11768,-8.15
11780,-8.52
11792,-8.39
11804,-7.65
11815,-6.28
11826,-4.39
11838,-2.19
11850,0.08
11862,2.2
11874,3.95
11886,5.2
11898,5.87
11910,5.97
11922,5.56
11934,4.78
11946,3.78
11958,2.77
11970,1.9
11982,1.31
11994,1.09
12005,1.24
12016,1.7
12028,2.38
12040,3.16
12052,3.9
12064,4.49
12076,4.83
12088,4.86
12100,4.56
12112,3.95
12124,3.14
12136,2.26
12148,1.41
12160,0.63
12172,-0.09
12184,-0.81
12195,-1.53
12206,-2.2
12218,-2.76
12230,-3.17
12242,-3.49
12254,-3.85
12266,-4.36
12278,-5.07
12290,-5.9
12302,-6.67
12314,-7.22
12326,-7.45
12338,-7.34
12350,-6.92
12362,-6.2
12374,-5.15
12385,-3.72
12396,-1.92
12408,0.13
12420,2.22
12432,4.04
12444,5.36
12456,6.06
12468,6.19
12480,5.87
12492,5.28
12504,4.59
12516,3.91
12528,3.33
12540,2.91
12552,2.7
12564,2.71
12575,2.94
12586,3.31
12598,3.71
12610,3.99
12622,4.01
12634,3.72
12646,3.17
12658,2.5
12670,1.92
12682,1.55
12694,1.38
12706,1.3
12718,1.12
12730,0.7
12742,0.04
12754,-0.74
12765,-1.52
12776,-2.18
12788,-2.73
12800,-3.24
12812,-3.78
12824,-4.39
12836,-5.04
12848,-5.66
12860,-6.22
12872,-6.7
12884,-7.04
12896,-7.13
12908,-6.8
12920,-5.91
12932,-4.45
12944,-2.51
12955,-0.31
12966,1.91
12978,3.9
12990,5.51
13002,6.68
13014,7.43
13026,7.78
13038,7.75
13050,7.38
13062,6.75
13074,6.0
13086,5.3
13098,4.84
13110,4.79
13122,5.21
13134,5.99
13145,6.89
13156,7.63
13168,8.02
13180,8.04
13192,7.78
13204,7.46
13216,7.4
13228,7.82
13240,8.61
13252,9.43
13264,9.92
13276,9.89
13288,9.44
13300,8.87
13312,8.65
13324,9.39
13335,11.42
13346,14.42
13358,17.56
13370,19.95
13382,21.1
13394,21.06
13406,20.38
13418,19.88
13430,20.74
13442,23.64
13454,28.31
13466,33.65
13478,38.42
13490,41.73
13502,43.29
13514,43.3
13525,42.38
13536,42.04
13548,43.74
13560,48.22
13572,55.11
13584,62.98
13596,69.37
13608,71.07
13620,64.74
13632,45.18
13644,11.96
13656,-28.85
13668,-67.07
13680,-94.27
13692,-107.6
13704,-109.49
13715,-104.87
13726,-98.38
13738,-92.74
13750,-87.71
13762,-81.71
13774,-73.71
13786,-63.99
13798,-53.83
13810,-44.78
13822,-37.82
13834,-33.18
13846,-30.92
13858,-30.52
13870,-31.54
13882,-33.22
13894,-34.47
13905,-31.61
13916,-20.47
13928,1.85
13940,34.96
13952,74.1
13964,112.16
13976,141.89
13988,158.35
14000,160.38
14012,150.38
14024,132.55
14036,110.94
14048,88.3
14060,65.54
14072,43.31
14084,22.54
14095,4.36
14106,-10.49
14118,-22.21
14130,-32.41
14142,-43.78
14154,-56.06
14166,-69.44
14178,-83.16
14190,-95.65
14202,-105.2
14214,-110.74
14226,-112.31
14238,-111.17
14250,-109.15
14262,-107.82
14274,-108.48
14285,-111.32
14296,-115.78
14308,-121.01
14320,-126.26
14332,-130.9
14344,-134.35
14356,-135.78
14368,-134.03
14380,-128.28
14392,-117.96
14404,-103.16
14416,-84.79
14428,-64.39
14440,-43.64
14452,-24.0
14464,-6.34
14475,9.06
14486,22.14
14498,33.05
14510,41.98
14522,49.07
14534,54.45
14546,58.33
14558,60.94
14570,62.51
14582,63.2
14594,62.92
14606,61.54
14618,58.97
14630,55.27
14642,50.71
14654,45.74
14665,40.89
14676,36.62
14688,33.22
14700,30.73
14712,29.03
14724,27.87
14736,27.08
14748,26.63
14760,26.65
14772,27.35
14784,28.89
14796,31.23
14808,34.12
14820,37.12
14832,39.81
14844,41.96
14855,43.57
14866,44.81
14878,45.83
14890,46.68
14902,47.16
14914,46.98
14926,45.84
14938,43.65
14950,40.53
14962,36.77
14974,32.83
14986,29.18
14998,26.31
15010,24.64
15022,24.47
15034,25.91
15045,28.76
15056,32.55
15068,36.55
15080,39.95
15092,42.08
15104,42.52
15116,41.28
15128,38.71
15140,35.5
15152,32.4
15164,30.06
15176,28.75
15188,28.32
15200,28.23
15212,27.77
15224,26.29
15235,23.4
15246,19.12
15258,13.8
15270,8.09
15282,2.66
15294,-1.97
15306,-5.61
15318,-8.42
15330,-10.71
15342,-12.64
15354,-13.95
15366,-14.07
15378,-12.5
15390,-9.36
15402,-5.66
15414,-3.14
15425,-3.54
15436,-7.85
15448,-15.81
15460,-26.02
15472,-36.58
15484,-45.85
15496,-53.05
15508,-58.2
15520,-61.68
15532,-63.91
15544,-65.06
15556,-65.16
15568,-64.24
15580,-62.48
15592,-60.04
15604,-57.16
15615,-53.88
15626,-50.09
15638,-45.6
15650,-40.35
15662,-34.42
15674,-28.04
15686,-21.45
15698,-14.9
15710,-8.78
15722,-3.46
15734,0.8
15746,3.96
15758,5.96
15770,6.94
15782,7.32
15794,7.71
15805,8.83
15816,10.77
15828,13.25
15840,15.89
15852,18.38
15864,20.19
15876,20.96
15888,20.83
15900,20.42
15912,20.81
15924,22.02
15936,23.64
15948,25.18
15960,26.17
15972,25.66
15984,22.89
15995,17.93
16006,11.83
16018,6.65
16030,2.99
16042,0.64
16054,-1.01
16066,-3.01
16078,-7.25
16090,-15.5
16102,-28.5
16114,-45.7
16126,-65.03
16138,-85.92
16150,-108.08
16162,-130.88
16174,-146.98
16185,-149.39
16196,-136.28
16208,-112.58
16220,-91.05
16232,-72.9
16244,-57.34
16256,-43.52
16268,-29.31
16280,-14.41
16292,-0.01
16304,12.37
16316,21.78
16328,28.38
16340,33.74
16352,38.07
16364,41.33
16375,43.68
16386,45.23
16398,45.48
16410,43.9
16422,40.56
16434,36.46
16446,33.62
16458,32.69
16470,33.59
16482,35.82
16494,38.38
16506,39.87
16518,39.17
16530,36.23
16542,32.01
16554,28.29
16565,25.95
16576,25.21
16588,25.84
16600,27.02
16612,27.58
16624,26.45
16636,23.57
16648,19.6
16660,15.77
16672,13.18
16684,12.91
16696,15.94
16708,22.68
16720,32.61
16732,44.29
16744,56.38
16755,67.4
16766,75.86
16778,80.67
16790,81.78
16802,80.16
16814,77.22
16826,74.19
16838,71.67
16850,70.4
16862,70.54
16874,71.47
16886,72.31
16898,72.7
16910,72.92
16922,73.59
16934,75.35
16945,72.87
16956,63.96
16968,50.59
16980,36.35
16992,22.75
17004,8.61
17016,-8.07
17028,-28.09
17040,-50.11
17052,-71.51
17064,-89.51
17076,-101.75
17088,-107.73
17100,-108.79
17112,-106.91
17124,-103.72
17135,-100.23
17146,-97.06
17158,-92.41
17170,-85.48
17182,-76.29
17194,-65.98
17206,-56.18
17218,-47.89
17230,-41.14
17242,-35.29
17254,-29.59
17266,-23.7
17278,-17.72
17290,-12.06
17302,-7.59
17314,-4.98
17325,-3.89
17336,-3.04
17348,-0.6
17360,4.93
17372,14.1
17384,26.32
17396,40.07
17408,53.24
17420,63.52
17432,68.78
17444,67.91
17456,61.42
17468,50.87
17480,38.11
17492,25.12
17504,14.3
17515,8.11
17526,6.64
17538,10.41
17550,19.12
17562,31.68
17574,46.68
17586,63.1
17598,80.4
17610,98.12
17622,115.31
17634,129.7
17646,138.54
17658,139.49
17670,131.69
17682,116.02
17694,94.63
17705,69.8
17716,43.12
17728,15.08
17740,-14.44
17752,-45.18
17764,-76.18
17776,-105.74
17788,-131.97
17800,-153.3
17812,-168.98
17824,-179.13
17836,-184.61
17848,-186.8
17860,-187.02
17872,-186.46
17884,-185.9
17895,-185.77
17906,-186.12
17918,-186.79
17930,-187.38
17942,-187.26
17954,-185.55
17966,-181.19
17978,-173.25
17990,-161.24
18002,-145.46
18014,-126.91
18026,-106.96
18038,-86.92
18050,-67.43
18062,-48.5
18074,-29.7
18085,-10.67
18096,8.62
18108,27.58
18120,45.24
18132,60.59
18144,72.99
18156,82.58
18168,89.82
18180,95.19
18192,99.02
18204,101.53
18216,102.96
18228,103.55
18240,103.55
18252,103.03
18264,102.4
18275,101.66
18286,100.34
18298,97.86
18310,93.84
18322,88.19
18334,80.92
18346,72.15
18358,61.98
18370,51.76
18382,43.03
18394,37.32
18406,35.93
18418,39.91
18430,49.61
18442,64.18
18454,81.53
18465,98.58
18476,113.24
18488,123.79
18500,129.18
18512,129.25
18524,125.06
18536,118.22
18548,110.08
18560,101.34
18572,85.31
18584,60.17
18596,29.69
18608,0.72
18620,-21.63
18632,-35.72
18644,-42.53
18655,-45.28
18666,-46.45
18678,-47.89
18690,-49.25
18702,-49.79
18714,-48.44
18726,-45.24
18738,-41.1
18750,-37.46
18762,-35.63
18774,-34.43
18786,-31.66
18798,-24.1
18810,-10.97
18822,4.85
18834,18.02
18845,23.78
18856,20.54
18868,10.71
18880,-1.19
18892,-11.45
18904,-17.37
18916,-18.46
18928,-15.85
18940,-11.0
18952,-4.74
18964,2.35
18976,8.91
18988,14.21
19000,15.73
19012,11.96
19024,3.74
19035,-5.06
19046,-8.7
19058,-1.85
19070,17.56
19082,46.79
19094,78.72
19106,103.84
19118,113.96
19130,104.8
19142,77.24
19154,36.88
19166,-7.93
19178,-48.87
19190,-80.16
19202,-99.75
19214,-109.25
19225,-112.04
19236,-111.62
19248,-110.36
19260,-109.26
19272,-108.44
19284,-107.82
19296,-107.5
19308,-107.61
19320,-108.08
19332,-108.16
19344,-106.58
19356,-102.01
19368,-93.65
19380,-81.71
19392,-67.57
19404,-53.41
19415,-41.65
19426,-34.29
19438,-32.33
19450,-35.66
19462,-43.19
19474,-53.35
19486,-64.52
19498,-75.53
19510,-85.75
19522,-95.07
19534,-103.72
19546,-111.92
19558,-119.6
19570,-126.36
19582,-131.46
19594,-134.07
19605,-133.6
19616,-129.98
19628,-123.75
19640,-115.9
19652,-107.57
19664,-99.55
19676,-92.08
19688,-84.69
19700,-76.38
19712,-65.72
19724,-51.07
19736,-30.85
19748,-3.93
19760,29.67
19772,68.07
19784,107.37
19795,142.28
19806,167.64
19818,180.25
19830,180.1
19842,170.28
19854,155.62
19866,140.71
19878,128.31
19890,118.92
19902,111.53
19914,104.91
19926,98.7
19938,93.59
19950,90.8
19962,91.06
19974,94.1
19985,98.64
19996,102.97
20008,105.68
20020,106.14
20032,104.53
20044,101.5
20056,97.57
20068,92.88
20080,87.26
20092,80.66
20104,73.6
20116,67.43
20128,64.0
20140,64.92
20152,70.73
20164,80.25
20175,90.85
20186,99.35
20198,103.42
20210,102.56
20222,98.29
20234,93.24
20246,89.76
20258,88.66
20270,88.95
20282,88.48
20294,85.27
20306,78.53
20318,68.98
20330,58.18
20342,47.53
20354,37.53
20365,27.76
20376,17.46
20388,6.21
20400,-5.75
20412,-17.76
20424,-29.32
20436,-40.48
20448,-51.79
20460,-63.89
20472,-76.88
20484,-90.08
20496,-102.18
20508,-111.82
20520,-118.23
20532,-121.6
20544,-123.01
20555,-124.02
20566,-126.08
20578,-130.13
20590,-136.34
20602,-144.18
20614,-152.59
20626,-160.2
20638,-165.64
20650,-167.75
20662,-165.77
20674,-159.35
20686,-148.6
20698,-133.98
20710,-116.22
20722,-96.21
20734,-74.89
20745,-53.17
20756,-31.86
20768,-11.68
20780,6.8
20792,23.09
20804,36.81
20816,47.73
20828,55.85
20840,61.39
20852,64.88
20864,67.05
20876,68.69
20888,70.48
20900,72.78
20912,75.51
20924,78.26
20935,80.48
20946,81.68
20958,81.69
20970,80.64
20982,78.87
20994,76.74
