seconds,BVP
9,-8.32
21,-7.42
33,-6.76
45,-6.4
56,-6.31
67,-6.35
79,-6.34
91,-6.08
103,-5.43
115,-4.34
127,-2.83
139,-1.01
151,0.98
163,3.01
175,4.99
187,6.87
199,8.64
211,10.28
223,11.82
235,13.26
246,14.67
257,16.15
269,17.77
281,19.54
293,21.33
305,22.86
317,23.8
329,23.92
341,23.11
353,21.51
365,19.44
377,17.29
389,15.38
401,13.88
413,12.73
425,11.77
436,10.82
447,9.77
459,8.56
471,7.24
483,5.86
495,4.43
507,2.98
519,1.52
531,0.12
543,-1.17
555,-2.35
567,-3.46
579,-4.56
591,-5.66
603,-6.6
615,-7.03
626,-6.47
637,-4.52
649,-1.11
661,3.42
673,8.37
685,12.94
697,16.54
709,18.93
721,20.23
733,20.73
745,20.61
757,19.97
769,18.78
781,17.14
793,15.3
805,13.64
816,12.42
827,11.64
839,10.96
851,9.97
863,8.4
875,6.3
887,4.01
899,2.01
911,0.69
923,0.17
935,0.37
947,1.07
959,1.99
971,2.95
983,3.79
995,4.42
1006,4.81
1017,4.99
1029,5.07
1041,5.28
1053,5.82
1065,6.76
1077,8.03
1089,9.32
1101,10.3
1113,10.67
1125,10.33
1137,9.37
1149,8.06
1161,6.68
1173,5.4
1185,4.28
1196,3.22
1207,2.18
1219,1.16
1231,0.2
1243,-0.6
1255,-1.25
1267,-1.86
1279,-2.63
1291,-3.71
1303,-5.13
1315,-6.69
1327,-8.04
1339,-8.78
1351,-8.59
1363,-7.38
1375,-5.29
1386,-2.62
1397,0.25
1409,2.98
1421,5.36
1433,7.31
1445,8.88
1457,10.22
1469,11.53
1481,12.97
1493,14.66
1505,16.55
1517,18.52
1529,20.35
1541,21.89
1553,23.08
1565,23.97
1576,24.67
1587,25.17
1599,25.32
1611,24.83
1623,23.38
1635,20.72
1647,16.79
1659,11.65
1671,5.48
1683,-1.53
1695,-9.18
1707,-17.2
1719,-25.23
1731,-32.8
1743,-39.46
1755,-44.85
1766,-48.75
1777,-51.15
1789,-52.16
1801,-52.03
1813,-51.09
1825,-49.74
1837,-48.33
1849,-47.07
1861,-45.82
1873,-44.13
1885,-41.35
1897,-36.97
1909,-30.91
1921,-23.58
1933,-15.75
1945,-8.3
1956,-1.88
1967,3.23
1979,7.06
1991,9.83
2003,11.79
2015,13.18
2027,14.21
2039,15.17
2051,16.32
2063,17.88
2075,19.91
2087,22.42
2099,25.56
2111,29.77
2123,35.85
2135,44.67
2146,56.69
2157,71.59
2169,88.0
2181,103.79
2193,116.62
2205,124.62
2217,126.88
2229,123.54
2241,115.51
2253,104.05
2265,90.45
2277,75.85
2289,61.2
2301,47.38
2313,35.04
2325,24.64
2336,16.27
2347,9.66
2359,4.27
2371,-0.53
2383,-5.31
2395,-10.42
2407,-15.92
2419,-21.63
2431,-27.14
2443,-32.06
2455,-36.09
2467,-39.12
2479,-41.15
2491,-42.26
2503,-42.46
2515,-41.67
2526,-39.75
2537,-36.62
2549,-32.44
2561,-27.64
2573,-22.9
2585,-18.88
2597,-16.0
2609,-14.2
2621,-12.91
2633,-11.42
2645,-9.18
2657,-6.22
2669,-3.2
2681,-1.07
2693,-0.61
2705,-1.99
2716,-4.78
2727,-8.29
2739,-12.09
2751,-16.28
2763,-21.35
2775,-27.67
2787,-35.11
2799,-42.92
2811,-50.06
2823,-55.78
2835,-59.96
2847,-63.09
2859,-65.86
2871,-68.55
2883,-70.79
2895,-71.72
2906,-70.44
2917,-66.56
2929,-60.43
2941,-52.99
2953,-45.39
2965,-38.54
2977,-32.86
2989,-28.39
3001,-24.82
3013,-21.85
3025,-19.2
3037,-16.74
3049,-14.42
3061,-12.19
3073,-10.01
3085,-7.85
3096,-5.73
3107,-3.68
3119,-1.75
3131,0.03
3143,1.63
3155,3.05
3167,4.25
3179,5.18
3191,5.8
3203,6.11
3215,6.16
3227,6.04
3239,5.88
3251,5.76
3263,5.72
3275,5.74
3286,5.76
3297,5.75
3309,5.71
3321,5.74
3333,5.95
3345,6.38
3357,7.04
3369,7.87
3381,8.75
3393,9.57
3405,10.24
3417,10.75
3429,11.12
3441,11.38
3453,11.53
3465,11.52
3476,11.3
3487,10.79
3499,9.99
3511,8.99
3523,7.96
3535,7.16
3547,6.78
3559,6.89
3571,7.41
3583,8.07
3595,8.51
3607,8.43
3619,7.72
3631,6.47
3643,4.99
3655,3.61
3666,2.61
3677,2.12
3689,2.07
3701,2.36
3713,2.84
3725,3.43
3737,4.01
3749,4.48
3761,4.68
3773,4.53
3785,3.97
3797,3.08
3809,2.02
3821,0.94
3833,0.0
3845,-0.75
3856,-1.29
3867,-1.58
3879,-1.56
3891,-1.13
3903,-0.21
3915,1.17
3927,2.84
3939,4.56
3951,6.06
3963,7.16
3975,7.79
3987,7.99
3999,7.9
4011,7.71
4023,7.53
4035,7.46
4046,7.51
4057,7.66
4069,7.9
4081,8.19
4093,8.56
4105,8.99
4117,9.49
4129,10.01
4141,10.5
4153,10.97
4165,11.43
4177,11.95
4189,12.56
4201,13.23
4213,13.89
4225,14.47
4236,14.93
4247,15.39
4259,16.03
4271,17.0
4283,18.39
4295,20.09
4307,21.88
4319,23.53
4331,24.85
4343,25.85
4355,26.69
4367,27.6
4379,28.78
4391,30.38
4403,32.48
4415,35.13
4426,38.36
4437,42.2
4449,46.64
4461,51.47
4473,56.38
4485,60.96
4497,64.97
4509,68.51
4521,72.03
4533,76.16
4545,81.42
4557,87.91
4569,95.24
4581,102.75
4593,109.79
4605,116.06
4616,121.45
4627,125.83
4639,128.53
4651,128.4
4663,124.0
4675,114.34
4687,99.43
4699,80.46
4711,59.46
4723,38.48
4735,18.86
4747,0.91
4759,-15.84
4771,-32.03
4783,-47.93
4795,-63.17
4806,-77.0
4817,-88.68
4829,-97.74
4841,-104.13
4853,-108.04
4865,-109.72
4877,-109.39
4889,-107.36
4901,-104.07
4913,-100.1
4925,-96.0
4937,-92.11
4949,-88.46
4961,-84.86
4973,-81.13
4985,-77.2
4996,-73.21
5007,-69.34
5019,-65.8
5031,-62.61
5043,-59.7
5055,-56.98
5067,-54.35
5079,-51.83
5091,-49.5
5103,-47.41
5115,-45.57
5127,-43.88
5139,-42.07
5151,-39.79
5163,-36.75
5175,-32.84
5186,-28.21
5197,-23.32
5209,-18.69
5221,-14.75
5233,-11.63
5245,-9.23
5257,-7.27
5269,-5.55
5281,-3.91
5293,-2.39
5305,-1.05
5317,0.06
5329,0.92
5341,1.48
5353,1.69
5365,1.47
5376,0.79
5387,-0.25
5399,-1.4
5411,-2.35
5423,-2.76
5435,-2.51
5447,-1.72
5459,-0.72
5471,0.1
5483,0.45
5495,0.25
5507,-0.38
5519,-1.22
5531,-2.08
5543,-2.89
5555,-3.71
5566,-4.64
5577,-5.73
5589,-6.87
5601,-7.91
5613,-8.72
5625,-9.3
5637,-9.79
5649,-10.42
5661,-11.33
5673,-12.46
5685,-13.64
5697,-14.61
5709,-15.25
5721,-15.63
5733,-15.93
5745,-16.3
5756,-16.66
5767,-16.72
5779,-16.08
5791,-14.56
5803,-12.25
5815,-9.57
5827,-7.0
5839,-4.92
5851,-3.42
5863,-2.33
5875,-1.36
5887,-0.34
5899,0.74
5911,1.74
5923,2.48
5935,2.89
5946,3.07
5957,3.21
5969,3.49
5981,3.94
5993,4.44
6005,4.82
6017,4.97
6029,4.89
6041,4.72
6053,4.64
6065,4.69
6077,4.84
6089,4.89
6101,4.65
6113,4.0
6125,3.01
6136,1.87
6147,0.82
6159,0.06
6171,-0.39
6183,-0.6
6195,-0.79
6207,-1.16
6219,-1.83
6231,-2.84
6243,-4.12
6255,-5.58
6267,-7.09
6279,-8.54
6291,-9.81
6303,-10.85
6315,-11.66
6326,-12.31
6337,-12.95
6349,-13.69
6361,-14.62
6373,-15.71
6385,-16.83
6397,-17.72
6409,-18.11
6421,-17.79
6433,-16.59
6445,-14.54
6457,-11.88
6469,-8.97
6481,-6.22
6493,-3.99
6505,-2.42
6516,-1.5
6527,-1.04
6539,-0.8
6551,-0.57
6563,-0.24
6575,0.21
6587,0.68
6599,1.04
6611,1.14
6623,0.9
6635,0.36
6647,-0.29
6659,-0.81
6671,-0.94
6683,-0.56
6695,0.26
6706,1.3
6717,2.3
6729,3.07
6741,3.6
6753,4.04
6765,4.59
6777,5.38
6789,6.47
6801,7.88
6813,9.61
6825,11.66
6837,13.79
6849,15.39
6861,15.56
6873,13.38
6885,8.49
6896,1.34
6907,-7.03
6919,-15.51
6931,-23.59
6943,-31.6
6955,-40.52
6967,-51.23
6979,-63.88
6991,-77.7
7003,-91.41
7015,-103.72
7027,-113.96
7039,-121.99
7051,-127.89
7063,-131.55
7075,-132.64
7086,-130.84
7097,-126.33
7109,-120.01
7121,-113.22
7133,-107.21
7145,-102.48
7157,-98.57
7169,-94.23
7181,-88.13
7193,-79.46
7205,-68.23
7217,-55.13
7229,-41.06
7241,-26.7
7253,-12.4
7265,1.55
7276,14.67
7287,26.09
7299,34.84
7311,40.33
7323,42.81
7335,43.43
7347,43.86
7359,45.63
7371,49.58
7383,55.74
7395,63.51
7407,72.14
7419,81.01
7431,89.68
7443,97.74
7455,104.61
7466,109.68
7477,112.51
7489,113.14
7501,112.06
7513,110.04
7525,107.69
7537,105.21
7549,102.42
7561,99.0
7573,94.84
7585,90.14
7597,85.21
7609,80.22
7621,75.0
7633,69.18
7645,62.55
7656,55.38
7667,48.5
7679,43.01
7691,39.65
7703,38.49
7715,38.75
7727,39.28
7739,38.98
7751,37.34
7763,34.4
7775,30.58
7787,26.21
7799,21.42
7811,16.21
7823,10.69
7835,5.26
7846,0.55
7857,-2.84
7869,-4.65
7881,-4.98
7893,-4.3
7905,-3.12
7917,-1.74
7929,-0.18
7941,1.75
7953,4.14
7965,6.83
7977,9.31
7989,10.93
8001,11.23
8013,10.25
8025,8.61
8036,7.21
8047,6.8
8059,7.56
8071,8.95
8083,9.95
8095,9.58
8107,7.37
8119,3.54
8131,-1.15
8143,-5.85
8155,-9.98
8167,-13.45
8179,-16.51
8191,-19.56
8203,-22.92
8215,-26.71
8226,-30.88
8237,-35.27
8249,-39.69
8261,-43.85
8273,-47.41
8285,-50.0
8297,-51.27
8309,-51.05
8321,-49.32
8333,-46.26
8345,-42.12
8357,-37.16
8369,-31.57
8381,-25.53
8393,-19.18
8405,-12.63
8416,-5.92
8427,0.93
8439,7.91
8451,14.97
8463,21.9
8475,28.45
8487,34.37
8499,39.69
8511,44.72
8523,50.0
8535,55.99
8547,62.7
8559,69.47
8571,75.02
8583,77.83
8595,76.75
8606,71.42
8617,62.37
8629,50.73
8641,37.77
8653,24.58
8665,11.89
8677,0.2
8689,-10.01
8701,-18.27
8713,-24.25
8725,-28.0
8737,-30.0
8749,-31.0
8761,-31.63
8773,-32.1
8785,-32.09
8796,-30.95
8807,-28.14
8819,-23.51
8831,-17.46
8843,-10.72
8855,-4.15
8867,1.47
8879,5.56
8891,7.75
8903,7.98
8915,6.56
8927,4.32
8939,2.51
8951,2.39
8963,4.68
8975,9.09
8986,14.31
8997,18.51
9009,20.22
9021,18.9
9033,15.2
9045,10.46
9057,5.87
9069,1.88
9081,-1.99
9093,-6.63
9105,-12.78
9117,-20.53
9129,-29.34
9141,-38.37
9153,-46.95
9165,-54.9
9176,-62.27
9187,-69.12
9199,-75.07
9211,-79.35
9223,-81.01
9235,-79.45
9247,-74.78
9259,-67.86
9271,-60.08
9283,-52.82
9295,-47.05
9307,-43.0
9319,-40.31
9331,-38.26
9343,-36.21
9355,-33.75
9366,-30.76
9377,-27.25
9389,-23.19
9401,-18.54
9413,-13.39
9425,-8.06
9437,-3.12
9449,0.89
9461,3.84
9473,6.22
9485,9.11
9497,13.7
9509,20.79
9521,30.35
9533,41.52
9545,52.92
9556,63.21
9567,71.47
9579,77.3
9591,80.77
9603,82.09
9615,81.53
9627,79.31
9639,75.61
9651,70.72
9663,64.99
9675,58.81
9687,52.59
9699,46.65
9711,41.15
9723,36.08
9735,31.2
9746,26.2
9757,20.82
9769,15.01
9781,9.03
9793,3.38
9805,-1.41
9817,-5.02
9829,-7.42
9841,-8.89
9853,-9.79
9865,-10.38
9877,-10.7
9889,-10.63
9901,-9.95
9913,-8.58
9925,-6.6
9936,-4.17
9947,-1.49
9959,1.32
9971,4.15
9983,6.84
9995,9.12
10007,10.73
10019,11.48
10031,11.36
10043,10.62
10055,9.65
10067,8.9
10079,8.61
10091,8.84
10103,9.43
10115,10.23
10126,11.13
10137,12.15
10149,13.34
10161,14.72
10173,16.2
10185,17.58
10197,18.64
10209,19.24
10221,19.34
10233,18.95
10245,18.12
10257,16.84
10269,15.1
10281,12.89
10293,10.26
10305,7.26
10316,3.87
10327,0.07
10339,-4.2
10351,-8.85
10363,-13.66
10375,-18.22
10387,-22.09
10399,-24.92
10411,-26.56
10423,-27.17
10435,-27.15
10447,-26.97
10459,-27.04
10471,-27.52
10483,-28.36
10495,-29.26
10506,-29.82
10517,-29.73
10529,-28.81
10541,-27.11
10553,-24.79
10565,-22.06
10577,-19.07
10589,-15.91
10601,-12.62
10613,-9.29
10625,-6.14
10637,-3.44
10649,-1.45
10661,-0.3
10673,0.14
10685,0.23
10696,0.38
10707,0.92
10719,1.89
10731,3.09
10743,4.14
10755,4.75
10767,4.76
10779,4.27
10791,3.55
10803,2.85
10815,2.34
10827,2.04
10839,1.84
10851,1.59
10863,1.22
10875,0.73
10886,0.19
10897,-0.33
10909,-0.85
10921,-1.48
10933,-2.39
10945,-3.69
10957,-5.35
10969,-7.13
10981,-8.69
10993,-9.69
11005,-9.97
11017,-9.53
11029,-8.55
11041,-7.27
11053,-6.0
11065,-4.98
11076,-4.46
11087,-4.6
11099,-5.41
11111,-6.71
11123,-8.14
11135,-9.27
11147,-9.71
11159,-9.26
11171,-7.96
11183,-5.98
11195,-3.62
11207,-1.16
11219,1.19
11231,3.25
11243,4.93
11255,6.21
11266,7.16
11277,7.89
11289,8.51
11301,9.07
11313,9.54
11325,9.85
11337,9.97
11349,9.93
11361,9.85
11373,9.86
11385,10.02
11397,10.28
11409,10.55
11421,10.77
11433,10.97
11445,11.27
11456,11.74
11467,12.25
11479,12.52
11491,12.28
11503,11.4
11515,10.06
11527,8.63
11539,7.37
11551,6.29
11563,5.11
11575,3.48
11587,1.33
11599,-1.05
11611,-3.22
11623,-4.83
11635,-5.96
11646,-7.06
11657,-8.66
11669,-11.04
11681,-14.01
11693,-17.05
11705,-19.6
11717,-21.35
11729,-22.34
11741,-22.74
11753,-22.76
11765,-22.38
11777,-21.48
11789,-19.94
11801,-17.78
11813,-15.24
11825,-12.63
11836,-10.28
11847,-8.39
11859,-6.97
11871,-5.89
11883,-4.95
11895,-3.96
11907,-2.86
11919,-1.71
11931,-0.56
11943,0.53
11955,1.63
11967,2.89
11979,4.44
11991,6.36
12003,8.61
12015,11.03
12026,13.4
12037,15.48
12049,17.07
12061,18.03
12073,18.27
12085,17.83
12097,16.87
12109,15.61
12121,14.36
12133,13.33
12145,12.64
12157,12.27
12169,12.15
12181,12.15
12193,12.2
12205,12.23
12216,12.22
12227,12.14
12239,11.99
12251,11.76
12263,11.44
12275,11.04
12287,10.58
12299,10.15
12311,9.85
12323,9.79
12335,9.99
12347,10.4
12359,10.93
12371,11.56
12383,12.41
12395,13.74
12406,15.88
12417,19.04
12429,23.21
12441,28.14
12453,33.47
12465,38.84
12477,44.05
12489,49.07
12501,53.93
12513,58.72
12525,63.52
12537,68.41
12549,73.4
12561,78.45
12573,83.36
12585,87.84
12596,91.59
12607,94.43
12619,96.44
12631,97.9
12643,99.15
12655,100.42
12667,101.7
12679,102.7
12691,103.02
12703,102.26
12715,100.17
12727,96.74
12739,92.15
12751,86.71
12763,80.84
12775,74.95
12786,69.34
12797,64.13
12809,59.16
12821,54.08
12833,48.45
12845,41.98
12857,34.64
12869,26.72
12881,18.66
12893,10.8
12905,3.1
12917,-4.83
12929,-13.6
12941,-23.68
12953,-35.05
12965,-47.12
12976,-58.87
12987,-69.24
12999,-77.44
13011,-83.19
13023,-86.69
13035,-88.43
13047,-88.99
13059,-88.83
13071,-88.34
13083,-87.76
13095,-87.29
13107,-86.93
13119,-86.54
13131,-85.86
13143,-84.62
13155,-82.71
13166,-80.19
13177,-77.22
13189,-73.91
13201,-70.3
13213,-66.42
13225,-62.39
13237,-58.55
13249,-55.35
13261,-53.13
13273,-51.92
13285,-51.3
13297,-50.62
13309,-49.3
13321,-47.12
13333,-44.33
13345,-41.45
13356,-39.0
13367,-37.26
13379,-36.22
13391,-35.66
13403,-35.3
13415,-34.88
13427,-34.21
13439,-33.19
13451,-31.85
13463,-30.29
13475,-28.75
13487,-27.44
13499,-26.47
13511,-25.84
13523,-25.45
13535,-25.17
13546,-25.01
13557,-25.11
13569,-25.64
13581,-26.75
13593,-28.34
13605,-30.13
13617,-31.65
13629,-32.45
13641,-32.18
13653,-30.79
13665,-28.47
13677,-25.63
13689,-22.75
13701,-20.19
13713,-18.04
13725,-16.17
13736,-14.34
13747,-12.32
13759,-10.1
13771,-7.81
13783,-5.72
13795,-4.04
13807,-2.87
13819,-2.13
13831,-1.69
13843,-1.38
13855,-1.1
13867,-0.79
13879,-0.44
13891,-0.06
13903,0.31
13915,0.66
13926,0.95
13937,1.17
13949,1.31
13961,1.4
13973,1.45
13985,1.47
13997,1.5
14009,1.53
14021,1.54
14033,1.5
14045,1.34
14057,0.98
14069,0.36
14081,-0.5
14093,-1.56
14105,-2.72
14116,-3.92
14127,-5.14
14139,-6.41
14151,-7.76
14163,-9.18
14175,-10.6
14187,-11.91
14199,-12.98
14211,-13.74
14223,-14.2
14235,-14.46
14247,-14.66
14259,-14.93
14271,-15.38
14283,-15.99
14295,-16.7
14306,-17.37
14317,-17.83
14329,-17.96
14341,-17.65
14353,-16.84
14365,-15.52
14377,-13.73
14389,-11.6
14401,-9.31
14413,-7.1
14425,-5.18
14437,-3.72
14449,-2.8
14461,-2.37
14473,-2.34
14485,-2.53
14496,-2.73
14507,-2.74
14519,-2.41
14531,-1.67
14543,-0.62
14555,0.55
14567,1.61
14579,2.37
14591,2.77
14603,2.83
14615,2.74
14627,2.67
14639,2.79
14651,3.15
14663,3.65
14675,4.1
14686,4.24
14697,3.91
14709,3.11
14721,2.08
14733,1.11
14745,0.46
14757,0.22
14769,0.27
14781,0.37
14793,0.31
14805,0.01
14817,-0.45
14829,-0.96
14841,-1.38
14853,-1.7
14865,-1.99
14876,-2.39
14887,-3.05
14899,-4.05
14911,-5.42
14923,-7.06
14935,-8.78
14947,-10.39
14959,-11.68
14971,-12.46
14983,-12.66
14995,-12.18
15007,-11.02
15019,-9.26
15031,-7.02
15043,-4.53
15055,-2.03
15066,0.3
15077,2.36
15089,4.09
15101,5.48
15113,6.52
15125,7.14
15137,7.32
15149,7.11
15161,6.62
15173,6.03
15185,5.52
15197,5.19
15209,5.08
15221,5.21
15233,5.54
15245,6.02
15256,6.62
15267,7.26
15279,7.84
15291,8.19
15303,8.15
15315,7.67
15327,6.81
15339,5.76
15351,4.8
15363,4.14
15375,3.85
15387,3.84
15399,3.9
15411,3.84
15423,3.58
15435,3.12
15446,2.46
15457,1.63
15469,0.59
15481,-0.68
15493,-2.14
15505,-3.66
15517,-5.07
15529,-6.24
15541,-7.13
15553,-7.8
15565,-8.35
15577,-8.85
15589,-9.25
15601,-9.34
15613,-8.85
15625,-7.47
15636,-4.99
15647,-1.45
15659,2.92
15671,7.72
15683,12.52
15695,17.0
15707,21.07
15719,24.81
15731,28.44
15743,32.18
15755,36.18
15767,40.38
15779,44.3
15791,46.97
15803,47.06
15815,43.21
15826,34.57
15837,21.19
15849,4.13
15861,-14.95
15873,-34.4
15885,-53.14
15897,-70.74
15909,-87.06
15921,-101.81
15933,-114.45
15945,-124.49
15957,-131.98
15969,-137.65
15981,-142.55
15993,-147.39
16005,-152.03
16016,-155.68
16027,-157.7
16039,-158.27
16051,-158.53
16063,-159.85
16075,-162.72
16087,-166.06
16099,-167.49
16111,-164.35
16123,-155.01
16135,-139.47
16147,-119.1
16159,-95.81
16171,-71.2
16183,-46.31
16195,-21.9
16206,1.08
16217,21.29
16229,37.18
16241,47.62
16253,52.52
16265,53.16
16277,51.92
16289,51.68
16301,54.9
16313,62.8
16325,75.05
16337,90.08
16349,105.73
16361,120.2
16373,132.45
16385,142.31
16396,149.99
16407,155.65
16419,159.14
16431,160.26
16443,159.09
16455,156.16
16467,152.35
16479,148.45
16491,144.7
16503,140.71
16515,135.69
16527,128.96
16539,120.39
16551,110.45
16563,99.97
16575,89.71
16586,80.03
16597,70.89
16609,61.98
16621,53.01
16633,43.82
16645,34.49
16657,25.2
16669,16.21
16681,7.82
16693,0.33
16705,-5.94
16717,-10.77
16729,-14.13
16741,-16.17
16753,-17.19
16765,-17.47
16776,-17.03
16787,-15.7
16799,-13.15
16811,-9.12
16823,-3.67
16835,2.74
16847,9.28
16859,15.06
16871,19.38
16883,21.99
16895,23.07
16907,23.04
16919,22.3
16931,21.04
16943,19.29
16955,17.01
16966,14.37
16977,11.64
16989,9.09
17001,6.79
17013,4.44
17025,1.58
17037,-2.11
17049,-6.43
17061,-10.71
17073,-14.04
17085,-15.75
17097,-15.8
17109,-14.81
17121,-13.83
17133,-13.76
17145,-15.02
17156,-17.39
17167,-20.24
17179,-22.9
17191,-24.94
17203,-26.26
17215,-27.05
17227,-27.53
17239,-27.85
17251,-27.97
17263,-27.78
17275,-27.15
17287,-26.08
17299,-24.72
17311,-23.32
17323,-22.05
17335,-20.9
17346,-19.56
17357,-17.56
17369,-14.47
17381,-10.06
17393,-4.51
17405,1.63
17417,7.7
17429,13.13
17441,17.56
17453,20.9
17465,23.2
17477,24.52
17489,24.92
17501,24.5
17513,23.46
17525,22.15
17536,20.97
17547,20.26
17559,20.06
17571,20.12
17583,19.95
17595,19.05
17607,17.12
17619,14.29
17631,11.04
17643,8.06
17655,5.9
17667,4.76
17679,4.42
17691,4.37
17703,4.15
17715,3.49
17726,2.48
17737,1.37
17749,0.41
17761,-0.3
17773,-0.82
17785,-1.24
17797,-1.6
17809,-1.86
17821,-1.97
17833,-1.89
17845,-1.71
17857,-1.57
17869,-1.64
17881,-2.04
17893,-2.78
17905,-3.77
17916,-4.84
17927,-5.78
17939,-6.39
17951,-6.5
17963,-5.98
17975,-4.8
17987,-2.94
17999,-0.39
18011,2.78
18023,6.4
18035,10.16
18047,13.63
18059,16.32
18071,17.93
18083,18.38
18095,17.83
18106,16.66
18117,15.21
18129,13.77
18141,12.47
18153,11.32
18165,10.24
18177,9.17
18189,8.04
18201,6.91
18213,5.88
18225,5.09
18237,4.69
18249,4.69
18261,5.0
18273,5.37
18285,5.57
18296,5.42
18307,4.87
18319,4.03
18331,3.05
18343,2.09
18355,1.25
18367,0.61
18379,0.19
18391,-0.01
18403,-0.05
18415,-0.02
18427,-0.06
18439,-0.28
18451,-0.68
18463,-1.14
18475,-1.5
18486,-1.69
18497,-1.78
18509,-1.99
18521,-2.57
18533,-3.6
18545,-4.97
18557,-6.28
18569,-7.05
18581,-6.91
18593,-5.7
18605,-3.52
18617,-0.67
18629,2.5
18641,5.69
18653,8.66
18665,11.25
18676,13.35
18687,14.87
18699,15.77
18711,16.06
18723,15.84
18735,15.22
18747,14.38
18759,13.44
18771,12.54
18783,11.76
18795,11.11
18807,10.56
18819,10.07
18831,9.63
18843,9.29
18855,9.11
18866,9.12
18877,9.24
18889,9.29
18901,9.08
18913,8.48
18925,7.49
18937,6.27
18949,5.06
18961,4.05
18973,3.31
18985,2.81
18997,2.42
19009,2.01
19021,1.5
19033,0.85
19045,0.13
19056,-0.6
19067,-1.25
19079,-1.79
19091,-2.26
19103,-2.72
19115,-3.24
19127,-3.87
19139,-4.61
19151,-5.47
19163,-6.47
19175,-7.56
19187,-8.59
19199,-9.35
19211,-9.54
19223,-8.91
19235,-7.4
19246,-5.14
19257,-2.46
19269,0.23
19281,2.61
19293,4.53
19305,5.97
19317,7.02
19329,7.71
19341,8.03
19353,7.96
19365,7.5
19377,6.72
19389,5.79
19401,4.88
19413,4.15
19425,3.72
19436,3.61
19447,3.8
19459,4.17
19471,4.58
19483,4.83
19495,4.78
19507,4.36
19519,3.62
19531,2.7
19543,1.78
19555,0.92
19567,0.12
19579,-0.71
19591,-1.59
19603,-2.5
19615,-3.31
19626,-3.94
19637,-4.37
19649,-4.64
19661,-4.83
19673,-4.93
19685,-4.92
19697,-4.75
19709,-4.49
19721,-4.35
19733,-4.57
19745,-5.29
19757,-6.47
19769,-7.87
19781,-9.18
19793,-10.17
19805,-10.77
19816,-11.09
19827,-11.23
19839,-11.22
19851,-10.97
19863,-10.27
19875,-8.98
19887,-7.08
19899,-4.76
19911,-2.32
19923,-0.07
19935,1.76
19947,3.11
19959,4.03
19971,4.65
19983,5.09
19995,5.39
20006,5.54
20017,5.54
20029,5.43
20041,5.31
20053,5.28
20065,5.42
20077,5.66
20089,5.89
20101,5.95
20113,5.75
20125,5.3
20137,4.7
20149,4.08
20161,3.51
20173,3.01
20185,2.52
20196,1.99
20207,1.42
20219,0.85
20231,0.34
20243,-0.08
20255,-0.47
20267,-0.87
20279,-1.32
20291,-1.75
20303,-2.0
20315,-1.93
20327,-1.5
20339,-0.79
20351,-0.01
20363,0.64
20375,1.06
20386,1.32
20397,1.6
20409,2.16
20421,3.24
20433,5.02
20445,7.55
20457,10.69
20469,14.14
20481,17.37
20493,19.7
20505,20.52
20517,19.37
20529,16.2
20541,11.36
20553,5.51
20565,-0.56
20576,-6.19
20587,-10.94
20599,-14.72
20611,-17.67
20623,-20.07
20635,-22.17
20647,-24.13
20659,-25.98
20671,-27.7
20683,-29.24
20695,-30.57
20707,-31.63
20719,-32.31
20731,-32.46
20743,-31.9
20755,-30.52
20766,-28.34
20777,-25.54
20789,-22.43
20801,-19.33
20813,-16.47
20825,-13.99
20837,-11.85
20849,-9.96
20861,-8.2
20873,-6.4
20885,-4.47
20897,-2.38
20909,-0.14
20921,2.19
20933,4.52
20945,6.75
20956,8.74
20967,10.32
20979,11.33
20991,11.69
