seconds,BVP
3,0.79
15,0.76
27,0.67
39,0.57
51,0.51
63,0.51
75,0.59
86,0.77
97,1.05
109,1.41
121,1.79
133,2.14
145,2.45
157,2.75
169,3.15
181,3.73
193,4.49
205,5.29
217,5.91
229,6.17
241,6.04
253,5.67
265,5.34
276,5.3
287,5.63
299,6.17
311,6.64
323,6.77
335,6.5
347,5.92
359,5.29
371,4.83
383,4.63
395,4.61
407,4.6
419,4.41
431,3.93
443,3.15
455,2.12
466,0.99
477,-0.09
489,-0.95
501,-1.44
513,-1.53
525,-1.3
537,-0.92
549,-0.61
561,-0.55
573,-0.85
585,-1.53
597,-2.51
609,-3.7
621,-5.02
633,-6.44
645,-7.98
656,-9.63
667,-11.3
679,-12.88
691,-14.2
703,-15.14
715,-15.66
727,-15.83
739,-15.75
751,-15.5
763,-15.11
775,-14.56
787,-13.81
799,-12.84
811,-11.69
823,-10.45
835,-9.23
846,-8.11
857,-7.11
869,-6.2
881,-5.3
893,-4.34
905,-3.3
917,-2.26
929,-1.36
941,-0.74
953,-0.42
965,-0.32
977,-0.26
989,-0.1
1001,0.19
1013,0.46
1025,0.51
1036,0.15
1047,-0.64
1059,-1.76
1071,-3.01
1083,-4.2
1095,-5.23
1107,-6.12
1119,-6.96
1131,-7.8
1143,-8.63
1155,-9.34
1167,-9.78
1179,-9.91
1191,-9.8
1203,-9.64
1215,-9.56
1226,-9.55
1237,-9.37
1249,-8.64
1261,-7.09
1273,-4.74
1285,-1.93
1297,0.84
1309,3.08
1321,4.6
1333,5.48
1345,5.97
1357,6.31
1369,6.64
1381,6.95
1393,7.22
1405,7.43
1416,7.62
1427,7.83
1439,8.07
1451,8.34
1463,8.65
1475,8.98
1487,9.37
1499,9.82
1511,10.37
1523,11.02
1535,11.79
1547,12.65
1559,13.54
1571,14.29
1583,14.74
1595,14.76
1606,14.32
1617,13.5
1629,12.44
1641,11.29
1653,10.11
1665,8.95
1677,7.81
1689,6.67
1701,5.54
1713,4.43
1725,3.34
1737,2.32
1749,1.41
1761,0.68
1773,0.18
1785,-0.15
1796,-0.41
1807,-0.75
1819,-1.27
1831,-1.99
1843,-2.81
1855,-3.57
1867,-4.09
1879,-4.31
1891,-4.23
1903,-3.94
1915,-3.57
1927,-3.22
1939,-2.92
1951,-2.71
1963,-2.57
1975,-2.49
1986,-2.45
1997,-2.36
2009,-2.1
2021,-1.6
2033,-0.84
2045,0.06
2057,0.93
2069,1.56
2081,1.84
2093,1.77
2105,1.45
2117,1.06
2129,0.7
2141,0.46
2153,0.3
2165,0.16
2176,-0.01
2187,-0.26
2199,-0.56
2211,-0.85
2223,-1.09
2235,-1.24
2247,-1.26
2259,-1.16
2271,-0.88
2283,-0.39
2295,0.34
2307,1.27
2319,2.26
2331,3.13
2343,3.64
2355,3.69
2366,3.3
2377,2.66
2389,2.04
2401,1.68
2413,1.65
2425,1.91
2437,2.24
2449,2.41
2461,2.29
2473,1.86
2485,1.23
2497,0.58
2509,-0.03
2521,-0.61
2533,-1.26
2545,-2.03
2556,-2.88
2567,-3.63
2579,-4.07
2591,-4.05
2603,-3.59
2615,-2.82
2627,-1.94
2639,-1.04
2651,-0.14
2663,0.8
2675,1.8
2687,2.76
2699,3.51
2711,3.95
2723,4.05
2735,3.97
2746,3.94
2757,4.12
2769,4.49
2781,4.9
2793,5.11
2805,4.96
2817,4.47
2829,3.87
2841,3.42
2853,3.33
2865,3.62
2877,4.13
2889,4.6
2901,4.84
2913,4.78
2925,4.5
2936,4.2
2947,4.06
2959,4.21
2971,4.67
2983,5.44
2995,6.44
3007,7.62
3019,8.9
3031,10.16
3043,11.3
3055,12.19
3067,12.76
3079,12.94
3091,12.7
3103,12.06
3115,11.09
3126,9.89
3137,8.57
3149,7.26
3161,6.06
3173,5.02
3185,4.12
3197,3.28
3209,2.36
3221,1.23
3233,-0.19
3245,-1.88
3257,-3.71
3269,-5.45
3281,-6.81
3293,-7.6
3305,-7.73
3316,-7.27
3327,-6.38
3339,-5.3
3351,-4.21
3363,-3.24
3375,-2.45
3387,-1.8
3399,-1.25
3411,-0.73
3423,-0.21
3435,0.31
3447,0.8
3459,1.18
3471,1.36
3483,1.28
3495,0.93
3506,0.37
3517,-0.27
3529,-0.85
3541,-1.29
3553,-1.63
3565,-2.04
3577,-2.68
3589,-3.64
3601,-4.82
3613,-6.02
3625,-6.98
3637,-7.57
3649,-7.78
3661,-7.69
3673,-7.43
3685,-7.05
3696,-6.58
3707,-6.01
3719,-5.4
3731,-4.83
3743,-4.4
3755,-4.14
3767,-4.0
3779,-3.84
3791,-3.54
3803,-3.07
3815,-2.51
3827,-2.02
3839,-1.77
3851,-1.81
3863,-2.05
3875,-2.33
3886,-2.49
3897,-2.51
3909,-2.47
3921,-2.52
3933,-2.74
3945,-3.14
3957,-3.61
3969,-4.03
3981,-4.38
3993,-4.72
4005,-5.16
4017,-5.74
4029,-6.39
4041,-6.97
4053,-7.28
4065,-7.24
4076,-6.89
4087,-6.37
4099,-5.84
4111,-5.39
4123,-5.0
4135,-4.56
4147,-4.01
4159,-3.35
4171,-2.73
4183,-2.32
4195,-2.25
4207,-2.5
4219,-2.9
4231,-3.19
4243,-3.13
4255,-2.67
4266,-1.91
4277,-1.14
4289,-0.6
4301,-0.46
4313,-0.69
4325,-1.14
4337,-1.63
4349,-2.07
4361,-2.47
4373,-2.92
4385,-3.51
4397,-4.23
4409,-4.98
4421,-5.6
4433,-5.9
4445,-5.87
4456,-5.55
4467,-5.1
4479,-4.69
4491,-4.4
4503,-4.24
4515,-4.12
4527,-3.97
4539,-3.76
4551,-3.51
4563,-3.29
4575,-3.14
4587,-3.02
4599,-2.89
4611,-2.69
4623,-2.49
4635,-2.41
4646,-2.62
4657,-3.19
4669,-4.0
4681,-4.78
4693,-5.21
4705,-5.13
4717,-4.55
4729,-3.75
4741,-3.0
4753,-2.52
4765,-2.32
4777,-2.26
4789,-2.14
4801,-1.84
4813,-1.33
4825,-0.69
4836,0.03
4847,0.83
4859,1.81
4871,3.12
4883,4.84
4895,6.93
4907,9.2
4919,11.38
4931,13.25
4943,14.66
4955,15.64
4967,16.29
4979,16.71
4991,16.93
5003,16.87
5015,16.43
5026,15.58
5037,14.4
5049,13.03
5061,11.65
5073,10.32
5085,9.09
5097,7.94
5109,6.86
5121,5.85
5133,4.92
5145,4.02
5157,3.07
5169,2.03
5181,0.88
5193,-0.32
5205,-1.52
5216,-2.67
5227,-3.78
5239,-4.86
5251,-5.86
5263,-6.69
5275,-7.23
5287,-7.43
5299,-7.35
5311,-7.11
5323,-6.82
5335,-6.47
5347,-5.99
5359,-5.28
5371,-4.32
5383,-3.27
5395,-2.34
5406,-1.76
5417,-1.59
5429,-1.71
5441,-1.87
5453,-1.8
5465,-1.4
5477,-0.7
5489,0.11
5501,0.8
5513,1.2
5525,1.22
5537,0.92
5549,0.4
5561,-0.17
5573,-0.68
5585,-1.04
5596,-1.22
5607,-1.24
5619,-1.14
5631,-1.05
5643,-1.09
5655,-1.4
5667,-2.06
5679,-3.03
5691,-4.11
5703,-5.01
5715,-5.4
5727,-5.11
5739,-4.15
5751,-2.8
5763,-1.41
5775,-0.3
5786,0.38
5797,0.7
5809,0.85
5821,1.01
5833,1.23
5845,1.45
5857,1.53
5869,1.39
5881,1.09
5893,0.79
5905,0.66
5917,0.77
5929,1.02
5941,1.23
5953,1.16
5965,0.69
5976,-0.12
5987,-1.11
5999,-2.05
6011,-2.78
6023,-3.29
6035,-3.7
6047,-4.2
6059,-4.96
6071,-6.06
6083,-7.51
6095,-9.29
6107,-11.33
6119,-13.49
6131,-15.6
6143,-17.37
6155,-18.47
6166,-18.62
6177,-17.65
6189,-15.56
6201,-12.55
6213,-8.93
6225,-5.09
6237,-1.41
6249,1.84
6261,4.48
6273,6.44
6285,7.76
6297,8.5
6309,8.78
6321,8.72
6333,8.47
6345,8.19
6356,8.02
6367,8.02
6379,8.18
6391,8.47
6403,8.81
6415,9.16
6427,9.49
6439,9.79
6451,10.0
6463,10.06
6475,9.9
6487,9.48
6499,8.81
6511,7.91
6523,6.79
6535,5.45
6546,3.93
6557,2.33
6569,0.81
6581,-0.48
6593,-1.46
6605,-2.14
6617,-2.63
6629,-3.05
6641,-3.45
6653,-3.79
6665,-3.92
6677,-3.72
6689,-3.12
6701,-2.21
6713,-1.21
6725,-0.43
6736,-0.14
6747,-0.48
6759,-1.43
6771,-2.81
6783,-4.36
6795,-5.79
6807,-6.87
6819,-7.51
6831,-7.78
6843,-7.78
6855,-7.62
6867,-7.32
6879,-6.83
6891,-6.12
6903,-5.27
6915,-4.5
6926,-4.08
6937,-4.19
6949,-4.71
6961,-5.35
6973,-5.67
6985,-5.41
6997,-4.54
7009,-3.28
7021,-1.92
7033,-0.6
7045,0.67
7057,2.06
7069,3.62
7081,5.27
7093,6.78
7105,7.84
7116,8.33
7127,8.31
7139,7.99
7151,7.65
7163,7.48
7175,7.54
7187,7.78
7199,8.12
7211,8.45
7223,8.74
7235,8.94
7247,9.0
7259,8.87
7271,8.52
7283,7.99
7295,7.35
7306,6.7
7317,6.07
7329,5.45
7341,4.79
7353,4.09
7365,3.39
7377,2.8
7389,2.39
7401,2.2
7413,2.22
7425,2.45
7437,2.91
7449,3.62
7461,4.59
7473,5.71
7485,6.75
7496,7.47
7507,7.7
7519,7.49
7531,7.02
7543,6.62
7555,6.48
7567,6.67
7579,7.02
7591,7.25
7603,7.16
7615,6.67
7627,5.91
7639,5.16
7651,4.67
7663,4.58
7675,4.88
7686,5.44
7697,6.1
7709,6.71
7721,7.15
7733,7.33
7745,7.19
7757,6.72
7769,6.05
7781,5.41
7793,5.03
7805,5.06
7817,5.42
7829,5.86
7841,6.06
7853,5.85
7865,5.26
7876,4.6
7887,4.21
7899,4.33
7911,4.92
7923,5.61
7935,5.89
7947,5.19
7959,3.22
7971,0.03
7983,-3.89
7995,-7.67
8007,-10.3
8019,-10.91
8031,-9.01
8043,-4.72
8055,1.18
8066,7.46
8077,12.64
8089,15.39
8101,14.88
8113,10.95
8125,4.15
8137,-4.44
8149,-13.52
8161,-21.87
8173,-28.6
8185,-33.21
8197,-35.53
8209,-35.74
8221,-34.23
8233,-31.61
8245,-28.59
8256,-25.83
8267,-23.79
8279,-22.61
8291,-22.1
8303,-21.97
8315,-21.96
8327,-21.98
8339,-22.05
8351,-22.24
8363,-22.61
8375,-23.15
8387,-23.84
8399,-24.66
8411,-25.59
8423,-26.55
8435,-27.41
8446,-28.03
8457,-28.31
8469,-28.2
8481,-27.69
8493,-26.74
8505,-25.25
8517,-23.07
8529,-20.15
8541,-16.59
8553,-12.65
8565,-8.63
8577,-4.73
8589,-0.99
8601,2.72
8613,6.47
8625,10.29
8636,14.07
8647,17.6
8659,20.75
8671,23.47
8683,25.75
8695,27.62
8707,29.08
8719,30.07
8731,30.52
8743,30.44
8755,29.89
8767,29.02
8779,28.08
8791,27.34
8803,27.03
8815,27.25
8826,27.98
8837,29.05
8849,30.21
8861,31.2
8873,31.88
8885,32.16
8897,32.05
8909,31.55
8921,30.66
8933,29.42
8945,27.98
8957,26.63
8969,25.68
8981,25.3
8993,25.39
9005,25.52
9016,25.14
9027,23.81
9039,21.44
9051,18.29
9063,14.85
9075,11.55
9087,8.64
9099,6.13
9111,3.95
9123,2.05
9135,0.42
9147,-0.94
9159,-2.09
9171,-3.23
9183,-4.51
9195,-6.0
9206,-7.53
9217,-8.83
9229,-9.58
9241,-9.68
9253,-9.29
9265,-8.78
9277,-8.59
9289,-9.03
9301,-10.16
9313,-11.84
9325,-13.77
9337,-15.6
9349,-17.1
9361,-18.1
9373,-18.61
9385,-18.68
9396,-18.47
9407,-18.15
9419,-17.89
9431,-17.79
9443,-17.85
9455,-18.02
9467,-18.15
9479,-18.15
9491,-17.99
9503,-17.68
9515,-17.25
9527,-16.66
9539,-15.82
9551,-14.64
9563,-13.06
9575,-11.17
9586,-9.17
9597,-7.32
9609,-5.85
9621,-4.87
9633,-4.33
9645,-4.06
9657,-3.91
9669,-3.8
9681,-3.72
9693,-3.73
9705,-3.83
9717,-3.93
9729,-3.81
9741,-3.23
9753,-2.08
9765,-0.43
9776,1.52
9787,3.47
9799,5.19
9811,6.6
9823,7.78
9835,8.85
9847,9.94
9859,11.01
9871,11.91
9883,12.39
9895,12.23
9907,11.33
9919,9.81
9931,7.95
9943,6.09
9955,4.51
9966,3.27
9977,2.32
9989,1.5
10001,0.74
10013,0.07
10025,-0.44
10037,-0.77
10049,-0.99
10061,-1.33
10073,-1.96
10085,-2.96
10097,-4.16
10109,-5.28
10121,-6.01
10133,-6.14
10145,-5.64
10156,-4.7
10167,-3.6
10179,-2.63
10191,-2.0
10203,-1.76
10215,-1.81
10227,-2.01
10239,-2.17
10251,-2.18
10263,-2.03
10275,-1.78
10287,-1.5
10299,-1.21
10311,-0.87
10323,-0.45
10335,0.07
10346,0.62
10357,1.06
10369,1.26
10381,1.17
10393,0.85
10405,0.45
10417,0.09
10429,-0.19
10441,-0.45
10453,-0.78
10465,-1.25
10477,-1.84
10489,-2.42
10501,-2.85
10513,-3.0
10525,-2.78
10536,-2.21
10547,-1.33
10559,-0.29
10571,0.76
10583,1.65
10595,2.29
10607,2.65
10619,2.83
10631,2.94
10643,3.07
10655,3.24
10667,3.42
10679,3.63
10691,3.92
10703,4.34
10715,4.88
10726,5.42
10737,5.78
10749,5.78
10761,5.41
10773,4.75
10785,4.0
10797,3.31
10809,2.72
10821,2.2
10833,1.69
10845,1.22
10857,0.89
10869,0.85
10881,1.19
10893,1.92
10905,2.93
10916,4.05
10927,5.16
10939,6.19
10951,7.11
10963,7.9
10975,8.5
10987,8.83
10999,8.84
11011,8.55
11023,8.04
11035,7.5
11047,7.06
11059,6.82
11071,6.78
11083,6.82
11095,6.84
11106,6.73
11117,6.42
11129,5.94
11141,5.31
11153,4.63
11165,3.95
11177,3.35
11189,2.85
11201,2.46
11213,2.14
11225,1.85
11237,1.6
11249,1.38
11261,1.25
11273,1.21
11285,1.26
11296,1.36
11307,1.46
11319,1.49
11331,1.4
11343,1.15
11355,0.68
11367,0.0
11379,-0.86
11391,-1.8
11403,-2.66
11415,-3.27
11427,-3.54
11439,-3.5
11451,-3.28
11463,-3.06
11475,-2.93
11486,-2.85
11497,-2.65
11509,-2.12
11521,-1.18
11533,0.09
11545,1.49
11557,2.8
11569,3.85
11581,4.61
11593,5.1
11605,5.36
11617,5.39
11629,5.17
11641,4.65
11653,3.84
11665,2.74
11676,1.37
11687,-0.22
11699,-1.93
11711,-3.63
11723,-5.12
11735,-6.23
11747,-6.88
11759,-7.05
11771,-6.83
11783,-6.3
11795,-5.51
11807,-4.51
11819,-3.43
11831,-2.48
11843,-1.94
11855,-2.04
11866,-2.77
11877,-3.89
11889,-4.98
11901,-5.66
11913,-5.79
11925,-5.48
11937,-5.0
11949,-4.59
11961,-4.29
11973,-3.99
11985,-3.54
11997,-2.86
12009,-2.08
12021,-1.41
12033,-1.02
12045,-0.92
12056,-0.99
12067,-1.03
12079,-0.9
12091,-0.6
12103,-0.23
12115,0.07
12127,0.18
12139,0.11
12151,-0.09
12163,-0.3
12175,-0.42
12187,-0.38
12199,-0.18
12211,0.12
12223,0.43
12235,0.69
12246,0.88
12257,1.0
12269,1.11
12281,1.18
12293,1.14
12305,0.91
12317,0.39
12329,-0.37
12341,-1.18
12353,-1.84
12365,-2.15
12377,-2.06
12389,-1.67
12401,-1.18
12413,-0.84
12425,-0.78
12436,-1.02
12447,-1.43
12459,-1.78
12471,-1.9
12483,-1.71
12495,-1.32
12507,-0.9
12519,-0.58
12531,-0.37
12543,-0.12
12555,0.36
12567,1.18
12579,2.23
12591,3.28
12603,4.05
12615,4.43
12626,4.47
12637,4.35
12649,4.21
12661,4.0
12673,3.58
12685,2.79
12697,1.66
12709,0.45
12721,-0.47
12733,-0.83
12745,-0.62
12757,-0.09
12769,0.42
12781,0.68
12793,0.61
12805,0.3
12816,-0.13
12827,-0.59
12839,-1.12
12851,-1.75
12863,-2.5
12875,-3.27
12887,-3.92
12899,-4.34
12911,-4.49
12923,-4.51
12935,-4.58
12947,-4.83
12959,-5.3
12971,-5.84
12983,-6.27
12995,-6.43
13006,-6.32
13017,-6.06
13029,-5.86
13041,-5.87
13053,-6.12
13065,-6.49
13077,-6.8
13089,-6.84
13101,-6.5
13113,-5.76
13125,-4.72
13137,-3.57
13149,-2.5
13161,-1.69
13173,-1.21
13185,-1.01
13196,-0.94
13207,-0.82
13219,-0.52
13231,0.02
13243,0.74
13255,1.52
13267,2.23
13279,2.78
13291,3.1
13303,3.19
13315,3.1
13327,2.92
13339,2.76
13351,2.7
13363,2.78
13375,2.92
13386,2.98
13397,2.81
13409,2.33
13421,1.54
13433,0.61
13445,-0.25
13457,-0.82
13469,-0.96
13481,-0.63
13493,0.07
13505,0.99
13517,1.96
13529,2.86
13541,3.6
13553,4.18
13565,4.67
13576,5.15
13587,5.7
13599,6.35
13611,7.05
13623,7.7
13635,8.22
13647,8.58
13659,8.79
13671,8.89
13683,8.89
13695,8.79
13707,8.56
13719,8.17
13731,7.62
13743,6.94
13755,6.18
13766,5.36
13777,4.46
13789,3.48
13801,2.39
13813,1.2
13825,-0.04
13837,-1.26
13849,-2.38
13861,-3.34
13873,-4.09
13885,-4.62
13897,-4.95
13909,-5.07
13921,-4.96
13933,-4.61
13945,-4.05
13956,-3.33
13967,-2.55
13979,-1.85
13991,-1.34
14003,-1.07
14015,-1.04
14027,-1.19
14039,-1.42
14051,-1.64
14063,-1.81
14075,-1.96
14087,-2.14
14099,-2.42
14111,-2.79
14123,-3.21
14135,-3.58
14146,-3.84
14157,-3.99
14169,-4.08
14181,-4.14
14193,-4.18
14205,-4.2
14217,-4.16
14229,-4.06
14241,-3.96
14253,-3.94
14265,-4.04
14277,-4.23
14289,-4.39
14301,-4.39
14313,-4.13
14325,-3.58
14336,-2.8
14347,-1.9
14359,-0.96
14371,-0.05
14383,0.78
14395,1.5
14407,2.05
14419,2.38
14431,2.48
14443,2.39
14455,2.18
14467,1.96
14479,1.8
14491,1.7
14503,1.66
14515,1.65
14526,1.63
14537,1.56
14549,1.42
14561,1.17
14573,0.84
14585,0.48
14597,0.21
14609,0.14
14621,0.3
14633,0.59
14645,0.86
14657,0.96
14669,0.87
14681,0.7
14693,0.68
14705,0.96
14716,1.56
14727,2.32
14739,3.01
14751,3.41
14763,3.47
14775,3.28
14787,3.02
14799,2.91
14811,3.07
14823,3.52
14835,4.17
14847,4.87
14859,5.4
14871,5.54
14883,5.16
14895,4.22
14906,2.81
14917,1.12
14929,-0.61
14941,-2.14
14953,-3.29
14965,-3.95
14977,-4.1
14989,-3.82
15001,-3.18
15013,-2.3
15025,-1.28
15037,-0.24
15049,0.7
15061,1.42
15073,1.84
15085,2.01
15096,2.09
15107,2.28
15119,2.74
15131,3.5
15143,4.38
15155,5.06
15167,5.29
15179,4.97
15191,4.25
15203,3.44
15215,2.89
15227,2.78
15239,3.11
15251,3.65
15263,4.17
15275,4.46
15286,4.47
15297,4.27
15309,3.94
15321,3.57
15333,3.19
15345,2.78
15357,2.41
15369,2.15
15381,2.1
15393,2.32
15405,2.75
15417,3.24
15429,3.59
15441,3.6
15453,3.2
15465,2.47
15476,1.61
15487,0.84
15499,0.36
15511,0.21
15523,0.28
15535,0.33
15547,0.08
15559,-0.61
15571,-1.75
15583,-3.19
15595,-4.66
15607,-5.92
15619,-6.8
15631,-7.26
15643,-7.34
15655,-7.14
15666,-6.81
15677,-6.52
15689,-6.42
15701,-6.64
15713,-7.24
15725,-8.14
15737,-9.14
15749,-9.98
15761,-10.41
15773,-10.35
15785,-9.87
15797,-9.17
15809,-8.51
15821,-8.04
15833,-7.84
15845,-7.86
15856,-7.97
15867,-8.04
15879,-7.95
15891,-7.59
15903,-6.93
15915,-6.0
15927,-4.91
15939,-3.87
15951,-3.04
15963,-2.57
15975,-2.49
15987,-2.76
15999,-3.25
16011,-3.81
16023,-4.25
16035,-4.45
16046,-4.31
16057,-3.86
16069,-3.23
16081,-2.6
16093,-2.11
16105,-1.82
16117,-1.65
16129,-1.46
16141,-1.09
16153,-0.46
16165,0.39
16177,1.32
16189,2.19
16201,2.9
16213,3.4
16225,3.7
16236,3.84
16247,3.86
16259,3.82
16271,3.75
16283,3.71
16295,3.79
16307,4.06
16319,4.54
16331,5.2
16343,5.89
16355,6.45
16367,6.71
16379,6.57
16391,6.07
16403,5.35
16415,4.56
16426,3.83
16437,3.16
16449,2.46
16461,1.59
16473,0.45
16485,-0.92
16497,-2.38
16509,-3.71
16521,-4.7
16533,-5.28
16545,-5.55
16557,-5.68
16569,-5.9
16581,-6.37
16593,-7.1
16605,-8.0
16616,-8.92
16627,-9.71
16639,-10.26
16651,-10.5
16663,-10.42
16675,-10.05
16687,-9.45
16699,-8.69
16711,-7.84
16723,-6.99
16735,-6.21
16747,-5.55
16759,-5.03
16771,-4.67
16783,-4.44
16795,-4.26
16806,-4.08
16817,-3.86
16829,-3.64
16841,-3.52
16853,-3.6
16865,-3.88
16877,-4.29
16889,-4.65
16901,-4.83
16913,-4.77
16925,-4.51
16937,-4.15
16949,-3.73
16961,-3.24
16973,-2.58
16985,-1.69
16996,-0.6
17007,0.53
17019,1.49
17031,2.1
17043,2.34
17055,2.36
17067,2.38
17079,2.62
17091,3.16
17103,3.89
17115,4.61
17127,5.12
17139,5.33
17151,5.27
17163,5.06
17175,4.81
17186,4.56
17197,4.3
17209,4.0
17221,3.65
17233,3.3
17245,3.0
17257,2.74
17269,2.49
17281,2.2
17293,1.87
17305,1.58
17317,1.46
17329,1.64
17341,2.14
17353,2.92
17365,3.87
17376,4.85
17387,5.73
17399,6.43
17411,6.92
17423,7.18
17435,7.24
17447,7.17
17459,7.02
17471,6.89
17483,6.87
17495,7.0
17507,7.24
17519,7.51
17531,7.67
17543,7.61
17555,7.31
17566,6.84
17577,6.32
17589,5.87
17601,5.52
17613,5.22
17625,4.87
17637,4.4
17649,3.8
17661,3.15
17673,2.52
17685,1.99
17697,1.53
17709,1.11
17721,0.71
17733,0.35
17745,0.08
17756,-0.06
17767,-0.12
17779,-0.18
17791,-0.32
17803,-0.53
17815,-0.71
17827,-0.7
17839,-0.39
17851,0.22
17863,0.98
17875,1.67
17887,2.11
17899,2.21
17911,1.99
17923,1.54
17935,0.9
17946,0.14
17957,-0.71
17969,-1.51
17981,-2.13
17993,-2.45
18005,-2.44
18017,-2.23
18029,-2.04
18041,-2.06
18053,-2.39
18065,-2.99
18077,-3.7
18089,-4.3
18101,-4.68
18113,-4.78
18125,-4.63
18136,-4.29
18147,-3.84
18159,-3.39
18171,-3.03
18183,-2.84
18195,-2.85
18207,-3.0
18219,-3.11
18231,-3.02
18243,-2.59
18255,-1.82
18267,-0.83
18279,0.15
18291,0.93
18303,1.33
18315,1.33
18326,1.0
18337,0.49
18349,-0.0
18361,-0.33
18373,-0.48
18385,-0.49
18397,-0.51
18409,-0.65
18421,-0.93
18433,-1.28
18445,-1.57
18457,-1.72
18469,-1.71
18481,-1.63
18493,-1.55
18505,-1.51
18516,-1.46
18527,-1.28
18539,-0.88
18551,-0.28
18563,0.42
18575,1.06
18587,1.52
18599,1.8
18611,1.98
18623,2.19
18635,2.5
18647,2.86
18659,3.14
18671,3.22
18683,3.05
18695,2.66
18706,2.19
18717,1.73
18729,1.33
18741,0.93
18753,0.49
18765,-0.04
18777,-0.61
18789,-1.15
18801,-1.56
18813,-1.77
18825,-1.78
18837,-1.61
18849,-1.31
18861,-0.92
18873,-0.46
18885,0.04
18896,0.58
18907,1.09
18919,1.55
18931,1.91
18943,2.14
18955,2.23
18967,2.14
18979,1.91
18991,1.58
19003,1.25
19015,1.01
19027,0.9
19039,0.87
19051,0.78
19063,0.51
19075,0.03
19086,-0.6
19097,-1.24
19109,-1.72
19121,-1.98
19133,-2.07
19145,-2.1
19157,-2.16
19169,-2.24
19181,-2.26
19193,-2.11
19205,-1.73
19217,-1.16
19229,-0.51
19241,0.1
19253,0.57
19265,0.86
19276,0.99
19287,1.05
19299,1.1
19311,1.19
19323,1.32
19335,1.47
19347,1.63
19359,1.76
19371,1.85
19383,1.84
19395,1.72
19407,1.45
19419,1.08
19431,0.67
19443,0.31
19455,0.07
19466,-0.02
19477,0.03
19489,0.19
19501,0.39
19513,0.57
19525,0.66
19537,0.6
19549,0.39
19561,0.17
19573,0.14
19585,0.52
19597,1.38
19609,2.56
19621,3.79
19633,4.75
19645,5.26
19656,5.36
19667,5.24
19679,5.1
19691,5.04
19703,4.96
19715,4.73
19727,4.28
19739,3.66
19751,3.02
19763,2.53
19775,2.26
19787,2.16
19799,2.09
19811,1.9
19823,1.49
19835,0.83
19846,-0.0
19857,-0.86
19869,-1.56
19881,-1.91
19893,-1.8
19905,-1.24
19917,-0.36
19929,0.61
19941,1.48
19953,2.13
19965,2.59
19977,2.94
19989,3.24
20001,3.44
20013,3.45
20025,3.17
20036,2.65
20047,2.03
20059,1.56
20071,1.44
20083,1.68
20095,2.09
20107,2.39
20119,2.33
20131,1.85
20143,1.07
20155,0.22
20167,-0.51
20179,-1.09
20191,-1.59
20203,-2.14
20215,-2.75
20226,-3.28
20237,-3.52
20249,-3.33
20261,-2.73
20273,-1.91
20285,-1.11
20297,-0.5
20309,-0.06
20321,0.39
20333,0.98
20345,1.8
20357,2.73
20369,3.57
20381,4.1
20393,4.22
20405,3.97
20416,3.5
20427,3.08
20439,2.88
20451,3.02
20463,3.41
20475,3.89
20487,4.22
20499,4.21
20511,3.82
20523,3.11
20535,2.22
20547,1.32
20559,0.54
20571,-0.06
20583,-0.5
20595,-0.83
20606,-1.13
20617,-1.48
20629,-1.91
20641,-2.44
20653,-3.0
20665,-3.54
20677,-3.99
20689,-4.31
20701,-4.49
20713,-4.55
20725,-4.5
20737,-4.4
20749,-4.3
20761,-4.27
20773,-4.36
20785,-4.55
20796,-4.8
20807,-5.03
20819,-5.21
20831,-5.34
20843,-5.47
20855,-5.6
20867,-5.73
20879,-5.85
20891,-5.94
20903,-6.02
20915,-6.15
20927,-6.35
20939,-6.58
20951,-6.75
20963,-6.74
20975,-6.53
20986,-6.2
20997,-5.9
