seconds,BVP
10,10.31
22,10.33
34,9.6
46,8.32
58,6.82
70,5.52
82,4.78
94,4.81
106,5.55
118,6.74
130,7.99
141,8.97
152,9.52
164,9.63
176,9.45
188,9.15
200,8.85
212,8.54
224,8.13
236,7.49
248,6.54
260,5.26
272,3.68
284,1.92
296,0.08
308,-1.75
320,-3.54
331,-5.33
342,-7.15
354,-9.04
366,-10.96
378,-12.81
390,-14.46
402,-15.78
414,-16.77
426,-17.51
438,-18.14
450,-18.82
462,-19.62
474,-20.58
486,-21.7
498,-22.97
510,-24.4
521,-25.89
532,-27.19
544,-27.83
556,-27.24
568,-24.92
580,-20.64
592,-14.64
604,-7.54
616,-0.19
628,6.66
640,12.48
652,17.1
664,20.53
676,22.9
688,24.25
700,24.62
711,24.08
722,22.82
734,21.13
746,19.35
758,17.74
770,16.46
782,15.58
794,15.06
806,14.9
818,15.07
830,15.53
842,16.18
854,16.86
866,17.41
878,17.72
890,17.71
901,17.4
912,16.83
924,16.05
936,15.12
948,14.09
960,13.0
972,11.89
984,10.74
996,9.46
1008,7.94
1020,6.08
1032,3.84
1044,1.31
1056,-1.33
1068,-3.86
1080,-6.09
1091,-7.92
1102,-9.41
1114,-10.7
1126,-11.97
1138,-13.39
1150,-15.06
1162,-16.98
1174,-19.09
1186,-21.22
1198,-23.05
1210,-24.14
1222,-23.97
1234,-22.13
1246,-18.48
1258,-13.25
1270,-6.99
1281,-0.43
1292,5.8
1304,11.28
1316,15.83
1328,19.35
1340,21.73
1352,22.77
1364,22.34
1376,20.47
1388,17.42
1400,13.7
1412,9.85
1424,6.31
1436,3.38
1448,1.16
1460,-0.37
1471,-1.26
1482,-1.58
1494,-1.46
1506,-1.07
1518,-0.66
1530,-0.51
1542,-0.82
1554,-1.65
1566,-2.92
1578,-4.43
1590,-5.94
1602,-7.27
1614,-8.38
1626,-9.35
1638,-10.31
1650,-11.39
1661,-12.6
1672,-13.88
1684,-15.09
1696,-16.12
1708,-16.93
1720,-17.58
1732,-18.19
1744,-18.86
1756,-19.73
1768,-20.86
1780,-22.3
1792,-24.06
1804,-26.05
1816,-28.03
1828,-29.57
1840,-30.21
1851,-29.58
1862,-27.61
1874,-24.52
1886,-20.74
1898,-16.67
1910,-12.53
1922,-8.34
1934,-4.08
1946,0.15
1958,4.07
1970,7.25
1982,9.41
1994,10.5
2006,10.81
2018,10.84
2030,11.09
2041,11.88
2052,13.24
2064,15.0
2076,16.83
2088,18.44
2100,19.63
2112,20.34
2124,20.6
2136,20.46
2148,19.99
2160,19.18
2172,18.0
2184,16.41
2196,14.44
2208,12.1
2220,9.42
2231,6.43
2242,3.16
2254,-0.3
2266,-3.77
2278,-7.01
2290,-9.74
2302,-11.7
2314,-12.71
2326,-12.78
2338,-12.09
2350,-10.98
2362,-9.94
2374,-9.44
2386,-9.9
2398,-11.52
2410,-14.22
2421,-17.59
2432,-20.95
2444,-23.47
2456,-24.41
2468,-23.29
2480,-20.05
2492,-15.11
2504,-9.17
2516,-3.06
2528,2.5
2540,7.1
2552,10.57
2564,13.03
2576,14.62
2588,15.56
2600,16.03
2611,16.23
2622,16.41
2634,16.83
2646,17.68
2658,19.07
2670,20.93
2682,23.07
2694,25.18
2706,26.95
2718,28.14
2730,28.66
2742,28.55
2754,28.0
2766,27.18
2778,26.2
2790,25.03
2801,23.53
2812,21.52
2824,18.99
2836,16.08
2848,13.07
2860,10.29
2872,7.97
2884,6.12
2896,4.62
2908,3.24
2920,1.79
2932,0.21
2944,-1.43
2956,-2.96
2968,-4.22
2980,-5.15
2991,-5.78
3002,-6.25
3014,-6.79
3026,-7.63
3038,-8.92
3050,-10.66
3062,-12.61
3074,-14.36
3086,-15.39
3098,-15.24
3110,-13.68
3122,-10.78
3134,-6.89
3146,-2.52
3158,1.8
3170,5.64
3181,8.72
3192,10.92
3204,12.2
3216,12.59
3228,12.09
3240,10.79
3252,8.8
3264,6.37
3276,3.82
3288,1.49
3300,-0.34
3312,-1.57
3324,-2.22
3336,-2.43
3348,-2.31
3360,-1.85
3371,-0.99
3382,0.35
3394,2.09
3406,4.02
3418,5.82
3430,7.2
3442,8.02
3454,8.34
3466,8.25
3478,7.88
3490,7.2
3502,6.15
3514,4.68
3526,2.81
3538,0.73
3550,-1.38
3561,-3.32
3572,-5.06
3584,-6.69
3596,-8.33
3608,-10.04
3620,-11.78
3632,-13.43
3644,-14.88
3656,-16.09
3668,-17.11
3680,-18.04
3692,-19.07
3704,-20.32
3716,-21.88
3728,-23.65
3740,-25.35
3751,-26.48
3762,-26.43
3774,-24.65
3786,-20.9
3798,-15.34
3810,-8.53
3822,-1.27
3834,5.69
3846,11.83
3858,16.93
3870,21.04
3882,24.33
3894,26.96
3906,29.05
3918,30.7
3930,32.01
3941,33.07
3952,33.89
3964,34.36
3976,34.25
3988,33.27
4000,31.25
4012,28.27
4024,24.65
4036,20.83
4048,17.23
4060,14.04
4072,11.23
4084,8.59
4096,5.91
4108,3.1
4120,0.22
4131,-2.56
4142,-5.06
4154,-7.18
4166,-8.86
4178,-10.18
4190,-11.22
4202,-12.11
4214,-12.97
4226,-13.89
4238,-14.92
4250,-16.04
4262,-17.19
4274,-18.24
4286,-19.11
4298,-19.8
4310,-20.4
4321,-21.06
4332,-21.87
4344,-22.83
4356,-23.84
4368,-24.69
4380,-25.14
4392,-24.97
4404,-23.97
4416,-21.99
4428,-18.97
4440,-14.97
4452,-10.21
4464,-5.08
4476,0.01
4488,4.65
4500,8.52
4511,11.47
4522,13.42
4534,14.36
4546,14.4
4558,13.69
4570,12.46
4582,10.99
4594,9.55
4606,8.33
4618,7.45
4630,7.04
4642,7.21
4654,8.06
4666,9.63
4678,11.8
4690,14.26
4701,16.62
4712,18.44
4724,19.46
4736,19.63
4748,19.13
4760,18.22
4772,17.15
4784,16.1
4796,15.09
4808,14.09
4820,13.01
4832,11.76
4844,10.2
4856,8.19
4868,5.65
4880,2.61
4891,-0.71
4902,-3.94
4914,-6.71
4926,-8.8
4938,-10.26
4950,-11.45
4962,-12.84
4974,-14.91
4986,-18.03
4998,-22.28
5010,-27.49
5022,-33.16
5034,-38.52
5046,-42.61
5058,-44.59
5070,-43.92
5081,-40.6
5092,-35.18
5104,-28.57
5116,-21.72
5128,-15.39
5140,-10.01
5152,-5.69
5164,-2.39
5176,0.03
5188,1.69
5200,2.76
5212,3.45
5224,3.94
5236,4.43
5248,5.02
5260,5.79
5271,6.77
5282,7.98
5294,9.38
5306,10.89
5318,12.34
5330,13.54
5342,14.36
5354,14.74
5366,14.72
5378,14.38
5390,13.74
5402,12.8
5414,11.49
5426,9.79
5438,7.79
5450,5.64
5461,3.55
5472,1.71
5484,0.21
5496,-1.02
5508,-2.13
5520,-3.28
5532,-4.61
5544,-6.13
5556,-7.74
5568,-9.25
5580,-10.51
5592,-11.45
5604,-12.16
5616,-12.87
5628,-13.83
5640,-15.28
5651,-17.35
5662,-20.01
5674,-23.08
5686,-26.25
5698,-29.07
5710,-30.97
5722,-31.41
5734,-30.0
5746,-26.66
5758,-21.61
5770,-15.43
5782,-8.79
5794,-2.35
5806,3.45
5818,8.33
5830,12.2
5841,15.01
5852,16.75
5864,17.46
5876,17.25
5888,16.32
5900,14.96
5912,13.52
5924,12.31
5936,11.56
5948,11.36
5960,11.68
5972,12.36
5984,13.18
5996,13.93
6008,14.49
6020,14.81
6031,14.93
6042,14.89
6054,14.7
6066,14.32
6078,13.67
6090,12.69
6102,11.37
6114,9.8
6126,8.12
6138,6.5
6150,5.04
6162,3.73
6174,2.48
6186,1.19
6198,-0.23
6210,-1.76
6221,-3.31
6232,-4.74
6244,-5.97
6256,-7.01
6268,-7.98
6280,-9.02
6292,-10.23
6304,-11.64
6316,-13.22
6328,-14.96
6340,-16.85
6352,-18.87
6364,-20.91
6376,-22.66
6388,-23.64
6400,-23.33
6411,-21.36
6422,-17.69
6434,-12.69
6446,-6.99
6458,-1.33
6470,3.75
6482,7.93
6494,11.11
6506,13.3
6518,14.51
6530,14.72
6542,13.97
6554,12.43
6566,10.44
6578,8.45
6590,6.85
6601,5.9
6612,5.64
6624,5.91
6636,6.46
6648,7.06
6660,7.56
6672,7.92
6684,8.13
6696,8.17
6708,7.97
6720,7.47
6732,6.57
6744,5.22
6756,3.45
6768,1.33
6780,-0.99
6791,-3.32
6802,-5.5
6814,-7.45
6826,-9.18
6838,-10.72
6850,-12.12
6862,-13.36
6874,-14.36
6886,-15.05
6898,-15.41
6910,-15.5
6922,-15.41
6934,-15.26
6946,-15.11
6958,-15.01
6970,-15.09
6981,-15.5
6992,-16.38
7004,-17.73
7016,-19.24
7028,-20.31
7040,-20.17
7052,-18.21
7064,-14.23
7076,-8.53
7088,-1.83
7100,5.04
7112,11.35
7124,16.65
7136,20.77
7148,23.73
7160,25.59
7171,26.4
7182,26.23
7194,25.19
7206,23.48
7218,21.4
7230,19.26
7242,17.32
7254,15.76
7266,14.67
7278,14.03
7290,13.75
7302,13.69
7314,13.69
7326,13.62
7338,13.42
7350,13.06
7361,12.55
7372,11.92
7384,11.2
7396,10.41
7408,9.57
7420,8.66
7432,7.68
7444,6.62
7456,5.49
7468,4.36
7480,3.36
7492,2.57
7504,1.98
7516,1.51
7528,0.99
7540,0.28
7551,-0.67
7562,-1.72
7574,-2.68
7586,-3.41
7598,-3.89
7610,-4.28
7622,-4.89
7634,-6.03
7646,-7.91
7658,-10.53
7670,-13.62
7682,-16.67
7694,-19.02
7706,-20.02
7718,-19.24
7730,-16.59
7741,-12.4
7752,-7.28
7764,-1.9
7776,3.18
7788,7.65
7800,11.45
7812,14.65
7824,17.31
7836,19.44
7848,20.9
7860,21.58
7872,21.45
7884,20.64
7896,19.45
7908,18.26
7920,17.47
7931,17.36
7942,18.06
7954,19.58
7966,21.78
7978,24.35
7990,26.85
8002,28.76
8014,29.55
8026,28.88
8038,26.69
8050,23.22
8062,18.95
8074,14.45
8086,10.18
8098,6.41
8110,3.19
8121,0.47
8132,-1.93
8144,-4.17
8156,-6.4
8168,-8.74
8180,-11.23
8192,-13.83
8204,-16.44
8216,-18.88
8228,-21.01
8240,-22.69
8252,-23.92
8264,-24.77
8276,-25.36
8288,-25.86
8300,-26.35
8311,-26.92
8322,-27.62
8334,-28.54
8346,-29.68
8358,-30.9
8370,-31.86
8382,-32.01
8394,-30.79
8406,-27.84
8418,-23.15
8430,-17.13
8442,-10.41
8454,-3.64
8466,2.68
8478,8.21
8490,12.66
8501,15.75
8512,17.22
8524,16.98
8536,15.24
8548,12.5
8560,9.44
8572,6.72
8584,4.79
8596,3.87
8608,3.92
8620,4.84
8632,6.4
8644,8.38
8656,10.5
8668,12.48
8680,14.01
8691,14.89
8702,15.05
8714,14.53
8726,13.43
8738,11.89
8750,10.06
8762,8.06
8774,5.99
8786,3.93
8798,1.97
8810,0.11
8822,-1.67
8834,-3.41
8846,-5.17
8858,-6.93
8870,-8.66
8881,-10.27
8892,-11.7
8904,-12.94
8916,-14.08
8928,-15.26
8940,-16.58
8952,-18.12
8964,-19.87
8976,-21.84
8988,-23.98
9000,-26.19
9012,-28.28
9024,-29.88
9036,-30.54
9048,-29.83
9060,-27.52
9071,-23.68
9082,-18.66
9094,-13.0
9106,-7.25
9118,-1.85
9130,2.9
9142,6.84
9154,9.81
9166,11.65
9178,12.26
9190,11.62
9202,9.9
9214,7.49
9226,4.85
9238,2.49
9250,0.76
9261,-0.15
9272,-0.24
9284,0.42
9296,1.74
9308,3.65
9320,6.03
9332,8.7
9344,11.38
9356,13.72
9368,15.4
9380,16.25
9392,16.27
9404,15.61
9416,14.49
9428,13.1
9440,11.6
9451,10.02
9462,8.32
9474,6.33
9486,3.84
9498,0.68
9510,-3.24
9522,-7.81
9534,-12.74
9546,-17.63
9558,-22.05
9570,-25.65
9582,-28.27
9594,-29.91
9606,-30.76
9618,-31.15
9630,-31.48
9641,-32.06
9652,-32.95
9664,-33.8
9676,-33.92
9688,-32.48
9700,-28.84
9712,-22.86
9724,-14.98
9736,-6.07
9748,2.87
9760,11.05
9772,18.0
9784,23.55
9796,27.67
9808,30.33
9820,31.51
9831,31.29
9842,29.98
9854,28.07
9866,26.23
9878,25.0
9890,24.72
9902,25.34
9914,26.52
9926,27.7
9938,28.39
9950,28.26
9962,27.32
9974,25.87
9986,24.36
9998,23.21
10010,22.61
10021,22.45
10032,22.39
10044,22.02
10056,21.01
10068,19.3
10080,17.01
10092,14.43
10104,11.92
10116,9.85
10128,8.52
10140,8.12
10152,8.66
10164,9.9
10176,11.34
10188,12.38
10200,12.47
10211,11.29
10222,8.85
10234,5.44
10246,1.51
10258,-2.56
10270,-6.61
10282,-10.71
10294,-15.14
10306,-20.09
10318,-25.51
10330,-30.95
10342,-35.68
10354,-38.91
10366,-40.11
10378,-39.24
10390,-36.69
10401,-33.11
10412,-29.1
10424,-25.01
10436,-20.96
10448,-17.02
10460,-13.35
10472,-10.29
10484,-8.23
10496,-7.38
10508,-7.63
10520,-8.52
10532,-9.41
10544,-9.7
10556,-9.05
10568,-7.38
10580,-4.9
10591,-1.89
10602,1.43
10614,4.96
10626,8.7
10638,12.62
10650,16.57
10662,20.24
10674,23.23
10686,25.18
10698,25.92
10710,25.54
10722,24.34
10734,22.72
10746,21.05
10758,19.58
10770,18.45
10781,17.67
10792,17.19
10804,16.87
10816,16.5
10828,15.79
10840,14.42
10852,12.13
10864,8.84
10876,4.65
10888,-0.19
10900,-5.35
10912,-10.49
10924,-15.44
10936,-20.16
10948,-24.66
10960,-28.95
10971,-32.84
10982,-35.92
10994,-37.66
11006,-37.57
11018,-35.46
11030,-31.5
11042,-26.23
11054,-20.41
11066,-14.68
11078,-9.51
11090,-5.08
11102,-1.43
11114,1.42
11126,3.38
11138,4.33
11150,4.26
11161,3.31
11172,1.86
11184,0.39
11196,-0.68
11208,-1.08
11220,-0.83
11232,-0.11
11244,0.8
11256,1.65
11268,2.34
11280,2.86
11292,3.28
11304,3.68
11316,4.07
11328,4.44
11340,4.76
11351,4.96
11362,5.02
11374,4.89
11386,4.54
11398,3.96
11410,3.17
11422,2.22
11434,1.17
11446,0.08
11458,-1.03
11470,-2.13
11482,-3.19
11494,-4.19
11506,-5.11
11518,-6.0
11530,-6.98
11541,-8.25
11552,-10.0
11564,-12.31
11576,-15.02
11588,-17.66
11600,-19.55
11612,-20.01
11624,-18.54
11636,-15.06
11648,-9.87
11660,-3.62
11672,2.99
11684,9.32
11696,14.97
11708,19.7
11720,23.39
11731,25.95
11742,27.3
11754,27.45
11766,26.55
11778,24.94
11790,23.07
11802,21.35
11814,20.08
11826,19.31
11838,18.9
11850,18.66
11862,18.4
11874,18.07
11886,17.67
11898,17.24
11910,16.75
11921,16.11
11932,15.22
11944,13.99
11956,12.42
11968,10.55
11980,8.48
11992,6.29
12004,4.05
12016,1.85
12028,-0.27
12040,-2.31
12052,-4.3
12064,-6.32
12076,-8.45
12088,-10.66
12100,-12.86
12111,-14.89
12122,-16.58
12134,-17.9
12146,-18.93
12158,-19.91
12170,-21.17
12182,-22.99
12194,-25.49
12206,-28.52
12218,-31.6
12230,-34.07
12242,-35.23
12254,-34.56
12266,-31.91
12278,-27.48
12290,-21.82
12301,-15.56
12312,-9.32
12324,-3.61
12336,1.2
12348,4.89
12360,7.36
12372,8.67
12384,9.05
12396,8.88
12408,8.68
12420,8.9
12432,9.87
12444,11.64
12456,14.03
12468,16.68
12480,19.21
12491,21.34
12502,22.99
12514,24.25
12526,25.29
12538,26.27
12550,27.26
12562,28.2
12574,28.97
12586,29.36
12598,29.26
12610,28.61
12622,27.46
12634,25.9
12646,24.06
12658,22.03
12670,19.81
12681,17.29
12692,14.38
12704,11.01
12716,7.25
12728,3.26
12740,-0.74
12752,-4.5
12764,-7.86
12776,-10.71
12788,-13.11
12800,-15.21
12812,-17.2
12824,-19.31
12836,-21.7
12848,-24.38
12860,-27.22
12871,-29.87
12882,-31.83
12894,-32.54
12906,-31.52
12918,-28.53
12930,-23.65
12942,-17.31
12954,-10.18
12966,-3.01
12978,3.54
12990,9.0
13002,13.11
13014,15.79
13026,17.07
13038,17.13
13050,16.23
13061,14.72
13072,12.97
13084,11.31
13096,9.95
13108,8.96
13120,8.31
13132,7.9
13144,7.61
13156,7.33
13168,6.95
13180,6.38
13192,5.63
13204,4.82
13216,4.23
13228,4.14
13240,4.75
13251,5.99
13262,7.56
13274,9.01
13286,9.9
13298,10.01
13310,9.37
13322,8.18
13334,6.68
13346,5.03
13358,3.22
13370,1.19
13382,-1.11
13394,-3.58
13406,-6.03
13418,-8.19
13430,-9.89
13441,-11.07
13452,-11.82
13464,-12.39
13476,-13.05
13488,-14.1
13500,-15.8
13512,-18.28
13524,-21.51
13536,-25.19
13548,-28.78
13560,-31.54
13572,-32.78
13584,-32.05
13596,-29.29
13608,-24.88
13620,-19.48
13631,-13.8
13642,-8.42
13654,-3.73
13666,0.08
13678,2.88
13690,4.56
13702,5.06
13714,4.46
13726,3.0
13738,1.12
13750,-0.7
13762,-2.03
13774,-2.69
13786,-2.67
13798,-2.17
13810,-1.45
13821,-0.71
13832,-0.08
13844,0.49
13856,1.06
13868,1.72
13880,2.45
13892,3.14
13904,3.57
13916,3.63
13928,3.33
13940,2.91
13952,2.73
13964,3.18
13976,4.47
13988,6.56
14000,9.13
14011,11.67
14022,13.71
14034,14.87
14046,15.01
14058,14.21
14070,12.73
14082,10.9
14094,9.01
14106,7.2
14118,5.5
14130,3.79
14142,1.94
14154,-0.21
14166,-2.72
14178,-5.62
14190,-8.75
14201,-11.8
14212,-14.29
14224,-15.62
14236,-15.3
14248,-13.14
14260,-9.34
14272,-4.53
14284,0.48
14296,4.92
14308,8.31
14320,10.5
14332,11.58
14344,11.73
14356,11.08
14368,9.72
14380,7.75
14391,5.37
14402,2.92
14414,0.79
14426,-0.71
14438,-1.44
14450,-1.49
14462,-1.12
14474,-0.6
14486,-0.13
14498,0.21
14510,0.47
14522,0.73
14534,1.01
14546,1.29
14558,1.47
14570,1.48
14581,1.27
14592,0.85
14604,0.27
14616,-0.42
14628,-1.19
14640,-2.03
14652,-2.97
14664,-4.04
14676,-5.25
14688,-6.54
14700,-7.77
14712,-8.82
14724,-9.6
14736,-10.12
14748,-10.52
14760,-10.98
14771,-11.71
14782,-12.84
14794,-14.44
14806,-16.51
14818,-19.0
14830,-21.75
14842,-24.42
14854,-26.5
14866,-27.39
14878,-26.57
14890,-23.77
14902,-19.09
14914,-12.97
14926,-6.07
14938,0.88
14950,7.24
14961,12.54
14972,16.47
14984,18.98
14996,20.19
15008,20.43
15020,20.08
15032,19.52
15044,19.0
15056,18.58
15068,18.24
15080,17.93
15092,17.63
15104,17.39
15116,17.23
15128,17.13
15140,17.05
15151,16.91
15162,16.67
15174,16.39
15186,16.11
15198,15.88
15210,15.65
15222,15.24
15234,14.47
15246,13.16
15258,11.31
15270,9.04
15282,6.64
15294,4.37
15306,2.37
15318,0.61
15330,-1.07
15341,-2.87
15352,-4.88
15364,-7.01
15376,-9.08
15388,-10.88
15400,-12.28
15412,-13.36
15424,-14.31
15436,-15.41
15448,-16.88
15460,-18.83
15472,-21.28
15484,-24.09
15496,-26.97
15508,-29.5
15520,-31.15
15531,-31.37
15542,-29.71
15554,-26.05
15566,-20.62
15578,-14.0
15590,-6.95
15602,-0.25
15614,5.54
15626,10.1
15638,13.38
15650,15.48
15662,16.56
15674,16.77
15686,16.28
15698,15.3
15710,14.08
15721,12.93
15732,12.08
15744,11.65
15756,11.56
15768,11.63
15780,11.67
15792,11.6
15804,11.5
15816,11.53
15828,11.81
15840,12.31
15852,12.77
15864,12.85
15876,12.31
15888,11.07
15900,9.31
15911,7.33
15922,5.39
15934,3.61
15946,1.96
15958,0.31
15970,-1.41
15982,-3.21
15994,-5.03
16006,-6.77
16018,-8.39
16030,-9.89
16042,-11.31
16054,-12.71
16066,-14.11
16078,-15.56
16090,-17.12
16101,-18.88
16112,-20.91
16124,-23.19
16136,-25.46
16148,-27.24
16160,-27.89
16172,-26.82
16184,-23.78
16196,-19.0
16208,-13.12
16220,-6.98
16232,-1.33
16244,3.43
16256,7.22
16268,10.15
16280,12.29
16291,13.6
16302,13.99
16314,13.48
16326,12.29
16338,10.84
16350,9.56
16362,8.74
16374,8.39
16386,8.36
16398,8.43
16410,8.44
16422,8.42
16434,8.46
16446,8.67
16458,9.07
16470,9.57
16481,10.01
16492,10.23
16504,10.11
16516,9.6
16528,8.72
16540,7.56
16552,6.21
16564,4.77
16576,3.31
16588,1.83
16600,0.29
16612,-1.38
16624,-3.2
16636,-5.11
16648,-6.98
16660,-8.62
16671,-9.9
16682,-10.79
16694,-11.47
16706,-12.19
16718,-13.25
16730,-14.87
16742,-17.01
16754,-19.42
16766,-21.61
16778,-22.98
16790,-22.97
16802,-21.26
16814,-17.79
16826,-12.85
16838,-6.97
16850,-0.82
16861,5.0
16872,10.04
16884,14.09
16896,17.07
16908,19.03
16920,20.03
16932,20.15
16944,19.51
16956,18.27
16968,16.68
16980,15.05
16992,13.66
17004,12.72
17016,12.28
17028,12.25
17040,12.5
17051,12.88
17062,13.3
17074,13.74
17086,14.17
17098,14.46
17110,14.48
17122,14.03
17134,13.03
17146,11.5
17158,9.61
17170,7.59
17182,5.59
17194,3.66
17206,1.68
17218,-0.5
17230,-2.95
17241,-5.57
17252,-8.16
17264,-10.47
17276,-12.39
17288,-13.97
17300,-15.44
17312,-17.02
17324,-18.89
17336,-21.11
17348,-23.59
17360,-26.17
17372,-28.61
17384,-30.5
17396,-31.36
17408,-30.69
17420,-28.15
17431,-23.73
17442,-17.8
17454,-11.06
17466,-4.28
17478,1.9
17490,7.13
17502,11.35
17514,14.62
17526,17.02
17538,18.56
17550,19.2
17562,18.97
17574,18.04
17586,16.73
17598,15.43
17610,14.42
17621,13.85
17632,13.61
17644,13.52
17656,13.42
17668,13.31
17680,13.29
17692,13.5
17704,13.94
17716,14.43
17728,14.68
17740,14.4
17752,13.43
17764,11.83
17776,9.83
17788,7.71
17800,5.67
17811,3.75
17822,1.9
17834,-0.03
17846,-2.17
17858,-4.57
17870,-7.15
17882,-9.77
17894,-12.22
17906,-14.35
17918,-16.09
17930,-17.51
17942,-18.77
17954,-20.06
17966,-21.54
17978,-23.32
17990,-25.49
18001,-28.1
18012,-31.12
18024,-34.37
18036,-37.46
18048,-39.78
18060,-40.73
18072,-39.87
18084,-37.04
18096,-32.36
18108,-26.11
18120,-18.57
18132,-10.01
18144,-0.71
18156,8.87
18168,18.13
18180,26.41
18191,33.12
18202,37.98
18214,40.98
18226,42.33
18238,42.34
18250,41.27
18262,39.35
18274,36.78
18286,33.82
18298,30.74
18310,27.81
18322,25.23
18334,23.05
18346,21.21
18358,19.54
18370,17.81
18381,15.88
18392,13.72
18404,11.41
18416,9.15
18428,7.13
18440,5.52
18452,4.35
18464,3.61
18476,3.2
18488,3.02
18500,2.95
18512,2.86
18524,2.68
18536,2.3
18548,1.65
18560,0.68
18571,-0.59
18582,-2.12
18594,-3.85
18606,-5.71
18618,-7.64
18630,-9.59
18642,-11.52
18654,-13.4
18666,-15.24
18678,-17.12
18690,-19.2
18702,-21.69
18714,-24.67
18726,-28.01
18738,-31.24
18750,-33.6
18761,-34.29
18772,-32.73
18784,-28.82
18796,-22.98
18808,-15.98
18820,-8.64
18832,-1.64
18844,4.62
18856,9.95
18868,14.25
18880,17.41
18892,19.34
18904,20.04
18916,19.65
18928,18.51
18940,17.0
18951,15.5
18962,14.26
18974,13.41
18986,12.96
18998,12.91
19010,13.23
19022,13.96
19034,15.1
19046,16.6
19058,18.3
19070,19.93
19082,21.15
19094,21.69
19106,21.42
19118,20.38
19130,18.73
19141,16.74
19152,14.58
19164,12.35
19176,10.03
19188,7.6
19200,5.09
19212,2.6
19224,0.31
19236,-1.67
19248,-3.33
19260,-4.77
19272,-6.16
19284,-7.61
19296,-9.12
19308,-10.58
19320,-11.87
19331,-12.91
19342,-13.72
19354,-14.42
19366,-15.16
19378,-16.04
19390,-17.12
19402,-18.45
19414,-20.09
19426,-22.07
19438,-24.26
19450,-26.36
19462,-27.82
19474,-28.01
19486,-26.41
19498,-22.83
19510,-17.54
19521,-11.14
19532,-4.42
19544,1.9
19556,7.33
19568,11.65
19580,14.84
19592,16.92
19604,17.96
19616,18.03
19628,17.27
19640,15.91
19652,14.23
19664,12.55
19676,11.13
19688,10.15
19700,9.71
19711,9.8
19722,10.4
19734,11.45
19746,12.88
19758,14.63
19770,16.61
19782,18.72
19794,20.84
19806,22.76
19818,24.28
19830,25.2
19842,25.36
19854,24.67
19866,23.13
19878,20.79
19890,17.78
19901,14.28
19912,10.48
19924,6.58
19936,2.72
19948,-1.01
19960,-4.58
19972,-7.93
19984,-11.02
19996,-13.82
20008,-16.37
20020,-18.78
20032,-21.22
20044,-23.77
20056,-26.38
20068,-28.86
20080,-31.0
20091,-32.74
20102,-34.25
20114,-35.85
20126,-37.76
20138,-39.92
20150,-41.86
20162,-42.86
20174,-42.23
20186,-39.6
20198,-35.09
20210,-29.22
20222,-22.69
20234,-16.15
20246,-10.04
20258,-4.6
20270,0.0
20281,3.61
20292,6.0
20304,7.06
20316,6.83
20328,5.61
20340,3.91
20352,2.28
20364,1.14
20376,0.68
20388,0.83
20400,1.38
20412,2.11
20424,2.9
20436,3.74
20448,4.7
20460,5.79
20471,6.9
20482,7.82
20494,8.29
20506,8.13
20518,7.31
20530,5.95
20542,4.33
20554,2.72
20566,1.26
20578,-0.02
20590,-1.28
20602,-2.65
20614,-4.22
20626,-5.92
20638,-7.65
20650,-9.25
20661,-10.66
20672,-11.88
20684,-12.96
20696,-13.86
20708,-14.54
20720,-14.98
20732,-15.29
20744,-15.7
20756,-16.49
20768,-17.74
20780,-19.23
20792,-20.42
20804,-20.63
20816,-19.32
20828,-16.31
20840,-11.86
20851,-6.53
20862,-0.92
20874,4.44
20886,9.27
20898,13.41
20910,16.77
20922,19.25
20934,20.77
20946,21.29
20958,20.86
20970,19.7
20982,18.11
20994,16.44
