seconds,BVP
9,24.89
21,20.11
33,16.62
45,14.68
57,14.31
69,15.25
80,16.95
91,18.64
103,19.54
115,19.04
127,16.97
139,13.65
151,9.72
163,5.88
175,2.65
187,0.21
199,-1.59
211,-3.02
223,-4.34
235,-5.68
247,-7.06
259,-8.48
270,-10.0
281,-11.69
293,-13.63
305,-15.79
317,-18.05
329,-20.27
341,-22.35
353,-24.33
365,-26.28
377,-28.3
389,-30.47
401,-32.81
413,-35.35
425,-38.1
437,-40.97
449,-43.62
460,-45.43
471,-45.53
483,-43.05
495,-37.47
507,-28.82
519,-17.8
531,-5.6
543,6.44
555,17.16
567,25.87
579,32.36
591,36.79
603,39.49
615,40.82
627,41.05
639,40.38
650,39.0
661,37.1
673,35.01
685,33.04
697,31.53
709,30.73
721,30.73
733,31.45
745,32.7
757,34.23
769,35.8
781,37.2
793,38.27
805,38.83
817,38.71
829,37.72
840,35.74
851,32.84
863,29.27
875,25.41
887,21.64
899,18.22
911,15.27
923,12.74
935,10.49
947,8.41
959,6.43
971,4.5
983,2.67
995,0.95
1007,-0.62
1019,-2.07
1030,-3.44
1041,-4.82
1053,-6.35
1065,-8.14
1077,-10.25
1089,-12.68
1101,-15.34
1113,-18.1
1125,-20.86
1137,-23.52
1149,-26.07
1161,-28.54
1173,-30.99
1185,-33.5
1197,-36.2
1209,-39.13
1220,-42.23
1231,-45.25
1243,-47.67
1255,-48.77
1267,-47.82
1279,-44.32
1291,-38.21
1303,-29.93
1315,-20.3
1327,-10.37
1339,-1.1
1351,6.78
1363,12.89
1375,17.17
1387,19.74
1399,20.82
1410,20.65
1421,19.49
1433,17.56
1445,15.11
1457,12.4
1469,9.69
1481,7.19
1493,5.09
1505,3.46
1517,2.32
1529,1.68
1541,1.54
1553,1.89
1565,2.65
1577,3.58
1589,4.36
1600,4.62
1611,4.07
1623,2.62
1635,0.47
1647,-1.93
1659,-3.99
1671,-5.16
1683,-5.15
1695,-3.99
1707,-2.12
1719,-0.25
1731,0.85
1743,0.55
1755,-1.37
1767,-4.69
1779,-8.83
1790,-13.03
1801,-16.57
1813,-18.99
1825,-20.12
1837,-20.09
1849,-19.25
1861,-18.06
1873,-16.91
1885,-16.13
1897,-15.9
1909,-16.2
1921,-16.95
1933,-17.97
1945,-19.14
1957,-20.41
1969,-21.86
1980,-23.58
1991,-25.6
2003,-27.74
2015,-29.53
2027,-30.24
2039,-29.08
2051,-25.48
2063,-19.26
2075,-10.79
2087,-0.82
2099,9.71
2111,19.9
2123,29.03
2135,36.61
2147,42.31
2159,45.99
2170,47.72
2181,47.77
2193,46.65
2205,45.0
2217,43.43
2229,42.43
2241,42.23
2253,42.83
2265,44.03
2277,45.58
2289,47.25
2301,48.92
2313,50.64
2325,52.52
2337,54.65
2349,56.99
2360,59.29
2371,61.22
2383,62.49
2395,63.0
2407,62.93
2419,62.66
2431,62.58
2443,62.91
2455,63.53
2467,63.99
2479,63.62
2491,61.63
2503,57.32
2515,50.19
2527,40.04
2539,27.08
2550,11.96
2561,-4.33
2573,-20.58
2585,-35.65
2597,-48.68
2609,-59.26
2621,-67.41
2633,-73.41
2645,-77.61
2657,-80.32
2669,-81.75
2681,-82.06
2693,-81.57
2705,-80.77
2717,-80.22
2729,-80.48
2740,-81.78
2751,-83.91
2763,-86.14
2775,-87.42
2787,-86.62
2799,-82.95
2811,-76.16
2823,-66.54
2835,-54.89
2847,-42.2
2859,-29.44
2871,-17.43
2883,-6.81
2895,1.99
2907,8.71
2919,13.35
2930,16.15
2941,17.56
2953,18.12
2965,18.3
2977,18.38
2989,18.5
3001,18.7
3013,19.01
3025,19.52
3037,20.37
3049,21.71
3061,23.57
3073,25.91
3085,28.51
3097,31.08
3109,33.28
3120,34.74
3131,35.16
3143,34.34
3155,32.16
3167,28.7
3179,24.21
3191,19.09
3203,13.8
3215,8.75
3227,4.19
3239,0.17
3251,-3.42
3263,-6.71
3275,-9.73
3287,-12.38
3299,-14.41
3310,-15.57
3321,-15.72
3333,-14.91
3345,-13.41
3357,-11.62
3369,-9.96
3381,-8.77
3393,-8.31
3405,-8.67
3417,-9.79
3429,-11.52
3441,-13.59
3453,-15.64
3465,-17.33
3477,-18.44
3489,-18.96
3500,-19.15
3511,-19.42
3523,-20.24
3535,-21.91
3547,-24.4
3559,-27.32
3571,-29.91
3583,-31.21
3595,-30.31
3607,-26.62
3619,-20.1
3631,-11.35
3643,-1.51
3655,8.05
3667,16.07
3679,21.77
3690,24.98
3701,26.11
3713,25.96
3725,25.32
3737,24.72
3749,24.35
3761,24.06
3773,23.54
3785,22.57
3797,21.09
3809,19.33
3821,17.62
3833,16.34
3845,15.73
3857,15.93
3869,16.93
3880,18.68
3891,21.05
3903,23.87
3915,26.87
3927,29.69
3939,31.97
3951,33.44
3963,34.05
3975,33.99
3987,33.59
3999,33.22
4011,33.07
4023,33.04
4035,32.76
4047,31.85
4059,30.0
4070,27.27
4081,23.99
4093,20.68
4105,17.83
4117,15.72
4129,14.38
4141,13.69
4153,13.54
4165,13.87
4177,14.64
4189,15.68
4201,16.71
4213,17.26
4225,16.92
4237,15.51
4249,13.2
4260,10.37
4271,7.5
4283,4.88
4295,2.49
4307,-0.08
4319,-3.4
4331,-8.04
4343,-14.21
4355,-21.6
4367,-29.31
4379,-36.07
4391,-40.56
4403,-41.81
4415,-39.58
4427,-34.34
4439,-27.08
4450,-19.03
4461,-11.24
4473,-4.47
4485,0.83
4497,4.43
4509,6.17
4521,6.02
4533,4.15
4545,0.98
4557,-2.84
4569,-6.59
4581,-9.71
4593,-11.94
4605,-13.33
4617,-14.15
4629,-14.67
4640,-15.07
4651,-15.37
4663,-15.51
4675,-15.5
4687,-15.43
4699,-15.56
4711,-16.14
4723,-17.36
4735,-19.24
4747,-21.62
4759,-24.2
4771,-26.69
4783,-28.78
4795,-30.28
4807,-31.08
4819,-31.16
4830,-30.64
4841,-29.69
4853,-28.57
4865,-27.48
4877,-26.62
4889,-26.09
4901,-25.9
4913,-26.01
4925,-26.29
4937,-26.57
4949,-26.69
4961,-26.56
4973,-26.21
4985,-25.77
4997,-25.46
5009,-25.52
5020,-26.16
5031,-27.5
5043,-29.55
5055,-32.22
5067,-35.18
5079,-37.9
5091,-39.61
5103,-39.47
5115,-36.86
5127,-31.56
5139,-23.89
5151,-14.65
5163,-4.89
5175,4.38
5187,12.39
5199,18.69
5210,23.17
5221,25.91
5233,27.08
5245,26.9
5257,25.59
5269,23.42
5281,20.78
5293,18.1
5305,15.84
5317,14.38
5329,13.93
5341,14.43
5353,15.62
5365,17.14
5377,18.69
5389,20.09
5400,21.27
5411,22.24
5423,22.93
5435,23.17
5447,22.75
5459,21.52
5471,19.51
5483,16.99
5495,14.3
5507,11.78
5519,9.57
5531,7.67
5543,5.91
5555,4.16
5567,2.35
5579,0.47
5590,-1.5
5601,-3.61
5613,-5.98
5625,-8.67
5637,-11.65
5649,-14.71
5661,-17.54
5673,-19.86
5685,-21.48
5697,-22.41
5709,-22.84
5721,-23.06
5733,-23.33
5745,-23.89
5757,-24.84
5769,-26.14
5780,-27.5
5791,-28.39
5803,-28.07
5815,-25.81
5827,-21.12
5839,-13.96
5851,-4.88
5863,5.13
5875,14.91
5887,23.49
5899,30.31
5911,35.27
5923,38.65
5935,40.81
5947,42.11
5959,42.72
5970,42.72
5981,42.15
5993,41.14
6005,39.93
6017,38.83
6029,38.2
6041,38.26
6053,39.13
6065,40.7
6077,42.69
6089,44.66
6101,46.14
6113,46.67
6125,45.94
6137,43.8
6149,40.25
6160,35.47
6171,29.78
6183,23.67
6195,17.7
6207,12.33
6219,7.91
6231,4.48
6243,1.8
6255,-0.52
6267,-2.82
6279,-5.29
6291,-7.86
6303,-10.27
6315,-12.23
6327,-13.58
6339,-14.39
6350,-14.92
6361,-15.56
6373,-16.67
6385,-18.44
6397,-20.92
6409,-23.93
6421,-27.24
6433,-30.67
6445,-34.14
6457,-37.71
6469,-41.59
6481,-46.04
6493,-51.24
6505,-57.13
6517,-63.3
6529,-68.87
6540,-72.63
6551,-73.31
6563,-70.01
6575,-62.51
6587,-51.46
6599,-38.25
6611,-24.65
6623,-12.29
6635,-2.32
6647,4.81
6659,9.21
6671,11.31
6683,11.61
6695,10.55
6707,8.47
6719,5.69
6730,2.61
6741,-0.28
6753,-2.49
6765,-3.61
6777,-3.49
6789,-2.24
6801,-0.14
6813,2.42
6825,5.09
6837,7.67
6849,10.02
6861,12.08
6873,13.73
6885,14.86
6897,15.34
6909,15.13
6920,14.23
6931,12.79
6943,10.96
6955,8.85
6967,6.56
6979,4.17
6991,1.79
7003,-0.46
7015,-2.46
7027,-4.18
7039,-5.72
7051,-7.28
7063,-9.02
7075,-11.02
7087,-13.17
7099,-15.25
7110,-17.01
7121,-18.32
7133,-19.2
7145,-19.83
7157,-20.54
7169,-21.63
7181,-23.36
7193,-25.8
7205,-28.73
7217,-31.6
7229,-33.53
7241,-33.56
7253,-30.88
7265,-25.19
7277,-16.87
7289,-6.89
7300,3.41
7311,12.8
7323,20.42
7335,25.91
7347,29.35
7359,31.05
7371,31.3
7383,30.37
7395,28.46
7407,25.86
7419,22.94
7431,20.16
7443,17.9
7455,16.35
7467,15.49
7479,15.14
7490,15.07
7501,15.12
7513,15.23
7525,15.42
7537,15.63
7549,15.74
7561,15.52
7573,14.81
7585,13.48
7597,11.62
7609,9.4
7621,7.01
7633,4.62
7645,2.29
7657,0.03
7669,-2.18
7680,-4.34
7691,-6.46
7703,-8.49
7715,-10.46
7727,-12.35
7739,-14.15
7751,-15.87
7763,-17.58
7775,-19.37
7787,-21.33
7799,-23.51
7811,-25.77
7823,-27.86
7835,-29.44
7847,-30.28
7859,-30.43
7870,-30.2
7881,-30.14
7893,-30.88
7905,-32.89
7917,-36.27
7929,-40.63
7941,-45.07
7953,-48.33
7965,-49.07
7977,-46.3
7989,-39.66
8001,-29.65
8013,-17.38
8025,-4.35
8037,8.05
8049,18.74
8060,27.18
8071,33.22
8083,36.95
8095,38.57
8107,38.32
8119,36.55
8131,33.77
8143,30.67
8155,27.9
8167,25.97
8179,25.11
8191,25.15
8203,25.67
8215,26.13
8227,26.17
8239,25.73
8250,24.95
8261,23.96
8273,22.73
8285,21.02
8297,18.44
8309,14.65
8321,9.47
8333,3.22
8345,-3.35
8357,-9.44
8369,-14.52
8381,-18.39
8393,-21.16
8405,-23.14
8417,-24.67
8429,-26.21
8440,-27.74
8451,-28.81
8463,-29.08
8475,-28.58
8487,-27.6
8499,-26.56
8511,-25.86
8523,-25.76
8535,-26.63
8547,-28.08
8559,-29.18
8571,-29.3
8583,-28.44
8595,-27.1
8607,-25.9
8619,-25.39
8630,-25.98
8641,-28.07
8653,-31.14
8665,-33.85
8677,-34.85
8689,-33.13
8701,-27.77
8713,-17.84
8725,-2.69
8737,19.42
8749,44.51
8761,65.21
8773,76.75
8785,79.35
8797,76.16
8809,70.8
8820,65.9
8831,62.53
8843,60.15
8855,57.16
8867,52.79
8879,47.59
8891,42.67
8903,38.85
8915,36.43
8927,35.15
8939,34.49
8951,33.78
8963,32.28
8975,29.79
8987,26.49
8999,22.24
9010,16.56
9021,9.19
9033,0.58
9045,-7.65
9057,-14.66
9069,-19.82
9081,-22.8
9093,-23.69
9105,-23.1
9117,-21.94
9129,-20.93
9141,-20.52
9153,-20.7
9165,-21.56
9177,-23.18
9189,-25.47
9200,-28.14
9211,-30.8
9223,-33.08
9235,-34.7
9247,-35.5
9259,-35.22
9271,-33.97
9283,-32.07
9295,-29.99
9307,-28.2
9319,-27.04
9331,-26.54
9343,-26.25
9355,-26.94
9367,-28.33
9379,-29.77
9390,-30.52
9401,-29.98
9413,-27.98
9425,-24.79
9437,-21.07
9449,-17.74
9461,-15.69
9473,-15.35
9485,-16.83
9497,-19.85
9509,-23.75
9521,-27.58
9533,-30.16
9545,-30.31
9557,-27.15
9569,-20.32
9580,-10.04
9591,2.63
9603,16.13
9615,28.79
9627,39.27
9639,46.84
9651,51.43
9663,53.39
9675,53.26
9687,51.67
9699,49.11
9711,45.98
9723,42.65
9735,39.49
9747,36.84
9759,34.93
9770,33.83
9781,33.42
9793,33.57
9805,34.06
9817,34.72
9829,35.36
9841,35.85
9853,36.06
9865,35.88
9877,35.18
9889,33.92
9901,32.12
9913,29.84
9925,27.16
9937,24.12
9949,20.74
9960,17.06
9971,13.17
9983,9.24
9995,5.57
10007,2.46
10019,0.12
10031,-1.47
10043,-2.54
10055,-3.49
10067,-4.67
10079,-6.26
10091,-8.18
10103,-10.14
10115,-11.86
10127,-13.17
10139,-14.11
10150,-14.92
10161,-15.9
10173,-17.31
10185,-19.28
10197,-21.75
10209,-24.49
10221,-27.03
10233,-28.73
10245,-28.84
10257,-26.72
10269,-22.07
10281,-15.07
10293,-6.38
10305,3.0
10317,12.04
10329,19.94
10340,26.25
10351,30.82
10363,33.69
10375,34.95
10387,34.74
10399,33.26
10411,30.9
10423,28.13
10435,25.48
10447,23.34
10459,21.89
10471,21.1
10483,20.84
10495,20.97
10507,21.41
10519,22.12
10530,23.03
10541,24.0
10553,24.81
10565,25.23
10577,25.11
10589,24.42
10601,23.19
10613,21.49
10625,19.4
10637,17.0
10649,14.37
10661,11.64
10673,8.95
10685,6.37
10697,3.92
10709,1.55
10720,-0.79
10731,-3.14
10743,-5.5
10755,-7.85
10767,-10.09
10779,-12.18
10791,-14.1
10803,-15.89
10815,-17.58
10827,-19.22
10839,-20.93
10851,-22.91
10863,-25.36
10875,-28.27
10887,-31.35
10899,-34.01
10910,-35.44
10921,-34.84
10933,-31.74
10945,-26.16
10957,-18.71
10969,-10.33
10981,-1.9
10993,5.81
11005,12.2
11017,16.85
11029,19.51
11041,20.15
11053,18.92
11065,16.13
11077,12.29
11089,8.43
11100,5.35
11111,3.33
11123,2.05
11135,1.01
11147,-0.07
11159,-1.1
11171,-1.58
11183,-0.69
11195,3.21
11207,11.05
11219,22.31
11231,35.13
11243,47.28
11255,57.04
11267,63.53
11279,66.76
11290,67.49
11301,68.18
11313,70.8
11325,75.72
11337,81.85
11349,87.71
11361,92.28
11373,95.06
11385,95.89
11397,94.88
11409,94.14
11421,95.27
11433,98.4
11445,102.43
11457,106.26
11469,109.41
11480,111.37
11491,110.97
11503,95.38
11515,58.33
11527,4.23
11539,-54.22
11551,-105.15
11563,-142.46
11575,-164.98
11587,-174.45
11599,-173.99
11611,-167.04
11623,-154.68
11635,-137.79
11647,-118.1
11659,-98.3
11670,-80.81
11681,-66.95
11693,-56.97
11705,-50.42
11717,-46.35
11729,-42.34
11741,-36.6
11753,-28.97
11765,-20.76
11777,-13.54
11789,-8.28
11801,-5.31
11813,-4.52
11825,-5.53
11837,-6.86
11849,-7.27
11860,-6.45
11871,-4.91
11883,-3.46
11895,-2.57
11907,-2.41
11919,-2.97
11931,-3.89
11943,-4.25
11955,-3.26
11967,-0.74
11979,2.82
11991,6.65
12003,10.0
12015,12.43
12027,13.66
12039,13.81
12050,13.43
12061,13.06
12073,12.89
12085,12.71
12097,11.97
12109,9.87
12121,6.92
12133,3.13
12145,-1.34
12157,-6.19
12169,-11.05
12181,-15.63
12193,-19.78
12205,-23.57
12217,-27.17
12229,-30.67
12240,-34.27
12251,-37.93
12263,-41.52
12275,-44.9
12287,-48.1
12299,-51.23
12311,-54.44
12323,-57.76
12335,-60.99
12347,-63.79
12359,-65.54
12371,-65.53
12383,-63.11
12395,-57.96
12407,-50.13
12419,-40.16
12430,-29.03
12441,-17.97
12453,-8.29
12465,-0.96
12477,3.64
12489,5.73
12501,6.01
12513,5.38
12525,4.6
12537,4.22
12549,4.52
12561,5.66
12573,7.74
12585,10.87
12597,14.95
12609,19.62
12620,24.34
12631,28.54
12643,31.81
12655,34.06
12667,35.37
12679,35.97
12691,36.01
12703,35.58
12715,34.67
12727,33.35
12739,31.77
12751,30.11
12763,28.49
12775,26.91
12787,25.22
12799,23.24
12810,20.85
12821,18.07
12833,15.07
12845,12.11
12857,9.41
12869,7.08
12881,5.09
12893,3.3
12905,1.52
12917,-0.35
12929,-2.28
12941,-4.14
12953,-5.77
12965,-7.06
12977,-8.0
12989,-8.63
13000,-9.01
13011,-9.17
13023,-9.06
13035,-8.57
13047,-7.56
13059,-5.91
13071,-3.52
13083,-0.34
13095,3.58
13107,8.11
13119,13.04
13131,18.04
13143,22.77
13155,26.85
13167,29.9
13179,31.59
13190,31.72
13201,30.29
13213,27.58
13225,24.09
13237,20.42
13249,17.17
13261,14.76
13273,13.4
13285,13.1
13297,13.66
13309,14.76
13321,15.95
13333,16.84
13345,17.13
13357,16.72
13369,15.72
13380,14.33
13391,12.82
13403,11.39
13415,10.18
13427,9.26
13439,8.67
13451,8.41
13463,8.44
13475,8.6
13487,8.65
13499,8.34
13511,7.41
13523,5.72
13535,3.27
13547,0.24
13559,-3.04
13570,-6.22
13581,-9.02
13593,-11.31
13605,-13.18
13617,-14.9
13629,-16.75
13641,-18.97
13653,-21.63
13665,-24.61
13677,-27.58
13689,-30.04
13701,-31.46
13713,-31.35
13725,-29.48
13737,-25.94
13749,-21.2
13760,-15.96
13771,-10.92
13783,-6.65
13795,-3.43
13807,-1.36
13819,-0.43
13831,-0.59
13843,-1.76
13855,-3.77
13867,-6.29
13879,-8.84
13891,-10.97
13903,-12.29
13915,-12.71
13927,-12.28
13939,-11.25
13950,-9.88
13961,-8.32
13973,-6.71
13985,-5.09
13997,-3.6
14009,-2.39
14021,-1.66
14033,-1.59
14045,-2.19
14057,-3.36
14069,-4.83
14081,-6.26
14093,-7.34
14105,-7.9
14117,-7.91
14129,-7.51
14140,-6.94
14151,-6.43
14163,-6.17
14175,-6.31
14187,-6.92
14199,-8.01
14211,-9.6
14223,-11.61
14235,-13.95
14247,-16.41
14259,-18.66
14271,-20.28
14283,-20.78
14295,-19.76
14307,-17.03
14319,-12.65
14330,-7.02
14341,-0.75
14353,5.45
14365,10.93
14377,15.19
14389,17.97
14401,19.22
14413,19.06
14425,17.75
14437,15.62
14449,13.07
14461,10.46
14473,8.11
14485,6.3
14497,5.28
14509,5.3
14520,6.48
14531,8.81
14543,12.07
14555,15.81
14567,19.47
14579,22.55
14591,24.68
14603,25.74
14615,25.8
14627,24.99
14639,23.45
14651,21.31
14663,18.68
14675,15.74
14687,12.62
14699,9.43
14710,6.21
14721,3.0
14733,-0.12
14745,-3.0
14757,-5.53
14769,-7.65
14781,-9.46
14793,-11.18
14805,-13.11
14817,-15.41
14829,-18.17
14841,-21.23
14853,-24.34
14865,-27.1
14877,-29.03
14889,-29.58
14900,-28.27
14911,-24.81
14923,-19.25
14935,-12.02
14947,-3.9
14959,4.19
14971,11.4
14983,17.14
14995,21.15
15007,23.42
15019,24.13
15031,23.46
15043,21.62
15055,18.81
15067,15.39
15079,11.87
15090,8.86
15101,6.87
15113,6.18
15125,6.65
15137,7.81
15149,9.01
15161,9.65
15173,9.39
15185,8.18
15197,6.23
15209,3.85
15221,1.28
15233,-1.35
15245,-3.97
15257,-6.59
15269,-9.12
15280,-11.44
15291,-13.37
15303,-14.81
15315,-15.77
15327,-16.39
15339,-16.92
15351,-17.53
15363,-18.27
15375,-19.1
15387,-19.96
15399,-20.8
15411,-21.67
15423,-22.64
15435,-23.75
15447,-24.95
15459,-26.16
15470,-27.29
15481,-28.4
15493,-29.65
15505,-31.26
15517,-33.42
15529,-36.09
15541,-38.94
15553,-41.35
15565,-42.56
15577,-41.88
15589,-38.91
15601,-33.69
15613,-26.7
15625,-18.74
15637,-10.66
15649,-3.13
15660,3.46
15671,9.01
15683,13.54
15695,17.1
15707,19.68
15719,21.25
15731,21.84
15743,21.59
15755,20.76
15767,19.65
15779,18.5
15791,17.44
15803,16.46
15815,15.64
15827,15.08
15839,15.03
15850,15.67
15861,16.97
15873,18.63
15885,20.06
15897,20.72
15909,20.26
15921,18.78
15933,16.71
15945,14.58
15957,12.81
15969,11.53
15981,10.57
15993,9.66
16005,8.6
16017,7.34
16029,5.96
16040,4.51
16051,3.04
16063,1.57
16075,0.17
16087,-1.0
16099,-1.77
16111,-2.01
16123,-1.72
16135,-1.04
16147,-0.24
16159,0.46
16171,0.92
16183,1.07
16195,0.91
16207,0.38
16219,-0.64
16230,-2.29
16241,-4.66
16253,-7.67
16265,-11.04
16277,-14.2
16289,-16.43
16301,-16.96
16313,-15.21
16325,-11.02
16337,-4.78
16349,2.64
16361,10.14
16373,16.71
16385,21.68
16397,24.81
16409,26.26
16420,26.3
16431,25.24
16443,23.29
16455,20.64
16467,17.52
16479,14.3
16491,11.37
16503,9.06
16515,7.51
16527,6.65
16539,6.21
16551,5.98
16563,5.81
16575,5.74
16587,5.91
16599,6.42
16610,7.26
16621,8.26
16633,9.13
16645,9.59
16657,9.49
16669,8.81
16681,7.69
16693,6.34
16705,4.93
16717,3.56
16729,2.29
16741,1.12
16753,0.04
16765,-0.99
16777,-2.07
16789,-3.3
16800,-4.73
16811,-6.39
16823,-8.17
16835,-9.94
16847,-11.55
16859,-12.99
16871,-14.37
16883,-15.94
16895,-17.91
16907,-20.35
16919,-23.08
16931,-25.65
16943,-27.46
16955,-27.92
16967,-26.62
16979,-23.47
16990,-18.76
17001,-13.06
17013,-7.05
17025,-1.41
17037,3.37
17049,6.99
17061,9.34
17073,10.48
17085,10.59
17097,9.87
17109,8.6
17121,7.03
17133,5.38
17145,3.87
17157,2.61
17169,1.66
17180,1.06
17191,0.76
17203,0.69
17215,0.75
17227,0.87
17239,0.93
17251,0.87
17263,0.63
17275,0.15
17287,-0.6
17299,-1.64
17311,-2.97
17323,-4.56
17335,-6.37
17347,-8.38
17359,-10.53
17370,-12.77
17381,-15.03
17393,-17.3
17405,-19.6
17417,-21.93
17429,-24.28
17441,-26.55
17453,-28.68
17465,-30.6
17477,-32.31
17489,-33.95
17501,-35.75
17513,-38.01
17525,-40.81
17537,-43.96
17549,-46.91
17560,-49.06
17571,-49.66
17583,-48.1
17595,-44.12
17607,-38.02
17619,-30.54
17631,-22.63
17643,-15.18
17655,-8.96
17667,-4.68
17679,-2.65
17691,-2.67
17703,-4.23
17715,-6.76
17727,-9.57
17739,-11.9
17750,-13.02
17761,-12.44
17773,-10.53
17785,-7.81
17797,-4.79
17809,-1.98
17821,0.08
17833,0.99
17845,0.72
17857,-0.35
17869,-1.66
17881,-3.18
17893,-4.65
17905,-5.59
17917,-5.57
17929,-4.6
17940,-3.0
17951,-1.2
17963,0.5
17975,5.23
17987,13.28
17999,22.45
18011,30.71
18023,38.34
18035,47.0
18047,57.71
18059,69.81
18071,80.95
18083,88.02
18095,87.96
18107,79.87
18119,65.48
18130,48.24
18141,31.84
18153,18.94
18165,10.68
18177,6.68
18189,5.6
18201,5.42
18213,4.93
18225,3.89
18237,2.69
18249,1.8
18261,1.2
18273,0.6
18285,-0.34
18297,-1.74
18309,-3.72
18320,-5.8
18331,-7.26
18343,-7.58
18355,-6.7
18367,-5.06
18379,-3.25
18391,-1.71
18403,-0.54
18415,0.24
18427,0.98
18439,1.96
18451,3.17
18463,4.32
18475,4.86
18487,4.43
18499,2.96
18510,0.83
18521,-2.09
18533,-5.29
18545,-8.29
18557,-10.76
18569,-12.64
18581,-14.1
18593,-15.3
18605,-16.39
18617,-17.46
18629,-18.55
18641,-19.56
18653,-20.51
18665,-21.56
18677,-22.82
18689,-24.41
18700,-26.2
18711,-27.88
18723,-28.94
18735,-28.88
18747,-27.16
18759,-23.54
18771,-18.16
18783,-11.43
18795,-3.94
18807,3.72
18819,11.01
18831,17.57
18843,23.12
18855,27.63
18867,31.06
18879,33.3
18890,34.24
18901,33.86
18913,32.4
18925,30.28
18937,28.05
18949,26.28
18961,25.48
18973,25.78
18985,26.79
18997,27.86
19009,28.42
19021,28.29
19033,27.63
19045,26.77
19057,26.06
19069,25.99
19080,26.63
19091,27.48
19103,27.75
19115,26.9
19127,24.98
19139,22.49
19151,20.11
19163,18.4
19175,18.18
19187,19.59
19199,21.82
19211,23.54
19223,23.68
19235,21.94
19247,18.8
19259,15.22
19270,12.54
19281,12.85
19293,17.53
19305,26.48
19317,37.98
19329,49.47
19341,58.21
19353,61.83
19365,58.82
19377,44.66
19389,19.56
19401,-10.46
19413,-36.66
19425,-53.12
19437,-58.92
19449,-56.56
19460,-49.61
19471,-41.13
19483,-32.88
19495,-24.85
19507,-16.82
19519,-9.24
19531,-3.22
19543,0.3
19555,0.98
19567,-0.42
19579,-3.46
19591,-7.52
19603,-11.34
19615,-14.11
19627,-15.78
19639,-16.82
19650,-17.62
19661,-18.22
19673,-18.43
19685,-18.12
19697,-17.26
19709,-15.66
19721,-13.54
19733,-11.64
19745,-11.04
19757,-12.38
19769,-15.69
19781,-20.36
19793,-25.4
19805,-29.67
19817,-32.09
19829,-32.17
19840,-30.11
19851,-26.65
19863,-22.57
19875,-18.49
19887,-14.74
19899,-11.53
19911,-8.99
19923,-7.01
19935,-5.54
19947,-4.55
19959,-4.02
19971,-3.79
19983,-3.63
19995,-3.41
20007,-3.18
20019,-3.19
20030,-3.55
20041,-4.47
20053,-6.18
20065,-8.84
20077,-12.21
20089,-15.72
20101,-18.71
20113,-20.55
20125,-20.98
20137,-19.69
20149,-16.93
20161,-13.49
20173,-10.36
20185,-8.16
20197,-6.83
20209,-5.83
20220,-4.11
20231,-0.69
20243,5.61
20255,15.1
20267,26.95
20279,39.51
20291,51.07
20303,60.44
20315,67.01
20327,71.06
20339,69.58
20351,61.7
20363,49.48
20375,36.52
20387,25.22
20399,15.95
20410,9.03
20421,3.04
20433,-2.7
20445,-8.35
20457,-13.23
20469,-16.88
20481,-19.51
20493,-21.5
20505,-23.24
20517,-24.86
20529,-26.47
20541,-27.87
20553,-28.91
20565,-29.05
20577,-27.92
20589,-25.58
20600,-22.38
20611,-18.61
20623,-14.39
20635,-9.88
20647,-5.15
20659,-0.42
20671,4.25
20683,8.65
20695,12.49
20707,15.43
20719,17.36
20731,18.34
20743,18.51
20755,18.1
20767,17.31
20779,16.51
20790,16.0
20801,15.98
20813,16.51
20825,17.51
20837,18.87
20849,20.42
20861,21.94
20873,23.21
20885,23.95
20897,23.88
20909,22.8
20921,20.78
20933,18.23
20945,15.86
20957,14.33
20969,14.03
20980,14.81
20991,16.03
