seconds,BVP
7,22.6
18,20.75
29,19.87
41,19.94
53,20.87
65,22.51
77,24.73
89,27.38
101,30.25
113,32.98
125,35.08
137,36.08
149,35.67
161,33.88
173,31.05
185,27.72
197,24.35
208,21.16
219,18.08
231,14.88
243,11.33
255,7.37
267,3.16
279,-0.98
291,-4.72
303,-7.84
315,-10.3
327,-12.25
339,-13.99
351,-15.85
363,-18.15
375,-21.03
387,-24.44
398,-28.13
409,-31.69
421,-34.78
433,-37.25
445,-39.26
457,-41.29
469,-43.98
481,-47.88
493,-53.12
505,-59.28
517,-65.27
529,-69.55
541,-70.56
553,-67.15
565,-58.94
577,-46.52
588,-31.28
599,-15.03
611,0.49
623,13.99
635,24.74
647,32.57
659,37.66
671,40.39
683,41.17
695,40.4
707,38.51
719,35.86
731,32.83
743,29.75
755,26.92
767,24.56
778,22.88
789,21.96
801,21.85
813,22.45
825,23.6
837,25.03
849,26.44
861,27.49
873,27.91
885,27.54
897,26.38
909,24.59
921,22.37
933,19.87
945,17.16
957,14.25
968,11.12
979,7.75
991,4.19
1003,0.52
1015,-3.15
1027,-6.74
1039,-10.11
1051,-13.12
1063,-15.71
1075,-17.92
1087,-20.0
1099,-22.31
1111,-25.17
1123,-28.71
1135,-32.78
1147,-36.92
1158,-40.61
1169,-43.48
1181,-45.42
1193,-46.73
1205,-48.01
1217,-49.93
1229,-53.02
1241,-57.42
1253,-62.64
1265,-67.57
1277,-70.68
1289,-70.43
1301,-65.71
1313,-56.25
1325,-42.69
1337,-26.46
1348,-9.35
1359,6.95
1371,21.13
1383,32.46
1395,40.72
1407,46.08
1419,48.91
1431,49.68
1443,48.89
1455,47.0
1467,44.39
1479,41.4
1491,38.29
1503,35.27
1515,32.54
1527,30.28
1538,28.61
1549,27.64
1561,27.46
1573,28.1
1585,29.47
1597,31.32
1609,33.3
1621,34.9
1633,35.7
1645,35.43
1657,34.02
1669,31.69
1681,28.76
1693,25.58
1705,22.41
1717,19.31
1728,16.23
1739,13.09
1751,9.83
1763,6.52
1775,3.26
1787,0.25
1799,-2.41
1811,-4.7
1823,-6.71
1835,-8.69
1847,-10.88
1859,-13.49
1871,-16.61
1883,-20.11
1895,-23.74
1907,-27.2
1918,-30.26
1929,-32.92
1941,-35.34
1953,-37.87
1965,-40.9
1977,-44.77
1989,-49.65
2001,-55.35
2013,-61.29
2025,-66.38
2037,-69.2
2049,-68.38
2061,-63.02
2073,-53.06
2085,-39.39
2097,-23.58
2108,-7.46
2119,7.43
2131,20.07
2143,30.04
2155,37.28
2167,41.94
2179,44.24
2191,44.48
2203,43.04
2215,40.36
2227,36.91
2239,33.13
2251,29.38
2263,25.94
2275,23.04
2287,20.82
2298,19.35
2309,18.69
2321,18.82
2333,19.67
2345,21.06
2357,22.71
2369,24.23
2381,25.16
2393,25.04
2405,23.59
2417,20.73
2429,16.63
2441,11.7
2453,6.44
2465,1.36
2477,-3.15
2488,-6.92
2499,-10.03
2511,-12.73
2523,-15.34
2535,-18.13
2547,-21.17
2559,-24.37
2571,-27.48
2583,-30.26
2595,-32.58
2607,-34.54
2619,-36.39
2631,-38.59
2643,-41.63
2655,-45.88
2667,-51.36
2678,-57.59
2689,-63.5
2701,-67.58
2713,-68.3
2725,-64.48
2737,-55.79
2749,-42.79
2761,-26.84
2773,-9.72
2785,6.85
2797,21.5
2809,33.39
2821,42.19
2833,47.97
2845,51.07
2857,52.01
2868,51.35
2879,49.58
2891,47.1
2903,44.23
2915,41.23
2927,38.39
2939,35.96
2951,34.18
2963,33.17
2975,32.91
2987,33.23
2999,33.93
3011,34.77
3023,35.5
3035,35.93
3047,35.84
3058,35.08
3069,33.52
3081,31.13
3093,27.93
3105,24.0
3117,19.5
3129,14.65
3141,9.75
3153,5.13
3165,1.04
3177,-2.42
3189,-5.42
3201,-8.35
3213,-11.6
3225,-15.4
3237,-19.72
3248,-24.2
3259,-28.4
3271,-31.99
3283,-34.87
3295,-37.25
3307,-39.54
3319,-42.3
3331,-46.0
3343,-50.95
3355,-57.07
3367,-63.79
3379,-69.96
3391,-74.04
3403,-74.42
3415,-69.94
3427,-60.29
3438,-46.18
3449,-29.17
3461,-11.23
3473,5.74
3485,20.39
3497,32.05
3509,40.67
3521,46.57
3533,50.23
3545,52.08
3557,52.45
3569,51.63
3581,49.88
3593,47.52
3605,44.92
3617,42.41
3628,40.27
3639,38.71
3651,37.78
3663,37.5
3675,37.84
3687,38.73
3699,40.03
3711,41.49
3723,42.73
3735,43.33
3747,42.91
3759,41.27
3771,38.5
3783,34.98
3795,31.23
3807,27.74
3818,24.82
3829,22.46
3841,20.39
3853,18.25
3865,15.75
3877,12.77
3889,9.44
3901,6.05
3913,2.9
3925,0.15
3937,-2.21
3949,-4.36
3961,-6.58
3973,-9.13
3985,-12.16
3997,-15.7
4008,-19.63
4019,-23.75
4031,-27.8
4043,-31.56
4055,-34.9
4067,-37.86
4079,-40.64
4091,-43.66
4103,-47.37
4115,-52.09
4127,-57.76
4139,-63.74
4151,-68.83
4163,-71.43
4175,-70.08
4187,-63.93
4198,-53.06
4209,-38.55
4221,-22.13
4233,-5.68
4245,9.27
4257,21.78
4269,31.52
4281,38.53
4293,43.11
4305,45.53
4317,46.13
4329,45.28
4341,43.44
4353,41.11
4365,38.69
4377,36.48
4388,34.62
4399,33.15
4411,32.17
4423,31.79
4435,32.2
4447,33.46
4459,35.45
4471,37.82
4483,40.05
4495,41.68
4507,42.41
4519,42.17
4531,41.1
4543,39.38
4555,37.17
4567,34.59
4578,31.69
4589,28.58
4601,25.36
4613,22.16
4625,19.05
4637,16.06
4649,13.19
4661,10.39
4673,7.6
4685,4.71
4697,1.56
4709,-2.1
4721,-6.42
4733,-11.39
4745,-16.77
4757,-22.19
4768,-27.22
4779,-31.62
4791,-35.36
4803,-38.64
4815,-41.79
4827,-45.17
4839,-49.07
4851,-53.59
4863,-58.58
4875,-63.45
4887,-67.19
4899,-68.53
4911,-66.25
4923,-59.63
4935,-48.8
4947,-34.82
4958,-19.4
4969,-4.4
4981,8.65
4993,18.86
5005,26.08
5017,30.61
5029,33.02
5041,33.82
5053,33.45
5065,32.23
5077,30.44
5089,28.38
5101,26.33
5113,24.52
5125,23.09
5137,22.1
5148,21.52
5159,21.3
5171,21.44
5183,21.89
5195,22.65
5207,23.64
5219,24.7
5231,25.65
5243,26.24
5255,26.29
5267,25.65
5279,24.23
5291,22.01
5303,19.12
5315,15.76
5327,12.19
5338,8.64
5349,5.26
5361,2.1
5373,-0.85
5385,-3.61
5397,-6.2
5409,-8.65
5421,-11.05
5433,-13.55
5445,-16.25
5457,-19.18
5469,-22.19
5481,-25.02
5493,-27.43
5505,-29.38
5517,-31.09
5528,-33.02
5539,-35.66
5551,-39.26
5563,-43.67
5575,-48.28
5587,-52.09
5599,-53.94
5611,-52.79
5623,-48.05
5635,-39.71
5647,-28.48
5659,-15.56
5671,-2.41
5683,9.62
5695,19.61
5707,27.17
5718,32.36
5729,35.51
5741,36.99
5753,37.07
5765,35.94
5777,33.78
5789,30.89
5801,27.67
5813,24.62
5825,22.15
5837,20.46
5849,19.56
5861,19.32
5873,19.6
5885,20.27
5897,21.23
5908,22.34
5919,23.37
5931,24.01
5943,23.96
5955,23.04
5967,21.27
5979,18.82
5991,16.01
6003,13.14
6015,10.42
6027,7.94
6039,5.68
6051,3.55
6063,1.46
6075,-0.62
6087,-2.7
6098,-4.77
6109,-6.71
6121,-8.42
6133,-9.76
6145,-10.68
6157,-11.31
6169,-12.0
6181,-13.15
6193,-15.14
6205,-18.04
6217,-21.63
6229,-25.43
6241,-28.9
6253,-31.69
6265,-33.77
6277,-35.41
6288,-37.07
6299,-39.29
6311,-42.41
6323,-46.42
6335,-50.85
6347,-54.73
6359,-56.85
6371,-56.05
6383,-51.62
6395,-43.57
6407,-32.7
6419,-20.35
6431,-8.09
6443,2.74
6455,11.25
6467,17.09
6478,20.35
6489,21.38
6501,20.63
6513,18.48
6525,15.34
6537,11.57
6549,7.62
6561,3.92
6573,0.93
6585,-1.05
6597,-1.93
6609,-1.8
6621,-0.87
6633,0.65
6645,2.67
6657,5.08
6668,7.77
6679,10.46
6691,12.71
6703,14.09
6715,14.32
6727,13.39
6739,11.64
6751,9.55
6763,7.55
6775,5.85
6787,4.4
6799,2.97
6811,1.33
6823,-0.59
6835,-2.62
6847,-4.5
6858,-6.02
6869,-7.18
6881,-8.18
6893,-9.42
6905,-11.22
6917,-13.71
6929,-16.74
6941,-20.02
6953,-23.16
6965,-25.92
6977,-28.24
6989,-30.28
7001,-32.34
7013,-34.72
7025,-37.7
7037,-41.33
7048,-45.44
7059,-49.49
7071,-52.6
7083,-53.72
7095,-51.92
7107,-46.67
7119,-38.08
7131,-26.94
7143,-14.49
7155,-2.15
7167,8.85
7179,17.73
7191,24.19
7203,28.37
7215,30.65
7227,31.44
7238,31.1
7249,29.88
7261,27.96
7273,25.6
7285,23.09
7297,20.77
7309,18.92
7321,17.69
7333,17.05
7345,16.88
7357,17.03
7369,17.43
7381,18.13
7393,19.14
7405,20.41
7417,21.73
7428,22.71
7439,22.94
7451,22.15
7463,20.32
7475,17.72
7487,14.78
7499,11.93
7511,9.45
7523,7.36
7535,5.53
7547,3.73
7559,1.77
7571,-0.39
7583,-2.7
7595,-4.98
7607,-7.05
7618,-8.78
7629,-10.17
7641,-11.4
7653,-12.76
7665,-14.63
7677,-17.29
7689,-20.79
7701,-24.89
7713,-29.16
7725,-33.14
7737,-36.54
7749,-39.38
7761,-41.95
7773,-44.76
7785,-48.3
7797,-52.81
7808,-58.11
7819,-63.46
7831,-67.71
7843,-69.49
7855,-67.61
7867,-61.45
7879,-51.22
7891,-37.93
7903,-23.13
7915,-8.48
7927,4.68
7939,15.53
7951,23.8
7963,29.59
7975,33.16
7987,34.86
7998,35.03
8009,34.02
8021,32.26
8033,30.13
8045,27.97
8057,26.05
8069,24.5
8081,23.36
8093,22.65
8105,22.36
8117,22.5
8129,23.1
8141,24.15
8153,25.58
8165,27.15
8177,28.51
8188,29.29
8199,29.24
8211,28.26
8223,26.53
8235,24.37
8247,22.11
8259,19.93
8271,17.8
8283,15.53
8295,12.87
8307,9.69
8319,6.0
8331,2.05
8343,-1.8
8355,-5.26
8367,-8.16
8378,-10.53
8389,-12.57
8401,-14.54
8413,-16.63
8425,-18.96
8437,-21.47
8449,-24.07
8461,-26.65
8473,-29.13
8485,-31.52
8497,-33.94
8509,-36.61
8521,-39.84
8533,-43.98
8545,-49.18
8557,-55.21
8568,-61.25
8579,-65.99
8591,-67.93
8603,-65.86
8615,-59.31
8627,-48.72
8639,-35.32
8651,-20.71
8663,-6.41
8675,6.48
8687,17.32
8699,25.85
8711,32.02
8723,35.93
8735,37.77
8747,37.84
8758,36.58
8769,34.48
8781,31.96
8793,29.39
8805,27.04
8817,25.15
8829,23.92
8841,23.52
8853,24.02
8865,25.36
8877,27.31
8889,29.52
8901,31.64
8913,33.33
8925,34.38
8937,34.64
8948,34.06
8959,32.61
8971,30.37
8983,27.46
8995,24.06
9007,20.39
9019,16.65
9031,13.0
9043,9.53
9055,6.33
9067,3.41
9079,0.75
9091,-1.84
9103,-4.65
9115,-8.06
9127,-12.37
9138,-17.65
9149,-23.65
9161,-29.81
9173,-35.45
9185,-40.08
9197,-43.55
9209,-46.24
9221,-48.9
9233,-52.38
9245,-57.29
9257,-63.77
9269,-71.31
9281,-78.73
9293,-84.51
9305,-86.97
9317,-84.83
9328,-77.49
9339,-65.32
9351,-49.57
9363,-32.01
9375,-14.47
9387,1.56
9399,15.2
9411,26.09
9423,34.19
9435,39.67
9447,42.75
9459,43.78
9471,43.27
9483,41.84
9495,40.09
9507,38.48
9518,37.21
9529,36.28
9541,35.67
9553,35.39
9565,35.61
9577,36.51
9589,38.18
9601,40.51
9613,43.15
9625,45.61
9637,47.41
9649,48.17
9661,47.7
9673,46.06
9685,43.43
9697,40.13
9708,36.46
9719,32.71
9731,29.03
9743,25.37
9755,21.62
9767,17.57
9779,13.15
9791,8.4
9803,3.52
9815,-1.26
9827,-5.85
9839,-10.3
9851,-14.8
9863,-19.55
9875,-24.57
9887,-29.74
9898,-34.74
9909,-39.28
9921,-43.15
9933,-46.34
9945,-48.99
9957,-51.4
9969,-53.97
9981,-57.14
9993,-61.28
10005,-66.45
10017,-72.23
10029,-77.62
10041,-81.11
10053,-81.11
10065,-76.41
10077,-66.66
10088,-52.53
10099,-35.57
10111,-17.72
10123,-0.88
10135,13.63
10147,25.09
10159,33.41
10171,38.91
10183,42.08
10195,43.5
10207,43.65
10219,42.96
10231,41.76
10243,40.33
10255,38.91
10267,37.72
10278,36.93
10289,36.65
10301,36.86
10313,37.54
10325,38.6
10337,40.02
10349,41.75
10361,43.68
10373,45.63
10385,47.25
10397,48.15
10409,47.98
10421,46.57
10433,43.99
10445,40.57
10457,36.73
10468,32.93
10479,29.5
10491,26.58
10503,24.07
10515,21.74
10527,19.33
10539,16.69
10551,13.84
10563,10.92
10575,8.18
10587,5.82
10599,3.95
10611,2.51
10623,1.31
10635,0.07
10647,-1.54
10658,-3.78
10669,-6.77
10681,-10.39
10693,-14.35
10705,-18.26
10717,-21.78
10729,-24.74
10741,-27.26
10753,-29.72
10765,-32.65
10777,-36.6
10789,-41.88
10801,-48.35
10813,-55.21
10825,-61.03
10837,-64.08
10848,-62.82
10859,-56.43
10871,-45.14
10883,-30.22
10895,-13.6
10907,2.71
10919,17.11
10931,28.63
10943,37.02
10955,42.43
10967,45.31
10979,46.22
10991,45.68
11003,44.17
11015,42.06
11027,39.63
11038,37.07
11049,34.58
11061,32.39
11073,30.76
11085,29.9
11097,29.88
11109,30.61
11121,31.85
11133,33.36
11145,34.92
11157,36.41
11169,37.68
11181,38.51
11193,38.57
11205,37.57
11217,35.44
11228,32.37
11239,28.86
11251,25.43
11263,22.47
11275,20.05
11287,17.95
11299,15.82
11311,13.34
11323,10.43
11335,7.18
11347,3.83
11359,0.63
11371,-2.27
11383,-4.81
11395,-7.12
11407,-9.37
11418,-11.79
11429,-14.57
11441,-17.84
11453,-21.62
11465,-25.76
11477,-30.04
11489,-34.23
11501,-38.16
11513,-41.77
11525,-45.2
11537,-48.67
11549,-52.54
11561,-57.03
11573,-62.15
11585,-67.48
11597,-72.05
11608,-74.54
11619,-73.55
11631,-68.08
11643,-57.94
11655,-43.89
11667,-27.44
11679,-10.42
11691,5.48
11703,19.13
11715,29.95
11727,37.87
11739,43.12
11751,46.07
11763,47.18
11775,46.98
11787,46.0
11798,44.68
11809,43.25
11821,41.83
11833,40.4
11845,38.98
11857,37.67
11869,36.61
11881,35.95
11893,35.77
11905,36.04
11917,36.65
11929,37.42
11941,38.1
11953,38.41
11965,38.1
11977,36.99
11988,35.07
11999,32.53
12011,29.66
12023,26.83
12035,24.26
12047,22.04
12059,20.04
12071,18.04
12083,15.85
12095,13.39
12107,10.74
12119,8.13
12131,5.82
12143,3.96
12155,2.48
12167,1.11
12178,-0.53
12189,-2.72
12201,-5.51
12213,-8.67
12225,-11.84
12237,-14.65
12249,-16.98
12261,-18.92
12273,-20.79
12285,-22.93
12297,-25.54
12309,-28.6
12321,-31.92
12333,-35.23
12345,-38.29
12357,-41.02
12368,-43.47
12379,-45.86
12391,-48.5
12403,-51.72
12415,-55.83
12427,-60.85
12439,-66.41
12451,-71.63
12463,-75.22
12475,-75.74
12487,-72.08
12499,-63.82
12511,-51.45
12523,-36.31
12535,-20.15
12547,-4.75
12558,8.6
12569,19.17
12581,26.86
12593,31.9
12605,34.7
12617,35.65
12629,35.14
12641,33.56
12653,31.38
12665,29.08
12677,27.04
12689,25.5
12701,24.47
12713,23.84
12725,23.5
12737,23.44
12748,23.74
12759,24.56
12771,25.98
12783,27.92
12795,30.1
12807,32.09
12819,33.49
12831,34.03
12843,33.69
12855,32.62
12867,31.05
12879,29.16
12891,27.02
12903,24.64
12915,22.03
12927,19.3
12938,16.62
12949,14.14
12961,11.87
12973,9.66
12985,7.23
12997,4.4
13009,1.17
13021,-2.21
13033,-5.35
13045,-7.89
13057,-9.72
13069,-10.95
13081,-11.95
13093,-13.11
13105,-14.77
13117,-17.02
13128,-19.8
13139,-22.89
13151,-26.0
13163,-28.92
13175,-31.49
13187,-33.76
13199,-35.95
13211,-38.45
13223,-41.7
13235,-46.05
13247,-51.45
13259,-57.34
13271,-62.65
13283,-65.91
13295,-65.68
13307,-61.04
13318,-51.87
13329,-38.98
13341,-23.93
13353,-8.54
13365,5.52
13377,17.12
13389,25.76
13401,31.49
13413,34.69
13425,35.86
13437,35.52
13449,34.08
13461,31.94
13473,29.48
13485,27.04
13497,24.93
13508,23.37
13519,22.43
13531,22.07
13543,22.16
13555,22.57
13567,23.22
13579,24.16
13591,25.41
13603,26.99
13615,28.71
13627,30.21
13639,31.07
13651,30.96
13663,29.76
13675,27.65
13687,25.02
13698,22.25
13709,19.67
13721,17.41
13733,15.41
13745,13.53
13757,11.61
13769,9.57
13781,7.42
13793,5.28
13805,3.26
13817,1.41
13829,-0.33
13841,-2.16
13853,-4.29
13865,-6.82
13877,-9.68
13888,-12.62
13899,-15.38
13911,-17.8
13923,-19.96
13935,-22.08
13947,-24.46
13959,-27.22
13971,-30.34
13983,-33.58
13995,-36.67
14007,-39.42
14019,-41.82
14031,-43.96
14043,-46.1
14055,-48.58
14067,-51.75
14078,-55.9
14089,-61.05
14101,-66.72
14113,-71.88
14125,-75.09
14137,-74.81
14149,-69.99
14161,-60.44
14173,-46.96
14185,-31.14
14197,-14.92
14209,0.03
14221,12.53
14233,22.14
14245,28.89
14257,33.14
14268,35.29
14279,35.8
14291,35.11
14303,33.65
14315,31.9
14327,30.2
14339,28.74
14351,27.53
14363,26.45
14375,25.38
14387,24.38
14399,23.64
14411,23.44
14423,24.04
14435,25.43
14447,27.37
14458,29.4
14469,31.02
14481,31.83
14493,31.66
14505,30.57
14517,28.7
14529,26.25
14541,23.41
14553,20.32
14565,17.12
14577,13.96
14589,10.97
14601,8.21
14613,5.67
14625,3.3
14637,1.08
14648,-1.03
14659,-3.0
14671,-4.78
14683,-6.36
14695,-7.76
14707,-9.02
14719,-10.25
14731,-11.56
14743,-13.05
14755,-14.8
14767,-16.8
14779,-18.94
14791,-21.08
14803,-23.06
14815,-24.84
14827,-26.53
14838,-28.36
14849,-30.56
14861,-33.2
14873,-36.17
14885,-39.2
14897,-41.97
14909,-44.22
14921,-45.86
14933,-46.94
14945,-47.69
14957,-48.45
14969,-49.7
14981,-51.88
14993,-55.2
15005,-59.34
15017,-63.31
15028,-65.57
15039,-64.5
15051,-58.92
15063,-48.62
15075,-34.48
15087,-18.14
15099,-1.49
15111,13.86
15123,26.88
15135,37.11
15147,44.54
15159,49.41
15171,52.14
15183,53.23
15195,53.23
15207,52.61
15218,51.62
15229,50.29
15241,48.56
15253,46.39
15265,43.94
15277,41.53
15289,39.52
15301,38.21
15313,37.69
15325,37.83
15337,38.34
15349,38.92
15361,39.28
15373,39.21
15385,38.56
15397,37.32
15408,35.56
15419,33.47
15431,31.32
15443,29.35
15455,27.72
15467,26.42
15479,25.27
15491,24.04
15503,22.48
15515,20.51
15527,18.14
15539,15.57
15551,12.98
15563,10.54
15575,8.25
15587,6.06
15598,3.86
15609,1.6
15621,-0.65
15633,-2.82
15645,-4.84
15657,-6.78
15669,-8.83
15681,-11.17
15693,-13.91
15705,-16.93
15717,-19.98
15729,-22.78
15741,-25.22
15753,-27.39
15765,-29.57
15777,-32.18
15788,-35.54
15799,-39.89
15811,-45.22
15823,-51.2
15835,-57.08
15847,-61.72
15859,-63.8
15871,-62.18
15883,-56.34
15895,-46.57
15907,-33.94
15919,-19.95
15931,-6.08
15943,6.56
15955,17.32
15967,25.9
15978,32.17
15989,36.11
16001,37.75
16013,37.32
16025,35.25
16037,32.12
16049,28.6
16061,25.21
16073,22.37
16085,20.27
16097,19.02
16109,18.62
16121,19.02
16133,20.13
16145,21.79
16157,23.77
16168,25.8
16179,27.59
16191,28.85
16203,29.39
16215,29.11
16227,28.01
16239,26.22
16251,23.9
16263,21.25
16275,18.45
16287,15.6
16299,12.7
16311,9.7
16323,6.54
16335,3.23
16347,-0.18
16358,-3.59
16369,-6.92
16381,-10.16
16393,-13.41
16405,-16.82
16417,-20.51
16429,-24.48
16441,-28.58
16453,-32.58
16465,-36.28
16477,-39.6
16489,-42.73
16501,-46.05
16513,-50.03
16525,-55.08
16537,-61.22
16548,-67.99
16559,-74.38
16571,-78.99
16583,-80.4
16595,-77.55
16607,-70.07
16619,-58.44
16631,-43.83
16643,-27.78
16655,-11.81
16667,2.82
16679,15.3
16691,25.2
16703,32.44
16715,37.17
16727,39.76
16738,40.72
16749,40.58
16761,39.82
16773,38.77
16785,37.59
16797,36.36
16809,35.14
16821,34.12
16833,33.54
16845,33.6
16857,34.42
16869,35.89
16881,37.79
16893,39.83
16905,41.69
16917,43.1
16928,43.83
16939,43.69
16951,42.58
16963,40.53
16975,37.67
16987,34.27
16999,30.62
17011,27.01
17023,23.63
17035,20.51
17047,17.53
17059,14.47
17071,11.06
17083,7.15
17095,2.81
17107,-1.7
17118,-5.97
17129,-9.71
17141,-12.84
17153,-15.57
17165,-18.34
17177,-21.53
17189,-25.33
17201,-29.61
17213,-34.02
17225,-38.16
17237,-41.71
17249,-44.6
17261,-46.99
17273,-49.28
17285,-51.99
17297,-55.61
17308,-60.42
17319,-66.28
17331,-72.52
17343,-77.93
17355,-80.98
17367,-80.24
17379,-74.77
17391,-64.53
17403,-50.36
17415,-33.83
17427,-16.77
17439,-0.83
17451,12.77
17463,23.39
17475,30.9
17487,35.55
17498,37.8
17509,38.23
17521,37.43
17533,36.0
17545,34.39
17557,32.96
17569,31.88
17581,31.19
17593,30.85
17605,30.81
17617,31.01
17629,31.43
17641,32.12
17653,33.13
17665,34.48
17677,36.06
17688,37.71
17699,39.15
17711,40.09
17723,40.34
17735,39.85
17747,38.71
17759,37.07
17771,35.03
17783,32.69
17795,30.05
17807,27.16
17819,24.1
17831,21.06
17843,18.2
17855,15.68
17867,13.53
17878,11.68
17889,9.96
17901,8.16
17913,6.09
17925,3.66
17937,0.94
17949,-1.9
17961,-4.65
17973,-7.19
17985,-9.57
17997,-11.99
18009,-14.77
18021,-18.12
18033,-22.08
18045,-26.46
18057,-30.93
18068,-35.17
18079,-39.03
18091,-42.52
18103,-45.8
18115,-49.09
18127,-52.59
18139,-56.51
18151,-61.01
18163,-66.07
18175,-71.31
18187,-75.84
18199,-78.36
18211,-77.43
18223,-71.98
18235,-61.75
18247,-47.47
18258,-30.68
18269,-13.24
18281,3.1
18293,17.11
18305,28.12
18317,36.0
18329,40.9
18341,43.24
18353,43.54
18365,42.41
18377,40.44
18389,38.12
18401,35.82
18413,33.72
18425,31.95
18437,30.56
18448,29.62
18459,29.21
18471,29.35
18483,30.08
18495,31.3
18507,32.89
18519,34.6
18531,36.16
18543,37.21
18555,37.51
18567,36.95
18579,35.59
18591,33.68
18603,31.52
18615,29.36
18627,27.36
18638,25.51
18649,23.73
18661,21.91
18673,19.97
18685,17.85
18697,15.56
18709,13.11
18721,10.58
18733,8.06
18745,5.64
18757,3.43
18769,1.38
18781,-0.62
18793,-2.79
18805,-5.33
18817,-8.36
18828,-11.89
18839,-15.78
18851,-19.8
18863,-23.74
18875,-27.43
18887,-30.79
18899,-33.89
18911,-36.87
18923,-40.0
18935,-43.6
18947,-47.99
18959,-53.32
18971,-59.35
18983,-65.27
18995,-69.81
19007,-71.44
19018,-68.87
19029,-61.52
19041,-49.74
19053,-34.78
19065,-18.4
19077,-2.42
19089,11.71
19101,23.15
19113,31.64
19125,37.32
19137,40.55
19149,41.73
19161,41.29
19173,39.61
19185,37.05
19197,33.99
19208,30.81
19219,27.91
19231,25.61
19243,24.12
19255,23.51
19267,23.7
19279,24.55
19291,25.98
19303,27.85
19315,30.05
19327,32.36
19339,34.43
19351,35.88
19363,36.42
19375,35.88
19387,34.36
19398,32.07
19409,29.3
19421,26.29
19433,23.25
19445,20.31
19457,17.52
19469,14.87
19481,12.25
19493,9.48
19505,6.47
19517,3.17
19529,-0.3
19541,-3.71
19553,-6.78
19565,-9.35
19577,-11.41
19588,-13.21
19599,-15.07
19611,-17.28
19623,-19.98
19635,-23.09
19647,-26.39
19659,-29.65
19671,-32.7
19683,-35.55
19695,-38.38
19707,-41.4
19719,-44.88
19731,-49.07
19743,-54.12
19755,-59.98
19767,-66.28
19778,-72.1
19789,-76.09
19801,-76.75
19813,-72.88
19825,-64.04
19837,-50.78
19849,-34.49
19861,-17.05
19873,-0.3
19885,14.32
19897,25.97
19909,34.35
19921,39.59
19933,42.12
19945,42.56
19957,41.64
19968,40.04
19979,38.29
19991,36.69
20003,35.33
20015,34.19
20027,33.24
20039,32.49
20051,32.03
20063,31.94
20075,32.25
20087,32.94
20099,33.99
20111,35.29
20123,36.7
20135,37.95
20147,38.73
20158,38.7
20169,37.68
20181,35.69
20193,32.96
20205,29.82
20217,26.6
20229,23.52
20241,20.7
20253,18.14
20265,15.82
20277,13.69
20289,11.7
20301,9.83
20313,8.05
20325,6.39
20337,4.85
20348,3.37
20359,1.81
20371,-0.05
20383,-2.34
20395,-5.07
20407,-8.06
20419,-10.96
20431,-13.48
20443,-15.49
20455,-17.13
20467,-18.74
20479,-20.76
20491,-23.51
20503,-27.05
20515,-31.18
20527,-35.49
20538,-39.57
20549,-43.18
20561,-46.36
20573,-49.4
20585,-52.8
20597,-57.05
20609,-62.39
20621,-68.69
20633,-75.28
20645,-80.96
20657,-84.21
20669,-83.53
20681,-77.92
20693,-67.2
20705,-52.23
20717,-34.64
20728,-16.47
20739,0.42
20751,14.69
20763,25.69
20775,33.38
20787,38.14
20799,40.56
20811,41.28
20823,40.89
20835,39.86
20847,38.52
20859,37.03
20871,35.46
20883,33.85
20895,32.28
20907,30.9
20918,29.9
20929,29.53
20941,29.93
20953,31.17
20965,33.16
20977,35.58
20989,38.01
