seconds,BVP
6,-23.17
18,-24.0
30,-24.52
42,-24.78
54,-25.0
66,-25.46
78,-26.43
90,-28.04
101,-30.18
112,-32.51
124,-34.54
136,-35.75
148,-35.74
160,-34.32
172,-31.59
184,-27.84
196,-23.52
208,-19.08
220,-14.83
232,-10.97
244,-7.5
256,-4.4
268,-1.63
280,0.76
291,2.66
302,4.02
314,4.87
326,5.42
338,5.97
350,6.82
362,8.11
374,9.8
386,11.66
398,13.42
410,14.91
422,16.05
434,16.87
446,17.42
458,17.75
470,17.85
481,17.76
492,17.48
504,17.06
516,16.55
528,15.99
540,15.4
552,14.81
564,14.19
576,13.47
588,12.49
600,11.11
612,9.25
624,6.96
636,4.44
648,1.9
660,-0.48
671,-2.72
682,-4.88
694,-7.07
706,-9.3
718,-11.48
730,-13.51
742,-15.35
754,-17.06
766,-18.76
778,-20.46
790,-22.04
802,-23.19
814,-23.58
826,-23.03
838,-21.56
850,-19.43
861,-17.03
872,-14.7
884,-12.67
896,-11.02
908,-9.75
920,-8.82
932,-8.21
944,-7.89
956,-7.79
968,-7.81
980,-7.79
992,-7.6
1004,-7.14
1016,-6.42
1028,-5.53
1040,-4.61
1051,-3.84
1062,-3.34
1074,-3.15
1086,-3.18
1098,-3.29
1110,-3.26
1122,-2.96
1134,-2.33
1146,-1.5
1158,-0.68
1170,-0.12
1182,0.0
1194,-0.27
1206,-0.77
1218,-1.24
1230,-1.55
1241,-1.71
1252,-1.93
1264,-2.42
1276,-3.29
1288,-4.51
1300,-5.88
1312,-7.22
1324,-8.42
1336,-9.53
1348,-10.64
1360,-11.79
1372,-12.94
1384,-13.98
1396,-14.8
1408,-15.38
1420,-15.74
1431,-15.91
1442,-15.82
1454,-15.33
1466,-14.28
1478,-12.54
1490,-10.13
1502,-7.26
1514,-4.23
1526,-1.38
1538,1.03
1550,2.88
1562,4.17
1574,4.97
1586,5.36
1598,5.39
1610,5.15
1621,4.74
1632,4.3
1644,3.92
1656,3.65
1668,3.45
1680,3.19
1692,2.77
1704,2.14
1716,1.33
1728,0.44
1740,-0.42
1752,-1.28
1764,-2.19
1776,-3.26
1788,-4.51
1800,-5.86
1811,-7.15
1822,-8.21
1834,-8.99
1846,-9.57
1858,-10.13
1870,-10.88
1882,-11.97
1894,-13.41
1906,-15.1
1918,-16.9
1930,-18.69
1942,-20.4
1954,-21.96
1966,-23.29
1978,-24.33
1990,-25.01
2001,-25.34
2012,-25.38
2024,-25.18
2036,-24.69
2048,-23.8
2060,-22.3
2072,-19.99
2084,-16.76
2096,-12.68
2108,-7.99
2120,-3.04
2132,1.82
2144,6.3
2156,10.22
2168,13.51
2180,16.14
2191,18.04
2202,19.15
2214,19.45
2226,19.03
2238,18.13
2250,17.1
2262,16.28
2274,15.86
2286,15.74
2298,15.57
2310,14.92
2322,13.48
2334,11.18
2346,8.27
2358,5.19
2370,2.46
2381,0.53
2392,-0.34
2404,-0.09
2416,1.09
2428,2.79
2440,4.41
2452,5.32
2464,5.04
2476,3.43
2488,0.69
2500,-2.75
2512,-6.4
2524,-9.89
2536,-13.06
2548,-15.94
2560,-18.65
2571,-21.32
2582,-24.02
2594,-26.73
2606,-29.32
2618,-31.51
2630,-32.91
2642,-33.15
2654,-31.9
2666,-29.07
2678,-24.77
2690,-19.27
2702,-12.96
2714,-6.27
2726,0.36
2738,6.51
2750,11.8
2761,15.98
2772,18.99
2784,20.94
2796,22.11
2808,22.84
2820,23.36
2832,23.78
2844,24.01
2856,23.86
2868,23.14
2880,21.78
2892,19.89
2904,17.71
2916,15.57
2928,13.7
2940,12.19
2951,11.0
2962,10.0
2974,9.02
2986,7.92
2998,6.6
3010,4.97
3022,3.0
3034,0.77
3046,-1.53
3058,-3.6
3070,-5.19
3082,-6.13
3094,-6.44
3106,-6.32
3118,-6.05
3130,-5.94
3141,-6.21
3152,-6.91
3164,-7.9
3176,-8.88
3188,-9.47
3200,-9.33
3212,-8.29
3224,-6.41
3236,-3.96
3248,-1.31
3260,1.17
3272,3.28
3284,4.92
3296,6.12
3308,6.9
3320,7.32
3331,7.45
3342,7.4
3354,7.33
3366,7.42
3378,7.8
3390,8.51
3402,9.46
3414,10.46
3426,11.3
3438,11.82
3450,11.97
3462,11.83
3474,11.56
3486,11.35
3498,11.33
3510,11.51
3521,11.79
3532,12.01
3544,12.01
3556,11.68
3568,11.04
3580,10.19
3592,9.27
3604,8.41
3616,7.71
3628,7.14
3640,6.61
3652,6.0
3664,5.17
3676,4.02
3688,2.58
3700,1.0
3711,-0.47
3722,-1.52
3734,-1.84
3746,-1.24
3758,0.26
3770,2.46
3782,5.03
3794,7.58
3806,9.79
3818,11.43
3830,12.35
3842,12.51
3854,11.96
3866,10.89
3878,9.55
3890,8.23
3901,7.17
3912,6.47
3924,6.12
3936,6.0
3948,5.99
3960,6.03
3972,6.13
3984,6.32
3996,6.59
4008,6.91
4020,7.2
4032,7.41
4044,7.51
4056,7.53
4068,7.44
4080,7.24
4091,6.91
4102,6.44
4114,5.84
4126,5.11
4138,4.2
4150,3.04
4162,1.55
4174,-0.28
4186,-2.32
4198,-4.35
4210,-6.03
4222,-7.04
4234,-7.16
4246,-6.32
4258,-4.62
4270,-2.29
4281,0.36
4292,3.01
4304,5.42
4316,7.44
4328,8.98
4340,9.99
4352,10.47
4364,10.4
4376,9.85
4388,8.93
4400,7.84
4412,6.77
4424,5.88
4436,5.24
4448,4.83
4460,4.55
4471,4.28
4482,3.95
4494,3.53
4506,3.04
4518,2.54
4530,2.06
4542,1.61
4554,1.17
4566,0.67
4578,0.08
4590,-0.65
4602,-1.49
4614,-2.39
4626,-3.29
4638,-4.15
4650,-5.0
4661,-5.93
4672,-7.05
4684,-8.47
4696,-10.2
4708,-12.06
4720,-13.78
4732,-14.99
4744,-15.44
4756,-15.04
4768,-13.92
4780,-12.42
4792,-10.89
4804,-9.59
4816,-8.63
4828,-7.96
4840,-7.44
4851,-6.91
4862,-6.22
4874,-5.37
4886,-4.46
4898,-3.68
4910,-3.21
4922,-3.18
4934,-3.53
4946,-4.11
4958,-4.76
4970,-5.38
4982,-6.01
4994,-6.72
5006,-7.61
5018,-8.59
5030,-9.55
5041,-10.34
5052,-10.94
5064,-11.45
5076,-12.1
5088,-13.05
5100,-14.34
5112,-15.84
5124,-17.31
5136,-18.54
5148,-19.4
5160,-19.92
5172,-20.16
5184,-20.19
5196,-19.94
5208,-19.25
5220,-17.92
5231,-15.84
5242,-13.0
5254,-9.5
5266,-5.47
5278,-0.93
5290,4.21
5302,10.07
5314,16.69
5326,23.91
5338,31.36
5350,38.58
5362,45.08
5374,50.54
5386,54.81
5398,57.91
5410,59.89
5421,60.81
5432,60.71
5444,59.68
5456,57.99
5468,56.18
5480,55.01
5492,55.33
5504,57.82
5516,62.75
5528,69.84
5540,78.35
5552,87.28
5564,95.66
5576,102.78
5588,108.18
5600,111.6
5611,112.87
5622,111.76
5634,107.99
5646,101.24
5658,91.27
5670,78.05
5682,61.98
5694,43.92
5706,25.16
5718,7.13
5730,-8.95
5742,-22.45
5754,-33.46
5766,-42.65
5778,-50.97
5790,-59.2
5801,-67.69
5812,-76.39
5824,-84.96
5836,-93.01
5848,-100.27
5860,-106.65
5872,-112.15
5884,-116.77
5896,-120.43
5908,-122.92
5920,-123.87
5932,-122.79
5944,-119.05
5956,-111.99
5968,-100.95
5980,-85.49
5991,-65.61
6002,-41.93
6014,-15.71
6026,11.33
6038,37.41
6050,61.14
6062,81.8
6074,99.3
6086,113.97
6098,126.22
6110,136.42
6122,144.91
6134,152.2
6146,159.03
6158,166.34
6170,174.98
6181,185.36
6192,197.18
6204,209.27
6216,219.77
6228,226.42
6240,227.13
6252,220.65
6264,206.99
6276,187.63
6288,165.16
6300,142.54
6312,122.19
6324,105.42
6336,92.34
6348,82.23
6360,74.2
6371,67.7
6382,62.63
6394,59.26
6406,57.88
6418,58.62
6430,61.26
6442,65.33
6454,70.11
6466,74.68
6478,78.01
6490,79.12
6502,77.29
6514,72.23
6526,64.19
6538,53.82
6550,41.8
6561,28.54
6572,13.92
6584,-2.65
6596,-21.96
6608,-44.56
6620,-70.29
6632,-98.15
6644,-126.43
6656,-153.18
6668,-176.86
6680,-196.77
6692,-213.28
6704,-227.64
6716,-241.43
6728,-255.93
6740,-271.56
6751,-287.57
6762,-302.29
6774,-313.67
6786,-320.1
6798,-320.87
6810,-316.21
6822,-306.89
6834,-293.66
6846,-277.06
6858,-257.52
6870,-235.95
6882,-214.03
6894,-194.07
6906,-178.15
6918,-167.2
6930,-160.38
6941,-155.39
6952,-149.47
6964,-140.6
6976,-128.17
6988,-112.81
7000,-95.67
7012,-77.51
7024,-58.45
7036,-38.28
7048,-17.15
7060,3.88
7072,22.9
7084,37.79
7096,47.14
7108,50.79
7120,49.9
7131,46.41
7142,42.26
7154,38.78
7166,36.51
7178,35.37
7190,35.18
7202,35.92
7214,37.91
7226,41.54
7238,47.07
7250,54.36
7262,62.84
7274,71.66
7286,79.85
7298,86.47
7310,90.75
7321,92.13
7332,90.32
7344,85.36
7356,77.62
7368,67.7
7380,56.27
7392,43.98
7404,31.39
7416,19.02
7428,7.51
7440,-2.41
7452,-10.02
7464,-14.87
7476,-16.93
7488,-16.67
7500,-14.86
7511,-12.3
7522,-9.63
7534,-7.19
7546,-5.12
7558,-3.43
7570,-2.14
7582,-1.28
7594,-0.87
7606,-0.87
7618,-1.24
7630,-1.87
7642,-2.71
7654,-3.75
7666,-5.03
7678,-6.56
7690,-8.32
7701,-10.23
7712,-12.16
7724,-13.96
7736,-15.45
7748,-16.51
7760,-17.09
7772,-17.33
7784,-17.44
7796,-17.74
7808,-18.44
7820,-19.61
7832,-21.1
7844,-22.62
7856,-23.84
7868,-24.46
7880,-24.27
7891,-23.16
7902,-21.18
7914,-18.45
7926,-15.24
7938,-11.86
7950,-8.64
7962,-5.82
7974,-3.4
7986,-1.25
7998,0.91
8010,3.28
8022,5.91
8034,8.64
8046,11.21
8058,13.36
8070,14.98
8081,16.13
8092,16.97
8104,17.64
8116,18.21
8128,18.58
8140,18.65
8152,18.31
8164,17.59
8176,16.57
8188,15.38
8200,14.11
8212,12.8
8224,11.46
8236,10.08
8248,8.63
8260,7.14
8271,5.59
8282,4.01
8294,2.39
8306,0.78
8318,-0.83
8330,-2.46
8342,-4.17
8354,-6.0
8366,-7.94
8378,-9.81
8390,-11.38
8402,-12.45
8414,-12.93
8426,-13.0
8438,-12.98
8450,-13.2
8461,-13.8
8472,-14.61
8484,-15.21
8496,-15.04
8508,-13.69
8520,-11.02
8532,-7.2
8544,-2.64
8556,2.19
8568,6.89
8580,11.21
8592,15.02
8604,18.31
8616,21.13
8628,23.56
8640,25.69
8651,27.58
8662,29.29
8674,30.84
8686,32.28
8698,33.69
8710,35.2
8722,36.92
8734,38.91
8746,41.04
8758,43.1
8770,44.85
8782,46.07
8794,46.69
8806,46.72
8818,46.17
8830,45.03
8841,43.26
8852,40.85
8864,37.85
8876,34.44
8888,30.9
8900,27.55
8912,24.65
8924,22.38
8936,20.75
8948,19.58
8960,18.54
8972,17.26
8984,15.48
8996,13.24
9008,10.95
9020,9.26
9031,8.84
9042,10.13
9054,13.12
9066,17.46
9078,22.6
9090,28.05
9102,33.49
9114,38.8
9126,43.9
9138,48.63
9150,52.7
9162,55.73
9174,57.39
9186,57.52
9198,56.11
9210,53.2
9221,48.76
9232,42.65
9244,34.75
9256,25.08
9268,13.99
9280,2.16
9292,-9.56
9304,-20.3
9316,-29.51
9328,-36.96
9340,-42.76
9352,-47.2
9364,-50.59
9376,-53.2
9388,-55.22
9400,-56.83
9411,-58.17
9422,-59.38
9434,-60.49
9446,-61.37
9458,-61.69
9470,-60.96
9482,-58.71
9494,-54.58
9506,-48.56
9518,-40.97
9530,-32.46
9542,-23.77
9554,-15.64
9566,-8.62
9578,-2.98
9590,1.18
9601,3.94
9612,5.35
9624,5.47
9636,4.38
9648,2.23
9660,-0.63
9672,-3.73
9684,-6.53
9696,-8.71
9708,-10.22
9720,-11.3
9732,-12.3
9744,-13.43
9756,-14.62
9768,-15.51
9780,-15.76
9791,-15.19
9802,-13.93
9814,-12.36
9826,-10.96
9838,-10.13
9850,-10.2
9862,-11.41
9874,-14.03
9886,-18.2
9898,-23.9
9910,-30.83
9922,-38.38
9934,-45.85
9946,-52.61
9958,-58.29
9970,-62.69
9981,-65.69
9992,-66.98
10004,-66.09
10016,-62.51
10028,-56.05
10040,-47.07
10052,-36.56
10064,-25.93
10076,-16.58
10088,-9.58
10100,-5.46
10112,-4.23
10124,-5.5
10136,-8.62
10148,-12.82
10160,-17.24
10171,-21.12
10182,-23.91
10194,-25.54
10206,-26.55
10218,-27.98
10230,-31.02
10242,-36.54
10254,-44.55
10266,-53.88
10278,-62.48
10290,-68.09
10302,-69.08
10314,-65.17
10326,-57.43
10338,-47.74
10350,-37.97
10361,-29.29
10372,-22.06
10384,-16.1
10396,-11.19
10408,-7.32
10420,-4.55
10432,-2.69
10444,-1.12
10456,1.06
10468,4.6
10480,9.76
10492,16.12
10504,22.87
10516,29.2
10528,34.6
10540,38.94
10551,42.34
10562,44.92
10574,46.73
10586,47.65
10598,47.44
10610,45.88
10622,42.78
10634,38.11
10646,32.06
10658,25.04
10670,17.73
10682,10.96
10694,5.59
10706,2.34
10718,1.57
10730,3.24
10741,6.96
10752,12.03
10764,17.74
10776,23.52
10788,29.01
10800,34.11
10812,38.84
10824,43.27
10836,47.31
10848,50.78
10860,53.36
10872,54.73
10884,54.67
10896,53.13
10908,50.25
10920,46.24
10931,41.38
10942,35.87
10954,29.89
10966,23.63
10978,17.32
10990,11.27
11002,5.7
11014,0.73
11026,-3.74
11038,-7.93
11050,-12.1
11062,-16.32
11074,-20.46
11086,-24.25
11098,-27.42
11110,-29.89
11121,-31.8
11132,-33.39
11144,-34.76
11156,-35.59
11168,-35.21
11180,-32.86
11192,-28.14
11204,-21.31
11216,-13.32
11228,-5.44
11240,1.33
11252,6.59
11264,10.59
11276,13.95
11288,17.15
11300,20.29
11311,23.05
11322,25.04
11334,26.11
11346,26.53
11358,26.81
11370,27.4
11382,28.39
11394,29.5
11406,30.28
11418,30.38
11430,29.74
11442,28.55
11454,27.11
11466,25.53
11478,23.56
11490,20.67
11501,16.22
11512,9.79
11524,1.47
11536,-8.07
11548,-17.61
11560,-25.7
11572,-30.96
11584,-32.52
11596,-30.31
11608,-25.14
11620,-18.38
11632,-11.51
11644,-5.63
11656,-1.1
11668,2.34
11680,5.27
11691,8.15
11702,11.02
11714,13.53
11726,15.2
11738,15.76
11750,15.37
11762,14.55
11774,13.97
11786,14.21
11798,15.5
11810,17.81
11822,20.88
11834,24.42
11846,28.15
11858,31.83
11870,35.28
11881,38.33
11892,40.84
11904,42.81
11916,44.37
11928,45.78
11940,47.37
11952,49.37
11964,51.81
11976,54.46
11988,56.86
12000,58.5
12012,58.96
12024,58.05
12036,55.89
12048,52.77
12060,49.07
12071,45.07
12082,40.87
12094,36.36
12106,31.35
12118,25.67
12130,19.25
12142,12.15
12154,4.56
12166,-3.29
12178,-11.13
12190,-18.73
12202,-25.94
12214,-32.8
12226,-39.56
12238,-46.58
12250,-54.14
12261,-62.18
12272,-70.03
12284,-76.46
12296,-80.06
12308,-79.74
12320,-75.24
12332,-67.31
12344,-57.44
12356,-47.31
12368,-38.24
12380,-30.87
12392,-25.29
12404,-21.3
12416,-18.75
12428,-17.6
12440,-17.72
12451,-18.65
12462,-19.59
12474,-19.62
12486,-18.12
12498,-15.1
12510,-11.26
12522,-7.63
12534,-5.11
12546,-4.04
12558,-4.07
12570,-4.43
12582,-4.27
12594,-3.09
12606,-0.95
12618,1.66
12630,4.12
12641,5.95
12652,7.08
12664,7.82
12676,8.66
12688,9.97
12700,11.83
12712,13.97
12724,15.98
12736,17.63
12748,18.98
12760,20.46
12772,22.62
12784,25.85
12796,30.24
12808,35.51
12820,41.18
12831,46.73
12842,51.69
12854,55.59
12866,58.0
12878,58.59
12890,57.26
12902,54.3
12914,50.32
12926,46.09
12938,42.2
12950,38.87
12962,35.96
12974,33.21
12986,30.47
12998,27.89
13010,25.9
13021,24.94
13032,25.24
13044,26.82
13056,29.45
13068,32.85
13080,36.68
13092,40.58
13104,44.15
13116,46.9
13128,48.46
13140,48.66
13152,47.55
13164,45.24
13176,41.77
13188,37.0
13200,30.74
13211,22.99
13222,14.18
13234,5.16
13246,-3.02
13258,-9.47
13270,-13.75
13282,-15.99
13294,-16.68
13306,-16.37
13318,-15.49
13330,-14.22
13342,-12.6
13354,-10.67
13366,-8.55
13378,-6.44
13390,-4.56
13401,-2.99
13412,-1.76
13424,-0.77
13436,-0.0
13448,0.45
13460,0.34
13472,-0.66
13484,-2.86
13496,-6.44
13508,-11.35
13520,-17.4
13532,-24.26
13544,-31.56
13556,-39.02
13568,-46.42
13580,-53.71
13591,-60.84
13602,-67.77
13614,-74.37
13626,-80.33
13638,-85.25
13650,-88.73
13662,-90.43
13674,-90.17
13686,-87.93
13698,-83.88
13710,-78.3
13722,-71.61
13734,-64.27
13746,-56.74
13758,-49.41
13770,-42.5
13781,-36.05
13792,-29.95
13804,-24.12
13816,-18.52
13828,-13.28
13840,-8.64
13852,-4.82
13864,-1.94
13876,0.05
13888,1.34
13900,2.2
13912,2.92
13924,3.71
13936,4.67
13948,5.78
13960,6.93
13971,7.98
13982,8.84
13994,9.45
14006,9.85
14018,10.08
14030,10.13
14042,9.99
14054,9.59
14066,8.93
14078,8.05
14090,7.08
14102,6.13
14114,5.24
14126,4.4
14138,3.54
14150,2.59
14161,1.57
14172,0.55
14184,-0.34
14196,-0.99
14208,-1.34
14220,-1.44
14232,-1.43
14244,-1.44
14256,-1.57
14268,-1.82
14280,-2.13
14292,-2.41
14304,-2.65
14316,-2.96
14328,-3.54
14340,-4.53
14351,-5.95
14362,-7.63
14374,-9.18
14386,-10.2
14398,-10.31
14410,-9.35
14422,-7.36
14434,-4.6
14446,-1.42
14458,1.76
14470,4.51
14482,6.5
14494,7.53
14506,7.58
14518,6.83
14530,5.67
14541,4.55
14552,3.84
14564,3.71
14576,4.06
14588,4.6
14600,5.0
14612,5.03
14624,4.69
14636,4.2
14648,3.88
14660,3.94
14672,4.46
14684,5.23
14696,5.88
14708,6.01
14720,5.37
14731,3.98
14742,2.13
14754,0.25
14766,-1.25
14778,-2.15
14790,-2.45
14802,-2.3
14814,-1.88
14826,-1.35
14838,-0.83
14850,-0.47
14862,-0.38
14874,-0.63
14886,-1.16
14898,-1.72
14910,-2.02
14921,-1.86
14932,-1.25
14944,-0.37
14956,0.52
14968,1.19
14980,1.54
14992,1.56
15004,1.26
15016,0.63
15028,-0.29
15040,-1.41
15052,-2.51
15064,-3.36
15076,-3.81
15088,-3.92
15100,-3.92
15111,-4.09
15122,-4.66
15134,-5.65
15146,-6.97
15158,-8.45
15170,-10.03
15182,-11.77
15194,-13.8
15206,-16.24
15218,-19.04
15230,-22.05
15242,-25.0
15254,-27.65
15266,-29.82
15278,-31.36
15290,-32.11
15301,-31.85
15312,-30.37
15324,-27.61
15336,-23.81
15348,-19.44
15360,-15.04
15372,-10.95
15384,-7.14
15396,-3.26
15408,1.06
15420,5.9
15432,10.92
15444,15.49
15456,19.04
15468,21.33
15480,22.58
15491,23.29
15502,23.95
15514,24.81
15526,25.82
15538,26.8
15550,27.53
15562,27.96
15574,28.09
15586,27.98
15598,27.62
15610,26.97
15622,26.0
15634,24.74
15646,23.29
15658,21.81
15670,20.41
15681,19.17
15692,18.01
15704,16.8
15716,15.37
15728,13.6
15740,11.52
15752,9.25
15764,6.95
15776,4.76
15788,2.73
15800,0.84
15812,-0.96
15824,-2.7
15836,-4.33
15848,-5.74
15860,-6.68
15871,-6.91
15882,-6.21
15894,-4.44
15906,-1.71
15918,1.73
15930,5.47
15942,9.11
15954,12.35
15966,15.09
15978,17.36
15990,19.27
16002,20.89
16014,22.22
16026,23.25
16038,23.99
16050,24.54
16061,25.1
16072,25.8
16084,26.72
16096,27.8
16108,28.9
16120,29.9
16132,30.77
16144,31.6
16156,32.54
16168,33.69
16180,34.99
16192,36.26
16204,37.22
16216,37.67
16228,37.52
16240,36.85
16251,35.83
16262,34.62
16274,33.33
16286,32.01
16298,30.68
16310,29.42
16322,28.33
16334,27.49
16346,26.93
16358,26.51
16370,26.0
16382,25.05
16394,23.35
16406,20.74
16418,17.28
16430,13.23
16441,9.01
16452,5.03
16464,1.56
16476,-1.36
16488,-3.87
16500,-6.19
16512,-8.55
16524,-11.05
16536,-13.65
16548,-16.23
16560,-18.66
16572,-20.87
16584,-22.88
16596,-24.79
16608,-26.71
16620,-28.71
16631,-30.83
16642,-33.06
16654,-35.36
16666,-37.67
16678,-39.85
16690,-41.71
16702,-43.02
16714,-43.58
16726,-43.32
16738,-42.32
16750,-40.79
16762,-38.99
16774,-37.12
16786,-35.27
16798,-33.47
16810,-31.71
16821,-30.05
16832,-28.57
16844,-27.38
16856,-26.51
16868,-25.9
16880,-25.39
16892,-24.82
16904,-24.05
16916,-23.07
16928,-21.96
16940,-20.87
16952,-19.97
16964,-19.38
16976,-19.15
16988,-19.24
17000,-19.57
17011,-19.98
17022,-20.23
17034,-20.04
17046,-19.11
17058,-17.22
17070,-14.35
17082,-10.71
17094,-6.67
17106,-2.66
17118,1.02
17130,4.23
17142,7.05
17154,9.6
17166,11.94
17178,14.06
17190,15.83
17201,17.12
17212,17.93
17224,18.34
17236,18.57
17248,18.81
17260,19.15
17272,19.58
17284,19.95
17296,20.13
17308,20.02
17320,19.64
17332,19.04
17344,18.33
17356,17.56
17368,16.72
17380,15.77
17391,14.67
17402,13.45
17414,12.19
17426,11.03
17438,10.08
17450,9.35
17462,8.81
17474,8.29
17486,7.65
17498,6.74
17510,5.53
17522,4.06
17534,2.45
17546,0.9
17558,-0.42
17570,-1.37
17581,-1.91
17592,-2.15
17604,-2.33
17616,-2.75
17628,-3.64
17640,-5.08
17652,-6.94
17664,-8.88
17676,-10.51
17688,-11.43
17700,-11.41
17712,-10.38
17724,-8.45
17736,-5.89
17748,-3.01
17760,-0.14
17771,2.44
17782,4.59
17794,6.28
17806,7.56
17818,8.54
17830,9.31
17842,9.9
17854,10.34
17866,10.64
17878,10.85
17890,11.07
17902,11.38
17914,11.81
17926,12.31
17938,12.78
17950,13.1
17961,13.18
17972,13.03
17984,12.72
17996,12.39
18008,12.15
18020,12.03
18032,11.97
18044,11.84
18056,11.51
18068,10.93
18080,10.12
18092,9.19
18104,8.25
18116,7.41
18128,6.72
18140,6.19
18151,5.78
18162,5.41
18174,5.03
18186,4.6
18198,4.09
18210,3.51
18222,2.85
18234,2.11
18246,1.27
18258,0.34
18270,-0.63
18282,-1.58
18294,-2.43
18306,-3.18
18318,-3.9
18330,-4.72
18341,-5.79
18352,-7.16
18364,-8.73
18376,-10.26
18388,-11.4
18400,-11.84
18412,-11.38
18424,-10.02
18436,-8.0
18448,-5.67
18460,-3.43
18472,-1.55
18484,-0.14
18496,0.9
18508,1.72
18520,2.5
18531,3.29
18542,4.01
18554,4.54
18566,4.82
18578,4.85
18590,4.8
18602,4.83
18614,5.01
18626,5.29
18638,5.47
18650,5.37
18662,4.96
18674,4.33
18686,3.71
18698,3.3
18710,3.17
18721,3.24
18732,3.32
18744,3.24
18756,2.95
18768,2.5
18780,2.04
18792,1.64
18804,1.32
18816,1.02
18828,0.68
18840,0.27
18852,-0.15
18864,-0.56
18876,-0.91
18888,-1.25
18900,-1.65
18911,-2.14
18922,-2.73
18934,-3.33
18946,-3.84
18958,-4.22
18970,-4.49
18982,-4.8
18994,-5.27
19006,-6.0
19018,-6.98
19030,-8.1
19042,-9.23
19054,-10.22
19066,-10.96
19078,-11.33
19090,-11.19
19101,-10.4
19112,-8.88
19124,-6.72
19136,-4.17
19148,-1.62
19160,0.56
19172,2.16
19184,3.17
19196,3.74
19208,4.05
19220,4.25
19232,4.36
19244,4.35
19256,4.22
19268,4.01
19280,3.84
19291,3.84
19302,4.05
19314,4.41
19326,4.81
19338,5.15
19350,5.39
19362,5.55
19374,5.64
19386,5.72
19398,5.77
19410,5.81
19422,5.83
19434,5.84
19446,5.83
19458,5.77
19470,5.62
19481,5.34
19492,4.94
19504,4.53
19516,4.2
19528,4.04
19540,4.06
19552,4.15
19564,4.18
19576,4.06
19588,3.77
19600,3.34
19612,2.85
19624,2.36
19636,1.91
19648,1.56
19660,1.36
19671,1.37
19682,1.57
19694,1.86
19706,2.04
19718,1.87
19730,1.18
19742,-0.1
19754,-1.84
19766,-3.77
19778,-5.49
19790,-6.56
19802,-6.67
19814,-5.73
19826,-3.87
19838,-1.45
19850,1.09
19861,3.4
19872,5.24
19884,6.49
19896,7.12
19908,7.11
19920,6.43
19932,5.15
19944,3.45
19956,1.63
19968,0.0
19980,-1.21
19992,-1.94
20004,-2.28
20016,-2.4
20028,-2.39
20040,-2.25
20051,-1.88
20062,-1.19
20074,-0.19
20086,0.93
20098,1.88
20110,2.27
20122,1.85
20134,0.57
20146,-1.4
20158,-3.7
20170,-5.89
20182,-7.58
20194,-8.53
20206,-8.64
20218,-8.07
20230,-7.11
20241,-6.21
20252,-5.77
20264,-6.02
20276,-6.97
20288,-8.35
20300,-9.73
20312,-10.67
20324,-10.91
20336,-10.35
20348,-9.14
20360,-7.55
20372,-5.87
20384,-4.43
20396,-3.5
20408,-3.25
20420,-3.72
20431,-4.7
20442,-5.82
20454,-6.61
20466,-6.75
20478,-6.09
20490,-4.81
20502,-3.22
20514,-1.68
20526,-0.45
20538,0.36
20550,0.76
20562,0.74
20574,0.3
20586,-0.57
20598,-1.84
20610,-3.35
20621,-4.92
20632,-6.3
20644,-7.28
20656,-7.72
20668,-7.59
20680,-6.92
20692,-5.84
20704,-4.48
20716,-2.99
20728,-1.42
20740,0.22
20752,2.01
20764,4.01
20776,6.22
20788,8.49
20800,10.63
20811,12.43
20822,13.8
20834,14.79
20846,15.55
20858,16.23
20870,16.86
20882,17.4
20894,17.71
20906,17.69
20918,17.33
20930,16.69
20942,15.86
20954,14.84
20966,13.57
20978,12.0
20990,10.13
