seconds,BVP
3,-10.86
15,-12.28
27,-12.49
38,-12.29
49,-12.45
61,-13.2
73,-14.17
85,-14.64
97,-13.78
109,-11.21
121,-7.12
133,-2.41
145,1.8
157,4.55
169,5.7
181,5.91
193,6.39
205,8.35
217,12.16
228,17.35
239,22.71
251,26.93
263,29.12
275,29.35
287,28.11
299,26.0
311,23.45
323,20.35
335,16.45
347,11.69
359,6.56
371,2.0
383,-0.77
395,-0.93
407,1.51
418,5.81
429,10.66
441,14.96
453,18.04
465,19.97
477,21.18
489,21.88
501,21.95
513,20.78
525,17.93
537,13.41
549,8.07
561,3.16
573,-0.16
585,-1.53
597,-1.57
608,-1.33
619,-1.64
631,-2.43
643,-3.07
655,-2.57
667,-0.56
679,2.3
691,4.64
703,5.07
715,3.11
727,-0.3
739,-3.36
751,-4.34
763,-2.6
775,1.08
787,4.81
798,6.69
809,5.91
821,2.95
833,-0.64
845,-3.29
857,-4.22
869,-3.75
881,-2.95
893,-3.0
905,-4.56
917,-7.42
929,-10.95
941,-14.33
953,-17.04
965,-18.88
977,-19.83
988,-19.88
999,-18.99
1011,-17.04
1023,-14.02
1035,-10.24
1047,-6.33
1059,-3.13
1071,-1.39
1083,-1.21
1095,-2.29
1107,-3.66
1119,-4.47
1131,-4.07
1143,-2.45
1155,-0.28
1167,1.56
1178,2.17
1189,1.2
1201,-1.47
1213,-5.22
1225,-9.41
1237,-13.16
1249,-15.73
1261,-16.62
1273,-15.69
1285,-13.31
1297,-10.37
1309,-8.22
1321,-8.03
1333,-10.38
1345,-14.87
1357,-20.25
1368,-24.84
1379,-27.26
1391,-27.07
1403,-25.0
1415,-22.63
1427,-21.35
1439,-21.66
1451,-22.67
1463,-22.47
1475,-19.29
1487,-12.31
1499,-2.38
1511,8.35
1523,17.4
1535,23.06
1547,24.9
1558,23.88
1569,21.55
1581,19.18
1593,17.44
1605,16.26
1617,15.44
1629,14.86
1641,14.83
1653,15.51
1665,16.93
1677,18.8
1689,20.38
1701,21.11
1713,20.61
1725,19.09
1737,17.25
1748,16.16
1759,16.65
1771,19.3
1783,24.18
1795,30.62
1807,37.63
1819,43.78
1831,48.0
1843,49.57
1855,48.53
1867,45.35
1879,40.76
1891,35.55
1903,30.2
1915,25.07
1927,20.03
1938,15.01
1949,9.71
1961,3.98
1973,-2.02
1985,-7.8
1997,-12.61
2009,-15.79
2021,-17.01
2033,-16.62
2045,-15.22
2057,-13.71
2069,-12.72
2081,-12.56
2093,-13.13
2105,-14.18
2117,-15.37
2128,-16.29
2139,-16.64
2151,-16.11
2163,-14.75
2175,-12.72
2187,-10.46
2199,-8.56
2211,-7.58
2223,-7.75
2235,-8.78
2247,-10.1
2259,-10.85
2271,-10.55
2283,-9.06
2295,-6.76
2307,-4.42
2318,-2.74
2329,-2.22
2341,-2.95
2353,-4.7
2365,-6.93
2377,-9.15
2389,-10.86
2401,-11.75
2413,-11.8
2425,-11.05
2437,-9.78
2449,-8.22
2461,-6.41
2473,-4.25
2485,-1.62
2497,1.47
2508,4.84
2519,7.99
2531,10.56
2543,12.25
2555,13.17
2567,13.65
2579,14.16
2591,14.81
2603,15.33
2615,15.28
2627,14.03
2639,11.39
2651,7.58
2663,3.21
2675,-1.14
2687,-5.06
2698,-8.61
2709,-11.99
2721,-15.38
2733,-18.56
2745,-20.92
2757,-21.83
2769,-20.98
2781,-18.8
2793,-16.04
2805,-13.63
2817,-12.06
2829,-11.37
2841,-11.28
2853,-11.36
2865,-11.56
2877,-12.1
2888,-13.31
2899,-15.05
2911,-16.95
2923,-18.28
2935,-18.51
2947,-17.54
2959,-15.61
2971,-13.3
2983,-11.11
2995,-9.12
3007,-6.98
3019,-4.4
3031,-1.11
3043,2.73
3055,6.68
3067,10.3
3078,13.22
3089,15.43
3101,17.17
3113,18.64
3125,19.89
3137,20.8
3149,21.11
3161,20.65
3173,19.51
3185,17.77
3197,15.48
3209,12.58
3221,8.85
3233,4.35
3245,-0.59
3257,-5.35
3268,-9.34
3279,-12.2
3291,-14.13
3303,-15.71
3315,-17.48
3327,-19.61
3339,-21.64
3351,-22.8
3363,-22.59
3375,-21.01
3387,-18.69
3399,-16.54
3411,-15.22
3423,-14.9
3435,-15.07
3447,-14.98
3458,-14.09
3469,-12.49
3481,-10.75
3493,-9.7
3505,-9.77
3517,-10.73
3529,-11.92
3541,-12.52
3553,-11.94
3565,-10.11
3577,-7.56
3589,-4.84
3601,-2.37
3613,0.09
3625,3.42
3637,8.48
3648,15.78
3659,25.06
3671,35.33
3683,45.24
3695,53.7
3707,60.22
3719,64.75
3731,67.51
3743,68.3
3755,66.66
3767,62.03
3779,54.36
3791,44.39
3803,33.53
3815,23.42
3827,15.08
3838,8.6
3849,3.15
3861,-2.49
3873,-9.21
3885,-17.16
3897,-25.56
3909,-33.07
3921,-38.42
3933,-40.79
3945,-40.07
3957,-36.98
3969,-32.73
3981,-28.58
3993,-25.71
4005,-24.65
4017,-25.32
4028,-27.12
4039,-28.97
4051,-29.67
4063,-28.39
4075,-24.9
4087,-19.57
4099,-13.31
4111,-7.04
4123,-1.47
4135,3.24
4147,7.26
4159,10.87
4171,14.1
4183,16.55
4195,17.57
4207,16.74
4218,14.28
4229,11.02
4241,8.22
4253,6.93
4265,7.45
4277,9.18
4289,10.9
4301,11.28
4313,9.55
4325,5.9
4337,1.24
4349,-3.17
4361,-6.07
4373,-6.87
4385,-5.75
4397,-3.48
4408,-1.06
4419,0.57
4431,1.03
4443,0.48
4455,-0.5
4467,-1.19
4479,-1.17
4491,-0.48
4503,0.45
4515,1.21
4527,1.58
4539,1.85
4551,2.63
4563,4.51
4575,7.7
4587,11.83
4598,16.09
4609,19.49
4621,21.28
4633,21.43
4645,20.56
4657,19.79
4669,20.05
4681,21.73
4693,24.47
4705,27.33
4717,29.02
4729,28.38
4741,24.82
4753,18.29
4765,9.39
4777,-1.05
4788,-11.81
4799,-21.72
4811,-29.66
4823,-35.0
4835,-37.73
4847,-38.24
4859,-37.28
4871,-35.54
4883,-33.53
4895,-31.4
4907,-29.05
4919,-26.25
4931,-22.55
4943,-17.6
4955,-11.09
4967,-3.17
4978,5.58
4989,14.21
5001,21.48
5013,26.28
5025,27.79
5037,25.86
5049,20.74
5061,13.08
5073,3.53
5085,-7.14
5097,-18.22
5109,-29.08
5121,-39.12
5133,-47.86
5145,-54.85
5157,-59.85
5168,-62.6
5179,-62.93
5191,-60.57
5203,-55.2
5215,-46.71
5227,-35.24
5239,-21.31
5251,-5.67
5263,10.59
5275,26.38
5287,40.75
5299,52.73
5311,61.69
5323,67.04
5335,68.49
5347,66.12
5358,60.22
5369,51.09
5381,38.98
5393,24.31
5405,7.75
5417,-9.52
5429,-25.73
5441,-39.0
5453,-47.94
5465,-52.23
5477,-52.79
5489,-51.27
5501,-49.16
5513,-47.0
5525,-44.17
5537,-39.45
5548,-31.87
5559,-21.46
5571,-9.37
5583,2.71
5595,13.35
5607,21.91
5619,28.54
5631,33.82
5643,37.98
5655,40.73
5667,41.51
5679,39.71
5691,35.14
5703,28.13
5715,19.27
5727,9.27
5738,-1.11
5749,-11.1
5761,-20.02
5773,-27.04
5785,-31.38
5797,-32.6
5809,-30.66
5821,-25.98
5833,-19.29
5845,-11.47
5857,-3.33
5869,4.39
5881,11.24
5893,17.02
5905,21.83
5917,25.96
5928,29.87
5939,34.03
5951,38.85
5963,44.5
5975,50.72
5987,56.88
5999,62.03
6011,65.04
6023,64.9
6035,60.86
6047,52.75
6059,41.14
6071,27.29
6083,13.01
6095,0.17
6107,-9.66
6118,-15.73
6129,-18.14
6141,-17.81
6153,-16.01
6165,-13.94
6177,-12.59
6189,-12.35
6201,-13.39
6213,-15.59
6225,-18.82
6237,-22.83
6249,-27.48
6261,-32.57
6273,-37.8
6285,-42.81
6297,-46.74
6308,-48.59
6319,-47.32
6331,-42.3
6343,-33.7
6355,-22.79
6367,-11.74
6379,-2.77
6391,2.27
6403,2.89
6415,-0.1
6427,-4.79
6439,-9.04
6451,-11.2
6463,-10.52
6475,-7.25
6487,-2.09
6498,3.96
6509,9.97
6521,15.18
6533,19.16
6545,22.07
6557,24.78
6569,28.9
6581,35.93
6593,46.46
6605,59.11
6617,70.73
6629,77.28
6641,75.74
6653,65.43
6665,48.37
6677,28.5
6688,9.67
6699,-5.83
6711,-18.02
6723,-28.48
6735,-38.95
6747,-50.05
6759,-60.65
6771,-68.68
6783,-72.03
6795,-69.67
6807,-61.92
6819,-50.42
6831,-37.46
6843,-25.22
6855,-15.3
6867,-8.38
6878,-4.38
6889,-2.73
6901,-2.67
6913,-3.2
6925,-3.42
6937,-2.55
6949,0.12
6961,4.87
6973,11.45
6985,19.17
6997,26.82
7009,32.95
7021,36.47
7033,36.86
7045,34.41
7057,30.27
7068,26.16
7079,23.88
7091,24.95
7103,30.02
7115,38.7
7127,49.61
7139,60.92
7151,70.69
7163,77.07
7175,78.48
7187,73.98
7199,63.58
7211,48.1
7223,29.07
7235,8.07
7247,-13.82
7258,-36.42
7269,-60.58
7281,-87.59
7293,-117.78
7305,-149.49
7317,-178.79
7329,-199.83
7341,-206.29
7353,-193.39
7365,-159.33
7377,-106.53
7389,-41.64
7401,25.65
7413,84.61
7425,125.85
7437,143.5
7448,136.61
7459,109.09
7471,68.82
7483,25.43
7495,-11.86
7507,-36.48
7519,-45.64
7531,-40.29
7543,-24.24
7555,-2.68
7567,19.28
7579,37.83
7591,50.88
7603,57.92
7615,59.51
7627,56.67
7638,50.62
7649,42.59
7661,33.63
7673,24.64
7685,16.26
7697,8.98
7709,3.11
7721,-1.01
7733,-3.49
7745,-4.61
7757,-5.19
7769,-6.05
7781,-7.79
7793,-10.42
7805,-13.32
7817,-15.75
7828,-17.13
7839,-17.53
7851,-17.29
7863,-17.09
7875,-17.29
7887,-17.92
7899,-18.81
7911,-19.7
7923,-20.39
7935,-20.77
7947,-20.55
7959,-19.09
7971,-15.6
7983,-9.47
7995,-0.66
8007,10.0
8018,21.14
8029,31.09
8041,38.31
8053,41.77
8065,41.24
8077,37.33
8089,31.25
8101,24.51
8113,18.3
8125,13.44
8137,10.13
8149,8.14
8161,7.25
8173,7.58
8185,9.54
8197,13.49
8208,19.01
8219,24.65
8231,28.23
8243,27.59
8255,21.43
8267,10.04
8279,-4.9
8291,-20.94
8303,-35.52
8315,-46.72
8327,-53.42
8339,-55.09
8351,-51.69
8363,-43.65
8375,-31.86
8387,-17.69
8398,-2.66
8409,11.83
8421,24.92
8433,36.16
8445,45.44
8457,52.64
8469,57.51
8481,59.79
8493,59.32
8505,56.25
8517,51.04
8529,44.17
8541,36.03
8553,26.84
8565,16.66
8577,5.86
8588,-4.99
8599,-14.89
8611,-22.91
8623,-28.29
8635,-30.86
8647,-31.06
8659,-29.89
8671,-28.71
8683,-28.64
8695,-30.42
8707,-33.92
8719,-38.37
8731,-42.63
8743,-45.64
8755,-46.89
8767,-46.56
8778,-45.47
8789,-44.6
8801,-44.71
8813,-46.16
8825,-48.91
8837,-52.68
8849,-56.8
8861,-60.31
8873,-61.71
8885,-59.53
8897,-52.64
8909,-41.01
8921,-26.3
8933,-11.37
8945,0.49
8957,6.98
8968,7.32
8979,2.74
8991,-4.84
9003,-13.68
9015,-22.95
9027,-32.77
9039,-43.36
9051,-54.17
9063,-63.53
9075,-69.27
9087,-69.35
9099,-62.77
9111,-49.73
9123,-31.32
9135,-9.08
9147,15.31
9158,40.08
9169,63.16
9181,82.21
9193,95.37
9205,101.76
9217,102.0
9229,98.27
9241,93.35
9253,89.81
9265,89.11
9277,91.17
9289,94.57
9301,97.31
9313,97.27
9325,92.81
9337,83.13
9348,68.2
9359,49.12
9371,27.89
9383,7.03
9395,-10.87
9407,-23.85
9419,-31.18
9431,-33.3
9443,-31.57
9455,-27.9
9467,-23.96
9479,-20.99
9491,-19.64
9503,-20.02
9515,-21.83
9527,-24.67
9538,-27.97
9549,-31.09
9561,-33.56
9573,-35.06
9585,-35.56
9597,-35.2
9609,-34.12
9621,-32.3
9633,-29.73
9645,-26.28
9657,-21.99
9669,-17.2
9681,-12.4
9693,-8.03
9705,-4.3
9717,-0.92
9728,2.63
9739,6.87
9751,12.09
9763,18.07
9775,24.17
9787,29.62
9799,33.54
9811,35.33
9823,34.8
9835,31.99
9847,27.25
9859,21.04
9871,13.94
9883,6.68
9895,0.2
9907,-4.78
9918,-7.84
9929,-8.99
9941,-8.8
9953,-7.93
9965,-7.13
9977,-6.84
9989,-6.98
10001,-7.13
10013,-6.74
10025,-5.39
10037,-2.96
10049,0.25
10061,3.71
10073,6.72
10085,8.7
10097,9.47
10108,9.21
10119,8.37
10131,7.35
10143,6.57
10155,6.07
10167,5.82
10179,5.65
10191,5.41
10203,5.04
10215,4.4
10227,3.54
10239,2.45
10251,1.31
10263,0.24
10275,-0.51
10287,-0.76
10298,-0.63
10309,-0.23
10321,-0.04
10333,-0.28
10345,-1.05
10357,-2.05
10369,-2.86
10381,-3.15
10393,-2.69
10405,-1.67
10417,-0.33
10429,1.02
10441,2.32
10453,3.49
10465,4.58
10477,5.5
10488,5.92
10499,5.63
10511,4.57
10523,2.91
10535,0.91
10547,-1.14
10559,-3.18
10571,-5.32
10583,-7.58
10595,-10.03
10607,-12.35
10619,-14.07
10631,-14.59
10643,-13.52
10655,-10.81
10667,-6.65
10678,-1.76
10689,3.13
10701,7.16
10713,10.0
10725,11.62
10737,12.38
10749,12.74
10761,12.94
10773,12.87
10785,11.91
10797,9.49
10809,5.11
10821,-0.98
10833,-8.02
10845,-14.86
10857,-20.24
10868,-23.26
10879,-23.61
10891,-21.71
10903,-18.26
10915,-14.33
10927,-10.77
10939,-8.1
10951,-6.61
10963,-6.19
10975,-6.63
10987,-7.43
10999,-8.11
11011,-8.04
11023,-6.92
11035,-4.8
11047,-2.16
11058,0.08
11069,1.08
11081,0.2
11093,-2.44
11105,-6.17
11117,-9.92
11129,-12.69
11141,-13.89
11153,-13.34
11165,-11.44
11177,-8.61
11189,-5.38
11201,-2.09
11213,1.03
11225,3.73
11237,5.62
11248,6.22
11259,5.31
11271,2.8
11283,-0.94
11295,-5.44
11307,-10.21
11319,-14.78
11331,-18.7
11343,-21.51
11355,-22.72
11367,-21.9
11379,-19.01
11391,-14.43
11403,-9.05
11415,-3.96
11427,-0.06
11438,2.06
11449,2.33
11461,0.92
11473,-1.84
11485,-5.52
11497,-9.6
11509,-13.39
11521,-16.07
11533,-16.78
11545,-15.15
11557,-11.28
11569,-5.79
11581,0.42
11593,6.71
11605,12.8
11617,18.93
11628,25.57
11639,33.21
11651,42.02
11663,51.89
11675,62.57
11687,73.33
11699,83.23
11711,90.91
11723,94.81
11735,93.58
11747,86.48
11759,73.79
11771,56.89
11783,37.95
11795,18.93
11807,1.27
11818,-14.79
11829,-30.08
11841,-45.79
11853,-62.71
11865,-80.36
11877,-96.82
11889,-108.9
11901,-113.4
11913,-108.04
11925,-92.72
11937,-69.84
11949,-43.49
11961,-18.62
11973,0.49
11985,11.17
11997,12.87
12008,7.21
12019,-2.56
12031,-12.29
12043,-18.28
12055,-17.87
12067,-10.44
12079,2.79
12091,19.18
12103,35.71
12115,49.79
12127,59.56
12139,64.0
12151,62.41
12163,54.87
12175,42.26
12187,26.81
12198,11.65
12209,0.06
12221,-5.75
12233,-5.49
12245,-0.84
12257,4.97
12269,8.88
12281,8.81
12293,4.5
12305,-2.68
12317,-10.32
12329,-15.57
12341,-16.17
12353,-10.82
12365,0.21
12377,15.37
12388,32.07
12399,47.41
12411,59.02
12423,65.42
12435,66.37
12447,62.28
12459,53.98
12471,42.14
12483,27.45
12495,10.84
12507,-6.36
12519,-22.14
12531,-34.42
12543,-41.62
12555,-43.55
12567,-41.13
12578,-36.58
12589,-32.41
12601,-30.63
12613,-32.14
12625,-36.19
12637,-40.73
12649,-42.91
12661,-40.19
12673,-31.06
12685,-15.9
12697,2.93
12709,21.98
12721,37.82
12733,47.97
12745,51.45
12757,48.5
12768,40.02
12779,27.18
12791,11.2
12803,-6.5
12815,-23.79
12827,-38.27
12839,-47.88
12851,-51.74
12863,-50.7
12875,-47.04
12887,-43.37
12899,-41.66
12911,-42.4
12923,-44.25
12935,-44.94
12947,-42.02
12958,-33.76
12969,-19.79
12981,-1.26
12993,19.45
13005,39.23
13017,54.87
13029,63.86
13041,64.76
13053,57.36
13065,42.67
13077,22.57
13089,-0.47
13101,-23.66
13113,-44.34
13125,-60.29
13137,-70.21
13148,-74.07
13159,-73.17
13171,-69.32
13183,-64.28
13195,-58.72
13207,-52.02
13219,-42.89
13231,-30.22
13243,-13.93
13255,4.54
13267,22.58
13279,37.46
13291,47.04
13303,50.52
13315,48.52
13327,42.62
13338,34.73
13349,26.55
13361,19.05
13373,12.47
13385,6.51
13397,0.68
13409,-5.43
13421,-11.77
13433,-17.97
13445,-23.26
13457,-26.95
13469,-28.52
13481,-27.57
13493,-23.92
13505,-17.57
13517,-8.76
13528,2.15
13539,14.51
13551,27.4
13563,39.55
13575,49.62
13587,56.55
13599,59.83
13611,59.66
13623,56.66
13635,51.71
13647,45.48
13659,38.13
13671,29.51
13683,19.46
13695,8.33
13707,-3.0
13718,-13.19
13729,-20.97
13741,-25.52
13753,-26.77
13765,-25.38
13777,-22.17
13789,-18.05
13801,-13.5
13813,-8.88
13825,-4.34
13837,-0.14
13849,3.34
13861,5.72
13873,6.75
13885,6.71
13897,6.16
13908,5.84
13919,6.35
13931,7.95
13943,10.47
13955,13.41
13967,16.13
13979,17.99
13991,18.82
14003,18.65
14015,17.85
14027,17.01
14039,16.63
14051,17.03
14063,18.19
14075,19.8
14087,21.22
14098,21.98
14109,21.81
14121,20.71
14133,18.95
14145,16.65
14157,13.97
14169,10.89
14181,7.57
14193,4.23
14205,1.23
14217,-1.1
14229,-2.69
14241,-3.65
14253,-4.52
14265,-5.67
14277,-7.45
14288,-9.68
14299,-11.95
14311,-13.72
14323,-14.59
14335,-14.35
14347,-13.07
14359,-11.26
14371,-9.5
14383,-8.53
14395,-8.76
14407,-10.29
14419,-12.7
14431,-15.4
14443,-17.64
14455,-18.84
14467,-18.97
14478,-18.29
14489,-17.3
14501,-16.31
14513,-15.25
14525,-13.78
14537,-11.53
14549,-8.5
14561,-5.0
14573,-1.75
14585,0.55
14597,1.43
14609,0.9
14621,-0.39
14633,-1.53
14645,-1.47
14657,0.45
14668,4.36
14679,9.7
14691,15.51
14703,20.65
14715,24.27
14727,26.12
14739,26.35
14751,25.51
14763,24.01
14775,22.18
14787,20.01
14799,17.53
14811,14.86
14823,12.26
14835,10.16
14847,8.86
14858,8.68
14869,9.63
14881,11.63
14893,14.4
14905,17.56
14917,20.71
14929,23.42
14941,25.32
14953,25.83
14965,24.09
14977,18.53
14989,7.33
15001,-11.24
15013,-37.54
15025,-70.11
15037,-105.5
15048,-139.19
15059,-166.98
15071,-186.27
15083,-196.67
15095,-199.44
15107,-196.59
15119,-189.59
15131,-178.9
15143,-164.04
15155,-143.83
15167,-117.01
15179,-82.73
15191,-40.82
15203,7.51
15215,59.58
15227,111.35
15238,158.02
15249,195.09
15261,219.54
15273,230.13
15285,227.55
15297,213.75
15309,190.87
15321,160.74
15333,124.51
15345,83.03
15357,37.59
15369,-9.02
15381,-52.6
15393,-87.75
15405,-109.62
15417,-115.76
15428,-107.73
15439,-91.31
15451,-74.99
15463,-67.47
15475,-74.32
15487,-96.46
15499,-129.38
15511,-164.62
15523,-192.09
15535,-202.55
15547,-189.62
15559,-151.31
15571,-90.47
15583,-14.4
15595,66.25
15607,139.92
15618,196.56
15629,229.99
15641,239.27
15653,228.68
15665,205.89
15677,179.62
15689,157.0
15701,141.93
15713,134.94
15725,133.74
15737,134.43
15749,132.8
15761,125.36
15773,110.07
15785,86.67
15797,56.8
15808,23.57
15819,-8.99
15831,-37.12
15843,-58.38
15855,-72.2
15867,-79.79
15879,-83.38
15891,-85.1
15903,-86.1
15915,-86.3
15927,-84.65
15939,-79.9
15951,-71.47
15963,-60.0
15975,-47.38
15987,-36.21
15998,-28.86
16009,-26.49
16021,-28.63
16033,-33.18
16045,-37.01
16057,-37.11
16069,-31.64
16081,-20.77
16093,-6.47
16105,8.06
16117,19.78
16129,26.67
16141,28.31
16153,25.92
16165,21.62
16177,17.37
16188,14.2
16199,12.31
16211,11.03
16223,9.85
16235,8.55
16247,7.39
16259,6.89
16271,7.51
16283,9.26
16295,11.79
16307,14.68
16319,17.44
16331,19.79
16343,21.3
16355,21.44
16367,19.72
16378,16.07
16389,11.01
16401,5.68
16413,1.44
16425,-0.79
16437,-0.84
16449,0.64
16461,2.54
16473,3.81
16485,3.97
16497,3.22
16509,2.32
16521,2.11
16533,3.08
16545,5.41
16557,8.92
16568,13.11
16579,17.33
16591,20.95
16603,23.33
16615,24.03
16627,22.79
16639,19.57
16651,14.69
16663,8.79
16675,2.74
16687,-2.55
16699,-6.29
16711,-8.2
16723,-8.34
16735,-7.14
16747,-5.24
16758,-3.1
16769,-1.08
16781,0.63
16793,1.8
16805,2.25
16817,1.74
16829,0.42
16841,-1.23
16853,-2.56
16865,-2.81
16877,-1.66
16889,0.86
16901,4.25
16913,7.94
16925,11.44
16937,14.5
16948,16.93
16959,18.36
16971,18.35
16983,16.54
16995,13.14
17007,8.93
17019,5.1
17031,2.75
17043,2.37
17055,3.51
17067,4.85
17079,4.97
17091,2.84
17103,-1.65
17115,-7.8
17127,-14.63
17138,-21.28
17149,-27.51
17161,-33.54
17173,-39.81
17185,-46.61
17197,-53.8
17209,-60.84
17221,-67.04
17233,-72.02
17245,-75.63
17257,-77.86
17269,-78.51
17281,-77.21
17293,-73.62
17305,-67.91
17317,-61.01
17328,-54.54
17339,-50.32
17351,-49.43
17363,-51.73
17375,-55.56
17387,-58.44
17399,-57.9
17411,-52.4
17423,-41.76
17435,-26.86
17447,-9.34
17459,9.25
17471,27.5
17483,44.28
17495,58.41
17507,68.47
17518,73.16
17529,71.61
17541,63.94
17553,51.3
17565,35.79
17577,19.81
17589,5.82
17601,-4.25
17613,-9.14
17625,-8.34
17637,-2.47
17649,6.87
17661,17.14
17673,25.59
17685,30.07
17697,29.92
17708,26.15
17719,21.09
17731,17.56
17743,17.52
17755,21.74
17767,29.51
17779,39.2
17791,48.77
17803,56.22
17815,59.89
17827,58.56
17839,51.77
17851,39.91
17863,24.58
17875,8.43
17887,-5.55
17898,-14.87
17909,-18.43
17921,-16.78
17933,-11.82
17945,-5.86
17957,-0.7
17969,3.05
17981,6.2
17993,10.01
18005,15.93
18017,24.42
18029,34.92
18041,45.76
18053,54.7
18065,59.53
18077,58.8
18088,52.2
18099,40.46
18111,25.55
18123,9.96
18135,-3.67
18147,-13.18
18159,-17.42
18171,-16.53
18183,-12.15
18195,-6.76
18207,-3.09
18219,-2.79
18231,-5.94
18243,-11.0
18255,-15.23
18267,-15.65
18278,-10.1
18289,1.13
18301,15.48
18313,28.92
18325,37.66
18337,39.28
18349,33.51
18361,22.46
18373,10.04
18385,0.88
18397,-2.55
18409,-0.1
18421,6.61
18433,15.96
18445,27.07
18457,39.66
18468,53.9
18479,69.82
18491,87.01
18503,102.31
18515,111.9
18527,113.45
18539,108.33
18551,101.0
18563,96.14
18575,96.23
18587,100.37
18599,104.77
18611,101.67
18623,83.06
18635,43.88
18647,-15.72
18658,-91.67
18669,-179.2
18681,-274.87
18693,-376.66
18705,-466.27
18717,-521.74
18729,-528.34
18741,-489.04
18753,-420.03
18765,-338.94
18777,-258.21
18789,-184.98
18801,-122.26
18813,-69.81
18825,-28.26
18837,1.4
18848,18.82
18859,25.53
18871,24.88
18883,20.72
18895,16.32
18907,14.75
18919,19.17
18931,30.08
18943,46.28
18955,65.87
18967,87.76
18979,111.69
18991,137.32
19003,163.6
19015,187.91
19027,207.48
19038,219.48
19049,222.94
19061,219.89
19073,214.66
19085,208.77
19097,205.3
19109,201.89
19121,193.26
19133,174.9
19145,145.36
19157,107.26
19169,66.15
19181,27.42
19193,-5.46
19205,-31.69
19217,-53.26
19228,-71.4
19239,-85.26
19251,-93.22
19263,-95.09
19275,-93.1
19287,-91.78
19299,-95.48
19311,-106.07
19323,-122.03
19335,-138.17
19347,-148.02
19359,-146.52
19371,-131.71
19383,-104.5
19395,-67.14
19407,-22.03
19418,28.24
19429,79.4
19441,125.57
19453,159.57
19465,175.57
19477,171.78
19489,151.69
19501,123.08
19513,94.86
19525,73.62
19537,60.99
19549,54.72
19561,49.83
19573,42.54
19585,31.32
19597,17.63
19608,5.06
19619,-2.9
19631,-4.48
19643,-0.9
19655,4.37
19667,6.42
19679,0.82
19691,-15.11
19703,-41.56
19715,-75.73
19727,-112.78
19739,-146.56
19751,-171.37
19763,-183.3
19775,-181.74
19787,-169.26
19798,-150.72
19809,-131.55
19821,-115.32
19833,-102.74
19845,-91.27
19857,-76.6
19869,-54.56
19881,-23.2
19893,16.35
19905,60.27
19917,102.94
19929,138.45
19941,161.44
19953,168.16
19965,157.15
19977,130.34
19988,93.37
19999,54.98
20011,24.81
20023,9.69
20035,10.56
20047,21.4
20059,31.29
20071,29.25
20083,8.96
20095,-28.39
20107,-75.07
20119,-120.38
20131,-155.08
20143,-174.29
20155,-178.24
20167,-171.06
20178,-158.61
20189,-146.48
20201,-138.92
20213,-138.52
20225,-145.86
20237,-159.33
20249,-175.1
20261,-187.64
20273,-191.42
20285,-182.45
20297,-159.18
20309,-122.84
20321,-76.57
20333,-24.52
20345,28.52
20357,77.38
20368,116.6
20379,141.19
20391,148.42
20403,139.31
20415,118.73
20427,94.47
20439,74.57
20451,64.71
20463,67.15
20475,80.58
20487,101.4
20499,124.93
20511,146.47
20523,161.66
20535,167.42
20547,162.6
20558,148.2
20569,127.36
20581,104.25
20593,82.9
20605,65.72
20617,53.54
20629,45.34
20641,39.39
20653,34.02
20665,27.92
20677,20.82
20689,12.97
20701,4.88
20713,-3.32
20725,-12.01
20737,-21.82
20748,-32.87
20759,-43.98
20771,-52.97
20783,-57.14
20795,-54.83
20807,-46.39
20819,-34.28
20831,-22.2
20843,-13.35
20855,-9.03
20867,-8.11
20879,-7.97
20891,-6.27
20903,-2.77
20915,0.04
20927,-1.88
20938,-11.46
20949,-28.0
20961,-46.46
20973,-58.84
20985,-58.31
20997,-42.71
