seconds,BVP
7,-27.37
19,-79.65
31,-128.43
43,-162.95
55,-178.03
67,-174.81
78,-158.33
89,-133.87
101,-104.91
113,-73.4
125,-41.29
137,-11.77
149,11.68
161,27.47
173,37.54
185,46.56
197,59.17
209,76.85
221,96.63
233,112.54
245,118.94
257,113.0
268,96.09
279,72.87
291,49.21
303,30.07
315,18.47
327,15.21
339,19.27
351,28.28
363,39.08
375,49.16
387,57.33
399,64.08
411,70.17
423,75.33
435,77.01
447,71.73
458,56.93
469,33.54
481,6.81
493,-15.4
505,-26.09
517,-22.88
529,-9.02
541,8.31
553,22.28
565,30.33
577,35.26
589,42.98
601,58.31
613,81.42
625,107.91
637,130.9
648,145.05
659,148.94
671,145.09
683,137.29
695,128.47
707,119.14
719,108.16
731,94.58
743,79.0
755,63.69
767,51.88
779,47.34
791,52.71
803,68.92
815,93.68
827,121.11
838,142.1
849,147.35
861,130.73
873,92.79
885,42.5
897,-5.77
909,-37.0
921,-41.73
933,-19.7
945,20.39
957,64.95
969,100.63
981,118.37
993,114.61
1005,90.64
1017,50.71
1028,0.73
1039,-52.1
1051,-99.46
1063,-133.17
1075,-147.21
1087,-139.8
1099,-115.04
1111,-82.09
1123,-52.55
1135,-37.31
1147,-43.71
1159,-73.1
1171,-120.49
1183,-175.23
1195,-222.95
1207,-248.92
1218,-242.44
1229,-200.13
1241,-128.04
1253,-40.91
1265,42.0
1277,101.99
1289,126.86
1301,114.48
1313,73.01
1325,17.72
1337,-34.67
1349,-71.31
1361,-86.85
1373,-83.82
1385,-70.59
1397,-56.92
1408,-50.55
1419,-54.89
1431,-68.29
1443,-85.56
1455,-100.16
1467,-106.97
1479,-103.9
1491,-92.69
1503,-76.78
1515,-59.19
1527,-40.68
1539,-19.45
1551,6.58
1563,36.52
1575,64.79
1587,82.06
1598,78.65
1609,49.27
1621,-4.43
1633,-74.5
1645,-150.29
1657,-222.9
1669,-287.79
1681,-344.06
1693,-391.65
1705,-428.18
1717,-447.9
1729,-443.83
1741,-411.35
1753,-352.01
1765,-275.04
1777,-194.81
1788,-125.74
1799,-77.11
1811,-49.78
1823,-36.76
1835,-27.23
1847,-11.1
1859,17.44
1871,58.66
1883,108.91
1895,162.51
1907,212.45
1919,251.19
1931,270.65
1943,264.07
1955,229.95
1967,175.05
1978,114.51
1989,67.27
2001,48.17
2013,60.99
2025,96.25
2037,134.72
2049,155.67
2061,146.3
2073,106.56
2085,48.68
2097,-8.1
2109,-46.02
2121,-54.92
2133,-34.92
2145,4.81
2157,50.89
2168,91.45
2179,120.08
2191,137.02
2203,147.99
2215,159.61
2227,175.92
2239,196.23
2251,215.0
2263,224.64
2275,218.61
2287,193.64
2299,150.94
2311,96.6
2323,39.51
2335,-9.97
2347,-42.99
2358,-54.62
2369,-45.14
2381,-19.68
2393,13.39
2405,45.96
2417,72.91
2429,92.66
2441,106.91
2453,117.49
2465,124.49
2477,126.7
2489,123.46
2501,115.91
2513,108.24
2525,105.95
2537,113.22
2548,131.58
2559,157.06
2571,181.48
2583,196.59
2595,198.31
2607,188.1
2619,172.69
2631,160.9
2643,159.69
2655,173.28
2667,199.56
2679,231.25
2691,259.47
2703,277.46
2715,281.73
2727,272.42
2738,252.74
2749,226.84
2761,200.74
2773,176.57
2785,151.88
2797,120.98
2809,78.3
2821,21.07
2833,-49.17
2845,-126.39
2857,-211.02
2869,-289.11
2881,-341.51
2893,-356.22
2905,-336.16
2917,-293.67
2928,-241.08
2939,-188.0
2951,-134.9
2963,-81.78
2975,-28.41
2987,21.86
2999,63.64
3011,92.96
3023,107.39
3035,108.93
3047,101.27
3059,88.34
3071,71.73
3083,52.59
3095,29.08
3107,-2.27
3118,-44.02
3129,-96.12
3141,-155.06
3153,-215.81
3165,-272.38
3177,-320.22
3189,-355.49
3201,-377.67
3213,-389.08
3225,-393.18
3237,-393.57
3249,-392.62
3261,-392.26
3273,-393.82
3285,-398.7
3297,-406.36
3308,-414.78
3319,-420.23
3331,-417.61
3343,-402.64
3355,-373.72
3367,-333.29
3379,-286.93
3391,-241.27
3403,-200.15
3415,-163.72
3427,-129.73
3439,-95.99
3451,-63.04
3463,-34.82
3475,-17.47
3487,-16.74
3498,-35.81
3509,-73.95
3521,-126.85
3533,-188.25
3545,-250.93
3557,-308.05
3569,-353.38
3581,-381.89
3593,-390.54
3605,-378.59
3617,-347.75
3629,-301.88
3641,-246.02
3653,-184.9
3665,-122.28
3677,-60.19
3688,1.13
3699,62.21
3711,123.83
3723,186.26
3735,248.61
3747,309.19
3759,366.2
3771,417.6
3783,461.29
3795,495.78
3807,520.01
3819,534.35
3831,540.63
3843,541.87
3855,541.59
3867,543.22
3878,548.69
3889,558.15
3901,570.32
3913,582.48
3925,591.36
3937,593.1
3949,583.84
3961,560.4
3973,521.43
3985,467.94
3997,403.4
4009,332.73
4021,260.71
4033,190.65
4045,123.89
4057,60.24
4068,-0.59
4079,-58.26
4091,-111.61
4103,-159.13
4115,-200.07
4127,-234.68
4139,-264.05
4151,-289.3
4163,-311.54
4175,-330.87
4187,-347.17
4199,-360.09
4211,-369.6
4223,-375.84
4235,-378.58
4247,-376.48
4258,-367.18
4269,-348.8
4281,-321.24
4293,-288.23
4305,-257.05
4317,-236.91
4329,-236.13
4341,-258.91
4353,-303.52
4365,-361.96
4377,-421.82
4389,-469.18
4401,-492.19
4413,-483.69
4425,-442.71
4437,-374.4
4448,-288.48
4459,-197.22
4471,-113.05
4483,-46.52
4495,-4.38
4507,11.46
4519,5.4
4531,-12.94
4543,-31.85
4555,-41.84
4567,-39.24
4579,-27.27
4591,-13.63
4603,-6.08
4615,-8.2
4627,-17.59
4638,-27.46
4649,-30.29
4661,-21.05
4673,1.47
4685,35.05
4697,75.53
4709,117.65
4721,156.29
4733,187.27
4745,208.59
4757,221.05
4769,228.55
4781,236.41
4793,249.73
4805,271.46
4817,302.09
4828,339.8
4839,380.83
4851,420.17
4863,451.58
4875,469.17
4887,468.66
4899,449.69
4911,416.3
4923,376.52
4935,338.72
4947,308.02
4959,284.13
4971,261.69
4983,233.46
4995,193.82
5007,141.75
5018,80.68
5029,17.59
5041,-39.42
5053,-82.98
5065,-107.16
5077,-108.26
5089,-85.05
5101,-39.48
5113,23.06
5125,93.8
5137,162.03
5149,217.07
5161,250.11
5173,256.48
5185,236.15
5197,194.38
5208,140.9
5219,87.39
5231,44.09
5243,16.87
5255,4.88
5267,1.53
5279,-2.34
5291,-15.45
5303,-42.52
5315,-83.17
5327,-132.31
5339,-182.02
5351,-223.88
5363,-251.9
5375,-264.3
5387,-264.11
5398,-258.46
5409,-255.94
5421,-263.47
5433,-283.47
5445,-312.93
5457,-344.54
5469,-369.39
5481,-379.78
5493,-371.57
5505,-345.13
5517,-304.49
5529,-255.57
5541,-203.6
5553,-150.6
5565,-94.68
5577,-31.32
5588,43.93
5599,132.33
5611,229.89
5623,328.94
5635,420.24
5647,495.9
5659,551.23
5671,584.8
5683,597.64
5695,591.86
5707,570.0
5719,534.17
5731,486.27
5743,427.66
5755,360.11
5767,286.11
5778,209.5
5789,135.4
5801,68.62
5813,12.5
5825,-32.21
5837,-66.88
5849,-93.87
5861,-114.52
5873,-128.85
5885,-135.95
5897,-134.99
5909,-126.19
5921,-110.88
5933,-91.2
5945,-69.33
5957,-47.33
5968,-27.5
5979,-12.12
5991,-3.94
6003,-5.17
6015,-16.52
6027,-36.03
6039,-59.53
6051,-81.6
6063,-97.17
6075,-103.5
6087,-100.36
6099,-90.3
6111,-77.51
6123,-67.24
6135,-64.26
6147,-71.75
6158,-89.84
6169,-114.43
6181,-137.86
6193,-151.13
6205,-147.47
6217,-125.29
6229,-88.95
6241,-46.03
6253,-3.32
6265,36.86
6277,77.43
6289,123.96
6301,180.7
6313,246.28
6325,312.89
6337,368.9
6348,402.91
6359,408.34
6371,385.27
6383,339.7
6395,280.53
6407,216.73
6419,154.75
6431,97.57
6443,46.19
6455,0.36
6467,-39.3
6479,-71.71
6491,-95.69
6503,-111.21
6515,-119.92
6527,-124.56
6538,-128.16
6549,-132.57
6561,-138.52
6573,-145.19
6585,-151.52
6597,-156.65
6609,-160.49
6621,-163.9
6633,-167.95
6645,-173.8
6657,-182.27
6669,-194.27
6681,-209.9
6693,-228.86
6705,-250.32
6717,-273.17
6728,-296.6
6739,-320.42
6751,-345.67
6763,-374.31
6775,-408.8
6787,-450.43
6799,-498.29
6811,-548.75
6823,-595.8
6835,-632.38
6847,-651.47
6859,-647.91
6871,-619.56
6883,-568.22
6895,-499.32
6907,-420.98
6918,-341.78
6929,-268.26
6941,-203.38
6953,-146.12
6965,-92.98
6977,-40.18
6989,13.97
7001,67.47
7013,114.52
7025,146.94
7037,157.95
7049,145.53
7061,114.85
7073,77.65
7085,48.4
7097,38.37
7108,51.06
7119,81.05
7131,117.1
7143,147.92
7155,167.03
7167,175.16
7179,178.37
7191,184.59
7203,199.15
7215,222.29
7227,248.58
7239,268.82
7251,273.37
7263,256.0
7275,217.79
7287,167.47
7298,118.45
7309,82.84
7321,66.2
7333,65.28
7345,70.89
7357,73.29
7369,67.13
7381,53.35
7393,37.34
7405,24.88
7417,18.96
7429,19.17
7441,22.62
7453,26.0
7465,26.08
7477,19.94
7488,5.0
7499,-20.57
7511,-56.37
7523,-98.8
7535,-140.84
7547,-173.63
7559,-188.35
7571,-179.54
7583,-146.9
7595,-96.41
7607,-39.51
7619,10.35
7631,42.19
7643,51.99
7655,44.09
7667,29.41
7678,19.15
7689,19.07
7701,26.61
7713,32.5
7725,26.08
7737,0.92
7749,-42.36
7761,-97.33
7773,-154.92
7785,-207.95
7797,-252.9
7809,-289.24
7821,-317.64
7833,-338.59
7845,-351.98
7857,-357.87
7868,-356.85
7879,-349.53
7891,-336.04
7903,-315.93
7915,-288.25
7927,-252.34
7939,-208.56
7951,-158.55
7963,-105.2
7975,-52.3
7987,-3.74
7999,37.26
8011,68.82
8023,91.29
8035,107.17
8047,120.8
8058,136.38
8069,155.94
8081,177.73
8093,197.16
8105,208.39
8117,207.57
8129,195.41
8141,176.94
8153,159.85
8165,151.22
8177,154.46
8189,167.49
8201,184.65
8213,199.08
8225,206.34
8237,206.88
8248,204.94
8259,206.81
8271,217.77
8283,239.83
8295,270.86
8307,305.26
8319,335.02
8331,351.5
8343,347.42
8355,318.25
8367,264.63
8379,192.9
8391,114.43
8403,42.2
8415,-13.99
8427,-51.26
8438,-74.24
8449,-91.81
8461,-111.61
8473,-134.96
8485,-155.64
8497,-162.98
8509,-147.13
8521,-104.3
8533,-38.44
8545,40.82
8557,122.53
8569,198.28
8581,264.21
8593,320.1
8605,366.92
8617,405.56
8628,435.95
8639,458.14
8651,473.1
8663,481.78
8675,484.1
8687,477.76
8699,458.76
8711,423.25
8723,370.27
8735,302.9
8747,227.77
8759,153.26
8771,86.37
8783,31.19
8795,-11.46
8807,-43.2
8818,-66.72
8829,-84.92
8841,-100.19
8853,-114.18
8865,-127.66
8877,-141.09
8889,-154.13
8901,-166.44
8913,-177.82
8925,-188.22
8937,-198.03
8949,-208.79
8961,-223.02
8973,-243.63
8985,-272.39
8997,-307.09
9008,-340.97
9019,-364.05
9031,-367.33
9043,-347.33
9055,-309.08
9067,-264.0
9079,-224.71
9091,-198.81
9103,-185.74
9115,-179.04
9127,-172.03
9139,-162.91
9151,-155.37
9163,-155.2
9175,-164.89
9187,-180.62
9198,-194.19
9209,-198.36
9221,-191.73
9233,-179.76
9245,-170.57
9257,-169.26
9269,-173.58
9281,-175.0
9293,-163.89
9305,-136.43
9317,-98.24
9329,-62.67
9341,-44.37
9353,-51.55
9365,-81.46
9377,-121.02
9388,-152.96
9399,-162.52
9411,-143.12
9423,-97.33
9435,-34.72
9447,32.35
9459,91.88
9471,133.81
9483,150.89
9495,138.95
9507,98.67
9519,37.01
9531,-33.03
9543,-94.89
9555,-133.75
9567,-141.15
9578,-118.31
9589,-75.34
9601,-28.24
9613,7.03
9625,20.53
9637,11.28
9649,-12.6
9661,-37.92
9673,-52.18
9685,-48.38
9697,-27.38
9709,3.2
9721,33.53
9733,56.55
9745,70.79
9757,80.57
9768,91.94
9779,107.52
9791,123.52
9803,130.89
9815,120.17
9827,88.31
9839,42.07
9851,-4.28
9863,-34.71
9875,-39.37
9887,-19.14
9899,16.42
9911,55.12
9923,88.87
9935,116.53
9947,141.41
9958,165.32
9969,185.67
9981,195.78
9993,188.73
10005,163.11
10017,125.14
10029,86.98
10041,62.16
10053,60.63
10065,85.13
10077,131.62
10089,190.27
10101,247.96
10113,291.21
10125,308.4
10137,292.77
10148,245.16
10159,175.12
10171,99.35
10183,38.01
10195,7.68
10207,15.7
10219,57.48
10231,117.77
10243,177.08
10255,219.62
10267,239.28
10279,241.36
10291,239.07
10303,246.15
10315,270.49
10327,311.14
10338,358.9
10349,401.12
10361,427.0
10373,430.75
10385,412.22
10397,375.09
10409,323.84
10421,262.24
10433,193.61
10445,121.45
10457,50.88
10469,-11.89
10481,-60.72
10493,-91.6
10505,-104.28
10517,-103.05
10528,-95.36
10539,-89.33
10551,-91.6
10563,-104.73
10575,-126.64
10587,-150.81
10599,-167.87
10611,-168.66
10623,-147.37
10635,-104.62
10647,-48.24
10659,8.26
10671,50.45
10683,67.51
10695,55.53
10707,17.69
10718,-38.1
10729,-101.84
10741,-163.55
10753,-213.84
10765,-244.89
10777,-251.25
10789,-232.65
10801,-195.22
10813,-151.19
10825,-115.75
10837,-101.63
10849,-113.86
10861,-147.36
10873,-188.17
10885,-218.14
10897,-221.73
10908,-192.05
10919,-133.55
10931,-60.95
10943,5.89
10955,49.13
10967,59.2
10979,37.92
10991,-3.17
11003,-47.17
11015,-78.36
11027,-86.34
11039,-68.12
11051,-27.23
11063,27.89
11075,86.35
11087,136.49
11098,167.58
11109,171.96
11121,146.27
11133,92.91
11145,19.35
11157,-63.17
11169,-142.86
11181,-210.47
11193,-261.06
11205,-293.84
11217,-310.87
11229,-315.13
11241,-309.56
11253,-297.4
11265,-281.68
11277,-264.69
11288,-246.89
11299,-226.06
11311,-197.55
11323,-156.99
11335,-104.04
11347,-45.13
11359,7.12
11371,38.21
11383,38.56
11395,8.19
11407,-42.31
11419,-96.05
11431,-136.32
11443,-152.26
11455,-140.91
11467,-105.8
11478,-54.77
11489,2.83
11501,57.3
11513,100.03
11525,125.12
11537,131.34
11549,122.66
11561,106.28
11573,89.22
11585,74.94
11597,62.72
11609,50.59
11621,38.58
11633,29.99
11645,29.42
11657,38.0
11668,50.11
11679,54.3
11691,39.07
11703,-0.09
11715,-55.91
11727,-111.39
11739,-147.31
11751,-151.36
11763,-124.47
11775,-80.45
11787,-39.24
11799,-16.78
11811,-17.68
11823,-33.2
11835,-47.16
11847,-44.98
11858,-22.1
11869,13.55
11881,46.3
11893,61.49
11905,54.02
11917,30.83
11929,7.75
11941,1.07
11953,20.09
11965,62.9
11977,117.17
11989,166.26
12001,196.34
12013,202.34
12025,189.57
12037,171.08
12048,160.36
12059,164.04
12071,178.07
12083,190.07
12095,187.23
12107,164.32
12119,127.01
12131,88.06
12143,59.29
12155,43.88
12167,34.98
12179,21.35
12191,-4.57
12203,-40.62
12215,-76.5
12227,-100.76
12238,-108.49
12249,-104.39
12261,-100.03
12273,-106.93
12285,-129.76
12297,-164.95
12309,-203.37
12321,-235.86
12333,-257.35
12345,-267.7
12357,-268.98
12369,-262.59
12381,-247.61
12393,-221.61
12405,-183.86
12417,-137.81
12428,-91.37
12439,-53.73
12451,-31.15
12463,-22.97
12475,-21.68
12487,-16.61
12499,0.33
12511,29.4
12523,62.94
12535,88.88
12547,97.58
12559,87.12
12571,65.08
12583,44.99
12595,40.2
12607,57.89
12618,95.91
12629,144.85
12641,192.51
12653,229.34
12665,252.08
12677,263.88
12689,271.19
12701,279.81
12713,292.0
12725,305.13
12737,314.02
12749,313.85
12761,303.03
12773,283.32
12785,257.93
12797,228.49
12808,193.49
12819,149.74
12831,94.68
12843,29.35
12855,-40.94
12867,-108.3
12879,-166.45
12891,-213.2
12903,-251.37
12915,-286.45
12927,-323.53
12939,-364.87
12951,-408.44
12963,-448.74
12975,-478.17
12987,-489.62
12998,-478.46
13009,-444.08
13021,-389.94
13033,-322.72
13045,-249.97
13057,-177.48
13069,-108.53
13081,-44.67
13093,12.93
13105,61.85
13117,98.91
13129,122.08
13141,132.77
13153,136.62
13165,142.2
13177,157.68
13188,187.29
13199,229.56
13211,277.54
13223,320.32
13235,346.3
13247,346.53
13259,317.06
13271,261.33
13283,189.12
13295,115.12
13307,54.57
13319,18.54
13331,9.87
13343,22.12
13355,42.29
13367,56.22
13378,55.15
13389,38.6
13401,14.08
13413,-7.5
13425,-17.48
13437,-13.34
13449,1.31
13461,19.41
13473,34.68
13485,44.26
13497,48.11
13509,47.22
13521,41.48
13533,29.33
13545,9.24
13557,-18.11
13568,-49.22
13579,-78.57
13591,-100.48
13603,-111.5
13615,-110.94
13627,-100.73
13639,-84.91
13651,-68.52
13663,-56.36
13675,-51.51
13687,-53.62
13699,-58.08
13711,-56.64
13723,-40.56
13735,-5.17
13747,46.22
13758,102.02
13769,146.42
13781,166.24
13793,157.01
13805,125.16
13817,85.07
13829,52.09
13841,35.63
13853,35.33
13865,42.42
13877,44.88
13889,33.34
13901,4.6
13913,-37.96
13925,-87.66
13937,-137.21
13948,-180.98
13959,-214.54
13971,-233.83
13983,-234.64
13995,-213.38
14007,-168.99
14019,-104.17
14031,-26.56
14043,53.55
14055,125.27
14067,180.38
14079,214.17
14091,225.67
14103,216.58
14115,189.94
14127,150.04
14138,102.12
14149,52.94
14161,9.97
14173,-19.44
14185,-30.0
14197,-20.19
14209,6.59
14221,42.08
14233,75.04
14245,94.62
14257,94.07
14269,73.06
14281,37.43
14293,-3.16
14305,-39.36
14317,-64.43
14328,-75.25
14339,-70.4
14351,-48.28
14363,-6.93
14375,53.64
14387,128.03
14399,204.22
14411,265.01
14423,294.52
14435,284.61
14447,239.57
14459,174.9
14471,111.37
14483,66.36
14495,47.23
14507,49.36
14518,59.14
14529,61.35
14541,45.99
14553,12.43
14565,-31.22
14577,-72.77
14589,-101.19
14601,-110.37
14613,-99.84
14625,-73.09
14637,-34.92
14649,9.87
14661,56.46
14673,99.44
14685,132.69
14697,151.33
14708,153.64
14719,142.2
14731,122.76
14743,101.26
14755,80.87
14767,61.25
14779,40.26
14791,16.77
14803,-7.42
14815,-28.1
14827,-41.95
14839,-49.44
14851,-55.6
14863,-67.72
14875,-90.34
14887,-121.57
14898,-152.95
14909,-172.69
14921,-171.48
14933,-147.29
14945,-106.75
14957,-62.18
14969,-25.66
14981,-3.19
14993,8.18
15005,18.47
15017,39.46
15029,77.49
15041,129.33
15053,182.43
15065,219.88
15077,228.1
15088,202.65
15099,149.51
15111,82.0
15123,15.7
15135,-37.09
15147,-69.5
15159,-80.1
15171,-71.51
15183,-49.23
15195,-20.66
15207,5.18
15219,18.94
15231,13.41
15243,-14.18
15255,-60.1
15267,-114.97
15278,-166.76
15289,-205.56
15301,-227.27
15313,-234.92
15325,-236.56
15337,-240.58
15349,-250.99
15361,-265.27
15373,-276.44
15385,-278.14
15397,-268.72
15409,-252.22
15421,-234.84
15433,-219.6
15445,-203.36
15457,-178.89
15468,-140.96
15479,-92.2
15491,-44.99
15503,-15.48
15515,-14.98
15527,-42.58
15539,-84.39
15551,-120.05
15563,-132.61
15575,-116.47
15587,-78.56
15599,-33.84
15611,3.05
15623,23.63
15635,27.69
15647,20.4
15658,8.01
15669,-5.44
15681,-18.43
15693,-30.09
15705,-38.31
15717,-39.49
15729,-30.31
15741,-9.93
15753,18.63
15765,48.9
15777,73.37
15789,87.17
15801,90.11
15813,86.81
15825,84.68
15837,90.3
15848,106.31
15859,130.46
15871,155.53
15883,172.43
15895,174.18
15907,158.86
15919,130.74
15931,98.68
15943,71.68
15955,54.35
15967,44.59
15979,34.2
15991,14.25
16003,-18.32
16015,-57.58
16027,-89.81
16038,-99.95
16049,-79.61
16061,-31.98
16073,28.97
16085,84.44
16097,119.38
16109,128.48
16121,116.99
16133,97.11
16145,81.17
16157,75.74
16169,79.51
16181,84.48
16193,80.15
16205,58.96
16217,19.82
16228,-30.91
16239,-80.84
16251,-116.77
16263,-131.13
16275,-125.18
16287,-109.0
16299,-96.54
16311,-97.91
16323,-114.22
16335,-137.35
16347,-154.12
16359,-153.38
16371,-132.08
16383,-95.42
16395,-53.96
16407,-18.25
16418,4.94
16429,13.52
16441,7.99
16453,-9.91
16465,-37.93
16477,-72.19
16489,-106.2
16501,-132.17
16513,-143.54
16525,-137.33
16537,-114.97
16549,-81.11
16561,-40.63
16573,3.16
16585,49.0
16597,95.88
16608,140.12
16619,174.57
16631,191.46
16643,186.45
16655,163.04
16667,132.92
16679,111.61
16691,111.63
16703,136.03
16715,176.06
16727,214.96
16739,236.02
16751,229.97
16763,199.58
16775,157.81
16787,120.7
16798,100.27
16809,100.05
16821,114.95
16833,136.06
16845,155.53
16857,169.54
16869,179.41
16881,189.49
16893,203.72
16905,223.02
16917,244.42
16929,261.34
16941,266.92
16953,257.23
16965,233.48
16977,202.76
16988,175.1
16999,158.5
17011,155.02
17023,159.79
17035,164.01
17047,160.81
17059,149.87
17071,137.38
17083,132.16
17095,139.38
17107,156.49
17119,174.47
17131,182.32
17143,172.67
17155,145.15
17167,105.64
17178,62.22
17189,21.94
17201,-11.8
17213,-38.91
17225,-60.51
17237,-77.66
17249,-90.93
17261,-100.88
17273,-108.81
17285,-117.14
17297,-128.02
17309,-143.34
17321,-163.88
17333,-189.26
17345,-217.71
17357,-246.18
17368,-270.11
17379,-284.4
17391,-285.24
17403,-271.58
17415,-246.96
17427,-219.84
17439,-200.55
17451,-197.61
17463,-213.82
17475,-244.44
17487,-279.03
17499,-306.5
17511,-319.83
17523,-319.63
17535,-313.32
17547,-309.61
17558,-312.83
17569,-319.56
17581,-320.01
17593,-303.42
17605,-264.66
17617,-206.63
17629,-138.95
17641,-72.22
17653,-12.8
17665,38.48
17677,83.98
17689,124.49
17701,156.8
17713,174.28
17725,171.72
17737,149.35
17748,114.24
17759,77.46
17771,48.07
17783,28.7
17795,15.04
17807,-0.18
17819,-21.52
17831,-46.75
17843,-67.48
17855,-74.63
17867,-64.64
17879,-43.54
17891,-24.73
17903,-21.92
17915,-41.68
17927,-79.57
17938,-122.41
17949,-155.82
17961,-171.76
17973,-171.69
17985,-163.85
17997,-156.14
18009,-150.45
18021,-141.19
18033,-119.19
18045,-77.41
18057,-15.61
18069,59.42
18081,136.78
18093,205.82
18105,259.25
18117,293.4
18128,307.14
18139,300.52
18151,275.19
18163,234.67
18175,184.79
18187,133.09
18199,87.4
18211,53.77
18223,35.76
18235,33.41
18247,42.7
18259,56.28
18271,64.16
18283,57.32
18295,31.69
18307,-9.03
18318,-54.16
18329,-89.62
18341,-104.45
18353,-96.23
18365,-71.7
18377,-43.66
18389,-24.74
18401,-21.73
18413,-34.0
18425,-55.19
18437,-76.79
18449,-91.3
18461,-93.59
18473,-80.89
18485,-52.67
18497,-11.12
18508,38.1
18519,85.87
18531,121.77
18543,137.55
18555,130.64
18567,105.47
18579,71.85
18591,40.07
18603,16.36
18615,-0.02
18627,-15.45
18639,-37.26
18651,-68.93
18663,-107.34
18675,-144.44
18687,-171.51
18698,-184.71
18709,-186.36
18721,-183.21
18733,-181.56
18745,-183.19
18757,-184.18
18769,-178.27
18781,-161.47
18793,-135.39
18805,-107.41
18817,-86.29
18829,-77.37
18841,-79.13
18853,-83.92
18865,-81.13
18877,-62.68
18888,-26.15
18899,24.72
18911,83.05
18923,142.01
18935,197.19
18947,245.98
18959,284.97
18971,308.42
18983,308.48
18995,278.92
19007,219.89
19019,141.5
19031,62.01
19043,2.09
19055,-23.84
19067,-13.67
19078,21.21
19089,60.66
19101,84.38
19113,79.97
19125,46.87
19137,-4.87
19149,-59.22
19161,-100.84
19173,-119.47
19185,-112.88
19197,-86.96
19209,-53.11
19221,-24.02
19233,-9.79
19245,-14.0
19257,-33.22
19268,-58.89
19279,-82.01
19291,-97.25
19303,-105.57
19315,-112.75
19327,-125.11
19339,-145.81
19351,-172.45
19363,-198.71
19375,-217.57
19387,-224.63
19399,-218.64
19411,-200.82
19423,-171.9
19435,-131.65
19447,-79.54
19458,-16.99
19469,50.83
19481,115.3
19493,167.61
19505,202.97
19517,222.4
19529,232.16
19541,238.78
19553,245.21
19565,249.08
19577,245.06
19589,229.15
19601,202.89
19613,174.27
19625,154.94
19637,155.65
19648,181.33
19659,229.2
19671,289.3
19683,348.19
19695,392.61
19707,413.25
19719,407.03
19731,377.16
19743,332.18
19755,282.92
19767,239.1
19779,206.56
19791,186.28
19803,175.25
19815,168.67
19827,162.41
19838,153.83
19849,142.37
19861,128.55
19873,112.94
19885,95.62
19897,76.14
19909,53.79
19921,28.46
19933,1.92
19945,-21.74
19957,-36.44
19969,-36.66
19981,-20.35
19993,8.81
20005,41.34
20017,65.1
20028,69.93
20039,52.16
20051,15.38
20063,-31.85
20075,-80.87
20087,-126.96
20099,-170.09
20111,-213.32
20123,-259.31
20135,-307.76
20147,-355.09
20159,-396.64
20171,-429.07
20183,-451.89
20195,-467.34
20207,-478.74
20218,-488.73
20229,-498.27
20241,-506.95
20253,-514.39
20265,-521.45
20277,-529.7
20289,-540.06
20301,-550.83
20313,-556.68
20325,-550.21
20337,-524.66
20349,-477.27
20361,-411.17
20373,-334.2
20385,-255.79
20397,-183.64
20408,-121.67
20419,-70.02
20431,-26.71
20443,10.78
20455,43.95
20467,73.04
20479,97.92
20491,118.49
20503,135.39
20515,149.77
20527,163.09
20539,176.94
20551,193.16
20563,213.69
20575,240.43
20587,274.23
20598,313.47
20609,353.47
20621,386.9
20633,405.51
20645,403.16
20657,378.75
20669,337.06
20681,287.15
20693,239.06
20705,199.69
20717,170.82
20729,150.09
20741,133.34
20753,118.06
20765,104.53
20777,94.98
20788,90.64
20799,89.77
20811,86.99
20823,75.0
20835,47.95
20847,3.61
20859,-55.18
20871,-121.35
20883,-184.49
20895,-233.05
20907,-256.44
20919,-248.48
20931,-210.24
20943,-151.75
20955,-89.8
20967,-42.74
20978,-23.58
20989,-34.11
