seconds,BVP
8,614.49
20,603.39
32,581.75
44,549.66
56,508.03
68,458.73
80,404.41
91,347.92
102,291.74
114,237.45
126,185.66
138,136.25
150,88.69
162,42.34
174,-3.4
186,-49.02
198,-94.72
210,-140.18
222,-184.42
234,-225.83
246,-262.57
258,-293.1
270,-316.64
281,-333.46
292,-344.66
304,-351.84
316,-356.54
328,-359.91
340,-362.42
352,-363.78
364,-362.9
376,-358.09
388,-347.31
400,-328.54
412,-300.12
424,-261.08
436,-211.35
448,-152.03
460,-85.56
471,-15.74
482,52.58
494,114.21
506,164.69
518,201.21
530,223.14
542,231.78
554,229.62
566,219.38
578,203.3
590,182.97
602,159.59
614,134.33
626,108.58
638,83.92
650,61.83
661,43.37
672,28.96
684,18.26
696,10.34
708,3.87
720,-2.62
732,-10.46
744,-20.51
756,-33.06
768,-47.85
780,-64.21
792,-81.38
804,-98.71
816,-115.77
828,-132.29
840,-147.96
851,-162.15
862,-173.78
874,-181.37
886,-183.3
898,-178.28
910,-165.79
922,-146.38
934,-121.59
946,-93.63
958,-64.76
970,-36.93
982,-11.63
994,9.94
1006,26.59
1018,37.09
1030,40.54
1041,36.8
1052,26.91
1064,12.91
1076,-2.73
1088,-18.01
1100,-32.01
1112,-45.02
1124,-58.01
1136,-71.93
1148,-87.06
1160,-102.84
1172,-118.15
1184,-131.82
1196,-142.98
1208,-151.34
1220,-157.08
1231,-160.69
1242,-162.82
1254,-164.14
1266,-165.2
1278,-166.44
1290,-168.11
1302,-170.31
1314,-173.02
1326,-176.21
1338,-179.93
1350,-184.41
1362,-190.0
1374,-197.12
1386,-206.02
1398,-216.48
1410,-227.46
1421,-236.9
1432,-241.88
1444,-239.12
1456,-225.8
1468,-200.33
1480,-162.83
1492,-115.12
1504,-60.2
1516,-1.5
1528,57.86
1540,115.51
1552,169.95
1564,220.46
1576,266.93
1588,309.69
1600,349.49
1611,387.36
1622,424.43
1634,461.52
1646,498.59
1658,534.35
1670,566.13
1682,590.16
1694,602.47
1706,599.92
1718,581.17
1730,547.05
1742,500.28
1754,444.65
1766,384.02
1778,321.59
1790,259.55
1801,199.32
1812,141.84
1824,87.89
1836,38.2
1848,-6.7
1860,-46.63
1872,-81.77
1884,-112.64
1896,-139.85
1908,-163.87
1920,-185.0
1932,-203.36
1944,-219.03
1956,-232.18
1968,-243.2
1980,-252.57
1991,-260.69
2002,-267.72
2014,-273.38
2026,-277.01
2038,-277.72
2050,-274.7
2062,-267.5
2074,-256.14
2086,-241.02
2098,-222.63
2110,-201.22
2122,-176.69
2134,-148.6
2146,-116.64
2158,-80.98
2170,-42.56
2181,-3.04
2192,35.53
2204,71.05
2216,101.68
2228,125.87
2240,142.37
2252,150.19
2264,148.93
2276,138.96
2288,121.66
2300,99.24
2312,74.31
2324,49.24
2336,25.76
2348,4.77
2360,-13.4
2371,-28.65
2382,-40.81
2394,-49.6
2406,-54.9
2418,-57.2
2430,-57.95
2442,-59.38
2454,-63.93
2466,-73.31
2478,-87.73
2490,-105.72
2502,-124.68
2514,-142.04
2526,-156.28
2538,-167.47
2550,-176.95
2561,-186.56
2572,-197.84
2584,-211.66
2596,-228.14
2608,-246.61
2620,-265.38
2632,-281.35
2644,-290.12
2656,-286.78
2668,-267.46
2680,-230.93
2692,-179.31
2704,-117.51
2716,-51.46
2728,13.92
2740,76.07
2751,135.0
2762,192.67
2774,251.96
2786,315.48
2798,384.38
2810,457.17
2822,528.95
2834,591.67
2846,635.92
2858,653.83
2870,641.83
2882,601.97
2894,540.96
2906,467.53
2918,389.3
2930,310.9
2941,233.86
2952,157.9
2964,82.66
2976,8.72
2988,-62.38
3000,-128.76
3012,-188.92
3024,-242.11
3036,-288.17
3048,-327.24
3060,-359.58
3072,-385.33
3084,-404.65
3096,-417.89
3108,-425.58
3120,-428.32
3131,-426.39
3142,-419.24
3154,-405.41
3166,-382.91
3178,-350.07
3190,-306.51
3202,-253.66
3214,-194.32
3226,-131.65
3238,-68.18
3250,-5.24
3262,56.68
3274,117.17
3286,175.15
3298,228.67
3310,275.39
3321,313.28
3332,341.33
3344,359.83
3356,370.23
3368,374.82
3380,376.19
3392,376.7
3404,377.83
3416,379.7
3428,380.8
3440,378.3
3452,368.96
3464,350.4
3476,322.22
3488,286.31
3500,246.28
3511,206.06
3522,168.62
3534,134.99
3546,104.38
3558,74.96
3570,45.09
3582,14.13
3594,-17.35
3606,-47.94
3618,-76.21
3630,-101.26
3642,-123.01
3654,-142.0
3666,-159.03
3678,-174.69
3690,-188.91
3701,-200.56
3712,-207.34
3724,-206.0
3736,-193.14
3748,-166.42
3760,-125.74
3772,-73.85
3784,-16.13
3796,40.66
3808,89.96
3820,126.88
3832,149.01
3844,156.45
3856,151.25
3868,136.59
3880,115.93
3891,92.5
3902,68.8
3914,46.5
3926,26.34
3938,8.3
3950,-8.12
3962,-23.56
3974,-38.5
3986,-53.03
3998,-66.82
4010,-79.28
4022,-89.79
4034,-97.97
4046,-103.77
4058,-107.56
4070,-109.96
4081,-111.64
4092,-113.13
4104,-114.66
4116,-116.27
4128,-117.88
4140,-119.51
4152,-121.3
4164,-123.59
4176,-126.68
4188,-130.7
4200,-135.48
4212,-140.58
4224,-145.48
4236,-149.89
4248,-153.96
4260,-158.4
4271,-164.25
4282,-172.52
4294,-183.85
4306,-198.35
4318,-215.62
4330,-235.09
4342,-256.3
4354,-279.12
4366,-303.81
4378,-331.05
4390,-361.78
4402,-396.75
4414,-435.81
4426,-477.01
4438,-516.18
4450,-547.43
4461,-564.74
4472,-563.94
4484,-544.31
4496,-508.84
4508,-462.98
4520,-412.6
4532,-362.1
4544,-313.66
4556,-267.71
4568,-224.17
4580,-183.32
4592,-146.01
4604,-113.13
4616,-84.96
4628,-60.85
4640,-39.5
4651,-19.63
4662,-0.51
4674,17.81
4686,34.68
4698,49.34
4710,61.41
4722,71.16
4734,79.5
4746,87.69
4758,96.89
4770,107.82
4782,120.54
4794,134.51
4806,148.87
4818,162.85
4830,176.0
4841,188.37
4852,200.43
4864,212.77
4876,225.96
4888,240.44
4900,256.58
4912,274.8
4924,295.26
4936,317.52
4948,340.06
4960,360.33
4972,375.25
4984,382.23
4996,380.11
5008,369.55
5020,352.7
5031,332.31
5042,310.68
5054,289.23
5066,268.52
5078,248.71
5090,229.98
5102,212.55
5114,196.6
5126,181.92
5138,167.99
5150,154.15
5162,139.98
5174,125.53
5186,111.33
5198,98.23
5210,87.02
5221,78.25
5232,71.99
5244,67.92
5256,65.44
5268,63.87
5280,62.67
5292,61.54
5304,60.4
5316,59.32
5328,58.39
5340,57.59
5352,56.78
5364,55.76
5376,54.37
5388,52.58
5400,50.48
5411,48.31
5422,46.34
5434,44.76
5446,43.62
5458,42.84
5470,42.2
5482,41.49
5494,40.55
5506,39.34
5518,37.93
5530,36.46
5542,35.07
5554,33.82
5566,32.66
5578,31.51
5590,30.21
5601,28.71
5612,27.08
5624,25.49
5636,24.18
5648,23.28
5660,22.75
5672,22.42
5684,22.0
5696,21.27
5708,20.15
5720,18.69
5732,17.05
5744,15.4
5756,13.82
5768,12.36
5780,11.02
5791,9.77
5802,8.58
5814,7.33
5826,5.93
5838,4.29
5850,2.43
5862,0.5
5874,-1.22
5886,-2.41
5898,-2.73
5910,-2.0
5922,-0.18
5934,2.56
5946,5.9
5958,9.39
5970,12.63
5981,15.29
5992,17.21
6004,18.38
6016,18.92
6028,18.97
6040,18.7
6052,18.28
6064,17.85
6076,17.58
6088,17.58
6100,17.88
6112,18.47
6124,19.22
6136,20.0
6148,20.71
6160,21.27
6171,21.64
6182,21.82
6194,21.82
6206,21.65
6218,21.28
6230,20.67
6242,19.77
6254,18.57
6266,17.09
6278,15.45
6290,13.81
6302,12.3
6314,10.99
6326,9.79
6338,8.54
6350,7.06
6361,5.33
6372,3.45
6384,1.67
6396,0.21
6408,-0.8
6420,-1.42
6432,-1.86
6444,-2.35
6456,-3.1
6468,-4.24
6480,-5.78
6492,-7.63
6504,-9.61
6516,-11.43
6528,-12.73
6540,-13.16
6551,-12.46
6562,-10.53
6574,-7.54
6586,-3.82
6598,0.17
6610,3.98
6622,7.27
6634,9.89
6646,11.86
6658,13.3
6670,14.43
6682,15.43
6694,16.5
6706,17.74
6718,19.24
6730,20.97
6741,22.87
6752,24.79
6764,26.53
6776,27.93
6788,28.98
6800,29.95
6812,31.29
6824,33.42
6836,36.41
6848,39.78
6860,42.47
6872,43.13
6884,40.65
6896,34.55
6908,25.15
6920,13.4
6931,0.45
6942,-12.69
6954,-25.35
6966,-37.07
6978,-47.37
6990,-55.65
7002,-61.24
7014,-63.66
7026,-62.95
7038,-59.71
7050,-54.97
7062,-49.9
7074,-45.36
7086,-41.73
7098,-38.89
7110,-36.46
7121,-34.07
7132,-31.6
7144,-29.21
7156,-27.23
7168,-26.0
7180,-25.69
7192,-26.25
7204,-27.46
7216,-29.04
7228,-30.67
7240,-32.0
7252,-32.59
7264,-31.92
7276,-29.51
7288,-25.15
7300,-19.06
7311,-11.88
7322,-4.5
7334,2.24
7346,7.84
7358,12.16
7370,15.23
7382,17.08
7394,17.56
7406,16.47
7418,13.8
7430,9.91
7442,5.56
7454,1.74
7466,-0.78
7478,-1.61
7490,-0.89
7501,0.91
7512,3.24
7524,5.71
7536,8.16
7548,10.57
7560,12.97
7572,15.28
7584,17.27
7596,18.69
7608,19.33
7620,19.18
7632,18.44
7644,17.41
7656,16.39
7668,15.51
7680,14.73
7691,13.9
7702,12.87
7714,11.58
7726,10.09
7738,8.57
7750,7.14
7762,5.88
7774,4.76
7786,3.64
7798,2.41
7810,0.98
7822,-0.68
7834,-2.49
7846,-4.34
7858,-6.09
7870,-7.67
7881,-9.08
7892,-10.45
7904,-11.9
7916,-13.54
7928,-15.4
7940,-17.43
7952,-19.57
7964,-21.74
7976,-23.81
7988,-25.59
8000,-26.85
8012,-27.37
8024,-27.16
8036,-26.46
8048,-25.6
8060,-24.76
8071,-23.67
8082,-21.52
8094,-17.36
8106,-10.52
8118,-1.15
8130,9.68
8142,20.3
8154,29.0
8166,34.6
8178,36.66
8190,35.46
8202,31.69
8214,26.21
8226,19.89
8238,13.61
8250,8.18
8261,4.23
8272,2.03
8284,1.35
8296,1.54
8308,1.73
8320,1.3
8332,0.3
8344,-0.38
8356,0.69
8368,4.91
8380,12.85
8392,23.75
8404,35.59
8416,45.73
8428,51.95
8440,53.23
8451,49.99
8462,43.65
8474,35.89
8486,27.91
8498,20.2
8510,12.69
8522,5.25
8534,-2.03
8546,-8.7
8558,-14.23
8570,-18.33
8582,-21.11
8594,-23.01
8606,-24.61
8618,-26.33
8630,-28.27
8641,-30.3
8652,-32.13
8664,-33.58
8676,-34.67
8688,-35.56
8700,-36.45
8712,-37.4
8724,-38.23
8736,-38.55
8748,-37.9
8760,-36.0
8772,-32.88
8784,-28.93
8796,-24.81
8808,-21.15
8820,-18.4
8831,-16.63
8842,-15.63
8854,-15.04
8866,-14.56
8878,-14.06
8890,-13.56
8902,-13.1
8914,-12.65
8926,-12.13
8938,-11.4
8950,-10.46
8962,-9.41
8974,-8.4
8986,-7.57
8998,-6.89
9010,-6.21
9021,-5.37
9032,-4.28
9044,-3.01
9056,-1.74
9068,-0.69
9080,-0.01
9092,0.28
9104,0.26
9116,0.08
9128,-0.13
9140,-0.28
9152,-0.4
9164,-0.56
9176,-0.85
9188,-1.37
9200,-2.1
9211,-2.99
9222,-3.91
9234,-4.74
9246,-5.42
9258,-5.95
9270,-6.46
9282,-7.11
9294,-8.04
9306,-9.27
9318,-10.7
9330,-12.18
9342,-13.52
9354,-14.62
9366,-15.49
9378,-16.21
9390,-16.89
9401,-17.61
9412,-18.45
9424,-19.45
9436,-20.62
9448,-21.86
9460,-22.89
9472,-23.37
9484,-22.89
9496,-21.26
9508,-18.56
9520,-15.18
9532,-11.69
9544,-8.6
9556,-6.2
9568,-4.47
9580,-3.21
9591,-2.19
9602,-1.27
9614,-0.49
9626,0.06
9638,0.36
9650,0.44
9662,0.45
9674,0.57
9686,0.85
9698,1.26
9710,1.65
9722,1.89
9734,1.94
9746,1.9
9758,1.93
9770,2.21
9781,2.78
9792,3.55
9804,4.34
9816,4.94
9828,5.26
9840,5.32
9852,5.24
9864,5.21
9876,5.3
9888,5.51
9900,5.67
9912,5.59
9924,5.11
9936,4.25
9948,3.16
9960,2.06
9971,1.14
9982,0.44
9994,-0.08
10006,-0.6
10018,-1.22
10030,-1.92
10042,-2.63
10054,-3.23
10066,-3.68
10078,-4.06
10090,-4.51
10102,-5.17
10114,-6.12
10126,-7.28
10138,-8.55
10150,-9.84
10161,-11.11
10172,-12.46
10184,-13.95
10196,-15.55
10208,-17.04
10220,-18.06
10232,-18.23
10244,-17.31
10256,-15.29
10268,-12.4
10280,-9.03
10292,-5.56
10304,-2.31
10316,0.55
10328,2.94
10340,4.83
10351,6.21
10362,7.03
10374,7.32
10386,7.15
10398,6.69
10410,6.19
10422,5.88
10434,5.97
10446,6.56
10458,7.61
10470,9.05
10482,10.82
10494,12.87
10506,15.17
10518,17.62
10530,20.06
10541,22.26
10552,23.98
10564,25.12
10576,25.77
10588,26.19
10600,26.79
10612,27.92
10624,29.82
10636,32.44
10648,35.45
10660,38.37
10672,40.74
10684,42.34
10696,43.34
10708,44.22
10720,45.6
10731,47.96
10742,51.47
10754,55.9
10766,60.74
10778,65.43
10790,69.57
10802,73.04
10814,76.11
10826,79.29
10838,83.19
10850,88.32
10862,94.97
10874,103.04
10886,112.16
10898,121.75
10910,131.29
10921,140.54
10932,149.69
10944,159.42
10956,170.85
10968,185.14
10980,203.01
10992,223.93
11004,245.72
11016,264.56
11028,275.94
11040,276.09
11052,263.34
11064,238.77
11076,205.8
11088,168.77
11100,131.42
11111,95.78
11122,62.01
11134,29.07
11146,-4.28
11158,-38.66
11170,-73.9
11182,-109.4
11194,-144.63
11206,-179.42
11218,-214.04
11230,-248.91
11242,-284.34
11254,-320.49
11266,-357.6
11278,-396.22
11290,-437.02
11301,-479.92
11312,-523.01
11324,-561.87
11336,-590.09
11348,-600.95
11360,-589.69
11372,-555.27
11384,-500.69
11396,-431.76
11408,-354.96
11420,-275.55
11432,-196.68
11444,-119.54
11456,-44.28
11468,29.2
11480,100.92
11491,170.94
11502,239.61
11514,307.35
11526,374.01
11538,437.91
11550,495.47
11562,541.49
11574,570.54
11586,578.97
11598,566.37
11610,535.95
11622,493.45
11634,445.04
11646,395.26
11658,346.06
11670,297.08
11681,246.97
11692,194.87
11704,141.07
11716,86.78
11728,33.42
11740,-18.12
11752,-67.71
11764,-115.72
11776,-162.58
11788,-208.56
11800,-253.76
11812,-298.36
11824,-342.52
11836,-386.21
11848,-428.62
11860,-468.03
11871,-501.94
11882,-527.66
11894,-543.19
11906,-547.81
11918,-542.2
11930,-527.98
11942,-506.86
11954,-479.93
11966,-447.38
11978,-408.7
11990,-363.27
12002,-310.86
12014,-251.82
12026,-187.06
12038,-117.95
12050,-46.51
12061,24.2
12072,90.0
12084,146.08
12096,188.09
12108,213.58
12120,223.05
12132,219.9
12144,209.28
12156,196.42
12168,185.15
12180,177.39
12192,173.44
12204,172.87
12216,175.08
12228,179.45
12240,185.18
12251,191.08
12262,195.85
12274,198.47
12286,198.8
12298,197.71
12310,196.8
12322,197.76
12334,201.66
12346,208.48
12358,217.04
12370,225.3
12382,230.91
12394,231.8
12406,226.56
12418,214.76
12430,196.86
12441,173.99
12452,147.58
12464,118.89
12476,88.9
12488,58.17
12500,27.02
12512,-4.22
12524,-35.01
12536,-64.67
12548,-92.5
12560,-117.94
12572,-140.68
12584,-160.54
12596,-177.35
12608,-190.99
12620,-201.43
12631,-208.89
12642,-214.01
12654,-217.73
12666,-220.98
12678,-224.47
12690,-228.43
12702,-232.6
12714,-236.37
12726,-238.98
12738,-239.49
12750,-236.98
12762,-230.54
12774,-219.44
12786,-203.44
12798,-182.92
12810,-158.91
12821,-132.9
12832,-106.51
12844,-81.15
12856,-57.97
12868,-37.76
12880,-21.01
12892,-7.86
12904,1.97
12916,9.14
12928,14.46
12940,18.5
12952,21.3
12964,22.18
12976,20.04
12988,13.84
13000,3.15
13011,-11.61
13022,-29.09
13034,-47.38
13046,-64.47
13058,-78.67
13070,-89.06
13082,-95.54
13094,-98.66
13106,-99.23
13118,-97.49
13130,-92.65
13142,-82.72
13154,-64.91
13166,-36.61
13178,3.51
13190,54.52
13201,112.88
13212,173.0
13224,228.31
13236,272.89
13248,302.64
13260,316.01
13272,313.92
13284,299.01
13296,274.73
13308,244.45
13320,210.92
13332,176.23
13344,141.83
13356,108.79
13368,77.83
13380,49.47
13391,24.09
13402,2.09
13414,-16.03
13426,-29.73
13438,-38.71
13450,-43.19
13462,-43.95
13474,-42.17
13486,-38.97
13498,-34.96
13510,-29.95
13522,-23.12
13534,-13.42
13546,-0.23
13558,16.22
13570,34.73
13581,53.53
13592,70.7
13604,84.63
13616,94.15
13628,98.48
13640,97.13
13652,89.84
13664,76.84
13676,59.04
13688,38.14
13700,16.32
13712,-4.22
13724,-21.87
13736,-35.97
13748,-46.75
13760,-54.95
13771,-61.36
13782,-66.47
13794,-70.36
13806,-72.95
13818,-74.32
13830,-74.87
13842,-75.46
13854,-77.05
13866,-80.29
13878,-85.08
13890,-90.32
13902,-94.13
13914,-94.42
13926,-89.59
13938,-79.17
13950,-64.02
13961,-45.96
13972,-27.22
13984,-9.7
13996,5.44
14008,17.81
14020,27.5
14032,34.7
14044,39.48
14056,41.78
14068,41.61
14080,39.27
14092,35.44
14104,31.06
14116,27.14
14128,24.42
14140,23.29
14151,23.72
14162,25.37
14174,27.74
14186,30.35
14198,32.76
14210,34.71
14222,36.03
14234,36.66
14246,36.54
14258,35.7
14270,34.11
14282,31.85
14294,29.0
14306,25.7
14318,22.15
14330,18.47
14341,14.7
14352,10.82
14364,6.75
14376,2.49
14388,-1.83
14400,-6.01
14412,-9.81
14424,-13.11
14436,-15.96
14448,-18.58
14460,-21.23
14472,-24.1
14484,-27.21
14496,-30.41
14508,-33.48
14520,-36.3
14531,-38.89
14542,-41.51
14554,-44.54
14566,-48.38
14578,-53.31
14590,-59.34
14602,-65.93
14614,-72.02
14626,-76.11
14638,-76.5
14650,-71.86
14662,-61.58
14674,-45.99
14686,-26.34
14698,-4.5
14710,17.5
14721,37.75
14732,54.75
14744,67.49
14756,75.51
14768,78.87
14780,78.14
14792,74.32
14804,68.62
14816,62.28
14828,56.4
14840,51.73
14852,48.65
14864,47.12
14876,46.77
14888,47.04
14900,47.38
14911,47.42
14922,47.01
14934,46.19
14946,45.0
14958,43.39
14970,41.19
14982,38.16
14994,34.22
15006,29.45
15018,24.22
15030,18.98
15042,14.1
15054,9.8
15066,6.04
15078,2.63
15090,-0.65
15101,-3.97
15112,-7.35
15124,-10.73
15136,-13.96
15148,-16.98
15160,-19.76
15172,-22.4
15184,-25.01
15196,-27.73
15208,-30.7
15220,-33.93
15232,-37.42
15244,-41.07
15256,-44.69
15268,-48.11
15280,-51.25
15291,-54.12
15302,-57.04
15314,-60.48
15326,-65.01
15338,-70.87
15350,-77.67
15362,-84.25
15374,-88.81
15386,-89.42
15398,-84.54
15410,-73.55
15422,-56.93
15434,-36.05
15446,-12.89
15458,10.44
15470,31.99
15481,50.22
15492,64.09
15504,73.13
15516,77.48
15528,77.8
15540,75.12
15552,70.59
15564,65.29
15576,60.06
15588,55.45
15600,51.77
15612,49.12
15624,47.45
15636,46.59
15648,46.3
15660,46.26
15671,46.19
15682,45.89
15694,45.3
15706,44.48
15718,43.47
15730,42.19
15742,40.42
15754,37.86
15766,34.25
15778,29.67
15790,24.5
15802,19.39
15814,14.93
15826,11.48
15838,8.94
15850,6.9
15861,4.79
15872,2.19
15884,-1.03
15896,-4.7
15908,-8.43
15920,-11.83
15932,-14.59
15944,-16.6
15956,-17.88
15968,-18.55
15980,-18.8
15992,-18.88
16004,-19.06
16016,-19.67
16028,-21.04
16040,-23.32
16051,-26.52
16062,-30.48
16074,-35.02
16086,-40.07
16098,-45.66
16110,-51.73
16122,-57.86
16134,-62.98
16146,-65.47
16158,-63.57
16170,-56.05
16182,-42.76
16194,-24.84
16206,-4.43
16218,16.0
16230,34.27
16241,49.0
16252,59.66
16264,66.33
16276,69.5
16288,69.8
16300,67.91
16312,64.52
16324,60.24
16336,55.56
16348,50.8
16360,46.08
16372,41.42
16384,36.76
16396,32.01
16408,27.02
16420,21.53
16431,15.12
16442,7.19
16454,-3.08
16466,-16.62
16478,-34.25
16490,-56.31
16502,-82.28
16514,-110.57
16526,-138.57
16538,-163.4
16550,-182.65
16562,-195.21
16574,-201.52
16586,-203.15
16598,-201.93
16610,-199.02
16621,-194.38
16632,-186.77
16644,-174.41
16656,-155.95
16668,-131.24
16680,-101.67
16692,-69.93
16704,-39.34
16716,-12.86
16728,7.59
16740,21.5
16752,29.54
16764,33.1
16776,33.65
16788,32.41
16800,30.3
16811,27.96
16822,25.94
16834,24.65
16846,24.32
16858,25.0
16870,26.71
16882,29.54
16894,33.72
16906,39.56
16918,47.16
16930,56.25
16942,66.1
16954,75.68
16966,83.98
16978,90.23
16990,94.11
17001,95.68
17012,95.31
17024,93.52
17036,90.86
17048,87.89
17060,85.06
17072,82.78
17084,81.29
17096,80.63
17108,80.6
17120,80.85
17132,80.99
17144,80.8
17156,80.26
17168,79.6
17180,79.13
17191,78.99
17202,79.05
17214,78.92
17226,78.16
17238,76.55
17250,74.2
17262,71.49
17274,68.85
17286,66.58
17298,64.62
17310,62.67
17322,60.33
17334,57.36
17346,53.78
17358,49.85
17370,45.96
17381,42.39
17392,39.18
17404,36.12
17416,32.83
17428,28.99
17440,24.4
17452,19.13
17464,13.41
17476,7.56
17488,1.79
17500,-3.78
17512,-9.21
17524,-14.57
17536,-19.98
17548,-25.5
17560,-31.09
17571,-36.58
17582,-41.55
17594,-45.39
17606,-47.35
17618,-46.78
17630,-43.35
17642,-37.25
17654,-29.17
17666,-20.15
17678,-11.31
17690,-3.56
17702,2.45
17714,6.44
17726,8.42
17738,8.62
17750,7.42
17761,5.33
17772,2.87
17784,0.55
17796,-1.31
17808,-2.51
17820,-3.03
17832,-2.93
17844,-2.36
17856,-1.46
17868,-0.37
17880,0.76
17892,1.86
17904,2.86
17916,3.71
17928,4.38
17940,4.83
17951,4.99
17962,4.83
17974,4.36
17986,3.59
17998,2.57
18010,1.33
18022,-0.12
18034,-1.8
18046,-3.69
18058,-5.7
18070,-7.68
18082,-9.45
18094,-10.86
18106,-11.88
18118,-12.6
18130,-13.17
18141,-13.75
18152,-14.42
18164,-15.16
18176,-15.9
18188,-16.55
18200,-17.1
18212,-17.63
18224,-18.26
18236,-19.12
18248,-20.32
18260,-21.82
18272,-23.41
18284,-24.7
18296,-25.13
18308,-24.17
18320,-21.43
18331,-16.89
18342,-10.89
18354,-4.09
18366,2.75
18378,8.91
18390,13.91
18402,17.48
18414,19.55
18426,20.19
18438,19.61
18450,18.12
18462,16.11
18474,14.01
18486,12.19
18498,10.88
18510,10.15
18521,9.91
18532,9.99
18544,10.18
18556,10.33
18568,10.38
18580,10.34
18592,10.25
18604,10.1
18616,9.85
18628,9.39
18640,8.61
18652,7.45
18664,5.93
18676,4.17
18688,2.34
18700,0.6
18711,-0.98
18722,-2.47
18734,-4.05
18746,-5.92
18758,-8.18
18770,-10.77
18782,-13.52
18794,-16.14
18806,-18.42
18818,-20.25
18830,-21.7
18842,-22.97
18854,-24.29
18866,-25.9
18878,-27.91
18890,-30.29
18901,-32.8
18912,-34.94
18924,-36.05
18936,-35.41
18948,-32.57
18960,-27.45
18972,-20.44
18984,-12.35
18996,-4.12
19008,3.38
19020,9.52
19032,14.01
19044,16.83
19056,18.16
19068,18.31
19080,17.56
19091,16.23
19102,14.58
19114,12.85
19126,11.24
19138,9.95
19150,9.08
19162,8.67
19174,8.62
19186,8.77
19198,8.91
19210,8.88
19222,8.67
19234,8.36
19246,8.12
19258,7.98
19270,7.86
19281,7.51
19292,6.64
19304,5.12
19316,3.05
19328,0.76
19340,-1.36
19352,-2.98
19364,-4.06
19376,-4.82
19388,-5.63
19400,-6.81
19412,-8.51
19424,-10.57
19436,-12.7
19448,-14.54
19460,-15.94
19471,-16.97
19482,-17.91
19494,-19.11
19506,-20.82
19518,-23.13
19530,-25.9
19542,-28.87
19554,-31.58
19566,-33.47
19578,-33.88
19590,-32.2
19602,-28.1
19614,-21.69
19626,-13.63
19638,-4.91
19650,3.36
19661,10.37
19672,15.72
19684,19.38
19696,21.56
19708,22.52
19720,22.46
19732,21.58
19744,20.12
19756,18.42
19768,16.81
19780,15.57
19792,14.83
19804,14.57
19816,14.62
19828,14.76
19840,14.84
19851,14.68
19862,14.26
19874,13.62
19886,12.89
19898,12.17
19910,11.48
19922,10.69
19934,9.61
19946,8.09
19958,6.14
19970,3.96
19982,1.79
19994,-0.15
20006,-1.89
20018,-3.57
20030,-5.39
20041,-7.46
20052,-9.67
20064,-11.8
20076,-13.64
20088,-15.09
20100,-16.18
20112,-17.02
20124,-17.69
20136,-18.27
20148,-18.86
20160,-19.66
20172,-20.92
20184,-22.88
20196,-25.59
20208,-28.74
20220,-31.67
20231,-33.55
20242,-33.5
20254,-30.95
20266,-25.77
20278,-18.4
20290,-9.66
20302,-0.63
20314,7.66
20326,14.44
20338,19.33
20350,22.29
20362,23.49
20374,23.27
20386,21.97
20398,19.96
20410,17.64
20421,15.41
20432,13.61
20444,12.45
20456,11.99
20468,12.08
20480,12.5
20492,13.06
20504,13.66
20516,14.27
20528,14.91
20540,15.52
20552,15.97
20564,16.07
20576,15.7
20588,14.85
20600,13.61
20611,12.11
20622,10.47
20634,8.76
20646,6.99
20658,5.25
20670,3.65
20682,2.3
20694,1.22
20706,0.3
20718,-0.68
20730,-1.91
20742,-3.47
20754,-5.23
20766,-6.92
20778,-8.27
20790,-9.13
20801,-9.54
20812,-9.69
20824,-9.88
20836,-10.44
20848,-11.62
20860,-13.56
20872,-16.25
20884,-19.47
20896,-22.69
20908,-25.19
20920,-26.19
20932,-25.0
20944,-21.37
20956,-15.52
20968,-8.18
20980,-0.37
20991,6.92
