seconds,BVP
5,19.32
16,18.28
28,17.22
40,16.4
52,16.04
64,16.27
76,17.06
88,18.24
100,19.49
112,20.45
124,20.75
136,20.19
148,18.74
160,16.55
172,13.88
184,11.03
195,8.18
206,5.42
218,2.74
230,0.1
242,-2.54
254,-5.26
266,-8.14
278,-11.24
290,-14.6
302,-18.14
314,-21.56
326,-24.45
338,-26.19
350,-26.16
362,-23.91
374,-19.33
385,-12.76
396,-4.95
408,3.12
420,10.5
432,16.52
444,20.84
456,23.47
468,24.63
480,24.64
492,23.83
504,22.54
516,21.08
528,19.73
540,18.69
552,18.05
564,17.79
575,17.78
586,17.88
598,17.93
610,17.8
622,17.4
634,16.67
646,15.54
658,14.04
670,12.18
682,10.01
694,7.58
706,4.96
718,2.24
730,-0.52
742,-3.27
754,-6.03
765,-8.87
776,-11.86
788,-14.97
800,-17.96
812,-20.32
824,-21.4
836,-20.59
848,-17.49
860,-12.18
872,-5.19
884,2.61
896,10.27
908,16.99
920,22.24
932,25.8
944,27.71
955,28.16
966,27.39
978,25.73
990,23.54
1002,21.23
1014,19.24
1026,17.92
1038,17.45
1050,17.77
1062,18.61
1074,19.56
1086,20.21
1098,20.28
1110,19.66
1122,18.37
1134,16.51
1145,14.25
1156,11.71
1168,9.01
1180,6.25
1192,3.53
1204,0.95
1216,-1.5
1228,-3.86
1240,-6.3
1252,-9.01
1264,-12.05
1276,-15.23
1288,-18.05
1300,-19.78
1312,-19.64
1324,-17.14
1335,-12.25
1346,-5.5
1358,2.19
1370,9.8
1382,16.46
1394,21.66
1406,25.27
1418,27.39
1430,28.23
1442,27.98
1454,26.82
1466,24.96
1478,22.73
1490,20.58
1502,18.95
1514,18.15
1525,18.24
1536,18.97
1548,19.88
1560,20.49
1572,20.55
1584,20.06
1596,19.19
1608,18.13
1620,16.94
1632,15.51
1644,13.69
1656,11.45
1668,8.9
1680,6.28
1692,3.79
1704,1.45
1715,-0.91
1726,-3.53
1738,-6.58
1750,-10.09
1762,-13.91
1774,-17.75
1786,-21.27
1798,-23.95
1810,-25.24
1822,-24.56
1834,-21.59
1846,-16.41
1858,-9.62
1870,-2.15
1882,5.08
1894,11.34
1905,16.27
1916,19.84
1928,22.07
1940,23.05
1952,22.86
1964,21.68
1976,19.84
1988,17.83
2000,16.12
2012,15.06
2024,14.78
2036,15.2
2048,16.09
2060,17.16
2072,18.12
2084,18.72
2095,18.82
2106,18.4
2118,17.58
2130,16.5
2142,15.25
2154,13.81
2166,12.13
2178,10.18
2190,7.99
2202,5.7
2214,3.46
2226,1.43
2238,-0.34
2250,-1.86
2262,-3.17
2274,-4.33
2285,-5.45
2296,-6.68
2308,-8.2
2320,-10.16
2332,-12.59
2344,-15.39
2356,-18.25
2368,-20.71
2380,-22.18
2392,-22.09
2404,-20.04
2416,-15.97
2428,-10.25
2440,-3.65
2452,2.89
2464,8.54
2475,12.74
2486,15.33
2498,16.41
2510,16.21
2522,14.99
2534,13.0
2546,10.57
2558,8.17
2570,6.3
2582,5.32
2594,5.29
2606,5.95
2618,6.8
2630,7.33
2642,7.24
2654,6.52
2665,5.38
2676,4.09
2688,2.83
2700,1.58
2712,0.18
2724,-1.62
2736,-3.98
2748,-6.89
2760,-10.21
2772,-13.65
2784,-16.9
2796,-19.73
2808,-22.08
2820,-24.08
2832,-26.0
2844,-28.17
2855,-30.84
2866,-34.11
2878,-37.86
2890,-41.75
2902,-45.2
2914,-47.46
2926,-47.73
2938,-45.33
2950,-39.98
2962,-31.9
2974,-21.89
2986,-11.15
2998,-0.99
3010,7.48
3022,13.57
3034,17.07
3045,18.17
3056,17.32
3068,15.13
3080,12.26
3092,9.32
3104,6.82
3116,5.13
3128,4.44
3140,4.74
3152,5.88
3164,7.59
3176,9.55
3188,11.47
3200,13.08
3212,14.25
3224,14.95
3235,15.22
3246,15.1
3258,14.53
3270,13.45
3282,11.88
3294,9.98
3306,8.08
3318,6.53
3330,5.53
3342,4.97
3354,4.46
3366,3.54
3378,1.92
3390,-0.43
3402,-3.26
3414,-6.2
3425,-8.91
3436,-11.04
3448,-12.28
3460,-12.24
3472,-10.53
3484,-6.99
3496,-1.77
3508,4.61
3520,11.32
3532,17.59
3544,22.79
3556,26.6
3568,28.9
3580,29.71
3592,29.13
3604,27.37
3615,24.81
3626,22.0
3638,19.53
3650,17.87
3662,17.19
3674,17.32
3686,17.79
3698,18.1
3710,17.85
3722,16.93
3734,15.47
3746,13.75
3758,12.03
3770,10.44
3782,8.92
3794,7.34
3805,5.54
3816,3.47
3828,1.15
3840,-1.34
3852,-3.9
3864,-6.46
3876,-8.93
3888,-11.17
3900,-13.08
3912,-14.63
3924,-15.94
3936,-17.25
3948,-18.83
3960,-20.71
3972,-22.6
3984,-23.82
3995,-23.57
4006,-21.25
4018,-16.73
4030,-10.45
4042,-3.31
4054,3.63
4066,9.49
4078,13.75
4090,16.32
4102,17.33
4114,17.11
4126,15.97
4138,14.23
4150,12.17
4162,10.09
4174,8.25
4185,6.85
4196,5.94
4208,5.47
4220,5.25
4232,5.12
4244,4.97
4256,4.77
4268,4.54
4280,4.29
4292,3.97
4304,3.49
4316,2.79
4328,1.82
4340,0.59
4352,-0.87
4364,-2.55
4375,-4.4
4386,-6.33
4398,-8.14
4410,-9.57
4422,-10.5
4434,-10.96
4446,-11.23
4458,-11.67
4470,-12.57
4482,-13.93
4494,-15.45
4506,-16.62
4518,-16.87
4530,-15.8
4542,-13.23
4554,-9.31
4565,-4.45
4576,0.8
4588,5.82
4600,10.11
4612,13.32
4624,15.32
4636,16.1
4648,15.82
4660,14.67
4672,12.97
4684,11.06
4696,9.3
4708,7.99
4720,7.24
4732,7.03
4744,7.16
4755,7.42
4766,7.66
4778,7.8
4790,7.81
4802,7.64
4814,7.23
4826,6.43
4838,5.19
4850,3.49
4862,1.4
4874,-0.95
4886,-3.44
4898,-5.93
4910,-8.27
4922,-10.24
4934,-11.68
4945,-12.52
4956,-12.92
4968,-13.22
4980,-13.81
4992,-14.98
5004,-16.67
5016,-18.45
5028,-19.58
5040,-19.33
5052,-17.24
5064,-13.27
5076,-7.87
5088,-1.81
5100,4.07
5112,9.05
5124,12.71
5135,14.91
5146,15.75
5158,15.51
5170,14.51
5182,13.04
5194,11.4
5206,9.86
5218,8.62
5230,7.82
5242,7.51
5254,7.58
5266,7.83
5278,8.04
5290,7.99
5302,7.56
5314,6.73
5325,5.52
5336,3.98
5348,2.18
5360,0.23
5372,-1.79
5384,-3.8
5396,-5.75
5408,-7.68
5420,-9.62
5432,-11.62
5444,-13.7
5456,-15.85
5468,-18.07
5480,-20.38
5492,-22.69
5504,-24.78
5515,-26.2
5526,-26.38
5538,-24.79
5550,-21.21
5562,-15.86
5574,-9.41
5586,-2.76
5598,3.25
5610,8.0
5622,11.21
5634,12.86
5646,13.1
5658,12.16
5670,10.27
5682,7.78
5694,5.08
5705,2.64
5716,0.84
5728,-0.11
5740,-0.26
5752,0.13
5764,0.71
5776,1.19
5788,1.41
5800,1.33
5812,1.02
5824,0.49
5836,-0.27
5848,-1.34
5860,-2.75
5872,-4.53
5884,-6.6
5895,-8.81
5906,-11.03
5918,-13.14
5930,-15.08
5942,-16.9
5954,-18.68
5966,-20.5
5978,-22.37
5990,-24.18
6002,-25.62
6014,-26.3
6026,-25.78
6038,-23.71
6050,-19.97
6062,-14.67
6074,-8.22
6085,-1.24
6096,5.52
6108,11.35
6120,15.74
6132,18.42
6144,19.44
6156,19.14
6168,17.93
6180,16.28
6192,14.59
6204,13.19
6216,12.3
6228,12.1
6240,12.58
6252,13.61
6264,14.88
6275,15.99
6286,16.67
6298,16.81
6310,16.49
6322,15.93
6334,15.31
6346,14.62
6358,13.74
6370,12.44
6382,10.61
6394,8.32
6406,5.85
6418,3.5
6430,1.47
6442,-0.34
6454,-2.27
6465,-4.74
6476,-8.01
6488,-12.09
6500,-16.65
6512,-21.17
6524,-25.06
6536,-27.75
6548,-28.74
6560,-27.67
6572,-24.38
6584,-19.06
6596,-12.24
6608,-4.71
6620,2.64
6632,9.14
6644,14.35
6655,18.14
6666,20.54
6678,21.63
6690,21.46
6702,20.22
6714,18.16
6726,15.72
6738,13.35
6750,11.46
6762,10.27
6774,9.82
6786,10.0
6798,10.61
6810,11.49
6822,12.55
6834,13.78
6845,15.23
6856,16.93
6868,18.87
6880,20.93
6892,22.91
6904,24.6
6916,25.86
6928,26.7
6940,27.29
6952,27.96
6964,29.12
6976,31.12
6988,34.15
7000,38.12
7012,42.65
7024,47.24
7035,51.44
7046,55.13
7058,58.57
7070,62.43
7082,67.49
7094,74.42
7106,83.44
7118,94.24
7130,106.08
7142,118.07
7154,129.59
7166,140.4
7178,151.02
7190,162.64
7202,176.58
7214,193.54
7225,213.03
7236,233.28
7248,251.34
7260,263.7
7272,266.87
7284,258.68
7296,238.97
7308,209.65
7320,173.89
7332,135.12
7344,96.08
7356,58.23
7368,21.78
7380,-14.52
7392,-51.74
7404,-89.85
7415,-127.74
7426,-163.71
7438,-195.99
7450,-222.97
7462,-243.38
7474,-256.47
7486,-263.81
7498,-266.76
7510,-265.47
7522,-259.38
7534,-248.41
7546,-233.52
7558,-216.24
7570,-198.26
7582,-180.96
7594,-168.54
7605,-162.72
7616,-161.2
7628,-159.38
7640,-153.81
7652,-143.82
7664,-130.93
7676,-117.74
7688,-106.94
7700,-106.11
7712,-119.27
7724,-144.26
7736,-174.9
7748,-205.74
7760,-233.85
7772,-258.0
7784,-277.67
7795,-292.95
7806,-311.75
7818,-339.19
7830,-373.67
7842,-408.69
7854,-438.23
7866,-459.15
7878,-470.44
7890,-472.48
7902,-421.8
7914,-305.58
7926,-150.64
7938,-2.13
7950,112.2
7962,189.05
7974,237.23
7985,266.97
7996,285.65
8008,297.24
8020,296.48
8032,280.82
8044,254.63
8056,227.09
8068,205.77
8080,193.74
8092,190.55
8104,193.87
8116,200.61
8128,201.94
8140,192.44
8152,172.45
8164,147.0
8175,121.21
8186,98.31
8198,80.28
8210,68.53
8222,64.1
8234,63.98
8246,67.18
8258,72.55
8270,79.59
8282,86.74
8294,91.64
8306,92.54
8318,89.41
8330,83.68
8342,75.52
8354,65.1
8365,52.65
8376,38.85
8388,24.32
8400,9.94
8412,-2.94
8424,-13.07
8436,-20.26
8448,-26.1
8460,-32.73
8472,-41.75
8484,-53.05
8496,-65.09
8508,-75.54
8520,-82.48
8532,-85.22
8544,-84.65
8555,-82.64
8566,-81.15
8578,-81.41
8590,-83.23
8602,-85.31
8614,-85.81
8626,-83.44
8638,-78.05
8650,-70.61
8662,-62.7
8674,-55.77
8686,-50.59
8698,-46.7
8710,-44.4
8722,-43.2
8734,-42.5
8745,-41.76
8756,-40.57
8768,-38.57
8780,-35.48
8792,-31.13
8804,-25.57
8816,-19.07
8828,-11.86
8840,-4.25
8852,3.58
8864,11.59
8876,19.88
8888,28.53
8900,37.44
8912,46.22
8924,54.28
8935,61.13
8946,66.4
8958,70.04
8970,72.33
8982,73.79
8994,74.96
9006,76.07
9018,76.98
9030,77.22
9042,76.38
9054,74.19
9066,70.66
9078,66.03
9090,60.74
9102,55.37
9114,50.59
9125,47.11
9136,45.53
9148,46.26
9160,49.3
9172,54.35
9184,60.91
9196,68.64
9208,77.5
9220,87.77
9232,99.68
9244,113.21
9256,127.79
9268,142.52
9280,156.48
9292,169.26
9304,181.29
9315,193.7
9326,207.72
9338,223.75
9350,240.59
9362,255.27
9374,263.64
9386,261.71
9398,247.03
9410,219.49
9422,181.19
9434,135.66
9446,86.72
9458,37.83
9470,-8.22
9482,-49.12
9494,-83.11
9505,-109.12
9516,-127.28
9528,-139.05
9540,-147.03
9552,-154.2
9564,-163.16
9576,-175.51
9588,-191.85
9600,-212.04
9612,-235.71
9624,-262.29
9636,-291.01
9648,-320.6
9660,-349.13
9672,-374.08
9684,-392.59
9695,-401.88
9706,-399.86
9718,-385.58
9730,-359.4
9742,-322.95
9754,-278.75
9766,-229.7
9778,-178.75
9790,-128.62
9802,-81.69
9814,-39.85
9826,-4.34
9838,24.5
9850,47.18
9862,64.82
9874,78.62
9885,89.5
9896,97.87
9908,103.79
9920,107.34
9932,108.88
9944,109.11
9956,108.8
9968,108.48
9980,108.22
9992,107.69
10004,106.35
10016,103.85
10028,100.18
10040,95.86
10052,91.71
10064,88.6
10075,87.14
10086,87.49
10098,89.24
10110,91.71
10122,94.19
10134,96.29
10146,98.05
10158,99.9
10170,102.37
10182,105.76
10194,110.03
10206,114.8
10218,119.44
10230,123.08
10242,124.72
10254,123.41
10265,118.68
10276,110.65
10288,100.07
10300,88.09
10312,75.87
10324,64.13
10336,52.95
10348,41.94
10360,30.64
10372,19.25
10384,8.81
10396,1.09
10408,-1.85
10420,1.8
10432,12.66
10444,29.46
10455,48.74
10466,65.54
10478,75.39
10490,75.41
10502,65.13
10514,46.6
10526,23.87
10538,1.57
10550,-16.51
10562,-28.35
10574,-33.55
10586,-31.6
10598,-22.61
10610,-7.91
10622,9.73
10634,26.81
10645,39.99
10656,46.68
10668,45.58
10680,37.07
10692,24.74
10704,12.6
10716,2.72
10728,-5.5
10740,-14.05
10752,-24.64
10764,-37.72
10776,-52.13
10788,-65.28
10800,-71.61
10812,-66.26
10824,-47.7
10835,-18.14
10846,18.47
10858,58.31
10870,98.21
10882,135.43
10894,153.13
10906,139.91
10918,98.19
10930,43.13
10942,-9.58
10954,-51.42
10966,-80.59
10978,-99.25
10990,-111.29
11002,-120.53
11014,-127.13
11025,-129.74
11036,-127.84
11048,-122.48
11060,-115.42
11072,-108.17
11084,-101.84
11096,-97.18
11108,-94.36
11120,-91.25
11132,-85.63
11144,-76.96
11156,-66.82
11168,-57.65
11180,-51.75
11192,-50.38
11204,-53.49
11215,-59.6
11226,-65.12
11238,-66.31
11250,-61.01
11262,-49.28
11274,-32.58
11286,-12.7
11298,8.84
11310,30.62
11322,50.75
11334,66.96
11346,76.41
11358,76.74
11370,67.82
11382,53.1
11394,38.92
11405,31.9
11416,35.64
11428,48.96
11440,66.83
11452,82.98
11464,92.95
11476,95.75
11488,93.44
11500,89.02
11512,84.3
11524,79.08
11536,71.97
11548,61.93
11560,49.41
11572,36.24
11584,24.59
11595,15.9
11606,10.2
11618,6.32
11630,2.62
11642,-2.14
11654,-8.26
11666,-15.15
11678,-21.75
11690,-27.06
11702,-30.74
11714,-33.2
11726,-35.41
11738,-38.41
11750,-42.78
11762,-48.33
11774,-54.18
11785,-59.17
11796,-62.26
11808,-63.04
11820,-61.7
11832,-58.92
11844,-55.46
11856,-51.82
11868,-48.18
11880,-44.49
11892,-40.67
11904,-36.84
11916,-33.34
11928,-30.66
11940,-29.17
11952,-29.02
11964,-30.04
11975,-31.78
11986,-33.7
11998,-35.31
12010,-36.3
12022,-36.63
12034,-36.44
12046,-36.0
12058,-35.53
12070,-35.12
12082,-34.68
12094,-34.04
12106,-33.04
12118,-31.68
12130,-30.2
12142,-29.04
12154,-28.67
12165,-29.38
12176,-31.15
12188,-33.6
12200,-36.13
12212,-38.18
12224,-39.34
12236,-39.5
12248,-38.79
12260,-37.5
12272,-35.98
12284,-34.6
12296,-33.67
12308,-33.38
12320,-33.66
12332,-34.13
12344,-34.07
12355,-32.61
12366,-29.03
12378,-22.99
12390,-14.73
12402,-5.03
12414,5.06
12426,14.43
12438,22.23
12450,27.95
12462,31.41
12474,32.7
12486,32.09
12498,30.02
12510,27.08
12522,23.97
12534,21.4
12545,19.9
12556,19.67
12568,20.5
12580,21.91
12592,23.35
12604,24.44
12616,25.07
12628,25.34
12640,25.35
12652,25.07
12664,24.34
12676,22.94
12688,20.81
12700,18.08
12712,15.06
12724,12.1
12735,9.42
12746,7.1
12758,5.02
12770,2.97
12782,0.67
12794,-2.09
12806,-5.46
12818,-9.36
12830,-13.49
12842,-17.27
12854,-20.05
12866,-21.23
12878,-20.52
12890,-17.96
12902,-13.92
12914,-8.97
12925,-3.67
12936,1.52
12948,6.27
12960,10.33
12972,13.53
12984,15.73
12996,16.87
13008,17.07
13020,16.56
13032,15.74
13044,15.0
13056,14.58
13068,14.58
13080,14.89
13092,15.31
13104,15.68
13115,15.91
13126,15.95
13138,15.76
13150,15.27
13162,14.42
13174,13.15
13186,11.47
13198,9.46
13210,7.23
13222,4.88
13234,2.47
13246,0.01
13258,-2.51
13270,-5.06
13282,-7.64
13294,-10.27
13305,-12.97
13316,-15.75
13328,-18.51
13340,-21.0
13352,-22.82
13364,-23.51
13376,-22.69
13388,-20.13
13400,-15.91
13412,-10.33
13424,-3.89
13436,2.85
13448,9.29
13460,14.96
13472,19.49
13484,22.68
13495,24.5
13506,25.09
13518,24.7
13530,23.62
13542,22.14
13554,20.53
13566,18.99
13578,17.72
13590,16.84
13602,16.41
13614,16.38
13626,16.6
13638,16.82
13650,16.72
13662,16.0
13674,14.5
13685,12.25
13696,9.46
13708,6.47
13720,3.58
13732,0.98
13744,-1.31
13756,-3.43
13768,-5.59
13780,-8.01
13792,-10.82
13804,-14.05
13816,-17.56
13828,-21.08
13840,-24.12
13852,-26.09
13864,-26.35
13875,-24.42
13886,-20.19
13898,-13.95
13910,-6.37
13922,1.7
13934,9.47
13946,16.3
13958,21.86
13970,26.0
13982,28.73
13994,30.14
14006,30.34
14018,29.58
14030,28.19
14042,26.57
14054,25.1
14065,24.03
14076,23.38
14088,22.99
14100,22.67
14112,22.26
14124,21.72
14136,21.13
14148,20.53
14160,19.92
14172,19.11
14184,17.88
14196,16.04
14208,13.52
14220,10.47
14232,7.14
14244,3.83
14255,0.74
14266,-2.03
14278,-4.57
14290,-7.07
14302,-9.78
14314,-12.97
14326,-16.71
14338,-20.84
14350,-24.93
14362,-28.27
14374,-30.1
14386,-29.77
14398,-26.97
14410,-21.84
14422,-14.98
14434,-7.25
14445,0.48
14456,7.53
14468,13.49
14480,18.2
14492,21.68
14504,23.95
14516,25.08
14528,25.13
14540,24.27
14552,22.78
14564,21.0
14576,19.29
14588,17.88
14600,16.91
14612,16.35
14624,16.15
14635,16.21
14646,16.42
14658,16.69
14670,16.88
14682,16.85
14694,16.52
14706,15.81
14718,14.73
14730,13.25
14742,11.34
14754,8.97
14766,6.08
14778,2.74
14790,-0.9
14802,-4.57
14814,-7.99
14825,-11.01
14836,-13.66
14848,-16.14
14860,-18.71
14872,-21.56
14884,-24.73
14896,-28.05
14908,-31.16
14920,-33.61
14932,-34.88
14944,-34.5
14956,-32.17
14968,-27.84
14980,-21.8
14992,-14.59
15004,-6.93
15015,0.49
15026,7.13
15038,12.74
15050,17.22
15062,20.59
15074,22.86
15086,24.05
15098,24.17
15110,23.42
15122,22.05
15134,20.46
15146,18.97
15158,17.82
15170,17.08
15182,16.68
15194,16.53
15205,16.56
15216,16.71
15228,16.93
15240,17.1
15252,17.09
15264,16.71
15276,15.87
15288,14.52
15300,12.76
15312,10.78
15324,8.76
15336,6.84
15348,5.06
15360,3.35
15372,1.6
15384,-0.31
15395,-2.46
15406,-4.83
15418,-7.35
15430,-9.91
15442,-12.4
15454,-14.77
15466,-17.04
15478,-19.31
15490,-21.77
15502,-24.59
15514,-27.76
15526,-31.02
15538,-33.79
15550,-35.29
15562,-34.81
15574,-31.95
15585,-26.83
15596,-20.01
15608,-12.33
15620,-4.61
15632,2.54
15644,8.77
15656,13.91
15668,17.88
15680,20.64
15692,22.14
15704,22.47
15716,21.82
15728,20.52
15740,18.93
15752,17.42
15764,16.25
15775,15.56
15786,15.38
15798,15.64
15810,16.2
15822,16.89
15834,17.58
15846,18.13
15858,18.46
15870,18.48
15882,18.08
15894,17.18
15906,15.73
15918,13.79
15930,11.47
15942,8.96
15954,6.41
15965,3.89
15976,1.42
15988,-1.05
16000,-3.54
16012,-6.01
16024,-8.38
16036,-10.54
16048,-12.4
16060,-14.01
16072,-15.53
16084,-17.17
16096,-19.17
16108,-21.69
16120,-24.71
16132,-28.05
16144,-31.33
16155,-34.05
16166,-35.64
16178,-35.55
16190,-33.45
16202,-29.22
16214,-23.15
16226,-15.77
16238,-7.84
16250,-0.1
16262,6.77
16274,12.34
16286,16.43
16298,19.02
16310,20.27
16322,20.41
16334,19.72
16345,18.52
16356,17.13
16368,15.86
16380,14.91
16392,14.39
16404,14.31
16416,14.58
16428,15.07
16440,15.67
16452,16.33
16464,16.99
16476,17.58
16488,17.94
16500,17.88
16512,17.21
16524,15.84
16535,13.88
16546,11.56
16558,9.2
16570,7.03
16582,5.13
16594,3.42
16606,1.76
16618,-0.02
16630,-2.0
16642,-4.15
16654,-6.42
16666,-8.71
16678,-10.93
16690,-12.96
16702,-14.71
16714,-16.18
16725,-17.47
16736,-18.81
16748,-20.45
16760,-22.57
16772,-25.12
16784,-27.78
16796,-29.95
16808,-30.97
16820,-30.29
16832,-27.66
16844,-23.22
16856,-17.4
16868,-10.84
16880,-4.14
16892,2.16
16904,7.73
16915,12.35
16926,15.88
16938,18.23
16950,19.37
16962,19.34
16974,18.35
16986,16.72
16998,14.89
17010,13.25
17022,12.11
17034,11.55
17046,11.47
17058,11.66
17070,11.93
17082,12.17
17094,12.38
17105,12.6
17116,12.78
17128,12.79
17140,12.4
17152,11.47
17164,9.95
17176,7.96
17188,5.72
17200,3.45
17212,1.31
17224,-0.7
17236,-2.63
17248,-4.58
17260,-6.59
17272,-8.59
17284,-10.49
17295,-12.15
17306,-13.53
17318,-14.72
17330,-15.9
17342,-17.33
17354,-19.21
17366,-21.57
17378,-24.14
17390,-26.44
17402,-27.84
17414,-27.73
17426,-25.71
17438,-21.7
17450,-16.02
17462,-9.25
17474,-2.18
17485,4.46
17496,10.08
17508,14.34
17520,17.13
17532,18.47
17544,18.54
17556,17.56
17568,15.83
17580,13.68
17592,11.47
17604,9.53
17616,8.14
17628,7.44
17640,7.37
17652,7.77
17664,8.36
17675,8.86
17686,9.16
17698,9.22
17710,9.14
17722,9.01
17734,8.81
17746,8.44
17758,7.74
17770,6.57
17782,4.91
17794,2.88
17806,0.64
17818,-1.62
17830,-3.76
17842,-5.76
17854,-7.63
17865,-9.41
17876,-11.09
17888,-12.67
17900,-14.17
17912,-15.69
17924,-17.39
17936,-19.42
17948,-21.83
17960,-24.42
17972,-26.78
17984,-28.34
17996,-28.51
18008,-26.87
18020,-23.31
18032,-18.08
18044,-11.73
18055,-4.95
18066,1.53
18078,7.14
18090,11.52
18102,14.56
18114,16.32
18126,16.99
18138,16.8
18150,15.93
18162,14.59
18174,12.97
18186,11.31
18198,9.84
18210,8.8
18222,8.29
18234,8.29
18245,8.65
18256,9.13
18268,9.54
18280,9.73
18292,9.66
18304,9.34
18316,8.81
18328,8.07
18340,7.11
18352,5.88
18364,4.35
18376,2.51
18388,0.42
18400,-1.83
18412,-4.09
18424,-6.18
18435,-8.01
18446,-9.55
18458,-10.96
18470,-12.44
18482,-14.22
18494,-16.42
18506,-19.03
18518,-21.88
18530,-24.71
18542,-27.17
18554,-28.86
18566,-29.39
18578,-28.39
18590,-25.66
18602,-21.25
18614,-15.48
18625,-8.94
18636,-2.3
18648,3.84
18660,9.01
18672,12.98
18684,15.67
18696,17.13
18708,17.46
18720,16.78
18732,15.3
18744,13.26
18756,10.99
18768,8.83
18780,7.09
18792,6.03
18804,5.74
18815,6.18
18826,7.14
18838,8.3
18850,9.32
18862,9.92
18874,9.95
18886,9.46
18898,8.58
18910,7.52
18922,6.4
18934,5.19
18946,3.81
18958,2.14
18970,0.15
18982,-2.05
18994,-4.3
19005,-6.45
19016,-8.43
19028,-10.28
19040,-12.14
19052,-14.12
19064,-16.3
19076,-18.66
19088,-21.1
19100,-23.46
19112,-25.48
19124,-26.81
19136,-27.03
19148,-25.74
19160,-22.72
19172,-18.09
19184,-12.27
19195,-5.92
19206,0.26
19218,5.71
19230,10.09
19242,13.29
19254,15.32
19266,16.24
19278,16.12
19290,15.1
19302,13.37
19314,11.24
19326,9.06
19338,7.17
19350,5.83
19362,5.16
19374,5.13
19385,5.59
19396,6.29
19408,7.01
19420,7.57
19432,7.9
19444,8.02
19456,7.94
19468,7.62
19480,6.95
19492,5.77
19504,3.99
19516,1.69
19528,-0.91
19540,-3.51
19552,-5.86
19564,-7.8
19575,-9.36
19586,-10.67
19598,-11.9
19610,-13.26
19622,-14.93
19634,-17.01
19646,-19.44
19658,-22.01
19670,-24.29
19682,-25.73
19694,-25.82
19706,-24.22
19718,-20.86
19730,-16.01
19742,-10.18
19754,-3.99
19765,1.94
19776,7.15
19788,11.32
19800,14.27
19812,15.98
19824,16.46
19836,15.86
19848,14.41
19860,12.45
19872,10.39
19884,8.6
19896,7.33
19908,6.64
19920,6.43
19932,6.5
19944,6.68
19955,6.86
19966,6.99
19978,7.1
19990,7.16
20002,7.1
20014,6.78
20026,6.05
20038,4.83
20050,3.15
20062,1.14
20074,-1.0
20086,-3.07
20098,-4.95
20110,-6.61
20122,-8.13
20134,-9.61
20145,-11.17
20156,-12.91
20168,-14.88
20180,-17.09
20192,-19.45
20204,-21.75
20216,-23.68
20228,-24.84
20240,-24.85
20252,-23.42
20264,-20.43
20276,-15.99
20288,-10.45
20300,-4.31
20312,1.82
20324,7.38
20335,11.89
20346,15.05
20358,16.72
20370,16.9
20382,15.78
20394,13.67
20406,11.02
20418,8.37
20430,6.19
20442,4.84
20454,4.41
20466,4.78
20478,5.64
20490,6.66
20502,7.57
20514,8.24
20525,8.68
20536,8.9
20548,8.91
20560,8.65
20572,8.02
20584,6.94
20596,5.44
20608,3.62
20620,1.68
20632,-0.2
20644,-1.89
20656,-3.34
20668,-4.63
20680,-5.9
20692,-7.28
20704,-8.92
20715,-10.91
20726,-13.23
20738,-15.73
20750,-18.06
20762,-19.75
20774,-20.29
20786,-19.33
20798,-16.78
20810,-12.86
20822,-8.03
20834,-2.81
20846,2.29
20858,6.94
20870,10.85
20882,13.78
20894,15.5
20905,15.87
20916,14.94
20928,12.99
20940,10.48
20952,7.94
20964,5.77
20976,4.15
20988,3.09
