seconds,BVP
3,-27.53
15,-31.74
27,-35.42
39,-38.49
51,-41.09
63,-43.59
75,-46.46
87,-50.13
98,-54.9
109,-60.73
121,-67.04
133,-72.74
145,-76.29
157,-76.16
169,-71.27
181,-61.46
193,-47.59
205,-31.33
217,-14.62
229,0.81
241,13.84
253,23.96
265,31.17
277,35.75
288,38.08
299,38.61
311,37.83
323,36.23
335,34.3
347,32.37
359,30.64
371,29.18
383,28.0
395,27.15
407,26.73
419,26.89
431,27.77
443,29.4
455,31.62
467,34.14
478,36.56
489,38.43
501,39.44
513,39.39
525,38.27
537,36.18
549,33.32
561,29.99
573,26.51
585,23.19
597,20.26
609,17.72
621,15.41
633,13.08
645,10.51
657,7.64
668,4.62
679,1.72
691,-0.83
703,-2.99
715,-4.92
727,-6.95
739,-9.41
751,-12.49
763,-16.14
775,-20.12
787,-24.1
799,-27.84
811,-31.22
823,-34.29
835,-37.21
847,-40.27
858,-43.8
869,-48.13
881,-53.39
893,-59.29
905,-64.98
917,-69.06
929,-69.91
941,-66.24
953,-57.61
965,-44.68
977,-29.02
989,-12.6
1001,2.72
1013,15.7
1025,25.76
1037,32.89
1048,37.39
1059,39.7
1071,40.28
1083,39.56
1095,37.93
1107,35.8
1119,33.48
1131,31.2
1143,29.12
1155,27.36
1167,26.05
1179,25.36
1191,25.41
1203,26.26
1215,27.85
1227,29.96
1238,32.27
1249,34.39
1261,35.99
1273,36.85
1285,36.82
1297,35.92
1309,34.23
1321,31.93
1333,29.26
1345,26.46
1357,23.64
1369,20.89
1381,18.16
1393,15.42
1405,12.67
1417,9.99
1428,7.48
1439,5.27
1451,3.41
1463,1.88
1475,0.56
1487,-0.75
1499,-2.25
1511,-4.03
1523,-6.1
1535,-8.33
1547,-10.56
1559,-12.62
1571,-14.53
1583,-16.49
1595,-18.78
1607,-21.67
1618,-25.21
1629,-29.19
1641,-33.25
1653,-37.04
1665,-40.35
1677,-43.23
1689,-45.98
1701,-49.02
1713,-52.78
1725,-57.51
1737,-63.23
1749,-69.47
1761,-75.28
1773,-79.21
1785,-79.75
1797,-75.68
1808,-66.63
1819,-53.23
1831,-36.96
1843,-19.79
1855,-3.55
1867,10.43
1879,21.54
1891,29.68
1903,35.17
1915,38.4
1927,39.85
1939,39.98
1951,39.27
1963,38.18
1975,37.05
1987,36.04
1998,35.15
2009,34.28
2021,33.35
2033,32.4
2045,31.62
2057,31.29
2069,31.6
2081,32.62
2093,34.17
2105,35.94
2117,37.51
2129,38.55
2141,38.84
2153,38.32
2165,37.05
2177,35.22
2188,33.04
2199,30.69
2211,28.31
2223,26.03
2235,23.89
2247,21.95
2259,20.23
2271,18.71
2283,17.35
2295,16.03
2307,14.65
2319,13.09
2331,11.33
2343,9.39
2355,7.36
2367,5.36
2378,3.53
2389,1.95
2401,0.63
2413,-0.55
2425,-1.76
2437,-3.2
2449,-5.01
2461,-7.21
2473,-9.69
2485,-12.29
2497,-14.96
2509,-17.69
2521,-20.6
2533,-23.77
2545,-27.17
2557,-30.69
2568,-34.13
2579,-37.38
2591,-40.38
2603,-43.2
2615,-45.95
2627,-48.8
2639,-51.95
2651,-55.62
2663,-60.01
2675,-65.09
2687,-70.42
2699,-74.97
2711,-77.3
2723,-75.9
2735,-69.75
2747,-58.78
2758,-43.93
2769,-26.98
2781,-9.93
2793,5.52
2805,18.33
2817,28.11
2829,34.97
2841,39.22
2853,41.22
2865,41.34
2877,39.99
2889,37.69
2901,34.96
2913,32.32
2925,30.1
2937,28.45
2948,27.34
2959,26.66
2971,26.29
2983,26.18
2995,26.36
3007,26.93
3019,27.95
3031,29.38
3043,31.06
3055,32.64
3067,33.73
3079,33.94
3091,33.09
3103,31.22
3115,28.57
3127,25.5
3138,22.35
3149,19.36
3161,16.61
3173,14.05
3185,11.58
3197,9.13
3209,6.64
3221,4.14
3233,1.65
3245,-0.76
3257,-3.05
3269,-5.15
3281,-7.06
3293,-8.8
3305,-10.47
3317,-12.24
3328,-14.29
3339,-16.76
3351,-19.68
3363,-22.92
3375,-26.28
3387,-29.49
3399,-32.37
3411,-34.91
3423,-37.29
3435,-39.84
3447,-42.96
3459,-46.9
3471,-51.56
3483,-56.39
3495,-60.37
3507,-62.25
3518,-60.81
3529,-55.33
3541,-45.83
3553,-33.13
3565,-18.66
3577,-4.06
3589,9.23
3601,20.25
3613,28.56
3625,34.16
3637,37.34
3649,38.49
3661,38.0
3673,36.23
3685,33.55
3697,30.33
3708,26.95
3719,23.75
3731,20.99
3743,18.85
3755,17.41
3767,16.66
3779,16.55
3791,16.96
3803,17.72
3815,18.62
3827,19.31
3839,19.45
3851,18.72
3863,16.91
3875,14.07
3887,10.51
3898,6.71
3909,3.26
3921,0.62
3933,-0.91
3945,-1.28
3957,-0.71
3969,0.44
3981,1.72
3993,2.74
4005,3.22
4017,3.02
4029,2.2
4041,0.95
4053,-0.52
4065,-2.0
4077,-3.4
4088,-4.71
4099,-6.04
4111,-7.5
4123,-9.2
4135,-11.12
4147,-13.19
4159,-15.24
4171,-17.11
4183,-18.73
4195,-20.2
4207,-21.82
4219,-24.02
4231,-27.29
4243,-31.94
4255,-37.9
4267,-44.55
4278,-50.69
4289,-54.85
4301,-55.59
4313,-52.05
4325,-44.2
4337,-32.9
4349,-19.67
4361,-6.2
4373,5.97
4385,15.85
4397,22.96
4409,27.29
4421,29.11
4433,28.82
4445,26.88
4457,23.76
4468,19.9
4479,15.75
4491,11.66
4503,7.96
4515,4.89
4527,2.63
4539,1.24
4551,0.73
4563,1.08
4575,2.25
4587,4.14
4599,6.68
4611,9.64
4623,12.75
4635,15.66
4647,18.04
4658,19.63
4669,20.4
4681,20.46
4693,20.12
4705,19.65
4717,19.24
4729,18.88
4741,18.44
4753,17.69
4765,16.47
4777,14.79
4789,12.8
4801,10.72
4813,8.78
4825,7.1
4837,5.65
4848,4.3
4859,2.86
4871,1.18
4883,-0.8
4895,-3.01
4907,-5.31
4919,-7.56
4931,-9.74
4943,-11.91
4955,-14.27
4967,-17.03
4979,-20.28
4991,-23.98
5003,-27.96
5015,-32.01
5027,-35.94
5038,-39.67
5049,-43.23
5061,-46.79
5073,-50.63
5085,-55.12
5097,-60.51
5109,-66.76
5121,-73.32
5133,-79.05
5145,-82.46
5157,-82.1
5169,-77.06
5181,-67.29
5193,-53.66
5205,-37.73
5217,-21.26
5228,-5.8
5239,7.59
5251,18.4
5263,26.58
5275,32.36
5287,36.17
5299,38.4
5311,39.48
5323,39.73
5335,39.41
5347,38.76
5359,37.99
5371,37.29
5383,36.8
5395,36.61
5407,36.77
5418,37.32
5429,38.34
5441,39.93
5453,42.15
5465,44.95
5477,48.12
5489,51.29
5501,54.04
5513,55.97
5525,56.77
5537,56.35
5549,54.72
5561,52.03
5573,48.48
5585,44.34
5597,39.84
5608,35.14
5619,30.39
5631,25.65
5643,20.94
5655,16.32
5667,11.83
5679,7.58
5691,3.66
5703,0.15
5715,-2.91
5727,-5.52
5739,-7.68
5751,-9.38
5763,-10.63
5775,-11.42
5787,-11.8
5798,-11.91
5809,-11.98
5821,-12.33
5833,-13.22
5845,-14.81
5857,-17.06
5869,-19.79
5881,-22.76
5893,-25.81
5905,-28.91
5917,-32.19
5929,-35.87
5941,-40.24
5953,-45.59
5965,-52.1
5977,-59.7
5988,-67.94
5999,-75.83
6011,-81.97
6023,-84.81
6035,-83.14
6047,-76.45
6059,-65.19
6071,-50.65
6083,-34.56
6095,-18.67
6107,-4.35
6119,7.57
6131,16.76
6143,23.29
6155,27.41
6167,29.49
6178,29.89
6189,29.04
6201,27.37
6213,25.36
6225,23.47
6237,22.08
6249,21.46
6261,21.63
6273,22.49
6285,23.85
6297,25.59
6309,27.71
6321,30.25
6333,33.21
6345,36.38
6357,39.39
6368,41.71
6379,42.92
6391,42.82
6403,41.52
6415,39.4
6427,36.89
6439,34.36
6451,31.96
6463,29.65
6475,27.27
6487,24.63
6499,21.63
6511,18.29
6523,14.74
6535,11.16
6547,7.76
6558,4.7
6569,2.03
6581,-0.28
6593,-2.43
6605,-4.74
6617,-7.49
6629,-10.9
6641,-15.0
6653,-19.56
6665,-24.24
6677,-28.67
6689,-32.67
6701,-36.32
6713,-39.95
6725,-44.06
6737,-49.04
6748,-54.99
6759,-61.48
6771,-67.56
6783,-71.93
6795,-73.26
6807,-70.58
6819,-63.53
6831,-52.53
6843,-38.64
6855,-23.29
6867,-7.98
6879,6.01
6891,17.81
6903,27.02
6915,33.62
6927,37.88
6938,40.22
6949,41.08
6961,40.89
6973,40.02
6985,38.83
6997,37.66
7009,36.77
7021,36.31
7033,36.31
7045,36.7
7057,37.41
7069,38.43
7081,39.79
7093,41.52
7105,43.53
7117,45.58
7128,47.32
7139,48.37
7151,48.52
7163,47.7
7175,46.04
7187,43.78
7199,41.12
7211,38.23
7223,35.2
7235,32.04
7247,28.72
7259,25.23
7271,21.58
7283,17.81
7295,14.0
7307,10.28
7318,6.73
7329,3.43
7341,0.36
7353,-2.49
7365,-5.19
7377,-7.76
7389,-10.27
7401,-12.8
7413,-15.4
7425,-18.11
7437,-20.89
7449,-23.63
7461,-26.15
7473,-28.27
7485,-29.86
7497,-30.89
7508,-31.46
7519,-31.85
7531,-32.43
7543,-33.7
7555,-36.2
7567,-40.32
7579,-46.14
7591,-53.15
7603,-60.2
7615,-65.69
7627,-67.94
7639,-65.77
7651,-58.94
7663,-48.23
7675,-35.21
7687,-21.79
7698,-9.6
7709,0.31
7721,7.55
7733,12.25
7745,14.75
7757,15.45
7769,14.68
7781,12.77
7793,10.08
7805,7.07
7817,4.16
7829,1.69
7841,-0.19
7853,-1.49
7865,-2.28
7877,-2.57
7888,-2.3
7899,-1.36
7911,0.27
7923,2.42
7935,4.71
7947,6.72
7959,8.08
7971,8.7
7983,8.63
7995,8.1
8007,7.26
8019,6.14
8031,4.64
8043,2.6
8055,-0.11
8067,-3.53
8078,-7.55
8089,-11.87
8101,-16.03
8113,-19.47
8125,-21.65
8137,-22.23
8149,-21.16
8161,-18.73
8173,-15.49
8185,-11.99
8197,-8.63
8209,-5.51
8221,-2.4
8233,1.05
8245,5.13
8257,9.86
8268,14.98
8279,19.95
8291,24.15
8303,27.05
8315,28.3
8327,27.83
8339,25.84
8351,22.73
8363,18.98
8375,15.02
8387,11.11
8399,7.18
8411,2.88
8423,-2.31
8435,-8.93
8447,-17.15
8458,-26.62
8469,-36.35
8481,-44.91
8493,-50.74
8505,-52.64
8517,-50.08
8529,-43.43
8541,-33.75
8553,-22.57
8565,-11.4
8577,-1.43
8589,6.64
8601,12.57
8613,16.45
8625,18.57
8637,19.27
8648,18.93
8659,17.96
8671,16.75
8683,15.72
8695,15.18
8707,15.41
8719,16.5
8731,18.46
8743,21.15
8755,24.43
8767,28.12
8779,32.07
8791,36.1
8803,39.98
8815,43.42
8827,46.03
8838,47.45
8849,47.5
8861,46.15
8873,43.64
8885,40.31
8897,36.48
8909,32.42
8921,28.27
8933,24.1
8945,19.94
8957,15.79
8969,11.65
8981,7.53
8993,3.46
9005,-0.44
9017,-4.01
9028,-7.08
9039,-9.54
9051,-11.49
9063,-13.23
9075,-15.15
9087,-17.59
9099,-20.71
9111,-24.35
9123,-28.19
9135,-31.82
9147,-34.89
9159,-37.27
9171,-39.02
9183,-40.43
9195,-41.93
9207,-44.01
9218,-47.03
9229,-51.08
9241,-55.7
9253,-59.93
9265,-62.36
9277,-61.56
9289,-56.51
9301,-47.03
9313,-33.82
9325,-18.33
9337,-2.36
9349,12.49
9361,25.06
9373,34.83
9385,41.81
9397,46.32
9408,48.81
9419,49.72
9431,49.49
9443,48.45
9455,46.95
9467,45.24
9479,43.49
9491,41.75
9503,40.01
9515,38.26
9527,36.61
9539,35.25
9551,34.46
9563,34.43
9575,35.14
9587,36.34
9598,37.59
9609,38.34
9621,38.16
9633,36.84
9645,34.43
9657,31.21
9669,27.52
9681,23.7
9693,19.93
9705,16.25
9717,12.63
9729,9.04
9741,5.49
9753,2.07
9765,-1.12
9777,-4.01
9788,-6.61
9799,-8.99
9811,-11.21
9823,-13.31
9835,-15.28
9847,-17.04
9859,-18.55
9871,-19.85
9883,-21.05
9895,-22.4
9907,-24.15
9919,-26.48
9931,-29.44
9943,-32.83
9955,-36.33
9967,-39.54
9978,-42.21
9989,-44.3
10001,-46.03
10013,-47.88
10025,-50.36
10037,-53.89
10049,-58.62
10061,-64.2
10073,-69.77
10085,-74.04
10097,-75.52
10109,-72.98
10121,-65.84
10133,-54.44
10145,-39.98
10157,-24.24
10168,-9.04
10179,4.21
10191,14.76
10203,22.5
10215,27.77
10227,31.08
10239,32.92
10251,33.64
10263,33.54
10275,32.86
10287,31.79
10299,30.54
10311,29.29
10323,28.21
10335,27.41
10347,27.04
10358,27.16
10369,27.8
10381,28.95
10393,30.46
10405,32.11
10417,33.59
10429,34.54
10441,34.64
10453,33.78
10465,32.01
10477,29.63
10489,27.04
10501,24.59
10513,22.48
10525,20.76
10537,19.26
10548,17.74
10559,16.01
10571,13.98
10583,11.73
10595,9.41
10607,7.21
10619,5.25
10631,3.54
10643,1.92
10655,0.22
10667,-1.74
10679,-4.01
10691,-6.55
10703,-9.17
10715,-11.64
10727,-13.73
10738,-15.33
10749,-16.45
10761,-17.28
10773,-18.11
10785,-19.23
10797,-20.85
10809,-23.02
10821,-25.59
10833,-28.32
10845,-30.92
10857,-33.21
10869,-35.21
10881,-37.14
10893,-39.37
10905,-42.32
10917,-46.23
10928,-50.94
10939,-55.8
10951,-59.65
10963,-61.12
10975,-59.01
10987,-52.67
10999,-42.35
11011,-29.07
11023,-14.41
11035,-0.04
11047,12.66
11059,22.82
11071,30.08
11083,34.54
11095,36.51
11107,36.44
11118,34.86
11129,32.27
11141,29.2
11153,26.08
11165,23.25
11177,20.87
11189,19.01
11201,17.66
11213,16.84
11225,16.6
11237,17.01
11249,18.1
11261,19.77
11273,21.77
11285,23.66
11297,24.98
11308,25.34
11319,24.57
11331,22.81
11343,20.41
11355,17.8
11367,15.34
11379,13.16
11391,11.16
11403,9.09
11415,6.72
11427,3.95
11439,0.9
11451,-2.22
11463,-5.18
11475,-7.86
11487,-10.21
11498,-12.31
11509,-14.27
11521,-16.19
11533,-18.22
11545,-20.46
11557,-22.97
11569,-25.76
11581,-28.72
11593,-31.73
11605,-34.68
11617,-37.55
11629,-40.53
11641,-43.88
11653,-47.92
11665,-52.81
11677,-58.36
11688,-63.93
11699,-68.41
11711,-70.47
11723,-68.88
11735,-62.95
11747,-52.8
11759,-39.36
11771,-24.16
11783,-8.91
11795,4.93
11807,16.37
11819,25.0
11831,30.85
11843,34.27
11855,35.73
11867,35.75
11878,34.8
11889,33.26
11901,31.45
11913,29.57
11925,27.79
11937,26.21
11949,24.92
11961,23.96
11973,23.37
11985,23.21
11997,23.53
12009,24.35
12021,25.64
12033,27.28
12045,29.0
12057,30.45
12068,31.25
12079,31.14
12091,30.02
12103,28.03
12115,25.47
12127,22.72
12139,20.1
12151,17.78
12163,15.75
12175,13.87
12187,11.94
12199,9.81
12211,7.39
12223,4.7
12235,1.84
12247,-1.03
12258,-3.75
12269,-6.23
12281,-8.45
12293,-10.55
12305,-12.72
12317,-15.23
12329,-18.23
12341,-21.81
12353,-25.81
12365,-29.93
12377,-33.83
12389,-37.22
12401,-40.04
12413,-42.48
12425,-45.02
12437,-48.22
12448,-52.52
12459,-57.98
12471,-64.1
12483,-69.76
12495,-73.46
12507,-73.66
12519,-69.31
12531,-60.17
12543,-47.0
12555,-31.33
12567,-15.03
12579,0.2
12591,13.16
12603,23.31
12615,30.63
12627,35.42
12638,38.11
12649,39.15
12661,38.99
12673,38.09
12685,36.81
12697,35.49
12709,34.29
12721,33.26
12733,32.38
12745,31.62
12757,31.04
12769,30.8
12781,31.08
12793,31.97
12805,33.47
12817,35.36
12828,37.29
12839,38.85
12851,39.72
12863,39.71
12875,38.83
12887,37.22
12899,35.07
12911,32.58
12923,29.89
12935,27.09
12947,24.24
12959,21.4
12971,18.65
12983,16.03
12995,13.62
13007,11.45
13018,9.51
13029,7.74
13041,6.03
13053,4.26
13065,2.33
13077,0.16
13089,-2.25
13101,-4.82
13113,-7.39
13125,-9.81
13137,-11.98
13149,-13.95
13161,-15.94
13173,-18.26
13185,-21.15
13197,-24.68
13208,-28.63
13219,-32.63
13231,-36.29
13243,-39.44
13255,-42.18
13267,-44.94
13279,-48.25
13291,-52.54
13303,-57.92
13315,-64.02
13327,-69.97
13339,-74.5
13351,-76.21
13363,-73.91
13375,-67.05
13387,-55.84
13398,-41.33
13409,-25.12
13421,-8.9
13433,5.83
13445,18.09
13457,27.43
13469,33.87
13481,37.68
13493,39.32
13505,39.31
13517,38.16
13529,36.36
13541,34.28
13553,32.22
13565,30.35
13577,28.78
13588,27.55
13599,26.75
13611,26.48
13623,26.82
13635,27.81
13647,29.4
13659,31.4
13671,33.52
13683,35.4
13695,36.66
13707,37.02
13719,36.31
13731,34.54
13743,31.91
13755,28.72
13767,25.34
13778,22.1
13789,19.22
13801,16.71
13813,14.44
13825,12.14
13837,9.57
13849,6.66
13861,3.52
13873,0.44
13885,-2.29
13897,-4.51
13909,-6.33
13921,-8.01
13933,-9.91
13945,-12.29
13957,-15.18
13968,-18.46
13979,-21.87
13991,-25.19
14003,-28.27
14015,-31.09
14027,-33.68
14039,-36.16
14051,-38.74
14063,-41.73
14075,-45.45
14087,-50.09
14099,-55.42
14111,-60.64
14123,-64.45
14135,-65.28
14147,-61.9
14158,-53.82
14169,-41.54
14181,-26.45
14193,-10.4
14205,4.83
14217,17.92
14229,28.21
14241,35.6
14253,40.38
14265,42.99
14277,43.85
14289,43.31
14301,41.66
14313,39.17
14325,36.2
14337,33.12
14348,30.32
14359,28.14
14371,26.73
14383,26.1
14395,26.12
14407,26.67
14419,27.63
14431,28.89
14443,30.36
14455,31.83
14467,33.02
14479,33.58
14491,33.25
14503,31.9
14515,29.64
14527,26.72
14538,23.49
14549,20.25
14561,17.17
14573,14.24
14585,11.34
14597,8.33
14609,5.11
14621,1.72
14633,-1.71
14645,-4.95
14657,-7.86
14669,-10.38
14681,-12.62
14693,-14.82
14705,-17.27
14717,-20.2
14728,-23.69
14739,-27.61
14751,-31.63
14763,-35.44
14775,-38.81
14787,-41.72
14799,-44.42
14811,-47.38
14823,-51.09
14835,-55.93
14847,-61.88
14859,-68.33
14871,-74.06
14883,-77.5
14895,-77.1
14907,-71.94
14918,-62.02
14929,-48.34
14941,-32.57
14953,-16.55
14965,-1.75
14977,10.85
14989,20.83
15001,28.12
15013,32.83
15025,35.24
15037,35.8
15049,35.11
15061,33.77
15073,32.29
15085,30.9
15097,29.6
15108,28.34
15119,27.07
15131,25.91
15143,25.05
15155,24.66
15167,24.82
15179,25.46
15191,26.41
15203,27.46
15215,28.38
15227,28.96
15239,29.03
15251,28.44
15263,27.18
15275,25.26
15287,22.81
15298,20.0
15309,17.03
15321,14.09
15333,11.33
15345,8.82
15357,6.55
15369,4.49
15381,2.61
15393,0.93
15405,-0.48
15417,-1.57
15429,-2.36
15441,-2.93
15453,-3.42
15465,-3.96
15477,-4.61
15488,-5.39
15499,-6.27
15511,-7.22
15523,-8.28
15535,-9.55
15547,-11.17
15559,-13.3
15571,-16.01
15583,-19.23
15595,-22.72
15607,-26.16
15619,-29.18
15631,-31.58
15643,-33.33
15655,-34.68
15667,-36.04
15678,-37.94
15689,-40.81
15701,-44.78
15713,-49.43
15725,-53.7
15737,-56.07
15749,-54.97
15761,-49.26
15773,-38.75
15785,-24.25
15797,-7.38
15809,9.95
15821,26.01
15833,39.67
15845,50.38
15857,58.13
15868,63.16
15879,65.83
15891,66.5
15903,65.59
15915,63.53
15927,60.76
15939,57.62
15951,54.38
15963,51.17
15975,48.03
15987,45.04
15999,42.35
16011,40.19
16023,38.78
16035,38.21
16047,38.32
16058,38.77
16069,39.08
16081,38.85
16093,37.84
16105,36.03
16117,33.55
16129,30.63
16141,27.49
16153,24.35
16165,21.36
16177,18.61
16189,16.1
16201,13.78
16213,11.54
16225,9.27
16237,6.91
16248,4.54
16259,2.32
16271,0.49
16283,-0.76
16295,-1.36
16307,-1.49
16319,-1.48
16331,-1.77
16343,-2.72
16355,-4.47
16367,-6.87
16379,-9.57
16391,-12.18
16403,-14.42
16415,-16.26
16427,-17.91
16438,-19.7
16449,-21.91
16461,-24.63
16473,-27.75
16485,-31.02
16497,-34.21
16509,-37.16
16521,-39.91
16533,-42.6
16545,-45.41
16557,-48.55
16569,-52.23
16581,-56.57
16593,-61.47
16605,-66.43
16617,-70.48
16628,-72.19
16639,-70.19
16651,-63.56
16663,-52.32
16675,-37.49
16687,-20.81
16699,-4.29
16711,10.39
16723,22.14
16735,30.57
16747,35.8
16759,38.3
16771,38.65
16783,37.43
16795,35.14
16807,32.15
16818,28.75
16829,25.19
16841,21.71
16853,18.55
16865,15.96
16877,14.13
16889,13.17
16901,13.11
16913,13.93
16925,15.49
16937,17.6
16949,19.95
16961,22.17
16973,23.83
16985,24.62
16997,24.33
17008,23.0
17019,20.85
17031,18.24
17043,15.56
17055,13.14
17067,11.11
17079,9.41
17091,7.83
17103,6.09
17115,3.98
17127,1.48
17139,-1.26
17151,-3.93
17163,-6.22
17175,-7.98
17187,-9.27
17198,-10.44
17209,-11.92
17221,-14.12
17233,-17.15
17245,-20.82
17257,-24.68
17269,-28.22
17281,-31.12
17293,-33.37
17305,-35.28
17317,-37.3
17329,-39.97
17341,-43.71
17353,-48.71
17365,-54.79
17377,-61.19
17388,-66.65
17399,-69.5
17411,-68.26
17423,-62.07
17435,-51.15
17447,-36.77
17459,-20.86
17471,-5.37
17483,8.2
17495,19.11
17507,27.22
17519,32.74
17531,36.0
17543,37.35
17555,37.17
17567,35.92
17578,34.06
17589,31.98
17601,29.92
17613,27.99
17625,26.26
17637,24.85
17649,23.91
17661,23.62
17673,24.09
17685,25.28
17697,27.06
17709,29.19
17721,31.46
17733,33.57
17745,35.22
17757,36.05
17768,35.75
17779,34.2
17791,31.5
17803,28.02
17815,24.26
17827,20.65
17839,17.42
17851,14.55
17863,11.87
17875,9.13
17887,6.2
17899,3.05
17911,-0.21
17923,-3.43
17935,-6.47
17947,-9.24
17958,-11.74
17969,-14.1
17981,-16.54
17993,-19.28
18005,-22.46
18017,-26.09
18029,-30.02
18041,-33.98
18053,-37.7
18065,-41.04
18077,-44.03
18089,-46.87
18101,-49.94
18113,-53.59
18125,-58.13
18137,-63.5
18148,-69.22
18159,-74.26
18171,-77.2
18183,-76.58
18195,-71.42
18207,-61.56
18219,-47.84
18231,-31.84
18243,-15.47
18255,-0.42
18267,12.19
18279,21.91
18291,28.84
18303,33.4
18315,36.13
18327,37.47
18338,37.75
18349,37.19
18361,35.9
18373,34.04
18385,31.81
18397,29.49
18409,27.38
18421,25.77
18433,24.81
18445,24.54
18457,24.91
18469,25.82
18481,27.19
18493,28.94
18505,30.83
18517,32.48
18528,33.4
18539,33.17
18551,31.63
18563,28.98
18575,25.74
18587,22.47
18599,19.58
18611,17.12
18623,14.84
18635,12.42
18647,9.68
18659,6.7
18671,3.73
18683,1.02
18695,-1.35
18707,-3.51
18718,-5.77
18729,-8.38
18741,-11.46
18753,-14.98
18765,-18.78
18777,-22.67
18789,-26.46
18801,-30.01
18813,-33.28
18825,-36.35
18837,-39.47
18849,-43.04
18861,-47.48
18873,-52.98
18885,-59.26
18897,-65.44
18908,-70.11
18919,-71.74
18931,-69.08
18943,-61.67
18955,-50.0
18967,-35.41
18979,-19.64
18991,-4.4
19003,9.01
19015,19.87
19027,27.95
19039,33.42
19051,36.58
19063,37.8
19075,37.49
19087,36.08
19098,33.96
19109,31.52
19121,29.16
19133,27.17
19145,25.81
19157,25.25
19169,25.53
19181,26.58
19193,28.25
19205,30.33
19217,32.61
19229,34.88
19241,36.92
19253,38.49
19265,39.28
19277,39.07
19288,37.77
19299,35.48
19311,32.51
19323,29.32
19335,26.28
19347,23.62
19359,21.3
19371,19.14
19383,16.86
19395,14.27
19407,11.27
19419,7.93
19431,4.41
19443,0.91
19455,-2.38
19467,-5.35
19478,-8.05
19489,-10.63
19501,-13.34
19513,-16.44
19525,-20.04
19537,-24.0
19549,-28.04
19561,-31.8
19573,-35.07
19585,-37.91
19597,-40.66
19609,-43.82
19621,-47.89
19633,-53.16
19645,-59.54
19657,-66.48
19668,-72.99
19679,-77.7
19691,-79.14
19703,-76.1
19715,-68.02
19727,-55.25
19739,-39.04
19751,-21.28
19763,-3.95
19775,11.29
19787,23.5
19799,32.39
19811,38.25
19823,41.63
19835,43.17
19847,43.4
19858,42.77
19869,41.59
19881,40.07
19893,38.4
19905,36.7
19917,35.11
19929,33.81
19941,33.0
19953,32.84
19965,33.45
19977,34.81
19989,36.76
20001,39.1
20013,41.42
20025,43.33
20037,44.45
20048,44.48
20059,43.35
20071,41.19
20083,38.31
20095,35.07
20107,31.79
20119,28.63
20131,25.62
20143,22.69
20155,19.78
20167,16.88
20179,14.05
20191,11.4
20203,9.05
20215,7.06
20227,5.38
20238,3.9
20249,2.39
20261,0.63
20273,-1.51
20285,-4.05
20297,-6.81
20309,-9.54
20321,-12.03
20333,-14.23
20345,-16.29
20357,-18.46
20369,-21.03
20381,-24.1
20393,-27.62
20405,-31.36
20417,-35.06
20428,-38.53
20439,-41.78
20451,-44.95
20463,-48.38
20475,-52.46
20487,-57.47
20499,-63.35
20511,-69.61
20523,-75.15
20535,-78.49
20547,-78.13
20559,-72.96
20571,-62.69
20583,-47.97
20595,-30.27
20607,-11.47
20618,6.6
20629,22.53
20641,35.51
20653,45.27
20665,51.91
20677,55.75
20689,57.23
20701,56.77
20713,54.85
20725,51.9
20737,48.3
20749,44.38
20761,40.32
20773,36.25
20785,32.19
20797,28.17
20808,24.27
20819,20.62
20831,17.45
20843,14.95
20855,13.2
20867,12.13
20879,11.52
20891,11.05
20903,10.4
20915,9.38
20927,7.91
20939,6.16
20951,4.37
20963,2.82
20975,1.71
20987,1.07
20998,0.77
