seconds,BVP
1,-42.86
13,-47.74
25,-53.52
36,-59.9
47,-66.2
59,-71.45
71,-74.51
83,-74.29
95,-70.09
107,-61.78
119,-49.9
131,-35.53
143,-20.01
155,-4.63
167,9.59
179,21.98
191,32.15
203,39.84
215,44.92
226,47.36
237,47.37
249,45.5
261,42.57
273,39.46
285,36.92
297,35.25
309,34.33
321,33.68
333,32.81
345,31.35
357,29.29
369,26.85
381,24.33
393,21.9
405,19.54
416,17.02
427,14.04
439,10.37
451,5.95
463,0.88
475,-4.58
487,-10.17
499,-15.63
511,-20.83
523,-25.76
535,-30.52
547,-35.4
559,-40.7
571,-46.75
583,-53.69
595,-61.3
606,-68.81
617,-74.95
629,-78.19
641,-77.22
653,-71.34
665,-60.84
677,-46.84
689,-30.97
701,-14.88
713,0.2
725,13.59
737,25.02
749,34.45
761,41.83
773,47.08
785,50.22
796,51.5
807,51.37
819,50.45
831,49.31
843,48.33
855,47.63
867,47.18
879,46.88
891,46.6
903,46.25
915,45.75
927,44.95
939,43.67
951,41.81
963,39.36
975,36.42
986,33.18
997,29.79
1009,26.25
1021,22.43
1033,18.17
1045,13.36
1057,8.07
1069,2.55
1081,-2.89
1093,-7.98
1105,-12.6
1117,-16.84
1129,-20.92
1141,-25.2
1153,-30.06
1165,-35.86
1176,-42.78
1187,-50.61
1199,-58.58
1211,-65.38
1223,-69.38
1235,-69.13
1247,-63.88
1259,-53.86
1271,-40.23
1283,-24.72
1295,-9.09
1307,5.31
1319,17.72
1331,27.92
1343,35.98
1355,42.03
1366,46.21
1377,48.68
1389,49.68
1401,49.6
1413,48.87
1425,47.92
1437,47.05
1449,46.42
1461,46.04
1473,45.78
1485,45.54
1497,45.19
1509,44.68
1521,43.97
1533,43.02
1545,41.69
1556,39.83
1567,37.24
1579,33.8
1591,29.53
1603,24.6
1615,19.25
1627,13.77
1639,8.34
1651,3.02
1663,-2.23
1675,-7.49
1687,-12.77
1699,-17.96
1711,-22.85
1723,-27.23
1735,-30.93
1746,-34.01
1757,-36.74
1769,-39.59
1781,-43.13
1793,-47.79
1805,-53.6
1817,-60.01
1829,-65.9
1841,-69.82
1853,-70.41
1865,-66.76
1877,-58.77
1889,-47.15
1901,-33.18
1913,-18.38
1925,-4.16
1936,8.43
1947,18.75
1959,26.56
1971,31.86
1983,34.85
1995,35.86
2007,35.33
2019,33.74
2031,31.63
2043,29.48
2055,27.69
2067,26.52
2079,26.01
2091,26.0
2103,26.21
2115,26.33
2126,26.14
2137,25.53
2149,24.5
2161,23.12
2173,21.38
2185,19.24
2197,16.59
2209,13.38
2221,9.58
2233,5.26
2245,0.52
2257,-4.54
2269,-9.8
2281,-15.11
2293,-20.28
2305,-25.13
2316,-29.54
2327,-33.54
2339,-37.33
2351,-41.25
2363,-45.63
2375,-50.62
2387,-56.03
2399,-61.2
2411,-65.09
2423,-66.45
2435,-64.22
2447,-57.88
2459,-47.69
2471,-34.65
2483,-20.22
2495,-5.89
2506,7.13
2517,18.12
2529,26.77
2541,33.0
2553,36.87
2565,38.51
2577,38.17
2589,36.38
2601,33.8
2613,31.12
2625,28.91
2637,27.43
2649,26.69
2661,26.48
2673,26.52
2685,26.51
2696,26.19
2707,25.38
2719,23.92
2731,21.73
2743,18.79
2755,15.12
2767,10.78
2779,5.86
2791,0.47
2803,-5.23
2815,-10.96
2827,-16.41
2839,-21.29
2851,-25.44
2863,-28.94
2875,-32.05
2886,-35.2
2897,-38.82
2909,-43.26
2921,-48.65
2933,-54.81
2945,-61.14
2957,-66.63
2969,-69.99
2981,-69.98
2993,-65.78
3005,-57.32
3017,-45.32
3029,-31.12
3041,-16.24
3053,-2.02
3065,10.65
3076,21.27
3087,29.63
3099,35.61
3111,39.16
3123,40.37
3135,39.59
3147,37.42
3159,34.62
3171,31.93
3183,29.9
3195,28.77
3207,28.49
3219,28.76
3231,29.19
3243,29.36
3255,28.97
3266,27.89
3277,26.12
3289,23.81
3301,21.14
3313,18.2
3325,15.02
3337,11.5
3349,7.49
3361,2.95
3373,-1.97
3385,-6.97
3397,-11.65
3409,-15.72
3421,-19.12
3433,-22.05
3445,-24.85
3456,-27.9
3467,-31.51
3479,-35.91
3491,-41.24
3503,-47.42
3515,-54.09
3527,-60.35
3539,-64.92
3551,-66.36
3563,-63.52
3575,-56.04
3587,-44.47
3599,-30.18
3611,-14.93
3623,-0.3
3635,12.53
3646,22.95
3657,30.85
3669,36.35
3681,39.74
3693,41.32
3705,41.47
3717,40.6
3729,39.15
3741,37.56
3753,36.16
3765,35.16
3777,34.58
3789,34.34
3801,34.3
3813,34.33
3825,34.33
3836,34.22
3847,33.85
3859,33.03
3871,31.56
3883,29.36
3895,26.43
3907,22.95
3919,19.15
3931,15.19
3943,11.09
3955,6.76
3967,2.05
3979,-3.1
3991,-8.59
4003,-14.14
4015,-19.39
4026,-24.04
4037,-27.94
4049,-31.19
4061,-34.06
4073,-36.96
4085,-40.37
4097,-44.64
4109,-49.87
4121,-55.65
4133,-61.05
4145,-64.71
4157,-65.17
4169,-61.39
4181,-53.1
4193,-40.99
4205,-26.52
4216,-11.46
4227,2.6
4239,14.66
4251,24.28
4263,31.55
4275,36.75
4287,40.2
4299,42.14
4311,42.83
4323,42.54
4335,41.61
4347,40.41
4359,39.24
4371,38.25
4383,37.49
4395,36.89
4406,36.39
4417,35.96
4429,35.62
4441,35.34
4453,35.03
4465,34.45
4477,33.36
4489,31.47
4501,28.66
4513,25.01
4525,20.8
4537,16.4
4549,12.09
4561,8.03
4573,4.2
4585,0.51
4596,-3.12
4607,-6.69
4619,-10.2
4631,-13.62
4643,-17.0
4655,-20.44
4667,-24.15
4679,-28.34
4691,-33.21
4703,-38.94
4715,-45.53
4727,-52.6
4739,-59.37
4751,-64.66
4763,-67.15
4775,-65.77
4786,-60.08
4797,-50.48
4809,-38.06
4821,-24.33
4833,-10.8
4845,1.35
4857,11.48
4869,19.4
4881,25.2
4893,29.06
4905,31.12
4917,31.56
4929,30.61
4941,28.72
4953,26.47
4965,24.53
4976,23.45
4987,23.5
4999,24.55
5011,26.17
5023,27.78
5035,28.85
5047,29.13
5059,28.65
5071,27.62
5083,26.28
5095,24.7
5107,22.77
5119,20.18
5131,16.67
5143,12.12
5155,6.75
5166,0.98
5177,-4.67
5189,-9.81
5201,-14.34
5213,-18.42
5225,-22.38
5237,-26.48
5249,-30.9
5261,-35.66
5273,-40.8
5285,-46.32
5297,-52.13
5309,-57.8
5321,-62.47
5333,-64.9
5345,-63.83
5356,-58.52
5367,-49.06
5379,-36.46
5391,-22.29
5403,-8.17
5415,4.69
5427,15.67
5439,24.6
5451,31.48
5463,36.28
5475,38.9
5487,39.33
5499,37.87
5511,35.17
5523,32.13
5535,29.63
5546,28.24
5557,28.02
5569,28.62
5581,29.46
5593,29.97
5605,29.81
5617,28.9
5629,27.34
5641,25.25
5653,22.61
5665,19.37
5677,15.37
5689,10.6
5701,5.18
5713,-0.67
5725,-6.63
5736,-12.42
5747,-17.89
5759,-22.99
5771,-27.75
5783,-32.24
5795,-36.58
5807,-40.91
5819,-45.45
5831,-50.4
5843,-55.84
5855,-61.48
5867,-66.59
5879,-70.04
5891,-70.6
5903,-67.33
5915,-59.98
5926,-49.05
5937,-35.71
5949,-21.39
5961,-7.4
5973,5.3
5985,16.1
5997,24.69
6009,30.88
6021,34.63
6033,36.04
6045,35.49
6057,33.6
6069,31.09
6081,28.72
6093,27.01
6105,26.21
6116,26.32
6127,27.1
6139,28.24
6151,29.37
6163,30.13
6175,30.26
6187,29.64
6199,28.26
6211,26.26
6223,23.84
6235,21.1
6247,18.02
6259,14.48
6271,10.28
6283,5.31
6295,-0.32
6306,-6.28
6317,-12.13
6329,-17.51
6341,-22.25
6353,-26.45
6365,-30.31
6377,-34.19
6389,-38.37
6401,-43.17
6413,-48.85
6425,-55.52
6437,-62.89
6449,-70.13
6461,-75.93
6473,-78.7
6485,-77.13
6496,-70.68
6507,-59.8
6519,-45.82
6531,-30.43
6543,-15.26
6555,-1.4
6567,10.68
6579,20.9
6591,29.37
6603,36.18
6615,41.29
6627,44.69
6639,46.44
6651,46.81
6663,46.2
6675,45.09
6686,43.92
6697,42.94
6709,42.26
6721,41.86
6733,41.68
6745,41.69
6757,41.87
6769,42.15
6781,42.33
6793,42.07
6805,40.93
6817,38.61
6829,35.03
6841,30.52
6853,25.6
6865,20.9
6876,16.83
6887,13.38
6899,10.2
6911,6.73
6923,2.56
6935,-2.38
6947,-7.75
6959,-12.96
6971,-17.49
6983,-21.13
6995,-24.11
7007,-27.02
7019,-30.57
7031,-35.38
7043,-41.71
7055,-49.38
7066,-57.75
7077,-65.73
7089,-71.93
7101,-74.9
7113,-73.48
7125,-67.14
7137,-56.19
7149,-41.79
7161,-25.6
7173,-9.32
7185,5.69
7197,18.68
7209,29.42
7221,38.01
7233,44.59
7245,49.22
7256,51.96
7267,52.97
7279,52.59
7291,51.38
7303,49.94
7315,48.74
7327,48.0
7339,47.7
7351,47.69
7363,47.74
7375,47.78
7387,47.76
7399,47.69
7411,47.49
7423,46.98
7435,45.93
7446,44.15
7457,41.52
7469,38.03
7481,33.81
7493,29.07
7505,24.08
7517,19.14
7529,14.49
7541,10.19
7553,6.13
7565,2.02
7577,-2.42
7589,-7.33
7601,-12.54
7613,-17.7
7625,-22.37
7636,-26.25
7647,-29.39
7659,-32.09
7671,-34.87
7683,-38.25
7695,-42.61
7707,-48.1
7719,-54.6
7731,-61.59
7743,-68.13
7755,-72.93
7767,-74.57
7779,-71.91
7791,-64.49
7803,-52.77
7815,-38.07
7826,-22.11
7837,-6.6
7849,7.28
7861,18.92
7873,28.21
7885,35.17
7897,39.81
7909,42.09
7921,42.14
7933,40.34
7945,37.48
7957,34.44
7969,32.01
7981,30.58
7993,30.09
8005,30.17
8016,30.38
8027,30.39
8039,30.07
8051,29.42
8063,28.43
8075,27.04
8087,25.12
8099,22.58
8111,19.48
8123,15.98
8135,12.33
8147,8.72
8159,5.21
8171,1.73
8183,-1.87
8195,-5.67
8206,-9.67
8217,-13.73
8229,-17.68
8241,-21.39
8253,-24.81
8265,-28.05
8277,-31.31
8289,-34.86
8301,-38.98
8313,-43.87
8325,-49.6
8337,-55.9
8349,-62.08
8361,-67.03
8373,-69.36
8385,-67.88
8396,-61.93
8407,-51.67
8419,-38.11
8431,-22.78
8443,-7.36
8455,6.79
8467,18.8
8479,28.27
8491,35.13
8503,39.47
8515,41.45
8527,41.34
8539,39.57
8551,36.75
8563,33.55
8575,30.63
8586,28.46
8597,27.26
8609,26.96
8621,27.28
8633,27.83
8645,28.19
8657,28.05
8669,27.24
8681,25.75
8693,23.67
8705,21.12
8717,18.13
8729,14.63
8741,10.47
8753,5.48
8765,-0.3
8776,-6.61
8787,-12.99
8799,-18.95
8811,-24.13
8823,-28.48
8835,-32.31
8847,-36.05
8859,-40.2
8871,-45.1
8883,-50.86
8895,-57.24
8907,-63.7
8919,-69.35
8931,-73.03
8943,-73.57
8955,-70.09
8966,-62.29
8977,-50.68
8989,-36.47
9001,-21.29
9013,-6.7
9025,6.15
9037,16.71
9049,24.97
9061,31.19
9073,35.67
9085,38.56
9097,39.97
9109,40.02
9121,39.0
9133,37.39
9145,35.77
9156,34.61
9167,34.13
9179,34.27
9191,34.77
9203,35.31
9215,35.62
9227,35.51
9239,34.87
9251,33.57
9263,31.52
9275,28.65
9287,25.01
9299,20.77
9311,16.08
9323,11.14
9335,6.02
9346,0.78
9357,-4.5
9369,-9.74
9381,-14.78
9393,-19.5
9405,-23.88
9417,-28.01
9429,-32.12
9441,-36.53
9453,-41.54
9465,-47.44
9477,-54.29
9489,-61.81
9501,-69.28
9513,-75.51
9525,-79.01
9536,-78.43
9547,-72.9
9559,-62.43
9571,-47.92
9583,-30.95
9595,-13.36
9607,3.22
9619,17.66
9631,29.4
9643,38.31
9655,44.53
9667,48.31
9679,49.97
9691,49.92
9703,48.64
9715,46.72
9726,44.7
9737,42.96
9749,41.67
9761,40.76
9773,40.03
9785,39.27
9797,38.37
9809,37.32
9821,36.17
9833,34.97
9845,33.67
9857,32.13
9869,30.19
9881,27.7
9893,24.6
9905,20.93
9916,16.73
9927,12.07
9939,6.97
9951,1.46
9963,-4.35
9975,-10.21
9987,-15.81
9999,-20.88
10011,-25.26
10023,-29.03
10035,-32.47
10047,-35.98
10059,-39.99
10071,-44.86
10083,-50.73
10095,-57.33
10106,-63.92
10117,-69.23
10129,-71.75
10141,-70.12
10153,-63.63
10165,-52.46
10177,-37.75
10189,-21.23
10201,-4.68
10213,10.48
10225,23.43
10237,33.91
10249,41.95
10261,47.61
10273,51.0
10285,52.26
10296,51.73
10307,49.98
10319,47.71
10331,45.59
10343,44.0
10355,43.02
10367,42.44
10379,41.95
10391,41.33
10403,40.5
10415,39.51
10427,38.38
10439,37.04
10451,35.29
10463,32.83
10475,29.52
10486,25.38
10497,20.66
10509,15.79
10521,11.2
10533,7.11
10545,3.56
10557,0.33
10569,-2.86
10581,-6.24
10593,-9.89
10605,-13.67
10617,-17.38
10629,-20.83
10641,-24.0
10653,-27.07
10665,-30.35
10676,-34.23
10687,-38.99
10699,-44.72
10711,-51.12
10723,-57.54
10735,-62.92
10747,-66.05
10759,-65.84
10771,-61.62
10783,-53.39
10795,-41.84
10807,-28.21
10819,-13.98
10831,-0.5
10843,11.22
10855,20.62
10866,27.59
10877,32.25
10889,34.81
10901,35.55
10913,34.78
10925,32.93
10937,30.58
10949,28.43
10961,27.1
10973,26.97
10985,28.03
10997,29.86
11009,31.87
11021,33.44
11033,34.24
11045,34.14
11056,33.27
11067,31.78
11079,29.79
11091,27.33
11103,24.34
11115,20.78
11127,16.68
11139,12.16
11151,7.43
11163,2.7
11175,-1.86
11187,-6.17
11199,-10.19
11211,-13.96
11223,-17.55
11235,-21.04
11246,-24.62
11257,-28.57
11269,-33.17
11281,-38.58
11293,-44.72
11305,-51.07
11317,-56.71
11329,-60.42
11341,-61.03
11353,-57.73
11365,-50.41
11377,-39.67
11389,-26.7
11401,-12.97
11413,0.22
11425,11.85
11436,21.35
11447,28.41
11459,32.96
11471,35.06
11483,34.97
11495,33.14
11507,30.23
11519,26.99
11531,24.11
11543,22.09
11555,21.14
11567,21.16
11579,21.81
11591,22.67
11603,23.33
11615,23.52
11626,23.17
11637,22.31
11649,20.99
11661,19.2
11673,16.8
11685,13.55
11697,9.31
11709,4.08
11721,-1.84
11733,-7.99
11745,-13.87
11757,-19.09
11769,-23.5
11781,-27.23
11793,-30.6
11805,-34.0
11816,-37.78
11827,-42.22
11839,-47.36
11851,-52.97
11863,-58.42
11875,-62.64
11887,-64.36
11899,-62.44
11911,-56.3
11923,-46.13
11935,-32.99
11947,-18.4
11959,-3.93
11971,9.18
11983,20.25
11995,29.08
12006,35.68
12017,40.11
12029,42.37
12041,42.51
12053,40.8
12065,37.79
12077,34.31
12089,31.21
12101,29.06
12113,28.0
12125,27.75
12137,27.74
12149,27.5
12161,26.77
12173,25.54
12185,23.98
12196,22.22
12207,20.29
12219,18.1
12231,15.5
12243,12.37
12255,8.64
12267,4.3
12279,-0.56
12291,-5.74
12303,-10.93
12315,-15.77
12327,-19.99
12339,-23.54
12351,-26.6
12363,-29.58
12375,-32.95
12386,-37.11
12397,-42.26
12409,-48.31
12421,-54.75
12433,-60.72
12445,-65.06
12457,-66.52
12469,-64.13
12481,-57.54
12493,-47.23
12505,-34.36
12517,-20.52
12529,-7.19
12541,4.63
12553,14.48
12565,22.39
12576,28.58
12587,33.2
12599,36.34
12611,37.99
12623,38.29
12635,37.53
12647,36.15
12659,34.63
12671,33.3
12683,32.33
12695,31.72
12707,31.38
12719,31.23
12731,31.14
12743,30.93
12755,30.34
12766,29.11
12777,27.03
12789,24.05
12801,20.36
12813,16.26
12825,12.08
12837,8.04
12849,4.2
12861,0.42
12873,-3.49
12885,-7.68
12897,-12.13
12909,-16.69
12921,-21.15
12933,-25.34
12945,-29.25
12956,-33.01
12967,-36.91
12979,-41.24
12991,-46.29
13003,-52.13
13015,-58.48
13027,-64.66
13039,-69.54
13051,-71.76
13063,-70.16
13075,-64.13
13087,-53.92
13099,-40.58
13111,-25.67
13123,-10.81
13135,2.82
13146,14.61
13157,24.43
13169,32.37
13181,38.51
13193,42.88
13205,45.47
13217,46.44
13229,46.17
13241,45.2
13253,44.05
13265,43.07
13277,42.39
13289,41.94
13301,41.58
13313,41.22
13325,40.82
13336,40.36
13347,39.79
13359,38.99
13371,37.74
13383,35.84
13395,33.24
13407,29.99
13419,26.35
13431,22.58
13443,18.94
13455,15.54
13467,12.24
13479,8.78
13491,4.87
13503,0.36
13515,-4.65
13526,-9.87
13537,-14.88
13549,-19.42
13561,-23.43
13573,-27.12
13585,-30.83
13597,-34.96
13609,-39.78
13621,-45.33
13633,-51.34
13645,-57.22
13657,-62.05
13669,-64.68
13681,-64.06
13693,-59.55
13705,-51.2
13716,-39.8
13727,-26.64
13739,-13.17
13751,-0.56
13763,10.49
13775,19.65
13787,26.87
13799,32.16
13811,35.55
13823,37.17
13835,37.33
13847,36.53
13859,35.34
13871,34.23
13883,33.45
13895,33.08
13906,33.07
13917,33.38
13929,33.96
13941,34.7
13953,35.38
13965,35.65
13977,35.23
13989,33.9
14001,31.69
14013,28.74
14025,25.2
14037,21.17
14049,16.67
14061,11.75
14073,6.49
14085,1.17
14096,-3.97
14107,-8.7
14119,-12.95
14131,-16.75
14143,-20.26
14155,-23.62
14167,-26.99
14179,-30.52
14191,-34.35
14203,-38.64
14215,-43.48
14227,-48.73
14239,-53.85
14251,-57.97
14263,-59.99
14275,-58.95
14286,-54.35
14297,-46.38
14309,-35.87
14321,-24.05
14333,-12.16
14345,-1.18
14357,8.29
14369,16.0
14381,21.83
14393,25.77
14405,27.84
14417,28.16
14429,26.99
14441,24.86
14453,22.4
14465,20.27
14476,19.01
14487,18.81
14499,19.46
14511,20.49
14523,21.28
14535,21.41
14547,20.74
14559,19.38
14571,17.6
14583,15.54
14595,13.2
14607,10.42
14619,7.03
14631,2.96
14643,-1.62
14655,-6.44
14666,-11.16
14677,-15.53
14689,-19.42
14701,-22.91
14713,-26.19
14725,-29.52
14737,-33.19
14749,-37.38
14761,-42.14
14773,-47.31
14785,-52.43
14797,-56.8
14809,-59.5
14821,-59.63
14833,-56.51
14845,-49.95
14856,-40.32
14867,-28.51
14879,-15.75
14891,-3.22
14903,8.18
14915,17.91
14927,25.73
14939,31.57
14951,35.38
14963,37.14
14975,36.99
14987,35.32
14999,32.84
15011,30.35
15023,28.58
15035,27.88
15046,28.19
15057,29.05
15069,29.9
15081,30.3
15093,30.08
15105,29.26
15117,27.95
15129,26.14
15141,23.75
15153,20.63
15165,16.74
15177,12.15
15189,7.07
15201,1.74
15213,-3.62
15225,-8.89
15236,-14.06
15247,-19.18
15259,-24.24
15271,-29.25
15283,-34.22
15295,-39.18
15307,-44.27
15319,-49.62
15331,-55.31
15343,-61.13
15355,-66.53
15367,-70.55
15379,-72.09
15391,-70.16
15403,-64.28
15415,-54.59
15426,-41.93
15437,-27.52
15449,-12.72
15461,1.36
15473,13.93
15485,24.53
15497,32.98
15509,39.22
15521,43.35
15533,45.57
15545,46.24
15557,45.82
15569,44.78
15581,43.51
15593,42.28
15605,41.21
15616,40.31
15627,39.54
15639,38.83
15651,38.15
15663,37.38
15675,36.43
15687,35.17
15699,33.49
15711,31.3
15723,28.61
15735,25.48
15747,21.99
15759,18.25
15771,14.35
15783,10.32
15795,6.18
15806,1.89
15817,-2.54
15829,-7.08
15841,-11.65
15853,-16.13
15865,-20.47
15877,-24.74
15889,-29.17
15901,-34.08
15913,-39.77
15925,-46.32
15937,-53.37
15949,-60.06
15961,-65.17
15973,-67.39
15985,-65.71
15996,-59.7
16007,-49.69
16019,-36.66
16031,-21.98
16043,-7.02
16055,7.07
16067,19.56
16079,30.04
16091,38.32
16103,44.34
16115,48.1
16127,49.8
16139,49.74
16151,48.44
16163,46.45
16175,44.31
16186,42.31
16197,40.57
16209,39.06
16221,37.75
16233,36.66
16245,35.84
16257,35.36
16269,35.08
16281,34.77
16293,34.06
16305,32.67
16317,30.43
16329,27.34
16341,23.58
16353,19.37
16365,14.98
16376,10.61
16387,6.43
16399,2.48
16411,-1.31
16423,-5.01
16435,-8.74
16447,-12.49
16459,-16.19
16471,-19.72
16483,-23.07
16495,-26.39
16507,-29.95
16519,-34.11
16531,-39.18
16543,-45.28
16555,-52.19
16566,-59.3
16577,-65.58
16589,-69.8
16601,-70.76
16613,-67.64
16625,-60.25
16637,-49.1
16649,-35.28
16661,-20.18
16673,-5.21
16685,8.51
16697,20.18
16709,29.38
16721,36.01
16733,40.21
16745,42.3
16756,42.69
16767,41.81
16779,40.09
16791,37.92
16803,35.65
16815,33.55
16827,31.85
16839,30.64
16851,29.92
16863,29.55
16875,29.3
16887,28.89
16899,28.08
16911,26.74
16923,24.83
16935,22.42
16946,19.62
16957,16.5
16969,13.13
16981,9.49
16993,5.57
17005,1.41
17017,-2.92
17029,-7.29
17041,-11.57
17053,-15.57
17065,-19.21
17077,-22.41
17089,-25.22
17101,-27.78
17113,-30.4
17125,-33.46
17136,-37.26
17147,-41.85
17159,-46.8
17171,-51.18
17183,-53.73
17195,-53.26
17207,-49.01
17219,-40.97
17231,-29.93
17243,-17.23
17255,-4.36
17267,7.46
17279,17.45
17291,25.31
17303,31.02
17315,34.72
17326,36.56
17337,36.73
17349,35.5
17361,33.24
17373,30.44
17385,27.62
17397,25.25
17409,23.65
17421,22.92
17433,22.91
17445,23.31
17457,23.71
17469,23.75
17481,23.19
17493,21.98
17505,20.21
17516,17.96
17527,15.3
17539,12.24
17551,8.72
17563,4.75
17575,0.41
17587,-4.09
17599,-8.53
17611,-12.71
17623,-16.56
17635,-20.11
17647,-23.51
17659,-26.9
17671,-30.45
17683,-34.34
17695,-38.72
17706,-43.69
17717,-49.19
17729,-54.82
17741,-59.86
17753,-63.27
17765,-64.0
17777,-61.22
17789,-54.69
17801,-44.75
17813,-32.37
17825,-18.82
17837,-5.39
17849,6.84
17861,17.12
17873,25.09
17885,30.69
17896,34.06
17907,35.45
17919,35.21
17931,33.74
17943,31.51
17955,29.04
17967,26.83
17979,25.23
17991,24.44
18003,24.34
18015,24.62
18027,24.83
18039,24.57
18051,23.64
18063,22.07
18075,20.13
18086,18.07
18097,16.03
18109,13.96
18121,11.62
18133,8.74
18145,5.17
18157,0.99
18169,-3.53
18181,-7.98
18193,-12.05
18205,-15.58
18217,-18.65
18229,-21.51
18241,-24.54
18253,-28.06
18265,-32.33
18276,-37.47
18287,-43.41
18299,-49.8
18311,-55.99
18323,-61.02
18335,-63.77
18347,-63.22
18359,-58.74
18371,-50.37
18383,-38.8
18395,-25.27
18407,-11.17
18419,2.29
18431,14.3
18443,24.46
18455,32.68
18466,38.98
18477,43.41
18489,46.03
18501,46.97
18513,46.46
18525,44.9
18537,42.72
18549,40.37
18561,38.18
18573,36.38
18585,35.06
18597,34.22
18609,33.78
18621,33.59
18633,33.41
18645,32.93
18656,31.81
18667,29.84
18679,26.98
18691,23.37
18703,19.23
18715,14.79
18727,10.2
18739,5.46
18751,0.57
18763,-4.47
18775,-9.56
18787,-14.56
18799,-19.35
18811,-23.77
18823,-27.77
18835,-31.28
18846,-34.35
18857,-37.13
18869,-39.94
18881,-43.2
18893,-47.21
18905,-51.9
18917,-56.58
18929,-60.08
18941,-61.03
18953,-58.33
18965,-51.6
18977,-41.3
18989,-28.63
19001,-15.09
19013,-2.02
19025,9.67
19036,19.57
19047,27.64
19059,33.98
19071,38.68
19083,41.82
19095,43.52
19107,44.03
19119,43.67
19131,42.81
19143,41.71
19155,40.51
19167,39.2
19179,37.74
19191,36.09
19203,34.33
19215,32.53
19226,30.76
19237,28.99
19249,27.12
19261,25.02
19273,22.6
19285,19.8
19297,16.66
19309,13.22
19321,9.55
19333,5.62
19345,1.47
19357,-2.92
19369,-7.44
19381,-11.94
19393,-16.22
19405,-20.12
19416,-23.62
19427,-26.89
19439,-30.21
19451,-33.91
19463,-38.3
19475,-43.42
19487,-49.1
19499,-54.82
19511,-59.79
19523,-63.06
19535,-63.68
19547,-60.95
19559,-54.62
19571,-45.02
19583,-33.04
19595,-19.91
19606,-6.93
19617,4.8
19629,14.56
19641,21.99
19653,27.06
19665,29.94
19677,30.92
19689,30.39
19701,28.86
19713,26.91
19725,25.12
19737,23.94
19749,23.56
19761,23.88
19773,24.56
19785,25.21
19796,25.49
19807,25.27
19819,24.55
19831,23.4
19843,21.87
19855,19.92
19867,17.46
19879,14.4
19891,10.73
19903,6.55
19915,2.05
19927,-2.49
19939,-6.79
19951,-10.68
19963,-14.11
19975,-17.21
19986,-20.28
19997,-23.68
20009,-27.71
20021,-32.5
20033,-37.95
20045,-43.68
20057,-49.05
20069,-53.19
20081,-55.16
20093,-54.15
20105,-49.68
20117,-41.84
20129,-31.33
20141,-19.3
20153,-7.0
20165,4.5
20176,14.55
20187,22.84
20199,29.27
20211,33.72
20223,36.08
20235,36.27
20247,34.52
20259,31.38
20271,27.71
20283,24.37
20295,22.01
20307,20.82
20319,20.56
20331,20.71
20343,20.71
20355,20.16
20366,18.91
20377,17.06
20389,14.8
20401,12.35
20413,9.82
20425,7.16
20437,4.23
20449,0.86
20461,-3.05
20473,-7.42
20485,-12.01
20497,-16.54
20509,-20.73
20521,-24.53
20533,-28.04
20545,-31.58
20556,-35.52
20567,-40.18
20579,-45.78
20591,-52.25
20603,-59.17
20615,-65.72
20627,-70.73
20639,-72.93
20651,-71.25
20663,-65.19
20675,-55.04
20687,-41.82
20699,-26.98
20711,-11.95
20723,2.13
20735,14.65
20746,25.39
20757,34.35
20769,41.53
20781,46.79
20793,50.01
20805,51.17
20817,50.59
20829,48.89
20841,46.82
20853,45.03
20865,43.85
20877,43.24
20889,42.86
20901,42.3
20913,41.26
20925,39.73
20936,37.87
20947,35.84
20959,33.77
20971,31.7
20983,29.65
20995,27.52
