seconds,BVP
2,-15.55
14,-11.81
25,-7.15
36,-2.03
48,2.93
60,7.21
72,10.53
84,12.9
96,14.53
108,15.67
120,16.48
132,16.98
144,17.17
156,17.0
168,16.54
180,15.9
192,15.22
204,14.6
215,14.09
226,13.61
238,13.12
250,12.53
262,11.88
274,11.21
286,10.64
298,10.23
310,9.97
322,9.75
334,9.4
346,8.72
358,7.58
370,5.97
382,3.96
394,1.67
405,-0.79
416,-3.29
428,-5.8
440,-8.23
452,-10.51
464,-12.54
476,-14.29
488,-15.79
500,-17.15
512,-18.51
524,-19.92
536,-21.22
548,-22.12
560,-22.22
572,-21.18
584,-18.9
595,-15.57
606,-11.55
618,-7.35
630,-3.42
642,0.0
654,2.85
666,5.21
678,7.26
690,9.13
702,10.84
714,12.35
726,13.53
738,14.31
750,14.66
762,14.65
774,14.41
785,14.05
796,13.68
808,13.35
820,13.09
832,12.85
844,12.62
856,12.38
868,12.11
880,11.8
892,11.39
904,10.84
916,10.03
928,8.87
940,7.28
952,5.26
964,2.95
975,0.5
986,-1.87
998,-4.02
1010,-5.85
1022,-7.37
1034,-8.64
1046,-9.72
1058,-10.7
1070,-11.61
1082,-12.52
1094,-13.51
1106,-14.62
1118,-15.84
1130,-17.11
1142,-18.25
1154,-18.98
1165,-19.04
1176,-18.13
1188,-16.16
1200,-13.13
1212,-9.24
1224,-4.84
1236,-0.4
1248,3.65
1260,6.99
1272,9.49
1284,11.22
1296,12.35
1308,13.05
1320,13.42
1332,13.52
1344,13.32
1355,12.89
1366,12.43
1378,12.09
1390,12.09
1402,12.41
1414,12.9
1426,13.32
1438,13.44
1450,13.13
1462,12.37
1474,11.26
1486,9.91
1498,8.48
1510,7.02
1522,5.61
1534,4.24
1545,2.88
1556,1.45
1568,-0.18
1580,-2.04
1592,-4.14
1604,-6.28
1616,-8.27
1628,-9.88
1640,-10.98
1652,-11.67
1664,-12.17
1676,-12.74
1688,-13.61
1700,-14.87
1712,-16.39
1724,-17.96
1735,-19.3
1746,-20.09
1758,-20.01
1770,-18.85
1782,-16.52
1794,-13.1
1806,-8.97
1818,-4.6
1830,-0.51
1842,2.86
1854,5.4
1866,7.12
1878,8.31
1890,9.21
1902,10.01
1914,10.72
1925,11.28
1936,11.56
1948,11.48
1960,11.16
1972,10.74
1984,10.38
1996,10.21
2008,10.16
2020,10.14
2032,10.04
2044,9.84
2056,9.57
2068,9.3
2080,9.05
2092,8.67
2104,8.01
2115,6.91
2126,5.4
2138,3.6
2150,1.72
2162,-0.06
2174,-1.67
2186,-3.17
2198,-4.66
2210,-6.27
2222,-8.0
2234,-9.74
2246,-11.41
2258,-12.81
2270,-13.94
2282,-14.83
2294,-15.63
2305,-16.38
2316,-17.08
2328,-17.5
2340,-17.37
2352,-16.43
2364,-14.56
2376,-11.83
2388,-8.48
2400,-4.86
2412,-1.32
2424,1.85
2436,4.42
2448,6.23
2460,7.25
2472,7.59
2484,7.48
2495,7.22
2506,7.09
2518,7.28
2530,7.82
2542,8.59
2554,9.39
2566,10.03
2578,10.38
2590,10.41
2602,10.16
2614,9.74
2626,9.22
2638,8.65
2650,8.03
2662,7.37
2674,6.68
2685,5.94
2696,5.14
2708,4.25
2720,3.22
2732,1.97
2744,0.47
2756,-1.29
2768,-3.22
2780,-5.18
2792,-7.02
2804,-8.63
2816,-9.92
2828,-10.88
2840,-11.55
2852,-12.05
2864,-12.49
2875,-12.87
2886,-13.12
2898,-12.95
2910,-12.13
2922,-10.45
2934,-7.9
2946,-4.66
2958,-1.13
2970,2.25
2982,5.14
2994,7.35
3006,8.9
3018,9.87
3030,10.31
3042,10.22
3054,9.53
3065,8.27
3076,6.58
3088,4.74
3100,3.11
3112,1.98
3124,1.41
3136,1.28
3148,1.38
3160,1.46
3172,1.42
3184,1.24
3196,0.92
3208,0.46
3220,-0.26
3232,-1.36
3244,-2.99
3255,-5.13
3266,-7.71
3278,-10.52
3290,-13.38
3302,-16.14
3314,-18.72
3326,-21.11
3338,-23.35
3350,-25.45
3362,-27.48
3374,-29.52
3386,-31.67
3398,-34.02
3410,-36.65
3422,-39.44
3434,-42.19
3445,-44.54
3456,-46.04
3468,-46.28
3480,-44.98
3492,-42.1
3504,-37.83
3516,-32.59
3528,-26.85
3540,-21.08
3552,-15.59
3564,-10.49
3576,-5.68
3588,-0.95
3600,3.98
3612,9.24
3624,14.79
3635,20.44
3646,25.89
3658,30.92
3670,35.51
3682,39.89
3694,44.4
3706,49.38
3718,54.79
3730,60.13
3742,64.6
3754,67.22
3766,67.41
3778,65.19
3790,61.29
3802,56.94
3814,53.42
3825,51.57
3836,51.67
3848,53.44
3860,56.34
3872,60.13
3884,64.9
3896,71.06
3908,79.06
3920,89.02
3932,100.73
3944,113.68
3956,127.12
3968,140.0
3980,150.77
3992,157.4
4004,157.8
4015,150.68
4026,136.36
4038,117.16
4050,96.87
4062,79.45
4074,67.61
4086,62.14
4098,61.82
4110,64.32
4122,67.11
4134,68.12
4146,65.93
4158,59.76
4170,49.32
4182,34.95
4194,17.67
4205,-1.01
4216,-19.55
4228,-36.83
4240,-52.54
4252,-67.1
4264,-81.26
4276,-95.53
4288,-109.75
4300,-123.02
4312,-133.9
4324,-140.86
4336,-142.72
4348,-138.98
4360,-129.92
4372,-116.57
4384,-100.37
4395,-82.97
4406,-65.96
4418,-50.44
4430,-37.01
4442,-25.48
4454,-15.15
4466,-5.01
4478,5.75
4490,17.43
4502,29.61
4514,41.31
4526,51.58
4538,59.79
4550,66.04
4562,70.85
4574,74.78
4585,77.74
4596,78.79
4608,76.24
4620,68.49
4632,54.89
4644,36.24
4656,14.82
4668,-6.55
4680,-25.6
4692,-41.38
4704,-54.36
4716,-65.86
4728,-77.16
4740,-88.82
4752,-100.6
4764,-111.71
4775,-121.49
4786,-129.56
4798,-135.9
4810,-140.4
4822,-142.64
4834,-141.91
4846,-137.59
4858,-129.56
4870,-118.63
4882,-106.48
4894,-95.49
4906,-88.13
4918,-86.3
4930,-90.93
4942,-101.68
4954,-117.15
4965,-135.34
4976,-154.24
4988,-172.28
5000,-188.64
5012,-203.01
5024,-215.36
5036,-225.44
5048,-232.71
5060,-236.39
5072,-235.95
5084,-231.5
5096,-224.06
5108,-215.38
5120,-207.29
5132,-201.08
5144,-196.81
5155,-193.41
5166,-189.08
5178,-182.04
5190,-171.11
5202,-155.97
5214,-136.86
5226,-114.17
5238,-88.14
5250,-58.98
5262,-27.25
5274,5.48
5286,36.63
5298,63.12
5310,82.37
5322,93.36
5334,97.22
5345,96.78
5356,95.6
5368,96.67
5380,101.58
5392,110.26
5404,121.55
5416,133.95
5428,146.3
5440,158.01
5452,168.9
5464,178.73
5476,187.02
5488,192.94
5500,195.62
5512,194.48
5524,189.32
5535,180.38
5546,168.25
5558,153.6
5570,137.22
5582,119.94
5594,102.57
5606,85.95
5618,70.81
5630,57.63
5642,46.61
5654,37.68
5666,30.48
5678,24.46
5690,19.08
5702,13.91
5714,8.72
5725,3.44
5736,-1.96
5748,-7.62
5760,-13.65
5772,-20.05
5784,-26.44
5796,-31.94
5808,-35.33
5820,-35.49
5832,-31.83
5844,-24.55
5856,-14.55
5868,-3.11
5880,8.65
5892,20.05
5904,30.88
5915,41.24
5926,51.25
5938,60.86
5950,69.86
5962,77.9
5974,84.51
5986,89.13
5998,91.17
6010,90.05
6022,85.35
6034,77.02
6046,65.43
6058,51.36
6070,35.77
6082,19.58
6094,3.71
6105,-10.89
6116,-23.05
6128,-31.36
6140,-34.33
6152,-30.88
6164,-20.66
6176,-4.45
6188,15.93
6200,37.93
6212,58.89
6224,76.55
6236,89.45
6248,97.07
6260,99.48
6272,97.17
6284,90.74
6295,80.83
6306,68.1
6318,53.35
6330,37.51
6342,21.59
6354,6.55
6366,-7.0
6378,-18.77
6390,-28.81
6402,-37.35
6414,-44.69
6426,-51.1
6438,-56.73
6450,-61.68
6462,-65.9
6474,-69.29
6485,-71.63
6496,-72.71
6508,-72.38
6520,-70.65
6532,-67.67
6544,-63.7
6556,-58.98
6568,-53.72
6580,-48.07
6592,-42.09
6604,-35.85
6616,-29.41
6628,-22.78
6640,-15.94
6652,-8.89
6664,-1.62
6675,5.77
6686,12.97
6698,19.58
6710,25.09
6722,29.13
6734,31.53
6746,32.45
6758,32.21
6770,31.2
6782,29.73
6794,27.9
6806,25.75
6818,23.24
6830,20.43
6842,17.45
6854,14.5
6865,11.68
6876,9.04
6888,6.58
6900,4.33
6912,2.45
6924,1.15
6936,0.72
6948,1.41
6960,3.26
6972,6.15
6984,9.75
6996,13.65
7008,17.54
7020,21.24
7032,24.77
7044,28.27
7055,31.76
7066,35.05
7078,37.71
7090,39.15
7102,38.92
7114,36.79
7126,32.91
7138,27.71
7150,21.82
7162,15.84
7174,10.24
7186,5.33
7198,1.2
7210,-2.14
7222,-4.85
7234,-7.09
7245,-9.05
7256,-10.86
7268,-12.62
7280,-14.37
7292,-16.06
7304,-17.65
7316,-19.0
7328,-20.07
7340,-20.78
7352,-21.2
7364,-21.37
7376,-21.41
7388,-21.33
7400,-21.07
7412,-20.58
7424,-19.76
7435,-18.6
7446,-17.12
7458,-15.49
7470,-13.85
7482,-12.36
7494,-11.13
7506,-10.12
7518,-9.29
7530,-8.46
7542,-7.4
7554,-5.97
7566,-4.01
7578,-1.39
7590,2.05
7602,6.46
7614,11.9
7625,18.03
7636,24.17
7648,29.21
7660,32.03
7672,31.82
7684,28.44
7696,22.5
7708,15.1
7720,7.54
7732,0.86
7744,-4.27
7756,-7.57
7768,-9.03
7780,-8.79
7792,-7.06
7804,-4.16
7815,-0.5
7826,3.48
7838,7.37
7850,10.91
7862,14.0
7874,16.63
7886,18.85
7898,20.62
7910,21.91
7922,22.72
7934,23.17
7946,23.4
7958,23.62
7970,23.92
7982,24.34
7994,24.81
8005,25.22
8016,25.46
8028,25.45
8040,25.15
8052,24.55
8064,23.64
8076,22.39
8088,20.71
8100,18.56
8112,15.86
8124,12.6
8136,8.86
8148,4.89
8160,1.03
8172,-2.25
8184,-4.46
8195,-5.28
8206,-4.57
8218,-2.46
8230,0.67
8242,4.24
8254,7.67
8266,10.47
8278,12.33
8290,13.08
8302,12.63
8314,10.97
8326,8.11
8338,4.13
8350,-0.85
8362,-6.66
8374,-13.12
8385,-20.03
8396,-27.13
8408,-34.0
8420,-40.03
8432,-44.62
8444,-47.2
8456,-47.46
8468,-45.39
8480,-41.3
8492,-35.67
8504,-29.09
8516,-22.15
8528,-15.38
8540,-9.28
8552,-4.21
8564,-0.36
8575,2.3
8586,3.94
8598,4.77
8610,5.01
8622,4.85
8634,4.41
8646,3.73
8658,2.87
8670,1.81
8682,0.53
8694,-1.02
8706,-2.86
8718,-4.9
8730,-6.97
8742,-8.75
8754,-9.87
8765,-9.92
8776,-8.61
8788,-5.8
8800,-1.61
8812,3.66
8824,9.61
8836,15.75
8848,21.7
8860,27.13
8872,31.84
8884,35.67
8896,38.54
8908,40.42
8920,41.37
8932,41.52
8944,40.98
8955,39.89
8966,38.38
8978,36.55
8990,34.51
9002,32.37
9014,30.21
9026,28.07
9038,26.02
9050,24.01
9062,22.09
9074,20.2
9086,18.36
9098,16.6
9110,14.96
9122,13.46
9134,12.12
9145,10.92
9156,9.74
9168,8.53
9180,7.16
9192,5.53
9204,3.65
9216,1.48
9228,-0.93
9240,-3.47
9252,-6.01
9264,-8.44
9276,-10.72
9288,-12.89
9300,-15.07
9312,-17.32
9324,-19.57
9335,-21.58
9346,-23.03
9358,-23.66
9370,-23.43
9382,-22.45
9394,-21.11
9406,-19.87
9418,-19.26
9430,-19.74
9442,-21.57
9454,-24.82
9466,-29.3
9478,-34.57
9490,-40.03
9502,-45.02
9514,-48.97
9525,-51.45
9536,-52.13
9548,-50.8
9560,-47.35
9572,-41.91
9584,-34.81
9596,-26.69
9608,-18.23
9620,-10.12
9632,-2.8
9644,3.55
9656,8.89
9668,13.24
9680,16.55
9692,18.72
9704,19.67
9715,19.41
9726,18.14
9738,16.16
9750,13.83
9762,11.41
9774,9.01
9786,6.64
9798,4.3
9810,1.97
9822,-0.29
9834,-2.31
9846,-3.85
9858,-4.7
9870,-4.65
9882,-3.65
9894,-1.74
9905,0.88
9916,3.92
9928,7.04
9940,9.93
9952,12.39
9964,14.36
9976,15.97
9988,17.5
10000,19.17
10012,21.18
10024,23.5
10036,25.86
10048,27.93
10060,29.36
10072,30.02
10084,30.09
10095,29.92
10106,29.94
10118,30.44
10130,31.5
10142,32.96
10154,34.51
10166,35.85
10178,36.82
10190,37.34
10202,37.42
10214,37.12
10226,36.53
10238,35.64
10250,34.44
10262,32.91
10274,30.97
10285,28.58
10296,25.7
10308,22.23
10320,18.03
10332,12.93
10344,6.86
10356,-0.2
10368,-8.06
10380,-16.51
10392,-25.3
10404,-34.25
10416,-43.25
10428,-52.2
10440,-60.85
10452,-68.76
10464,-75.33
10475,-79.96
10486,-82.25
10498,-82.16
10510,-80.0
10522,-76.28
10534,-71.55
10546,-66.17
10558,-60.23
10570,-53.63
10582,-46.24
10594,-38.0
10606,-29.08
10618,-19.82
10630,-10.57
10642,-1.67
10654,6.66
10665,14.31
10676,21.26
10688,27.44
10700,32.86
10712,37.47
10724,41.25
10736,44.14
10748,46.1
10760,47.16
10772,47.35
10784,46.83
10796,45.75
10808,44.25
10820,42.39
10832,40.12
10844,37.42
10855,34.34
10866,31.05
10878,27.8
10890,24.8
10902,22.1
10914,19.56
10926,16.9
10938,13.89
10950,10.46
10962,6.75
10974,3.06
10986,-0.3
10998,-3.12
11010,-5.31
11022,-6.91
11034,-8.02
11045,-8.78
11056,-9.27
11068,-9.65
11080,-10.07
11092,-10.69
11104,-11.52
11116,-12.5
11128,-13.34
11140,-13.66
11152,-13.04
11164,-11.21
11176,-8.15
11188,-4.12
11200,0.34
11212,4.62
11224,8.21
11235,10.76
11246,12.18
11258,12.56
11270,12.05
11282,10.84
11294,9.15
11306,7.15
11318,5.08
11330,3.17
11342,1.54
11354,0.23
11366,-0.85
11378,-1.9
11390,-3.14
11402,-4.75
11414,-6.86
11425,-9.57
11436,-13.0
11448,-17.25
11460,-22.42
11472,-28.56
11484,-35.61
11496,-43.37
11508,-51.39
11520,-59.07
11532,-65.59
11544,-70.18
11556,-72.23
11568,-71.47
11580,-68.09
11592,-62.61
11604,-55.77
11615,-48.33
11626,-40.9
11638,-33.88
11650,-27.42
11662,-21.52
11674,-15.94
11686,-10.4
11698,-4.55
11710,1.92
11722,9.14
11734,17.04
11746,25.28
11758,33.37
11770,40.8
11782,47.16
11794,52.25
11805,56.09
11816,58.83
11828,60.67
11840,61.76
11852,62.1
11864,61.56
11876,60.03
11888,57.45
11900,53.88
11912,49.48
11924,44.39
11936,38.75
11948,32.61
11960,26.06
11972,19.22
11984,12.33
11995,5.7
12006,-0.43
12018,-5.9
12030,-10.66
12042,-14.74
12054,-18.14
12066,-20.81
12078,-22.68
12090,-23.76
12102,-24.22
12114,-24.32
12126,-24.39
12138,-24.64
12150,-25.12
12162,-25.72
12174,-26.28
12185,-26.65
12196,-26.74
12208,-26.43
12220,-25.54
12232,-23.82
12244,-21.03
12256,-17.05
12268,-12.06
12280,-6.47
12292,-0.85
12304,4.23
12316,8.36
12328,11.32
12340,13.06
12352,13.6
12364,13.09
12375,11.74
12386,9.77
12398,7.45
12410,4.95
12422,2.4
12434,-0.16
12446,-2.71
12458,-5.28
12470,-7.89
12482,-10.58
12494,-13.34
12506,-16.09
12518,-18.65
12530,-20.86
12542,-22.48
12554,-23.41
12565,-23.68
12576,-23.39
12588,-22.7
12600,-21.74
12612,-20.58
12624,-19.25
12636,-17.79
12648,-16.27
12660,-14.76
12672,-13.37
12684,-12.25
12696,-11.52
12708,-11.25
12720,-11.33
12732,-11.57
12744,-11.67
12755,-11.31
12766,-10.21
12778,-8.25
12790,-5.43
12802,-1.85
12814,2.27
12826,6.66
12838,10.84
12850,14.27
12862,16.42
12874,16.88
12886,15.52
12898,12.51
12910,8.31
12922,3.51
12934,-1.2
12945,-5.11
12956,-7.41
12968,-7.31
12980,-4.27
12992,1.78
13004,10.24
13016,19.98
13028,29.65
13040,38.17
13052,45.07
13064,50.55
13076,55.13
13088,59.27
13100,63.01
13112,65.94
13124,67.36
13135,66.67
13146,63.6
13158,58.31
13170,51.28
13182,43.02
13194,34.04
13206,24.7
13218,15.33
13230,6.29
13242,-1.9
13254,-8.61
13266,-13.15
13278,-14.98
13290,-13.9
13302,-10.1
13314,-4.24
13325,2.74
13336,9.79
13348,15.95
13360,20.58
13372,23.3
13384,23.98
13396,22.62
13408,19.31
13420,14.2
13432,7.6
13444,-0.1
13456,-8.3
13468,-16.32
13480,-23.48
13492,-29.34
13504,-33.7
13515,-36.63
13526,-38.37
13538,-39.22
13550,-39.41
13562,-39.13
13574,-38.48
13586,-37.61
13598,-36.67
13610,-35.94
13622,-35.66
13634,-36.04
13646,-37.19
13658,-39.06
13670,-41.53
13682,-44.39
13694,-47.41
13705,-50.34
13716,-52.91
13728,-54.84
13740,-55.86
13752,-55.59
13764,-53.76
13776,-50.16
13788,-44.71
13800,-37.52
13812,-28.82
13824,-18.96
13836,-8.5
13848,1.88
13860,11.5
13872,19.74
13884,26.2
13895,30.79
13906,33.68
13918,35.27
13930,36.03
13942,36.32
13954,36.31
13966,36.04
13978,35.47
13990,34.57
14002,33.3
14014,31.68
14026,29.7
14038,27.4
14050,24.78
14062,21.85
14074,18.63
14085,15.16
14096,11.48
14108,7.65
14120,3.72
14132,-0.23
14144,-4.06
14156,-7.61
14168,-10.8
14180,-13.63
14192,-16.22
14204,-18.71
14216,-21.18
14228,-23.58
14240,-25.71
14252,-27.3
14264,-27.98
14275,-27.5
14286,-25.69
14298,-22.57
14310,-18.38
14322,-13.48
14334,-8.4
14346,-3.67
14358,0.27
14370,3.22
14382,5.16
14394,6.34
14406,7.03
14418,7.46
14430,7.75
14442,7.91
14454,7.86
14465,7.57
14476,7.11
14488,6.58
14500,6.1
14512,5.8
14524,5.67
14536,5.66
14548,5.74
14560,5.76
14572,5.63
14584,5.28
14596,4.67
14608,3.83
14620,2.86
14632,1.79
14644,0.67
14655,-0.45
14666,-1.61
14678,-2.87
14690,-4.28
14702,-5.92
14714,-7.8
14726,-9.85
14738,-11.9
14750,-13.65
14762,-14.7
14774,-14.73
14786,-13.62
14798,-11.5
14810,-8.72
14822,-5.75
14834,-3.02
14845,-0.81
14856,0.79
14868,1.81
14880,2.3
14892,2.38
14904,2.11
14916,1.62
14928,1.08
14940,0.66
14952,0.49
14964,0.58
14976,0.87
14988,1.25
15000,1.6
15012,1.84
15024,1.93
15035,1.87
15046,1.6
15058,1.05
15070,0.16
15082,-1.06
15094,-2.47
15106,-3.85
15118,-5.02
15130,-5.91
15142,-6.59
15154,-7.25
15166,-8.05
15178,-9.03
15190,-10.08
15202,-10.93
15214,-11.33
15225,-11.03
15236,-9.91
15248,-7.93
15260,-5.1
15272,-1.57
15284,2.45
15296,6.59
15308,10.48
15320,13.76
15332,16.21
15344,17.71
15356,18.29
15368,18.06
15380,17.18
15392,15.79
15404,14.08
15415,12.24
15426,10.44
15438,8.86
15450,7.59
15462,6.65
15474,6.01
15486,5.52
15498,5.04
15510,4.39
15522,3.51
15534,2.42
15546,1.26
15558,0.14
15570,-0.85
15582,-1.7
15594,-2.51
15605,-3.31
15616,-4.1
15628,-4.82
15640,-5.38
15652,-5.69
15664,-5.72
15676,-5.34
15688,-4.4
15700,-2.75
15712,-0.26
15724,2.99
15736,6.72
15748,10.52
15760,13.94
15772,16.67
15784,18.64
15795,19.96
15806,20.85
15818,21.51
15830,22.04
15842,22.47
15854,22.77
15866,22.89
15878,22.89
15890,22.87
15902,22.94
15914,23.12
15926,23.35
15938,23.35
15950,22.84
15962,21.61
15974,19.61
15985,16.97
15996,13.97
16008,10.86
16020,7.78
16032,4.77
16044,1.76
16056,-1.35
16068,-4.57
16080,-7.87
16092,-11.18
16104,-14.52
16116,-18.06
16128,-21.96
16140,-26.35
16152,-31.09
16164,-35.87
16175,-40.13
16186,-43.43
16198,-45.55
16210,-46.59
16222,-46.92
16234,-46.86
16246,-46.53
16258,-45.75
16270,-44.14
16282,-41.25
16294,-36.87
16306,-31.05
16318,-24.15
16330,-16.69
16342,-9.22
16354,-2.23
16365,3.99
16376,9.24
16388,13.56
16400,16.99
16412,19.7
16424,21.81
16436,23.41
16448,24.56
16460,25.23
16472,25.36
16484,24.84
16496,23.5
16508,21.21
16520,17.98
16532,13.98
16544,9.59
16555,5.33
16566,1.68
16578,-1.01
16590,-2.6
16602,-3.18
16614,-2.97
16626,-2.24
16638,-1.2
16650,0.05
16662,1.62
16674,3.7
16686,6.55
16698,10.32
16710,14.91
16722,20.03
16734,25.15
16745,29.69
16756,33.1
16768,35.11
16780,35.6
16792,34.75
16804,32.84
16816,30.21
16828,27.21
16840,24.04
16852,20.88
16864,17.76
16876,14.71
16888,11.76
16900,8.94
16912,6.28
16924,3.79
16935,1.44
16946,-0.74
16958,-2.74
16970,-4.47
16982,-5.82
16994,-6.82
17006,-7.57
17018,-8.26
17030,-9.16
17042,-10.38
17054,-11.95
17066,-13.78
17078,-15.77
17090,-17.84
17102,-20.0
17114,-22.24
17125,-24.56
17136,-26.89
17148,-29.12
17160,-31.13
17172,-32.86
17184,-34.29
17196,-35.34
17208,-35.92
17220,-35.84
17232,-34.9
17244,-32.92
17256,-29.78
17268,-25.51
17280,-20.23
17292,-14.22
17304,-7.86
17315,-1.68
17326,3.85
17338,8.35
17350,11.67
17362,13.96
17374,15.53
17386,16.7
17398,17.65
17410,18.42
17422,18.86
17434,18.87
17446,18.47
17458,17.76
17470,16.92
17482,16.03
17494,15.01
17505,13.75
17516,12.17
17528,10.33
17540,8.43
17552,6.73
17564,5.38
17576,4.38
17588,3.55
17600,2.62
17612,1.39
17624,-0.16
17636,-1.92
17648,-3.66
17660,-5.21
17672,-6.54
17684,-7.66
17695,-8.61
17706,-9.43
17718,-10.13
17730,-10.69
17742,-11.16
17754,-11.6
17766,-11.95
17778,-12.04
17790,-11.58
17802,-10.23
17814,-7.86
17826,-4.6
17838,-0.89
17850,2.72
17862,5.79
17874,8.08
17885,9.64
17896,10.66
17908,11.36
17920,11.94
17932,12.49
17944,13.04
17956,13.54
17968,13.89
17980,13.99
17992,13.81
18004,13.38
18016,12.79
18028,12.1
18040,11.26
18052,10.15
18064,8.61
18075,6.64
18086,4.38
18098,2.15
18110,0.27
18122,-1.13
18134,-2.13
18146,-3.03
18158,-4.13
18170,-5.63
18182,-7.54
18194,-9.71
18206,-12.0
18218,-14.25
18230,-16.42
18242,-18.49
18254,-20.43
18265,-22.18
18276,-23.67
18288,-24.88
18300,-25.86
18312,-26.78
18324,-27.74
18336,-28.7
18348,-29.4
18360,-29.42
18372,-28.37
18384,-25.98
18396,-22.33
18408,-17.78
18420,-12.89
18432,-8.19
18444,-4.01
18455,-0.47
18466,2.55
18478,5.23
18490,7.78
18502,10.25
18514,12.58
18526,14.62
18538,16.31
18550,17.63
18562,18.62
18574,19.41
18586,20.06
18598,20.53
18610,20.7
18622,20.45
18634,19.77
18645,18.78
18656,17.67
18668,16.63
18680,15.76
18692,14.97
18704,14.05
18716,12.79
18728,11.04
18740,8.84
18752,6.3
18764,3.65
18776,1.15
18788,-0.99
18800,-2.7
18812,-4.03
18824,-5.13
18835,-6.19
18846,-7.34
18858,-8.61
18870,-9.93
18882,-11.13
18894,-12.02
18906,-12.35
18918,-11.96
18930,-10.71
18942,-8.52
18954,-5.48
18966,-1.85
18978,1.97
18990,5.52
19002,8.46
19014,10.59
19025,11.96
19036,12.76
19048,13.2
19060,13.44
19072,13.52
19084,13.35
19096,12.9
19108,12.13
19120,11.11
19132,10.01
19144,8.98
19156,8.04
19168,7.18
19180,6.24
19192,5.12
19204,3.83
19215,2.45
19226,1.19
19238,0.22
19250,-0.37
19262,-0.67
19274,-0.86
19286,-1.16
19298,-1.69
19310,-2.42
19322,-3.29
19334,-4.2
19346,-5.13
19358,-6.11
19370,-7.21
19382,-8.4
19394,-9.66
19405,-10.93
19416,-12.16
19428,-13.33
19440,-14.39
19452,-15.23
19464,-15.64
19476,-15.34
19488,-14.12
19500,-11.88
19512,-8.76
19524,-5.08
19536,-1.21
19548,2.48
19560,5.7
19572,8.26
19584,10.13
19595,11.34
19606,11.97
19618,12.11
19630,11.87
19642,11.32
19654,10.52
19666,9.59
19678,8.6
19690,7.66
19702,6.86
19714,6.25
19726,5.81
19738,5.53
19750,5.4
19762,5.39
19774,5.47
19785,5.6
19796,5.68
19808,5.59
19820,5.25
19832,4.56
19844,3.53
19856,2.21
19868,0.63
19880,-1.15
19892,-3.05
19904,-4.95
19916,-6.74
19928,-8.33
19940,-9.69
19952,-10.81
19964,-11.77
19975,-12.66
19986,-13.59
19998,-14.6
20010,-15.68
20022,-16.75
20034,-17.66
20046,-18.24
20058,-18.23
20070,-17.43
20082,-15.7
20094,-12.95
20106,-9.3
20118,-4.99
20130,-0.36
20142,4.15
20154,8.11
20165,11.16
20176,13.1
20188,13.91
20200,13.81
20212,13.06
20224,11.92
20236,10.59
20248,9.2
20260,7.84
20272,6.61
20284,5.6
20296,4.86
20308,4.39
20320,4.06
20332,3.7
20344,3.14
20355,2.36
20366,1.39
20378,0.41
20390,-0.49
20402,-1.29
20414,-2.09
20426,-3.05
20438,-4.28
20450,-5.8
20462,-7.5
20474,-9.18
20486,-10.63
20498,-11.77
20510,-12.64
20522,-13.37
20534,-14.11
20545,-14.92
20556,-15.74
20568,-16.39
20580,-16.76
20592,-16.77
20604,-16.48
20616,-15.98
20628,-15.35
20640,-14.5
20652,-13.23
20664,-11.31
20676,-8.57
20688,-5.09
20700,-1.22
20712,2.62
20724,5.92
20735,8.37
20746,9.88
20758,10.57
20770,10.69
20782,10.6
20794,10.54
20806,10.65
20818,10.96
20830,11.33
20842,11.56
20854,11.56
20866,11.25
20878,10.72
20890,10.12
20902,9.55
20914,9.04
20925,8.56
20936,7.99
20948,7.29
20960,6.49
20972,5.65
20984,4.86
20996,4.14
