seconds,BVP
4,152.94
16,147.62
28,142.83
40,139.83
52,139.92
64,143.69
76,150.65
88,159.19
100,167.14
111,172.57
122,174.46
134,172.94
146,168.93
158,163.44
170,157.06
182,149.64
194,140.54
206,129.1
218,115.13
230,99.12
242,82.15
254,65.5
266,50.32
278,37.37
290,27.03
301,19.41
312,14.5
324,12.12
336,11.83
348,12.89
360,14.19
372,14.58
384,13.04
396,9.07
408,2.76
420,-5.32
432,-14.33
444,-23.53
456,-32.42
468,-40.86
480,-48.88
491,-56.53
502,-63.66
514,-70.01
526,-75.3
538,-79.4
550,-82.39
562,-84.51
574,-85.97
586,-86.73
598,-86.6
610,-85.33
622,-82.86
634,-79.39
646,-75.29
658,-70.9
670,-66.4
681,-61.84
692,-57.38
704,-53.44
716,-50.67
728,-49.72
740,-50.86
752,-53.74
764,-57.5
776,-61.04
788,-63.56
800,-64.76
812,-64.87
824,-64.38
836,-63.71
848,-62.99
860,-62.09
871,-60.8
882,-59.05
894,-56.98
906,-54.91
918,-53.08
930,-51.49
942,-49.83
954,-47.69
966,-44.72
978,-40.87
990,-36.4
1002,-31.72
1014,-27.19
1026,-23.0
1038,-19.15
1050,-15.6
1061,-12.39
1072,-9.69
1084,-7.74
1096,-6.72
1108,-6.64
1120,-7.3
1132,-8.31
1144,-9.22
1156,-9.59
1168,-9.14
1180,-7.81
1192,-5.8
1204,-3.55
1216,-1.71
1228,-0.95
1240,-1.76
1251,-4.18
1262,-7.73
1274,-11.47
1286,-14.24
1298,-15.15
1310,-13.8
1322,-10.49
1334,-6.01
1346,-1.33
1358,2.8
1370,5.98
1382,8.18
1394,9.49
1406,9.97
1418,9.55
1430,8.16
1441,5.83
1452,2.85
1464,-0.31
1476,-3.17
1488,-5.42
1500,-7.04
1512,-8.32
1524,-9.64
1536,-11.34
1548,-13.51
1560,-16.01
1572,-18.56
1584,-20.96
1596,-23.18
1608,-25.46
1620,-28.13
1631,-31.4
1642,-35.24
1654,-39.29
1666,-42.97
1678,-45.66
1690,-46.94
1702,-46.67
1714,-45.12
1726,-42.83
1738,-40.49
1750,-38.87
1762,-38.57
1774,-40.0
1786,-43.13
1798,-47.53
1810,-52.34
1821,-56.5
1832,-59.07
1844,-59.55
1856,-58.06
1868,-55.35
1880,-52.53
1892,-50.77
1904,-51.0
1916,-53.63
1928,-58.61
1940,-65.53
1952,-73.71
1964,-82.45
1976,-91.05
1988,-98.97
2000,-105.8
2011,-111.3
2022,-115.36
2034,-118.0
2046,-119.29
2058,-119.44
2070,-118.83
2082,-117.93
2094,-117.28
2106,-117.39
2118,-118.62
2130,-121.16
2142,-125.05
2154,-130.22
2166,-136.37
2178,-142.99
2190,-149.31
2201,-154.41
2212,-157.52
2224,-158.36
2236,-157.27
2248,-155.19
2260,-153.24
2272,-152.29
2284,-152.51
2296,-153.25
2308,-153.17
2320,-150.82
2332,-145.04
2344,-135.49
2356,-122.73
2368,-108.03
2380,-92.98
2391,-78.98
2402,-66.89
2414,-56.89
2426,-48.56
2438,-41.05
2450,-33.39
2462,-24.65
2474,-14.18
2486,-1.76
2498,12.36
2510,27.55
2522,42.98
2534,57.89
2546,71.75
2558,84.26
2570,95.26
2581,104.59
2592,112.03
2604,117.31
2616,120.25
2628,120.88
2640,119.54
2652,116.78
2664,113.3
2676,109.7
2688,106.37
2700,103.29
2712,100.01
2724,95.74
2736,89.53
2748,80.6
2760,68.66
2771,54.2
2782,38.49
2794,23.35
2806,10.58
2818,1.34
2830,-4.19
2842,-6.72
2854,-7.34
2866,-6.81
2878,-5.15
2890,-1.71
2902,4.31
2914,13.24
2926,24.67
2938,37.47
2950,50.37
2961,62.4
2972,73.21
2984,82.95
2996,92.0
3008,100.63
3020,108.99
3032,117.17
3044,125.32
3056,133.71
3068,142.56
3080,151.79
3092,160.81
3104,168.67
3116,174.28
3128,176.9
3140,176.42
3151,173.33
3162,168.55
3174,162.94
3186,156.96
3198,150.63
3210,143.63
3222,135.71
3234,126.85
3246,117.31
3258,107.52
3270,97.83
3282,88.38
3294,79.1
3306,69.77
3318,60.25
3330,50.54
3341,40.77
3352,31.11
3364,21.7
3376,12.58
3388,3.8
3400,-4.5
3412,-12.01
3424,-18.35
3436,-23.4
3448,-27.52
3460,-31.54
3472,-36.55
3484,-43.45
3496,-52.67
3508,-64.15
3520,-77.72
3531,-93.4
3542,-111.44
3554,-132.04
3566,-154.67
3578,-177.71
3590,-198.53
3602,-214.15
3614,-222.22
3626,-221.79
3638,-213.54
3650,-199.41
3662,-181.79
3674,-162.71
3686,-143.43
3698,-124.56
3710,-106.45
3721,-89.68
3732,-75.07
3744,-63.4
3756,-54.87
3768,-48.66
3780,-43.15
3792,-36.47
3804,-27.32
3816,-15.54
3828,-2.12
3840,11.41
3852,23.7
3864,34.13
3876,42.9
3888,50.7
3900,58.16
3911,65.52
3922,72.52
3934,78.51
3946,82.74
3958,84.61
3970,83.81
3982,80.33
3994,74.46
4006,66.69
4018,57.75
4030,48.58
4042,40.3
4054,34.05
4066,30.77
4078,30.85
4090,33.96
4101,39.09
4112,44.92
4124,50.24
4136,54.31
4148,57.01
4160,58.6
4172,59.47
4184,59.89
4196,59.97
4208,59.76
4220,59.37
4232,59.02
4244,59.0
4256,59.54
4268,60.7
4280,62.34
4291,64.14
4302,65.73
4314,66.77
4326,67.06
4338,66.61
4350,65.61
4362,64.36
4374,63.07
4386,61.82
4398,60.46
4410,58.8
4422,56.71
4434,54.24
4446,51.62
4458,49.07
4470,46.67
4481,44.32
4492,41.8
4504,38.99
4516,35.92
4528,32.79
4540,29.79
4552,27.04
4564,24.46
4576,21.89
4588,19.18
4600,16.24
4612,13.11
4624,9.85
4636,6.51
4648,3.06
4660,-0.58
4671,-4.48
4682,-8.64
4694,-12.98
4706,-17.28
4718,-21.22
4730,-24.43
4742,-26.54
4754,-27.28
4766,-26.58
4778,-24.59
4790,-21.67
4802,-18.27
4814,-14.81
4826,-11.63
4838,-8.9
4850,-6.66
4861,-4.9
4872,-3.52
4884,-2.41
4896,-1.43
4908,-0.43
4920,0.72
4932,2.11
4944,3.77
4956,5.7
4968,7.84
4980,10.12
4992,12.33
5004,14.16
5016,15.24
5028,15.16
5040,13.71
5051,10.91
5062,7.1
5074,2.84
5086,-1.24
5098,-4.6
5110,-6.98
5122,-8.39
5134,-9.11
5146,-9.56
5158,-10.15
5170,-11.23
5182,-12.95
5194,-15.28
5206,-17.98
5218,-20.68
5230,-22.99
5241,-24.64
5252,-25.47
5264,-25.54
5276,-25.03
5288,-24.16
5300,-23.09
5312,-21.89
5324,-20.62
5336,-19.36
5348,-18.34
5360,-17.85
5372,-18.11
5384,-19.18
5396,-20.78
5408,-22.39
5420,-23.36
5431,-23.12
5442,-21.33
5454,-17.95
5466,-13.24
5478,-7.62
5490,-1.57
5502,4.44
5514,9.99
5526,14.73
5538,18.4
5550,20.79
5562,21.86
5574,21.67
5586,20.47
5598,18.65
5610,16.7
5621,15.08
5632,14.08
5644,13.78
5656,14.02
5668,14.57
5680,15.22
5692,15.84
5704,16.39
5716,16.89
5728,17.31
5740,17.57
5752,17.56
5764,17.2
5776,16.5
5788,15.55
5800,14.49
5811,13.47
5822,12.58
5834,11.92
5846,11.48
5858,11.2
5870,11.02
5882,10.84
5894,10.63
5906,10.43
5918,10.32
5930,10.36
5942,10.58
5954,10.89
5966,11.14
5978,11.15
5990,10.79
6001,10.12
6012,9.36
6024,8.92
6036,9.25
6048,10.68
6060,13.32
6072,16.97
6084,21.13
6096,25.21
6108,28.66
6120,31.13
6132,32.55
6144,32.98
6156,32.54
6168,31.27
6180,29.15
6191,26.18
6202,22.47
6214,18.3
6226,14.0
6238,9.88
6250,6.04
6262,2.43
6274,-1.12
6286,-4.82
6298,-8.74
6310,-12.86
6322,-16.99
6334,-20.96
6346,-24.56
6358,-27.69
6370,-30.37
6381,-32.71
6392,-34.96
6404,-37.43
6416,-40.36
6428,-43.86
6440,-47.83
6452,-51.94
6464,-55.77
6476,-58.9
6488,-61.04
6500,-62.1
6512,-62.16
6524,-61.41
6536,-60.04
6548,-58.17
6560,-55.81
6571,-52.85
6582,-49.13
6594,-44.5
6606,-38.95
6618,-32.66
6630,-25.96
6642,-19.3
6654,-13.13
6666,-7.73
6678,-3.15
6690,0.79
6702,4.38
6714,7.86
6726,11.35
6738,14.82
6750,18.12
6761,21.15
6772,23.88
6784,26.34
6796,28.57
6808,30.53
6820,32.11
6832,33.18
6844,33.64
6856,33.48
6868,32.74
6880,31.45
6892,29.6
6904,27.17
6916,24.15
6928,20.6
6940,16.67
6951,12.53
6962,8.35
6974,4.24
6986,0.25
6998,-3.61
7010,-7.37
7022,-11.14
7034,-15.01
7046,-19.02
7058,-23.09
7070,-26.93
7082,-30.13
7094,-32.23
7106,-32.9
7118,-31.96
7130,-29.43
7141,-25.41
7152,-20.13
7164,-13.83
7176,-6.83
7188,0.49
7200,7.69
7212,14.35
7224,20.06
7236,24.52
7248,27.56
7260,29.13
7272,29.36
7284,28.56
7296,27.12
7308,25.42
7320,23.73
7331,22.12
7342,20.52
7354,18.82
7366,16.97
7378,15.11
7390,13.51
7402,12.49
7414,12.3
7426,13.05
7438,14.7
7450,17.1
7462,20.01
7474,23.1
7486,26.04
7498,28.5
7510,30.22
7521,31.05
7532,30.97
7544,30.02
7556,28.29
7568,25.81
7580,22.6
7592,18.72
7604,14.29
7616,9.48
7628,4.48
7640,-0.58
7652,-5.64
7664,-10.6
7676,-15.29
7688,-19.38
7700,-22.48
7711,-24.26
7722,-24.64
7734,-23.82
7746,-22.17
7758,-20.16
7770,-18.14
7782,-16.32
7794,-14.82
7806,-13.66
7818,-12.89
7830,-12.49
7842,-12.38
7854,-12.36
7866,-12.17
7878,-11.64
7890,-10.72
7901,-9.51
7912,-8.23
7924,-7.04
7936,-6.01
7948,-5.07
7960,-4.15
7972,-3.19
7984,-2.19
7996,-1.18
8008,-0.13
8020,1.06
8032,2.55
8044,4.43
8056,6.65
8068,8.96
8080,11.02
8091,12.47
8102,13.09
8114,12.87
8126,11.95
8138,10.53
8150,8.69
8162,6.45
8174,3.75
8186,0.52
8198,-3.18
8210,-7.23
8222,-11.42
8234,-15.58
8246,-19.58
8258,-23.4
8270,-27.17
8281,-31.06
8292,-35.27
8304,-39.9
8316,-44.78
8328,-49.52
8340,-53.51
8352,-56.12
8364,-56.9
8376,-55.68
8388,-52.66
8400,-48.24
8412,-42.94
8424,-37.22
8436,-31.4
8448,-25.69
8460,-20.16
8471,-14.91
8482,-10.05
8494,-5.76
8506,-2.23
8518,0.45
8530,2.39
8542,3.94
8554,5.56
8566,7.68
8578,10.44
8590,13.67
8602,16.94
8614,19.81
8626,21.97
8638,23.38
8650,24.11
8661,24.26
8672,23.86
8684,22.89
8696,21.39
8708,19.58
8720,17.76
8732,16.23
8744,15.08
8756,14.15
8768,13.11
8780,11.63
8792,9.56
8804,6.94
8816,3.93
8828,0.71
8840,-2.6
8851,-5.92
8862,-9.14
8874,-12.11
8886,-14.73
8898,-16.95
8910,-18.86
8922,-20.6
8934,-22.3
8946,-24.01
8958,-25.71
8970,-27.27
8982,-28.52
8994,-29.17
9006,-28.92
9018,-27.46
9030,-24.69
9041,-20.72
9052,-16.0
9064,-11.1
9076,-6.58
9088,-2.8
9100,0.15
9112,2.36
9124,4.04
9136,5.3
9148,6.22
9160,6.86
9172,7.32
9184,7.79
9196,8.49
9208,9.61
9220,11.18
9231,13.08
9242,15.04
9254,16.8
9266,18.21
9278,19.27
9290,20.15
9302,20.99
9314,21.9
9326,22.88
9338,23.88
9350,24.86
9362,25.84
9374,26.81
9386,27.78
9398,28.71
9410,29.51
9421,30.21
9432,30.86
9444,31.57
9456,32.43
9468,33.39
9480,34.36
9492,35.21
9504,35.82
9516,36.14
9528,36.07
9540,35.41
9552,33.92
9564,31.4
9576,27.81
9588,23.39
9600,18.61
9611,14.04
9622,10.12
9634,7.1
9646,4.9
9658,3.24
9670,1.72
9682,-0.04
9694,-2.28
9706,-5.11
9718,-8.49
9730,-12.37
9742,-16.68
9754,-21.39
9766,-26.44
9778,-31.74
9790,-37.12
9801,-42.37
9812,-47.35
9824,-52.0
9836,-56.34
9848,-60.39
9860,-64.08
9872,-67.22
9884,-69.51
9896,-70.64
9908,-70.44
9920,-68.93
9932,-66.31
9944,-62.9
9956,-58.93
9968,-54.47
9980,-49.46
9991,-43.83
10002,-37.65
10014,-31.25
10026,-25.2
10038,-20.15
10050,-16.58
10062,-14.71
10074,-14.37
10086,-15.08
10098,-16.16
10110,-16.78
10122,-16.11
10134,-13.43
10146,-8.34
10158,-0.86
10170,8.48
10181,18.8
10192,29.11
10204,38.57
10216,46.71
10228,53.37
10240,58.61
10252,62.52
10264,65.17
10276,66.56
10288,66.71
10300,65.65
10312,63.48
10324,60.36
10336,56.51
10348,52.19
10360,47.72
10371,43.35
10382,39.27
10394,35.54
10406,32.12
10418,28.92
10430,25.87
10442,22.94
10454,20.14
10466,17.44
10478,14.78
10490,12.1
10502,9.37
10514,6.68
10526,4.11
10538,1.7
10550,-0.61
10561,-2.98
10572,-5.54
10584,-8.29
10596,-11.04
10608,-13.4
10620,-14.97
10632,-15.46
10644,-14.82
10656,-13.26
10668,-11.21
10680,-9.17
10692,-7.51
10704,-6.45
10716,-5.94
10728,-5.85
10740,-6.01
10751,-6.31
10762,-6.73
10774,-7.31
10786,-8.03
10798,-8.79
10810,-9.44
10822,-9.83
10834,-9.87
10846,-9.6
10858,-9.18
10870,-8.77
10882,-8.53
10894,-8.56
10906,-8.89
10918,-9.52
10930,-10.38
10941,-11.36
10952,-12.32
10964,-13.11
10976,-13.69
10988,-14.12
11000,-14.53
11012,-15.13
11024,-16.07
11036,-17.42
11048,-19.16
11060,-21.11
11072,-23.03
11084,-24.56
11096,-25.29
11108,-24.92
11120,-23.31
11131,-20.61
11142,-17.19
11154,-13.57
11166,-10.22
11178,-7.46
11190,-5.41
11202,-4.09
11214,-3.4
11226,-3.25
11238,-3.54
11250,-4.18
11262,-5.08
11274,-6.19
11286,-7.48
11298,-8.88
11310,-10.33
11321,-11.75
11332,-13.03
11344,-14.1
11356,-14.93
11368,-15.52
11380,-15.92
11392,-16.23
11404,-16.61
11416,-17.22
11428,-18.21
11440,-19.58
11452,-21.26
11464,-23.06
11476,-24.75
11488,-26.16
11500,-27.15
11511,-27.61
11522,-27.51
11534,-26.93
11546,-26.15
11558,-25.57
11570,-25.64
11582,-26.58
11594,-28.3
11606,-30.27
11618,-31.75
11630,-32.08
11642,-30.93
11654,-28.42
11666,-24.98
11678,-21.17
11690,-17.42
11701,-13.98
11712,-10.84
11724,-7.95
11736,-5.23
11748,-2.64
11760,-0.17
11772,2.19
11784,4.39
11796,6.38
11808,8.07
11820,9.35
11832,10.19
11844,10.66
11856,10.88
11868,11.01
11880,11.13
11891,11.3
11902,11.54
11914,11.92
11926,12.51
11938,13.32
11950,14.3
11962,15.26
11974,16.02
11986,16.47
11998,16.65
12010,16.68
12022,16.7
12034,16.75
12046,16.77
12058,16.67
12070,16.34
12081,15.74
12092,14.84
12104,13.67
12116,12.21
12128,10.45
12140,8.38
12152,6.04
12164,3.5
12176,0.86
12188,-1.73
12200,-4.02
12212,-5.72
12224,-6.5
12236,-6.11
12248,-4.51
12260,-1.91
12271,1.3
12282,4.63
12294,7.68
12306,10.24
12318,12.33
12330,14.12
12342,15.8
12354,17.46
12366,19.08
12378,20.53
12390,21.65
12402,22.38
12414,22.78
12426,22.96
12438,23.06
12450,23.09
12461,22.98
12472,22.59
12484,21.85
12496,20.79
12508,19.53
12520,18.25
12532,17.08
12544,16.02
12556,15.05
12568,14.1
12580,13.13
12592,12.09
12604,10.96
12616,9.66
12628,8.17
12640,6.52
12651,4.82
12662,3.19
12674,1.71
12686,0.35
12698,-0.99
12710,-2.42
12722,-3.97
12734,-5.58
12746,-7.09
12758,-8.38
12770,-9.41
12782,-10.26
12794,-11.05
12806,-11.86
12818,-12.72
12830,-13.63
12841,-14.58
12852,-15.6
12864,-16.74
12876,-17.98
12888,-19.19
12900,-20.12
12912,-20.44
12924,-19.88
12936,-18.36
12948,-16.02
12960,-13.2
12972,-10.3
12984,-7.64
12996,-5.42
13008,-3.67
13020,-2.33
13031,-1.28
13042,-0.47
13054,0.16
13066,0.61
13078,0.9
13090,1.02
13102,0.99
13114,0.84
13126,0.6
13138,0.29
13150,-0.07
13162,-0.45
13174,-0.83
13186,-1.19
13198,-1.52
13210,-1.8
13221,-2.05
13232,-2.27
13244,-2.49
13256,-2.77
13268,-3.14
13280,-3.62
13292,-4.24
13304,-4.92
13316,-5.6
13328,-6.16
13340,-6.48
13352,-6.43
13364,-5.92
13376,-4.86
13388,-3.23
13400,-1.08
13411,1.42
13422,4.04
13434,6.52
13446,8.66
13458,10.37
13470,11.69
13482,12.69
13494,13.39
13506,13.77
13518,13.73
13530,13.29
13542,12.61
13554,12.01
13566,11.91
13578,12.58
13590,13.97
13601,15.76
13612,17.54
13624,19.05
13636,20.3
13648,21.47
13660,22.75
13672,24.27
13684,25.84
13696,27.12
13708,27.69
13720,27.27
13732,25.87
13744,23.79
13756,21.45
13768,19.26
13780,17.6
13791,16.56
13802,15.84
13814,14.84
13826,13.02
13838,10.09
13850,6.16
13862,1.68
13874,-2.85
13886,-6.62
13898,-9.19
13910,-10.71
13922,-11.83
13934,-13.22
13946,-15.25
13958,-17.83
13970,-20.68
13981,-23.48
13992,-25.18
14004,-25.21
14016,-23.8
14028,-21.93
14040,-20.56
14052,-19.95
14064,-19.49
14076,-18.29
14088,-15.47
14100,-9.11
14112,1.75
14124,16.63
14136,33.75
14148,51.09
14160,67.42
14171,82.61
14182,96.66
14194,109.69
14206,123.51
14218,139.27
14230,156.93
14242,175.17
14254,192.37
14266,207.22
14278,218.83
14290,225.49
14302,215.93
14314,184.56
14326,135.82
14338,82.75
14350,37.36
14361,4.65
14372,-19.63
14384,-39.68
14396,-59.0
14408,-80.41
14420,-100.48
14432,-116.82
14444,-128.75
14456,-137.84
14468,-146.69
14480,-157.53
14492,-170.73
14504,-185.43
14516,-199.59
14528,-209.36
14540,-212.25
14551,-208.03
14562,-198.82
14574,-187.41
14586,-175.73
14598,-163.92
14610,-151.47
14622,-137.8
14634,-122.05
14646,-104.63
14658,-87.03
14670,-71.3
14682,-58.89
14694,-50.02
14706,-43.59
14718,-38.16
14730,-32.56
14741,-25.67
14752,-17.33
14764,-8.11
14776,0.85
14788,8.42
14800,13.94
14812,17.42
14824,19.26
14836,20.1
14848,20.78
14860,21.85
14872,23.58
14884,25.92
14896,28.66
14908,31.54
14920,34.25
14931,36.3
14942,37.06
14954,36.14
14966,33.63
14978,30.42
14990,28.02
15002,27.9
15014,30.86
15026,36.58
15038,43.78
15050,50.8
15062,56.42
15074,60.12
15086,62.02
15098,62.33
15110,60.96
15121,57.5
15132,51.51
15144,42.96
15156,32.43
15168,20.91
15180,9.46
15192,-1.13
15204,-10.44
15216,-18.28
15228,-24.58
15240,-29.22
15252,-32.23
15264,-33.82
15276,-34.39
15288,-34.45
15300,-34.39
15311,-34.41
15322,-34.47
15334,-34.39
15346,-33.92
15358,-32.82
15370,-30.83
15382,-27.73
15394,-23.42
15406,-18.0
15418,-11.87
15430,-5.72
15442,-0.32
15454,3.68
15466,5.93
15478,6.61
15490,6.24
15501,5.58
15512,5.28
15524,5.66
15536,6.64
15548,7.83
15560,8.77
15572,9.17
15584,8.99
15596,8.43
15608,7.69
15620,6.89
15632,5.95
15644,4.74
15656,3.15
15668,1.28
15680,-0.6
15691,-2.17
15702,-3.18
15714,-3.57
15726,-3.42
15738,-2.91
15750,-2.24
15762,-1.53
15774,-0.86
15786,-0.3
15798,0.08
15810,0.24
15822,0.22
15834,0.19
15846,0.49
15858,1.52
15870,3.6
15881,6.78
15892,10.82
15904,15.17
15916,19.22
15928,22.4
15940,24.43
15952,25.3
15964,25.3
15976,24.85
15988,24.46
16000,24.56
16012,25.47
16024,27.32
16036,30.04
16048,33.32
16060,36.68
16071,39.61
16082,41.66
16094,42.62
16106,42.55
16118,41.68
16130,40.29
16142,38.51
16154,36.31
16166,33.43
16178,29.62
16190,24.75
16202,18.94
16214,12.52
16226,5.92
16238,-0.42
16250,-6.2
16261,-11.27
16272,-15.57
16284,-19.2
16296,-22.31
16308,-25.1
16320,-27.83
16332,-30.67
16344,-33.72
16356,-36.98
16368,-40.34
16380,-43.62
16392,-46.58
16404,-48.94
16416,-50.38
16428,-50.64
16440,-49.59
16451,-47.32
16462,-44.19
16474,-40.68
16486,-37.27
16498,-34.21
16510,-31.46
16522,-28.72
16534,-25.57
16546,-21.67
16558,-16.9
16570,-11.39
16582,-5.45
16594,0.57
16606,6.37
16618,11.74
16630,16.6
16641,21.0
16652,25.12
16664,29.25
16676,33.72
16688,38.77
16700,44.38
16712,50.27
16724,55.89
16736,60.68
16748,64.25
16760,66.46
16772,67.4
16784,67.24
16796,66.09
16808,63.94
16820,60.71
16831,56.31
16842,50.78
16854,44.28
16866,37.0
16878,29.1
16890,20.68
16902,11.79
16914,2.5
16926,-7.07
16938,-16.7
16950,-26.16
16962,-35.2
16974,-43.59
16986,-51.15
16998,-57.71
17010,-63.11
17021,-67.25
17032,-70.08
17044,-71.62
17056,-71.91
17068,-70.97
17080,-68.76
17092,-65.19
17104,-60.2
17116,-53.85
17128,-46.39
17140,-38.28
17152,-30.03
17164,-22.14
17176,-14.98
17188,-8.72
17200,-3.39
17211,1.11
17222,4.84
17234,7.88
17246,10.29
17258,12.14
17270,13.59
17282,14.84
17294,16.08
17306,17.39
17318,18.64
17330,19.54
17342,19.74
17354,19.0
17366,17.3
17378,14.87
17390,12.07
17401,9.22
17412,6.54
17424,4.0
17436,1.47
17448,-1.18
17460,-3.93
17472,-6.58
17484,-8.74
17496,-10.09
17508,-10.44
17520,-9.92
17532,-8.88
17544,-7.72
17556,-6.77
17568,-6.14
17580,-5.73
17591,-5.38
17602,-5.0
17614,-4.6
17626,-4.32
17638,-4.21
17650,-4.16
17662,-3.91
17674,-3.11
17686,-1.49
17698,1.0
17710,4.2
17722,7.77
17734,11.42
17746,14.91
17758,18.15
17770,21.12
17781,23.69
17792,25.67
17804,26.77
17816,26.78
17828,25.66
17840,23.65
17852,21.12
17864,18.53
17876,16.18
17888,14.2
17900,12.54
17912,11.06
17924,9.69
17936,8.46
17948,7.49
17960,6.91
17971,6.81
17982,7.1
17994,7.61
18006,8.06
18018,8.25
18030,8.05
18042,7.5
18054,6.77
18066,6.09
18078,5.68
18090,5.75
18102,6.46
18114,7.93
18126,10.23
18138,13.32
18150,17.09
18161,21.29
18172,25.65
18184,29.94
18196,33.96
18208,37.56
18220,40.65
18232,43.13
18244,45.02
18256,46.38
18268,47.4
18280,48.28
18292,49.16
18304,50.02
18316,50.7
18328,50.93
18340,50.43
18351,48.99
18362,46.52
18374,43.05
18386,38.71
18398,33.68
18410,28.13
18422,22.25
18434,16.27
18446,10.43
18458,4.99
18470,0.19
18482,-3.78
18494,-6.88
18506,-9.19
18518,-10.89
18530,-12.23
18541,-13.46
18552,-14.8
18564,-16.39
18576,-18.28
18588,-20.39
18600,-22.5
18612,-24.31
18624,-25.58
18636,-26.16
18648,-26.09
18660,-25.56
18672,-24.81
18684,-24.05
18696,-23.44
18708,-23.05
18720,-22.93
18731,-23.13
18742,-23.68
18754,-24.55
18766,-25.63
18778,-26.72
18790,-27.66
18802,-28.32
18814,-28.71
18826,-28.95
18838,-29.23
18850,-29.71
18862,-30.46
18874,-31.39
18886,-32.21
18898,-32.54
18910,-31.98
18921,-30.25
18932,-27.34
18944,-23.51
18956,-19.2
18968,-14.93
18980,-11.12
18992,-8.02
19004,-5.7
19016,-4.08
19028,-3.02
19040,-2.36
19052,-1.95
19064,-1.67
19076,-1.4
19088,-1.05
19100,-0.55
19111,0.16
19122,1.13
19134,2.31
19146,3.62
19158,4.9
19170,5.96
19182,6.69
19194,7.0
19206,6.93
19218,6.55
19230,5.97
19242,5.26
19254,4.48
19266,3.68
19278,2.95
19290,2.33
19301,1.84
19312,1.49
19324,1.16
19336,0.76
19348,0.24
19360,-0.41
19372,-1.13
19384,-1.9
19396,-2.7
19408,-3.6
19420,-4.67
19432,-5.96
19444,-7.43
19456,-8.99
19468,-10.55
19480,-12.06
19491,-13.52
19502,-14.9
19514,-16.08
19526,-16.81
19538,-16.81
19550,-15.88
19562,-13.99
19574,-11.39
19586,-8.45
19598,-5.57
19610,-3.06
19622,-1.04
19634,0.5
19646,1.62
19658,2.39
19670,2.87
19681,3.08
19692,3.13
19704,3.11
19716,3.13
19728,3.29
19740,3.58
19752,3.95
19764,4.33
19776,4.59
19788,4.65
19800,4.48
19812,4.11
19824,3.66
19836,3.3
19848,3.21
19860,3.5
19871,4.14
19882,4.97
19894,5.74
19906,6.21
19918,6.2
19930,5.73
19942,4.95
19954,4.11
19966,3.45
19978,3.09
19990,2.98
20002,2.94
20014,2.69
20026,2.0
20038,0.8
20050,-0.83
20061,-2.6
20072,-4.12
20084,-4.97
20096,-4.82
20108,-3.51
20120,-1.1
20132,2.17
20144,5.93
20156,9.8
20168,13.47
20180,16.71
20192,19.35
20204,21.28
20216,22.41
20228,22.73
20240,22.27
20251,21.16
20262,19.67
20274,18.11
20286,16.81
20298,15.99
20310,15.74
20322,15.95
20334,16.33
20346,16.52
20358,16.22
20370,15.28
20382,13.76
20394,11.91
20406,10.06
20418,8.6
20430,7.81
20441,7.92
20452,9.01
20464,11.02
20476,13.67
20488,16.52
20500,18.99
20512,20.41
20524,20.15
20536,17.72
20548,12.96
20560,6.11
20572,-2.11
20584,-10.58
20596,-17.99
20608,-23.13
20620,-25.28
20631,-24.36
20642,-21.0
20654,-16.34
20666,-11.66
20678,-7.94
20690,-5.68
20702,-4.75
20714,-4.64
20726,-4.71
20738,-4.48
20750,-3.8
20762,-2.82
20774,-1.79
20786,-0.91
20798,-0.22
20810,0.4
20821,1.1
20832,1.9
20844,2.68
20856,3.16
20868,3.02
20880,2.05
20892,0.15
20904,-2.53
20916,-5.69
20928,-8.92
20940,-11.86
20952,-14.38
20964,-16.61
20976,-18.86
20988,-21.48
