seconds,BVP
4,31.53
16,29.89
28,27.78
40,25.21
52,22.17
64,18.63
76,14.68
88,10.54
100,6.44
112,2.65
124,-0.74
136,-3.79
147,-6.71
158,-9.76
170,-13.17
182,-17.07
194,-21.45
206,-26.13
218,-30.86
230,-35.37
242,-39.46
254,-43.13
266,-46.6
278,-50.26
290,-54.54
302,-59.71
314,-65.66
326,-71.81
337,-77.01
348,-79.83
360,-78.89
372,-73.35
384,-63.28
396,-49.67
408,-34.22
420,-18.78
432,-4.83
444,6.82
456,16.11
468,23.37
480,29.11
492,33.7
504,37.35
516,40.15
527,42.18
538,43.56
550,44.38
562,44.69
574,44.44
586,43.6
598,42.17
610,40.33
622,38.4
634,36.74
646,35.66
658,35.3
670,35.59
682,36.23
694,36.75
706,36.68
717,35.62
728,33.45
740,30.35
752,26.75
764,23.18
776,20.04
788,17.46
800,15.24
812,13.0
824,10.39
836,7.27
848,3.73
860,0.07
872,-3.4
884,-6.47
896,-9.09
907,-11.41
918,-13.69
930,-16.2
942,-19.2
954,-22.79
966,-26.88
978,-31.2
990,-35.37
1002,-39.07
1014,-42.16
1026,-44.77
1038,-47.29
1050,-50.25
1062,-54.07
1074,-58.87
1086,-64.3
1097,-69.49
1108,-73.2
1120,-74.09
1132,-71.14
1144,-63.98
1156,-53.01
1168,-39.36
1180,-24.58
1192,-10.18
1204,2.67
1216,13.34
1228,21.69
1240,27.94
1252,32.49
1264,35.73
1276,38.02
1287,39.62
1298,40.72
1310,41.47
1322,41.92
1334,42.08
1346,41.87
1358,41.24
1370,40.18
1382,38.87
1394,37.56
1406,36.59
1418,36.19
1430,36.37
1442,36.91
1454,37.41
1466,37.42
1477,36.64
1488,35.01
1500,32.68
1512,29.97
1524,27.18
1536,24.54
1548,22.1
1560,19.76
1572,17.34
1584,14.67
1596,11.68
1608,8.44
1620,5.14
1632,1.96
1644,-0.99
1656,-3.76
1667,-6.55
1678,-9.6
1690,-13.11
1702,-17.12
1714,-21.48
1726,-25.9
1738,-30.08
1750,-33.75
1762,-36.85
1774,-39.55
1786,-42.2
1798,-45.33
1810,-49.4
1822,-54.64
1834,-60.78
1846,-66.98
1857,-71.97
1868,-74.27
1880,-72.71
1892,-66.83
1904,-56.98
1916,-44.33
1928,-30.41
1940,-16.73
1952,-4.39
1964,6.02
1976,14.4
1988,20.91
2000,25.83
2012,29.45
2024,32.04
2036,33.85
2047,35.05
2058,35.74
2070,35.92
2082,35.57
2094,34.64
2106,33.18
2118,31.27
2130,29.1
2142,26.84
2154,24.68
2166,22.79
2178,21.28
2190,20.15
2202,19.26
2214,18.34
2226,17.07
2237,15.22
2248,12.72
2260,9.73
2272,6.54
2284,3.46
2296,0.73
2308,-1.65
2320,-3.82
2332,-6.06
2344,-8.66
2356,-11.81
2368,-15.5
2380,-19.55
2392,-23.61
2404,-27.28
2416,-30.32
2427,-32.72
2438,-34.74
2450,-36.87
2462,-39.63
2474,-43.44
2486,-48.38
2498,-54.18
2510,-60.1
2522,-65.08
2534,-67.92
2546,-67.44
2558,-62.93
2570,-54.31
2582,-42.28
2594,-28.18
2606,-13.67
2617,-0.25
2628,11.09
2640,20.04
2652,26.84
2664,32.0
2676,35.98
2688,39.01
2700,41.1
2712,42.22
2724,42.47
2736,42.05
2748,41.24
2760,40.23
2772,39.1
2784,37.81
2796,36.31
2807,34.63
2818,32.94
2830,31.44
2842,30.31
2854,29.58
2866,29.16
2878,28.79
2890,28.19
2902,27.08
2914,25.27
2926,22.72
2938,19.54
2950,15.95
2962,12.24
2974,8.68
2986,5.4
2997,2.39
3008,-0.51
3020,-3.55
3032,-6.93
3044,-10.79
3056,-15.08
3068,-19.62
3080,-24.09
3092,-28.24
3104,-31.87
3116,-35.01
3128,-37.88
3140,-40.89
3152,-44.52
3164,-49.23
3176,-55.19
3187,-62.12
3198,-69.13
3210,-74.79
3222,-77.45
3234,-75.78
3246,-69.23
3258,-58.26
3270,-44.19
3282,-28.81
3294,-13.79
3306,-0.3
3318,11.11
3330,20.44
3342,27.92
3354,33.9
3366,38.67
3377,42.5
3388,45.62
3400,48.17
3412,50.2
3424,51.67
3436,52.49
3448,52.6
3460,52.05
3472,50.97
3484,49.58
3496,48.11
3508,46.78
3520,45.74
3532,45.03
3544,44.55
3556,44.06
3567,43.25
3578,41.82
3590,39.66
3602,36.86
3614,33.7
3626,30.52
3638,27.56
3650,24.84
3662,22.17
3674,19.25
3686,15.89
3698,12.09
3710,8.15
3722,4.47
3734,1.37
3746,-1.11
3757,-3.24
3768,-5.55
3780,-8.52
3792,-12.42
3804,-17.14
3816,-22.32
3828,-27.44
3840,-32.14
3852,-36.27
3864,-39.99
3876,-43.68
3888,-47.76
3900,-52.65
3912,-58.55
3924,-65.32
3936,-72.34
3947,-78.47
3958,-82.25
3970,-82.23
3982,-77.45
3994,-67.84
4006,-54.33
4018,-38.58
4030,-22.54
4042,-7.85
4054,4.56
4066,14.51
4078,22.38
4090,28.79
4102,34.24
4114,38.98
4126,43.03
4137,46.33
4148,48.83
4160,50.55
4172,51.57
4184,51.96
4196,51.73
4208,50.88
4220,49.49
4232,47.8
4244,46.17
4256,44.98
4268,44.49
4280,44.69
4292,45.29
4304,45.77
4316,45.66
4327,44.68
4338,42.82
4350,40.33
4362,37.58
4374,34.9
4386,32.39
4398,29.97
4410,27.38
4422,24.39
4434,20.85
4446,16.79
4458,12.39
4470,7.92
4482,3.64
4494,-0.28
4506,-3.81
4517,-7.09
4528,-10.31
4540,-13.7
4552,-17.37
4564,-21.32
4576,-25.36
4588,-29.24
4600,-32.76
4612,-35.73
4624,-38.16
4636,-40.2
4648,-42.15
4660,-44.47
4672,-47.65
4684,-52.06
4696,-57.73
4707,-64.08
4718,-69.94
4730,-73.78
4742,-74.08
4754,-69.88
4766,-61.12
4778,-48.65
4790,-34.02
4802,-18.95
4814,-4.96
4826,7.03
4838,16.61
4850,23.89
4862,29.2
4874,32.98
4886,35.67
4897,37.61
4908,39.04
4920,40.01
4932,40.54
4944,40.55
4956,40.06
4968,39.14
4980,37.96
4992,36.7
5004,35.54
5016,34.58
5028,33.88
5040,33.43
5052,33.12
5064,32.82
5076,32.32
5087,31.39
5098,29.87
5110,27.66
5122,24.76
5134,21.27
5146,17.35
5158,13.17
5170,8.93
5182,4.85
5194,1.12
5206,-2.11
5218,-4.83
5230,-7.23
5242,-9.63
5254,-12.36
5266,-15.63
5277,-19.42
5288,-23.43
5300,-27.34
5312,-30.83
5324,-33.86
5336,-36.65
5348,-39.56
5360,-43.01
5372,-47.27
5384,-52.38
5396,-58.04
5408,-63.53
5420,-67.82
5432,-69.71
5444,-68.1
5456,-62.42
5467,-52.81
5478,-40.2
5490,-26.06
5502,-11.97
5514,0.8
5526,11.53
5538,20.08
5550,26.7
5562,31.81
5574,35.77
5586,38.84
5598,41.17
5610,42.88
5622,44.03
5634,44.66
5646,44.78
5657,44.35
5668,43.37
5680,41.91
5692,40.09
5704,38.12
5716,36.21
5728,34.55
5740,33.2
5752,32.15
5764,31.28
5776,30.41
5788,29.31
5800,27.78
5812,25.65
5824,22.9
5836,19.58
5847,15.9
5858,12.03
5870,8.14
5882,4.31
5894,0.6
5906,-2.93
5918,-6.2
5930,-9.2
5942,-11.97
5954,-14.69
5966,-17.56
5978,-20.76
5990,-24.33
6002,-28.12
6014,-31.88
6026,-35.3
6037,-38.24
6048,-40.72
6060,-43.03
6072,-45.65
6084,-49.08
6096,-53.67
6108,-59.35
6120,-65.48
6132,-70.9
6144,-74.11
6156,-73.73
6168,-68.95
6180,-59.84
6192,-47.33
6204,-33.0
6216,-18.53
6227,-5.3
6238,5.9
6250,14.87
6262,21.84
6274,27.19
6286,31.27
6298,34.36
6310,36.66
6322,38.36
6334,39.6
6346,40.44
6358,40.87
6370,40.79
6382,40.13
6394,38.92
6406,37.3
6417,35.53
6428,33.9
6440,32.66
6452,31.91
6464,31.59
6476,31.5
6488,31.33
6500,30.81
6512,29.78
6524,28.21
6536,26.22
6548,23.94
6560,21.49
6572,18.96
6584,16.37
6596,13.72
6607,10.98
6618,8.14
6630,5.17
6642,2.1
6654,-1.01
6666,-4.03
6678,-6.88
6690,-9.49
6702,-11.95
6714,-14.43
6726,-17.17
6738,-20.33
6750,-23.95
6762,-27.89
6774,-31.89
6786,-35.71
6797,-39.22
6808,-42.44
6820,-45.54
6832,-48.82
6844,-52.62
6856,-57.21
6868,-62.66
6880,-68.66
6892,-74.45
6904,-78.82
6916,-80.42
6928,-78.12
6940,-71.44
6952,-60.75
6964,-47.26
6976,-32.58
6987,-18.32
6998,-5.62
7010,4.96
7022,13.39
7034,19.96
7046,25.1
7058,29.18
7070,32.51
7082,35.31
7094,37.67
7106,39.62
7118,41.08
7130,41.94
7142,42.09
7154,41.54
7166,40.42
7177,39.0
7188,37.63
7200,36.59
7212,36.05
7224,35.98
7236,36.18
7248,36.34
7260,36.16
7272,35.39
7284,33.93
7296,31.83
7308,29.22
7320,26.33
7332,23.38
7344,20.57
7356,17.96
7367,15.44
7378,12.75
7390,9.62
7402,5.93
7414,1.77
7426,-2.54
7438,-6.6
7450,-10.19
7462,-13.32
7474,-16.25
7486,-19.26
7498,-22.53
7510,-25.93
7522,-29.17
7534,-31.93
7546,-34.05
7557,-35.6
7568,-36.89
7580,-38.29
7592,-40.18
7604,-42.84
7616,-46.44
7628,-51.02
7640,-56.33
7652,-61.83
7664,-66.55
7676,-69.24
7688,-68.68
7700,-63.97
7712,-54.96
7724,-42.32
7736,-27.43
7747,-11.98
7758,2.44
7770,14.78
7782,24.64
7794,32.22
7806,38.04
7818,42.63
7830,46.27
7842,49.01
7854,50.7
7866,51.25
7878,50.73
7890,49.41
7902,47.64
7914,45.72
7926,43.76
7937,41.71
7948,39.47
7960,37.07
7972,34.68
7984,32.58
7996,31.0
8008,29.89
8020,28.96
8032,27.78
8044,25.95
8056,23.32
8068,20.0
8080,16.3
8092,12.57
8104,9.01
8116,5.61
8127,2.19
8138,-1.49
8150,-5.58
8162,-10.09
8174,-14.85
8186,-19.6
8198,-24.1
8210,-28.23
8222,-31.99
8234,-35.58
8246,-39.24
8258,-43.31
8270,-48.05
8282,-53.64
8294,-59.97
8306,-66.53
8317,-72.36
8328,-76.1
8340,-76.38
8352,-72.18
8364,-63.34
8376,-50.6
8388,-35.5
8400,-19.83
8412,-5.17
8424,7.55
8436,18.05
8448,26.53
8460,33.3
8472,38.59
8484,42.42
8496,44.76
8507,45.68
8518,45.42
8530,44.35
8542,42.81
8554,41.03
8566,39.09
8578,36.98
8590,34.76
8602,32.6
8614,30.78
8626,29.54
8638,29.0
8650,29.05
8662,29.44
8674,29.82
8686,29.88
8697,29.45
8708,28.48
8720,27.0
8732,25.11
8744,22.94
8756,20.62
8768,18.31
8780,16.16
8792,14.24
8804,12.47
8816,10.61
8828,8.34
8840,5.37
8852,1.57
8864,-2.95
8876,-7.88
8887,-12.83
8898,-17.48
8910,-21.72
8922,-25.68
8934,-29.65
8946,-34.02
8958,-39.16
8970,-45.28
8982,-52.34
8994,-59.87
9006,-66.91
9018,-72.08
9030,-73.9
9042,-71.23
9054,-63.73
9066,-52.0
9077,-37.5
9088,-22.03
9100,-7.24
9112,5.76
9124,16.56
9136,25.21
9148,32.02
9160,37.27
9172,41.19
9184,44.01
9196,45.98
9208,47.4
9220,48.42
9232,49.1
9244,49.32
9256,48.92
9267,47.81
9278,46.12
9290,44.13
9302,42.18
9314,40.56
9326,39.4
9338,38.64
9350,38.13
9362,37.61
9374,36.81
9386,35.53
9398,33.64
9410,31.14
9422,28.2
9434,25.08
9446,22.03
9457,19.21
9468,16.58
9480,13.99
9492,11.2
9504,8.03
9516,4.45
9528,0.52
9540,-3.55
9552,-7.6
9564,-11.51
9576,-15.28
9588,-19.01
9600,-22.84
9612,-26.84
9624,-30.97
9636,-35.09
9647,-39.01
9658,-42.58
9670,-45.75
9682,-48.63
9694,-51.51
9706,-54.76
9718,-58.83
9730,-63.96
9742,-69.98
9754,-76.16
9766,-81.25
9778,-83.72
9790,-82.24
9802,-76.1
9814,-65.48
9826,-51.45
9837,-35.59
9848,-19.64
9860,-5.0
9872,7.49
9884,17.54
9896,25.37
9908,31.4
9920,36.1
9932,39.84
9944,42.83
9956,45.12
9968,46.67
9980,47.43
9992,47.4
10004,46.69
10016,45.51
10027,44.12
10038,42.81
10050,41.82
10062,41.28
10074,41.23
10086,41.55
10098,42.07
10110,42.51
10122,42.64
10134,42.21
10146,41.13
10158,39.38
10170,37.06
10182,34.35
10194,31.5
10206,28.73
10217,26.2
10228,23.96
10240,21.93
10252,19.91
10264,17.64
10276,14.93
10288,11.73
10300,8.12
10312,4.37
10324,0.78
10336,-2.44
10348,-5.23
10360,-7.72
10372,-10.18
10384,-12.9
10396,-16.11
10407,-19.9
10418,-24.14
10430,-28.58
10442,-32.88
10454,-36.81
10466,-40.26
10478,-43.35
10490,-46.35
10502,-49.64
10514,-53.62
10526,-58.58
10538,-64.57
10550,-71.17
10562,-77.4
10574,-81.88
10586,-83.08
10597,-79.85
10608,-71.88
10620,-59.84
10632,-45.23
10644,-29.89
10656,-15.44
10668,-2.91
10680,7.38
10692,15.57
10704,22.07
10716,27.22
10728,31.29
10740,34.5
10752,37.03
10764,39.13
10776,40.97
10787,42.6
10798,43.91
10810,44.63
10822,44.55
10834,43.61
10846,42.01
10858,40.15
10870,38.51
10882,37.39
10894,36.86
10906,36.72
10918,36.6
10930,36.15
10942,35.15
10954,33.54
10966,31.39
10977,28.77
10988,25.73
11000,22.26
11012,18.35
11024,14.06
11036,9.57
11048,5.12
11060,0.96
11072,-2.83
11084,-6.32
11096,-9.78
11108,-13.48
11120,-17.61
11132,-22.13
11144,-26.78
11156,-31.25
11167,-35.32
11178,-38.93
11190,-42.27
11202,-45.62
11214,-49.26
11226,-53.45
11238,-58.32
11250,-63.78
11262,-69.46
11274,-74.52
11286,-77.76
11298,-77.85
11310,-73.76
11322,-65.18
11334,-52.75
11346,-37.84
11357,-22.2
11368,-7.41
11380,5.46
11392,15.9
11404,23.93
11416,29.85
11428,34.05
11440,36.96
11452,38.95
11464,40.3
11476,41.21
11488,41.79
11500,42.06
11512,41.98
11524,41.52
11536,40.68
11547,39.48
11558,38.05
11570,36.6
11582,35.38
11594,34.56
11606,34.2
11618,34.13
11630,34.02
11642,33.47
11654,32.14
11666,29.87
11678,26.68
11690,22.76
11702,18.39
11714,13.86
11726,9.48
11737,5.43
11748,1.81
11760,-1.47
11772,-4.64
11784,-8.0
11796,-11.77
11808,-15.99
11820,-20.52
11832,-25.06
11844,-29.34
11856,-33.16
11868,-36.56
11880,-39.83
11892,-43.39
11904,-47.75
11916,-53.25
11927,-59.87
11938,-67.07
11950,-73.76
11962,-78.51
11974,-79.83
11986,-76.73
11998,-68.97
12010,-57.18
12022,-42.73
12034,-27.24
12046,-12.22
12058,1.28
12070,12.72
12082,22.03
12094,29.37
12106,35.06
12117,39.41
12128,42.77
12140,45.48
12152,47.77
12164,49.75
12176,51.34
12188,52.32
12200,52.49
12212,51.77
12224,50.32
12236,48.48
12248,46.72
12260,45.42
12272,44.77
12284,44.68
12296,44.83
12307,44.76
12318,44.01
12330,42.25
12342,39.36
12354,35.48
12366,30.96
12378,26.25
12390,21.69
12402,17.44
12414,13.38
12426,9.22
12438,4.68
12450,-0.31
12462,-5.57
12474,-10.71
12486,-15.34
12497,-19.3
12508,-22.8
12520,-26.22
12532,-30.05
12544,-34.55
12556,-39.69
12568,-45.19
12580,-50.67
12592,-55.86
12604,-60.69
12616,-65.29
12628,-69.93
12640,-74.92
12652,-80.58
12664,-87.17
12676,-94.75
12687,-102.97
12698,-110.96
12710,-117.37
12722,-120.68
12734,-119.62
12746,-113.67
12758,-103.26
12770,-89.75
12782,-74.96
12794,-60.71
12806,-48.33
12818,-38.46
12830,-31.13
12842,-25.93
12854,-22.31
12866,-19.72
12877,-17.72
12888,-16.04
12900,-14.53
12912,-13.19
12924,-12.11
12936,-11.46
12948,-11.34
12960,-11.8
12972,-12.69
12984,-13.74
12996,-14.53
13008,-14.59
13020,-13.51
13032,-11.05
13044,-7.19
13056,-2.17
13067,3.63
13078,9.84
13090,16.2
13102,22.62
13114,29.12
13126,35.75
13138,42.41
13150,48.88
13162,54.84
13174,59.99
13186,64.16
13198,67.31
13210,69.46
13222,70.69
13234,71.03
13246,70.56
13257,69.37
13268,67.61
13280,65.41
13292,62.82
13304,59.69
13316,55.78
13328,50.87
13340,44.9
13352,38.05
13364,30.7
13376,23.29
13388,16.06
13400,9.07
13412,2.12
13424,-5.05
13436,-12.65
13447,-20.79
13458,-29.41
13470,-38.34
13482,-47.2
13494,-55.35
13506,-61.7
13518,-64.99
13530,-64.02
13542,-58.18
13554,-47.76
13566,-33.94
13578,-18.39
13590,-2.78
13602,11.77
13614,24.77
13626,36.28
13637,46.53
13648,55.65
13660,63.64
13672,70.42
13684,75.96
13696,80.48
13708,84.25
13720,87.57
13732,90.55
13744,93.08
13756,94.96
13768,96.02
13780,96.25
13792,95.87
13804,95.23
13816,94.66
13827,94.29
13838,94.05
13850,93.62
13862,92.73
13874,91.16
13886,88.89
13898,86.07
13910,82.86
13922,79.4
13934,75.74
13946,71.87
13958,67.8
13970,63.53
13982,59.07
13994,54.4
14006,49.4
14017,43.97
14028,38.06
14040,31.78
14052,25.41
14064,19.23
14076,13.41
14088,7.83
14100,2.04
14112,-4.52
14124,-12.37
14136,-21.82
14148,-32.81
14160,-44.98
14172,-57.62
14184,-69.69
14196,-79.95
14207,-87.09
14218,-90.0
14230,-88.17
14242,-81.84
14254,-72.0
14266,-60.15
14278,-47.86
14290,-36.43
14302,-26.61
14314,-18.68
14326,-12.51
14338,-7.85
14350,-4.44
14362,-2.05
14374,-0.52
14386,0.3
14397,0.57
14408,0.39
14420,-0.15
14432,-1.05
14444,-2.3
14456,-3.85
14468,-5.5
14480,-7.02
14492,-8.13
14504,-8.65
14516,-8.58
14528,-8.14
14540,-7.64
14552,-7.45
14564,-7.79
14576,-8.76
14587,-10.32
14598,-12.34
14610,-14.74
14622,-17.48
14634,-20.55
14646,-23.93
14658,-27.51
14670,-31.13
14682,-34.55
14694,-37.59
14706,-40.22
14718,-42.55
14730,-44.83
14742,-47.4
14754,-50.56
14766,-54.55
14777,-59.38
14788,-64.69
14800,-69.75
14812,-73.49
14824,-74.71
14836,-72.44
14848,-66.25
14860,-56.41
14872,-43.87
14884,-30.0
14896,-16.22
14908,-3.65
14920,7.04
14932,15.7
14944,22.54
14956,27.91
14967,32.1
14978,35.26
14990,37.36
15002,38.38
15014,38.36
15026,37.56
15038,36.34
15050,35.06
15062,33.96
15074,33.14
15086,32.56
15098,32.15
15110,31.9
15122,31.77
15134,31.73
15146,31.66
15157,31.33
15168,30.46
15180,28.74
15192,25.91
15204,21.88
15216,16.67
15228,10.47
15240,3.63
15252,-3.48
15264,-10.47
15276,-17.09
15288,-23.28
15300,-29.18
15312,-35.12
15324,-41.47
15336,-48.53
15347,-56.27
15358,-64.26
15370,-71.62
15382,-77.17
15394,-79.71
15406,-78.34
15418,-72.74
15430,-63.26
15442,-50.93
15454,-37.11
15466,-23.25
15478,-10.5
15490,0.44
15502,9.31
15514,16.17
15526,21.25
15537,24.82
15548,27.11
15560,28.35
15572,28.76
15584,28.56
15596,27.91
15608,26.96
15620,25.82
15632,24.62
15644,23.57
15656,22.88
15668,22.71
15680,23.03
15692,23.56
15704,23.93
15716,23.74
15727,22.74
15738,20.88
15750,18.28
15762,15.1
15774,11.51
15786,7.58
15798,3.39
15810,-0.95
15822,-5.33
15834,-9.58
15846,-13.56
15858,-17.23
15870,-20.6
15882,-23.79
15894,-26.92
15906,-30.26
15917,-34.05
15928,-38.55
15940,-43.82
15952,-49.55
15964,-54.94
15976,-58.77
15988,-59.67
16000,-56.59
16012,-49.18
16024,-37.95
16036,-24.19
16048,-9.56
16060,4.4
16072,16.55
16084,26.39
16096,33.92
16107,39.45
16118,43.39
16130,46.07
16142,47.74
16154,48.58
16166,48.76
16178,48.44
16190,47.83
16202,47.09
16214,46.27
16226,45.32
16238,44.08
16250,42.47
16262,40.56
16274,38.62
16286,36.99
16297,35.97
16308,35.62
16320,35.66
16332,35.56
16344,34.71
16356,32.64
16368,29.25
16380,24.8
16392,19.77
16404,14.75
16416,10.13
16428,6.05
16440,2.4
16452,-1.21
16464,-5.16
16476,-9.74
16487,-15.01
16498,-20.77
16510,-26.64
16522,-32.19
16534,-37.15
16546,-41.46
16558,-45.3
16570,-49.09
16582,-53.3
16594,-58.38
16606,-64.57
16618,-71.76
16630,-79.32
16642,-86.15
16654,-90.74
16666,-91.64
16677,-87.8
16688,-79.04
16700,-66.15
16712,-50.71
16724,-34.64
16736,-19.64
16748,-6.79
16760,3.57
16772,11.66
16784,18.03
16796,23.19
16808,27.49
16820,31.09
16832,34.02
16844,36.31
16856,37.98
16867,39.15
16878,39.92
16890,40.34
16902,40.48
16914,40.38
16926,40.12
16938,39.88
16950,39.79
16962,39.99
16974,40.42
16986,40.92
16998,41.2
17010,41.01
17022,40.2
17034,38.77
17046,36.84
17057,34.54
17068,31.93
17080,28.99
17092,25.68
17104,22.01
17116,18.1
17128,14.18
17140,10.48
17152,7.13
17164,4.08
17176,1.15
17188,-1.89
17200,-5.2
17212,-8.76
17224,-12.44
17236,-16.0
17247,-19.3
17258,-22.28
17270,-25.08
17282,-28.0
17294,-31.39
17306,-35.6
17318,-40.83
17330,-46.95
17342,-53.34
17354,-58.91
17366,-62.27
17378,-62.07
17390,-57.48
17402,-48.49
17414,-35.99
17426,-21.55
17437,-6.88
17448,6.51
17460,17.7
17472,26.39
17484,32.75
17496,37.22
17508,40.24
17520,42.21
17532,43.41
17544,44.05
17556,44.26
17568,44.12
17580,43.69
17592,42.99
17604,42.06
17616,40.95
17627,39.74
17638,38.52
17650,37.34
17662,36.22
17674,35.16
17686,34.11
17698,32.99
17710,31.67
17722,30.06
17734,28.06
17746,25.65
17758,22.89
17770,19.89
17782,16.77
17794,13.6
17806,10.42
17817,7.22
17828,4.05
17840,0.94
17852,-2.03
17864,-4.82
17876,-7.47
17888,-10.09
17900,-12.82
17912,-15.77
17924,-18.98
17936,-22.38
17948,-25.86
17960,-29.25
17972,-32.45
17984,-35.44
17996,-38.37
18007,-41.52
18018,-45.23
18030,-49.72
18042,-54.88
18054,-60.14
18066,-64.48
18078,-66.65
18090,-65.53
18102,-60.51
18114,-51.7
18126,-39.93
18138,-26.56
18150,-13.09
18162,-0.81
18174,9.44
18186,17.3
18197,22.85
18208,26.42
18220,28.48
18232,29.48
18244,29.83
18256,29.84
18268,29.74
18280,29.64
18292,29.56
18304,29.42
18316,29.11
18328,28.5
18340,27.54
18352,26.31
18364,25.01
18376,23.85
18387,22.95
18398,22.32
18410,21.75
18422,20.97
18434,19.78
18446,18.1
18458,15.99
18470,13.6
18482,11.09
18494,8.5
18506,5.82
18518,3.0
18530,0.05
18542,-3.05
18554,-6.25
18566,-9.55
18577,-12.94
18588,-16.39
18600,-19.84
18612,-23.2
18624,-26.41
18636,-29.45
18648,-32.38
18660,-35.23
18672,-37.99
18684,-40.55
18696,-42.75
18708,-44.53
18720,-46.05
18732,-47.68
18744,-49.84
18756,-52.76
18767,-56.2
18778,-59.33
18790,-60.95
18802,-59.79
18814,-54.97
18826,-46.35
18838,-34.56
18850,-20.9
18862,-6.89
18874,6.06
18886,16.99
18898,25.47
18910,31.54
18922,35.53
18934,37.86
18946,38.95
18957,39.15
18968,38.7
18980,37.83
18992,36.72
19004,35.48
19016,34.22
19028,32.96
19040,31.74
19052,30.59
19064,29.55
19076,28.65
19088,27.89
19100,27.23
19112,26.58
19124,25.82
19136,24.82
19147,23.47
19158,21.72
19170,19.55
19182,17.02
19194,14.26
19206,11.37
19218,8.44
19230,5.51
19242,2.53
19254,-0.54
19266,-3.73
19278,-6.98
19290,-10.21
19302,-13.34
19314,-16.33
19326,-19.21
19337,-22.1
19348,-25.09
19360,-28.25
19372,-31.5
19384,-34.69
19396,-37.64
19408,-40.19
19420,-42.35
19432,-44.3
19444,-46.43
19456,-49.15
19468,-52.8
19480,-57.37
19492,-62.41
19504,-67.01
19516,-69.93
19527,-69.98
19538,-66.34
19550,-58.88
19562,-48.17
19574,-35.43
19586,-22.07
19598,-9.45
19610,1.49
19622,10.3
19634,16.96
19646,21.74
19658,25.09
19670,27.44
19682,29.12
19694,30.32
19706,31.12
19717,31.57
19728,31.72
19740,31.66
19752,31.54
19764,31.48
19776,31.56
19788,31.78
19800,32.08
19812,32.35
19824,32.49
19836,32.39
19848,31.94
19860,31.05
19872,29.68
19884,27.87
19896,25.71
19907,23.33
19918,20.81
19930,18.17
19942,15.4
19954,12.47
19966,9.42
19978,6.3
19990,3.15
20002,-0.01
20014,-3.25
20026,-6.65
20038,-10.25
20050,-14.01
20062,-17.82
20074,-21.58
20086,-25.21
20097,-28.72
20108,-32.15
20120,-35.6
20132,-39.21
20144,-43.16
20156,-47.61
20168,-52.68
20180,-58.29
20192,-63.96
20204,-68.84
20216,-71.77
20228,-71.61
20240,-67.62
20252,-59.73
20264,-48.64
20276,-35.61
20287,-22.1
20298,-9.39
20310,1.67
20322,10.71
20334,17.75
20346,23.0
20358,26.75
20370,29.29
20382,30.9
20394,31.9
20406,32.52
20418,32.94
20430,33.22
20442,33.33
20454,33.21
20466,32.78
20477,32.06
20488,31.14
20500,30.2
20512,29.39
20524,28.87
20536,28.66
20548,28.61
20560,28.4
20572,27.69
20584,26.16
20596,23.69
20608,20.38
20620,16.49
20632,12.37
20644,8.31
20656,4.45
20667,0.74
20678,-2.96
20690,-6.83
20702,-10.98
20714,-15.34
20726,-19.75
20738,-23.95
20750,-27.75
20762,-31.05
20774,-33.93
20786,-36.64
20798,-39.52
20810,-42.9
20822,-47.03
20834,-51.91
20846,-57.22
20857,-62.2
20868,-65.71
20880,-66.47
20892,-63.42
20904,-56.14
20916,-45.03
20928,-31.28
20940,-16.51
20952,-2.32
20964,10.07
20976,20.07
20988,27.71
