seconds,BVP
4,-4.57
16,-3.52
28,-4.48
40,-8.72
52,-17.11
64,-29.83
76,-46.29
88,-65.04
99,-83.69
110,-98.95
122,-107.05
134,-104.61
146,-89.74
158,-62.98
170,-27.36
182,12.41
194,51.37
206,85.57
218,112.66
230,131.75
242,142.68
254,145.64
266,141.16
278,130.42
289,115.43
300,98.68
312,82.41
324,67.85
336,54.93
348,42.7
360,30.01
372,16.28
384,1.8
396,-12.41
408,-24.96
420,-34.49
432,-40.08
444,-41.38
456,-38.77
468,-33.31
479,-26.49
490,-19.8
502,-14.34
514,-10.57
526,-8.26
538,-6.86
550,-5.72
562,-4.44
574,-2.89
586,-1.13
598,0.76
610,2.72
622,4.72
634,6.7
646,8.49
658,9.85
669,10.65
680,10.98
692,11.21
704,11.9
716,13.63
728,16.74
740,21.26
752,26.92
764,33.33
776,40.14
788,47.28
800,54.92
812,63.33
824,72.68
836,82.75
848,92.79
859,101.59
870,107.82
882,110.55
894,109.74
906,106.22
918,101.43
930,96.78
942,93.08
954,90.27
966,87.64
978,84.29
990,79.5
1002,72.91
1014,64.46
1026,54.15
1038,41.95
1049,27.76
1060,11.59
1072,-6.29
1084,-25.29
1096,-44.39
1108,-62.27
1120,-77.47
1132,-88.66
1144,-95.13
1156,-97.13
1168,-95.95
1180,-93.66
1192,-92.44
1204,-93.88
1216,-98.48
1228,-105.6
1239,-113.79
1250,-121.4
1262,-127.08
1274,-130.02
1286,-129.95
1298,-126.91
1310,-121.09
1322,-112.87
1334,-103.01
1346,-92.62
1358,-82.87
1370,-74.43
1382,-66.87
1394,-58.76
1406,-48.24
1418,-33.91
1429,-15.64
1440,5.41
1452,27.35
1464,48.33
1476,67.09
1488,82.83
1500,94.71
1512,101.45
1524,101.46
1536,93.72
1548,78.77
1560,59.12
1572,38.62
1584,21.06
1596,8.57
1608,0.89
1619,-4.22
1630,-9.7
1642,-17.76
1654,-29.02
1666,-42.74
1678,-57.65
1690,-72.86
1702,-88.12
1714,-103.41
1726,-118.29
1738,-131.46
1750,-141.1
1762,-145.68
1774,-144.83
1786,-139.62
1798,-132.08
1809,-124.22
1820,-117.21
1832,-110.93
1844,-104.32
1856,-96.19
1868,-85.85
1880,-73.47
1892,-59.87
1904,-46.03
1916,-32.62
1928,-19.83
1940,-7.43
1952,4.94
1964,17.58
1976,30.59
1988,43.95
1999,57.56
2010,71.25
2022,84.8
2034,97.88
2046,110.08
2058,120.92
2070,129.94
2082,136.74
2094,141.11
2106,143.07
2118,142.81
2130,140.71
2142,137.17
2154,132.66
2166,127.62
2178,122.46
2189,117.51
2200,112.86
2212,108.36
2224,103.61
2236,98.11
2248,91.37
2260,82.97
2272,72.47
2284,59.49
2296,43.75
2308,25.44
2320,5.53
2332,-14.14
2344,-31.2
2356,-43.51
2368,-49.88
2379,-50.54
2390,-46.96
2402,-41.21
2414,-35.15
2426,-29.88
2438,-25.65
2450,-22.22
2462,-19.25
2474,-16.66
2486,-14.63
2498,-13.5
2510,-13.5
2522,-14.6
2534,-16.47
2546,-18.62
2558,-20.55
2569,-21.93
2580,-22.67
2592,-22.91
2604,-22.92
2616,-22.89
2628,-22.88
2640,-22.75
2652,-22.25
2664,-21.24
2676,-19.78
2688,-18.13
2700,-16.66
2712,-15.63
2724,-15.06
2736,-14.75
2748,-14.39
2759,-13.82
2770,-13.09
2782,-12.47
2794,-12.3
2806,-12.82
2818,-14.05
2830,-15.81
2842,-17.73
2854,-19.32
2866,-20.02
2878,-19.29
2890,-16.66
2902,-11.98
2914,-5.49
2926,2.16
2938,10.06
2949,17.39
2960,23.56
2972,28.38
2984,31.95
2996,34.46
3008,35.99
3020,36.5
3032,35.86
3044,34.01
3056,31.07
3068,27.33
3080,23.24
3092,19.26
3104,15.77
3116,13.04
3128,11.16
3139,10.07
3150,9.65
3162,9.76
3174,10.31
3186,11.2
3198,12.35
3210,13.59
3222,14.68
3234,15.31
3246,15.28
3258,14.48
3270,13.03
3282,11.16
3294,9.09
3306,7.0
3318,4.94
3329,2.9
3340,0.91
3352,-0.93
3364,-2.51
3376,-3.72
3388,-4.61
3400,-5.31
3412,-6.03
3424,-6.93
3436,-7.97
3448,-8.9
3460,-9.21
3472,-8.28
3484,-5.62
3496,-1.11
3508,4.85
3519,11.33
3530,17.2
3542,21.48
3554,23.63
3566,23.65
3578,21.9
3590,18.93
3602,15.34
3614,11.78
3626,8.99
3638,7.68
3650,8.32
3662,10.76
3674,14.15
3686,17.15
3698,18.39
3709,17.0
3720,12.95
3732,6.97
3744,0.15
3756,-6.42
3768,-11.9
3780,-15.78
3792,-17.75
3804,-17.7
3816,-15.73
3828,-12.22
3840,-7.86
3852,-3.46
3864,0.23
3876,2.7
3888,3.79
3899,3.63
3910,2.46
3922,0.54
3934,-1.91
3946,-4.75
3958,-7.89
3970,-11.38
3982,-15.36
3994,-20.04
4006,-25.58
4018,-31.88
4030,-38.52
4042,-44.78
4054,-49.84
4066,-53.02
4078,-54.04
4089,-53.16
4100,-50.98
4112,-48.36
4124,-46.08
4136,-44.7
4148,-44.49
4160,-45.41
4172,-47.16
4184,-49.26
4196,-51.1
4208,-52.1
4220,-51.78
4232,-49.99
4244,-46.81
4256,-42.57
4268,-37.63
4279,-32.28
4290,-26.61
4302,-20.6
4314,-14.23
4326,-7.62
4338,-1.08
4350,5.02
4362,10.33
4374,14.68
4386,18.14
4398,20.93
4410,23.27
4422,25.28
4434,26.93
4446,28.08
4458,28.67
4469,28.73
4480,28.5
4492,28.3
4504,28.34
4516,28.63
4528,28.86
4540,28.58
4552,27.31
4564,24.75
4576,20.91
4588,16.11
4600,10.86
4612,5.67
4624,0.93
4636,-3.18
4648,-6.73
4659,-9.94
4670,-13.11
4682,-16.54
4694,-20.31
4706,-24.29
4718,-28.03
4730,-30.88
4742,-32.19
4754,-31.47
4766,-28.6
4778,-23.79
4790,-17.55
4802,-10.56
4814,-3.44
4826,3.23
4838,9.04
4849,13.68
4860,17.01
4872,19.03
4884,19.91
4896,19.93
4908,19.41
4920,18.65
4932,17.87
4944,17.15
4956,16.54
4968,16.04
4980,15.68
4992,15.55
5004,15.72
5016,16.28
5028,17.2
5039,18.39
5050,19.68
5062,20.89
5074,21.83
5086,22.41
5098,22.59
5110,22.39
5122,21.89
5134,21.2
5146,20.35
5158,19.33
5170,18.06
5182,16.5
5194,14.67
5206,12.68
5218,10.63
5229,8.59
5240,6.51
5252,4.27
5264,1.86
5276,-0.58
5288,-2.77
5300,-4.45
5312,-5.55
5324,-6.27
5336,-7.05
5348,-8.32
5360,-10.35
5372,-13.16
5384,-16.56
5396,-20.32
5408,-24.19
5419,-27.85
5430,-30.81
5442,-32.42
5454,-32.0
5466,-29.13
5478,-23.81
5490,-16.61
5502,-8.48
5514,-0.43
5526,6.73
5538,12.58
5550,17.1
5562,20.54
5574,23.16
5586,25.14
5598,26.55
5609,27.41
5620,27.74
5632,27.62
5644,27.26
5656,26.83
5668,26.51
5680,26.38
5692,26.44
5704,26.65
5716,26.94
5728,27.25
5740,27.49
5752,27.53
5764,27.2
5776,26.28
5788,24.59
5799,22.15
5810,19.18
5822,16.12
5834,13.45
5846,11.53
5858,10.45
5870,9.98
5882,9.72
5894,9.3
5906,8.51
5918,7.37
5930,6.08
5942,4.86
5954,3.84
5966,3.06
5978,2.45
5989,1.92
6000,1.42
6012,0.91
6024,0.42
6036,-0.02
6048,-0.38
6060,-0.7
6072,-1.09
6084,-1.74
6096,-2.85
6108,-4.54
6120,-6.73
6132,-9.09
6144,-10.96
6156,-11.58
6168,-10.23
6179,-6.47
6190,-0.33
6202,7.67
6214,16.64
6226,25.6
6238,33.68
6250,40.44
6262,45.85
6274,50.22
6286,53.94
6298,57.25
6310,60.14
6322,62.42
6334,63.86
6346,64.46
6358,64.44
6369,64.17
6380,64.05
6392,64.22
6404,64.62
6416,65.05
6428,65.2
6440,64.78
6452,63.47
6464,60.95
6476,57.04
6488,51.76
6500,45.43
6512,38.54
6524,31.56
6536,24.65
6548,17.59
6559,9.96
6570,1.43
6582,-7.94
6594,-17.55
6606,-26.35
6618,-33.13
6630,-36.84
6642,-36.88
6654,-33.32
6666,-27.03
6678,-19.68
6690,-13.56
6702,-11.17
6714,-14.62
6726,-24.98
6738,-41.94
6749,-63.78
6760,-87.85
6772,-111.24
6784,-131.32
6796,-146.01
6808,-153.8
6820,-153.86
6832,-146.18
6844,-131.91
6856,-113.45
6868,-94.08
6880,-77.07
6892,-64.68
6904,-57.5
6916,-54.5
6928,-53.73
6939,-53.25
6950,-51.8
6962,-48.93
6974,-44.83
6986,-39.92
6998,-34.7
7010,-29.63
7022,-25.21
7034,-21.89
7046,-19.87
7058,-19.03
7070,-18.91
7082,-18.9
7094,-18.37
7106,-16.77
7118,-13.57
7129,-8.26
7140,-0.4
7152,10.18
7164,23.08
7176,37.31
7188,51.41
7200,63.92
7212,73.82
7224,80.83
7236,85.47
7248,88.74
7260,91.76
7272,95.44
7284,100.27
7296,106.18
7308,112.55
7319,118.15
7330,121.32
7342,120.23
7354,113.39
7366,100.25
7378,81.63
7390,59.73
7402,37.77
7414,19.15
7426,6.54
7438,1.23
7450,2.88
7462,9.74
7474,19.31
7486,28.99
7498,36.69
7509,41.04
7520,41.42
7532,37.78
7544,30.56
7556,20.64
7568,9.19
7580,-2.43
7592,-13.03
7604,-21.92
7616,-29.06
7628,-35.01
7640,-40.52
7652,-46.08
7664,-51.51
7676,-55.95
7688,-58.16
7699,-57.11
7710,-52.47
7722,-44.86
7734,-35.68
7746,-26.42
7758,-18.07
7770,-10.55
7782,-2.73
7794,6.93
7806,19.42
7818,34.28
7830,49.4
7842,61.54
7854,67.6
7866,65.75
7878,56.14
7889,40.8
7900,22.81
7912,5.4
7924,-8.96
7936,-18.94
7948,-24.41
7960,-26.18
7972,-25.65
7984,-24.32
7996,-23.43
8008,-23.57
8020,-24.6
8032,-25.74
8044,-25.97
8056,-24.41
8068,-20.77
8079,-15.37
8090,-9.1
8102,-3.23
8114,0.97
8126,2.5
8138,0.95
8150,-3.32
8162,-9.31
8174,-15.57
8186,-20.66
8198,-23.55
8210,-23.88
8222,-21.98
8234,-18.77
8246,-15.38
8258,-12.92
8269,-12.16
8280,-13.37
8292,-16.31
8304,-20.36
8316,-24.62
8328,-28.14
8340,-30.12
8352,-30.03
8364,-27.83
8376,-23.96
8388,-19.24
8400,-14.58
8412,-10.76
8424,-8.17
8436,-6.73
8448,-6.09
8459,-5.84
8470,-5.69
8482,-5.61
8494,-5.74
8506,-6.2
8518,-7.01
8530,-8.11
8542,-9.53
8554,-11.4
8566,-14.03
8578,-17.76
8590,-22.69
8602,-28.61
8614,-34.89
8626,-40.61
8638,-44.72
8649,-46.31
8660,-44.9
8672,-40.67
8684,-34.51
8696,-27.81
8708,-21.97
8720,-17.93
8732,-15.8
8744,-15.02
8756,-14.77
8768,-14.44
8780,-13.84
8792,-13.07
8804,-12.24
8816,-11.28
8828,-10.05
8839,-8.62
8850,-7.48
8862,-7.37
8874,-8.83
8886,-11.8
8898,-15.49
8910,-18.74
8922,-20.6
8934,-20.71
8946,-19.42
8958,-17.47
8970,-15.5
8982,-13.72
8994,-11.76
9006,-8.86
9018,-4.04
9029,3.46
9040,13.89
9052,26.74
9064,40.62
9076,53.58
9088,63.57
9100,69.14
9112,69.87
9124,66.56
9136,60.78
9148,54.28
9160,48.35
9172,43.48
9184,39.42
9196,35.47
9208,30.88
9219,25.1
9230,17.95
9242,9.75
9254,1.3
9266,-6.28
9278,-11.8
9290,-14.35
9302,-13.6
9314,-10.0
9326,-4.58
9338,1.37
9350,6.69
9362,10.65
9374,13.0
9386,13.82
9398,13.36
9409,11.87
9420,9.71
9432,7.43
9444,5.78
9456,5.6
9468,7.5
9480,11.48
9492,16.83
9504,22.21
9516,26.19
9528,27.79
9540,26.81
9552,23.85
9564,19.91
9576,15.88
9588,12.14
9599,8.5
9610,4.46
9622,-0.35
9634,-5.85
9646,-11.49
9658,-16.44
9670,-19.92
9682,-21.46
9694,-20.98
9706,-18.65
9718,-14.77
9730,-9.63
9742,-3.49
9754,3.27
9766,10.12
9778,16.41
9789,21.58
9800,25.2
9812,27.15
9824,27.43
9836,26.01
9848,22.67
9860,17.01
9872,8.66
9884,-2.48
9896,-15.96
9908,-30.74
9920,-45.42
9932,-58.58
9944,-69.18
9956,-76.83
9968,-81.84
9979,-85.01
9990,-87.29
10002,-89.41
10014,-91.73
10026,-94.18
10038,-96.43
10050,-98.04
10062,-98.57
10074,-97.67
10086,-95.13
10098,-90.94
10110,-85.31
10122,-78.67
10134,-71.56
10146,-64.44
10158,-57.62
10169,-51.11
10180,-44.67
10192,-37.99
10204,-30.78
10216,-22.95
10228,-14.59
10240,-5.95
10252,2.62
10264,10.82
10276,18.48
10288,25.58
10300,32.25
10312,38.69
10324,44.99
10336,51.14
10348,56.95
10359,62.15
10370,66.39
10382,69.4
10394,70.99
10406,71.11
10418,69.86
10430,67.44
10442,64.1
10454,60.09
10466,55.61
10478,50.78
10490,45.72
10502,40.54
10514,35.39
10526,30.44
10538,25.81
10549,21.6
10560,17.82
10572,14.43
10584,11.38
10596,8.62
10608,6.14
10620,3.9
10632,1.88
10644,0.04
10656,-1.66
10668,-3.2
10680,-4.58
10692,-5.92
10704,-7.54
10716,-10.01
10728,-14.0
10739,-20.07
10750,-28.38
10762,-38.48
10774,-49.38
10786,-59.69
10798,-67.95
10810,-72.97
10822,-74.02
10834,-70.97
10846,-64.26
10858,-54.86
10870,-44.0
10882,-33.03
10894,-23.11
10906,-15.01
10918,-8.99
10929,-4.87
10940,-2.18
10952,-0.39
10964,0.96
10976,2.14
10988,3.23
11000,4.22
11012,5.05
11024,5.72
11036,6.3
11048,6.96
11060,7.87
11072,9.23
11084,11.15
11096,13.65
11108,16.67
11119,19.99
11130,23.36
11142,26.47
11154,29.07
11166,31.02
11178,32.38
11190,33.36
11202,34.28
11214,35.47
11226,37.07
11238,38.97
11250,40.74
11262,41.81
11274,41.63
11286,39.86
11298,36.56
11309,32.08
11320,26.97
11332,21.71
11344,16.58
11356,11.62
11368,6.7
11380,1.61
11392,-3.78
11404,-9.52
11416,-15.52
11428,-21.69
11440,-27.85
11452,-33.85
11464,-39.53
11476,-44.78
11488,-49.51
11499,-53.62
11510,-56.97
11522,-59.31
11534,-60.35
11546,-59.79
11558,-57.47
11570,-53.46
11582,-48.02
11594,-41.63
11606,-34.76
11618,-27.85
11630,-21.19
11642,-14.99
11654,-9.32
11666,-4.25
11678,0.24
11689,4.2
11700,7.74
11712,11.01
11724,14.12
11736,17.21
11748,20.46
11760,24.15
11772,28.66
11784,34.36
11796,41.4
11808,49.55
11820,58.02
11832,65.6
11844,70.99
11856,73.16
11868,71.71
11879,66.96
11890,59.81
11902,51.42
11914,42.75
11926,34.42
11938,26.58
11950,19.07
11962,11.61
11974,3.97
11986,-3.94
11998,-12.13
12010,-20.59
12022,-29.33
12034,-38.34
12046,-47.5
12058,-56.54
12069,-65.04
12080,-72.5
12092,-78.59
12104,-83.2
12116,-86.47
12128,-88.7
12140,-90.11
12152,-90.8
12164,-90.65
12176,-89.53
12188,-87.34
12200,-84.12
12212,-80.1
12224,-75.61
12236,-70.98
12248,-66.48
12259,-62.25
12270,-58.17
12282,-53.76
12294,-48.25
12306,-40.65
12318,-30.14
12330,-16.35
12342,0.33
12354,18.8
12366,37.54
12378,55.08
12390,70.42
12402,83.2
12414,93.65
12426,102.25
12438,109.5
12449,115.72
12460,121.05
12472,125.47
12484,128.91
12496,131.12
12508,131.65
12520,129.87
12532,125.07
12544,116.79
12556,105.04
12568,90.45
12580,74.17
12592,57.58
12604,41.91
12616,28.01
12628,16.23
12639,6.53
12650,-1.34
12662,-7.75
12674,-13.09
12686,-17.81
12698,-22.34
12710,-27.11
12722,-32.33
12734,-37.95
12746,-43.58
12758,-48.55
12770,-52.13
12782,-53.7
12794,-52.92
12806,-49.78
12818,-44.54
12829,-37.64
12840,-29.6
12852,-21.01
12864,-12.46
12876,-4.51
12888,2.35
12900,7.81
12912,11.79
12924,14.49
12936,16.28
12948,17.6
12960,18.8
12972,20.04
12984,21.34
12996,22.69
13008,24.14
13019,25.85
13030,28.1
13042,31.07
13054,34.86
13066,39.26
13078,43.87
13090,48.1
13102,51.33
13114,53.02
13126,52.9
13138,50.92
13150,47.35
13162,42.62
13174,37.29
13186,31.95
13198,27.15
13209,23.28
13220,20.53
13232,18.84
13244,17.91
13256,17.32
13268,16.65
13280,15.67
13292,14.41
13304,13.08
13316,11.91
13328,10.95
13340,9.94
13352,8.44
13364,5.92
13376,2.05
13388,-3.22
13399,-9.52
13410,-16.18
13422,-22.3
13434,-26.94
13446,-29.42
13458,-29.47
13470,-27.38
13482,-23.87
13494,-19.87
13506,-16.19
13518,-13.24
13530,-11.03
13542,-9.21
13554,-7.39
13566,-5.28
13578,-2.84
13589,-0.23
13600,2.28
13612,4.42
13624,5.97
13636,6.85
13648,7.1
13660,6.8
13672,6.05
13684,4.99
13696,3.7
13708,2.3
13720,0.94
13732,-0.21
13744,-0.99
13756,-1.31
13768,-1.2
13779,-0.85
13790,-0.5
13802,-0.39
13814,-0.68
13826,-1.38
13838,-2.36
13850,-3.43
13862,-4.35
13874,-5.01
13886,-5.42
13898,-5.73
13910,-6.13
13922,-6.75
13934,-7.59
13946,-8.51
13958,-9.32
13969,-9.87
13980,-10.18
13992,-10.36
14004,-10.6
14016,-11.02
14028,-11.67
14040,-12.54
14052,-13.61
14064,-14.96
14076,-16.72
14088,-19.09
14100,-22.2
14112,-26.04
14124,-30.33
14136,-34.6
14148,-38.13
14159,-40.11
14170,-39.85
14182,-36.97
14194,-31.58
14206,-24.28
14218,-16.03
14230,-7.81
14242,-0.37
14254,5.95
14266,11.15
14278,15.48
14290,19.13
14302,22.16
14314,24.46
14326,25.88
14338,26.36
14349,26.04
14360,25.25
14372,24.4
14384,23.84
14396,23.8
14408,24.28
14420,25.17
14432,26.27
14444,27.37
14456,28.35
14468,29.12
14480,29.64
14492,29.89
14504,29.82
14516,29.46
14528,28.9
14539,28.24
14550,27.6
14562,27.03
14574,26.51
14586,25.99
14598,25.37
14610,24.66
14622,23.89
14634,23.16
14646,22.53
14658,22.03
14670,21.63
14682,21.26
14694,20.81
14706,20.16
14718,19.24
14729,18.07
14740,16.9
14752,16.21
14764,16.64
14776,18.77
14788,22.87
14800,28.61
14812,35.06
14824,40.87
14836,44.65
14848,45.49
14860,43.2
14872,38.39
14884,32.19
14896,25.93
14908,20.74
14919,17.33
14930,15.94
14942,16.32
14954,17.91
14966,19.91
14978,21.45
14990,21.76
15002,20.26
15014,16.72
15026,11.17
15038,3.87
15050,-4.81
15062,-14.45
15074,-24.57
15086,-34.64
15098,-44.11
15109,-52.37
15120,-58.9
15132,-63.33
15144,-65.53
15156,-65.59
15168,-63.85
15180,-60.85
15192,-57.18
15204,-53.37
15216,-49.79
15228,-46.56
15240,-43.63
15252,-40.89
15264,-38.3
15276,-35.94
15288,-33.95
15299,-32.43
15310,-31.34
15322,-30.55
15334,-29.88
15346,-29.22
15358,-28.58
15370,-28.06
15382,-27.77
15394,-27.7
15406,-27.72
15418,-27.64
15430,-27.35
15442,-26.87
15454,-26.34
15466,-26.02
15478,-26.14
15489,-26.87
15500,-28.23
15512,-30.09
15524,-32.09
15536,-33.69
15548,-34.25
15560,-33.15
15572,-30.07
15584,-25.02
15596,-18.45
15608,-11.11
15620,-3.78
15632,2.89
15644,8.53
15656,13.03
15668,16.42
15679,18.72
15690,19.94
15702,20.1
15714,19.33
15726,17.89
15738,16.2
15750,14.69
15762,13.68
15774,13.27
15786,13.3
15798,13.47
15810,13.49
15822,13.24
15834,12.77
15846,12.23
15858,11.69
15869,11.08
15880,10.22
15892,8.87
15904,6.97
15916,4.62
15928,2.03
15940,-0.62
15952,-3.34
15964,-6.34
15976,-9.78
15988,-13.69
16000,-17.85
16012,-21.98
16024,-25.95
16036,-29.92
16048,-34.32
16059,-39.53
16070,-45.72
16082,-52.69
16094,-60.05
16106,-67.44
16118,-74.6
16130,-81.41
16142,-87.6
16154,-92.76
16166,-96.36
16178,-98.09
16190,-97.99
16202,-96.38
16214,-93.59
16226,-89.61
16238,-83.99
16249,-76.07
16260,-65.28
16272,-51.5
16284,-35.11
16296,-16.76
16308,2.78
16320,22.73
16332,42.25
16344,60.36
16356,76.1
16368,88.73
16380,97.99
16392,104.18
16404,108.01
16416,110.2
16428,111.28
16439,111.45
16450,110.77
16462,109.3
16474,107.24
16486,104.85
16498,102.38
16510,99.85
16522,97.11
16534,93.94
16546,90.24
16558,86.08
16570,81.76
16582,77.66
16594,74.12
16606,71.33
16618,69.28
16629,67.79
16640,66.54
16652,65.23
16664,63.56
16676,61.37
16688,58.58
16700,55.14
16712,51.06
16724,46.28
16736,40.73
16748,34.29
16760,26.78
16772,17.97
16784,7.64
16796,-4.28
16808,-17.51
16819,-31.21
16830,-44.05
16842,-54.42
16854,-60.85
16866,-62.46
16878,-59.02
16890,-50.81
16902,-38.3
16914,-21.9
16926,-1.96
16938,20.94
16950,45.65
16962,70.33
16974,92.75
16986,110.85
16998,123.3
17009,129.95
17020,131.7
17032,130.24
17044,127.56
17056,125.45
17068,125.15
17080,127.13
17092,130.9
17104,135.14
17116,137.9
17128,136.99
17140,130.5
17152,117.17
17164,96.7
17176,69.77
17188,37.99
17199,3.71
17210,-30.31
17222,-61.3
17234,-86.99
17246,-106.03
17258,-118.33
17270,-124.95
17282,-127.74
17294,-128.7
17306,-129.47
17318,-130.94
17330,-133.14
17342,-135.41
17354,-136.66
17366,-135.64
17378,-131.28
17389,-122.95
17400,-110.69
17412,-95.42
17424,-78.75
17436,-62.74
17448,-49.26
17460,-39.55
17472,-33.9
17484,-31.76
17496,-32.13
17508,-33.97
17520,-36.54
17532,-39.4
17544,-42.27
17556,-44.97
17568,-47.25
17579,-48.93
17590,-49.96
17602,-50.54
17614,-50.96
17626,-51.54
17638,-52.42
17650,-53.52
17662,-54.65
17674,-55.53
17686,-55.98
17698,-55.92
17710,-55.44
17722,-54.66
17734,-53.63
17746,-52.21
17758,-50.03
17769,-46.6
17780,-41.48
17792,-34.43
17804,-25.52
17816,-15.11
17828,-3.76
17840,7.81
17852,18.82
17864,28.43
17876,35.84
17888,40.44
17900,42.01
17912,40.79
17924,37.51
17936,33.14
17948,28.64
17959,24.68
17970,21.64
17982,19.62
17994,18.67
18006,18.87
18018,20.3
18030,22.9
18042,26.25
18054,29.65
18066,32.18
18078,33.06
18090,31.85
18102,28.63
18114,23.86
18126,18.17
18138,12.04
18149,5.7
18160,-0.82
18172,-7.49
18184,-14.09
18196,-20.22
18208,-25.44
18220,-29.55
18232,-32.72
18244,-35.46
18256,-38.35
18268,-41.72
18280,-45.42
18292,-48.95
18304,-51.71
18316,-53.34
18328,-53.87
18339,-53.72
18350,-53.35
18362,-53.04
18374,-52.73
18386,-52.11
18398,-50.84
18410,-48.76
18422,-46.03
18434,-43.01
18446,-40.1
18458,-37.65
18470,-35.87
18482,-34.91
18494,-34.87
18506,-35.78
18518,-37.38
18529,-39.09
18540,-40.0
18552,-39.15
18564,-35.82
18576,-29.93
18588,-22.05
18600,-13.28
18612,-4.86
18624,2.24
18636,7.51
18648,10.91
18660,12.7
18672,13.21
18684,12.75
18696,11.52
18708,9.76
18719,7.71
18730,5.65
18742,3.87
18754,2.56
18766,1.82
18778,1.66
18790,1.98
18802,2.66
18814,3.55
18826,4.5
18838,5.32
18850,5.87
18862,6.01
18874,5.63
18886,4.63
18898,2.96
18909,0.7
18920,-1.96
18932,-4.74
18944,-7.35
18956,-9.63
18968,-11.6
18980,-13.42
18992,-15.3
19004,-17.36
19016,-19.56
19028,-21.8
19040,-23.91
19052,-25.83
19064,-27.55
19076,-29.19
19088,-30.96
19099,-33.14
19110,-36.03
19122,-39.81
19134,-44.38
19146,-49.27
19158,-53.59
19170,-56.27
19182,-56.31
19194,-53.16
19206,-46.89
19218,-38.18
19230,-28.09
19242,-17.71
19254,-7.83
19266,1.16
19278,9.31
19289,16.91
19300,24.26
19312,31.59
19324,38.92
19336,46.1
19348,52.93
19360,59.16
19372,64.64
19384,69.34
19396,73.39
19408,76.94
19420,80.08
19432,82.72
19444,84.63
19456,85.55
19468,85.29
19479,83.8
19490,81.12
19502,77.31
19514,72.39
19526,66.45
19538,59.7
19550,52.53
19562,45.41
19574,38.64
19586,32.23
19598,25.82
19610,18.89
19622,11.02
19634,2.11
19646,-7.54
19658,-17.3
19669,-26.4
19680,-34.14
19692,-40.07
19704,-44.11
19716,-46.58
19728,-48.08
19740,-49.25
19752,-50.39
19764,-51.37
19776,-51.64
19788,-50.5
19800,-47.53
19812,-42.73
19824,-36.55
19836,-29.69
19848,-22.76
19859,-16.12
19870,-9.78
19882,-3.5
19894,3.08
19906,10.22
19918,18.06
19930,26.58
19942,35.54
19954,44.6
19966,53.22
19978,60.81
19990,66.83
20002,70.88
20014,72.8
20026,72.69
20038,70.86
20049,67.76
20060,63.82
20072,59.45
20084,55.01
20096,50.78
20108,47.0
20120,43.83
20132,41.27
20144,39.19
20156,37.32
20168,35.48
20180,33.59
20192,31.8
20204,30.34
20216,29.4
20228,28.98
20239,28.83
20250,28.56
20262,27.77
20274,26.24
20286,24.04
20298,21.45
20310,18.88
20322,16.7
20334,15.09
20346,13.96
20358,13.07
20370,11.96
20382,10.19
20394,7.41
20406,3.53
20418,-1.34
20429,-6.85
20440,-12.57
20452,-18.09
20464,-23.1
20476,-27.48
20488,-31.21
20500,-34.31
20512,-36.83
20524,-38.78
20536,-40.15
20548,-40.89
20560,-40.98
20572,-40.44
20584,-39.4
20596,-38.11
20608,-36.89
20619,-36.1
20630,-35.96
20642,-36.4
20654,-36.99
20666,-37.02
20678,-35.66
20690,-32.3
20702,-26.68
20714,-19.02
20726,-9.89
20738,-0.11
20750,9.49
20762,18.1
20774,25.0
20786,29.69
20798,31.89
20809,31.69
20820,29.54
20832,26.06
20844,21.87
20856,17.44
20868,13.04
20880,8.87
20892,5.23
20904,2.45
20916,0.94
20928,0.91
20940,2.33
20952,4.86
20964,8.1
20976,11.73
20988,15.55
20999,19.46
