seconds,BVP
9,17.64
21,18.07
33,17.89
45,17.14
57,15.9
68,14.31
79,12.62
91,11.14
103,10.11
115,9.67
127,9.73
139,10.11
151,10.6
163,11.07
175,11.51
187,11.96
199,12.46
211,12.91
223,13.15
235,12.96
247,12.21
258,10.95
269,9.35
281,7.64
293,5.97
305,4.37
317,2.75
329,0.98
341,-1.02
353,-3.18
365,-5.33
377,-7.24
389,-8.73
401,-9.78
413,-10.49
425,-11.07
437,-11.68
448,-12.36
459,-13.01
471,-13.43
483,-13.55
495,-13.45
507,-13.5
519,-14.14
531,-15.66
543,-18.05
555,-20.82
567,-23.23
579,-24.49
591,-24.07
603,-21.86
615,-18.14
627,-13.39
638,-8.17
649,-2.86
661,2.25
673,7.01
685,11.23
697,14.71
709,17.24
721,18.66
733,18.98
745,18.36
757,17.06
769,15.36
781,13.54
793,11.78
805,10.21
817,8.88
828,7.83
839,7.15
851,6.9
863,7.13
875,7.8
887,8.79
899,9.9
911,10.9
923,11.66
935,12.12
947,12.35
959,12.39
971,12.25
983,11.87
995,11.12
1007,9.92
1018,8.22
1029,6.06
1041,3.52
1053,0.74
1065,-2.15
1077,-4.96
1089,-7.52
1101,-9.71
1113,-11.49
1125,-12.93
1137,-14.13
1149,-15.19
1161,-16.15
1173,-16.99
1185,-17.66
1197,-18.13
1208,-18.43
1219,-18.62
1231,-18.79
1243,-19.03
1255,-19.39
1267,-19.89
1279,-20.46
1291,-20.92
1303,-20.99
1315,-20.36
1327,-18.74
1339,-15.97
1351,-12.11
1363,-7.37
1375,-2.09
1387,3.32
1398,8.46
1409,12.97
1421,16.5
1433,18.82
1445,19.83
1457,19.64
1469,18.51
1481,16.84
1493,15.01
1505,13.3
1517,11.83
1529,10.61
1541,9.59
1553,8.74
1565,8.07
1577,7.61
1588,7.38
1599,7.35
1611,7.46
1623,7.66
1635,7.89
1647,8.15
1659,8.44
1671,8.72
1683,8.92
1695,8.95
1707,8.69
1719,8.08
1731,7.12
1743,5.87
1755,4.39
1767,2.8
1778,1.21
1789,-0.25
1801,-1.46
1813,-2.38
1825,-3.07
1837,-3.68
1849,-4.35
1861,-5.18
1873,-6.11
1885,-7.06
1897,-7.92
1909,-8.64
1921,-9.29
1933,-10.0
1945,-10.87
1957,-11.91
1968,-12.98
1979,-13.82
1991,-14.06
2003,-13.35
2015,-11.5
2027,-8.49
2039,-4.55
2051,-0.12
2063,4.32
2075,8.37
2087,11.79
2099,14.49
2111,16.42
2123,17.52
2135,17.71
2147,16.93
2158,15.28
2169,13.03
2181,10.68
2193,8.71
2205,7.44
2217,6.94
2229,7.02
2241,7.32
2253,7.57
2265,7.62
2277,7.54
2289,7.45
2301,7.48
2313,7.59
2325,7.63
2337,7.45
2348,6.95
2359,6.15
2371,5.21
2383,4.24
2395,3.33
2407,2.4
2419,1.39
2431,0.24
2443,-1.09
2455,-2.54
2467,-4.12
2479,-5.75
2491,-7.38
2503,-8.87
2515,-10.11
2527,-11.05
2538,-11.69
2549,-12.21
2561,-12.77
2573,-13.48
2585,-14.38
2597,-15.45
2609,-16.65
2621,-18.01
2633,-19.52
2645,-21.07
2657,-22.39
2669,-23.09
2681,-22.77
2693,-21.22
2705,-18.43
2717,-14.62
2728,-10.15
2739,-5.36
2751,-0.57
2763,3.97
2775,8.04
2787,11.43
2799,13.98
2811,15.57
2823,16.26
2835,16.2
2847,15.65
2859,14.89
2871,14.13
2883,13.5
2895,13.01
2907,12.61
2918,12.25
2929,11.89
2941,11.51
2953,11.13
2965,10.78
2977,10.49
2989,10.32
3001,10.25
3013,10.28
3025,10.33
3037,10.3
3049,10.06
3061,9.52
3073,8.63
3085,7.46
3097,6.16
3108,4.87
3119,3.66
3131,2.49
3143,1.22
3155,-0.28
3167,-2.1
3179,-4.21
3191,-6.49
3203,-8.8
3215,-10.97
3227,-12.88
3239,-14.4
3251,-15.47
3263,-16.08
3275,-16.29
3287,-16.29
3298,-16.33
3309,-16.64
3321,-17.37
3333,-18.47
3345,-19.73
3357,-20.79
3369,-21.3
3381,-20.93
3393,-19.51
3405,-16.99
3417,-13.47
3429,-9.18
3441,-4.39
3453,0.53
3465,5.23
3477,9.34
3488,12.63
3499,14.99
3511,16.51
3523,17.33
3535,17.61
3547,17.52
3559,17.14
3571,16.59
3583,15.89
3595,15.1
3607,14.25
3619,13.44
3631,12.75
3643,12.32
3655,12.37
3667,13.03
3678,14.29
3689,15.86
3701,17.29
3713,18.15
3725,18.25
3737,17.74
3749,17.0
3761,16.53
3773,16.66
3785,17.28
3797,17.82
3809,17.55
3821,16.05
3833,13.44
3845,10.31
3857,7.42
3868,5.45
3879,4.81
3891,5.16
3903,5.56
3915,4.93
3927,2.8
3939,-0.43
3951,-3.7
3963,-5.81
3975,-5.73
3987,-2.94
3999,1.81
4011,6.72
4023,9.73
4035,9.64
4047,6.69
4058,2.01
4069,-2.94
4081,-6.76
4093,-8.43
4105,-8.16
4117,-7.44
4129,-8.61
4141,-14.04
4153,-25.63
4165,-45.26
4177,-74.36
4189,-113.22
4201,-155.47
4213,-191.0
4225,-210.25
4237,-210.6
4248,-196.97
4259,-176.73
4271,-155.65
4283,-136.36
4295,-118.9
4307,-102.0
4319,-85.45
4331,-70.79
4343,-60.8
4355,-59.09
4367,-66.23
4379,-81.88
4391,-104.14
4403,-128.96
4415,-149.96
4427,-160.64
4438,-156.79
4449,-138.26
4461,-108.79
4473,-74.21
4485,-40.44
4497,-10.66
4509,12.88
4521,30.66
4533,44.9
4545,58.03
4557,71.77
4569,87.35
4581,105.92
4593,127.83
4605,151.91
4617,174.75
4628,191.45
4639,196.74
4651,187.19
4663,162.72
4675,127.28
4687,87.57
4699,50.6
4711,21.73
4723,3.55
4735,-3.53
4747,-0.87
4759,9.24
4771,24.14
4783,41.4
4795,59.04
4807,75.67
4818,90.54
4829,103.36
4841,114.22
4853,123.22
4865,130.25
4877,134.92
4889,136.82
4901,135.69
4913,131.49
4925,124.58
4937,115.65
4949,105.71
4961,95.8
4973,86.64
4985,78.39
4997,70.84
5008,63.57
5019,56.31
5031,49.15
5043,42.44
5055,36.69
5067,32.23
5079,29.11
5091,27.01
5103,25.5
5115,24.21
5127,22.93
5139,21.69
5151,20.55
5163,19.59
5175,18.83
5187,18.19
5198,17.68
5209,17.4
5221,17.66
5233,18.88
5245,21.48
5257,25.79
5269,31.91
5281,39.78
5293,49.11
5305,59.48
5317,70.36
5329,81.11
5341,91.06
5353,99.62
5365,106.52
5377,111.91
5388,116.41
5399,120.84
5411,125.78
5423,131.01
5435,135.33
5447,136.9
5459,134.06
5471,126.27
5483,114.66
5495,101.78
5507,90.51
5519,82.75
5531,78.45
5543,75.71
5555,71.72
5567,64.11
5578,51.96
5589,36.04
5601,18.06
5613,-0.3
5625,-18.23
5637,-36.05
5649,-54.88
5661,-76.05
5673,-100.82
5685,-130.37
5697,-165.74
5709,-207.13
5721,-252.85
5733,-298.16
5745,-335.31
5757,-355.2
5768,-350.81
5779,-320.56
5791,-269.88
5803,-209.58
5815,-151.33
5827,-102.73
5839,-64.49
5851,-31.51
5863,3.2
5875,44.21
5887,91.22
5899,139.91
5911,184.88
5923,222.59
5935,252.6
5947,276.78
5958,297.2
5969,314.47
5981,327.4
5993,334.06
6005,333.52
6017,326.73
6029,316.23
6041,304.66
6053,293.3
6065,281.09
6077,264.95
6089,241.35
6101,208.23
6113,166.38
6125,119.36
6137,72.06
6148,28.4
6159,-10.22
6171,-45.18
6183,-79.58
6195,-116.4
6207,-157.0
6219,-200.73
6231,-245.54
6243,-289.22
6255,-330.43
6267,-369.28
6279,-407.16
6291,-446.29
6303,-489.15
6315,-537.77
6327,-592.86
6338,-652.69
6349,-712.42
6361,-764.29
6373,-799.44
6385,-810.69
6397,-795.19
6409,-755.54
6421,-698.69
6433,-633.18
6445,-566.11
6457,-501.41
6469,-440.02
6481,-381.52
6493,-325.73
6505,-273.42
6517,-225.61
6528,-182.51
6539,-142.84
6551,-104.17
6563,-64.14
6575,-21.64
6587,22.71
6599,66.95
6611,108.89
6623,147.27
6635,182.35
6647,215.66
6659,249.3
6671,284.98
6683,323.51
6695,364.58
6707,406.72
6718,447.37
6729,483.1
6741,510.03
6753,524.84
6765,525.84
6777,513.61
6789,490.98
6801,461.93
6813,430.1
6825,397.84
6837,365.97
6849,334.46
6861,303.41
6873,273.48
6885,245.72
6897,220.8
6908,198.45
6919,177.44
6931,156.18
6943,133.47
6955,109.08
6967,83.82
6979,59.25
6991,37.08
7003,18.66
7015,4.61
7027,-5.2
7039,-11.49
7051,-15.22
7063,-17.22
7075,-18.04
7087,-17.86
7098,-16.69
7109,-14.55
7121,-11.6
7133,-8.13
7145,-4.45
7157,-0.78
7169,2.69
7181,5.82
7193,8.38
7205,10.08
7217,10.62
7229,9.77
7241,7.47
7253,3.98
7265,-0.14
7277,-4.13
7288,-7.17
7299,-8.81
7311,-9.2
7323,-9.14
7335,-9.88
7347,-12.48
7359,-17.29
7371,-23.56
7383,-29.58
7395,-33.24
7407,-32.68
7419,-27.04
7431,-16.75
7443,-3.31
7455,11.15
7467,24.38
7478,34.49
7489,40.2
7501,40.97
7513,37.08
7525,29.67
7537,20.48
7549,11.45
7561,4.16
7573,-0.69
7585,-3.42
7597,-5.2
7609,-7.28
7621,-10.57
7633,-15.18
7645,-20.62
7657,-26.24
7668,-31.74
7679,-37.33
7691,-43.65
7703,-51.27
7715,-60.37
7727,-70.59
7739,-81.15
7751,-91.17
7763,-99.98
7775,-107.25
7787,-112.98
7799,-117.25
7811,-120.04
7823,-121.17
7835,-120.37
7847,-117.47
7858,-112.53
7869,-105.94
7881,-98.21
7893,-89.91
7905,-81.46
7917,-73.1
7929,-65.03
7941,-57.46
7953,-50.64
7965,-44.77
7977,-39.99
7989,-36.24
8001,-33.33
8013,-31.03
8025,-29.21
8037,-27.9
8048,-27.32
8059,-27.75
8071,-29.54
8083,-32.94
8095,-38.05
8107,-44.69
8119,-52.47
8131,-60.91
8143,-69.58
8155,-78.21
8167,-86.62
8179,-94.74
8191,-102.38
8203,-109.34
8215,-115.32
8227,-120.09
8238,-123.43
8249,-125.15
8261,-124.95
8273,-122.5
8285,-117.49
8297,-109.84
8309,-99.77
8321,-87.79
8333,-74.55
8345,-60.72
8357,-46.83
8369,-33.2
8381,-20.08
8393,-7.61
8405,4.13
8417,15.16
8428,25.51
8439,35.26
8451,44.34
8463,52.57
8475,59.67
8487,65.48
8499,70.06
8511,73.74
8523,77.09
8535,80.6
8547,84.48
8559,88.62
8571,92.62
8583,95.97
8595,98.27
8607,99.3
8618,99.03
8629,97.54
8641,94.95
8653,91.42
8665,87.17
8677,82.46
8689,77.6
8701,72.89
8713,68.52
8725,64.59
8737,61.04
8749,57.75
8761,54.5
8773,51.13
8785,47.53
8797,43.76
8808,39.96
8819,36.28
8831,32.88
8843,29.81
8855,27.0
8867,24.31
8879,21.51
8891,18.37
8903,14.74
8915,10.66
8927,6.37
8939,2.34
8951,-0.82
8963,-2.55
8975,-2.48
8987,-0.54
8998,3.06
9009,7.81
9021,13.13
9033,18.46
9045,23.35
9057,27.61
9069,31.22
9081,34.38
9093,37.28
9105,40.05
9117,42.65
9129,44.9
9141,46.62
9153,47.68
9165,48.13
9177,48.24
9188,48.37
9199,48.95
9211,50.32
9223,52.6
9235,55.6
9247,58.81
9259,61.54
9271,63.2
9283,63.65
9295,63.41
9307,63.52
9319,65.07
9331,68.64
9343,73.83
9355,79.29
9367,83.26
9378,84.28
9389,82.03
9401,77.65
9413,73.41
9425,71.62
9437,73.62
9449,79.04
9461,86.0
9473,91.99
9485,94.94
9497,94.11
9509,90.33
9521,85.33
9533,80.59
9545,76.48
9557,72.15
9568,65.89
9579,55.86
9591,40.25
9603,17.52
9615,-13.68
9627,-54.15
9639,-103.61
9651,-159.36
9663,-215.58
9675,-264.44
9687,-298.91
9699,-317.32
9711,-324.33
9723,-328.55
9735,-337.82
9747,-354.77
9758,-374.44
9769,-386.21
9781,-378.71
9793,-344.6
9805,-285.23
9817,-208.32
9829,-123.47
9841,-38.77
9853,40.05
9865,109.0
9877,165.1
9889,206.35
9901,233.42
9913,246.99
9925,249.36
9937,244.58
9948,236.5
9959,226.44
9971,212.85
9983,192.7
9995,163.42
10007,125.76
10019,79.85
10031,27.03
10043,-29.57
10055,-78.02
10067,-104.89
10079,-103.82
10091,-80.76
10103,-59.24
10115,-45.06
10127,-38.63
10138,-39.49
10149,-43.22
10161,-49.69
10173,-61.44
10185,-82.03
10197,-114.08
10209,-158.11
10221,-210.9
10233,-269.72
10245,-330.21
10257,-385.36
10269,-427.5
10281,-451.12
10293,-455.4
10305,-444.28
10317,-424.03
10328,-398.82
10339,-371.42
10351,-341.36
10363,-305.9
10375,-263.62
10387,-216.46
10399,-169.51
10411,-128.16
10423,-94.87
10435,-67.1
10447,-40.75
10459,-11.88
10471,21.42
10483,57.98
10495,94.65
10507,127.9
10518,155.66
10529,178.13
10541,197.86
10553,217.49
10565,238.92
10577,263.06
10589,289.74
10601,318.15
10613,347.01
10625,374.47
10637,397.82
10649,413.74
10661,418.64
10673,410.26
10685,388.94
10697,357.89
10708,322.19
10719,286.88
10731,255.28
10743,228.28
10755,204.95
10767,183.9
10779,164.26
10791,145.91
10803,128.99
10815,113.21
10827,97.64
10839,81.2
10851,63.43
10863,44.9
10875,27.14
10887,12.02
10898,0.95
10909,-5.64
10921,-8.36
10933,-8.49
10945,-7.38
10957,-5.93
10969,-4.42
10981,-2.63
10993,-0.25
11005,2.73
11017,5.81
11029,8.12
11041,8.8
11053,7.45
11065,4.28
11077,0.05
11088,-4.34
11099,-8.23
11111,-11.32
11123,-13.58
11135,-15.04
11147,-15.6
11159,-15.08
11171,-13.3
11183,-10.3
11195,-6.42
11207,-2.2
11219,1.67
11231,4.61
11243,6.24
11255,6.55
11267,5.88
11278,4.78
11289,3.83
11301,3.43
11313,3.69
11325,4.49
11337,5.67
11349,7.17
11361,9.08
11373,11.52
11385,14.48
11397,17.62
11409,20.39
11421,22.16
11433,22.44
11445,20.98
11457,17.78
11468,13.04
11479,7.22
11491,0.99
11503,-4.91
11515,-10.0
11527,-14.43
11539,-19.11
11551,-25.31
11563,-34.01
11575,-45.17
11587,-57.45
11599,-68.65
11611,-76.68
11623,-80.45
11635,-80.14
11647,-76.9
11658,-72.03
11669,-66.32
11681,-59.94
11693,-52.67
11705,-44.4
11717,-35.38
11729,-26.12
11741,-17.21
11753,-9.12
11765,-2.18
11777,3.32
11789,7.07
11801,8.87
11813,8.86
11825,7.56
11837,5.79
11848,4.33
11859,3.6
11871,3.61
11883,4.0
11895,4.36
11907,4.42
11919,4.14
11931,3.62
11943,2.95
11955,2.17
11967,1.3
11979,0.37
11991,-0.49
12003,-1.2
12015,-1.77
12027,-2.38
12038,-3.32
12049,-4.8
12061,-6.77
12073,-8.93
12085,-10.75
12097,-11.61
12109,-11.04
12121,-8.78
12133,-4.9
12145,0.28
12157,6.21
12169,12.29
12181,17.95
12193,22.77
12205,26.52
12217,29.1
12228,30.49
12239,30.67
12251,29.63
12263,27.38
12275,24.06
12287,19.94
12299,15.45
12311,11.11
12323,7.39
12335,4.59
12347,2.77
12359,1.76
12371,1.28
12383,1.06
12395,1.05
12407,1.38
12418,2.33
12429,4.08
12441,6.58
12453,9.47
12465,12.19
12477,14.19
12489,15.04
12501,14.58
12513,12.84
12525,9.94
12537,6.07
12549,1.45
12561,-3.54
12573,-8.38
12585,-12.5
12597,-15.5
12608,-17.29
12619,-18.22
12631,-18.93
12643,-20.06
12655,-21.96
12667,-24.54
12679,-27.28
12691,-29.45
12703,-30.35
12715,-29.49
12727,-26.72
12739,-22.13
12751,-16.1
12763,-9.13
12775,-1.85
12787,5.13
12798,11.3
12809,16.35
12821,20.21
12833,22.97
12845,24.86
12857,26.19
12869,27.23
12881,28.25
12893,29.5
12905,31.08
12917,33.03
12929,35.32
12941,37.91
12953,40.81
12965,44.13
12977,48.01
12988,52.45
12999,57.24
13011,61.95
13023,66.07
13035,69.22
13047,71.36
13059,72.85
13071,74.35
13083,76.6
13095,80.07
13107,84.73
13119,89.89
13131,94.35
13143,96.76
13155,96.26
13167,92.89
13178,87.61
13189,81.88
13201,76.92
13213,73.12
13225,69.81
13237,65.76
13249,59.68
13261,50.68
13273,38.29
13285,22.4
13297,3.45
13309,-17.21
13321,-36.92
13333,-52.03
13345,-58.8
13357,-54.9
13368,-40.53
13379,-18.39
13391,7.51
13403,33.47
13415,57.44
13427,79.05
13439,98.87
13451,117.29
13463,134.06
13475,148.53
13487,160.28
13499,169.59
13511,177.36
13523,184.53
13535,191.78
13547,199.32
13558,207.02
13569,214.5
13581,221.18
13593,226.26
13605,229.02
13617,229.26
13629,227.69
13641,225.73
13653,224.72
13665,224.94
13677,224.96
13689,222.1
13701,213.55
13713,197.81
13725,175.38
13737,148.47
13748,119.92
13759,91.88
13771,65.44
13783,40.68
13795,17.27
13807,-4.93
13819,-26.02
13831,-46.41
13843,-67.13
13855,-89.63
13867,-114.96
13879,-142.87
13891,-171.28
13903,-196.56
13915,-214.73
13927,-223.23
13938,-222.25
13949,-215.2
13961,-207.77
13973,-206.01
13985,-214.19
13997,-233.48
14009,-262.06
14021,-296.17
14033,-331.97
14045,-366.81
14057,-399.69
14069,-431.13
14081,-462.71
14093,-496.62
14105,-534.95
14117,-578.63
14128,-625.94
14139,-671.83
14151,-708.11
14163,-725.77
14175,-718.27
14187,-684.23
14199,-628.16
14211,-558.72
14223,-485.24
14235,-414.7
14247,-350.25
14259,-291.86
14271,-238.09
14283,-187.55
14295,-138.99
14307,-90.95
14318,-41.51
14329,10.58
14341,63.97
14353,113.21
14365,149.38
14377,163.06
14389,148.04
14401,104.39
14413,38.45
14425,-39.56
14437,-118.99
14449,-191.32
14461,-250.79
14473,-293.73
14485,-317.68
14497,-321.45
14508,-305.99
14519,-275.22
14531,-235.5
14543,-193.87
14555,-155.78
14567,-123.54
14579,-96.57
14591,-72.82
14603,-50.47
14615,-28.98
14627,-8.92
14639,8.8
14651,23.86
14663,36.83
14675,49.12
14687,62.42
14698,78.07
14709,96.57
14721,117.45
14733,139.57
14745,161.71
14757,183.02
14769,203.32
14781,222.97
14793,242.47
14805,262.23
14817,282.55
14829,303.96
14841,327.29
14853,353.21
14865,381.18
14877,408.66
14888,431.2
14899,443.74
14911,442.69
14923,427.56
14935,401.08
14947,367.84
14959,332.12
14971,296.48
14983,261.68
14995,227.9
15007,196.04
15019,168.16
15031,146.7
15043,133.07
15055,126.77
15067,125.54
15078,126.45
15089,127.2
15101,126.74
15113,125.14
15125,122.84
15137,120.08
15149,116.72
15161,112.77
15173,109.11
15185,108.16
15197,113.76
15209,130.17
15221,160.27
15233,203.83
15245,256.46
15257,310.37
15268,356.47
15279,387.15
15291,398.44
15303,390.55
15315,366.69
15327,331.11
15339,287.45
15351,238.1
15363,184.82
15375,129.59
15387,75.02
15399,23.96
15411,-21.37
15423,-60.35
15435,-94.17
15447,-125.19
15458,-156.22
15469,-189.57
15481,-226.5
15493,-266.73
15505,-308.39
15517,-348.15
15529,-381.9
15541,-405.66
15553,-416.56
15565,-413.43
15577,-396.96
15589,-369.25
15601,-333.2
15613,-291.8
15625,-247.79
15637,-203.56
15648,-161.16
15659,-122.33
15671,-88.24
15683,-59.32
15695,-35.05
15707,-14.35
15719,3.9
15731,20.08
15743,33.51
15755,42.51
15767,44.96
15779,39.09
15791,24.13
15803,0.71
15815,-29.23
15827,-62.65
15838,-95.76
15849,-124.58
15861,-145.72
15873,-157.27
15885,-159.42
15897,-154.27
15909,-144.66
15921,-132.73
15933,-118.89
15945,-101.89
15957,-80.05
15969,-52.86
15981,-21.88
15993,9.7
16005,38.49
16017,62.48
16028,81.82
16039,98.24
16051,113.7
16063,128.9
16075,142.81
16087,153.13
16099,157.65
16111,155.38
16123,147.1
16135,134.93
16147,121.31
16159,108.08
16171,95.91
16183,84.6
16195,73.59
16207,62.6
16218,51.94
16229,42.32
16241,34.47
16253,28.72
16265,24.8
16277,21.99
16289,19.41
16301,16.43
16313,12.87
16325,9.03
16337,5.48
16349,2.81
16361,1.25
16373,0.61
16385,0.3
16397,-0.43
16408,-2.11
16419,-4.92
16431,-8.55
16443,-12.44
16455,-15.97
16467,-18.78
16479,-20.9
16491,-22.58
16503,-24.2
16515,-25.96
16527,-27.84
16539,-29.61
16551,-30.99
16563,-31.66
16575,-31.38
16587,-29.99
16598,-27.41
16609,-23.77
16621,-19.36
16633,-14.66
16645,-10.21
16657,-6.43
16669,-3.54
16681,-1.39
16693,0.27
16705,1.78
16717,3.27
16729,4.64
16741,5.66
16753,6.04
16765,5.73
16777,4.96
16788,4.21
16799,3.98
16811,4.66
16823,6.22
16835,8.28
16847,10.34
16859,11.96
16871,12.99
16883,13.6
16895,14.08
16907,14.66
16919,15.38
16931,16.09
16943,16.51
16955,16.44
16967,15.81
16978,14.67
16989,13.19
17001,11.52
17013,9.76
17025,7.96
17037,6.06
17049,3.91
17061,1.44
17073,-1.35
17085,-4.24
17097,-6.88
17109,-8.9
17121,-10.15
17133,-10.77
17145,-11.12
17157,-11.57
17168,-12.3
17179,-13.2
17191,-13.97
17203,-14.4
17215,-14.56
17227,-14.78
17239,-15.46
17251,-16.79
17263,-18.54
17275,-20.05
17287,-20.51
17299,-19.26
17311,-16.06
17323,-11.18
17335,-5.28
17347,0.87
17358,6.58
17369,11.42
17381,15.21
17393,17.97
17405,19.82
17417,20.86
17429,21.21
17441,20.94
17453,20.05
17465,18.41
17477,15.67
17489,11.26
17501,4.72
17513,-4.0
17525,-14.19
17537,-24.37
17548,-32.65
17559,-37.39
17571,-37.83
17583,-34.4
17595,-28.45
17607,-21.73
17619,-15.71
17631,-11.17
17643,-8.21
17655,-6.51
17667,-5.7
17679,-5.51
17691,-5.82
17703,-6.45
17715,-7.13
17727,-7.6
17738,-7.74
17749,-7.72
17761,-8.02
17773,-9.2
17785,-11.57
17797,-15.02
17809,-18.94
17821,-22.46
17833,-24.84
17845,-25.78
17857,-25.52
17869,-24.66
17881,-23.83
17893,-23.35
17905,-23.08
17917,-22.45
17928,-20.69
17939,-17.1
17951,-11.27
17963,-3.22
17975,6.57
17987,17.26
17999,27.8
18011,37.11
18023,44.39
18035,49.23
18047,51.69
18059,52.2
18071,51.32
18083,49.5
18095,46.99
18107,43.91
18118,40.4
18129,36.68
18141,33.06
18153,29.77
18165,26.89
18177,24.31
18189,21.83
18201,19.38
18213,17.09
18225,15.2
18237,13.97
18249,13.42
18261,13.34
18273,13.36
18285,13.15
18297,12.5
18308,11.42
18319,10.03
18331,8.46
18343,6.82
18355,5.18
18367,3.61
18379,2.17
18391,0.88
18403,-0.3
18415,-1.5
18427,-2.88
18439,-4.5
18451,-6.34
18463,-8.25
18475,-10.05
18487,-11.59
18498,-12.81
18509,-13.84
18521,-14.89
18533,-16.23
18545,-18.01
18557,-20.19
18569,-22.48
18581,-24.38
18593,-25.38
18605,-25.12
18617,-23.49
18629,-20.73
18641,-17.22
18653,-13.41
18665,-9.59
18677,-5.95
18688,-2.55
18699,0.53
18711,3.16
18723,5.18
18735,6.44
18747,6.91
18759,6.72
18771,6.07
18783,5.23
18795,4.41
18807,3.82
18819,3.61
18831,3.95
18843,5.04
18855,6.96
18867,9.66
18878,12.84
18889,16.02
18901,18.64
18913,20.25
18925,20.58
18937,19.71
18949,17.92
18961,15.62
18973,13.17
18985,10.89
18997,8.97
19009,7.55
19021,6.63
19033,6.16
19045,5.94
19057,5.73
19068,5.26
19079,4.38
19091,3.0
19103,1.14
19115,-1.12
19127,-3.66
19139,-6.32
19151,-8.93
19163,-11.32
19175,-13.39
19187,-15.14
19199,-16.63
19211,-18.0
19223,-19.27
19235,-20.36
19247,-21.14
19258,-21.46
19269,-21.24
19281,-20.44
19293,-19.07
19305,-17.03
19317,-14.25
19329,-10.67
19341,-6.37
19353,-1.62
19365,3.18
19377,7.6
19389,11.28
19401,14.0
19413,15.67
19425,16.32
19437,16.08
19448,15.2
19459,14.03
19471,12.92
19483,12.07
19495,11.48
19507,10.89
19519,9.96
19531,8.48
19543,6.52
19555,4.45
19567,2.74
19579,1.76
19591,1.55
19603,1.87
19615,2.34
19627,2.63
19638,2.63
19649,2.41
19661,2.16
19673,2.02
19685,2.0
19697,1.99
19709,1.84
19721,1.46
19733,0.83
19745,-0.01
19757,-0.99
19769,-2.06
19781,-3.19
19793,-4.4
19805,-5.7
19817,-7.02
19828,-8.3
19839,-9.46
19851,-10.47
19863,-11.38
19875,-12.29
19887,-13.27
19899,-14.38
19911,-15.55
19923,-16.57
19935,-17.17
19947,-17.07
19959,-16.08
19971,-14.18
19983,-11.56
19995,-8.5
20007,-5.28
20018,-2.03
20029,1.29
20041,4.76
20053,8.32
20065,11.7
20077,14.48
20089,16.17
20101,16.59
20113,15.89
20125,14.54
20137,13.1
20149,11.92
20161,11.04
20173,10.25
20185,9.26
20197,7.99
20208,6.6
20219,5.43
20231,4.76
20243,4.67
20255,4.94
20267,5.18
20279,5.04
20291,4.33
20303,3.16
20315,1.79
20327,0.55
20339,-0.39
20351,-1.04
20363,-1.57
20375,-2.2
20387,-3.02
20398,-4.04
20409,-5.16
20421,-6.27
20433,-7.34
20445,-8.41
20457,-9.53
20469,-10.75
20481,-12.03
20493,-13.32
20505,-14.53
20517,-15.61
20529,-16.53
20541,-17.32
20553,-18.06
20565,-18.91
20577,-20.05
20588,-21.6
20599,-23.53
20611,-25.61
20623,-27.38
20635,-28.28
20647,-27.86
20659,-25.91
20671,-22.56
20683,-18.18
20695,-13.21
20707,-8.06
20719,-2.99
20731,1.85
20743,6.37
20755,10.43
20767,13.86
20778,16.5
20789,18.25
20801,19.1
20813,19.17
20825,18.66
20837,17.78
20849,16.77
20861,15.85
20873,15.19
20885,14.87
20897,14.86
20909,15.05
20921,15.2
20933,15.1
20945,14.63
20957,13.8
20968,12.77
20979,11.77
20991,10.95
