seconds,BVP
7,-12.45
19,-12.02
31,-11.91
43,-12.56
55,-14.13
67,-16.5
79,-19.21
90,-21.75
101,-23.76
113,-25.12
125,-25.91
137,-26.26
149,-26.21
161,-25.6
173,-24.2
185,-21.78
197,-18.24
209,-13.62
221,-7.99
233,-1.42
245,6.06
257,14.4
269,23.4
280,32.57
291,41.24
303,48.62
315,54.04
327,57.13
339,57.88
351,56.46
363,53.13
375,48.1
387,41.46
399,33.41
411,24.34
423,14.92
435,5.95
447,-1.87
459,-8.11
470,-12.84
481,-16.41
493,-19.38
505,-22.25
517,-25.3
529,-28.62
541,-32.11
553,-35.59
565,-38.79
577,-41.46
589,-43.35
601,-44.3
613,-44.24
625,-43.14
637,-41.09
649,-38.07
660,-34.03
671,-28.87
683,-22.55
695,-15.18
707,-7.11
719,1.02
731,8.44
743,14.36
755,18.3
767,20.25
779,20.63
791,20.19
803,19.62
815,19.3
827,19.14
839,18.76
850,17.65
861,15.53
873,12.37
885,8.38
897,3.8
909,-1.14
921,-6.27
933,-11.37
945,-16.12
957,-20.26
969,-23.59
981,-26.22
993,-28.43
1005,-30.4
1017,-32.1
1029,-33.1
1040,-32.79
1051,-30.69
1063,-26.81
1075,-21.69
1087,-16.31
1099,-11.67
1111,-8.36
1123,-6.45
1135,-5.6
1147,-5.31
1159,-5.26
1171,-5.47
1183,-6.18
1195,-7.56
1207,-9.59
1219,-11.92
1230,-14.09
1241,-15.72
1253,-16.62
1265,-16.77
1277,-16.17
1289,-14.69
1301,-12.05
1313,-8.06
1325,-2.7
1337,3.69
1349,10.57
1361,17.4
1373,23.78
1385,29.61
1397,34.83
1409,39.31
1420,42.62
1431,44.18
1443,43.48
1455,40.41
1467,35.51
1479,29.89
1491,24.9
1503,21.78
1515,21.19
1527,23.06
1539,26.69
1551,31.02
1563,35.07
1575,38.21
1587,40.19
1599,41.07
1610,41.05
1621,40.25
1633,38.7
1645,36.46
1657,33.68
1669,30.66
1681,27.87
1693,25.7
1705,24.33
1717,23.66
1729,23.38
1741,23.13
1753,22.66
1765,21.98
1777,21.19
1789,20.56
1800,20.35
1811,20.75
1823,21.83
1835,23.47
1847,25.39
1859,27.18
1871,28.37
1883,28.53
1895,27.33
1907,24.57
1919,20.14
1931,14.01
1943,6.31
1955,-2.62
1967,-12.18
1979,-21.61
1990,-30.21
2001,-37.61
2013,-43.84
2025,-49.25
2037,-54.2
2049,-58.79
2061,-62.72
2073,-65.54
2085,-66.92
2097,-67.1
2109,-66.86
2121,-67.23
2133,-68.95
2145,-72.02
2157,-75.61
2169,-78.32
2180,-78.71
2191,-75.75
2203,-69.05
2215,-58.93
2227,-46.22
2239,-32.07
2251,-17.78
2263,-4.55
2275,6.68
2287,15.44
2299,21.79
2311,26.23
2323,29.49
2335,32.2
2347,34.64
2359,36.63
2370,37.57
2381,36.67
2393,33.2
2405,26.79
2417,17.61
2429,6.38
2441,-5.82
2453,-17.74
2465,-28.17
2477,-36.19
2489,-41.22
2501,-42.99
2513,-41.62
2525,-37.5
2537,-31.2
2549,-23.31
2560,-14.34
2571,-4.72
2583,5.14
2595,14.68
2607,23.32
2619,30.46
2631,35.74
2643,39.14
2655,40.98
2667,41.71
2679,41.68
2691,40.96
2703,39.4
2715,36.91
2727,33.57
2739,29.65
2750,25.61
2761,21.94
2773,19.06
2785,17.32
2797,17.02
2809,18.39
2821,21.71
2833,26.8
2845,32.88
2857,38.75
2869,43.26
2881,45.7
2893,46.09
2905,45.01
2917,43.32
2929,42.18
2940,42.12
2951,42.67
2963,42.71
2975,41.06
2987,37.0
2999,30.55
3011,22.27
3023,13.12
3035,4.95
3047,-0.96
3059,-4.31
3071,-5.62
3083,-5.58
3095,-4.58
3107,-2.48
3119,0.94
3130,5.83
3141,13.13
3153,22.96
3165,34.38
3177,45.75
3189,55.58
3201,62.96
3213,67.62
3225,69.29
3237,62.29
3249,44.78
3261,20.28
3273,-4.65
3285,-25.1
3297,-39.24
3309,-48.98
3320,-55.57
3331,-59.96
3343,-63.16
3355,-64.0
3367,-62.36
3379,-59.09
3391,-55.56
3403,-52.8
3415,-51.27
3427,-50.69
3439,-50.79
3451,-51.33
3463,-51.37
3475,-50.49
3487,-48.96
3499,-47.6
3510,-47.21
3521,-48.25
3533,-50.58
3545,-53.86
3557,-57.49
3569,-60.26
3581,-61.22
3593,-59.94
3605,-56.48
3617,-51.2
3629,-44.49
3641,-36.66
3653,-28.19
3665,-19.65
3677,-11.41
3689,-3.99
3700,2.09
3711,6.42
3723,8.9
3735,9.77
3747,9.59
3759,8.9
3771,8.18
3783,7.86
3795,8.26
3807,9.51
3819,11.6
3831,14.35
3843,17.47
3855,20.62
3867,23.47
3879,25.85
3890,27.79
3901,29.42
3913,30.89
3925,32.31
3937,33.71
3949,35.13
3961,36.71
3973,38.6
3985,40.92
3997,43.61
4009,46.35
4021,48.67
4033,50.05
4045,50.01
4057,48.2
4069,44.39
4080,38.43
4091,30.3
4103,20.15
4115,8.35
4127,-4.47
4139,-17.54
4151,-30.13
4163,-41.6
4175,-51.52
4187,-59.64
4199,-65.81
4211,-69.97
4223,-72.05
4235,-72.05
4247,-69.98
4259,-65.95
4270,-60.11
4281,-52.69
4293,-44.04
4305,-34.6
4317,-24.92
4329,-15.6
4341,-7.23
4353,-0.23
4365,5.21
4377,9.18
4389,11.92
4401,13.72
4413,14.79
4425,15.21
4437,15.06
4449,14.48
4460,13.78
4471,13.42
4483,13.83
4495,15.23
4507,17.47
4519,20.13
4531,22.61
4543,24.38
4555,25.12
4567,24.73
4579,23.28
4591,20.91
4603,17.73
4615,13.84
4627,9.31
4639,4.29
4650,-1.06
4661,-6.58
4673,-12.11
4685,-17.58
4697,-22.8
4709,-27.52
4721,-31.35
4733,-33.81
4745,-34.49
4757,-33.06
4769,-29.42
4781,-23.56
4793,-15.57
4805,-5.61
4817,6.06
4829,18.96
4840,32.31
4851,45.06
4863,56.05
4875,64.33
4887,69.45
4899,71.55
4911,71.24
4923,69.23
4935,66.0
4947,61.65
4959,56.03
4971,49.04
4983,40.99
4995,32.66
5007,25.08
5019,19.02
5030,14.68
5041,11.63
5053,9.13
5065,6.61
5077,3.95
5089,1.47
5101,-0.43
5113,-1.61
5125,-2.47
5137,-3.73
5149,-6.09
5161,-9.9
5173,-15.05
5185,-21.09
5197,-27.48
5209,-33.81
5220,-39.82
5231,-45.38
5243,-50.41
5255,-54.83
5267,-58.59
5279,-61.64
5291,-63.89
5303,-65.23
5315,-65.54
5327,-64.81
5339,-63.18
5351,-60.9
5363,-58.25
5375,-55.35
5387,-52.14
5399,-48.35
5410,-43.73
5421,-38.05
5433,-31.22
5445,-23.25
5457,-14.11
5469,-3.82
5481,7.45
5493,19.28
5505,31.07
5517,42.13
5529,51.99
5541,60.54
5553,68.09
5565,75.16
5577,82.15
5589,89.0
5600,95.14
5611,99.54
5623,101.13
5635,99.22
5647,93.67
5659,85.01
5671,74.2
5683,62.33
5695,50.38
5707,39.02
5719,28.66
5731,19.49
5743,11.58
5755,4.91
5767,-0.58
5779,-4.99
5790,-8.44
5801,-11.02
5813,-12.82
5825,-13.93
5837,-14.48
5849,-14.63
5861,-14.58
5873,-14.53
5885,-14.67
5897,-15.12
5909,-15.89
5921,-16.9
5933,-17.9
5945,-18.68
5957,-19.13
5969,-19.27
5980,-19.32
5991,-19.55
6003,-20.13
6015,-21.07
6027,-22.19
6039,-23.18
6051,-23.85
6063,-24.21
6075,-24.43
6087,-24.75
6099,-25.28
6111,-25.93
6123,-26.44
6135,-26.51
6147,-25.93
6159,-24.7
6170,-22.96
6181,-20.9
6193,-18.74
6205,-16.64
6217,-14.72
6229,-13.07
6241,-11.86
6253,-11.28
6265,-11.53
6277,-12.71
6289,-14.8
6301,-17.57
6313,-20.67
6325,-23.7
6337,-26.28
6349,-28.22
6360,-29.47
6371,-30.06
6383,-29.97
6395,-29.12
6407,-27.3
6419,-24.36
6431,-20.39
6443,-15.69
6455,-10.87
6467,-6.65
6479,-3.74
6491,-2.58
6503,-3.28
6515,-5.47
6527,-8.43
6539,-11.28
6550,-13.1
6561,-13.26
6573,-11.53
6585,-8.04
6597,-3.31
6609,2.04
6621,7.38
6633,12.17
6645,16.0
6657,18.65
6669,19.96
6681,19.99
6693,18.98
6705,17.28
6717,15.36
6729,13.68
6740,12.58
6751,12.23
6763,12.66
6775,13.71
6787,15.12
6799,16.75
6811,18.47
6823,20.35
6835,22.5
6847,25.02
6859,27.82
6871,30.65
6883,32.96
6895,34.12
6907,33.61
6919,31.08
6930,26.5
6941,20.16
6953,12.54
6965,4.19
6977,-4.39
6989,-12.88
7001,-21.08
7013,-28.81
7025,-35.82
7037,-41.67
7049,-45.86
7061,-47.98
7073,-47.82
7085,-45.53
7097,-41.51
7109,-36.27
7120,-30.28
7131,-23.88
7143,-17.27
7155,-10.67
7167,-4.39
7179,1.18
7191,5.66
7203,8.8
7215,10.55
7227,11.06
7239,10.53
7251,9.15
7263,7.04
7275,4.31
7287,1.13
7299,-2.23
7310,-5.47
7321,-8.32
7333,-10.62
7345,-12.44
7357,-13.9
7369,-15.23
7381,-16.61
7393,-18.09
7405,-19.57
7417,-20.84
7429,-21.62
7441,-21.61
7453,-20.7
7465,-18.96
7477,-16.68
7489,-14.31
7500,-12.21
7511,-10.57
7523,-9.31
7535,-8.13
7547,-6.67
7559,-4.8
7571,-2.61
7583,-0.45
7595,1.29
7607,2.45
7619,3.15
7631,3.83
7643,5.05
7655,7.23
7667,10.45
7679,14.45
7690,18.67
7701,22.49
7713,25.43
7725,27.19
7737,27.78
7749,27.44
7761,26.67
7773,26.12
7785,26.5
7797,28.32
7809,31.72
7821,36.4
7833,41.58
7845,46.31
7857,49.67
7869,51.03
7880,50.13
7891,47.11
7903,42.39
7915,36.47
7927,29.93
7939,23.25
7951,16.73
7963,10.49
7975,4.41
7987,-1.72
7999,-8.03
8011,-14.48
8023,-20.75
8035,-26.4
8047,-30.98
8059,-34.19
8070,-36.0
8081,-36.51
8093,-35.83
8105,-33.96
8117,-30.75
8129,-26.07
8141,-19.95
8153,-12.77
8165,-5.18
8177,1.98
8189,7.96
8201,12.3
8213,14.91
8225,16.01
8237,16.05
8249,15.56
8260,15.05
8271,14.91
8283,15.3
8295,16.04
8307,16.65
8319,16.48
8331,15.11
8343,12.66
8355,10.0
8367,8.55
8379,9.7
8391,14.17
8403,21.51
8415,30.21
8427,38.26
8439,44.02
8450,46.78
8461,46.86
8473,45.21
8485,42.83
8497,40.22
8509,37.4
8521,34.15
8533,30.4
8545,26.4
8557,22.69
8569,19.78
8581,17.87
8593,16.74
8605,15.89
8617,14.69
8629,12.6
8640,9.29
8651,4.69
8663,-1.02
8675,-7.44
8687,-13.98
8699,-20.02
8711,-24.91
8723,-28.24
8735,-29.9
8747,-30.12
8759,-29.39
8771,-28.32
8783,-27.49
8795,-27.23
8807,-27.66
8819,-28.67
8830,-30.17
8841,-32.13
8853,-34.6
8865,-37.63
8877,-41.1
8889,-44.69
8901,-47.97
8913,-50.55
8925,-52.28
8937,-53.34
8949,-54.0
8961,-54.46
8973,-54.6
8985,-54.01
8997,-52.08
9009,-48.31
9020,-42.56
9031,-35.02
9043,-26.28
9055,-17.1
9067,-8.26
9079,-0.43
9091,5.89
9103,10.49
9115,13.4
9127,14.88
9139,15.37
9151,15.42
9163,15.54
9175,16.16
9187,17.45
9199,19.4
9210,21.7
9221,23.98
9233,25.89
9245,27.33
9257,28.39
9269,29.4
9281,30.72
9293,32.56
9305,34.92
9317,37.56
9329,40.12
9341,42.18
9353,43.44
9365,43.72
9377,42.93
9389,41.09
9400,38.18
9411,34.27
9423,29.45
9435,23.98
9447,18.35
9459,13.27
9471,9.49
9483,7.53
9495,7.46
9507,8.71
9519,10.35
9531,11.38
9543,11.15
9555,9.58
9567,7.15
9579,4.54
9590,2.35
9601,0.9
9613,0.18
9625,0.05
9637,0.32
9649,0.93
9661,1.9
9673,3.25
9685,4.9
9697,6.64
9709,8.21
9721,9.34
9733,9.92
9745,10.03
9757,9.87
9769,9.65
9780,9.4
9791,8.91
9803,7.79
9815,5.65
9827,2.33
9839,-2.0
9851,-6.8
9863,-11.46
9875,-15.45
9887,-18.45
9899,-20.39
9911,-21.39
9923,-21.58
9935,-21.13
9947,-20.2
9959,-18.91
9970,-17.48
9981,-16.12
9993,-15.03
10005,-14.38
10017,-14.34
10029,-14.98
10041,-16.32
10053,-18.28
10065,-20.69
10077,-23.26
10089,-25.71
10101,-27.85
10113,-29.75
10125,-31.72
10137,-34.2
10149,-37.54
10160,-41.85
10171,-46.81
10183,-51.81
10195,-56.14
10207,-59.22
10219,-60.8
10231,-60.8
10243,-59.28
10255,-56.33
10267,-52.02
10279,-46.48
10291,-40.08
10303,-33.28
10315,-26.54
10327,-20.1
10339,-13.72
10350,-6.82
10361,1.18
10373,10.57
10385,21.02
10397,31.62
10409,41.21
10421,48.81
10433,53.92
10445,56.61
10457,57.29
10469,56.36
10481,54.15
10493,50.87
10505,46.79
10517,42.38
10529,38.21
10540,34.78
10551,32.33
10563,30.69
10575,29.44
10587,28.1
10599,26.27
10611,23.78
10623,20.74
10635,17.45
10647,14.23
10659,11.32
10671,8.89
10683,7.09
10695,6.18
10707,6.45
10719,8.17
10730,11.66
10741,17.11
10753,24.51
10765,33.55
10777,43.67
10789,54.16
10801,64.29
10813,73.28
10825,80.4
10837,85.02
10849,86.71
10861,85.09
10873,79.87
10885,70.92
10897,58.57
10909,43.64
10920,26.95
10931,9.27
10943,-8.37
10955,-24.6
10967,-37.89
10979,-46.92
10991,-50.97
11003,-50.0
11015,-44.82
11027,-37.8
11039,-31.92
11051,-29.15
11063,-29.46
11075,-31.03
11087,-31.49
11099,-28.96
11110,-22.63
11121,-12.97
11133,-2.82
11145,3.99
11157,5.06
11169,0.53
11181,-7.15
11193,-15.0
11205,-20.42
11217,-21.57
11229,-17.8
11241,-11.94
11253,-9.49
11265,-16.07
11277,-35.69
11289,-69.26
11300,-115.56
11311,-171.28
11323,-231.39
11335,-279.79
11347,-299.87
11359,-286.04
11371,-248.81
11383,-205.66
11395,-168.22
11407,-140.75
11419,-121.86
11431,-106.83
11443,-89.47
11455,-65.85
11467,-36.78
11479,-2.18
11490,36.09
11501,75.76
11513,112.99
11525,144.35
11537,168.73
11549,187.68
11561,203.12
11573,216.83
11585,231.33
11597,241.9
11609,247.89
11621,248.28
11633,241.82
11645,227.88
11657,206.95
11669,179.83
11680,147.66
11691,112.25
11703,75.53
11715,40.67
11727,10.03
11739,-14.42
11751,-30.86
11763,-38.1
11775,-36.77
11787,-29.53
11799,-20.3
11811,-13.34
11823,-10.91
11835,-13.89
11847,-21.43
11859,-31.32
11870,-41.02
11881,-48.82
11893,-54.44
11905,-58.57
11917,-62.49
11929,-66.3
11941,-69.51
11953,-71.01
11965,-69.59
11977,-64.59
11989,-56.42
12001,-46.55
12013,-37.01
12025,-29.74
12037,-25.31
12049,-23.17
12060,-22.06
12071,-20.39
12083,-16.9
12095,-11.07
12107,-3.22
12119,5.58
12131,13.85
12143,20.55
12155,25.08
12167,27.01
12179,26.31
12191,23.2
12203,18.1
12215,11.78
12227,5.78
12239,-0.29
12250,-7.64
12261,-16.44
12273,-27.04
12285,-39.46
12297,-53.27
12309,-67.53
12321,-80.99
12333,-92.41
12345,-100.94
12357,-105.78
12369,-106.35
12381,-102.61
12393,-94.89
12405,-83.87
12417,-70.66
12429,-56.62
12440,-43.14
12451,-31.39
12463,-21.46
12475,-12.67
12487,-4.14
12499,4.82
12511,14.51
12523,24.69
12535,34.68
12547,43.65
12559,50.91
12571,56.79
12583,62.03
12595,67.02
12607,71.55
12619,74.98
12630,76.55
12641,75.69
12653,72.25
12665,66.48
12677,59.79
12689,53.59
12701,48.49
12713,44.24
12725,40.4
12737,36.85
12749,33.86
12761,31.96
12773,31.47
12785,33.4
12797,38.41
12809,46.27
12820,55.95
12831,66.48
12843,77.13
12855,87.08
12867,95.28
12879,94.57
12891,80.65
12903,55.52
12915,26.41
12927,0.26
12939,-19.46
12951,-32.33
12963,-40.98
12975,-47.35
12987,-52.8
12999,-57.24
13010,-60.5
13021,-62.18
13033,-63.18
13045,-64.66
13057,-67.38
13069,-71.48
13081,-76.27
13093,-80.74
13105,-83.08
13117,-81.89
13129,-77.1
13141,-70.12
13153,-62.85
13165,-56.77
13177,-52.53
13189,-49.73
13200,-47.48
13211,-44.36
13223,-39.41
13235,-32.67
13247,-25.18
13259,-18.13
13271,-12.24
13283,-7.53
13295,-3.47
13307,0.56
13319,5.02
13331,9.93
13343,14.73
13355,18.57
13367,20.85
13379,21.48
13390,20.76
13401,19.08
13413,16.67
13425,13.58
13437,9.82
13449,5.57
13461,1.18
13473,-2.73
13485,-5.59
13497,-7.1
13509,-7.32
13521,-6.67
13533,-5.7
13545,-4.78
13557,-4.03
13569,-3.31
13580,-2.34
13591,-0.86
13603,1.24
13615,3.82
13627,6.56
13639,9.11
13651,11.22
13663,12.93
13675,14.52
13687,16.44
13699,18.98
13711,22.08
13723,25.26
13735,27.69
13747,28.52
13759,27.25
13770,23.95
13781,19.26
13793,14.26
13805,10.09
13817,7.68
13829,7.52
13841,9.56
13853,13.27
13865,17.88
13877,22.48
13889,26.27
13901,28.69
13913,29.53
13925,28.93
13937,27.34
13949,25.43
13960,23.88
13971,23.19
13983,23.51
13995,24.51
14007,25.53
14019,25.88
14031,25.11
14043,23.31
14055,21.12
14067,19.48
14079,19.27
14091,20.9
14103,24.18
14115,28.39
14127,32.54
14139,35.74
14150,37.34
14161,37.07
14173,34.98
14185,31.38
14197,26.75
14209,21.61
14221,16.4
14233,11.26
14245,6.06
14257,0.54
14269,-5.37
14281,-11.26
14293,-16.2
14305,-19.13
14317,-19.45
14329,-17.53
14340,-14.66
14351,-12.63
14363,-12.84
14375,-15.59
14387,-19.95
14399,-24.27
14411,-27.09
14423,-27.91
14435,-27.41
14447,-27.05
14459,-28.29
14471,-31.85
14483,-37.41
14495,-43.88
14507,-49.91
14519,-54.53
14530,-57.44
14541,-58.97
14553,-59.73
14565,-60.22
14577,-60.48
14589,-60.1
14601,-58.31
14613,-54.38
14625,-47.94
14637,-39.22
14649,-29.06
14661,-18.69
14673,-9.33
14685,-1.8
14697,3.65
14709,7.28
14720,9.72
14731,11.68
14743,13.77
14755,16.36
14767,19.56
14779,23.18
14791,26.74
14803,29.51
14815,30.71
14827,29.78
14839,26.65
14851,21.92
14863,16.79
14875,12.65
14887,10.61
14899,10.9
14910,12.84
14921,15.04
14933,15.97
14945,14.64
14957,10.92
14969,5.37
14981,-1.14
14993,-7.89
15005,-14.52
15017,-20.77
15029,-26.33
15041,-30.55
15053,-32.59
15065,-31.83
15077,-28.18
15089,-22.26
15100,-15.16
15111,-8.0
15123,-1.56
15135,3.9
15147,8.56
15159,12.83
15171,17.03
15183,21.26
15195,25.33
15207,28.88
15219,31.56
15231,33.22
15243,33.93
15255,34.0
15267,33.88
15279,33.87
15290,34.1
15301,34.46
15313,34.73
15325,34.64
15337,34.03
15349,32.81
15361,30.95
15373,28.52
15385,25.65
15397,22.57
15409,19.58
15421,16.97
15433,14.88
15445,13.24
15457,11.79
15469,10.17
15480,8.06
15491,5.38
15503,2.28
15515,-0.84
15527,-3.48
15539,-5.19
15551,-5.74
15563,-5.22
15575,-4.05
15587,-2.87
15599,-2.2
15611,-2.24
15623,-2.69
15635,-2.96
15647,-2.43
15659,-0.83
15670,1.57
15681,4.05
15693,5.8
15705,6.29
15717,5.52
15729,3.89
15741,2.02
15753,0.32
15765,-1.09
15777,-2.36
15789,-3.73
15801,-5.33
15813,-7.1
15825,-8.9
15837,-10.51
15849,-11.8
15860,-12.73
15871,-13.28
15883,-13.45
15895,-13.25
15907,-12.67
15919,-11.77
15931,-10.73
15943,-9.77
15955,-9.17
15967,-9.13
15979,-9.68
15991,-10.71
16003,-12.04
16015,-13.57
16027,-15.3
16039,-17.43
16050,-20.09
16061,-23.2
16073,-26.28
16085,-28.6
16097,-29.41
16109,-28.3
16121,-25.46
16133,-21.57
16145,-17.55
16157,-14.12
16169,-11.57
16181,-9.74
16193,-8.21
16205,-6.67
16217,-5.07
16229,-3.71
16240,-2.97
16251,-3.11
16263,-4.03
16275,-5.48
16287,-7.18
16299,-9.04
16311,-11.22
16323,-13.88
16335,-16.91
16347,-19.76
16359,-21.58
16371,-21.46
16383,-18.94
16395,-14.19
16407,-7.89
16419,-0.94
16430,5.86
16441,12.07
16453,17.48
16465,22.02
16477,25.54
16489,27.88
16501,28.94
16513,28.86
16525,28.1
16537,27.28
16549,26.96
16561,27.38
16573,28.35
16585,29.29
16597,29.58
16609,28.83
16620,27.08
16631,24.78
16643,22.54
16655,20.82
16667,19.69
16679,18.81
16691,17.66
16703,15.85
16715,13.42
16727,10.85
16739,8.81
16751,7.92
16763,8.43
16775,10.18
16787,12.72
16799,15.58
16810,18.43
16821,21.23
16833,23.97
16845,26.64
16857,29.04
16869,30.87
16881,31.9
16893,32.11
16905,31.67
16917,30.92
16929,30.16
16941,29.47
16953,28.65
16965,27.36
16977,25.32
16989,22.52
17000,19.2
17011,15.64
17023,12.11
17035,8.82
17047,5.78
17059,2.89
17071,0.06
17083,-2.75
17095,-5.44
17107,-7.9
17119,-10.43
17131,-13.4
17143,-16.98
17155,-21.15
17167,-25.72
17179,-30.39
17190,-34.92
17201,-39.08
17213,-42.96
17225,-47.29
17237,-52.75
17249,-59.43
17261,-66.8
17273,-73.89
17285,-79.54
17297,-82.66
17309,-82.47
17321,-78.95
17333,-73.38
17345,-67.43
17357,-62.38
17369,-58.88
17380,-56.95
17391,-56.08
17403,-55.41
17415,-53.71
17427,-46.54
17439,-31.83
17451,-10.78
17463,13.49
17475,37.8
17487,59.35
17499,75.21
17511,82.51
17523,79.62
17535,66.88
17547,46.64
17559,22.47
17570,-1.34
17581,-21.63
17593,-37.14
17605,-48.23
17617,-56.7
17629,-63.01
17641,-67.09
17653,-68.67
17665,-68.22
17677,-65.85
17689,-61.87
17701,-56.8
17713,-51.05
17725,-44.82
17737,-38.03
17749,-30.64
17760,-22.57
17771,-14.65
17783,-6.91
17795,0.96
17807,8.29
17819,14.64
17831,19.73
17843,23.52
17855,23.29
17867,23.33
17879,23.49
17891,24.59
17903,27.4
17915,32.42
17927,39.86
17939,49.51
17950,60.76
17961,72.59
17973,84.18
17985,93.96
17997,101.06
18009,104.75
18021,104.59
18033,100.64
18045,93.36
18057,83.38
18069,71.29
18081,57.94
18093,43.98
18105,30.35
18117,17.56
18129,5.78
18140,-4.79
18151,-13.87
18163,-21.27
18175,-27.02
18187,-31.14
18199,-33.21
18211,-32.86
18223,-30.45
18235,-26.87
18247,-22.69
18259,-17.89
18271,-11.96
18283,-4.24
18295,5.97
18307,19.95
18319,37.98
18330,58.63
18341,79.2
18353,97.18
18365,111.07
18377,120.5
18389,125.75
18401,119.52
18413,98.96
18425,67.56
18437,32.88
18449,1.26
18461,-24.42
18473,-43.82
18485,-57.68
18497,-67.25
18509,-74.43
18520,-79.31
18531,-81.53
18543,-81.23
18555,-79.11
18567,-75.82
18579,-71.8
18591,-67.49
18603,-63.52
18615,-59.5
18627,-54.8
18639,-49.19
18651,-43.07
18663,-37.33
18675,-32.69
18687,-29.35
18699,-27.17
18710,-25.87
18721,-25.1
18733,-24.13
18745,-22.53
18757,-20.54
18769,-18.94
18781,-18.43
18793,-19.13
18805,-20.52
18817,-21.5
18829,-20.67
18841,-16.49
18853,-7.95
18865,5.04
18877,21.52
18889,39.84
18900,58.01
18911,74.06
18923,86.26
18935,93.47
18947,95.27
18959,91.91
18971,84.12
18983,72.88
18995,59.23
19007,44.12
19019,28.27
19031,12.25
19043,-3.4
19055,-18.1
19067,-31.17
19079,-41.87
19090,-49.67
19101,-54.35
19113,-56.04
19125,-55.25
19137,-52.57
19149,-48.52
19161,-43.46
19173,-37.57
19185,-30.92
19197,-23.72
19209,-16.31
19221,-9.19
19233,-3.03
19245,1.6
19257,4.25
19269,4.73
19280,3.07
19291,-0.39
19303,-5.16
19315,-10.68
19327,-16.39
19339,-21.83
19351,-26.63
19363,-30.57
19375,-33.54
19387,-35.55
19399,-36.68
19411,-36.98
19423,-36.46
19435,-34.98
19447,-32.32
19459,-28.32
19470,-23.02
19481,-16.77
19493,-10.13
19505,-3.76
19517,1.78
19529,6.09
19541,8.99
19553,10.57
19565,11.14
19577,11.21
19589,11.34
19601,12.02
19613,13.49
19625,15.69
19637,18.33
19649,21.2
19660,24.3
19671,28.08
19683,33.1
19695,39.7
19707,47.63
19719,55.94
19731,63.21
19743,68.03
19755,69.4
19767,67.1
19779,61.67
19791,53.98
19803,44.91
19815,35.09
19827,24.94
19839,14.79
19850,5.05
19861,-3.91
19873,-11.72
19885,-18.06
19897,-23.01
19909,-26.94
19921,-30.23
19933,-33.11
19945,-35.56
19957,-37.41
19969,-38.57
19981,-39.02
19993,-38.7
20005,-37.73
20017,-36.36
20029,-34.77
20040,-33.07
20051,-31.38
20063,-29.86
20075,-28.86
20087,-28.59
20099,-28.79
20111,-29.18
20123,-29.49
20135,-29.48
20147,-28.85
20159,-27.32
20171,-23.53
20183,-16.88
20195,-8.88
20207,-0.19
20219,8.94
20230,17.78
20241,25.57
20253,31.85
20265,36.61
20277,40.21
20289,42.67
20301,43.57
20313,42.24
20325,37.64
20337,29.01
20349,16.74
20361,2.46
20373,-11.25
20385,-21.68
20397,-27.09
20409,-27.18
20420,-22.81
20431,-15.81
20443,-8.28
20455,-1.78
20467,2.84
20479,5.43
20491,6.42
20503,6.32
20515,5.48
20527,4.24
20539,2.86
20551,1.7
20563,1.19
20575,1.7
20587,3.35
20599,6.26
20610,10.02
20621,13.86
20633,16.95
20645,18.83
20657,19.61
20669,19.92
20681,20.44
20693,21.64
20705,24.05
20717,27.6
20729,31.71
20741,35.64
20753,38.85
20765,41.22
20777,42.98
20789,44.25
20800,42.69
20811,37.34
20823,29.18
20835,20.49
20847,13.01
20859,7.16
20871,2.4
20883,-2.03
20895,-6.85
20907,-12.58
20919,-18.71
20931,-24.46
20943,-29.23
20955,-32.83
20967,-35.43
20979,-37.52
20990,-38.68
