seconds,BVP
6,-150.22
18,-139.28
30,-122.58
42,-101.3
54,-76.97
65,-50.8
76,-23.32
88,5.2
100,33.83
112,60.41
124,82.03
136,96.38
148,103.29
160,105.43
172,107.39
184,113.73
196,126.89
208,146.2
220,168.3
232,188.68
244,203.37
255,210.04
266,208.28
278,199.05
290,183.92
302,164.39
314,141.72
326,117.08
338,91.99
350,68.68
362,49.92
374,38.18
386,34.65
398,38.53
410,47.4
422,58.17
434,68.3
445,76.41
456,82.1
468,84.96
480,83.93
492,77.39
504,64.16
516,44.75
528,21.88
540,-0.26
552,-17.6
564,-27.8
576,-31.18
588,-30.49
600,-29.56
612,-31.85
624,-39.13
635,-50.88
646,-64.78
658,-77.7
670,-86.92
682,-91.12
694,-90.6
706,-86.98
718,-82.48
730,-79.09
742,-77.99
754,-79.53
766,-83.3
778,-88.63
790,-94.7
802,-100.73
814,-105.83
825,-109.04
836,-109.49
848,-106.66
860,-100.73
872,-92.54
884,-83.5
896,-75.08
908,-68.26
920,-63.26
932,-59.49
944,-55.99
956,-52.05
968,-47.75
980,-43.89
992,-41.65
1004,-41.74
1015,-43.81
1026,-46.38
1038,-47.51
1050,-45.46
1062,-39.22
1074,-28.65
1086,-14.14
1098,3.62
1110,23.75
1122,44.86
1134,64.91
1146,81.4
1158,92.08
1170,95.71
1182,92.49
1194,83.93
1205,72.26
1216,59.72
1228,48.03
1240,38.13
1252,30.19
1264,23.85
1276,18.37
1288,12.79
1300,6.31
1312,-1.28
1324,-9.09
1336,-14.99
1348,-16.24
1360,-10.6
1372,2.31
1384,20.54
1395,40.34
1406,57.7
1418,69.93
1430,76.55
1442,78.89
1454,78.76
1466,77.11
1478,73.54
1490,66.99
1502,57.15
1514,45.42
1526,34.71
1538,28.07
1550,26.99
1562,30.61
1574,36.13
1585,40.23
1596,40.65
1608,37.01
1620,30.69
1632,23.67
1644,17.41
1656,12.2
1668,7.33
1680,1.78
1692,-4.98
1704,-12.63
1716,-20.24
1728,-26.74
1740,-31.45
1752,-34.27
1764,-35.65
1775,-36.32
1786,-37.07
1798,-38.49
1810,-40.82
1822,-43.86
1834,-47.05
1846,-49.68
1858,-51.25
1870,-51.72
1882,-51.62
1894,-51.75
1906,-52.71
1918,-54.52
1930,-56.53
1942,-57.71
1954,-57.16
1965,-54.43
1976,-49.58
1988,-42.94
2000,-34.84
2012,-25.42
2024,-14.79
2036,-3.22
2048,8.69
2060,20.03
2072,29.83
2084,37.35
2096,42.22
2108,44.34
2120,43.73
2132,40.37
2144,34.34
2155,25.88
2166,15.62
2178,4.51
2190,-6.36
2202,-16.22
2214,-24.87
2226,-32.77
2238,-40.8
2250,-49.66
2262,-59.45
2274,-69.36
2286,-77.95
2298,-83.74
2310,-85.78
2322,-83.96
2334,-78.93
2345,-71.57
2356,-62.54
2368,-52.18
2380,-40.82
2392,-29.14
2404,-18.43
2416,-10.29
2428,-5.85
2440,-5.05
2452,-6.25
2464,-6.52
2476,-2.62
2488,7.74
2500,24.97
2512,47.27
2524,71.38
2535,93.84
2546,112.39
2558,126.88
2570,139.22
2582,152.32
2594,168.56
2606,188.44
2618,210.18
2630,230.48
2642,246.06
2654,254.99
2666,257.12
2678,253.59
2690,245.65
2702,234.0
2714,218.83
2725,200.5
2736,180.23
2748,160.15
2760,142.45
2772,128.29
2784,117.19
2796,107.21
2808,96.03
2820,82.05
2832,65.14
2844,46.56
2856,28.48
2868,13.19
2880,2.42
2892,-3.22
2904,-4.53
2915,-3.63
2926,-3.39
2938,-6.45
2950,-14.18
2962,-26.1
2974,-40.07
2986,-53.25
2998,-63.17
3010,-68.39
3022,-68.85
3034,-65.41
3046,-59.49
3058,-52.85
3070,-47.32
3082,-44.33
3094,-44.52
3105,-47.34
3116,-51.35
3128,-55.33
3140,-59.7
3152,-67.12
3164,-81.61
3176,-106.12
3188,-139.98
3200,-177.96
3212,-211.85
3224,-234.16
3236,-241.63
3248,-236.58
3260,-225.32
3272,-214.41
3284,-207.33
3295,-203.37
3306,-199.08
3318,-190.8
3330,-176.69
3342,-156.93
3354,-132.59
3366,-104.39
3378,-72.26
3390,-35.8
3402,4.85
3414,48.54
3426,93.49
3438,137.74
3450,179.48
3462,216.92
3474,247.83
3485,269.4
3496,278.85
3508,274.68
3520,257.68
3532,231.21
3544,200.06
3556,168.73
3568,139.87
3580,113.81
3592,89.43
3604,65.56
3616,42.09
3628,19.77
3640,-0.81
3652,-20.29
3664,-40.48
3675,-63.08
3686,-87.95
3698,-112.52
3710,-132.98
3722,-146.65
3734,-154.01
3746,-158.74
3758,-165.49
3770,-176.96
3782,-192.32
3794,-208.2
3806,-221.61
3818,-232.42
3830,-243.66
3842,-259.29
3854,-280.92
3865,-306.08
3876,-329.21
3888,-344.93
3900,-351.18
3912,-350.32
3924,-347.38
3936,-346.61
3948,-348.71
3960,-350.38
3972,-346.24
3984,-331.9
3996,-306.06
4008,-271.05
4020,-231.5
4032,-192.28
4044,-156.65
4055,-125.34
4066,-96.5
4078,-66.54
4090,-31.63
4102,10.93
4114,61.56
4126,118.0
4138,175.8
4150,229.59
4162,274.52
4174,307.64
4186,328.59
4198,339.52
4210,344.03
4222,345.75
4234,347.14
4245,349.1
4256,351.63
4268,354.85
4280,359.65
4292,367.2
4304,377.77
4316,389.7
4328,399.4
4340,402.66
4352,396.38
4364,379.76
4376,354.01
4388,321.21
4400,283.07
4412,240.89
4424,196.54
4435,153.68
4446,117.77
4458,94.37
4470,86.27
4482,91.31
4494,102.09
4506,108.21
4518,100.06
4530,72.57
4542,27.27
4554,-28.45
4566,-84.24
4578,-130.68
4590,-162.28
4602,-178.57
4614,-182.88
4625,-179.88
4636,-173.29
4648,-165.15
4660,-156.53
4672,-148.92
4684,-144.83
4696,-147.17
4708,-157.7
4720,-175.63
4732,-197.54
4744,-218.63
4756,-234.48
4768,-242.2
4780,-240.62
4792,-229.84
4804,-210.72
4815,-184.98
4826,-155.11
4838,-124.31
4850,-95.67
4862,-71.15
4874,-50.99
4886,-33.99
4898,-18.63
4910,-4.11
4922,9.09
4934,19.73
4946,26.59
4958,29.12
4970,27.82
4982,23.74
4994,17.97
5005,11.11
5016,3.18
5028,-6.26
5040,-17.81
5052,-31.73
5064,-47.67
5076,-64.41
5088,-80.26
5100,-93.41
5112,-102.65
5124,-107.56
5136,-108.54
5148,-106.2
5160,-100.76
5172,-91.75
5184,-78.2
5195,-59.55
5206,-36.36
5218,-10.75
5230,14.23
5242,35.45
5254,50.95
5266,60.42
5278,64.99
5290,66.47
5302,66.48
5314,65.99
5326,65.38
5338,64.86
5350,64.94
5362,66.51
5374,70.65
5385,78.16
5396,89.12
5408,102.67
5420,117.0
5432,129.65
5444,138.2
5456,140.94
5468,137.37
5480,128.29
5492,115.22
5504,99.72
5516,82.79
5528,64.96
5540,46.66
5552,28.77
5564,12.65
5575,-0.33
5586,-9.61
5598,-15.95
5610,-21.17
5622,-27.44
5634,-36.21
5646,-47.53
5658,-60.12
5670,-71.96
5682,-81.05
5694,-85.99
5706,-86.24
5718,-81.94
5730,-73.75
5742,-62.52
5754,-49.25
5765,-35.07
5776,-21.11
5788,-8.56
5800,1.59
5812,8.7
5824,12.71
5836,14.08
5848,13.7
5860,12.55
5872,11.29
5884,10.17
5896,9.04
5908,7.73
5920,6.24
5932,4.91
5944,4.12
5955,4.16
5966,4.93
5978,5.93
5990,6.41
6002,5.61
6014,3.05
6026,-1.34
6038,-7.13
6050,-13.55
6062,-19.58
6074,-24.31
6086,-27.18
6098,-28.1
6110,-27.44
6122,-25.84
6134,-23.96
6145,-22.37
6156,-21.49
6168,-21.6
6180,-22.84
6192,-25.09
6204,-27.78
6216,-29.96
6228,-30.44
6240,-28.22
6252,-22.89
6264,-14.81
6276,-4.97
6288,5.38
6300,15.17
6312,23.81
6324,31.14
6335,37.28
6346,42.42
6358,46.7
6370,50.16
6382,52.75
6394,54.4
6406,54.94
6418,54.05
6430,51.45
6442,46.99
6454,40.96
6466,33.98
6478,26.88
6490,20.29
6502,14.45
6514,9.3
6525,4.68
6536,0.69
6548,-2.33
6560,-4.0
6572,-4.35
6584,-3.93
6596,-3.68
6608,-4.47
6620,-6.62
6632,-9.91
6644,-13.79
6656,-17.85
6668,-22.04
6680,-26.58
6692,-31.48
6704,-36.27
6715,-39.93
6726,-41.24
6738,-39.36
6750,-34.08
6762,-25.93
6774,-15.91
6786,-5.16
6798,5.3
6810,14.63
6822,22.22
6834,27.59
6846,30.53
6858,31.07
6870,29.41
6882,25.95
6894,21.18
6905,15.73
6916,10.28
6928,5.55
6940,2.07
6952,0.08
6964,-0.63
6976,-0.58
6988,-0.4
7000,-0.49
7012,-0.89
7024,-1.32
7036,-1.48
7048,-1.33
7060,-1.28
7072,-1.91
7084,-3.69
7095,-6.6
7106,-10.02
7118,-13.07
7130,-15.04
7142,-15.82
7154,-15.94
7166,-16.37
7178,-18.02
7190,-21.33
7202,-26.12
7214,-31.71
7226,-37.13
7238,-41.34
7250,-43.38
7262,-42.42
7274,-38.01
7285,-30.24
7296,-19.82
7308,-8.03
7320,3.69
7332,14.05
7344,22.29
7356,28.15
7368,31.74
7380,33.29
7392,33.05
7404,31.3
7416,28.45
7428,25.14
7440,22.07
7452,19.76
7464,18.3
7475,17.33
7486,16.21
7498,14.44
7510,12.04
7522,9.57
7534,7.87
7546,7.62
7558,8.88
7570,11.1
7582,13.33
7594,14.79
7606,15.09
7618,14.35
7630,12.93
7642,11.12
7654,8.94
7665,6.22
7676,2.73
7688,-1.56
7700,-6.33
7712,-11.1
7724,-15.32
7736,-18.69
7748,-21.26
7760,-23.41
7772,-25.74
7784,-28.66
7796,-32.25
7808,-36.03
7820,-39.1
7832,-40.43
7844,-39.31
7855,-35.5
7866,-29.34
7878,-21.62
7890,-13.29
7902,-5.18
7914,2.09
7926,8.21
7938,13.09
7950,16.75
7962,19.32
7974,20.93
7986,21.77
7998,22.07
8010,22.05
8022,21.88
8034,21.62
8045,21.26
8056,20.73
8068,20.03
8080,19.27
8092,18.71
8104,18.64
8116,19.25
8128,20.45
8140,21.97
8152,23.37
8164,24.3
8176,24.54
8188,24.12
8200,23.2
8212,22.05
8224,20.9
8235,19.93
8246,19.16
8258,18.53
8270,17.91
8282,17.15
8294,16.17
8306,15.02
8318,13.79
8330,12.57
8342,11.44
8354,10.36
8366,9.29
8378,8.11
8390,6.71
8402,5.01
8414,3.01
8425,0.86
8436,-1.06
8448,-2.21
8460,-2.0
8472,0.01
8484,3.86
8496,9.14
8508,15.1
8520,20.87
8532,25.78
8544,29.5
8556,32.06
8568,33.59
8580,34.25
8592,34.04
8604,32.93
8615,30.97
8626,28.4
8638,25.63
8650,23.09
8662,21.13
8674,19.79
8686,18.91
8698,18.21
8710,17.53
8722,16.92
8734,16.61
8746,16.81
8758,17.57
8770,18.62
8782,19.5
8794,19.76
8805,19.13
8816,17.7
8828,15.79
8840,13.82
8852,12.09
8864,10.74
8876,9.73
8888,8.99
8900,8.44
8912,8.1
8924,7.93
8936,7.88
8948,7.83
8960,7.64
8972,7.15
8984,6.26
8995,4.9
9006,3.11
9018,1.01
9030,-1.23
9042,-3.51
9054,-5.79
9066,-8.14
9078,-10.69
9090,-13.52
9102,-16.55
9114,-19.54
9126,-22.1
9138,-23.87
9150,-24.54
9162,-23.9
9174,-21.82
9185,-18.26
9196,-13.32
9208,-7.32
9220,-0.79
9232,5.57
9244,11.11
9256,15.36
9268,18.13
9280,19.53
9292,19.86
9304,19.51
9316,18.79
9328,17.94
9340,17.11
9352,16.35
9364,15.67
9375,15.05
9386,14.4
9398,13.63
9410,12.71
9422,11.64
9434,10.53
9446,9.53
9458,8.81
9470,8.46
9482,8.45
9494,8.61
9506,8.74
9518,8.68
9530,8.36
9542,7.76
9554,6.95
9565,5.93
9576,4.74
9588,3.41
9600,2.04
9612,0.74
9624,-0.43
9636,-1.54
9648,-2.73
9660,-4.12
9672,-5.72
9684,-7.41
9696,-9.01
9708,-10.37
9720,-11.45
9732,-12.41
9744,-13.39
9755,-14.5
9766,-15.75
9778,-17.11
9790,-18.55
9802,-20.06
9814,-21.62
9826,-23.06
9838,-24.07
9850,-24.31
9862,-23.53
9874,-21.68
9886,-18.88
9898,-15.31
9910,-11.14
9922,-6.57
9934,-1.82
9945,2.81
9956,6.96
9968,10.32
9980,12.77
9992,14.35
10004,15.22
10016,15.54
10028,15.36
10040,14.68
10052,13.58
10064,12.19
10076,10.74
10088,9.47
10100,8.52
10112,7.9
10124,7.55
10135,7.4
10146,7.41
10158,7.58
10170,7.83
10182,8.02
10194,8.0
10206,7.66
10218,7.0
10230,6.13
10242,5.17
10254,4.21
10266,3.25
10278,2.19
10290,0.98
10302,-0.4
10314,-1.9
10325,-3.39
10336,-4.76
10348,-5.92
10360,-6.85
10372,-7.64
10384,-8.43
10396,-9.41
10408,-10.78
10420,-12.6
10432,-14.73
10444,-16.92
10456,-18.83
10468,-20.2
10480,-20.91
10492,-20.9
10504,-20.11
10515,-18.44
10526,-15.73
10538,-11.93
10550,-7.22
10562,-2.04
10574,3.01
10586,7.35
10598,10.69
10610,13.02
10622,14.55
10634,15.51
10646,16.05
10658,16.14
10670,15.74
10682,14.81
10694,13.48
10705,11.94
10716,10.45
10728,9.25
10740,8.49
10752,8.22
10764,8.33
10776,8.66
10788,8.98
10800,9.13
10812,9.01
10824,8.66
10836,8.17
10848,7.55
10860,6.8
10872,5.85
10884,4.66
10895,3.26
10906,1.75
10918,0.28
10930,-1.04
10942,-2.17
10954,-3.16
10966,-4.12
10978,-5.12
10990,-6.24
11002,-7.48
11014,-8.86
11026,-10.3
11038,-11.76
11050,-13.13
11062,-14.35
11074,-15.4
11085,-16.34
11096,-17.29
11108,-18.37
11120,-19.69
11132,-21.2
11144,-22.74
11156,-23.97
11168,-24.54
11180,-24.15
11192,-22.63
11204,-19.96
11216,-16.29
11228,-11.88
11240,-7.05
11252,-2.18
11264,2.39
11275,6.33
11286,9.44
11298,11.62
11310,12.92
11322,13.46
11334,13.44
11346,13.07
11358,12.56
11370,12.09
11382,11.79
11394,11.68
11406,11.72
11418,11.82
11430,11.91
11442,11.96
11454,11.96
11465,11.9
11476,11.82
11488,11.69
11500,11.53
11512,11.38
11524,11.22
11536,11.02
11548,10.69
11560,10.11
11572,9.18
11584,7.91
11596,6.37
11608,4.72
11620,3.09
11632,1.55
11644,0.09
11655,-1.33
11666,-2.77
11678,-4.27
11690,-5.86
11702,-7.59
11714,-9.51
11726,-11.68
11738,-14.13
11750,-16.81
11762,-19.59
11774,-22.26
11786,-24.66
11798,-26.66
11810,-28.28
11822,-29.57
11834,-30.55
11845,-31.12
11856,-31.04
11868,-30.01
11880,-27.83
11892,-24.44
11904,-20.0
11916,-14.88
11928,-9.5
11940,-4.3
11952,0.38
11964,4.3
11976,7.38
11988,9.62
12000,11.16
12012,12.15
12024,12.74
12035,12.99
12046,12.92
12058,12.53
12070,11.84
12082,10.96
12094,10.04
12106,9.24
12118,8.65
12130,8.3
12142,8.2
12154,8.28
12166,8.47
12178,8.67
12190,8.78
12202,8.65
12214,8.16
12225,7.27
12236,6.01
12248,4.55
12260,3.05
12272,1.68
12284,0.51
12296,-0.48
12308,-1.4
12320,-2.36
12332,-3.44
12344,-4.74
12356,-6.28
12368,-8.07
12380,-10.06
12392,-12.14
12404,-14.16
12415,-15.95
12426,-17.4
12438,-18.39
12450,-18.82
12462,-18.52
12474,-17.34
12486,-15.16
12498,-11.97
12510,-7.92
12522,-3.29
12534,1.57
12546,6.29
12558,10.5
12570,13.91
12582,16.32
12594,17.65
12605,17.98
12616,17.53
12628,16.59
12640,15.43
12652,14.2
12664,12.98
12676,11.86
12688,10.92
12700,10.26
12712,9.94
12724,9.9
12736,9.97
12748,9.96
12760,9.77
12772,9.45
12784,9.11
12795,8.86
12806,8.66
12818,8.37
12830,7.82
12842,6.93
12854,5.73
12866,4.39
12878,3.06
12890,1.81
12902,0.57
12914,-0.77
12926,-2.33
12938,-4.08
12950,-5.92
12962,-7.68
12974,-9.21
12985,-10.47
12996,-11.57
13008,-12.76
13020,-14.28
13032,-16.34
13044,-18.99
13056,-22.05
13068,-25.16
13080,-27.86
13092,-29.69
13104,-30.29
13116,-29.49
13128,-27.24
13140,-23.7
13152,-19.12
13164,-13.82
13175,-8.21
13186,-2.67
13198,2.42
13210,6.74
13222,10.09
13234,12.44
13246,13.84
13258,14.45
13270,14.46
13282,14.03
13294,13.36
13306,12.56
13318,11.72
13330,10.88
13342,10.03
13354,9.23
13365,8.59
13376,8.23
13388,8.29
13400,8.77
13412,9.56
13424,10.43
13436,11.19
13448,11.7
13460,11.95
13472,11.96
13484,11.73
13496,11.19
13508,10.23
13520,8.79
13532,6.85
13544,4.56
13555,2.06
13566,-0.52
13578,-3.08
13590,-5.59
13602,-7.98
13614,-10.16
13626,-12.05
13638,-13.64
13650,-15.02
13662,-16.41
13674,-18.01
13686,-19.95
13698,-22.19
13710,-24.54
13722,-26.64
13734,-28.15
13745,-28.69
13756,-27.99
13768,-25.9
13780,-22.45
13792,-17.84
13804,-12.44
13816,-6.73
13828,-1.15
13840,3.91
13852,8.2
13864,11.6
13876,14.12
13888,15.77
13900,16.64
13912,16.83
13924,16.49
13935,15.76
13946,14.8
13958,13.72
13970,12.56
13982,11.34
13994,10.09
14006,8.92
14018,7.96
14030,7.39
14042,7.3
14054,7.66
14066,8.26
14078,8.79
14090,8.98
14102,8.68
14114,7.93
14125,6.89
14136,5.75
14148,4.62
14160,3.51
14172,2.37
14184,1.14
14196,-0.19
14208,-1.63
14220,-3.15
14232,-4.75
14244,-6.42
14256,-8.12
14268,-9.77
14280,-11.29
14292,-12.62
14304,-13.78
14315,-14.82
14326,-15.8
14338,-16.75
14350,-17.65
14362,-18.48
14374,-19.14
14386,-19.5
14398,-19.32
14410,-18.34
14422,-16.34
14434,-13.25
14446,-9.23
14458,-4.62
14470,0.19
14482,4.83
14494,9.06
14505,12.68
14516,15.54
14528,17.47
14540,18.35
14552,18.24
14564,17.41
14576,16.24
14588,15.08
14600,14.13
14612,13.35
14624,12.58
14636,11.69
14648,10.71
14660,9.77
14672,9.06
14684,8.63
14695,8.43
14706,8.33
14718,8.17
14730,7.91
14742,7.62
14754,7.41
14766,7.35
14778,7.43
14790,7.49
14802,7.31
14814,6.7
14826,5.57
14838,3.95
14850,1.96
14862,-0.23
14874,-2.5
14885,-4.82
14896,-7.24
14908,-9.86
14920,-12.76
14932,-15.9
14944,-19.14
14956,-22.28
14968,-25.11
14980,-27.44
14992,-29.13
15004,-30.03
15016,-29.94
15028,-28.65
15040,-25.97
15052,-21.86
15064,-16.5
15075,-10.33
15086,-3.95
15098,2.04
15110,7.11
15122,10.97
15134,13.58
15146,15.08
15158,15.76
15170,15.92
15182,15.83
15194,15.6
15206,15.28
15218,14.81
15230,14.15
15242,13.36
15254,12.55
15265,11.85
15276,11.39
15288,11.17
15300,11.17
15312,11.34
15324,11.56
15336,11.76
15348,11.83
15360,11.63
15372,11.07
15384,10.08
15396,8.68
15408,6.94
15420,5.02
15432,3.05
15444,1.08
15455,-0.9
15466,-2.95
15478,-5.12
15490,-7.39
15502,-9.65
15514,-11.78
15526,-13.65
15538,-15.24
15550,-16.67
15562,-18.11
15574,-19.8
15586,-21.82
15598,-24.12
15610,-26.43
15622,-28.42
15634,-29.61
15645,-29.63
15656,-28.19
15668,-25.24
15680,-20.95
15692,-15.65
15704,-9.81
15716,-3.86
15728,1.85
15740,7.06
15752,11.58
15764,15.23
15776,17.86
15788,19.38
15800,19.85
15812,19.53
15824,18.75
15835,17.83
15846,16.99
15858,16.3
15870,15.69
15882,15.09
15894,14.49
15906,14.02
15918,13.79
15930,13.88
15942,14.21
15954,14.57
15966,14.69
15978,14.34
15990,13.48
16002,12.23
16014,10.82
16025,9.41
16036,8.12
16048,6.9
16060,5.72
16072,4.5
16084,3.21
16096,1.79
16108,0.19
16120,-1.68
16132,-3.83
16144,-6.17
16156,-8.58
16168,-10.91
16180,-13.04
16192,-14.96
16204,-16.7
16215,-18.35
16226,-19.97
16238,-21.58
16250,-23.19
16262,-24.8
16274,-26.37
16286,-27.83
16298,-29.05
16310,-29.84
16322,-30.02
16334,-29.44
16346,-27.96
16358,-25.48
16370,-21.95
16382,-17.44
16394,-12.16
16405,-6.44
16416,-0.74
16428,4.54
16440,9.06
16452,12.61
16464,15.15
16476,16.7
16488,17.36
16500,17.3
16512,16.74
16524,15.95
16536,15.19
16548,14.61
16560,14.2
16572,13.83
16584,13.35
16595,12.69
16606,11.86
16618,11.0
16630,10.25
16642,9.78
16654,9.58
16666,9.59
16678,9.68
16690,9.71
16702,9.54
16714,9.06
16726,8.17
16738,6.81
16750,5.02
16762,2.92
16774,0.71
16785,-1.43
16796,-3.49
16808,-5.55
16820,-7.78
16832,-10.27
16844,-12.95
16856,-15.55
16868,-17.76
16880,-19.29
16892,-20.0
16904,-19.83
16916,-18.75
16928,-16.65
16940,-13.41
16952,-9.03
16964,-3.79
16975,1.77
16986,6.98
16998,11.32
17010,14.51
17022,16.65
17034,18.0
17046,18.86
17058,19.4
17070,19.61
17082,19.42
17094,18.78
17106,17.79
17118,16.6
17130,15.43
17142,14.37
17154,13.49
17165,12.81
17176,12.31
17188,11.99
17200,11.87
17212,11.92
17224,12.09
17236,12.32
17248,12.57
17260,12.79
17272,12.88
17284,12.69
17296,11.99
17308,10.59
17320,8.41
17332,5.58
17344,2.42
17355,-0.68
17366,-3.43
17378,-5.74
17390,-7.69
17402,-9.42
17414,-11.03
17426,-12.52
17438,-13.84
17450,-15.0
17462,-16.13
17474,-17.42
17486,-18.99
17498,-20.8
17510,-22.64
17522,-24.21
17534,-25.35
17545,-26.08
17556,-26.66
17568,-27.41
17580,-28.53
17592,-29.97
17604,-31.48
17616,-32.63
17628,-32.98
17640,-32.21
17652,-30.08
17664,-26.55
17676,-21.72
17688,-15.86
17700,-9.41
17712,-2.92
17724,3.1
17735,8.23
17746,12.29
17758,15.33
17770,17.46
17782,18.84
17794,19.53
17806,19.57
17818,19.06
17830,18.17
17842,17.15
17854,16.2
17866,15.42
17878,14.78
17890,14.2
17902,13.61
17914,13.04
17925,12.59
17936,12.28
17948,12.11
17960,11.97
17972,11.77
17984,11.47
17996,11.06
18008,10.55
18020,9.93
18032,9.16
18044,8.16
18056,6.84
18068,5.18
18080,3.17
18092,0.83
18104,-1.77
18115,-4.55
18126,-7.38
18138,-10.14
18150,-12.75
18162,-15.15
18174,-17.26
18186,-18.99
18198,-20.33
18210,-21.32
18222,-22.14
18234,-23.04
18246,-24.16
18258,-25.44
18270,-26.51
18282,-26.86
18294,-25.97
18305,-23.52
18316,-19.5
18328,-14.25
18340,-8.33
18352,-2.34
18364,3.16
18376,7.81
18388,11.39
18400,13.88
18412,15.38
18424,16.1
18436,16.25
18448,15.98
18460,15.44
18472,14.76
18484,13.97
18495,13.14
18506,12.24
18518,11.3
18530,10.32
18542,9.38
18554,8.64
18566,8.23
18578,8.23
18590,8.56
18602,9.03
18614,9.4
18626,9.45
18638,9.06
18650,8.23
18662,7.01
18674,5.48
18685,3.72
18696,1.82
18708,-0.1
18720,-1.89
18732,-3.44
18744,-4.71
18756,-5.82
18768,-6.96
18780,-8.38
18792,-10.27
18804,-12.7
18816,-15.59
18828,-18.76
18840,-21.91
18852,-24.64
18864,-26.59
18875,-27.42
18886,-26.89
18898,-24.9
18910,-21.49
18922,-16.83
18934,-11.21
18946,-5.05
18958,1.18
18970,6.97
18982,11.91
18994,15.74
19006,18.34
19018,19.77
19030,20.16
19042,19.68
19054,18.58
19065,17.11
19076,15.52
19088,14.03
19100,12.73
19112,11.66
19124,10.83
19136,10.23
19148,9.89
19160,9.84
19172,10.06
19184,10.44
19196,10.79
19208,10.95
19220,10.78
19232,10.28
19244,9.5
19255,8.53
19266,7.38
19278,6.02
19290,4.37
19302,2.36
19314,0.02
19326,-2.52
19338,-5.09
19350,-7.51
19362,-9.75
19374,-11.83
19386,-13.84
19398,-15.86
19410,-17.96
19422,-20.19
19434,-22.59
19445,-25.21
19456,-27.99
19468,-30.71
19480,-32.98
19492,-34.35
19504,-34.39
19516,-32.83
19528,-29.64
19540,-24.98
19552,-19.19
19564,-12.69
19576,-5.98
19588,0.51
19600,6.31
19612,11.09
19624,14.69
19635,17.08
19646,18.38
19658,18.83
19670,18.68
19682,18.22
19694,17.7
19706,17.35
19718,17.26
19730,17.44
19742,17.75
19754,18.04
19766,18.19
19778,18.14
19790,17.94
19802,17.7
19814,17.54
19825,17.51
19836,17.58
19848,17.61
19860,17.41
19872,16.83
19884,15.82
19896,14.42
19908,12.77
19920,11.0
19932,9.16
19944,7.21
19956,5.06
19968,2.69
19980,0.16
19992,-2.37
20004,-4.73
20015,-6.8
20026,-8.58
20038,-10.14
20050,-11.62
20062,-13.08
20074,-14.59
20086,-16.19
20098,-17.95
20110,-19.93
20122,-22.16
20134,-24.56
20146,-26.96
20158,-29.1
20170,-30.7
20182,-31.49
20194,-31.23
20205,-29.71
20216,-26.81
20228,-22.55
20240,-17.16
20252,-11.12
20264,-4.99
20276,0.66
20288,5.44
20300,9.16
20312,11.87
20324,13.71
20336,14.82
20348,15.32
20360,15.31
20372,14.92
20384,14.3
20395,13.66
20406,13.2
20418,13.03
20430,13.15
20442,13.46
20454,13.76
20466,13.87
20478,13.74
20490,13.4
20502,12.97
20514,12.61
20526,12.41
20538,12.28
20550,12.06
20562,11.55
20574,10.64
20585,9.34
20596,7.78
20608,6.18
20620,4.7
20632,3.43
20644,2.29
20656,1.15
20668,-0.13
20680,-1.59
20692,-3.16
20704,-4.71
20716,-6.12
20728,-7.37
20740,-8.57
20752,-9.87
20764,-11.41
20775,-13.25
20786,-15.29
20798,-17.36
20810,-19.26
20822,-20.75
20834,-21.64
20846,-21.72
20858,-20.78
20870,-18.66
20882,-15.36
20894,-11.09
20906,-6.22
20918,-1.17
20930,3.68
20942,8.06
20954,11.85
20965,14.95
20976,17.3
20988,18.83
