seconds,BVP
3,13.09
15,12.53
27,12.55
39,12.78
51,12.78
62,12.06
73,10.3
85,7.38
97,3.45
109,-1.16
121,-6.03
133,-10.79
145,-15.29
157,-19.66
169,-24.31
181,-29.82
193,-36.61
205,-44.63
217,-53.14
229,-60.59
241,-65.03
252,-64.62
263,-58.26
275,-46.05
287,-29.33
299,-10.28
311,8.69
323,25.56
335,39.05
347,48.66
359,54.46
371,56.82
383,56.24
395,53.29
407,48.58
419,42.79
431,36.63
442,30.7
453,25.45
465,21.15
477,17.88
489,15.61
501,14.23
513,13.61
525,13.54
537,13.73
549,13.78
561,13.21
573,11.58
585,8.63
597,4.39
609,-0.82
621,-6.46
632,-11.96
643,-16.98
655,-21.47
667,-25.77
679,-30.46
691,-36.14
703,-43.07
715,-50.9
727,-58.53
739,-64.2
751,-65.98
763,-62.34
775,-52.77
787,-37.96
799,-19.71
811,-0.41
822,17.63
833,32.68
845,43.82
857,50.9
869,54.26
881,54.52
893,52.35
905,48.43
917,43.42
929,37.98
941,32.68
953,27.95
965,24.05
977,20.99
989,18.65
1001,16.83
1012,15.38
1023,14.27
1035,13.52
1047,13.08
1059,12.72
1071,11.99
1083,10.37
1095,7.44
1107,3.08
1119,-2.38
1131,-8.38
1143,-14.25
1155,-19.54
1167,-24.18
1179,-28.51
1191,-33.14
1202,-38.67
1213,-45.39
1225,-53.0
1237,-60.48
1249,-66.19
1261,-68.27
1273,-65.22
1285,-56.43
1297,-42.45
1309,-24.93
1321,-6.09
1333,11.9
1345,27.37
1357,39.42
1369,47.81
1381,52.66
1392,54.24
1403,52.88
1415,49.07
1427,43.47
1439,37.0
1451,30.6
1463,25.07
1475,20.84
1487,17.93
1499,16.03
1511,14.79
1523,13.94
1535,13.43
1547,13.31
1559,13.57
1571,13.97
1582,14.03
1593,13.15
1605,10.85
1617,6.96
1629,1.73
1641,-4.26
1653,-10.31
1665,-15.84
1677,-20.59
1689,-24.7
1701,-28.65
1713,-33.11
1725,-38.65
1737,-45.49
1749,-53.26
1761,-60.93
1772,-66.93
1783,-69.51
1795,-67.19
1807,-59.3
1819,-46.23
1831,-29.34
1843,-10.69
1855,7.6
1867,23.72
1879,36.55
1891,45.64
1903,51.02
1915,53.0
1927,52.02
1939,48.64
1951,43.58
1962,37.67
1973,31.79
1985,26.69
1997,22.81
2009,20.23
2021,18.69
2033,17.82
2045,17.28
2057,16.93
2069,16.78
2081,16.82
2093,16.92
2105,16.71
2117,15.67
2129,13.36
2141,9.65
2152,4.74
2163,-0.81
2175,-6.41
2187,-11.59
2199,-16.21
2211,-20.42
2223,-24.6
2235,-29.13
2247,-34.29
2259,-40.17
2271,-46.58
2283,-52.91
2295,-58.16
2307,-60.98
2319,-59.97
2331,-54.12
2342,-43.24
2353,-28.19
2365,-10.68
2377,7.1
2389,23.15
2401,36.08
2413,45.28
2425,50.82
2437,53.08
2449,52.52
2461,49.58
2473,44.74
2485,38.62
2497,32.03
2509,25.82
2521,20.72
2532,17.12
2543,14.98
2555,13.97
2567,13.61
2579,13.49
2591,13.38
2603,13.23
2615,13.02
2627,12.64
2639,11.8
2651,10.09
2663,7.14
2675,2.79
2687,-2.75
2699,-8.93
2711,-15.07
2722,-20.58
2733,-25.14
2745,-28.84
2757,-32.13
2769,-35.61
2781,-39.91
2793,-45.4
2805,-52.02
2817,-59.13
2829,-65.48
2841,-69.41
2853,-69.26
2865,-63.89
2877,-53.12
2889,-37.84
2901,-19.86
2912,-1.36
2923,15.67
2935,29.84
2947,40.49
2959,47.54
2971,51.25
2983,52.01
2995,50.22
3007,46.39
3019,41.13
3031,35.23
3043,29.49
3055,24.65
3067,21.13
3079,19.04
3091,18.14
3102,18.01
3113,18.15
3125,18.18
3137,17.91
3149,17.29
3161,16.38
3173,15.2
3185,13.69
3197,11.66
3209,8.88
3221,5.17
3233,0.53
3245,-4.84
3257,-10.53
3269,-16.06
3281,-21.07
3292,-25.4
3303,-29.19
3315,-32.8
3327,-36.72
3339,-41.42
3351,-47.21
3363,-54.08
3375,-61.55
3387,-68.63
3399,-73.86
3411,-75.59
3423,-72.41
3435,-63.7
3447,-49.86
3459,-32.37
3471,-13.38
3482,4.89
3493,20.68
3505,33.03
3517,41.76
3529,47.21
3541,49.83
3553,50.02
3565,48.05
3577,44.23
3589,39.08
3601,33.35
3613,27.95
3625,23.67
3637,20.95
3649,19.73
3661,19.6
3672,19.94
3683,20.24
3695,20.2
3707,19.76
3719,19.02
3731,18.03
3743,16.74
3755,14.95
3767,12.43
3779,9.0
3791,4.63
3803,-0.48
3815,-5.98
3827,-11.43
3839,-16.48
3851,-20.93
3862,-24.81
3873,-28.32
3885,-31.79
3897,-35.56
3909,-39.99
3921,-45.37
3933,-51.74
3945,-58.77
3957,-65.56
3969,-70.65
3981,-72.35
3993,-69.23
4005,-60.63
4017,-47.0
4029,-29.82
4041,-11.18
4052,6.81
4063,22.53
4075,35.05
4087,44.1
4099,49.8
4111,52.45
4123,52.4
4135,50.02
4147,45.83
4159,40.54
4171,34.92
4183,29.76
4195,25.64
4207,22.84
4219,21.32
4231,20.8
4242,20.85
4253,21.09
4265,21.25
4277,21.2
4289,20.9
4301,20.32
4313,19.32
4325,17.66
4337,15.03
4349,11.21
4361,6.28
4373,0.64
4385,-5.08
4397,-10.29
4409,-14.66
4421,-18.27
4432,-21.58
4443,-25.21
4455,-29.66
4467,-35.17
4479,-41.68
4491,-48.76
4503,-55.6
4515,-61.1
4527,-63.96
4539,-62.92
4551,-57.18
4563,-46.71
4575,-32.36
4587,-15.73
4599,1.29
4611,16.94
4622,30.0
4633,39.81
4645,46.21
4657,49.31
4669,49.39
4681,46.82
4693,42.13
4705,36.04
4717,29.45
4729,23.24
4741,18.12
4753,14.48
4765,12.32
4777,11.32
4789,11.05
4801,11.14
4812,11.37
4823,11.64
4835,11.88
4847,11.96
4859,11.57
4871,10.35
4883,7.98
4895,4.38
4907,-0.23
4919,-5.38
4931,-10.49
4943,-15.09
4955,-19.04
4967,-22.53
4979,-26.06
4991,-30.28
5002,-35.68
5013,-42.34
5025,-49.81
5037,-57.01
5049,-62.44
5061,-64.48
5073,-61.87
5085,-54.08
5097,-41.57
5109,-25.68
5121,-8.32
5133,8.51
5145,23.24
5157,34.89
5169,43.16
5181,48.16
5192,50.16
5203,49.51
5215,46.56
5227,41.82
5239,35.97
5251,29.83
5263,24.23
5275,19.74
5287,16.56
5299,14.53
5311,13.28
5323,12.45
5335,11.86
5347,11.49
5359,11.39
5371,11.47
5382,11.37
5393,10.56
5405,8.52
5417,4.98
5429,0.11
5441,-5.56
5453,-11.3
5465,-16.5
5477,-20.91
5489,-24.7
5501,-28.34
5513,-32.44
5525,-37.51
5537,-43.77
5549,-51.01
5561,-58.47
5572,-64.82
5583,-68.41
5595,-67.61
5607,-61.44
5619,-49.91
5631,-34.14
5643,-16.09
5655,2.03
5667,18.33
5679,31.62
5691,41.41
5703,47.71
5715,50.81
5727,51.07
5739,48.92
5751,44.9
5762,39.67
5773,34.0
5785,28.62
5797,24.09
5809,20.7
5821,18.39
5833,16.93
5845,15.96
5857,15.26
5869,14.74
5881,14.41
5893,14.22
5905,13.94
5917,13.1
5929,11.21
5941,7.97
5952,3.46
5963,-1.84
5975,-7.27
5987,-12.25
5999,-16.53
6011,-20.28
6023,-23.94
6035,-28.07
6047,-33.16
6059,-39.42
6071,-46.71
6083,-54.33
6095,-61.08
6107,-65.37
6119,-65.6
6131,-60.72
6142,-50.58
6153,-36.11
6165,-19.05
6177,-1.46
6189,14.85
6201,28.65
6213,39.33
6225,46.73
6237,50.93
6249,52.1
6261,50.53
6273,46.68
6285,41.24
6297,35.08
6309,29.04
6321,23.81
6332,19.79
6343,17.05
6355,15.44
6367,14.7
6379,14.54
6391,14.72
6403,15.04
6415,15.28
6427,15.15
6439,14.3
6451,12.4
6463,9.27
6475,4.99
6487,-0.09
6499,-5.43
6511,-10.54
6522,-15.09
6533,-19.11
6545,-22.91
6557,-27.01
6569,-31.9
6581,-37.88
6593,-44.81
6605,-52.0
6617,-58.2
6629,-61.86
6641,-61.47
6653,-56.14
6665,-45.84
6677,-31.57
6689,-15.06
6701,1.73
6712,17.1
6723,29.92
6735,39.63
6747,46.14
6759,49.55
6771,50.03
6783,47.86
6795,43.54
6807,37.77
6819,31.47
6831,25.51
6843,20.59
6855,17.02
6867,14.75
6879,13.51
6891,12.95
6902,12.83
6913,12.99
6925,13.35
6937,13.74
6949,13.82
6961,13.18
6973,11.43
6985,8.37
6997,4.13
7009,-0.9
7021,-6.2
7033,-11.31
7045,-15.98
7057,-20.24
7069,-24.36
7081,-28.76
7092,-33.81
7103,-39.71
7115,-46.27
7127,-52.79
7139,-58.13
7151,-60.88
7163,-59.73
7175,-53.9
7187,-43.47
7199,-29.41
7211,-13.36
7223,2.84
7235,17.55
7247,29.7
7259,38.76
7271,44.66
7282,47.53
7293,47.61
7305,45.23
7317,40.87
7329,35.2
7341,29.05
7353,23.26
7365,18.49
7377,15.11
7389,13.15
7401,12.37
7413,12.43
7425,12.98
7437,13.79
7449,14.65
7461,15.31
7472,15.44
7483,14.66
7495,12.68
7507,9.43
7519,5.22
7531,0.54
7543,-4.08
7555,-8.31
7567,-12.18
7579,-16.03
7591,-20.31
7603,-25.44
7615,-31.59
7627,-38.53
7639,-45.66
7651,-51.99
7662,-56.27
7673,-57.29
7685,-54.18
7697,-46.73
7709,-35.57
7721,-22.04
7733,-7.9
7745,5.15
7757,15.78
7769,23.26
7781,27.37
7793,28.25
7805,26.24
7817,21.81
7829,15.51
7841,8.0
7852,0.04
7863,-7.66
7875,-14.52
7887,-20.2
7899,-24.6
7911,-27.83
7923,-30.08
7935,-31.57
7947,-32.52
7959,-33.25
7971,-34.17
7983,-35.81
7995,-38.63
8007,-42.85
8019,-48.23
8031,-54.03
8042,-59.1
8053,-62.24
8065,-62.57
8077,-59.82
8089,-54.44
8101,-47.46
8113,-40.02
8125,-33.0
8137,-26.64
8149,-20.38
8161,-13.07
8173,-3.32
8185,9.92
8197,26.93
8209,46.99
8221,68.49
8232,89.28
8243,107.25
8255,120.81
8267,129.19
8279,132.42
8291,131.12
8303,126.13
8315,118.26
8327,108.17
8339,96.43
8351,83.53
8363,69.93
8375,56.05
8387,42.21
8399,28.66
8411,15.62
8422,3.31
8433,-7.96
8445,-17.97
8457,-26.64
8469,-34.1
8481,-40.69
8493,-46.73
8505,-52.37
8517,-57.53
8529,-62.02
8541,-65.64
8553,-68.37
8565,-70.39
8577,-71.97
8589,-73.42
8601,-75.0
8612,-76.92
8623,-79.27
8635,-81.84
8647,-83.99
8659,-84.59
8671,-82.2
8683,-75.53
8695,-63.88
8707,-47.53
8719,-27.63
8731,-5.88
8743,16.09
8755,37.08
8767,56.45
8779,73.97
8791,89.38
8802,102.28
8813,111.99
8825,117.93
8837,119.8
8849,117.83
8861,112.69
8873,105.27
8885,96.43
8897,86.75
8909,76.64
8921,66.49
8933,56.84
8945,48.3
8957,41.39
8969,36.23
8981,32.38
8992,28.96
9003,24.96
9015,19.7
9027,12.98
9039,5.08
9051,-3.51
9063,-12.45
9075,-21.74
9087,-31.71
9099,-42.81
9111,-55.29
9123,-68.93
9135,-82.85
9147,-95.64
9159,-105.62
9171,-111.23
9182,-111.54
9193,-106.43
9205,-96.61
9217,-83.36
9229,-68.12
9241,-52.18
9253,-36.51
9265,-21.76
9277,-8.43
9289,3.02
9301,12.19
9313,18.84
9325,22.98
9337,25.02
9349,25.63
9361,25.61
9372,25.61
9383,26.03
9395,26.92
9407,28.07
9419,29.22
9431,30.23
9443,31.1
9455,31.96
9467,32.86
9479,33.68
9491,34.07
9503,33.51
9515,31.64
9527,28.32
9539,23.77
9551,18.5
9562,13.12
9573,8.09
9585,3.65
9597,-0.22
9609,-3.77
9621,-7.32
9633,-11.25
9645,-15.86
9657,-21.33
9669,-27.52
9681,-33.79
9693,-39.01
9705,-41.66
9717,-40.33
9729,-34.18
9741,-23.33
9752,-8.92
9763,7.23
9775,23.15
9787,37.24
9799,48.56
9811,56.79
9823,61.99
9835,64.38
9847,64.16
9859,61.61
9871,57.16
9883,51.45
9895,45.35
9907,39.72
9919,35.21
9931,32.06
9942,30.08
9953,28.81
9965,27.74
9977,26.58
9989,25.27
10001,23.98
10013,22.82
10025,21.72
10037,20.36
10049,18.29
10061,15.19
10073,10.97
10085,5.92
10097,0.55
10109,-4.58
10121,-9.05
10132,-12.77
10143,-15.88
10155,-18.75
10167,-21.77
10179,-25.25
10191,-29.35
10203,-34.04
10215,-39.0
10227,-43.56
10239,-46.65
10251,-47.0
10263,-43.41
10275,-35.22
10287,-22.65
10299,-6.86
10311,10.33
10322,27.02
10333,41.72
10345,53.68
10357,62.87
10369,69.59
10381,74.24
10393,77.07
10405,78.24
10417,78.01
10429,76.91
10441,75.69
10453,75.25
10465,76.31
10477,79.24
10489,83.99
10501,90.16
10512,97.2
10523,104.62
10535,112.23
10547,120.08
10559,128.37
10571,137.19
10583,146.37
10595,155.39
10607,163.64
10619,170.67
10631,176.47
10643,181.46
10655,186.13
10667,190.61
10679,194.32
10691,195.96
10702,193.84
10713,186.4
10725,172.66
10737,152.39
10749,126.01
10761,94.51
10773,59.44
10785,23.12
10797,-11.4
10809,-40.59
10821,-61.39
10833,-72.07
10845,-73.01
10857,-66.65
10869,-56.7
10881,-47.03
10892,-40.66
10903,-39.31
10915,-43.54
10927,-53.13
10939,-67.48
10951,-85.77
10963,-106.87
10975,-129.39
10987,-151.78
10999,-172.74
11011,-191.55
11023,-208.21
11035,-223.36
11047,-237.97
11059,-252.84
11071,-268.22
11082,-283.54
11093,-297.39
11105,-307.82
11117,-312.8
11129,-310.91
11141,-301.77
11153,-286.21
11165,-266.04
11177,-243.39
11189,-220.15
11201,-197.47
11213,-175.82
11225,-155.22
11237,-135.72
11249,-117.66
11261,-101.66
11272,-88.32
11283,-77.91
11295,-70.17
11307,-64.31
11319,-59.32
11331,-54.19
11343,-48.11
11355,-40.48
11367,-30.84
11379,-18.89
11391,-4.53
11403,12.03
11415,30.17
11427,48.94
11439,67.16
11451,83.72
11462,97.8
11473,109.05
11485,117.7
11497,124.36
11509,129.81
11521,134.7
11533,139.41
11545,143.98
11557,148.28
11569,152.11
11581,155.13
11593,156.93
11605,156.95
11617,154.76
11629,150.45
11641,144.93
11652,139.9
11663,137.2
11675,137.95
11687,141.64
11699,145.97
11711,147.46
11723,142.66
11735,129.45
11747,107.75
11759,79.42
11771,47.42
11783,14.75
11795,-16.34
11807,-44.67
11819,-70.07
11831,-92.99
11842,-114.26
11853,-134.99
11865,-156.4
11877,-179.68
11889,-205.57
11901,-233.76
11913,-262.61
11925,-289.13
11937,-309.57
11949,-320.39
11961,-319.26
11973,-305.78
11985,-281.57
11997,-249.79
12009,-214.22
12021,-178.36
12032,-144.89
12043,-115.4
12055,-90.59
12067,-70.56
12079,-54.97
12091,-43.14
12103,-34.09
12115,-26.68
12127,-19.82
12139,-12.77
12151,-5.28
12163,2.47
12175,10.05
12187,17.12
12199,23.62
12211,29.71
12222,35.66
12233,41.56
12245,47.23
12257,52.25
12269,56.13
12281,58.48
12293,59.2
12305,58.43
12317,56.43
12329,53.42
12341,49.39
12353,44.15
12365,37.41
12377,29.0
12389,18.91
12401,7.41
12412,-5.0
12423,-17.5
12435,-28.88
12447,-37.49
12459,-41.51
12471,-39.37
12483,-30.33
12495,-14.89
12507,5.21
12519,27.32
12531,48.65
12543,66.88
12555,80.63
12567,89.42
12579,93.45
12591,93.34
12602,89.85
12613,83.82
12625,76.15
12637,67.8
12649,59.66
12661,52.4
12673,46.38
12685,41.6
12697,37.77
12709,34.53
12721,31.66
12733,29.17
12745,27.24
12757,26.08
12769,25.73
12781,25.91
12792,26.07
12803,25.56
12815,23.94
12827,21.07
12839,17.22
12851,12.87
12863,8.46
12875,4.18
12887,-0.11
12899,-4.85
12911,-10.45
12923,-17.07
12935,-24.3
12947,-31.08
12959,-35.86
12971,-36.97
12982,-33.17
12993,-24.14
13005,-10.66
13017,5.59
13029,22.5
13041,38.15
13053,51.26
13065,61.24
13077,68.12
13089,72.14
13101,73.56
13113,72.64
13125,69.66
13137,65.11
13149,59.63
13161,53.92
13172,48.53
13183,43.74
13195,39.62
13207,36.16
13219,33.45
13231,31.71
13243,31.19
13255,32.04
13267,34.06
13279,36.75
13291,39.37
13303,41.22
13315,41.86
13327,41.24
13339,39.67
13351,37.65
13362,35.68
13373,34.11
13385,32.94
13397,31.92
13409,30.57
13421,28.4
13433,25.24
13445,21.5
13457,18.38
13469,17.66
13481,21.29
13493,30.67
13505,46.0
13517,65.94
13529,87.77
13541,107.95
13552,123.11
13563,130.76
13575,129.84
13587,120.65
13599,104.52
13611,83.25
13623,58.73
13635,32.67
13647,6.56
13659,-18.29
13671,-40.79
13683,-60.13
13695,-75.92
13707,-88.22
13719,-97.44
13731,-104.16
13742,-108.91
13753,-112.12
13765,-114.05
13777,-114.88
13789,-114.75
13801,-113.84
13813,-112.33
13825,-110.41
13837,-108.27
13849,-106.04
13861,-103.76
13873,-101.4
13885,-98.82
13897,-95.87
13909,-92.48
13921,-88.74
13932,-84.89
13943,-81.19
13955,-77.72
13967,-74.21
13979,-70.0
13991,-64.15
14003,-55.72
14015,-44.02
14027,-28.93
14039,-10.97
14051,8.7
14063,28.62
14075,47.24
14087,63.36
14099,76.23
14111,85.63
14122,91.76
14133,95.08
14145,96.13
14157,95.44
14169,93.51
14181,90.74
14193,87.43
14205,83.69
14217,79.52
14229,74.76
14241,69.26
14253,62.95
14265,55.94
14277,48.52
14289,41.09
14301,34.05
14312,27.69
14323,22.18
14335,17.52
14347,13.59
14359,10.2
14371,7.14
14383,4.21
14395,1.23
14407,-1.89
14419,-5.15
14431,-8.38
14443,-11.35
14455,-13.71
14467,-15.21
14479,-15.64
14491,-14.97
14502,-13.28
14513,-10.77
14525,-7.66
14537,-4.16
14549,-0.38
14561,3.64
14573,7.91
14585,12.41
14597,17.04
14609,21.58
14621,25.76
14633,29.3
14645,32.0
14657,33.78
14669,34.62
14681,34.53
14692,33.56
14703,31.78
14715,29.37
14727,26.55
14739,23.6
14751,20.67
14763,17.8
14775,14.92
14787,11.86
14799,8.57
14811,5.08
14823,1.58
14835,-1.71
14847,-4.57
14859,-6.89
14871,-8.63
14882,-9.83
14893,-10.57
14905,-11.01
14917,-11.29
14929,-11.6
14941,-12.07
14953,-12.74
14965,-13.59
14977,-14.51
14989,-15.39
15001,-16.15
15013,-16.77
15025,-17.32
15037,-17.8
15049,-18.21
15061,-18.44
15072,-18.26
15083,-17.43
15095,-15.75
15107,-13.13
15119,-9.72
15131,-5.86
15143,-2.0
15155,1.43
15167,4.16
15179,6.12
15191,7.43
15203,8.26
15215,8.69
15227,8.74
15239,8.31
15251,7.38
15262,6.05
15273,4.49
15285,2.95
15297,1.58
15309,0.35
15321,-0.85
15333,-2.13
15345,-3.53
15357,-4.93
15369,-6.17
15381,-7.12
15393,-7.83
15405,-8.5
15417,-9.44
15429,-10.87
15441,-12.87
15452,-15.33
15463,-17.99
15475,-20.55
15487,-22.79
15499,-24.6
15511,-26.11
15523,-27.65
15535,-29.74
15547,-32.94
15559,-37.69
15571,-44.13
15583,-51.97
15595,-60.45
15607,-68.51
15619,-74.87
15631,-78.33
15642,-77.93
15653,-73.22
15665,-64.33
15677,-51.99
15689,-37.34
15701,-21.76
15713,-6.6
15725,7.06
15737,18.47
15749,27.16
15761,32.97
15773,35.96
15785,36.41
15797,34.86
15809,31.98
15821,28.5
15832,25.07
15843,22.16
15855,20.04
15867,18.83
15879,18.51
15891,18.99
15903,20.08
15915,21.57
15927,23.16
15939,24.63
15951,25.84
15963,26.78
15975,27.52
15987,28.16
15999,28.75
16011,29.27
16022,29.68
16033,29.94
16045,30.03
16057,29.91
16069,29.48
16081,28.63
16093,27.32
16105,25.66
16117,23.99
16129,22.79
16141,22.43
16153,23.03
16165,24.39
16177,26.04
16189,27.5
16201,28.46
16212,28.86
16223,28.88
16235,28.83
16247,28.98
16259,29.52
16271,30.48
16283,31.69
16295,32.83
16307,33.46
16319,33.13
16331,31.54
16343,28.64
16355,24.61
16367,19.82
16379,14.63
16391,9.31
16402,3.93
16413,-1.5
16425,-6.95
16437,-12.34
16449,-17.47
16461,-22.16
16473,-26.28
16485,-29.89
16497,-33.15
16509,-36.31
16521,-39.54
16533,-42.86
16545,-46.13
16557,-49.14
16569,-51.71
16581,-53.8
16592,-55.45
16603,-56.77
16615,-57.8
16627,-58.51
16639,-58.79
16651,-58.54
16663,-57.74
16675,-56.42
16687,-54.67
16699,-52.47
16711,-49.7
16723,-46.21
16735,-41.89
16747,-36.77
16759,-31.01
16771,-24.89
16782,-18.71
16793,-12.79
16805,-7.49
16817,-3.2
16829,-0.29
16841,1.0
16853,0.7
16865,-0.83
16877,-2.98
16889,-5.12
16901,-6.72
16913,-7.57
16925,-7.76
16937,-7.53
16949,-7.2
16961,-7.05
16972,-7.19
16983,-7.54
16995,-7.93
17007,-8.07
17019,-7.79
17031,-7.08
17043,-6.13
17055,-5.21
17067,-4.53
17079,-4.16
17091,-4.01
17103,-3.99
17115,-4.02
17127,-4.15
17139,-4.42
17151,-4.82
17162,-5.22
17173,-5.5
17185,-5.61
17197,-5.63
17209,-5.7
17221,-5.85
17233,-5.94
17245,-5.64
17257,-4.56
17269,-2.46
17281,0.67
17293,4.62
17305,9.03
17317,13.49
17329,17.66
17341,21.26
17352,24.08
17363,26.03
17375,27.06
17387,27.27
17399,26.75
17411,25.66
17423,24.08
17435,22.06
17447,19.65
17459,16.94
17471,14.09
17483,11.28
17495,8.74
17507,6.65
17519,5.21
17531,4.49
17542,4.54
17553,5.26
17565,6.45
17577,7.84
17589,9.1
17601,9.92
17613,10.03
17625,9.35
17637,7.99
17649,6.27
17661,4.55
17673,3.07
17685,1.78
17697,0.38
17709,-1.6
17721,-4.42
17732,-8.0
17743,-11.81
17755,-15.07
17767,-17.05
17779,-17.35
17791,-16.04
17803,-13.59
17815,-10.67
17827,-8.02
17839,-6.26
17851,-5.87
17863,-7.11
17875,-9.98
17887,-14.16
17899,-18.92
17911,-23.25
17922,-26.14
17933,-26.83
17945,-25.15
17957,-21.57
17969,-17.05
17981,-12.6
17993,-8.96
18005,-6.33
18017,-4.36
18029,-2.49
18041,-0.22
18053,2.62
18065,5.8
18077,8.86
18089,11.32
18101,12.91
18112,13.56
18123,13.4
18135,12.66
18147,11.57
18159,10.37
18171,9.22
18183,8.24
18195,7.43
18207,6.67
18219,5.78
18231,4.54
18243,2.9
18255,1.05
18267,-0.6
18279,-1.49
18291,-1.16
18302,0.61
18313,3.7
18325,7.73
18337,12.15
18349,16.42
18361,20.04
18373,22.68
18385,24.14
18397,24.35
18409,23.38
18421,21.44
18433,18.78
18445,15.71
18457,12.48
18469,9.24
18481,6.05
18492,2.88
18503,-0.28
18515,-3.33
18527,-6.07
18539,-8.21
18551,-9.45
18563,-9.69
18575,-9.05
18587,-7.83
18599,-6.47
18611,-5.29
18623,-4.47
18635,-3.94
18647,-3.53
18659,-3.06
18671,-2.48
18682,-1.84
18693,-1.28
18705,-0.93
18717,-0.84
18729,-1.01
18741,-1.33
18753,-1.65
18765,-1.79
18777,-1.52
18789,-0.62
18801,1.09
18813,3.71
18825,7.18
18837,11.28
18849,15.67
18861,19.96
18872,23.78
18883,26.84
18895,28.98
18907,30.12
18919,30.3
18931,29.6
18943,28.21
18955,26.34
18967,24.25
18979,22.21
18991,20.42
19003,19.04
19015,18.16
19027,17.76
19039,17.77
19051,18.05
19062,18.37
19073,18.44
19085,17.95
19097,16.61
19109,14.27
19121,10.95
19133,6.92
19145,2.58
19157,-1.6
19169,-5.28
19181,-8.33
19193,-11.02
19205,-13.89
19217,-17.65
19229,-22.95
19241,-30.09
19252,-38.81
19263,-48.26
19275,-57.21
19287,-64.37
19299,-68.81
19311,-70.18
19323,-68.77
19335,-65.29
19347,-60.54
19359,-55.2
19371,-49.65
19383,-44.08
19395,-38.53
19407,-33.1
19419,-27.9
19431,-23.01
19442,-18.42
19453,-14.03
19465,-9.73
19477,-5.51
19489,-1.52
19501,2.05
19513,5.02
19525,7.39
19537,9.3
19549,10.98
19561,12.58
19573,14.12
19585,15.42
19597,16.25
19609,16.42
19621,15.85
19632,14.6
19643,12.77
19655,10.44
19667,7.67
19679,4.46
19691,0.85
19703,-3.08
19715,-7.19
19727,-11.32
19739,-15.35
19751,-19.19
19763,-22.66
19775,-25.52
19787,-27.39
19799,-27.81
19811,-26.44
19822,-23.15
19833,-18.15
19845,-11.95
19857,-5.18
19869,1.58
19881,7.97
19893,13.76
19905,18.91
19917,23.35
19929,27.02
19941,29.9
19953,32.05
19965,33.65
19977,34.99
19989,36.36
20001,37.91
20012,39.69
20023,41.55
20035,43.3
20047,44.71
20059,45.59
20071,45.82
20083,45.42
20095,44.5
20107,43.28
20119,42.13
20131,41.36
20143,41.12
20155,41.25
20167,41.27
20179,40.57
20191,38.63
20202,35.36
20213,31.13
20225,26.69
20237,22.8
20249,19.97
20261,18.37
20273,17.86
20285,18.27
20297,19.56
20309,21.96
20321,25.85
20333,31.71
20345,39.85
20357,50.3
20369,62.59
20381,75.63
20392,87.65
20403,96.47
20415,99.9
20427,96.4
20439,85.67
20451,68.74
20463,47.83
20475,25.68
20487,4.85
20499,-12.84
20511,-26.57
20523,-36.42
20535,-43.12
20547,-47.71
20559,-51.34
20571,-55.08
20582,-59.77
20593,-65.95
20605,-73.7
20617,-82.62
20629,-91.95
20641,-100.75
20653,-108.2
20665,-113.79
20677,-117.49
20689,-119.62
20701,-120.71
20713,-121.26
20725,-121.61
20737,-121.86
20749,-121.87
20761,-121.36
20772,-119.97
20783,-117.24
20795,-112.73
20807,-106.09
20819,-97.23
20831,-86.51
20843,-74.82
20855,-63.4
20867,-53.63
20879,-46.56
20891,-42.67
20903,-41.74
20915,-43.06
20927,-45.77
20939,-49.14
20951,-52.71
20962,-56.2
20973,-59.33
20985,-61.67
20997,-62.62
