seconds,BVP
9,-3.97
20,-5.78
32,-7.56
44,-9.29
56,-10.93
68,-12.44
80,-13.86
92,-15.24
104,-16.72
116,-18.41
128,-20.44
140,-22.89
152,-25.74
164,-28.86
176,-31.92
188,-34.42
199,-35.8
210,-35.53
222,-33.36
234,-29.34
246,-23.89
258,-17.61
270,-11.18
282,-5.16
294,0.07
306,4.31
318,7.53
330,9.8
342,11.28
354,12.12
366,12.5
378,12.55
389,12.4
400,12.18
412,11.99
424,11.94
436,12.13
448,12.56
460,13.18
472,13.86
484,14.51
496,15.06
508,15.45
520,15.67
532,15.69
544,15.45
556,14.93
568,14.14
579,13.11
590,11.9
602,10.48
614,8.84
626,6.96
638,4.9
650,2.79
662,0.81
674,-0.93
686,-2.45
698,-3.89
710,-5.44
722,-7.22
734,-9.23
746,-11.33
758,-13.36
769,-15.24
780,-16.99
792,-18.72
804,-20.54
816,-22.57
828,-24.85
840,-27.38
852,-30.06
864,-32.68
876,-34.9
888,-36.25
900,-36.24
912,-34.51
924,-31.0
936,-25.92
948,-19.76
959,-13.13
970,-6.59
982,-0.63
994,4.45
1006,8.49
1018,11.45
1030,13.43
1042,14.55
1054,15.03
1066,15.07
1078,14.85
1090,14.51
1102,14.16
1114,13.83
1126,13.57
1138,13.44
1149,13.53
1160,13.92
1172,14.65
1184,15.64
1196,16.72
1208,17.67
1220,18.29
1232,18.51
1244,18.35
1256,17.89
1268,17.15
1280,16.12
1292,14.72
1304,12.91
1316,10.72
1328,8.32
1339,5.91
1350,3.71
1362,1.87
1374,0.44
1386,-0.58
1398,-1.32
1410,-1.88
1422,-2.43
1434,-3.08
1446,-3.91
1458,-4.91
1470,-6.01
1482,-7.14
1494,-8.27
1506,-9.45
1518,-10.8
1529,-12.48
1540,-14.68
1552,-17.49
1564,-20.89
1576,-24.63
1588,-28.28
1600,-31.2
1612,-32.76
1624,-32.43
1636,-30.03
1648,-25.72
1660,-19.96
1672,-13.41
1684,-6.7
1696,-0.34
1708,5.34
1719,10.11
1730,13.8
1742,16.29
1754,17.53
1766,17.63
1778,16.88
1790,15.73
1802,14.59
1814,13.81
1826,13.53
1838,13.78
1850,14.45
1862,15.43
1874,16.58
1886,17.77
1898,18.83
1909,19.59
1920,19.93
1932,19.82
1944,19.3
1956,18.46
1968,17.36
1980,16.04
1992,14.5
2004,12.75
2016,10.85
2028,8.9
2040,6.95
2052,4.99
2064,2.98
2076,0.82
2088,-1.5
2099,-3.91
2110,-6.27
2122,-8.46
2134,-10.4
2146,-12.16
2158,-13.93
2170,-15.96
2182,-18.51
2194,-21.66
2206,-25.28
2218,-28.92
2230,-31.9
2242,-33.49
2254,-33.08
2266,-30.48
2278,-25.92
2289,-20.01
2300,-13.53
2312,-7.17
2324,-1.36
2336,3.72
2348,8.05
2360,11.64
2372,14.43
2384,16.33
2396,17.29
2408,17.4
2420,16.89
2432,16.13
2444,15.48
2456,15.14
2468,15.18
2479,15.51
2490,16.0
2502,16.54
2514,17.11
2526,17.7
2538,18.33
2550,18.88
2562,19.18
2574,19.03
2586,18.31
2598,17.01
2610,15.32
2622,13.47
2634,11.68
2646,10.06
2658,8.55
2669,6.96
2680,5.09
2692,2.8
2704,0.09
2716,-2.86
2728,-5.76
2740,-8.35
2752,-10.47
2764,-12.14
2776,-13.51
2788,-14.86
2800,-16.46
2812,-18.56
2824,-21.26
2836,-24.5
2848,-28.01
2859,-31.27
2870,-33.62
2882,-34.4
2894,-33.12
2906,-29.64
2918,-24.23
2930,-17.5
2942,-10.22
2954,-3.08
2966,3.41
2978,8.99
2990,13.58
3002,17.13
3014,19.59
3026,20.94
3038,21.24
3049,20.69
3060,19.64
3072,18.5
3084,17.62
3096,17.2
3108,17.27
3120,17.76
3132,18.55
3144,19.49
3156,20.46
3168,21.28
3180,21.81
3192,21.91
3204,21.58
3216,20.89
3228,19.98
3239,18.93
3250,17.75
3262,16.36
3274,14.71
3286,12.86
3298,10.94
3310,9.14
3322,7.57
3334,6.19
3346,4.83
3358,3.31
3370,1.5
3382,-0.59
3394,-2.83
3406,-5.05
3418,-7.12
3429,-8.99
3440,-10.7
3452,-12.33
3464,-13.98
3476,-15.72
3488,-17.66
3500,-19.9
3512,-22.48
3524,-25.33
3536,-28.16
3548,-30.49
3560,-31.71
3572,-31.3
3584,-28.95
3596,-24.76
3608,-19.15
3619,-12.82
3630,-6.46
3642,-0.65
3654,4.34
3666,8.44
3678,11.69
3690,14.14
3702,15.79
3714,16.62
3726,16.66
3738,16.09
3750,15.21
3762,14.41
3774,13.99
3786,14.09
3798,14.7
3809,15.7
3820,16.92
3832,18.21
3844,19.43
3856,20.45
3868,21.11
3880,21.26
3892,20.82
3904,19.82
3916,18.39
3928,16.76
3940,15.13
3952,13.62
3964,12.23
3976,10.88
3988,9.48
3999,7.99
4010,6.43
4022,4.85
4034,3.34
4046,1.93
4058,0.62
4070,-0.62
4082,-1.83
4094,-3.02
4106,-4.18
4118,-5.33
4130,-6.47
4142,-7.65
4154,-8.87
4166,-10.14
4178,-11.46
4189,-12.88
4200,-14.49
4212,-16.4
4224,-18.64
4236,-21.07
4248,-23.37
4260,-25.03
4272,-25.55
4284,-24.54
4296,-21.91
4308,-17.9
4320,-12.96
4332,-7.66
4344,-2.51
4356,2.1
4368,5.94
4379,8.93
4390,11.03
4402,12.26
4414,12.71
4426,12.52
4438,11.92
4450,11.16
4462,10.47
4474,10.02
4486,9.86
4498,10.0
4510,10.35
4522,10.8
4534,11.23
4546,11.52
4558,11.61
4569,11.54
4580,11.41
4592,11.3
4604,11.26
4616,11.15
4628,10.76
4640,9.89
4652,8.49
4664,6.74
4676,4.92
4688,3.28
4700,1.89
4712,0.66
4724,-0.63
4736,-2.12
4748,-3.78
4759,-5.43
4770,-6.87
4782,-8.0
4794,-8.86
4806,-9.62
4818,-10.46
4830,-11.52
4842,-12.84
4854,-14.45
4866,-16.4
4878,-18.69
4890,-21.26
4902,-23.89
4914,-26.16
4926,-27.55
4938,-27.61
4949,-26.12
4960,-23.15
4972,-19.02
4984,-14.24
4996,-9.32
5008,-4.66
5020,-0.58
5032,2.73
5044,5.16
5056,6.68
5068,7.36
5080,7.37
5092,6.93
5104,6.26
5116,5.52
5128,4.87
5139,4.4
5150,4.23
5162,4.38
5174,4.81
5186,5.38
5198,5.96
5210,6.45
5222,6.89
5234,7.37
5246,7.97
5258,8.62
5270,9.13
5282,9.24
5294,8.74
5306,7.62
5318,6.03
5329,4.28
5340,2.62
5352,1.22
5364,0.08
5376,-0.9
5388,-1.85
5400,-2.88
5412,-4.03
5424,-5.32
5436,-6.75
5448,-8.32
5460,-10.0
5472,-11.79
5484,-13.68
5496,-15.68
5508,-17.77
5519,-19.96
5530,-22.27
5542,-24.69
5554,-27.12
5566,-29.33
5578,-30.94
5590,-31.5
5602,-30.67
5614,-28.29
5626,-24.45
5638,-19.49
5650,-13.88
5662,-8.16
5674,-2.81
5686,1.78
5698,5.39
5709,7.9
5720,9.38
5732,9.98
5744,9.98
5756,9.65
5768,9.25
5780,8.96
5792,8.83
5804,8.83
5816,8.89
5828,8.93
5840,8.92
5852,8.87
5864,8.88
5876,9.02
5888,9.33
5899,9.78
5910,10.22
5922,10.44
5934,10.27
5946,9.61
5958,8.5
5970,7.08
5982,5.53
5994,3.99
6006,2.58
6018,1.33
6030,0.25
6042,-0.69
6054,-1.54
6066,-2.41
6078,-3.43
6089,-4.67
6100,-6.13
6112,-7.66
6124,-9.08
6136,-10.23
6148,-11.08
6160,-11.81
6172,-12.74
6184,-14.19
6196,-16.33
6208,-19.16
6220,-22.41
6232,-25.67
6244,-28.41
6256,-30.13
6268,-30.43
6279,-29.07
6290,-26.07
6302,-21.69
6314,-16.4
6326,-10.74
6338,-5.28
6350,-0.41
6362,3.65
6374,6.85
6386,9.25
6398,10.93
6410,11.97
6422,12.44
6434,12.43
6446,12.11
6458,11.69
6469,11.39
6480,11.35
6492,11.68
6504,12.38
6516,13.38
6528,14.56
6540,15.74
6552,16.74
6564,17.42
6576,17.72
6588,17.64
6600,17.23
6612,16.5
6624,15.48
6636,14.17
6648,12.64
6659,11.03
6670,9.52
6682,8.26
6694,7.28
6706,6.45
6718,5.57
6730,4.42
6742,2.93
6754,1.13
6766,-0.81
6778,-2.72
6790,-4.44
6802,-5.91
6814,-7.15
6826,-8.24
6838,-9.34
6849,-10.62
6860,-12.27
6872,-14.4
6884,-16.95
6896,-19.68
6908,-22.11
6920,-23.68
6932,-23.91
6944,-22.5
6956,-19.45
6968,-15.04
6980,-9.75
6992,-4.13
7004,1.32
7016,6.19
7028,10.26
7039,13.41
7050,15.66
7062,17.05
7074,17.67
7086,17.6
7098,16.98
7110,16.03
7122,14.99
7134,14.11
7146,13.59
7158,13.46
7170,13.64
7182,13.95
7194,14.25
7206,14.45
7218,14.56
7229,14.63
7240,14.66
7252,14.58
7264,14.28
7276,13.61
7288,12.5
7300,10.99
7312,9.17
7324,7.23
7336,5.31
7348,3.51
7360,1.84
7372,0.22
7384,-1.48
7396,-3.32
7408,-5.35
7419,-7.48
7430,-9.57
7442,-11.51
7454,-13.24
7466,-14.84
7478,-16.47
7490,-18.34
7502,-20.58
7514,-23.15
7526,-25.78
7538,-28.05
7550,-29.42
7562,-29.43
7574,-27.8
7586,-24.56
7598,-20.02
7609,-14.69
7620,-9.16
7632,-3.94
7644,0.6
7656,4.3
7668,7.1
7680,9.1
7692,10.38
7704,11.06
7716,11.23
7728,10.99
7740,10.46
7752,9.78
7764,9.12
7776,8.67
7788,8.54
7799,8.76
7810,9.26
7822,9.9
7834,10.54
7846,11.11
7858,11.58
7870,11.91
7882,12.06
7894,11.91
7906,11.29
7918,10.12
7930,8.41
7942,6.34
7954,4.24
7966,2.39
7978,0.92
7989,-0.2
8000,-1.2
8012,-2.34
8024,-3.8
8036,-5.55
8048,-7.44
8060,-9.25
8072,-10.84
8084,-12.24
8096,-13.58
8108,-15.07
8120,-16.91
8132,-19.18
8144,-21.89
8156,-24.87
8168,-27.85
8179,-30.36
8190,-31.91
8202,-31.97
8214,-30.25
8226,-26.74
8238,-21.78
8250,-15.96
8262,-9.93
8274,-4.24
8286,0.79
8298,5.05
8310,8.58
8322,11.45
8334,13.68
8346,15.23
8358,16.05
8369,16.14
8380,15.64
8392,14.78
8404,13.9
8416,13.24
8428,12.99
8440,13.15
8452,13.64
8464,14.34
8476,15.12
8488,15.89
8500,16.59
8512,17.16
8524,17.5
8536,17.52
8548,17.12
8559,16.24
8570,14.87
8582,13.07
8594,10.94
8606,8.64
8618,6.36
8630,4.25
8642,2.41
8654,0.83
8666,-0.56
8678,-1.88
8690,-3.25
8702,-4.71
8714,-6.26
8726,-7.85
8738,-9.42
8749,-10.91
8760,-12.29
8772,-13.6
8784,-14.96
8796,-16.52
8808,-18.47
8820,-20.85
8832,-23.51
8844,-26.05
8856,-27.88
8868,-28.39
8880,-27.15
8892,-24.02
8904,-19.22
8916,-13.29
8928,-6.9
8939,-0.7
8950,4.79
8962,9.29
8974,12.74
8986,15.18
8998,16.74
9010,17.52
9022,17.61
9034,17.09
9046,16.15
9058,15.02
9070,13.96
9082,13.21
9094,12.87
9106,12.94
9118,13.32
9129,13.87
9140,14.48
9152,15.03
9164,15.41
9176,15.53
9188,15.33
9200,14.77
9212,13.93
9224,12.88
9236,11.74
9248,10.59
9260,9.48
9272,8.41
9284,7.35
9296,6.23
9308,4.98
9319,3.54
9330,1.92
9342,0.19
9354,-1.54
9366,-3.16
9378,-4.66
9390,-6.07
9402,-7.47
9414,-8.94
9426,-10.56
9438,-12.37
9450,-14.44
9462,-16.75
9474,-19.22
9486,-21.55
9498,-23.26
9509,-23.78
9520,-22.65
9532,-19.74
9544,-15.31
9556,-9.97
9568,-4.45
9580,0.6
9592,4.84
9604,8.22
9616,10.85
9628,12.84
9640,14.22
9652,14.95
9664,14.95
9676,14.25
9688,13.07
9699,11.74
9710,10.62
9722,9.96
9734,9.79
9746,9.99
9758,10.36
9770,10.77
9782,11.23
9794,11.76
9806,12.34
9818,12.8
9830,12.88
9842,12.31
9854,11.04
9866,9.21
9878,7.14
9889,5.13
9900,3.38
9912,1.87
9924,0.45
9936,-1.05
9948,-2.73
9960,-4.55
9972,-6.43
9984,-8.21
9996,-9.83
10008,-11.29
10020,-12.71
10032,-14.26
10044,-16.12
10056,-18.37
10068,-20.92
10079,-23.47
10090,-25.58
10102,-26.76
10114,-26.66
10126,-25.09
10138,-22.12
10150,-18.05
10162,-13.24
10174,-8.14
10186,-3.12
10198,1.48
10210,5.36
10222,8.29
10234,10.11
10246,10.8
10258,10.54
10269,9.61
10280,8.38
10292,7.16
10304,6.16
10316,5.47
10328,5.11
10340,5.09
10352,5.43
10364,6.13
10376,7.11
10388,8.17
10400,9.09
10412,9.67
10424,9.84
10436,9.63
10448,9.15
10459,8.45
10470,7.55
10482,6.39
10494,4.9
10506,3.09
10518,1.06
10530,-1.05
10542,-3.06
10554,-4.9
10566,-6.54
10578,-8.06
10590,-9.56
10602,-11.13
10614,-12.88
10626,-14.88
10638,-17.2
10649,-19.85
10660,-22.73
10672,-25.6
10684,-28.08
10696,-29.65
10708,-29.87
10720,-28.42
10732,-25.26
10744,-20.64
10756,-15.05
10768,-9.06
10780,-3.25
10792,1.96
10804,6.32
10816,9.71
10828,12.15
10839,13.7
10850,14.44
10862,14.46
10874,13.89
10886,12.92
10898,11.8
10910,10.79
10922,10.12
10934,9.89
10946,10.09
10958,10.64
10970,11.37
10982,12.13
10994,12.78
11006,13.22
11018,13.38
11029,13.22
11040,12.73
11052,11.91
11064,10.84
11076,9.61
11088,8.34
11100,7.1
11112,5.88
11124,4.6
11136,3.13
11148,1.37
11160,-0.68
11172,-2.9
11184,-5.08
11196,-7.06
11208,-8.77
11219,-10.28
11230,-11.77
11242,-13.5
11254,-15.65
11266,-18.26
11278,-21.2
11290,-24.18
11302,-26.74
11314,-28.4
11326,-28.72
11338,-27.44
11350,-24.5
11362,-20.12
11374,-14.71
11386,-8.8
11398,-2.94
11409,2.44
11420,7.02
11432,10.68
11444,13.38
11456,15.18
11468,16.16
11480,16.41
11492,16.08
11504,15.34
11516,14.47
11528,13.72
11540,13.33
11552,13.39
11564,13.86
11576,14.63
11588,15.49
11599,16.32
11610,17.02
11622,17.57
11634,17.9
11646,17.96
11658,17.65
11670,16.89
11682,15.74
11694,14.33
11706,12.87
11718,11.56
11730,10.46
11742,9.5
11754,8.5
11766,7.26
11778,5.69
11789,3.82
11800,1.76
11812,-0.33
11824,-2.33
11836,-4.2
11848,-5.96
11860,-7.63
11872,-9.28
11884,-10.94
11896,-12.68
11908,-14.61
11920,-16.84
11932,-19.5
11944,-22.57
11956,-25.87
11968,-28.99
11979,-31.37
11990,-32.42
12002,-31.68
12014,-29.0
12026,-24.57
12038,-18.92
12050,-12.73
12062,-6.65
12074,-1.12
12086,3.6
12098,7.45
12110,10.44
12122,12.55
12134,13.79
12146,14.17
12158,13.82
12169,12.98
12180,11.96
12192,11.07
12204,10.56
12216,10.57
12228,11.09
12240,12.01
12252,13.18
12264,14.39
12276,15.5
12288,16.36
12300,16.88
12312,17.02
12324,16.75
12336,16.11
12348,15.18
12359,14.07
12370,12.91
12382,11.75
12394,10.61
12406,9.46
12418,8.23
12430,6.87
12442,5.37
12454,3.78
12466,2.15
12478,0.51
12490,-1.07
12502,-2.59
12514,-4.04
12526,-5.44
12538,-6.83
12549,-8.24
12560,-9.71
12572,-11.22
12584,-12.79
12596,-14.45
12608,-16.23
12620,-18.21
12632,-20.46
12644,-23.02
12656,-25.88
12668,-28.93
12680,-31.9
12692,-34.34
12704,-35.67
12716,-35.36
12728,-33.03
12739,-28.66
12750,-22.63
12762,-15.65
12774,-8.53
12786,-1.98
12798,3.55
12810,7.93
12822,11.22
12834,13.6
12846,15.19
12858,16.13
12870,16.51
12882,16.48
12894,16.2
12906,15.87
12918,15.6
12929,15.45
12940,15.42
12952,15.48
12964,15.67
12976,16.03
12988,16.6
13000,17.32
13012,18.03
13024,18.53
13036,18.65
13048,18.32
13060,17.56
13072,16.49
13084,15.26
13096,13.99
13108,12.8
13119,11.73
13130,10.83
13142,10.04
13154,9.27
13166,8.37
13178,7.2
13190,5.73
13202,4.01
13214,2.21
13226,0.47
13238,-1.1
13250,-2.49
13262,-3.79
13274,-5.09
13286,-6.44
13298,-7.87
13309,-9.36
13320,-10.9
13332,-12.5
13344,-14.21
13356,-16.11
13368,-18.3
13380,-20.88
13392,-23.91
13404,-27.3
13416,-30.71
13428,-33.58
13440,-35.2
13452,-34.97
13464,-32.56
13476,-28.12
13488,-22.21
13499,-15.64
13510,-9.17
13522,-3.36
13534,1.52
13546,5.44
13558,8.43
13570,10.6
13582,12.0
13594,12.72
13606,12.87
13618,12.6
13630,12.12
13642,11.63
13654,11.34
13666,11.36
13678,11.76
13689,12.54
13700,13.6
13712,14.8
13724,16.01
13736,17.09
13748,17.96
13760,18.51
13772,18.67
13784,18.4
13796,17.71
13808,16.7
13820,15.5
13832,14.22
13844,12.9
13856,11.52
13868,10.03
13879,8.4
13890,6.68
13902,4.98
13914,3.38
13926,1.95
13938,0.66
13950,-0.54
13962,-1.69
13974,-2.88
13986,-4.12
13998,-5.49
14010,-6.99
14022,-8.58
14034,-10.2
14046,-11.74
14058,-13.16
14069,-14.54
14080,-16.08
14092,-17.98
14104,-20.34
14116,-23.01
14128,-25.59
14140,-27.46
14152,-28.01
14164,-26.82
14176,-23.76
14188,-19.07
14200,-13.25
14212,-6.97
14224,-0.91
14236,4.43
14248,8.74
14259,11.94
14270,14.1
14282,15.34
14294,15.77
14306,15.52
14318,14.76
14330,13.72
14342,12.72
14354,12.04
14366,11.9
14378,12.29
14390,13.05
14402,13.92
14414,14.64
14426,15.09
14438,15.27
14449,15.27
14460,15.14
14472,14.88
14484,14.44
14496,13.73
14508,12.71
14520,11.39
14532,9.88
14544,8.29
14556,6.76
14568,5.32
14580,3.98
14592,2.66
14604,1.24
14616,-0.38
14628,-2.26
14639,-4.38
14650,-6.63
14662,-8.82
14674,-10.83
14686,-12.56
14698,-14.08
14710,-15.56
14722,-17.2
14734,-19.22
14746,-21.73
14758,-24.72
14770,-27.99
14782,-31.13
14794,-33.63
14806,-34.93
14818,-34.61
14829,-32.5
14840,-28.72
14852,-23.63
14864,-17.73
14876,-11.51
14888,-5.4
14900,0.29
14912,5.33
14924,9.51
14936,12.69
14948,14.76
14960,15.71
14972,15.65
14984,14.84
14996,13.59
15008,12.27
15019,11.2
15030,10.6
15042,10.57
15054,11.06
15066,11.9
15078,12.87
15090,13.75
15102,14.39
15114,14.73
15126,14.81
15138,14.71
15150,14.49
15162,14.15
15174,13.6
15186,12.78
15198,11.62
15209,10.17
15220,8.55
15232,6.84
15244,5.1
15256,3.33
15268,1.46
15280,-0.53
15292,-2.6
15304,-4.71
15316,-6.76
15328,-8.73
15340,-10.58
15352,-12.34
15364,-14.0
15376,-15.63
15388,-17.27
15399,-19.07
15410,-21.19
15422,-23.77
15434,-26.86
15446,-30.33
15458,-33.82
15470,-36.77
15482,-38.52
15494,-38.43
15506,-36.13
15518,-31.64
15530,-25.44
15542,-18.31
15554,-11.11
15566,-4.53
15578,1.08
15589,5.68
15600,9.41
15612,12.36
15624,14.52
15636,15.8
15648,16.12
15660,15.61
15672,14.59
15684,13.51
15696,12.85
15708,12.87
15720,13.61
15732,14.88
15744,16.35
15756,17.72
15768,18.82
15779,19.62
15790,20.22
15802,20.71
15814,21.09
15826,21.24
15838,20.99
15850,20.21
15862,18.87
15874,17.1
15886,15.09
15898,13.02
15910,11.04
15922,9.17
15934,7.4
15946,5.63
15958,3.79
15969,1.8
15980,-0.34
15992,-2.61
16004,-4.93
16016,-7.19
16028,-9.36
16040,-11.37
16052,-13.25
16064,-15.05
16076,-16.86
16088,-18.81
16100,-21.05
16112,-23.72
16124,-26.84
16136,-30.18
16148,-33.32
16159,-35.66
16170,-36.57
16182,-35.6
16194,-32.62
16206,-27.8
16218,-21.59
16230,-14.54
16242,-7.27
16254,-0.35
16266,5.76
16278,10.76
16290,14.49
16302,16.97
16314,18.35
16326,18.82
16338,18.6
16349,17.94
16360,17.1
16372,16.35
16384,15.93
16396,15.96
16408,16.42
16420,17.19
16432,18.08
16444,18.94
16456,19.7
16468,20.34
16480,20.83
16492,21.15
16504,21.22
16516,20.98
16528,20.43
16539,19.58
16550,18.48
16562,17.13
16574,15.58
16586,13.86
16598,12.04
16610,10.2
16622,8.46
16634,6.85
16646,5.36
16658,3.95
16670,2.51
16682,0.98
16694,-0.67
16706,-2.41
16718,-4.18
16729,-5.9
16740,-7.5
16752,-8.93
16764,-10.22
16776,-11.52
16788,-13.01
16800,-14.95
16812,-17.49
16824,-20.69
16836,-24.34
16848,-28.02
16860,-31.13
16872,-32.98
16884,-33.04
16896,-31.0
16908,-26.91
16919,-21.17
16930,-14.4
16942,-7.29
16954,-0.46
16966,5.67
16978,10.86
16990,14.96
17002,17.89
17014,19.58
17026,20.07
17038,19.54
17050,18.37
17062,17.01
17074,15.91
17086,15.32
17098,15.3
17109,15.7
17120,16.37
17132,17.17
17144,18.05
17156,18.95
17168,19.79
17180,20.46
17192,20.84
17204,20.85
17216,20.52
17228,19.87
17240,18.94
17252,17.71
17264,16.17
17276,14.33
17288,12.31
17299,10.27
17310,8.34
17322,6.56
17334,4.85
17346,3.06
17358,1.07
17370,-1.12
17382,-3.4
17394,-5.57
17406,-7.45
17418,-8.94
17430,-10.07
17442,-10.98
17454,-11.88
17466,-13.03
17478,-14.71
17489,-17.13
17500,-20.35
17512,-24.18
17524,-28.13
17536,-31.5
17548,-33.51
17560,-33.51
17572,-31.25
17584,-26.88
17596,-20.95
17608,-14.25
17620,-7.56
17632,-1.52
17644,3.49
17656,7.33
17668,10.05
17679,11.8
17690,12.76
17702,13.08
17714,12.93
17726,12.51
17738,12.0
17750,11.57
17762,11.38
17774,11.46
17786,11.8
17798,12.35
17810,13.05
17822,13.84
17834,14.68
17846,15.48
17858,16.15
17869,16.57
17880,16.65
17892,16.31
17904,15.52
17916,14.28
17928,12.62
17940,10.63
17952,8.44
17964,6.25
17976,4.21
17988,2.41
18000,0.8
18012,-0.77
18024,-2.49
18036,-4.48
18048,-6.69
18059,-9.0
18070,-11.21
18082,-13.21
18094,-14.95
18106,-16.51
18118,-18.04
18130,-19.7
18142,-21.68
18154,-24.13
18166,-27.06
18178,-30.31
18190,-33.46
18202,-35.89
18214,-36.97
18226,-36.18
18238,-33.35
18249,-28.63
18260,-22.5
18272,-15.64
18284,-8.68
18296,-2.2
18308,3.43
18320,8.0
18332,11.44
18344,13.76
18356,15.02
18368,15.37
18380,15.02
18392,14.26
18404,13.4
18416,12.71
18428,12.33
18439,12.27
18450,12.47
18462,12.83
18474,13.27
18486,13.77
18498,14.29
18510,14.79
18522,15.24
18534,15.59
18546,15.78
18558,15.76
18570,15.42
18582,14.66
18594,13.43
18606,11.8
18618,9.92
18629,8.02
18640,6.25
18652,4.65
18664,3.12
18676,1.52
18688,-0.21
18700,-2.08
18712,-4.0
18724,-5.84
18736,-7.54
18748,-9.1
18760,-10.6
18772,-12.18
18784,-13.99
18796,-16.17
18808,-18.81
18819,-21.85
18830,-25.09
18842,-28.1
18854,-30.33
18866,-31.21
18878,-30.29
18890,-27.4
18902,-22.7
18914,-16.64
18926,-9.86
18938,-3.07
18950,3.12
18962,8.28
18974,12.19
18986,14.85
18998,16.41
19009,17.05
19020,16.99
19032,16.42
19044,15.51
19056,14.47
19068,13.52
19080,12.89
19092,12.68
19104,12.91
19116,13.45
19128,14.09
19140,14.62
19152,14.96
19164,15.12
19176,15.19
19188,15.22
19199,15.22
19210,15.04
19222,14.52
19234,13.53
19246,12.05
19258,10.22
19270,8.26
19282,6.4
19294,4.74
19306,3.25
19318,1.78
19330,0.16
19342,-1.67
19354,-3.67
19366,-5.71
19378,-7.69
19389,-9.65
19400,-11.73
19412,-14.15
19424,-17.01
19436,-20.22
19448,-23.41
19460,-26.01
19472,-27.42
19484,-27.16
19496,-25.03
19508,-21.16
19520,-15.94
19532,-9.97
19544,-3.89
19556,1.76
19568,6.6
19579,10.46
19590,13.3
19602,15.18
19614,16.16
19626,16.37
19638,15.93
19650,15.05
19662,13.97
19674,12.96
19686,12.21
19698,11.84
19710,11.84
19722,12.12
19734,12.58
19746,13.09
19758,13.57
19769,13.88
19780,13.9
19792,13.52
19804,12.69
19816,11.43
19828,9.85
19840,8.08
19852,6.21
19864,4.3
19876,2.32
19888,0.25
19900,-1.92
19912,-4.18
19924,-6.51
19936,-8.87
19948,-11.22
19959,-13.52
19970,-15.79
19982,-18.09
19994,-20.52
20006,-23.21
20018,-26.16
20030,-29.17
20042,-31.83
20054,-33.57
20066,-33.84
20078,-32.34
20090,-29.07
20102,-24.38
20114,-18.82
20126,-13.0
20138,-7.39
20149,-2.33
20160,2.02
20172,5.6
20184,8.35
20196,10.25
20208,11.29
20220,11.56
20232,11.23
20244,10.57
20256,9.82
20268,9.16
20280,8.69
20292,8.42
20304,8.31
20316,8.34
20328,8.56
20339,9.0
20350,9.7
20362,10.59
20374,11.48
20386,12.13
20398,12.28
20410,11.82
20422,10.78
20434,9.33
20446,7.7
20458,6.06
20470,4.48
20482,2.9
20494,1.19
20506,-0.74
20518,-2.87
20529,-5.12
20540,-7.32
20552,-9.33
20564,-11.15
20576,-12.85
20588,-14.63
20600,-16.73
20612,-19.36
20624,-22.6
20636,-26.33
20648,-30.21
20660,-33.7
20672,-36.15
20684,-37.0
20696,-35.83
20708,-32.54
20719,-27.38
20730,-20.86
20742,-13.68
20754,-6.52
20766,0.05
20778,5.67
20790,10.19
20802,13.62
20814,16.07
20826,17.65
20838,18.48
20850,18.65
20862,18.28
20874,17.59
20886,16.79
20898,16.13
20909,15.75
20920,15.65
20932,15.73
20944,15.87
20956,15.98
20968,16.05
20980,16.12
20992,16.21
