seconds,BVP
9,-260.89
21,-235.12
33,-208.72
45,-176.31
57,-135.31
69,-87.27
81,-35.37
93,14.46
105,57.34
117,89.7
129,109.07
141,114.3
153,107.68
165,91.99
177,66.5
188,36.09
199,4.24
211,-26.17
223,-53.4
235,-76.9
247,-96.86
259,-112.56
271,-123.2
283,-127.82
295,-125.75
307,-118.02
319,-106.22
331,-92.77
343,-80.43
355,-71.26
367,-66.16
378,-64.91
389,-66.38
401,-68.75
413,-70.02
425,-66.68
437,-54.45
449,-30.2
461,5.49
473,46.39
485,82.1
497,101.85
509,99.71
521,76.83
533,41.54
545,5.34
557,-22.51
568,-38.38
579,-45.04
591,-48.33
603,-53.32
615,-61.83
627,-73.2
639,-85.89
651,-99.22
663,-115.01
675,-133.23
687,-153.26
699,-172.42
711,-186.29
723,-190.36
735,-181.27
747,-158.23
758,-123.07
769,-79.46
781,-31.42
793,17.22
805,63.68
817,106.09
829,142.85
841,172.38
853,192.68
865,201.68
877,197.59
889,180.18
901,150.53
913,111.05
925,65.02
937,16.13
948,-31.79
959,-75.12
971,-110.55
983,-135.52
995,-148.03
1007,-147.23
1019,-133.76
1031,-109.76
1043,-78.49
1055,-43.38
1067,-7.43
1079,27.43
1091,60.39
1103,90.95
1115,118.44
1127,141.33
1138,157.65
1149,165.41
1161,163.66
1173,152.44
1185,132.63
1197,105.75
1209,72.95
1221,38.3
1233,6.91
1245,-15.95
1257,-27.11
1269,-27.12
1281,-20.8
1293,-15.81
1305,-19.38
1317,-34.61
1328,-60.01
1339,-88.16
1351,-110.56
1363,-121.93
1375,-122.21
1387,-115.03
1399,-104.42
1411,-91.51
1423,-73.45
1435,-44.91
1447,-2.09
1459,54.7
1471,119.45
1483,182.23
1495,233.15
1507,265.6
1518,277.21
1529,268.33
1541,240.46
1553,192.27
1565,126.04
1577,48.02
1589,-32.2
1601,-102.87
1613,-153.42
1625,-178.1
1637,-178.27
1649,-161.28
1661,-137.01
1673,-113.36
1685,-94.6
1697,-82.32
1708,-75.64
1719,-72.48
1731,-71.31
1743,-71.91
1755,-75.32
1767,-82.81
1779,-94.92
1791,-111.85
1803,-134.87
1815,-164.3
1827,-198.25
1839,-232.51
1851,-261.34
1863,-278.65
1875,-279.46
1887,-261.91
1898,-219.96
1909,-158.87
1921,-92.95
1933,-36.96
1945,2.71
1957,30.68
1969,56.82
1981,88.33
1993,125.42
2005,162.36
2017,192.51
2029,212.29
2041,223.63
2053,231.18
2065,238.69
2077,246.32
2088,250.49
2099,246.2
2111,229.49
2123,197.74
2135,146.93
2147,79.48
2159,0.82
2171,-81.24
2183,-156.95
2195,-214.85
2207,-244.02
2219,-238.18
2231,-200.36
2243,-143.56
2255,-86.93
2267,-49.73
2278,-43.32
2289,-66.94
2301,-107.77
2313,-146.97
2325,-167.62
2337,-160.94
2349,-127.47
2361,-75.07
2373,-14.77
2385,43.49
2397,92.6
2409,129.72
2421,156.31
2433,177.31
2445,198.93
2457,227.01
2468,263.69
2479,295.76
2491,305.78
2503,278.99
2515,213.42
2527,120.56
2539,16.89
2551,-85.55
2563,-177.87
2575,-264.73
2587,-348.59
2599,-425.88
2611,-489.28
2623,-531.25
2635,-548.0
2647,-536.88
2658,-502.12
2669,-451.11
2681,-392.16
2693,-330.47
2705,-267.44
2717,-202.15
2729,-132.81
2741,-58.98
2753,17.09
2765,90.01
2777,153.7
2789,202.56
2801,234.39
2813,251.07
2825,257.61
2837,261.05
2848,268.55
2859,285.79
2871,315.35
2883,356.99
2895,406.61
2907,456.99
2919,498.39
2931,520.3
2943,514.92
2955,479.91
2967,419.88
2979,344.81
2991,266.86
3003,195.68
3015,135.82
3027,86.19
3038,41.55
3049,-3.74
3061,-52.98
3073,-105.62
3085,-157.52
3097,-202.57
3109,-235.1
3121,-252.12
3133,-255.01
3145,-250.42
3157,-248.45
3169,-259.05
3181,-287.65
3193,-331.71
3205,-380.84
3217,-420.57
3228,-438.24
3239,-427.95
3251,-392.39
3263,-340.02
3275,-280.44
3287,-220.09
3299,-160.51
3311,-100.34
3323,-38.45
3335,23.07
3347,79.39
3359,125.27
3371,158.54
3383,181.56
3395,200.15
3407,221.23
3418,249.47
3429,286.11
3441,328.87
3453,373.22
3465,413.48
3477,444.26
3489,461.22
3501,462.17
3513,448.62
3525,426.05
3537,402.91
3549,387.69
3561,384.84
3573,391.94
3585,400.18
3597,397.87
3608,375.61
3619,330.52
3631,267.05
3643,194.45
3655,122.41
3667,57.16
3679,-0.09
3691,-52.08
3703,-103.07
3715,-156.49
3727,-213.0
3739,-270.16
3751,-322.74
3763,-364.12
3775,-387.82
3787,-389.52
3798,-368.97
3809,-330.9
3821,-284.71
3833,-242.4
3845,-215.91
3857,-213.75
3869,-238.06
3881,-283.36
3893,-337.61
3905,-385.27
3917,-412.03
3929,-409.12
3941,-375.59
3953,-318.35
3965,-249.2
3977,-180.8
3988,-122.99
3999,-81.16
4011,-55.95
4023,-44.36
4035,-41.18
4047,-40.18
4059,-35.39
4071,-21.93
4083,3.09
4095,39.98
4107,86.37
4119,138.0
4131,189.94
4143,237.85
4155,279.45
4167,314.88
4178,345.69
4189,373.04
4201,395.93
4213,410.78
4225,412.76
4237,398.47
4249,368.08
4261,326.08
4273,279.58
4285,235.49
4297,197.96
4309,167.34
4321,141.19
4333,115.95
4345,88.82
4357,58.03
4368,22.56
4379,-18.5
4391,-66.19
4403,-121.36
4415,-184.11
4427,-253.04
4439,-324.79
4451,-393.19
4463,-450.1
4475,-486.96
4487,-497.41
4499,-480.09
4511,-439.9
4523,-387.16
4535,-334.41
4547,-292.58
4558,-267.95
4569,-261.51
4581,-270.3
4593,-289.67
4605,-315.27
4617,-343.45
4629,-370.77
4641,-393.31
4653,-406.78
4665,-407.53
4677,-393.76
4689,-366.26
4701,-328.06
4713,-283.82
4725,-238.13
4737,-194.53
4748,-154.93
4759,-119.95
4771,-89.54
4783,-63.75
4795,-43.18
4807,-28.83
4819,-21.92
4831,-23.11
4843,-31.99
4855,-46.92
4867,-65.18
4879,-83.48
4891,-98.49
4903,-107.58
4915,-109.02
4927,-102.31
4938,-88.12
4949,-68.04
4961,-44.17
4973,-18.51
4985,7.33
4997,32.5
5009,56.78
5021,80.42
5033,103.8
5045,127.16
5057,150.38
5069,173.16
5081,195.41
5093,217.14
5105,238.6
5117,260.15
5128,281.91
5139,303.72
5151,325.16
5163,345.89
5175,365.33
5187,382.76
5199,396.89
5211,406.15
5223,409.43
5235,407.17
5247,402.19
5259,399.01
5271,402.19
5283,413.44
5295,430.02
5307,444.7
5318,448.41
5329,434.12
5341,400.11
5353,350.86
5365,294.89
5377,241.35
5389,196.76
5401,164.06
5413,143.5
5425,133.99
5437,133.5
5449,138.34
5461,143.16
5473,141.66
5485,129.43
5497,106.56
5508,78.71
5519,55.25
5531,45.08
5543,52.91
5555,77.14
5567,111.47
5579,147.81
5591,179.65
5603,203.34
5615,217.84
5627,223.62
5639,221.89
5651,214.44
5663,203.59
5675,192.14
5687,182.49
5698,176.02
5709,172.65
5721,170.92
5733,169.23
5745,166.48
5757,162.84
5769,159.38
5781,157.12
5793,155.68
5805,152.86
5817,145.31
5829,130.17
5841,107.05
5853,78.05
5865,46.83
5877,16.13
5888,-13.63
5899,-44.62
5911,-79.96
5923,-121.54
5935,-168.76
5947,-217.82
5959,-264.21
5971,-304.42
5983,-337.2
5995,-362.96
6007,-382.62
6019,-396.54
6031,-404.31
6043,-405.73
6055,-399.85
6067,-387.95
6078,-373.63
6089,-361.58
6101,-354.93
6113,-352.79
6125,-349.5
6137,-336.76
6149,-307.46
6161,-255.57
6173,-182.09
6185,-94.63
6197,-4.64
6209,77.59
6221,146.76
6233,203.47
6245,252.0
6257,297.01
6268,346.71
6279,405.43
6291,472.65
6303,543.14
6315,609.39
6327,664.75
6339,705.07
6351,728.54
6363,734.7
6375,731.05
6387,724.18
6399,717.79
6411,711.89
6423,704.77
6435,696.73
6447,691.32
6458,693.82
6469,663.35
6481,574.33
6493,421.5
6505,226.13
6517,23.3
6529,-159.36
6541,-311.49
6553,-437.47
6565,-547.21
6577,-647.79
6589,-731.66
6601,-786.24
6613,-800.77
6625,-773.81
6637,-715.29
6648,-641.2
6659,-567.58
6671,-505.76
6683,-460.15
6695,-423.74
6707,-388.33
6719,-349.42
6731,-305.68
6743,-264.28
6755,-230.96
6767,-207.53
6779,-192.96
6791,-185.06
6803,-179.26
6815,-173.61
6827,-169.08
6838,-168.76
6849,-176.12
6861,-191.7
6873,-212.91
6885,-234.94
6897,-251.68
6909,-255.84
6921,-242.64
6933,-211.32
6945,-165.75
6957,-113.53
6969,-62.77
6981,-19.88
6993,8.68
7005,19.81
7017,14.37
7028,-4.33
7039,-31.28
7051,-60.8
7063,-87.41
7075,-105.78
7087,-111.9
7099,-104.15
7111,-83.25
7123,-52.74
7135,-18.41
7147,13.39
7159,36.95
7171,48.2
7183,45.68
7195,30.72
7207,7.31
7218,-17.85
7229,-36.89
7241,-43.05
7253,-32.87
7265,-7.8
7277,25.78
7289,58.76
7301,82.37
7313,90.87
7325,83.19
7337,62.48
7349,34.15
7361,3.98
7373,-23.17
7385,-43.91
7397,-56.08
7408,-58.65
7419,-52.06
7431,-38.45
7443,-21.5
7455,-5.72
7467,4.9
7479,8.45
7491,5.6
7503,-0.63
7515,-5.94
7527,-6.46
7539,-0.18
7551,12.27
7563,27.66
7575,41.34
7587,48.95
7598,47.81
7609,37.89
7621,21.69
7633,3.25
7645,-13.33
7657,-25.22
7669,-31.44
7681,-32.59
7693,-29.98
7705,-24.75
7717,-17.38
7729,-7.81
7741,3.89
7753,17.04
7765,30.19
7777,41.33
7788,48.63
7799,51.06
7811,48.71
7823,42.84
7835,35.3
7847,27.64
7859,20.76
7871,14.79
7883,9.25
7895,3.64
7907,-2.25
7919,-8.21
7931,-13.7
7943,-18.24
7955,-21.81
7967,-24.8
7978,-27.87
7989,-31.63
8001,-36.18
8013,-40.72
8025,-43.63
8037,-42.74
8049,-36.24
8061,-23.33
8073,-4.79
8085,17.24
8097,39.8
8109,60.1
8121,76.07
8133,86.56
8145,91.23
8157,90.44
8168,85.37
8179,78.1
8191,71.41
8203,68.15
8215,70.05
8227,76.93
8239,86.24
8251,93.94
8263,96.09
8275,90.81
8287,79.35
8299,65.89
8311,56.06
8323,54.63
8335,63.76
8347,82.11
8358,105.53
8369,128.84
8381,147.87
8393,160.83
8405,168.3
8417,172.33
8429,174.83
8441,176.83
8453,178.26
8465,178.75
8477,178.35
8489,177.7
8501,177.31
8513,176.7
8525,174.28
8537,167.84
8548,156.27
8559,140.88
8571,125.31
8583,114.0
8595,109.47
8607,110.16
8619,110.23
8631,101.64
8643,77.52
8655,35.34
8667,-21.62
8679,-85.51
8691,-146.76
8703,-197.65
8715,-234.67
8727,-259.0
8738,-275.03
8749,-287.91
8761,-301.1
8773,-315.2
8785,-328.73
8797,-339.49
8809,-346.78
8821,-352.17
8833,-358.82
8845,-369.73
8857,-386.01
8869,-406.16
8881,-426.47
8893,-442.29
8905,-448.82
8917,-441.5
8928,-416.27
8939,-370.01
8951,-302.24
8963,-216.73
8975,-122.2
8987,-31.08
8999,43.97
9011,94.43
9023,118.92
9035,123.22
9047,117.4
9059,110.83
9071,108.22
9083,108.53
9095,106.81
9107,98.33
9118,81.94
9129,60.62
9141,39.37
9153,21.87
9165,8.0
9177,-5.29
9189,-21.17
9201,-39.81
9213,-57.4
9225,-68.05
9237,-67.48
9249,-56.05
9261,-39.21
9273,-25.36
9285,-22.13
9297,-33.2
9308,-56.83
9319,-86.56
9331,-113.38
9343,-128.65
9355,-126.59
9367,-106.04
9379,-71.0
9391,-29.91
9403,6.4
9415,27.6
9427,27.07
9439,4.32
9451,-34.39
9463,-77.47
9475,-111.46
9487,-125.11
9498,-112.67
9509,-74.98
9521,-18.4
9533,47.57
9545,113.01
9557,169.0
9569,208.36
9581,225.95
9593,219.52
9605,190.52
9617,144.84
9629,92.2
9641,43.73
9653,9.34
9665,-4.75
9677,2.78
9688,28.62
9699,66.07
9711,106.77
9723,142.58
9735,167.26
9747,177.04
9759,171.54
9771,153.58
9783,128.6
9795,103.31
9807,83.99
9819,74.99
9831,77.68
9843,90.3
9855,108.01
9867,125.03
9878,136.62
9889,140.8
9901,138.69
9913,133.62
9925,130.02
9937,131.82
9949,141.18
9961,156.32
9973,173.01
9985,186.18
9997,192.0
10009,188.99
10021,178.24
10033,163.31
10045,149.11
10057,139.92
10068,134.77
10079,129.26
10091,118.07
10103,97.82
10115,68.01
10127,30.44
10139,-11.37
10151,-52.78
10163,-88.73
10175,-118.55
10187,-142.67
10199,-160.34
10211,-168.95
10223,-166.49
10235,-154.56
10247,-138.22
10258,-123.71
10269,-115.75
10281,-121.96
10293,-148.44
10305,-197.7
10317,-267.53
10329,-353.19
10341,-450.26
10353,-554.59
10365,-661.41
10377,-730.93
10389,-728.61
10401,-644.61
10413,-503.52
10425,-344.47
10437,-196.23
10448,-70.14
10459,34.37
10471,122.35
10483,198.72
10495,261.07
10507,305.04
10519,329.12
10531,337.96
10543,339.98
10555,342.63
10567,351.34
10579,367.66
10591,389.83
10603,410.45
10615,421.71
10627,419.35
10638,404.67
10649,382.65
10661,357.74
10673,332.99
10685,309.23
10697,284.3
10709,253.02
10721,210.47
10733,154.01
10745,83.66
10757,6.14
10769,-71.87
10781,-144.05
10793,-206.16
10805,-257.8
10817,-300.56
10828,-335.95
10839,-364.2
10851,-384.24
10863,-394.63
10875,-394.9
10887,-384.82
10899,-365.9
10911,-343.23
10923,-321.34
10935,-302.86
10947,-288.21
10959,-276.96
10971,-269.74
10983,-268.81
10995,-275.94
11007,-272.41
11018,-247.48
11029,-199.44
11041,-135.6
11053,-66.47
11065,-1.65
11077,50.8
11089,80.88
11101,92.54
11113,92.04
11125,84.27
11137,74.89
11149,68.71
11161,68.25
11173,75.85
11185,90.08
11197,108.2
11208,128.94
11219,150.99
11231,171.78
11243,190.47
11255,208.37
11267,228.7
11279,255.55
11291,291.65
11303,337.04
11315,388.3
11327,436.96
11339,471.08
11351,480.86
11363,462.12
11375,417.63
11387,355.53
11398,285.84
11409,217.68
11421,157.71
11433,108.72
11445,70.43
11457,41.49
11469,20.12
11481,4.05
11493,-9.68
11505,-24.48
11517,-43.29
11529,-67.47
11541,-97.18
11553,-131.75
11565,-169.62
11577,-209.01
11588,-248.13
11599,-285.76
11611,-321.72
11623,-356.46
11635,-389.85
11647,-420.15
11659,-442.88
11671,-451.09
11683,-437.52
11695,-397.57
11707,-331.73
11719,-246.34
11731,-151.48
11743,-57.4
11755,28.92
11767,105.16
11778,172.95
11789,235.04
11801,292.82
11813,345.47
11825,391.17
11837,429.17
11849,461.1
11861,490.2
11873,518.77
11885,545.81
11897,566.07
11909,571.79
11921,556.28
11933,517.4
11945,458.96
11957,389.37
11968,318.52
11979,254.54
11991,202.15
12003,162.76
12015,135.66
12027,119.24
12039,111.4
12051,109.26
12063,109.05
12075,106.18
12087,96.14
12099,75.12
12111,41.18
12123,-4.82
12135,-58.8
12147,-114.44
12158,-165.66
12169,-209.64
12181,-248.67
12193,-289.39
12205,-339.54
12217,-403.97
12229,-481.54
12241,-565.37
12253,-645.61
12265,-713.62
12277,-764.76
12289,-799.08
12301,-819.73
12313,-830.5
12325,-833.8
12337,-829.62
12348,-816.06
12359,-790.58
12371,-751.6
12383,-699.69
12395,-638.22
12407,-572.41
12419,-507.66
12431,-447.6
12443,-393.17
12455,-343.26
12467,-296.04
12479,-250.68
12491,-207.19
12503,-165.33
12515,-123.19
12527,-77.02
12538,-22.41
12549,43.31
12561,118.92
12573,199.14
12585,275.91
12597,341.27
12609,390.69
12621,424.18
12633,445.31
12645,459.12
12657,470.31
12669,481.88
12681,495.15
12693,508.82
12705,519.53
12717,523.2
12728,516.94
12739,500.3
12751,476.7
12763,453.75
12775,439.58
12787,439.12
12799,449.08
12811,458.6
12823,454.98
12835,430.54
12847,386.27
12859,331.48
12871,280.19
12883,243.46
12895,225.07
12907,218.09
12918,208.63
12929,182.93
12941,132.66
12953,55.98
12965,-42.91
12977,-154.52
12989,-264.97
13001,-348.27
13013,-381.55
13025,-361.7
13037,-305.41
13049,-234.35
13061,-164.93
13073,-108.44
13085,-61.11
13097,-20.42
13108,13.53
13119,36.73
13131,44.75
13143,36.82
13155,16.61
13167,-9.57
13179,-34.43
13191,-52.5
13203,-63.46
13215,-70.34
13227,-78.51
13239,-91.66
13251,-108.31
13263,-121.3
13275,-125.07
13287,-117.87
13298,-103.69
13309,-91.31
13321,-88.08
13333,-95.98
13345,-109.51
13357,-117.64
13369,-107.93
13381,-76.03
13393,-24.8
13405,37.34
13417,100.52
13429,158.54
13441,209.89
13453,255.55
13465,287.25
13477,309.95
13488,314.59
13499,293.77
13511,246.07
13523,178.55
13535,104.72
13547,38.71
13559,-11.45
13571,-46.92
13583,-74.83
13595,-106.13
13607,-145.9
13619,-191.91
13631,-237.08
13643,-275.02
13655,-303.88
13667,-326.67
13678,-347.62
13689,-366.6
13701,-379.93
13713,-379.52
13725,-358.45
13737,-315.21
13749,-255.79
13761,-190.69
13773,-130.74
13785,-82.59
13797,-45.77
13809,-15.44
13821,16.49
13833,54.42
13845,101.22
13857,151.37
13868,194.27
13879,218.59
13891,217.81
13903,194.64
13915,160.24
13927,130.68
13939,119.78
13951,133.99
13963,170.02
13975,218.24
13987,267.35
13999,308.21
14011,334.75
14023,342.41
14035,327.64
14047,288.94
14058,229.89
14069,159.84
14081,92.19
14093,38.83
14105,4.56
14117,-14.6
14129,-28.1
14141,-44.22
14153,-64.35
14165,-82.34
14177,-89.41
14189,-80.04
14201,-55.87
14213,-24.56
14225,4.77
14237,26.42
14248,40.01
14259,49.34
14271,59.33
14283,73.5
14295,94.11
14307,122.44
14319,158.65
14331,200.38
14343,241.51
14355,272.81
14367,285.98
14379,278.76
14391,257.79
14403,236.66
14415,229.28
14427,242.18
14438,270.68
14449,301.13
14461,317.83
14473,310.88
14485,280.25
14497,234.38
14509,184.71
14521,139.48
14533,100.7
14545,65.26
14557,28.8
14569,-10.72
14581,-51.72
14593,-90.37
14605,-123.6
14617,-151.5
14628,-177.28
14639,-205.71
14651,-240.7
14663,-283.47
14675,-332.41
14687,-384.2
14699,-435.8
14711,-485.87
14723,-534.69
14735,-581.94
14747,-624.46
14759,-655.92
14771,-669.45
14783,-661.01
14795,-632.01
14807,-588.69
14818,-538.86
14829,-488.39
14841,-438.38
14853,-385.52
14865,-325.6
14877,-257.47
14889,-184.67
14901,-113.65
14913,-50.0
14925,4.28
14937,49.73
14949,89.9
14961,130.08
14973,175.5
14985,229.11
14997,290.02
15008,353.81
15019,413.14
15031,459.42
15043,481.35
15055,471.98
15067,433.14
15079,375.79
15091,315.73
15103,267.97
15115,242.33
15127,241.1
15139,258.91
15151,278.41
15163,281.73
15175,258.44
15187,208.65
15198,139.68
15209,61.14
15221,-18.24
15233,-92.03
15245,-156.38
15257,-218.1
15269,-283.66
15281,-354.46
15293,-426.38
15305,-494.94
15317,-559.2
15329,-621.31
15341,-683.28
15353,-699.14
15365,-637.65
15377,-500.8
15388,-323.96
15399,-145.0
15411,15.74
15423,152.45
15435,264.94
15447,352.04
15459,421.02
15471,468.88
15483,494.45
15495,502.13
15507,501.94
15519,503.94
15531,514.06
15543,528.58
15555,542.05
15567,549.91
15578,543.32
15589,519.21
15601,478.98
15613,428.64
15625,374.67
15637,321.44
15649,269.93
15661,216.18
15673,155.49
15685,80.55
15697,-7.97
15709,-106.7
15721,-206.9
15733,-297.4
15745,-367.0
15757,-409.02
15768,-427.44
15779,-430.48
15791,-427.34
15803,-417.25
15815,-401.99
15827,-383.53
15839,-365.82
15851,-352.27
15863,-345.32
15875,-350.99
15887,-370.62
15899,-400.46
15911,-427.22
15923,-449.31
15935,-471.79
15947,-501.77
15958,-539.98
15969,-539.29
15981,-467.61
15993,-326.52
16005,-191.09
16017,-79.03
16029,6.79
16041,79.51
16053,140.75
16065,191.63
16077,232.87
16089,257.93
16101,261.16
16113,241.84
16125,211.42
16137,174.55
16148,132.89
16159,85.68
16171,33.56
16183,-23.21
16195,-89.89
16207,-169.48
16219,-258.04
16231,-339.3
16243,-401.22
16255,-436.26
16267,-443.61
16279,-426.7
16291,-392.32
16303,-350.97
16315,-310.28
16327,-272.03
16338,-230.3
16349,-182.99
16361,-131.4
16373,-79.4
16385,-29.72
16397,17.0
16409,60.63
16421,102.21
16433,143.06
16445,185.22
16457,226.92
16469,264.51
16481,293.86
16493,312.21
16505,318.07
16517,310.71
16528,290.12
16539,257.33
16551,214.79
16563,164.97
16575,111.01
16587,56.75
16599,6.74
16611,-34.59
16623,-63.91
16635,-79.79
16647,-82.9
16659,-75.74
16671,-61.8
16683,-44.42
16695,-26.2
16707,-8.71
16718,7.32
16729,21.63
16741,33.97
16753,44.15
16765,52.15
16777,58.53
16789,64.75
16801,73.04
16813,85.75
16825,104.5
16837,129.58
16849,159.74
16861,192.97
16873,227.25
16885,261.42
16897,295.61
16908,331.04
16919,369.25
16931,411.83
16943,459.96
16955,514.36
16967,574.53
16979,637.83
16991,698.55
17003,748.28
17015,778.02
17027,781.37
17039,757.45
17051,711.31
17063,652.12
17075,589.18
17087,528.71
17098,472.38
17109,418.51
17121,364.34
17133,308.23
17145,250.17
17157,190.83
17169,130.24
17181,67.64
17193,2.23
17205,-65.36
17217,-132.47
17229,-194.91
17241,-248.36
17253,-289.7
17265,-318.09
17277,-335.03
17288,-343.44
17299,-347.0
17311,-349.04
17323,-352.35
17335,-359.05
17347,-370.99
17359,-390.02
17371,-418.27
17383,-458.06
17395,-510.94
17407,-576.0
17419,-648.13
17431,-717.58
17443,-771.35
17455,-796.96
17467,-787.06
17478,-742.42
17489,-672.26
17501,-590.81
17513,-512.38
17525,-446.71
17537,-397.23
17549,-361.97
17561,-336.4
17573,-315.85
17585,-296.45
17597,-274.83
17609,-247.92
17621,-213.97
17633,-173.9
17645,-131.7
17657,-93.01
17668,-62.12
17679,-39.39
17691,-20.74
17703,0.06
17715,27.88
17727,63.26
17739,102.32
17751,139.06
17763,168.76
17775,189.81
17787,203.83
17799,213.74
17811,221.64
17823,228.04
17835,232.64
17847,235.67
17858,238.57
17869,243.67
17881,252.67
17893,265.36
17905,278.89
17917,288.13
17929,287.41
17941,272.9
17953,244.75
17965,207.28
17977,167.55
17989,132.42
18001,105.9
18013,88.42
18025,77.71
18037,70.41
18048,63.06
18059,52.5
18071,35.36
18083,8.82
18095,-27.8
18107,-71.39
18119,-114.57
18131,-147.47
18143,-161.35
18155,-152.45
18167,-123.47
18179,-82.09
18191,-37.26
18203,4.37
18215,40.04
18227,70.27
18238,96.84
18249,121.25
18261,143.75
18273,164.12
18285,182.46
18297,200.05
18309,218.82
18321,239.7
18333,261.13
18345,278.07
18357,283.56
18369,271.71
18381,241.12
18393,196.69
18405,148.26
18417,106.89
18428,80.1
18439,69.27
18451,69.62
18463,73.19
18475,72.88
18487,65.38
18499,51.86
18511,36.27
18523,23.03
18535,15.02
18547,13.13
18559,16.54
18571,23.36
18583,31.03
18595,37.01
18607,39.14
18618,36.69
18629,31.66
18641,28.76
18653,34.13
18665,52.01
18677,81.69
18689,115.86
18701,142.3
18713,148.94
18725,129.56
18737,87.97
18749,37.33
18761,-5.08
18773,-25.02
18785,-16.79
18797,15.76
18808,62.64
18819,113.32
18831,161.04
18843,203.82
18855,242.32
18867,276.88
18879,305.93
18891,326.67
18903,336.77
18915,335.82
18927,325.09
18939,306.24
18951,280.02
18963,246.06
18975,203.92
18987,154.33
18998,99.72
19009,43.75
19021,-9.71
19033,-57.42
19045,-96.86
19057,-126.78
19069,-147.32
19081,-160.6
19093,-170.71
19105,-183.27
19117,-203.83
19129,-235.69
19141,-278.08
19153,-326.08
19165,-372.24
19177,-408.94
19188,-431.23
19199,-437.73
19211,-430.26
19223,-412.49
19235,-388.27
19247,-360.56
19259,-331.51
19271,-302.58
19283,-274.53
19295,-247.67
19307,-222.3
19319,-199.58
19331,-182.61
19343,-176.71
19355,-188.23
19367,-221.91
19378,-277.53
19389,-347.84
19401,-419.58
19413,-477.57
19425,-509.52
19437,-510.42
19449,-483.77
19461,-439.23
19473,-388.5
19485,-341.07
19497,-301.71
19509,-270.88
19521,-246.66
19533,-226.87
19545,-210.32
19557,-196.42
19568,-184.22
19579,-171.77
19591,-156.29
19603,-135.46
19615,-108.73
19627,-77.68
19639,-45.49
19651,-15.81
19663,8.96
19675,28.91
19687,46.01
19699,63.33
19711,83.76
19723,108.96
19735,139.1
19747,173.12
19758,209.09
19769,245.21
19781,280.81
19793,315.89
19805,350.92
19817,386.27
19829,421.76
19841,456.52
19853,488.94
19865,516.51
19877,536.61
19889,547.85
19901,549.39
19913,541.29
19925,524.83
19937,502.97
19948,480.09
19959,460.52
19971,446.88
19983,438.88
19995,435.48
20007,432.27
20019,422.88
20031,401.28
20043,364.89
20055,315.8
20067,259.92
20079,205.07
20091,159.21
20103,133.98
20115,135.69
20127,163.2
20138,208.28
20149,259.61
20161,307.41
20173,345.96
20185,374.34
20197,396.01
20209,425.05
20221,471.39
20233,535.55
20245,608.52
20257,677.65
20269,732.82
20281,768.68
20293,784.06
20305,780.23
20317,769.66
20328,759.21
20339,746.56
20351,723.16
20363,681.73
20375,622.29
20387,551.05
20399,476.26
20411,338.93
20423,120.56
20435,-152.01
20447,-420.0
20459,-632.43
20471,-770.39
20483,-839.1
20495,-854.42
20507,-833.91
20518,-792.06
20529,-729.88
20541,-648.16
20553,-552.43
20565,-452.53
20577,-361.06
20589,-285.22
20601,-226.45
20613,-182.85
20625,-158.13
20637,-146.48
20649,-145.44
20661,-156.98
20673,-184.19
20685,-230.96
20697,-292.4
20708,-357.1
20719,-413.7
20731,-458.4
20743,-491.2
20755,-519.76
20767,-554.25
20779,-601.09
20791,-665.8
20803,-744.28
20815,-825.33
20827,-896.3
20839,-949.07
20851,-979.17
20863,-988.07
20875,-981.14
20887,-922.84
20898,-801.06
20909,-630.78
20921,-445.95
20933,-276.7
20945,-136.6
20957,-25.71
20969,60.66
20981,127.67
20993,179.63
