seconds,BVP
4,12.12
16,12.89
28,12.67
40,11.7
52,10.4
64,9.2
76,8.47
88,8.36
100,8.78
112,9.44
124,10.01
136,10.22
148,9.99
160,9.41
171,8.74
182,8.17
194,7.8
206,7.52
218,7.08
230,6.22
242,4.79
254,2.84
266,0.59
278,-1.64
290,-3.57
302,-5.05
314,-6.09
326,-6.84
338,-7.56
350,-8.5
361,-9.88
372,-11.87
384,-14.43
396,-17.34
408,-20.13
420,-22.24
432,-23.19
444,-22.86
456,-21.51
468,-19.79
480,-18.45
492,-18.01
504,-18.5
516,-19.39
528,-19.78
540,-18.83
551,-16.06
562,-11.64
574,-6.2
586,-0.65
598,4.28
610,8.16
622,10.96
634,12.83
646,13.94
658,14.35
670,13.99
682,12.84
694,11.03
706,8.86
718,6.79
730,5.23
741,4.5
752,4.69
764,5.74
776,7.4
788,9.36
800,11.33
812,13.13
824,14.67
836,15.95
848,17.0
860,17.77
872,18.12
884,17.93
896,17.16
908,15.88
920,14.28
931,12.46
942,10.47
954,8.28
966,6.0
978,4.0
990,2.93
1002,3.42
1014,5.78
1026,9.71
1038,14.38
1050,18.75
1062,22.05
1074,24.02
1086,24.89
1098,25.12
1110,25.01
1121,24.48
1132,23.21
1144,20.87
1156,17.39
1168,12.93
1180,7.79
1192,2.21
1204,-3.74
1216,-10.04
1228,-16.45
1240,-22.46
1252,-27.23
1264,-29.95
1276,-30.07
1288,-27.62
1300,-23.17
1311,-17.65
1322,-12.02
1334,-7.04
1346,-3.13
1358,-0.44
1370,1.01
1382,1.32
1394,0.63
1406,-0.83
1418,-2.74
1430,-4.76
1442,-6.58
1454,-7.99
1466,-8.91
1478,-9.39
1490,-9.47
1501,-9.19
1512,-8.56
1524,-7.59
1536,-6.31
1548,-4.87
1560,-3.48
1572,-2.39
1584,-1.76
1596,-1.65
1608,-1.97
1620,-2.49
1632,-2.99
1644,-3.33
1656,-3.49
1668,-3.61
1680,-3.83
1691,-4.24
1702,-4.79
1714,-5.38
1726,-5.91
1738,-6.34
1750,-6.75
1762,-7.22
1774,-7.81
1786,-8.45
1798,-9.01
1810,-9.35
1822,-9.38
1834,-9.16
1846,-8.85
1858,-8.65
1870,-8.77
1881,-9.38
1892,-10.62
1904,-12.54
1916,-15.11
1928,-18.06
1940,-20.89
1952,-22.96
1964,-23.59
1976,-22.32
1988,-19.04
2000,-14.05
2012,-7.92
2024,-1.33
2036,5.08
2048,10.8
2060,15.49
2071,18.99
2082,21.25
2094,22.38
2106,22.55
2118,22.01
2130,21.03
2142,19.86
2154,18.72
2166,17.8
2178,17.19
2190,16.93
2202,16.94
2214,17.08
2226,17.25
2238,17.41
2250,17.59
2261,17.85
2272,18.13
2284,18.28
2296,18.1
2308,17.44
2320,16.27
2332,14.78
2344,13.19
2356,11.72
2368,10.42
2380,9.23
2392,7.97
2404,6.53
2416,4.89
2428,3.15
2440,1.44
2451,-0.12
2462,-1.54
2474,-2.88
2486,-4.22
2498,-5.58
2510,-6.93
2522,-8.19
2534,-9.31
2546,-10.35
2558,-11.43
2570,-12.67
2582,-14.16
2594,-15.87
2606,-17.75
2618,-19.78
2630,-22.04
2641,-24.62
2652,-27.54
2664,-30.52
2676,-32.95
2688,-34.04
2700,-33.09
2712,-29.75
2724,-24.22
2736,-17.21
2748,-9.65
2760,-2.45
2772,3.78
2784,8.77
2796,12.53
2808,15.18
2820,16.84
2831,17.62
2842,17.64
2854,17.09
2866,16.24
2878,15.34
2890,14.58
2902,14.05
2914,13.73
2926,13.55
2938,13.53
2950,13.68
2962,14.09
2974,14.76
2986,15.59
2998,16.38
3010,16.88
3021,16.91
3032,16.43
3044,15.55
3056,14.46
3068,13.34
3080,12.31
3092,11.34
3104,10.35
3116,9.26
3128,8.01
3140,6.58
3152,5.02
3164,3.38
3176,1.78
3188,0.29
3200,-1.06
3211,-2.27
3222,-3.46
3234,-4.76
3246,-6.29
3258,-8.08
3270,-10.01
3282,-11.91
3294,-13.6
3306,-15.0
3318,-16.13
3330,-17.15
3342,-18.23
3354,-19.51
3366,-21.15
3378,-23.25
3390,-25.85
3401,-28.83
3412,-31.79
3424,-34.09
3436,-34.94
3448,-33.68
3460,-30.07
3472,-24.38
3484,-17.36
3496,-9.96
3508,-3.02
3520,2.94
3532,7.77
3544,11.5
3556,14.25
3568,16.06
3580,16.9
3591,16.82
3602,15.99
3614,14.75
3626,13.5
3638,12.55
3650,12.01
3662,11.84
3674,11.9
3686,12.08
3698,12.39
3710,12.9
3722,13.66
3734,14.63
3746,15.65
3758,16.5
3770,17.01
3781,17.08
3792,16.74
3804,16.11
3816,15.34
3828,14.51
3840,13.65
3852,12.7
3864,11.53
3876,10.09
3888,8.35
3900,6.36
3912,4.22
3924,2.02
3936,-0.15
3948,-2.24
3960,-4.21
3971,-6.07
3982,-7.88
3994,-9.7
4006,-11.63
4018,-13.72
4030,-15.92
4042,-18.07
4054,-20.01
4066,-21.66
4078,-23.09
4090,-24.52
4102,-26.29
4114,-28.63
4126,-31.56
4138,-34.75
4150,-37.54
4161,-39.13
4172,-38.87
4184,-36.43
4196,-32.02
4208,-26.27
4220,-19.98
4232,-13.9
4244,-8.5
4256,-3.98
4268,-0.4
4280,2.18
4292,3.68
4304,4.07
4316,3.42
4328,1.96
4340,-0.01
4351,-2.18
4362,-4.31
4374,-6.05
4386,-6.86
4398,-6.03
4410,-2.84
4422,3.08
4434,11.49
4446,21.47
4458,31.73
4470,41.03
4482,48.59
4494,54.21
4506,58.16
4518,60.82
4530,62.5
4541,63.23
4552,62.92
4564,61.49
4576,58.9
4588,55.22
4600,50.52
4612,44.93
4624,38.54
4636,31.53
4648,24.12
4660,16.57
4672,9.12
4684,1.97
4696,-4.73
4708,-10.87
4720,-16.33
4731,-20.99
4742,-24.72
4754,-27.43
4766,-29.15
4778,-30.02
4790,-30.39
4802,-30.72
4814,-31.48
4826,-32.91
4838,-34.9
4850,-36.9
4862,-38.12
4874,-37.79
4886,-35.41
4898,-30.95
4910,-24.82
4921,-17.68
4932,-10.28
4944,-3.27
4956,2.88
4968,7.9
4980,11.66
4992,14.15
5004,15.48
5016,15.81
5028,15.36
5040,14.4
5052,13.22
5064,12.07
5076,11.12
5088,10.44
5100,10.01
5111,9.75
5122,9.61
5134,9.6
5146,9.79
5158,10.22
5170,10.88
5182,11.65
5194,12.33
5206,12.75
5218,12.78
5230,12.47
5242,11.93
5254,11.36
5266,10.91
5278,10.64
5290,10.49
5301,10.33
5312,9.94
5324,9.21
5336,8.07
5348,6.63
5360,5.05
5372,3.45
5384,1.92
5396,0.37
5408,-1.36
5420,-3.41
5432,-5.83
5444,-8.57
5456,-11.44
5468,-14.24
5480,-16.86
5491,-19.22
5502,-21.39
5514,-23.5
5526,-25.72
5538,-28.22
5550,-31.07
5562,-34.17
5574,-37.12
5586,-39.28
5598,-39.88
5610,-38.3
5622,-34.31
5634,-28.18
5646,-20.61
5658,-12.56
5670,-4.88
5681,1.78
5692,7.13
5704,11.11
5716,13.8
5728,15.33
5740,15.82
5752,15.44
5764,14.45
5776,13.18
5788,11.96
5800,11.08
5812,10.66
5824,10.68
5836,11.04
5848,11.65
5860,12.45
5871,13.43
5882,14.59
5894,15.82
5906,16.97
5918,17.79
5930,18.1
5942,17.79
5954,16.89
5966,15.55
5978,14.02
5990,12.54
6002,11.32
6014,10.49
6026,9.99
6038,9.68
6050,9.34
6061,8.77
6072,7.89
6084,6.72
6096,5.4
6108,4.07
6120,2.77
6132,1.42
6144,-0.17
6156,-2.16
6168,-4.63
6180,-7.52
6192,-10.63
6204,-13.67
6216,-16.42
6228,-18.74
6240,-20.65
6251,-22.32
6262,-24.03
6274,-26.07
6286,-28.65
6298,-31.83
6310,-35.38
6322,-38.73
6334,-41.08
6346,-41.54
6358,-39.47
6370,-34.7
6382,-27.68
6394,-19.33
6406,-10.79
6418,-3.08
6430,3.14
6441,7.63
6452,10.47
6464,11.95
6476,12.37
6488,12.03
6500,11.17
6512,10.05
6524,8.87
6536,7.83
6548,7.07
6560,6.63
6572,6.51
6584,6.6
6596,6.8
6608,7.02
6620,7.25
6631,7.57
6642,8.07
6654,8.73
6666,9.39
6678,9.71
6690,9.33
6702,8.07
6714,6.08
6726,3.8
6738,1.77
6750,0.34
6762,-0.48
6774,-1.07
6786,-1.9
6798,-3.32
6810,-5.26
6821,-7.39
6832,-9.23
6844,-10.52
6856,-11.27
6868,-11.79
6880,-12.51
6892,-13.76
6904,-15.74
6916,-18.44
6928,-21.71
6940,-25.14
6952,-28.09
6964,-29.71
6976,-29.22
6988,-26.26
7000,-21.15
7011,-14.91
7022,-8.96
7034,-4.57
7046,-2.39
7058,-2.24
7070,-3.2
7082,-4.07
7094,-3.78
7106,-1.72
7118,2.12
7130,7.34
7142,13.25
7154,19.16
7166,24.44
7178,28.55
7190,31.13
7201,31.95
7212,30.97
7224,28.41
7236,24.68
7248,20.39
7260,16.19
7272,12.67
7284,10.2
7296,8.89
7308,8.58
7320,8.96
7332,9.67
7344,10.45
7356,11.21
7368,12.0
7380,12.97
7391,14.2
7402,15.69
7414,17.29
7426,18.71
7438,19.73
7450,20.19
7462,20.07
7474,19.49
7486,18.6
7498,17.47
7510,16.1
7522,14.35
7534,12.07
7546,9.19
7558,5.78
7570,2.11
7581,-1.48
7592,-4.64
7604,-7.21
7616,-9.26
7628,-11.05
7640,-12.97
7652,-15.32
7664,-18.21
7676,-21.5
7688,-24.91
7700,-28.13
7712,-30.92
7724,-33.24
7736,-35.19
7748,-36.94
7760,-38.73
7771,-40.79
7782,-43.3
7794,-46.28
7806,-49.42
7818,-52.08
7830,-53.4
7842,-52.51
7854,-48.95
7866,-42.79
7878,-34.65
7890,-25.47
7902,-16.23
7914,-7.68
7926,-0.31
7938,5.67
7950,10.19
7961,13.29
7972,15.09
7984,15.79
7996,15.66
8008,14.99
8020,14.1
8032,13.29
8044,12.81
8056,12.85
8068,13.4
8080,14.27
8092,15.14
8104,15.72
8116,15.89
8128,15.81
8140,15.77
8151,16.04
8162,16.68
8174,17.5
8186,18.16
8198,18.39
8210,18.04
8222,17.21
8234,16.07
8246,14.81
8258,13.53
8270,12.26
8282,10.99
8294,9.75
8306,8.52
8318,7.29
8330,6.01
8341,4.61
8352,3.11
8364,1.6
8376,0.18
8388,-1.07
8400,-2.16
8412,-3.26
8424,-4.51
8436,-6.01
8448,-7.75
8460,-9.57
8472,-11.29
8484,-12.82
8496,-14.14
8508,-15.38
8520,-16.68
8531,-18.21
8542,-20.12
8554,-22.56
8566,-25.57
8578,-28.99
8590,-32.39
8602,-35.02
8614,-36.03
8626,-34.75
8638,-30.92
8650,-24.89
8662,-17.4
8674,-9.39
8686,-1.7
8698,5.14
8710,10.83
8721,15.25
8732,18.32
8744,20.0
8756,20.35
8768,19.62
8780,18.21
8792,16.62
8804,15.3
8816,14.48
8828,14.23
8840,14.39
8852,14.81
8864,15.4
8876,16.17
8888,17.21
8900,18.54
8911,20.08
8922,21.64
8934,22.97
8946,23.89
8958,24.31
8970,24.26
8982,23.84
8994,23.08
9006,22.01
9018,20.58
9030,18.81
9042,16.73
9054,14.46
9066,12.12
9078,9.85
9090,7.71
9101,5.72
9112,3.83
9124,1.97
9136,0.07
9148,-1.9
9160,-3.94
9172,-6.02
9184,-8.16
9196,-10.32
9208,-12.52
9220,-14.73
9232,-16.91
9244,-19.07
9256,-21.26
9268,-23.64
9280,-26.37
9291,-29.57
9302,-33.18
9314,-36.87
9326,-40.02
9338,-41.89
9350,-41.77
9362,-39.21
9374,-34.19
9386,-27.16
9398,-18.92
9410,-10.4
9422,-2.5
9434,4.2
9446,9.37
9458,13.02
9470,15.31
9481,16.46
9492,16.72
9504,16.3
9516,15.42
9528,14.3
9540,13.14
9552,12.16
9564,11.47
9576,11.17
9588,11.28
9600,11.79
9612,12.65
9624,13.8
9636,15.1
9648,16.36
9660,17.38
9671,17.97
9682,18.01
9694,17.5
9706,16.59
9718,15.5
9730,14.43
9742,13.48
9754,12.6
9766,11.63
9778,10.4
9790,8.76
9802,6.74
9814,4.51
9826,2.27
9838,0.21
9850,-1.6
9861,-3.24
9872,-4.88
9884,-6.68
9896,-8.7
9908,-10.85
9920,-12.99
9932,-14.95
9944,-16.67
9956,-18.26
9968,-19.91
9980,-21.85
9992,-24.24
10004,-27.16
10016,-30.57
10028,-34.38
10040,-38.34
10051,-42.01
10062,-44.77
10074,-45.9
10086,-44.81
10098,-41.26
10110,-35.44
10122,-27.98
10134,-19.69
10146,-11.38
10158,-3.66
10170,3.07
10182,8.6
10194,12.8
10206,15.55
10218,16.82
10230,16.7
10241,15.47
10252,13.61
10264,11.67
10276,10.18
10288,9.53
10300,9.91
10312,11.24
10324,13.35
10336,15.99
10348,19.01
10360,22.3
10372,25.76
10384,29.21
10396,32.38
10408,34.9
10420,36.42
10431,36.76
10442,35.96
10454,34.27
10466,32.07
10478,29.75
10490,27.53
10502,25.46
10514,23.42
10526,21.26
10538,18.83
10550,16.14
10562,13.27
10574,10.42
10586,7.77
10598,5.43
10610,3.44
10621,1.69
10632,0.02
10644,-1.81
10656,-3.95
10668,-6.44
10680,-9.18
10692,-11.95
10704,-14.56
10716,-16.87
10728,-18.9
10740,-20.77
10752,-22.68
10764,-24.85
10776,-27.48
10788,-30.72
10800,-34.48
10811,-38.38
10822,-41.72
10834,-43.55
10846,-43.04
10858,-39.71
10870,-33.69
10882,-25.64
10894,-16.56
10906,-7.45
10918,0.93
10930,8.1
10942,13.89
10954,18.28
10966,21.33
10978,23.17
10990,23.99
11001,24.07
11012,23.69
11024,23.16
11036,22.7
11048,22.49
11060,22.57
11072,22.93
11084,23.49
11096,24.12
11108,24.73
11120,25.23
11132,25.57
11144,25.71
11156,25.58
11168,25.11
11180,24.23
11191,22.91
11202,21.22
11214,19.3
11226,17.32
11238,15.47
11250,13.78
11262,12.21
11274,10.59
11286,8.76
11298,6.64
11310,4.26
11322,1.77
11334,-0.65
11346,-2.84
11358,-4.7
11370,-6.26
11381,-7.54
11392,-8.65
11404,-9.66
11416,-10.69
11428,-11.85
11440,-13.26
11452,-14.95
11464,-16.88
11476,-18.89
11488,-20.77
11500,-22.41
11512,-23.77
11524,-25.01
11536,-26.42
11548,-28.34
11560,-30.99
11571,-34.37
11582,-38.12
11594,-41.53
11606,-43.7
11618,-43.81
11630,-41.32
11642,-36.21
11654,-28.93
11666,-20.32
11678,-11.3
11690,-2.74
11702,4.68
11714,10.55
11726,14.68
11738,17.06
11750,17.88
11761,17.47
11772,16.27
11784,14.69
11796,13.1
11808,11.73
11820,10.74
11832,10.21
11844,10.19
11856,10.66
11868,11.54
11880,12.62
11892,13.73
11904,14.68
11916,15.41
11928,15.96
11940,16.37
11951,16.66
11962,16.8
11974,16.67
11986,16.2
11998,15.33
12010,14.06
12022,12.42
12034,10.45
12046,8.25
12058,5.96
12070,3.73
12082,1.7
12094,-0.07
12106,-1.6
12118,-2.98
12130,-4.36
12141,-5.83
12152,-7.42
12164,-9.11
12176,-10.82
12188,-12.46
12200,-13.97
12212,-15.32
12224,-16.56
12236,-17.83
12248,-19.31
12260,-21.18
12272,-23.6
12284,-26.59
12296,-30.03
12308,-33.52
12320,-36.41
12331,-37.88
12342,-37.16
12354,-33.77
12366,-27.76
12378,-19.76
12390,-10.78
12402,-1.89
12414,6.05
12426,12.57
12438,17.55
12450,21.07
12462,23.26
12474,24.22
12486,24.08
12498,23.05
12510,21.42
12521,19.58
12532,17.87
12544,16.56
12556,15.78
12568,15.52
12580,15.69
12592,16.17
12604,16.81
12616,17.52
12628,18.24
12640,18.94
12652,19.55
12664,20.01
12676,20.25
12688,20.19
12700,19.85
12711,19.25
12722,18.45
12734,17.47
12746,16.28
12758,14.8
12770,12.96
12782,10.79
12794,8.4
12806,5.98
12818,3.77
12830,1.89
12842,0.35
12854,-1.02
12866,-2.47
12878,-4.26
12890,-6.52
12901,-9.2
12912,-12.11
12924,-14.95
12936,-17.48
12948,-19.59
12960,-21.3
12972,-22.85
12984,-24.56
12996,-26.84
13008,-29.93
13020,-33.84
13032,-38.14
13044,-42.01
13056,-44.41
13068,-44.39
13080,-41.42
13091,-35.56
13102,-27.46
13114,-18.16
13126,-8.78
13138,-0.24
13150,6.88
13162,12.39
13174,16.4
13186,19.13
13198,20.8
13210,21.55
13222,21.49
13234,20.76
13246,19.64
13258,18.5
13270,17.71
13281,17.45
13292,17.69
13304,18.16
13316,18.62
13328,18.95
13340,19.24
13352,19.63
13364,20.24
13376,20.97
13388,21.53
13400,21.64
13412,21.15
13424,20.13
13436,18.83
13448,17.54
13460,16.39
13471,15.3
13482,14.07
13494,12.47
13506,10.4
13518,7.94
13530,5.3
13542,2.77
13554,0.53
13566,-1.33
13578,-2.83
13590,-4.1
13602,-5.36
13614,-6.82
13626,-8.67
13638,-10.94
13650,-13.56
13661,-16.29
13672,-18.86
13684,-21.08
13696,-22.94
13708,-24.6
13720,-26.33
13732,-28.4
13744,-31.0
13756,-34.18
13768,-37.72
13780,-41.22
13792,-43.99
13804,-45.25
13816,-44.28
13828,-40.71
13840,-34.64
13851,-26.69
13862,-17.75
13874,-8.77
13886,-0.49
13898,6.62
13910,12.35
13922,16.58
13934,19.34
13946,20.74
13958,21.02
13970,20.57
13982,19.8
13994,19.07
14006,18.58
14018,18.35
14030,18.32
14041,18.45
14052,18.75
14064,19.34
14076,20.33
14088,21.73
14100,23.43
14112,25.17
14124,26.61
14136,27.38
14148,27.18
14160,25.83
14172,23.32
14184,19.95
14196,16.29
14208,13.09
14220,11.07
14231,10.68
14242,11.88
14254,14.18
14266,16.8
14278,18.99
14290,20.3
14302,20.69
14314,20.4
14326,19.73
14338,18.87
14350,17.78
14362,16.25
14374,14.11
14386,11.36
14398,8.22
14410,5.04
14421,2.03
14432,-0.86
14444,-4.03
14456,-8.04
14468,-13.29
14480,-19.7
14492,-26.56
14504,-32.68
14516,-36.83
14528,-38.15
14540,-36.48
14552,-32.37
14564,-26.79
14576,-20.76
14588,-15.02
14600,-9.89
14611,-5.43
14622,-1.61
14634,1.51
14646,3.71
14658,4.76
14670,4.59
14682,3.43
14694,1.75
14706,0.1
14718,-1.07
14730,-1.54
14742,-1.34
14754,-0.69
14766,0.19
14778,1.11
14790,1.98
14801,2.79
14812,3.57
14824,4.4
14836,5.37
14848,6.53
14860,7.83
14872,9.1
14884,10.06
14896,10.39
14908,9.87
14920,8.55
14932,6.68
14944,4.71
14956,3.04
14968,1.91
14980,1.27
14991,0.84
15002,0.25
15014,-0.81
15026,-2.43
15038,-4.43
15050,-6.47
15062,-8.15
15074,-9.2
15086,-9.53
15098,-9.28
15110,-8.76
15122,-8.36
15134,-8.51
15146,-9.53
15158,-11.53
15170,-14.26
15181,-17.12
15192,-19.26
15204,-19.83
15216,-18.29
15228,-14.66
15240,-9.48
15252,-3.6
15264,2.13
15276,7.17
15288,11.31
15300,14.59
15312,17.14
15324,18.99
15336,20.14
15348,20.63
15360,20.62
15371,20.43
15382,20.42
15394,20.82
15406,21.62
15418,22.51
15430,23.02
15442,22.75
15454,21.49
15466,19.38
15478,16.78
15490,14.14
15502,11.79
15514,9.81
15526,8.08
15538,6.37
15550,4.53
15561,2.5
15572,0.37
15584,-1.77
15596,-3.79
15608,-5.67
15620,-7.38
15632,-8.93
15644,-10.29
15656,-11.46
15668,-12.52
15680,-13.59
15692,-14.85
15704,-16.44
15716,-18.41
15728,-20.7
15740,-23.16
15751,-25.62
15762,-27.99
15774,-30.28
15786,-32.65
15798,-35.33
15810,-38.62
15822,-42.74
15834,-47.66
15846,-52.95
15858,-57.75
15870,-60.92
15882,-61.39
15894,-58.51
15906,-52.35
15918,-43.7
15930,-33.84
15941,-24.09
15952,-15.47
15964,-8.47
15976,-3.13
15988,0.82
16000,3.72
16012,5.82
16024,7.27
16036,8.19
16048,8.67
16060,8.86
16072,8.93
16084,9.08
16096,9.44
16108,10.07
16120,10.95
16131,12.0
16142,13.13
16154,14.29
16166,15.47
16178,16.65
16190,17.8
16202,18.83
16214,19.6
16226,20.02
16238,20.03
16250,19.64
16262,18.9
16274,17.85
16286,16.51
16298,14.89
16310,13.1
16321,11.29
16332,9.6
16344,8.11
16356,6.77
16368,5.38
16380,3.76
16392,1.82
16404,-0.33
16416,-2.46
16428,-4.3
16440,-5.73
16452,-6.78
16464,-7.61
16476,-8.44
16488,-9.49
16500,-10.92
16511,-12.88
16522,-15.43
16534,-18.43
16546,-21.44
16558,-23.7
16570,-24.35
16582,-22.66
16594,-18.39
16606,-11.88
16618,-3.94
16630,4.44
16642,12.38
16654,19.33
16666,25.05
16678,29.51
16690,32.76
16701,34.84
16712,35.83
16724,35.87
16736,35.2
16748,34.15
16760,32.99
16772,31.88
16784,30.93
16796,30.17
16808,29.69
16820,29.58
16832,29.84
16844,30.28
16856,30.43
16868,29.65
16880,27.34
16891,23.21
16902,17.27
16914,9.92
16926,1.67
16938,-6.95
16950,-15.52
16962,-23.69
16974,-31.15
16986,-37.58
16998,-42.78
17010,-46.76
17022,-49.79
17034,-52.35
17046,-54.97
17058,-58.03
17070,-61.63
17081,-65.59
17092,-69.44
17104,-72.53
17116,-74.17
17128,-73.72
17140,-70.73
17152,-65.07
17164,-56.92
17176,-46.67
17188,-34.87
17200,-22.06
17212,-8.72
17224,4.69
17236,17.73
17248,29.93
17260,40.74
17271,49.61
17282,56.12
17294,60.07
17306,61.6
17318,61.19
17330,59.6
17342,57.66
17354,56.03
17366,55.04
17378,54.64
17390,54.54
17402,54.37
17414,53.89
17426,53.02
17438,51.81
17450,50.39
17461,48.78
17472,46.92
17484,44.73
17496,42.12
17508,39.1
17520,35.77
17532,32.28
17544,28.78
17556,25.36
17568,21.97
17580,18.47
17592,14.57
17604,10.01
17616,4.62
17628,-1.5
17640,-7.96
17651,-14.21
17662,-19.74
17674,-24.2
17686,-27.6
17698,-30.17
17710,-32.18
17722,-33.81
17734,-35.18
17746,-36.4
17758,-37.7
17770,-39.35
17782,-41.48
17794,-43.81
17806,-45.58
17818,-45.82
17830,-43.68
17841,-38.89
17852,-31.83
17864,-23.47
17876,-14.9
17888,-7.05
17900,-0.46
17912,4.65
17924,8.32
17936,10.68
17948,11.87
17960,12.08
17972,11.52
17984,10.48
17996,9.25
18008,8.11
18020,7.27
18031,6.82
18042,6.73
18054,6.89
18066,7.19
18078,7.54
18090,7.94
18102,8.44
18114,9.03
18126,9.64
18138,10.14
18150,10.34
18162,10.09
18174,9.35
18186,8.16
18198,6.62
18210,4.91
18221,3.12
18232,1.38
18244,-0.26
18256,-1.73
18268,-2.97
18280,-3.92
18292,-4.62
18304,-5.18
18316,-5.82
18328,-6.83
18340,-8.45
18352,-10.82
18364,-13.96
18376,-17.71
18388,-21.79
18400,-25.75
18411,-29.0
18422,-30.87
18434,-30.76
18446,-28.35
18458,-23.76
18470,-17.51
18482,-10.4
18494,-3.24
18506,3.33
18518,8.96
18530,13.5
18542,16.96
18554,19.37
18566,20.8
18578,21.33
18590,21.12
18601,20.42
18612,19.47
18624,18.55
18636,17.81
18648,17.32
18660,17.02
18672,16.79
18684,16.49
18696,16.05
18708,15.47
18720,14.84
18732,14.23
18744,13.67
18756,13.08
18768,12.34
18780,11.32
18791,9.98
18802,8.37
18814,6.63
18826,4.92
18838,3.34
18850,1.97
18862,0.79
18874,-0.22
18886,-1.14
18898,-1.99
18910,-2.8
18922,-3.6
18934,-4.42
18946,-5.32
18958,-6.35
18970,-7.63
18981,-9.34
18992,-11.73
19004,-14.99
19016,-19.11
19028,-23.71
19040,-28.0
19052,-30.97
19064,-31.72
19076,-29.82
19088,-25.43
19100,-19.28
19112,-12.29
19124,-5.3
19136,1.19
19148,6.98
19160,11.97
19171,16.03
19182,18.9
19194,20.34
19206,20.32
19218,19.08
19230,17.12
19242,15.05
19254,13.35
19266,12.32
19278,12.0
19290,12.24
19302,12.83
19314,13.53
19326,14.19
19338,14.73
19350,15.13
19361,15.4
19372,15.56
19384,15.57
19396,15.36
19408,14.85
19420,13.95
19432,12.64
19444,10.94
19456,8.96
19468,6.84
19480,4.72
19492,2.66
19504,0.67
19516,-1.26
19528,-3.16
19540,-5.0
19551,-6.69
19562,-8.14
19574,-9.33
19586,-10.35
19598,-11.44
19610,-12.85
19622,-14.81
19634,-17.43
19646,-20.68
19658,-24.34
19670,-28.06
19682,-31.33
19694,-33.56
19706,-34.19
19718,-32.79
19730,-29.28
19741,-23.91
19752,-17.25
19764,-10.06
19776,-3.08
19788,3.13
19800,8.23
19812,12.09
19824,14.76
19836,16.32
19848,16.88
19860,16.55
19872,15.5
19884,13.97
19896,12.3
19908,10.87
19920,10.02
19931,9.91
19942,10.52
19954,11.64
19966,12.99
19978,14.32
19990,15.45
20002,16.34
20014,17.02
20026,17.57
20038,18.05
20050,18.46
20062,18.74
20074,18.81
20086,18.59
20098,18.06
20110,17.26
20121,16.31
20132,15.3
20144,14.28
20156,13.24
20168,12.07
20180,10.65
20192,8.89
20204,6.78
20216,4.38
20228,1.76
20240,-0.97
20252,-3.76
20264,-6.53
20276,-9.22
20288,-11.73
20300,-14.01
20311,-16.09
20322,-18.1
20334,-20.28
20346,-22.87
20358,-25.92
20370,-29.22
20382,-32.17
20394,-33.97
20406,-33.84
20418,-31.34
20430,-26.54
20442,-20.03
20454,-12.72
20466,-5.52
20478,0.91
20490,6.23
20501,10.45
20512,13.68
20524,16.0
20536,17.4
20548,17.79
20560,17.22
20572,15.89
20584,14.23
20596,12.74
20608,11.78
20620,11.53
20632,11.83
20644,12.41
20656,12.97
20668,13.37
20680,13.61
20691,13.77
20702,13.89
20714,13.95
20726,13.81
20738,13.37
20750,12.58
20762,11.5
20774,10.25
20786,8.99
20798,7.74
20810,6.48
20822,5.07
20834,3.37
20846,1.27
20858,-1.22
20870,-3.9
20881,-6.51
20892,-8.73
20904,-10.43
20916,-11.62
20928,-12.59
20940,-13.61
20952,-14.9
20964,-16.44
20976,-18.02
20988,-19.39
