seconds,BVP
5,-44.84
17,-40.14
28,-31.5
39,-19.74
51,-6.22
63,7.42
75,19.8
87,29.99
99,37.63
111,42.79
123,45.75
135,46.91
147,46.62
159,45.22
171,42.97
183,40.23
195,37.3
207,34.5
218,32.1
229,30.25
241,29.02
253,28.38
265,28.28
277,28.67
289,29.53
301,30.76
313,32.2
325,33.52
337,34.36
349,34.39
361,33.42
373,31.45
385,28.76
397,25.67
408,22.58
419,19.73
431,17.2
443,14.88
455,12.57
467,10.07
479,7.26
491,4.23
503,1.14
515,-1.76
527,-4.32
539,-6.47
551,-8.36
563,-10.22
575,-12.33
587,-14.88
598,-17.98
609,-21.59
621,-25.63
633,-29.91
645,-34.21
657,-38.36
669,-42.27
681,-46.01
693,-49.86
705,-54.19
717,-59.37
729,-65.54
741,-72.31
753,-78.68
765,-83.14
777,-84.04
788,-80.12
799,-71.02
811,-57.44
823,-40.99
835,-23.73
847,-7.54
859,6.31
871,17.32
883,25.58
895,31.53
907,35.63
919,38.23
931,39.66
943,40.2
955,40.15
967,39.8
978,39.39
989,39.06
1001,38.91
1013,39.01
1025,39.47
1037,40.42
1049,41.95
1061,44.07
1073,46.66
1085,49.44
1097,52.1
1109,54.28
1121,55.7
1133,56.23
1145,55.85
1157,54.67
1168,52.85
1179,50.58
1191,48.02
1203,45.29
1215,42.43
1227,39.46
1239,36.33
1251,33.06
1263,29.71
1275,26.36
1287,23.09
1299,19.92
1311,16.76
1323,13.39
1335,9.63
1347,5.37
1358,0.71
1369,-4.08
1381,-8.7
1393,-12.96
1405,-16.91
1417,-20.78
1429,-24.84
1441,-29.21
1453,-33.81
1465,-38.39
1477,-42.69
1489,-46.57
1501,-50.14
1513,-53.63
1525,-57.35
1537,-61.59
1548,-66.56
1559,-72.36
1571,-78.9
1583,-85.74
1595,-91.97
1607,-96.22
1619,-96.99
1631,-93.06
1643,-84.02
1655,-70.43
1667,-53.78
1679,-36.07
1691,-19.26
1703,-4.81
1715,6.5
1727,14.57
1738,19.72
1749,22.49
1761,23.45
1773,23.13
1785,21.96
1797,20.39
1809,18.76
1821,17.37
1833,16.43
1845,16.05
1857,16.32
1869,17.25
1881,18.85
1893,21.1
1905,23.93
1917,27.12
1928,30.33
1939,33.13
1951,35.08
1963,35.83
1975,35.24
1987,33.4
1999,30.59
2011,27.21
2023,23.69
2035,20.34
2047,17.3
2059,14.53
2071,11.86
2083,9.09
2095,6.14
2107,3.09
2118,0.19
2129,-2.29
2141,-4.2
2153,-5.59
2165,-6.72
2177,-7.96
2189,-9.59
2201,-11.75
2213,-14.4
2225,-17.35
2237,-20.4
2249,-23.44
2261,-26.51
2273,-29.79
2285,-33.63
2297,-38.37
2308,-44.2
2319,-50.88
2331,-57.63
2343,-63.16
2355,-65.9
2367,-64.5
2379,-58.22
2391,-47.27
2403,-32.76
2415,-16.44
2427,-0.25
2439,14.21
2451,25.88
2463,34.45
2475,40.14
2487,43.48
2498,45.06
2509,45.32
2521,44.56
2533,42.95
2545,40.68
2557,37.99
2569,35.2
2581,32.64
2593,30.61
2605,29.29
2617,28.81
2629,29.17
2641,30.27
2653,31.94
2665,33.87
2677,35.72
2688,37.11
2699,37.72
2711,37.31
2723,35.76
2735,33.06
2747,29.39
2759,25.05
2771,20.46
2783,16.04
2795,12.11
2807,8.8
2819,6.05
2831,3.65
2843,1.4
2855,-0.87
2867,-3.2
2878,-5.54
2889,-7.81
2901,-9.9
2913,-11.74
2925,-13.36
2937,-14.87
2949,-16.51
2961,-18.55
2973,-21.15
2985,-24.28
2997,-27.73
3009,-31.19
3021,-34.38
3033,-37.27
3045,-40.04
3057,-43.08
3068,-46.89
3079,-51.88
3091,-58.1
3103,-65.07
3115,-71.69
3127,-76.37
3139,-77.39
3151,-73.47
3163,-64.22
3175,-50.36
3187,-33.51
3199,-15.68
3211,1.25
3223,15.98
3235,27.88
3247,36.87
3258,43.13
3269,47.01
3281,48.86
3293,49.08
3305,48.13
3317,46.48
3329,44.52
3341,42.51
3353,40.56
3365,38.62
3377,36.68
3389,34.81
3401,33.2
3413,32.12
3425,31.81
3437,32.27
3448,33.29
3459,34.44
3471,35.22
3483,35.29
3495,34.49
3507,32.94
3519,30.92
3531,28.72
3543,26.54
3555,24.47
3567,22.49
3579,20.53
3591,18.51
3603,16.36
3615,14.06
3627,11.65
3638,9.16
3649,6.67
3661,4.2
3673,1.67
3685,-1.03
3697,-4.0
3709,-7.27
3721,-10.74
3733,-14.25
3745,-17.72
3757,-21.2
3769,-24.85
3781,-28.86
3793,-33.23
3805,-37.75
3817,-42.08
3828,-45.89
3839,-49.11
3851,-51.95
3863,-54.87
3875,-58.35
3887,-62.8
3899,-68.35
3911,-74.78
3923,-81.44
3935,-87.23
3947,-90.73
3959,-90.44
3971,-85.29
3983,-74.96
3995,-60.18
4007,-42.62
4018,-24.44
4029,-7.7
4041,6.1
4053,16.29
4065,22.95
4077,26.66
4089,28.17
4101,28.21
4113,27.32
4125,25.85
4137,24.04
4149,22.0
4161,19.91
4173,17.95
4185,16.38
4197,15.43
4208,15.27
4219,15.91
4231,17.21
4243,18.92
4255,20.74
4267,22.38
4279,23.63
4291,24.29
4303,24.25
4315,23.5
4327,22.07
4339,20.09
4351,17.72
4363,15.14
4375,12.51
4387,9.89
4398,7.33
4409,4.88
4421,2.59
4433,0.53
4445,-1.18
4457,-2.46
4469,-3.33
4481,-3.95
4493,-4.6
4505,-5.55
4517,-7.0
4529,-8.97
4541,-11.24
4553,-13.52
4565,-15.56
4577,-17.37
4588,-19.25
4599,-21.72
4611,-25.25
4623,-29.91
4635,-35.2
4647,-39.95
4659,-42.63
4671,-41.78
4683,-36.51
4695,-26.86
4707,-13.77
4719,1.14
4731,16.08
4743,29.56
4755,40.71
4767,49.18
4778,55.03
4789,58.4
4801,59.45
4813,58.38
4825,55.46
4837,51.15
4849,46.06
4861,40.81
4873,35.88
4885,31.57
4897,27.99
4909,25.18
4921,23.18
4933,22.08
4945,21.9
4957,22.59
4968,23.96
4979,25.73
4991,27.59
5003,29.26
5015,30.47
5027,30.98
5039,30.54
5051,28.92
5063,26.03
5075,21.96
5087,16.99
5099,11.54
5111,6.01
5123,0.7
5135,-4.25
5147,-8.82
5158,-13.04
5169,-16.95
5181,-20.59
5193,-23.94
5205,-27.05
5217,-29.94
5229,-32.61
5241,-35.11
5253,-37.46
5265,-39.82
5277,-42.42
5289,-45.64
5301,-49.83
5313,-55.21
5325,-61.56
5337,-68.12
5348,-73.62
5359,-76.5
5371,-75.36
5383,-69.42
5395,-58.89
5407,-44.93
5419,-29.41
5431,-14.27
5443,-1.06
5455,9.42
5467,17.05
5479,22.2
5491,25.4
5503,27.09
5515,27.59
5527,27.07
5538,25.73
5549,23.79
5561,21.53
5573,19.25
5585,17.29
5597,15.99
5609,15.66
5621,16.5
5633,18.49
5645,21.38
5657,24.75
5669,28.07
5681,30.87
5693,32.82
5705,33.8
5717,33.84
5728,33.08
5739,31.72
5751,29.93
5763,27.87
5775,25.61
5787,23.14
5799,20.41
5811,17.3
5823,13.81
5835,10.01
5847,6.15
5859,2.42
5871,-1.02
5883,-4.21
5895,-7.32
5907,-10.55
5918,-14.06
5929,-17.79
5941,-21.62
5953,-25.31
5965,-28.75
5977,-31.97
5989,-35.16
6001,-38.67
6013,-42.91
6025,-48.21
6037,-54.64
6049,-61.82
6061,-68.77
6073,-74.01
6085,-75.87
6097,-73.01
6108,-64.83
6119,-51.79
6131,-35.24
6143,-17.09
6155,0.66
6167,16.4
6179,29.11
6191,38.44
6203,44.54
6215,47.95
6227,49.33
6239,49.33
6251,48.46
6263,47.07
6275,45.35
6287,43.42
6298,41.45
6309,39.63
6321,38.16
6333,37.17
6345,36.73
6357,36.77
6369,37.23
6381,38.09
6393,39.29
6405,40.74
6417,42.19
6429,43.24
6441,43.47
6453,42.55
6465,40.39
6477,37.22
6488,33.47
6499,29.62
6511,26.03
6523,22.87
6535,20.12
6547,17.58
6559,15.07
6571,12.4
6583,9.45
6595,6.21
6607,2.81
6619,-0.55
6631,-3.62
6643,-6.21
6655,-8.27
6667,-9.98
6678,-11.68
6689,-13.74
6701,-16.39
6713,-19.62
6725,-23.13
6737,-26.54
6749,-29.56
6761,-32.09
6773,-34.29
6785,-36.47
6797,-39.07
6809,-42.51
6821,-47.05
6833,-52.67
6845,-58.82
6857,-64.4
6868,-67.85
6879,-67.56
6891,-62.46
6903,-52.42
6915,-38.38
6927,-22.08
6939,-5.5
6951,9.63
6963,22.2
6975,31.75
6987,38.24
6999,41.96
7011,43.27
7023,42.6
7035,40.44
7047,37.33
7058,33.79
7069,30.28
7081,27.19
7093,24.77
7105,23.14
7117,22.37
7129,22.48
7141,23.45
7153,25.22
7165,27.68
7177,30.56
7189,33.42
7201,35.74
7213,37.0
7225,36.91
7237,35.42
7248,32.8
7259,29.47
7271,25.83
7283,22.17
7295,18.6
7307,15.09
7319,11.55
7331,7.94
7343,4.25
7355,0.59
7367,-2.93
7379,-6.18
7391,-9.11
7403,-11.79
7415,-14.4
7427,-17.21
7438,-20.43
7449,-24.17
7461,-28.31
7473,-32.55
7485,-36.55
7497,-40.07
7509,-43.1
7521,-45.89
7533,-48.87
7545,-52.5
7557,-57.07
7569,-62.53
7581,-68.25
7593,-73.12
7605,-75.68
7617,-74.51
7628,-68.68
7639,-58.11
7651,-43.63
7663,-26.86
7675,-9.76
7687,5.9
7699,18.84
7711,28.48
7723,34.9
7735,38.57
7747,40.11
7759,40.12
7771,39.03
7783,37.18
7795,34.86
7807,32.38
7818,30.05
7829,28.2
7841,27.05
7853,26.7
7865,27.09
7877,28.1
7889,29.58
7901,31.39
7913,33.37
7925,35.26
7937,36.76
7949,37.57
7961,37.42
7973,36.22
7985,34.05
7997,31.14
8008,27.79
8019,24.29
8031,20.85
8043,17.64
8055,14.69
8067,11.98
8079,9.46
8091,7.0
8103,4.46
8115,1.68
8127,-1.43
8139,-4.88
8151,-8.55
8163,-12.29
8175,-15.98
8187,-19.57
8198,-23.16
8209,-26.91
8221,-30.99
8233,-35.45
8245,-40.22
8257,-45.1
8269,-49.91
8281,-54.46
8293,-58.63
8305,-62.34
8317,-65.62
8329,-68.59
8341,-71.51
8353,-74.71
8365,-78.45
8377,-82.61
8388,-86.51
8399,-88.88
8411,-88.12
8423,-82.94
8435,-72.8
8447,-58.28
8459,-40.94
8471,-22.83
8483,-5.86
8495,8.65
8507,20.12
8519,28.61
8531,34.47
8543,38.14
8555,40.04
8567,40.55
8578,40.11
8589,39.16
8601,38.1
8613,37.14
8625,36.33
8637,35.71
8649,35.3
8661,35.26
8673,35.88
8685,37.37
8697,39.84
8709,43.14
8721,46.86
8733,50.53
8745,53.65
8757,55.83
8768,56.83
8779,56.54
8791,54.99
8803,52.35
8815,48.87
8827,44.87
8839,40.68
8851,36.58
8863,32.7
8875,29.07
8887,25.61
8899,22.18
8911,18.65
8923,14.95
8935,11.08
8947,7.15
8958,3.33
8969,-0.21
8981,-3.32
8993,-5.96
9005,-8.21
9017,-10.22
9029,-12.17
9041,-14.28
9053,-16.72
9065,-19.61
9077,-22.96
9089,-26.65
9101,-30.49
9113,-34.2
9125,-37.61
9137,-40.74
9148,-43.85
9159,-47.36
9171,-51.69
9183,-56.98
9195,-62.82
9207,-68.28
9219,-71.92
9231,-72.28
9243,-68.28
9255,-59.63
9267,-46.98
9279,-31.79
9291,-15.87
9303,-0.92
9315,11.79
9327,21.61
9338,28.39
9349,32.34
9361,33.84
9373,33.38
9385,31.49
9397,28.7
9409,25.5
9421,22.25
9433,19.19
9445,16.48
9457,14.19
9469,12.47
9481,11.41
9493,11.17
9505,11.77
9517,13.16
9528,15.11
9539,17.23
9551,19.11
9563,20.33
9575,20.67
9587,20.09
9599,18.82
9611,17.17
9623,15.41
9635,13.65
9647,11.82
9659,9.71
9671,7.14
9683,4.08
9695,0.63
9707,-2.93
9718,-6.34
9729,-9.38
9741,-11.97
9753,-14.23
9765,-16.31
9777,-18.43
9789,-20.7
9801,-23.18
9813,-25.8
9825,-28.48
9837,-31.17
9849,-33.88
9861,-36.82
9873,-40.24
9885,-44.47
9897,-49.66
9908,-55.62
9919,-61.64
9931,-66.6
9943,-69.1
9955,-67.9
9967,-62.27
9979,-52.31
9991,-38.95
10003,-23.72
10015,-8.38
10027,5.51
10039,16.87
10051,25.25
10063,30.75
10075,33.87
10087,35.21
10098,35.3
10109,34.45
10121,32.81
10133,30.43
10145,27.5
10157,24.34
10169,21.38
10181,19.06
10193,17.69
10205,17.35
10217,17.97
10229,19.38
10241,21.37
10253,23.65
10265,25.92
10277,27.75
10288,28.78
10299,28.79
10311,27.76
10323,25.92
10335,23.56
10347,20.94
10359,18.14
10371,15.18
10383,12.01
10395,8.71
10407,5.48
10419,2.5
10431,-0.15
10443,-2.64
10455,-5.27
10467,-8.3
10478,-11.79
10489,-15.53
10501,-19.18
10513,-22.43
10525,-25.25
10537,-27.82
10549,-30.52
10561,-33.7
10573,-37.63
10585,-42.44
10597,-48.09
10609,-54.33
10621,-60.56
10633,-65.76
10645,-68.58
10657,-67.68
10668,-62.21
10679,-52.13
10691,-38.43
10703,-22.74
10715,-6.95
10727,7.31
10739,18.98
10751,27.7
10763,33.57
10775,37.01
10787,38.53
10799,38.63
10811,37.74
10823,36.19
10835,34.23
10847,32.15
10858,30.24
10869,28.86
10881,28.28
10893,28.68
10905,29.91
10917,31.73
10929,33.73
10941,35.66
10953,37.37
10965,38.84
10977,40.03
10989,40.78
11001,40.77
11013,39.71
11025,37.47
11037,34.22
11048,30.4
11059,26.52
11071,23.06
11083,20.23
11095,18.04
11107,16.29
11119,14.7
11131,13.04
11143,11.19
11155,9.18
11167,7.09
11179,4.98
11191,2.93
11203,0.95
11215,-0.98
11227,-2.93
11238,-5.0
11249,-7.36
11261,-10.17
11273,-13.51
11285,-17.38
11297,-21.54
11309,-25.68
11321,-29.49
11333,-32.88
11345,-36.06
11357,-39.54
11369,-43.96
11381,-49.82
11393,-57.25
11405,-65.71
11417,-74.07
11428,-80.69
11439,-83.86
11451,-82.23
11463,-75.21
11475,-63.23
11487,-47.58
11499,-30.18
11511,-12.99
11523,2.35
11535,14.83
11547,24.14
11559,30.51
11571,34.52
11583,36.88
11595,38.17
11607,38.74
11618,38.76
11629,38.28
11641,37.37
11653,36.2
11665,35.0
11677,34.06
11689,33.53
11701,33.49
11713,33.88
11725,34.6
11737,35.58
11749,36.74
11761,38.01
11773,39.25
11785,40.23
11797,40.66
11808,40.31
11819,39.07
11831,37.02
11843,34.4
11855,31.56
11867,28.8
11879,26.33
11891,24.18
11903,22.28
11915,20.44
11927,18.55
11939,16.51
11951,14.38
11963,12.21
11975,10.09
11987,8.08
11998,6.21
12009,4.46
12021,2.77
12033,1.03
12045,-0.9
12057,-3.12
12069,-5.62
12081,-8.32
12093,-10.99
12105,-13.45
12117,-15.58
12129,-17.4
12141,-19.08
12153,-20.78
12165,-22.62
12177,-24.59
12188,-26.58
12199,-28.45
12211,-30.12
12223,-31.57
12235,-32.88
12247,-34.13
12259,-35.46
12271,-37.02
12283,-39.05
12295,-41.83
12307,-45.51
12319,-49.9
12331,-54.31
12343,-57.54
12355,-58.13
12367,-54.86
12378,-47.16
12389,-35.4
12401,-20.83
12413,-5.23
12425,9.59
12437,22.24
12449,32.0
12461,38.77
12473,42.86
12485,44.78
12497,45.03
12509,44.03
12521,42.15
12533,39.73
12545,37.09
12557,34.49
12568,32.12
12579,30.1
12591,28.49
12603,27.37
12615,26.81
12627,26.9
12639,27.61
12651,28.82
12663,30.27
12675,31.61
12687,32.5
12699,32.73
12711,32.16
12723,30.76
12735,28.63
12747,25.93
12758,22.92
12769,19.87
12781,17.04
12793,14.5
12805,12.16
12817,9.81
12829,7.21
12841,4.28
12853,1.13
12865,-2.02
12877,-4.87
12889,-7.26
12901,-9.17
12913,-10.8
12925,-12.39
12937,-14.25
12948,-16.61
12959,-19.57
12971,-23.1
12983,-27.03
12995,-31.1
13007,-34.98
13019,-38.45
13031,-41.46
13043,-44.22
13055,-47.15
13067,-50.74
13079,-55.31
13091,-60.74
13103,-66.35
13115,-70.92
13127,-73.05
13138,-71.52
13149,-65.71
13161,-55.9
13173,-43.08
13185,-28.77
13197,-14.6
13209,-1.88
13221,8.55
13233,16.43
13245,21.91
13257,25.42
13269,27.41
13281,28.26
13293,28.17
13305,27.29
13317,25.81
13328,24.01
13339,22.28
13351,20.96
13363,20.32
13375,20.4
13387,21.14
13399,22.43
13411,24.17
13423,26.28
13435,28.68
13447,31.14
13459,33.36
13471,35.0
13483,35.81
13495,35.74
13507,34.91
13518,33.55
13529,31.91
13541,30.18
13553,28.4
13565,26.56
13577,24.59
13589,22.41
13601,19.95
13613,17.2
13625,14.2
13637,10.99
13649,7.69
13661,4.32
13673,0.92
13685,-2.45
13697,-5.71
13708,-8.77
13719,-11.57
13731,-14.15
13743,-16.67
13755,-19.31
13767,-22.3
13779,-25.72
13791,-29.51
13803,-33.49
13815,-37.38
13827,-40.95
13839,-44.1
13851,-46.92
13863,-49.7
13875,-52.87
13887,-56.83
13898,-61.72
13909,-67.23
13921,-72.46
13933,-76.12
13945,-76.77
13957,-73.3
13969,-65.29
13981,-53.21
13993,-38.29
14005,-22.23
14017,-6.73
14029,6.85
14041,17.73
14053,25.67
14065,30.9
14077,33.92
14088,35.29
14099,35.52
14111,35.07
14123,34.27
14135,33.38
14147,32.56
14159,31.91
14171,31.42
14183,31.1
14195,30.93
14207,30.96
14219,31.31
14231,32.08
14243,33.31
14255,34.87
14267,36.47
14278,37.76
14289,38.37
14301,38.1
14313,36.9
14325,34.92
14337,32.41
14349,29.6
14361,26.71
14373,23.87
14385,21.14
14397,18.58
14409,16.2
14421,14.03
14433,12.14
14445,10.57
14457,9.33
14468,8.41
14479,7.77
14491,7.39
14503,7.25
14515,7.28
14527,7.37
14539,7.37
14551,7.1
14563,6.45
14575,5.45
14587,4.23
14599,3.01
14611,1.85
14623,0.66
14635,-0.82
14647,-2.84
14658,-5.47
14669,-8.52
14681,-11.63
14693,-14.48
14705,-16.94
14717,-19.19
14729,-21.64
14741,-24.63
14753,-28.34
14765,-32.65
14777,-37.19
14789,-41.56
14801,-45.47
14813,-48.8
14825,-51.66
14837,-54.28
14848,-56.97
14859,-60.07
14871,-63.9
14883,-68.54
14895,-73.71
14907,-78.62
14919,-82.04
14931,-82.55
14943,-78.97
14955,-70.82
14967,-58.53
14979,-43.38
14991,-27.11
15003,-11.49
15015,2.16
15027,13.12
15038,21.24
15049,26.76
15061,30.09
15073,31.64
15085,31.77
15097,30.83
15109,29.14
15121,27.06
15133,24.92
15145,23.08
15157,21.79
15169,21.24
15181,21.53
15193,22.61
15205,24.4
15217,26.71
15228,29.38
15239,32.17
15251,34.84
15263,37.08
15275,38.59
15287,39.09
15299,38.45
15311,36.76
15323,34.26
15335,31.31
15347,28.22
15359,25.17
15371,22.17
15383,19.12
15395,15.9
15407,12.47
15418,8.87
15429,5.2
15441,1.55
15453,-1.95
15465,-5.2
15477,-8.11
15489,-10.61
15501,-12.75
15513,-14.72
15525,-16.8
15537,-19.25
15549,-22.24
15561,-25.71
15573,-29.42
15585,-33.11
15597,-36.61
15608,-39.94
15619,-43.3
15631,-47.04
15643,-51.55
15655,-57.05
15667,-63.49
15679,-70.32
15691,-76.59
15703,-80.92
15715,-81.91
15727,-78.48
15739,-70.18
15751,-57.47
15763,-41.55
15775,-24.2
15787,-7.23
15798,7.84
15809,20.12
15821,29.33
15833,35.72
15845,39.76
15857,41.95
15869,42.69
15881,42.3
15893,41.05
15905,39.21
15917,37.14
15929,35.17
15941,33.6
15953,32.66
15965,32.44
15977,32.97
15988,34.21
15999,36.06
16011,38.38
16023,40.92
16035,43.35
16047,45.29
16059,46.39
16071,46.41
16083,45.38
16095,43.53
16107,41.25
16119,38.87
16131,36.54
16143,34.23
16155,31.83
16167,29.25
16178,26.55
16189,23.83
16201,21.15
16213,18.48
16225,15.67
16237,12.6
16249,9.25
16261,5.76
16273,2.36
16285,-0.75
16297,-3.44
16309,-5.77
16321,-7.96
16333,-10.3
16345,-13.12
16357,-16.64
16368,-20.91
16379,-25.73
16391,-30.72
16403,-35.5
16415,-39.81
16427,-43.61
16439,-47.15
16451,-50.81
16463,-55.01
16475,-60.08
16487,-66.08
16499,-72.76
16511,-79.35
16523,-84.64
16535,-87.12
16547,-85.41
16558,-78.66
16569,-66.95
16581,-51.34
16593,-33.57
16605,-15.61
16617,0.86
16629,14.68
16641,25.41
16653,33.13
16665,38.27
16677,41.4
16689,43.03
16701,43.51
16713,43.08
16725,41.85
16737,39.97
16748,37.71
16759,35.43
16771,33.56
16783,32.4
16795,32.11
16807,32.7
16819,34.03
16831,35.98
16843,38.35
16855,40.96
16867,43.51
16879,45.62
16891,46.91
16903,47.1
16915,46.11
16927,44.1
16938,41.43
16949,38.49
16961,35.6
16973,32.85
16985,30.17
16997,27.42
17009,24.49
17021,21.44
17033,18.42
17045,15.65
17057,13.27
17069,11.3
17081,9.63
17093,8.06
17105,6.4
17117,4.47
17128,2.24
17139,-0.28
17151,-2.99
17163,-5.75
17175,-8.44
17187,-11.02
17199,-13.6
17211,-16.35
17223,-19.46
17235,-23.04
17247,-26.99
17259,-31.05
17271,-34.88
17283,-38.21
17295,-40.99
17307,-43.43
17318,-45.93
17329,-49.0
17341,-53.09
17353,-58.4
17365,-64.71
17377,-71.27
17389,-76.77
17401,-79.62
17413,-78.29
17425,-71.83
17437,-60.28
17449,-44.72
17461,-27.02
17473,-9.29
17485,6.62
17497,19.54
17508,29.08
17519,35.44
17531,39.16
17543,40.84
17555,41.01
17567,40.1
17579,38.46
17591,36.4
17603,34.19
17615,32.06
17627,30.18
17639,28.66
17651,27.52
17663,26.83
17675,26.68
17687,27.16
17698,28.32
17709,30.14
17721,32.38
17733,34.65
17745,36.48
17757,37.44
17769,37.27
17781,35.94
17793,33.68
17805,30.84
17817,27.8
17829,24.82
17841,22.05
17853,19.48
17865,17.03
17877,14.6
17888,12.12
17899,9.55
17911,6.86
17923,4.07
17935,1.24
17947,-1.51
17959,-4.07
17971,-6.37
17983,-8.51
17995,-10.71
18007,-13.27
18019,-16.41
18031,-20.13
18043,-24.19
18055,-28.19
18067,-31.76
18078,-34.77
18089,-37.43
18101,-40.25
18113,-43.82
18125,-48.55
18137,-54.4
18149,-60.69
18161,-66.21
18173,-69.43
18185,-69.03
18197,-64.2
18209,-54.94
18221,-42.09
18233,-27.06
18245,-11.5
18257,3.06
18268,15.47
18279,25.03
18291,31.58
18303,35.31
18315,36.68
18327,36.32
18339,34.8
18351,32.62
18363,30.09
18375,27.45
18387,24.93
18399,22.76
18411,21.18
18423,20.4
18435,20.49
18447,21.41
18458,23.0
18469,25.04
18481,27.24
18493,29.3
18505,30.87
18517,31.6
18529,31.26
18541,29.85
18553,27.57
18565,24.79
18577,21.84
18589,18.95
18601,16.1
18613,13.13
18625,9.92
18637,6.44
18648,2.87
18659,-0.55
18671,-3.63
18683,-6.34
18695,-8.84
18707,-11.39
18719,-14.26
18731,-17.52
18743,-21.11
18755,-24.78
18767,-28.3
18779,-31.53
18791,-34.48
18803,-37.33
18815,-40.38
18827,-43.97
18838,-48.39
18849,-53.72
18861,-59.67
18873,-65.48
18885,-69.92
18897,-71.56
18909,-69.14
18921,-62.05
18933,-50.59
18945,-35.97
18957,-19.95
18969,-4.33
18981,9.47
18993,20.66
19005,29.06
19017,34.88
19028,38.52
19039,40.36
19051,40.75
19063,40.01
19075,38.43
19087,36.3
19099,33.97
19111,31.7
19123,29.76
19135,28.32
19147,27.54
19159,27.5
19171,28.21
19183,29.6
19195,31.47
19207,33.56
19218,35.5
19229,36.95
19241,37.62
19253,37.32
19265,36.01
19277,33.82
19289,31.02
19301,27.95
19313,24.95
19325,22.22
19337,19.81
19349,17.63
19361,15.57
19373,13.5
19385,11.36
19397,9.1
19408,6.67
19419,4.02
19431,1.12
19443,-1.96
19455,-5.05
19467,-7.96
19479,-10.55
19491,-12.87
19503,-15.15
19515,-17.67
19527,-20.66
19539,-24.09
19551,-27.77
19563,-31.35
19575,-34.62
19587,-37.56
19598,-40.43
19609,-43.67
19621,-47.73
19633,-52.86
19645,-58.97
19657,-65.55
19669,-71.64
19681,-75.93
19693,-77.11
19705,-74.08
19717,-66.45
19729,-54.66
19741,-39.91
19753,-23.89
19765,-8.28
19777,5.62
19788,17.08
19799,25.88
19811,32.15
19823,36.17
19835,38.3
19847,38.95
19859,38.55
19871,37.57
19883,36.34
19895,35.11
19907,33.98
19919,32.96
19931,32.08
19943,31.45
19955,31.22
19967,31.53
19978,32.49
19989,34.02
20001,35.89
20013,37.76
20025,39.25
20037,40.08
20049,40.1
20061,39.31
20073,37.85
20085,35.93
20097,33.75
20109,31.4
20121,28.95
20133,26.34
20145,23.61
20157,20.8
20168,18.03
20179,15.44
20191,13.12
20203,11.08
20215,9.23
20227,7.36
20239,5.3
20251,2.94
20263,0.29
20275,-2.47
20287,-5.13
20299,-7.51
20311,-9.53
20323,-11.3
20335,-13.05
20347,-15.09
20358,-17.65
20369,-20.8
20381,-24.32
20393,-27.89
20405,-31.17
20417,-33.94
20429,-36.3
20441,-38.57
20453,-41.29
20465,-45.02
20477,-50.08
20489,-56.36
20501,-63.22
20513,-69.46
20525,-73.55
20537,-74.04
20548,-69.98
20559,-61.26
20571,-48.71
20583,-33.88
20595,-18.58
20607,-4.46
20619,7.37
20631,16.44
20643,22.8
20655,26.79
20667,28.84
20679,29.37
20691,28.73
20703,27.29
20715,25.47
20727,23.67
20738,22.27
20749,21.5
20761,21.42
20773,21.95
20785,22.96
20797,24.3
20809,25.94
20821,27.85
20833,29.94
20845,31.99
20857,33.67
20869,34.59
20881,34.44
20893,33.13
20905,30.78
20917,27.69
20928,24.25
20939,20.8
20951,17.57
20963,14.66
20975,12.07
20987,9.71
20999,7.42
