seconds,BVP
11,-21.11
22,-9.43
33,5.96
45,24.97
57,46.5
69,68.37
81,88.27
93,104.47
105,115.95
117,122.37
129,124.08
141,122.13
153,118.62
165,115.04
177,111.1
189,105.36
201,95.96
212,80.97
223,59.09
235,30.13
247,-8.4
259,-52.58
271,-93.45
283,-121.97
295,-133.46
307,-128.4
319,-110.8
331,-85.8
343,-58.25
355,-32.17
367,-9.55
379,9.71
391,24.69
402,34.68
413,40.12
425,42.1
437,42.16
449,41.83
461,42.01
473,43.67
485,46.88
497,50.98
509,53.27
521,53.63
533,52.68
545,51.16
557,49.27
569,46.57
581,43.68
592,41.96
603,40.35
615,40.12
627,42.9
639,48.16
651,53.45
663,56.27
675,55.04
687,50.58
699,44.01
711,35.05
723,22.45
735,4.84
747,-18.23
759,-44.63
771,-70.02
782,-91.6
793,-107.35
805,-117.46
817,-124.31
829,-130.56
841,-137.52
853,-144.65
865,-149.41
877,-144.58
889,-128.61
901,-103.16
913,-72.87
925,-43.89
937,-22.68
949,-10.33
961,-5.64
972,-5.83
983,-7.94
995,-10.61
1007,-13.02
1019,-15.06
1031,-16.85
1043,-17.94
1055,-17.39
1067,-13.74
1079,-5.43
1091,7.01
1103,20.54
1115,32.09
1127,39.56
1139,42.68
1151,43.36
1162,44.8
1173,51.2
1185,65.76
1197,89.29
1209,119.2
1221,151.69
1233,182.68
1245,208.66
1257,227.05
1269,228.92
1281,208.57
1293,167.63
1305,115.09
1317,61.72
1329,16.08
1341,-17.95
1352,-41.75
1363,-56.9
1375,-65.31
1387,-68.35
1399,-68.01
1411,-64.73
1423,-61.37
1435,-60.77
1447,-64.56
1459,-72.69
1471,-83.44
1483,-94.58
1495,-103.07
1507,-106.46
1519,-103.75
1531,-96.03
1542,-85.28
1553,-73.7
1565,-63.16
1577,-54.83
1589,-49.52
1601,-47.02
1613,-46.63
1625,-47.61
1637,-49.68
1649,-52.45
1661,-55.39
1673,-57.86
1685,-59.25
1697,-59.33
1709,-57.86
1721,-54.74
1732,-50.0
1743,-44.04
1755,-37.23
1767,-29.91
1779,-22.33
1791,-14.67
1803,-7.13
1815,0.26
1827,7.53
1839,14.67
1851,21.49
1863,27.7
1875,32.89
1887,36.62
1899,38.6
1911,38.74
1922,37.28
1933,34.75
1945,31.83
1957,29.1
1969,26.81
1981,24.86
1993,22.93
2005,20.64
2017,17.83
2029,14.61
2041,11.28
2053,8.13
2065,5.3
2077,2.73
2089,0.27
2101,-2.12
2112,-4.23
2123,-5.69
2135,-6.06
2147,-5.06
2159,-2.76
2171,0.47
2183,4.07
2195,7.52
2207,10.53
2219,13.05
2231,15.13
2243,16.77
2255,17.8
2267,17.98
2279,17.16
2291,15.45
2302,13.17
2313,10.82
2325,8.81
2337,7.32
2349,6.27
2361,5.44
2373,4.61
2385,3.66
2397,2.53
2409,1.13
2421,-0.68
2433,-3.01
2445,-5.8
2457,-8.75
2469,-11.36
2481,-13.12
2492,-13.77
2503,-13.35
2515,-12.24
2527,-10.92
2539,-9.82
2551,-9.22
2563,-9.15
2575,-9.54
2587,-10.26
2599,-11.19
2611,-12.17
2623,-13.08
2635,-13.74
2647,-13.99
2659,-13.76
2671,-13.11
2682,-12.26
2693,-11.51
2705,-11.14
2717,-11.22
2729,-11.61
2741,-12.0
2753,-12.03
2765,-11.58
2777,-10.71
2789,-9.64
2801,-8.55
2813,-7.4
2825,-5.92
2837,-3.77
2849,-0.7
2861,3.28
2872,7.83
2883,12.36
2895,16.24
2907,18.81
2919,19.48
2931,17.73
2943,13.1
2955,5.49
2967,-4.72
2979,-16.59
2991,-28.88
3003,-40.51
3015,-51.14
3027,-61.17
3039,-71.3
3051,-81.73
3062,-91.45
3073,-98.21
3085,-99.23
3097,-92.46
3109,-77.52
3121,-56.01
3133,-30.85
3145,-5.19
3157,18.58
3169,39.25
3181,56.57
3193,70.82
3205,82.44
3217,91.94
3229,99.91
3241,106.94
3252,113.27
3263,118.44
3275,121.27
3287,120.25
3299,114.19
3311,102.91
3323,87.48
3335,69.88
3347,52.38
3359,36.82
3371,24.25
3383,14.91
3395,8.48
3407,4.3
3419,1.58
3431,-0.56
3442,-3.03
3453,-6.53
3465,-11.3
3477,-17.0
3489,-22.71
3501,-27.3
3513,-29.77
3525,-29.71
3537,-27.41
3549,-23.73
3561,-19.73
3573,-16.3
3585,-13.83
3597,-12.3
3609,-11.35
3621,-10.61
3632,-9.92
3643,-9.36
3655,-9.17
3667,-9.6
3679,-10.77
3691,-12.59
3703,-14.84
3715,-17.24
3727,-19.48
3739,-21.39
3751,-22.88
3763,-24.01
3775,-24.95
3787,-25.95
3799,-27.18
3811,-28.63
3822,-30.02
3833,-30.88
3845,-30.68
3857,-29.0
3869,-25.76
3881,-21.2
3893,-15.82
3905,-10.18
3917,-4.81
3929,-0.07
3941,3.81
3953,6.71
3965,8.6
3977,9.49
3989,9.42
4001,8.45
4012,6.72
4023,4.48
4035,2.05
4047,-0.2
4059,-2.03
4071,-3.33
4083,-4.2
4095,-4.82
4107,-5.37
4119,-5.9
4131,-6.36
4143,-6.71
4155,-6.96
4167,-7.25
4179,-7.65
4191,-8.04
4202,-8.04
4213,-7.09
4225,-4.81
4237,-1.15
4249,3.53
4261,8.52
4273,13.13
4285,16.86
4297,19.5
4309,21.06
4321,21.72
4333,21.57
4345,20.71
4357,19.2
4369,17.21
4381,14.92
4392,12.57
4403,10.34
4415,8.34
4427,6.6
4439,5.12
4451,3.89
4463,2.87
4475,2.02
4487,1.28
4499,0.65
4511,0.15
4523,-0.16
4535,-0.22
4547,0.03
4559,0.62
4571,1.63
4582,3.25
4593,5.68
4605,9.15
4617,13.67
4629,19.03
4641,24.73
4653,30.07
4665,34.45
4677,37.4
4689,38.79
4701,38.74
4713,37.61
4725,35.79
4737,33.71
4749,31.7
4761,29.98
4772,28.63
4783,27.58
4795,26.61
4807,25.43
4819,23.78
4831,21.44
4843,18.41
4855,14.9
4867,11.32
4879,8.09
4891,5.57
4903,3.81
4915,2.6
4927,1.51
4939,0.14
4951,-1.72
4962,-3.91
4973,-6.04
4985,-7.52
4997,-7.9
5009,-6.98
5021,-4.86
5033,-1.92
5045,1.41
5057,4.78
5069,8.0
5081,10.99
5093,13.7
5105,16.03
5117,17.74
5129,18.66
5141,18.74
5152,18.12
5163,17.14
5175,16.16
5187,15.41
5199,14.99
5211,14.84
5223,14.82
5235,14.81
5247,14.67
5259,14.27
5271,13.38
5283,11.83
5295,9.54
5307,6.63
5319,3.46
5331,0.47
5342,-1.89
5353,-3.35
5365,-3.96
5377,-4.0
5389,-3.87
5401,-3.96
5413,-4.52
5425,-5.57
5437,-6.96
5449,-8.38
5461,-9.48
5473,-9.98
5485,-9.69
5497,-8.59
5509,-6.76
5521,-4.35
5532,-1.58
5543,1.3
5555,4.02
5567,6.35
5579,8.11
5591,9.18
5603,9.55
5615,9.29
5627,8.46
5639,7.15
5651,5.38
5663,3.18
5675,0.6
5687,-2.25
5699,-5.15
5711,-7.86
5722,-10.13
5733,-11.75
5745,-12.6
5757,-12.71
5769,-12.32
5781,-11.79
5793,-11.55
5805,-11.83
5817,-12.61
5829,-13.57
5841,-14.34
5853,-14.65
5865,-14.53
5877,-14.23
5889,-13.99
5901,-13.81
5912,-13.39
5923,-12.28
5935,-10.14
5947,-7.01
5959,-3.3
5971,0.46
5983,3.79
5995,6.49
6007,8.54
6019,10.02
6031,10.97
6043,11.38
6055,11.29
6067,10.87
6079,10.34
6091,9.93
6102,9.73
6113,9.65
6125,9.46
6137,8.9
6149,7.74
6161,5.84
6173,3.09
6185,-0.42
6197,-4.54
6209,-8.98
6221,-13.43
6233,-17.65
6245,-21.47
6257,-24.84
6269,-27.64
6281,-29.61
6292,-30.38
6303,-29.58
6315,-27.05
6327,-23.07
6339,-18.29
6351,-13.53
6363,-9.56
6375,-6.71
6387,-4.84
6399,-3.41
6411,-1.78
6423,0.56
6435,3.71
6447,7.39
6459,11.08
6471,14.3
6482,16.81
6493,18.69
6505,20.21
6517,21.62
6529,23.03
6541,24.33
6553,25.33
6565,25.93
6577,26.24
6589,26.51
6601,26.92
6613,27.43
6625,27.67
6637,27.04
6649,25.04
6661,21.51
6672,16.76
6683,11.46
6695,6.37
6707,1.99
6719,-1.47
6731,-4.13
6743,-6.21
6755,-7.9
6767,-9.21
6779,-10.1
6791,-10.56
6803,-10.74
6815,-10.86
6827,-11.2
6839,-11.87
6851,-12.74
6862,-13.53
6873,-13.88
6885,-13.55
6897,-12.52
6909,-10.95
6921,-9.13
6933,-7.35
6945,-5.85
6957,-4.83
6969,-4.45
6981,-4.87
6993,-6.14
7005,-8.13
7017,-10.45
7029,-12.5
7041,-13.66
7052,-13.51
7063,-11.98
7075,-9.34
7087,-6.02
7099,-2.46
7111,1.06
7123,4.33
7135,7.17
7147,9.36
7159,10.74
7171,11.18
7183,10.75
7195,9.66
7207,8.25
7219,6.84
7231,5.77
7242,5.32
7253,5.75
7265,7.22
7277,9.69
7289,12.81
7301,15.96
7313,18.42
7325,19.61
7337,19.37
7349,18.0
7361,16.23
7373,15.01
7385,15.21
7397,17.32
7409,21.28
7421,26.4
7432,31.53
7443,35.48
7455,37.35
7467,36.76
7479,33.93
7491,29.34
7503,23.48
7515,16.8
7527,9.8
7539,3.23
7551,-2.14
7563,-5.83
7575,-8.09
7587,-10.03
7599,-13.15
7611,-18.62
7622,-26.72
7633,-36.75
7645,-47.45
7657,-57.65
7669,-66.54
7681,-73.44
7693,-77.2
7705,-75.95
7717,-67.55
7729,-50.71
7741,-26.12
7753,3.22
7765,32.66
7777,57.51
7789,74.58
7801,82.94
7812,83.72
7823,79.13
7835,71.34
7847,61.74
7859,51.06
7871,39.77
7883,28.54
7895,18.4
7907,10.45
7919,5.33
7931,2.96
7943,2.44
7955,2.4
7967,1.45
7979,-1.35
7991,-6.19
8002,-12.42
8013,-18.89
8025,-24.28
8037,-27.61
8049,-28.49
8061,-27.1
8073,-23.91
8085,-19.42
8097,-13.95
8109,-7.64
8121,-0.59
8133,7.09
8145,15.28
8157,23.92
8169,33.22
8181,43.57
8192,55.45
8203,69.18
8215,84.77
8227,101.73
8239,119.04
8251,135.08
8263,147.74
8275,154.76
8287,154.17
8299,144.94
8311,127.36
8323,103.15
8335,75.06
8347,46.09
8359,18.7
8371,-5.85
8382,-27.43
8393,-46.58
8405,-63.89
8417,-79.41
8429,-92.81
8441,-103.76
8453,-112.4
8465,-119.47
8477,-125.82
8489,-131.7
8501,-136.31
8513,-137.93
8525,-134.87
8537,-126.56
8549,-114.18
8561,-100.4
8572,-88.27
8583,-79.95
8595,-75.92
8607,-75.13
8619,-75.77
8631,-76.21
8643,-75.51
8655,-73.34
8667,-69.6
8679,-64.16
8691,-56.97
8703,-48.52
8715,-40.11
8727,-33.63
8739,-30.85
8751,-32.56
8762,-38.04
8773,-45.35
8785,-52.26
8797,-57.18
8809,-59.58
8821,-59.73
8833,-57.96
8845,-54.13
8857,-47.8
8869,-38.88
8881,-28.33
8893,-18.32
8905,-11.67
8917,-10.64
8929,-15.91
8941,-25.99
8952,-37.44
8963,-45.82
8975,-46.89
8987,-37.84
8999,-18.1
9011,10.4
9023,43.64
9035,76.49
9047,104.12
9059,123.15
9071,132.23
9083,131.96
9095,124.18
9107,111.18
9119,95.16
9131,78.01
9142,61.22
9153,45.97
9165,32.91
9177,22.06
9189,12.88
9201,4.43
9213,-4.18
9225,-13.38
9237,-22.92
9249,-31.89
9261,-39.11
9273,-43.52
9285,-44.62
9297,-42.66
9309,-38.55
9321,-33.46
9332,-28.46
9343,-24.21
9355,-20.84
9367,-18.04
9379,-15.4
9391,-12.61
9403,-9.67
9415,-6.93
9427,-4.86
9439,-3.87
9451,-4.11
9463,-5.35
9475,-7.08
9487,-8.71
9499,-9.82
9511,-10.28
9522,-10.28
9533,-10.14
9545,-10.19
9557,-10.6
9569,-11.37
9581,-12.45
9593,-13.67
9605,-14.81
9617,-15.52
9629,-15.34
9641,-13.87
9653,-10.98
9665,-6.89
9677,-2.19
9689,2.47
9701,6.58
9712,9.98
9723,12.77
9735,15.19
9747,17.33
9759,19.04
9771,20.03
9783,20.07
9795,19.11
9807,17.44
9819,15.43
9831,13.41
9843,11.51
9855,9.61
9867,7.55
9879,5.21
9891,2.68
9902,0.13
9913,-2.26
9925,-4.48
9937,-6.59
9949,-8.68
9961,-10.68
9973,-12.24
9985,-12.83
9997,-11.92
10009,-9.26
10021,-5.02
10033,0.25
10045,5.76
10057,10.82
10069,15.01
10081,18.35
10092,21.16
10103,23.79
10115,26.35
10127,28.63
10139,30.18
10151,30.58
10163,29.72
10175,27.94
10187,25.97
10199,24.59
10211,24.35
10223,25.35
10235,27.28
10247,29.66
10259,32.15
10271,34.67
10282,37.41
10293,40.62
10305,44.29
10317,48.17
10329,51.9
10341,55.32
10353,58.56
10365,61.72
10377,64.49
10389,65.81
10401,64.23
10413,58.72
10425,49.65
10437,39.01
10449,29.8
10461,24.4
10472,23.09
10483,23.46
10495,21.25
10507,12.19
10519,-6.1
10531,-32.99
10543,-65.15
10555,-97.84
10567,-126.45
10579,-147.65
10591,-159.96
10603,-163.73
10615,-160.87
10627,-154.43
10639,-147.93
10651,-144.51
10662,-145.95
10673,-151.83
10685,-159.3
10697,-163.6
10709,-159.4
10721,-142.55
10733,-111.66
10745,-68.96
10757,-19.85
10769,28.5
10781,69.32
10793,98.03
10805,113.27
10817,116.54
10829,111.16
10841,100.68
10852,87.88
10863,74.42
10875,61.13
10887,48.53
10899,37.11
10911,27.29
10923,19.09
10935,11.99
10947,5.06
10959,-2.52
10971,-11.05
10983,-20.03
10995,-28.31
11007,-34.52
11019,-37.66
11031,-37.44
11042,-34.36
11053,-29.47
11065,-24.0
11077,-18.89
11089,-14.62
11101,-11.17
11113,-8.23
11125,-5.51
11137,-3.03
11149,-1.15
11161,-0.39
11173,-1.22
11185,-3.67
11197,-7.35
11209,-11.45
11221,-15.1
11232,-17.72
11243,-19.19
11255,-19.87
11267,-20.33
11279,-21.14
11291,-22.62
11303,-24.78
11315,-27.35
11327,-29.87
11339,-31.81
11351,-32.6
11363,-31.78
11375,-29.02
11387,-24.29
11399,-17.89
11411,-10.42
11422,-2.67
11433,4.61
11445,10.92
11457,15.98
11469,19.77
11481,22.37
11493,23.82
11505,24.19
11517,23.56
11529,22.09
11541,20.07
11553,17.82
11565,15.61
11577,13.56
11589,11.7
11601,9.93
11612,8.2
11623,6.5
11635,4.84
11647,3.23
11659,1.68
11671,0.21
11683,-1.11
11695,-2.09
11707,-2.48
11719,-1.99
11731,-0.41
11743,2.28
11755,5.87
11767,9.94
11779,13.99
11791,17.58
11802,20.41
11813,22.42
11825,23.64
11837,24.11
11849,23.86
11861,22.9
11873,21.36
11885,19.44
11897,17.36
11909,15.31
11921,13.53
11933,12.12
11945,11.04
11957,10.2
11969,9.5
11981,8.91
11992,8.4
12003,7.85
12015,7.1
12027,6.17
12039,5.09
12051,3.86
12063,2.58
12075,1.57
12087,1.38
12099,2.51
12111,5.06
12123,8.74
12135,13.47
12147,18.81
12159,24.1
12171,28.51
12182,31.47
12193,32.96
12205,33.24
12217,32.36
12229,30.5
12241,28.95
12253,28.71
12265,29.94
12277,31.98
12289,33.92
12301,35.38
12313,36.46
12325,36.78
12337,36.47
12349,37.44
12361,40.98
12372,46.92
12383,53.61
12395,59.05
12407,62.41
12419,63.94
12431,63.84
12443,63.81
12455,68.25
12467,80.62
12479,101.82
12491,129.76
12503,160.76
12515,192.29
12527,223.19
12539,252.8
12551,266.09
12562,253.84
12573,216.76
12585,165.94
12597,114.49
12609,69.98
12621,34.59
12633,14.27
12645,3.91
12657,-0.27
12669,1.68
12681,9.81
12693,22.83
12705,38.18
12717,49.12
12729,53.46
12741,52.13
12752,46.88
12763,41.07
12775,38.48
12787,39.81
12799,42.04
12811,39.93
12823,29.01
12835,8.93
12847,-17.32
12859,-45.79
12871,-71.94
12883,-92.05
12895,-105.21
12907,-113.09
12919,-118.69
12931,-124.64
12942,-131.58
12953,-139.0
12965,-146.5
12977,-153.28
12989,-158.44
13001,-161.67
13013,-163.15
13025,-163.24
13037,-162.28
13049,-159.91
13061,-155.79
13073,-150.14
13085,-143.27
13097,-135.59
13109,-127.6
13121,-119.77
13132,-112.46
13143,-105.94
13155,-100.15
13167,-94.95
13179,-90.26
13191,-85.9
13203,-81.62
13215,-77.15
13227,-72.19
13239,-66.36
13251,-59.38
13263,-51.06
13275,-41.47
13287,-31.01
13299,-20.31
13311,-10.11
13322,-1.14
13333,6.04
13345,11.15
13357,14.3
13369,16.0
13381,17.05
13393,18.33
13405,20.53
13417,23.86
13429,28.1
13441,32.72
13453,37.16
13465,41.14
13477,44.7
13489,48.16
13501,51.85
13512,55.98
13523,60.55
13535,65.36
13547,70.13
13559,74.49
13571,77.96
13583,79.9
13595,79.55
13607,76.1
13619,68.96
13631,57.99
13643,43.73
13655,27.34
13667,10.47
13679,-5.23
13691,-18.5
13702,-28.65
13713,-35.58
13725,-39.59
13737,-41.17
13749,-40.85
13761,-39.26
13773,-37.1
13785,-35.14
13797,-34.01
13809,-33.96
13821,-34.85
13833,-36.13
13845,-37.12
13857,-37.3
13869,-36.43
13881,-34.57
13892,-31.99
13903,-28.96
13915,-25.72
13927,-22.38
13939,-18.99
13951,-15.63
13963,-12.44
13975,-9.64
13987,-7.42
13999,-5.85
14011,-4.81
14023,-3.92
14035,-2.72
14047,-0.83
14059,1.84
14071,5.03
14082,8.24
14093,10.96
14105,12.89
14117,14.06
14129,14.73
14141,15.22
14153,15.68
14165,15.98
14177,15.72
14189,14.48
14201,12.04
14213,8.56
14225,4.62
14237,0.99
14249,-1.65
14261,-3.03
14272,-3.45
14283,-3.7
14295,-4.81
14307,-7.74
14319,-13.01
14331,-20.5
14343,-29.44
14355,-38.35
14367,-45.35
14379,-48.43
14391,-46.07
14403,-37.66
14415,-23.98
14427,-7.16
14439,9.85
14451,24.18
14462,34.03
14473,39.2
14485,41.05
14497,41.7
14509,43.04
14521,45.92
14533,50.01
14545,54.23
14557,57.48
14569,59.21
14581,59.58
14593,59.05
14605,57.95
14617,56.08
14629,52.79
14641,47.42
14652,39.89
14663,30.86
14675,21.63
14687,13.61
14699,7.65
14711,3.81
14723,1.37
14735,-0.69
14747,-3.16
14759,-6.22
14771,-9.5
14783,-12.39
14795,-14.46
14807,-15.74
14819,-16.69
14831,-17.86
14842,-19.61
14853,-21.9
14865,-24.32
14877,-26.41
14889,-27.83
14901,-28.54
14913,-28.75
14925,-28.69
14937,-28.5
14949,-28.13
14961,-27.43
14973,-26.32
14985,-24.87
14997,-23.25
15009,-21.69
15021,-20.32
15032,-19.16
15043,-18.12
15055,-17.08
15067,-15.93
15079,-14.65
15091,-13.33
15103,-12.18
15115,-11.4
15127,-11.06
15139,-10.97
15151,-10.66
15163,-9.67
15175,-7.68
15187,-4.72
15199,-1.04
15211,3.19
15222,8.19
15233,14.59
15245,23.18
15257,34.47
15269,48.39
15281,64.2
15293,80.71
15305,96.58
15317,110.46
15329,121.01
15341,126.95
15353,127.09
15365,120.63
15377,107.62
15389,89.07
15401,66.86
15412,43.33
15423,20.71
15435,0.68
15447,-15.78
15459,-28.38
15471,-37.26
15483,-42.76
15495,-45.35
15507,-45.56
15519,-44.02
15531,-41.36
15543,-38.18
15555,-34.89
15567,-31.67
15579,-28.54
15591,-25.57
15602,-23.04
15613,-21.51
15625,-21.71
15637,-24.27
15649,-29.41
15661,-36.73
15673,-45.32
15685,-53.95
15697,-61.38
15709,-66.59
15721,-68.88
15733,-67.82
15745,-63.25
15757,-55.29
15769,-44.39
15781,-31.31
15792,-17.08
15803,-2.78
15815,10.69
15827,22.79
15839,33.36
15851,42.57
15863,50.57
15875,57.43
15887,62.98
15899,66.96
15911,69.14
15923,69.36
15935,67.59
15947,63.81
15959,57.99
15971,50.21
15982,40.68
15993,29.91
16005,18.68
16017,7.86
16029,-1.84
16041,-10.02
16053,-16.66
16065,-21.88
16077,-25.85
16089,-28.64
16101,-30.31
16113,-31.04
16125,-31.24
16137,-31.44
16149,-32.14
16161,-33.5
16172,-35.3
16183,-37.03
16195,-38.15
16207,-38.31
16219,-37.55
16231,-36.17
16243,-34.57
16255,-32.94
16267,-31.13
16279,-28.69
16291,-25.13
16303,-20.19
16315,-13.98
16327,-7.08
16339,-0.29
16351,5.45
16362,9.37
16373,10.89
16385,9.81
16397,6.28
16409,0.88
16421,-5.46
16433,-11.64
16445,-16.66
16457,-19.84
16469,-21.04
16481,-20.53
16493,-18.79
16505,-16.33
16517,-13.5
16529,-10.56
16541,-7.7
16552,-5.13
16563,-3.03
16575,-1.5
16587,-0.54
16599,-0.05
16611,0.09
16623,-0.06
16635,-0.47
16647,-1.17
16659,-2.14
16671,-3.23
16683,-4.25
16695,-4.99
16707,-5.32
16719,-5.18
16731,-4.68
16742,-3.94
16753,-3.15
16765,-2.45
16777,-1.88
16789,-1.45
16801,-1.08
16813,-0.7
16825,-0.29
16837,0.11
16849,0.39
16861,0.44
16873,0.2
16885,-0.27
16897,-0.79
16909,-1.12
16921,-1.06
16932,-0.52
16943,0.47
16955,1.78
16967,3.25
16979,4.78
16991,6.29
17003,7.7
17015,8.93
17027,9.84
17039,10.33
17051,10.38
17063,10.05
17075,9.4
17087,8.46
17099,7.19
17111,5.49
17122,3.34
17133,0.87
17145,-1.64
17157,-3.81
17169,-5.37
17181,-6.28
17193,-6.77
17205,-7.27
17217,-8.17
17229,-9.71
17241,-11.81
17253,-14.16
17265,-16.32
17277,-17.91
17289,-18.68
17301,-18.54
17312,-17.44
17323,-15.24
17335,-11.75
17347,-6.81
17359,-0.44
17371,7.07
17383,15.08
17395,22.79
17407,29.32
17419,33.88
17431,35.89
17443,35.04
17455,31.42
17467,25.49
17479,18.05
17491,10.05
17502,2.39
17513,-4.36
17525,-10.01
17537,-14.7
17549,-18.72
17561,-22.29
17573,-25.48
17585,-28.23
17597,-30.42
17609,-31.95
17621,-32.74
17633,-32.72
17645,-31.7
17657,-29.33
17669,-25.08
17681,-18.48
17692,-9.22
17703,2.54
17715,16.07
17727,30.14
17739,43.16
17751,53.54
17763,60.02
17775,61.88
17787,59.13
17799,52.47
17811,43.15
17823,32.69
17835,22.51
17847,13.65
17859,6.59
17871,1.25
17882,-2.79
17893,-6.07
17905,-8.99
17917,-11.78
17929,-14.49
17941,-17.08
17953,-19.53
17965,-21.79
17977,-23.85
17989,-25.67
18001,-27.21
18013,-28.39
18025,-29.08
18037,-29.11
18049,-28.32
18061,-26.72
18072,-24.46
18083,-21.89
18095,-19.32
18107,-16.93
18119,-14.61
18131,-12.15
18143,-9.4
18155,-6.52
18167,-3.92
18179,-2.17
18191,-1.68
18203,-2.48
18215,-4.23
18227,-6.36
18239,-8.39
18251,-10.03
18262,-11.29
18273,-12.29
18285,-13.14
18297,-13.84
18309,-14.34
18321,-14.58
18333,-14.57
18345,-14.45
18357,-14.4
18369,-14.52
18381,-14.79
18393,-14.98
18405,-14.79
18417,-13.99
18429,-12.48
18441,-10.42
18452,-8.06
18463,-5.67
18475,-3.43
18487,-1.41
18499,0.32
18511,1.68
18523,2.49
18535,2.58
18547,1.88
18559,0.47
18571,-1.4
18583,-3.42
18595,-5.32
18607,-6.89
18619,-8.11
18631,-9.07
18642,-9.99
18653,-11.13
18665,-12.79
18677,-15.13
18689,-18.1
18701,-21.42
18713,-24.64
18725,-27.15
18737,-28.48
18749,-28.42
18761,-27.16
18773,-25.18
18785,-23.09
18797,-21.24
18809,-19.48
18821,-17.08
18832,-13.03
18843,-6.49
18855,2.73
18867,13.87
18879,25.44
18891,35.57
18903,42.64
18915,45.64
18927,44.36
18939,39.41
18951,32.06
18963,24.0
18975,17.01
18987,12.58
18999,11.55
19011,13.81
19022,18.47
19033,24.19
19045,29.77
19057,34.6
19069,38.81
19081,43.12
19093,48.43
19105,55.35
19117,63.94
19129,73.58
19141,83.07
19153,90.81
19165,95.13
19177,94.6
19189,88.5
19201,77.03
19212,61.4
19223,43.65
19235,26.13
19247,10.94
19259,-0.59
19271,-8.09
19283,-12.12
19295,-13.73
19307,-14.12
19319,-14.31
19331,-14.99
19343,-16.53
19355,-19.02
19367,-22.35
19379,-26.18
19391,-30.04
19402,-33.35
19413,-35.62
19425,-36.49
19437,-35.83
19449,-33.71
19461,-30.35
19473,-26.11
19485,-21.4
19497,-16.68
19509,-12.34
19521,-8.62
19533,-5.62
19545,-3.25
19557,-1.33
19569,0.31
19581,1.76
19592,3.04
19603,4.11
19615,4.94
19627,5.57
19639,6.04
19651,6.44
19663,6.77
19675,7.01
19687,7.09
19699,6.96
19711,6.61
19723,6.07
19735,5.45
19747,4.8
19759,4.17
19771,3.52
19782,2.84
19793,2.1
19805,1.41
19817,0.94
19829,0.93
19841,1.57
19853,2.96
19865,5.03
19877,7.57
19889,10.29
19901,12.93
19913,15.28
19925,17.24
19937,18.83
19949,20.12
19961,21.18
19972,22.06
19983,22.74
19995,23.14
20007,23.15
20019,22.68
20031,21.76
20043,20.52
20055,19.22
20067,18.1
20079,17.33
20091,16.92
20103,16.72
20115,16.51
20127,16.05
20139,15.26
20151,14.12
20162,12.71
20173,11.05
20185,9.14
20197,6.94
20209,4.45
20221,1.74
20233,-1.01
20245,-3.59
20257,-5.89
20269,-7.92
20281,-9.86
20293,-11.91
20305,-14.22
20317,-16.7
20329,-19.14
20341,-21.3
20352,-23.09
20363,-24.64
20375,-26.23
20387,-28.04
20399,-30.04
20411,-31.89
20423,-33.1
20435,-33.22
20447,-32.13
20459,-29.99
20471,-27.18
20483,-24.11
20495,-20.99
20507,-18.01
20519,-15.3
20531,-13.1
20542,-11.75
20553,-11.55
20565,-12.49
20577,-14.17
20589,-15.87
20601,-16.7
20613,-15.96
20625,-13.22
20637,-8.38
20649,-1.52
20661,7.18
20673,17.49
20685,29.08
20697,41.41
20709,53.83
20721,65.59
20732,76.01
20743,84.51
20755,90.6
20767,93.84
20779,93.8
20791,90.13
20803,82.77
20815,72.01
20827,58.63
20839,43.72
20851,28.6
20863,14.51
20875,2.43
20887,-7.11
20899,-14.1
20911,-18.97
20922,-22.42
20933,-25.21
20945,-27.87
20957,-30.55
20969,-33.12
20981,-35.22
20993,-36.49
