seconds,BVP
0,4.23
11,-1.19
22,-6.47
34,-11.25
46,-15.22
58,-18.09
70,-19.58
82,-19.69
94,-18.52
106,-16.33
118,-13.92
130,-12.1
142,-11.37
154,-11.95
166,-13.69
178,-16.12
190,-18.67
201,-20.84
212,-22.46
224,-24.09
236,-26.25
248,-29.01
260,-31.9
272,-34.27
284,-35.4
296,-34.77
308,-32.29
320,-25.56
332,-14.82
344,-2.41
356,9.42
368,19.95
380,29.18
391,36.69
402,41.42
414,42.24
426,38.89
438,31.91
450,23.02
462,14.31
474,7.06
486,1.14
498,-4.18
510,-9.17
522,-13.2
534,-15.24
546,-15.25
558,-14.27
570,-14.37
581,-16.69
592,-21.25
604,-26.39
616,-29.41
628,-28.16
640,-22.33
652,-13.76
664,-5.01
676,2.12
688,7.41
700,11.62
712,15.58
724,19.39
736,22.31
748,23.33
760,22.05
771,19.14
782,16.01
794,13.99
806,13.49
818,13.47
830,12.65
842,9.98
854,5.13
866,-1.35
878,-8.44
890,-15.06
902,-20.6
914,-25.0
926,-28.58
938,-31.6
950,-34.09
961,-35.81
972,-36.36
984,-35.36
996,-32.66
1008,-28.46
1020,-23.27
1032,-17.81
1044,-12.74
1056,-8.59
1068,-5.57
1080,-3.64
1092,-2.58
1104,-2.13
1116,-2.13
1128,-2.49
1140,-3.18
1151,-4.08
1162,-5.0
1174,-5.73
1186,-6.06
1198,-5.92
1210,-5.39
1222,-4.66
1234,-3.94
1246,-3.4
1258,-3.05
1270,-2.9
1282,-2.95
1294,-3.27
1306,-3.91
1318,-4.81
1330,-5.71
1341,-6.12
1352,-5.5
1364,-3.47
1376,0.03
1388,4.66
1400,9.77
1412,14.64
1424,18.69
1436,21.68
1448,23.75
1460,25.39
1472,27.15
1484,29.35
1496,31.89
1508,34.21
1520,35.56
1531,35.41
1542,33.71
1554,30.85
1566,27.39
1578,23.69
1590,19.75
1602,15.33
1614,10.26
1626,4.68
1638,-1.01
1650,-6.37
1662,-11.24
1674,-15.78
1686,-20.29
1698,-24.8
1710,-28.92
1721,-31.91
1732,-33.04
1744,-32.02
1756,-29.19
1768,-25.42
1780,-21.68
1792,-18.7
1804,-16.63
1816,-15.17
1828,-13.78
1840,-11.95
1852,-9.37
1864,-6.0
1876,-1.93
1888,2.62
1900,7.27
1911,11.45
1922,14.58
1934,16.21
1946,16.32
1958,15.29
1970,13.78
1982,12.41
1994,11.47
2006,10.88
2018,10.3
2030,9.38
2042,7.99
2054,6.23
2066,4.4
2078,2.87
2090,2.01
2101,2.04
2112,3.07
2124,5.06
2136,7.85
2148,11.2
2160,14.8
2172,18.25
2184,21.05
2196,22.68
2208,22.81
2220,21.46
2232,19.13
2244,16.63
2256,14.82
2268,14.24
2280,14.94
2291,16.55
2302,18.57
2314,20.58
2326,22.28
2338,23.47
2350,23.86
2362,23.06
2374,20.78
2386,16.92
2398,11.74
2410,5.74
2422,-0.44
2434,-6.08
2446,-10.44
2458,-12.75
2470,-12.44
2481,-9.3
2492,-3.66
2504,3.5
2516,10.75
2528,16.6
2540,19.93
2552,20.29
2564,17.99
2576,13.99
2588,9.69
2600,6.64
2612,6.05
2624,8.35
2636,13.01
2648,18.7
2660,23.98
2671,27.67
2682,29.26
2694,28.91
2706,27.22
2718,24.82
2730,22.07
2742,19.05
2754,15.78
2766,12.67
2778,10.15
2790,8.44
2802,7.52
2814,7.28
2826,7.7
2838,8.88
2850,10.94
2861,13.82
2872,17.63
2884,21.96
2896,25.97
2908,28.69
2920,29.57
2932,28.62
2944,26.22
2956,22.92
2968,19.15
2980,15.83
2992,13.46
3004,11.88
3016,10.51
3028,8.89
3040,6.87
3051,4.63
3062,2.49
3074,-3.03
3086,-12.99
3098,-25.76
3110,-38.13
3122,-47.75
3134,-53.82
3146,-56.64
3158,-56.83
3170,-55.07
3182,-52.0
3194,-47.54
3206,-41.86
3218,-35.57
3230,-29.67
3241,-24.99
3252,-22.0
3264,-20.57
3276,-20.16
3288,-20.07
3300,-19.23
3312,-17.04
3324,-13.65
3336,-9.72
3348,-5.72
3360,-2.33
3372,0.13
3384,1.59
3396,2.31
3408,3.21
3420,5.24
3431,8.93
3442,13.58
3454,18.27
3466,21.55
3478,22.16
3490,19.64
3502,14.44
3514,7.72
3526,0.62
3538,-6.18
3550,-12.45
3562,-17.96
3574,-22.39
3586,-25.24
3598,-26.17
3610,-25.31
3621,-23.28
3632,-21.0
3644,-19.21
3656,-18.24
3668,-17.94
3680,-17.95
3692,-18.04
3704,-17.78
3716,-16.96
3728,-15.48
3740,-13.45
3752,-11.03
3764,-8.46
3776,-5.92
3788,-3.63
3800,-1.63
3811,0.13
3822,1.77
3834,3.45
3846,5.18
3858,6.85
3870,8.29
3882,9.38
3894,10.05
3906,10.38
3918,10.46
3930,10.36
3942,10.1
3954,9.48
3966,8.39
3978,7.0
3990,5.69
4001,4.86
4012,4.63
4024,4.53
4036,3.81
4048,1.78
4060,-2.03
4072,-7.42
4084,-13.67
4096,-19.93
4108,-25.78
4120,-30.43
4132,-33.87
4144,-36.37
4156,-36.56
4168,-33.64
4180,-27.63
4191,-19.6
4202,-11.17
4214,-3.87
4226,1.41
4238,4.52
4250,6.17
4262,7.47
4274,9.11
4286,11.25
4298,13.51
4310,15.28
4322,16.11
4334,16.03
4346,15.37
4358,14.87
4370,14.91
4381,15.51
4392,16.47
4404,17.55
4416,18.56
4428,19.41
4440,20.06
4452,20.38
4464,20.28
4476,19.66
4488,18.41
4500,16.58
4512,14.33
4524,11.99
4536,9.86
4548,8.15
4560,6.91
4571,6.1
4582,5.52
4594,4.93
4606,4.2
4618,3.31
4630,2.41
4642,1.65
4654,1.15
4666,0.91
4678,0.81
4690,0.64
4702,0.15
4714,-0.88
4726,-2.58
4738,-4.96
4750,-7.77
4761,-10.49
4772,-12.41
4784,-12.84
4796,-11.32
4808,-7.87
4820,-3.0
4832,2.39
4844,7.3
4856,10.9
4868,12.76
4880,12.86
4892,11.5
4904,9.17
4916,6.38
4928,3.52
4940,0.85
4951,-1.55
4962,-3.67
4974,-5.58
4986,-7.28
4998,-8.76
5010,-9.95
5022,-10.83
5034,-11.44
5046,-11.89
5058,-12.33
5070,-12.86
5082,-13.53
5094,-14.34
5106,-15.33
5118,-16.54
5130,-17.95
5141,-19.32
5152,-20.12
5164,-19.66
5176,-17.28
5188,-12.77
5200,-6.51
5212,0.53
5224,7.18
5236,12.45
5248,15.86
5260,17.49
5272,17.78
5284,17.24
5296,16.17
5308,14.7
5320,12.84
5331,10.66
5342,8.33
5354,6.09
5366,4.13
5378,2.53
5390,1.22
5402,0.09
5414,-0.96
5426,-1.97
5438,-2.93
5450,-3.88
5462,-4.89
5474,-6.14
5486,-7.79
5498,-9.93
5510,-12.43
5521,-14.88
5532,-16.61
5544,-16.88
5556,-15.16
5568,-11.32
5580,-5.8
5592,0.52
5604,6.54
5616,11.33
5628,14.3
5640,15.4
5652,14.93
5664,13.41
5676,11.38
5688,9.27
5700,7.34
5711,5.7
5722,4.34
5734,3.19
5746,2.13
5758,1.09
5770,-0.01
5782,-1.18
5794,-2.39
5806,-3.6
5818,-4.73
5830,-5.72
5842,-6.57
5854,-7.36
5866,-8.25
5878,-9.52
5890,-11.34
5901,-13.67
5912,-16.1
5924,-17.89
5936,-18.16
5948,-16.29
5960,-12.22
5972,-6.5
5984,-0.19
5996,5.52
6008,9.77
6020,12.18
6032,12.86
6044,12.24
6056,10.77
6068,8.82
6080,6.66
6091,4.54
6102,2.72
6114,1.41
6126,0.65
6138,0.26
6150,-0.08
6162,-0.73
6174,-1.86
6186,-3.38
6198,-4.97
6210,-6.34
6222,-7.27
6234,-7.83
6246,-8.24
6258,-8.83
6270,-9.92
6281,-11.68
6292,-14.05
6304,-16.67
6316,-18.82
6328,-19.66
6340,-18.47
6352,-15.02
6364,-9.72
6376,-3.56
6388,2.26
6400,6.76
6412,9.49
6424,10.51
6436,10.19
6448,8.94
6460,6.99
6471,4.53
6482,1.78
6494,-0.87
6506,-2.98
6518,-4.19
6530,-4.49
6542,-4.2
6554,-3.84
6566,-3.93
6578,-4.73
6590,-6.21
6602,-8.05
6614,-9.83
6626,-11.13
6638,-11.8
6650,-11.9
6661,-11.73
6672,-11.79
6684,-12.52
6696,-14.24
6708,-16.92
6720,-20.18
6732,-23.31
6744,-25.48
6756,-25.95
6768,-24.42
6780,-21.07
6792,-16.61
6804,-11.98
6816,-8.04
6828,-5.34
6840,-3.95
6851,-3.6
6862,-3.87
6874,-4.48
6886,-5.24
6898,-6.08
6910,-6.8
6922,-7.06
6934,-6.44
6946,-4.65
6958,-1.79
6970,1.64
6982,4.93
6994,7.48
7006,9.06
7018,9.91
7030,10.52
7041,11.33
7052,12.5
7064,13.78
7076,14.76
7088,15.05
7100,14.5
7112,13.21
7124,11.44
7136,9.48
7148,7.64
7160,6.24
7172,5.68
7184,6.27
7196,8.18
7208,11.24
7220,14.97
7231,18.7
7242,21.83
7254,23.95
7266,24.99
7278,25.04
7290,24.26
7302,22.79
7314,20.76
7326,18.39
7338,15.99
7350,13.94
7362,12.53
7374,11.81
7386,11.61
7398,11.6
7410,11.46
7421,11.01
7432,10.22
7444,9.2
7456,8.07
7468,6.96
7480,6.0
7492,5.26
7504,4.81
7516,4.59
7528,4.46
7540,4.14
7552,3.36
7564,2.03
7576,0.36
7588,-1.14
7600,-1.82
7611,-1.17
7622,0.97
7634,4.36
7646,8.46
7658,12.69
7670,16.56
7682,19.83
7694,22.35
7706,23.99
7718,24.57
7730,24.02
7742,22.48
7754,20.34
7766,18.18
7778,16.48
7790,15.42
7801,14.83
7812,14.31
7824,13.44
7836,11.96
7848,9.71
7860,6.62
7872,2.91
7884,-1.34
7896,-5.88
7908,-10.4
7920,-14.65
7932,-18.67
7944,-22.87
7956,-27.74
7968,-33.51
7980,-39.77
7991,-45.54
8002,-49.58
8014,-50.97
8026,-49.48
8038,-45.63
8050,-40.39
8062,-34.76
8074,-29.48
8086,-25.02
8098,-21.69
8110,-19.7
8122,-19.12
8134,-19.79
8146,-21.24
8158,-22.84
8170,-23.98
8181,-24.34
8192,-23.92
8204,-22.94
8216,-21.65
8228,-20.19
8240,-18.56
8252,-16.76
8264,-14.77
8276,-12.57
8288,-10.12
8300,-7.33
8312,-4.14
8324,-0.63
8336,2.9
8348,5.95
8360,8.04
8371,8.9
8382,8.61
8394,7.61
8406,6.53
8418,5.98
8430,6.34
8442,7.76
8454,10.12
8466,13.13
8478,16.4
8490,19.48
8502,21.96
8514,23.51
8526,23.97
8538,23.33
8550,21.74
8561,19.44
8572,16.72
8584,13.89
8596,11.22
8608,8.9
8620,6.96
8632,5.27
8644,3.63
8656,1.93
8668,0.22
8680,-1.19
8692,-1.88
8704,-1.54
8716,-0.15
8728,2.02
8740,4.5
8751,6.77
8762,8.35
8774,8.89
8786,8.13
8798,5.99
8810,2.64
8822,-1.36
8834,-5.16
8846,-7.85
8858,-8.74
8870,-7.66
8882,-5.0
8894,-1.48
8906,2.1
8918,5.21
8930,7.61
8941,9.3
8952,10.31
8964,10.63
8976,10.2
8988,8.98
9000,7.16
9012,5.07
9024,3.16
9036,1.75
9048,0.99
9060,0.74
9072,0.72
9084,0.65
9096,0.4
9108,0.02
9120,-0.35
9131,-0.58
9142,-0.7
9154,-0.83
9166,-1.19
9178,-1.9
9190,-2.96
9202,-4.17
9214,-5.18
9226,-5.63
9238,-5.23
9250,-3.86
9262,-1.63
9274,1.15
9286,4.06
9298,6.65
9310,8.6
9321,9.72
9332,9.99
9344,9.45
9356,8.18
9368,6.28
9380,3.9
9392,1.3
9404,-1.22
9416,-3.34
9428,-4.87
9440,-5.74
9452,-6.1
9464,-6.15
9476,-6.08
9488,-6.0
9500,-5.95
9511,-5.89
9522,-5.76
9534,-5.5
9546,-5.06
9558,-4.45
9570,-3.74
9582,-3.08
9594,-2.58
9606,-2.22
9618,-1.84
9630,-1.19
9642,-0.04
9654,1.73
9666,4.11
9678,7.02
9690,10.33
9701,13.85
9712,17.28
9724,20.15
9736,21.99
9748,22.49
9760,21.76
9772,20.35
9784,18.94
9796,18.08
9808,17.83
9820,17.79
9832,17.35
9844,16.05
9856,13.82
9868,10.86
9880,7.49
9891,3.83
9902,-0.2
9914,-4.77
9926,-9.91
9938,-15.31
9950,-20.41
9962,-24.56
9974,-27.21
9986,-28.08
9998,-27.16
10010,-24.64
10022,-20.88
10034,-16.36
10046,-11.69
10058,-7.56
10070,-4.54
10081,-2.9
10092,-2.44
10104,-2.67
10116,-3.13
10128,-3.72
10140,-4.86
10152,-7.22
10164,-11.14
10176,-16.18
10188,-20.97
10200,-23.7
10212,-22.95
10224,-18.36
10236,-10.78
10248,-1.84
10260,6.73
10271,13.76
10282,18.67
10294,21.34
10306,21.85
10318,20.16
10330,16.31
10342,10.65
10354,4.11
10366,-1.99
10378,-6.37
10390,-8.19
10402,-7.34
10414,-4.1
10426,0.81
10438,6.47
10450,12.03
10461,16.94
10472,20.98
10484,24.18
10496,26.72
10508,28.85
10520,31.17
10532,33.95
10544,36.94
10556,39.54
10568,41.07
10580,41.08
10592,39.49
10604,36.73
10616,33.48
10628,30.85
10640,29.35
10651,28.59
10662,27.62
10674,25.5
10686,21.75
10698,16.47
10710,10.2
10722,0.71
10734,-12.2
10746,-26.57
10758,-39.39
10770,-48.37
10782,-52.78
10794,-52.91
10806,-49.92
10818,-44.78
10830,-38.43
10841,-31.3
10852,-23.66
10864,-16.39
10876,-9.99
10888,-4.71
10900,-0.56
10912,2.34
10924,3.93
10936,4.22
10948,3.44
10960,1.88
10972,-0.17
10984,-2.2
10996,-3.88
11008,-5.19
11020,-6.43
11031,-7.88
11042,-9.35
11054,-10.45
11066,-10.78
11078,-10.02
11090,-7.88
11102,-4.48
11114,-0.39
11126,2.71
11138,3.64
11150,4.44
11162,6.65
11174,10.48
11186,15.85
11198,22.85
11210,31.17
11221,40.21
11232,49.37
11244,58.18
11256,67.1
11268,76.18
11280,85.04
11292,89.16
11304,85.5
11316,74.2
11328,58.2
11340,42.98
11352,28.46
11364,14.27
11376,0.0
11388,-14.34
11400,-27.79
11411,-38.71
11422,-45.77
11434,-48.73
11446,-48.63
11458,-47.64
11470,-47.38
11482,-49.02
11494,-52.56
11506,-56.76
11518,-59.58
11530,-59.64
11542,-57.28
11554,-54.38
11566,-53.41
11578,-55.25
11590,-59.08
11601,-62.68
11612,-63.39
11624,-59.22
11636,-49.85
11648,-36.7
11660,-22.22
11672,-8.92
11684,1.83
11696,9.6
11708,14.61
11720,17.51
11732,19.12
11744,20.07
11756,20.7
11768,21.02
11780,20.97
11791,20.79
11802,20.81
11814,21.18
11826,21.61
11838,21.45
11850,19.9
11862,16.39
11874,10.86
11886,3.84
11898,-3.73
11910,-10.9
11922,-17.05
11934,-21.91
11946,-25.51
11958,-27.93
11970,-29.17
11981,-29.18
11992,-27.91
12004,-25.47
12016,-22.16
12028,-18.36
12040,-14.45
12052,-10.73
12064,-7.4
12076,-4.58
12088,-2.36
12100,-0.78
12112,0.15
12124,0.53
12136,0.48
12148,0.17
12160,-0.21
12171,-0.58
12182,-0.88
12194,-1.16
12206,-1.49
12218,-1.97
12230,-2.62
12242,-3.42
12254,-4.33
12266,-5.32
12278,-6.43
12290,-7.74
12302,-9.31
12314,-10.98
12326,-12.38
12338,-12.99
12350,-12.32
12361,-10.15
12372,-6.64
12384,-2.31
12396,2.18
12408,6.26
12420,9.61
12432,12.18
12444,14.09
12456,15.48
12468,16.43
12480,16.98
12492,17.15
12504,16.95
12516,16.46
12528,15.71
12540,14.71
12551,13.45
12562,11.98
12574,10.36
12586,8.71
12598,7.15
12610,5.73
12622,4.43
12634,3.13
12646,1.72
12658,0.11
12670,-1.7
12682,-3.56
12694,-5.27
12706,-6.51
12718,-6.99
12730,-6.5
12741,-5.0
12752,-2.63
12764,0.33
12776,3.51
12788,6.53
12800,9.08
12812,10.97
12824,12.08
12836,12.47
12848,12.26
12860,11.67
12872,10.91
12884,10.1
12896,9.26
12908,8.32
12920,7.23
12931,6.0
12942,4.73
12954,3.57
12966,2.59
12978,1.75
12990,0.95
13002,0.03
13014,-1.08
13026,-2.4
13038,-3.88
13050,-5.46
13062,-7.09
13074,-8.66
13086,-9.99
13098,-10.78
13110,-10.68
13121,-9.47
13132,-7.08
13144,-3.74
13156,0.14
13168,4.07
13180,7.59
13192,10.39
13204,12.33
13216,13.41
13228,13.77
13240,13.64
13252,13.27
13264,12.9
13276,12.66
13288,12.58
13300,12.58
13311,12.53
13322,12.31
13334,11.84
13346,11.14
13358,10.21
13370,9.09
13382,7.82
13394,6.42
13406,4.89
13418,3.24
13430,1.39
13442,-0.77
13454,-3.34
13466,-6.31
13478,-9.46
13490,-12.35
13501,-14.43
13512,-15.27
13524,-14.7
13536,-12.93
13548,-10.47
13560,-7.88
13572,-5.59
13584,-3.78
13596,-2.37
13608,-1.17
13620,-0.07
13632,0.89
13644,1.56
13656,1.8
13668,1.58
13680,1.06
13691,0.51
13702,0.18
13714,0.19
13726,0.45
13738,0.68
13750,0.62
13762,0.1
13774,-0.84
13786,-2.04
13798,-3.27
13810,-4.37
13822,-5.32
13834,-6.14
13846,-6.9
13858,-7.65
13870,-8.41
13881,-9.18
13892,-9.96
13904,-10.7
13916,-11.22
13928,-11.24
13940,-10.47
13952,-8.73
13964,-6.12
13976,-3.0
13988,0.11
14000,2.75
14012,4.64
14024,5.82
14036,6.47
14048,6.81
14060,7.01
14071,7.1
14082,7.07
14094,6.88
14106,6.59
14118,6.28
14130,6.08
14142,6.04
14154,6.15
14166,6.33
14178,6.46
14190,6.44
14202,6.24
14214,5.87
14226,5.41
14238,4.92
14250,4.42
14261,3.89
14272,3.28
14284,2.46
14296,1.31
14308,-0.26
14320,-2.27
14332,-4.61
14344,-6.95
14356,-8.86
14368,-9.88
14380,-9.71
14392,-8.32
14404,-5.99
14416,-3.15
14428,-0.28
14440,2.31
14451,4.43
14462,6.05
14474,7.16
14486,7.76
14498,7.87
14510,7.57
14522,7.04
14534,6.47
14546,6.0
14558,5.69
14570,5.49
14582,5.31
14594,5.06
14606,4.66
14618,4.0
14630,2.91
14641,1.24
14652,-1.02
14664,-3.7
14676,-6.44
14688,-8.85
14700,-10.68
14712,-11.93
14724,-12.77
14736,-13.44
14748,-14.06
14760,-14.56
14772,-14.78
14784,-14.57
14796,-13.89
14808,-12.83
14820,-11.42
14831,-9.55
14842,-6.98
14854,-3.47
14866,0.99
14878,6.11
14890,11.27
14902,15.66
14914,18.62
14926,19.83
14938,19.43
14950,17.93
14962,15.95
14974,13.99
14986,12.39
14998,11.27
15010,10.56
15021,10.05
15032,9.5
15044,8.68
15056,7.49
15068,6.0
15080,4.44
15092,3.21
15104,2.66
15116,2.86
15128,3.52
15140,3.99
15152,3.63
15164,2.11
15176,-0.36
15188,-2.98
15200,-4.31
15211,-2.92
15222,1.87
15234,9.42
15246,17.89
15258,25.0
15270,28.86
15282,28.6
15294,24.59
15306,18.56
15318,12.67
15330,8.64
15342,7.18
15354,8.02
15366,10.35
15378,12.91
15390,13.82
15401,10.7
15412,1.97
15424,-12.64
15436,-31.69
15448,-51.99
15460,-69.13
15472,-78.45
15484,-76.68
15496,-63.46
15508,-41.65
15520,-15.49
15532,10.48
15544,32.37
15556,47.65
15568,53.72
15580,49.42
15591,37.16
15602,22.94
15614,8.84
15626,-4.72
15638,-17.33
15650,-28.3
15662,-37.13
15674,-43.53
15686,-47.2
15698,-47.93
15710,-46.09
15722,-42.64
15734,-38.09
15746,-32.56
15758,-26.2
15770,-19.24
15781,-11.99
15792,-4.71
15804,2.3
15816,8.48
15828,13.03
15840,15.85
15852,17.41
15864,18.31
15876,19.0
15888,19.62
15900,20.14
15912,20.38
15924,19.99
15936,18.55
15948,16.17
15960,13.3
15971,10.45
15982,7.98
15994,6.01
16006,4.58
16018,3.58
16030,2.78
16042,1.81
16054,0.52
16066,-1.1
16078,-2.96
16090,-4.96
16102,-6.95
16114,-8.75
16126,-10.13
16138,-10.87
16150,-10.89
16161,-10.16
16172,-8.75
16184,-6.92
16196,-4.96
16208,-3.12
16220,-1.55
16232,-0.24
16244,0.87
16256,1.81
16268,2.56
16280,3.08
16292,3.34
16304,3.41
16316,3.36
16328,3.29
16340,3.28
16351,3.32
16362,3.38
16374,3.4
16386,3.26
16398,2.84
16410,2.03
16422,0.83
16434,-0.68
16446,-2.31
16458,-3.8
16470,-5.0
16482,-5.88
16494,-6.55
16506,-7.18
16518,-7.88
16530,-8.69
16541,-9.49
16552,-10.13
16564,-10.44
16576,-10.23
16588,-9.32
16600,-7.59
16612,-4.99
16624,-1.66
16636,2.07
16648,5.75
16660,8.93
16672,11.31
16684,12.82
16696,13.58
16708,13.81
16720,13.65
16731,13.18
16742,12.41
16754,11.35
16766,10.11
16778,8.83
16790,7.67
16802,6.72
16814,5.96
16826,5.33
16838,4.69
16850,3.97
16862,3.11
16874,2.07
16886,0.89
16898,-0.36
16910,-1.59
16921,-2.67
16932,-3.49
16944,-4.06
16956,-4.45
16968,-4.83
16980,-5.4
16992,-6.26
17004,-7.38
17016,-8.59
17028,-9.57
17040,-10.03
17052,-9.74
17064,-8.66
17076,-6.94
17088,-4.87
17100,-2.74
17111,-0.78
17122,0.92
17134,2.36
17146,3.57
17158,4.53
17170,5.12
17182,5.26
17194,4.94
17206,4.3
17218,3.58
17230,3.01
17242,2.68
17254,2.53
17266,2.4
17278,2.11
17290,1.6
17301,0.89
17312,0.1
17324,-0.65
17336,-1.28
17348,-1.8
17360,-2.25
17372,-2.71
17384,-3.23
17396,-3.89
17408,-4.73
17420,-5.75
17432,-6.87
17444,-7.9
17456,-8.59
17468,-8.67
17480,-7.98
17491,-6.5
17502,-4.39
17514,-1.94
17526,0.59
17538,2.95
17550,5.02
17562,6.75
17574,8.12
17586,9.09
17598,9.58
17610,9.54
17622,9.01
17634,8.12
17646,7.1
17658,6.19
17670,5.54
17681,5.16
17692,4.91
17704,4.61
17716,4.11
17728,3.34
17740,2.4
17752,1.42
17764,0.58
17776,-0.06
17788,-0.49
17800,-0.85
17812,-1.31
17824,-2.01
17836,-3.04
17848,-4.4
17860,-5.93
17871,-7.4
17882,-8.51
17894,-9.0
17906,-8.66
17918,-7.46
17930,-5.52
17942,-3.11
17954,-0.56
17966,1.79
17978,3.71
17990,5.09
18002,5.93
18014,6.32
18026,6.33
18038,6.06
18050,5.63
18061,5.13
18072,4.69
18084,4.41
18096,4.32
18108,4.38
18120,4.46
18132,4.39
18144,4.09
18156,3.56
18168,2.89
18180,2.2
18192,1.56
18204,0.95
18216,0.3
18228,-0.52
18240,-1.57
18251,-2.86
18262,-4.32
18274,-5.77
18286,-6.99
18298,-7.74
18310,-7.79
18322,-7.04
18334,-5.49
18346,-3.34
18358,-0.88
18370,1.53
18382,3.66
18394,5.36
18406,6.63
18418,7.51
18430,8.06
18441,8.29
18452,8.21
18464,7.83
18476,7.25
18488,6.63
18500,6.13
18512,5.85
18524,5.77
18536,5.74
18548,5.61
18560,5.32
18572,4.92
18584,4.57
18596,4.37
18608,4.36
18620,4.41
18631,4.34
18642,3.98
18654,3.16
18666,1.77
18678,-0.28
18690,-2.99
18702,-6.14
18714,-9.23
18726,-11.58
18738,-12.55
18750,-11.87
18762,-9.8
18774,-6.98
18786,-4.15
18798,-1.81
18810,-0.12
18821,1.06
18832,1.9
18844,2.46
18856,2.79
18868,2.99
18880,3.44
18892,4.63
18904,6.88
18916,10.15
18928,13.96
18940,17.63
18952,20.56
18964,22.37
18976,22.84
18988,21.81
19000,19.22
19011,15.27
19022,10.56
19034,6.08
19046,2.73
19058,0.91
19070,0.16
19082,-0.55
19094,-2.23
19106,-5.14
19118,-8.49
19130,-10.85
19142,-10.89
19154,-8.12
19166,-3.15
19178,2.71
19190,8.12
19201,12.29
19212,15.06
19224,16.72
19236,17.57
19248,17.72
19260,17.05
19272,15.45
19284,13.03
19296,10.15
19308,7.34
19320,5.03
19332,3.45
19344,2.54
19356,2.08
19368,1.74
19380,1.25
19391,0.48
19402,-0.56
19414,-1.7
19426,-2.7
19438,-3.33
19450,-3.5
19462,-3.34
19474,-3.15
19486,-3.31
19498,-4.1
19510,-5.6
19522,-7.63
19534,-9.79
19546,-11.5
19558,-12.26
19570,-11.73
19581,-9.88
19592,-6.96
19604,-3.45
19616,0.1
19628,3.18
19640,5.44
19652,6.69
19664,6.93
19676,6.3
19688,5.05
19700,3.5
19712,1.92
19724,0.51
19736,-0.65
19748,-1.56
19760,-2.22
19771,-2.63
19782,-2.76
19794,-2.65
19806,-2.47
19818,-2.5
19830,-2.96
19842,-3.88
19854,-5.03
19866,-6.04
19878,-6.63
19890,-6.79
19902,-6.81
19914,-7.14
19926,-8.1
19938,-9.74
19950,-11.75
19961,-13.6
19972,-14.74
19984,-14.78
19996,-13.63
20008,-11.45
20020,-8.59
20032,-5.47
20044,-2.47
20056,0.11
20068,2.08
20080,3.34
20092,3.88
20104,3.71
20116,2.95
20128,1.8
20140,0.5
20151,-0.65
20162,-1.38
20174,-1.58
20186,-1.27
20198,-0.67
20210,-0.09
20222,0.12
20234,-0.25
20246,-1.24
20258,-2.66
20270,-4.16
20282,-5.42
20294,-6.29
20306,-6.83
20318,-7.3
20330,-7.98
20341,-9.05
20352,-10.47
20364,-12.05
20376,-13.55
20388,-14.69
20400,-15.21
20412,-14.84
20424,-13.38
20436,-10.78
20448,-7.26
20460,-3.29
20472,0.49
20484,3.49
20496,5.34
20508,5.97
20520,5.53
20531,4.26
20542,2.43
20554,0.28
20566,-1.9
20578,-3.8
20590,-5.13
20602,-5.76
20614,-5.7
20626,-5.19
20638,-4.56
20650,-4.14
20662,-4.24
20674,-5.07
20686,-6.67
20698,-8.76
20710,-10.77
20721,-12.0
20732,-11.96
20744,-10.7
20756,-8.86
20768,-7.34
20780,-6.74
20792,-7.02
20804,-7.46
20816,-7.14
20828,-5.56
20840,-2.88
20852,0.22
20864,3.13
20876,5.73
20888,8.47
20900,11.93
20911,16.32
20922,21.19
20934,25.63
20946,28.79
20958,30.41
20970,30.81
20982,30.58
20994,30.14
