seconds,BVP
0,2.09
12,-9.85
24,-21.97
36,-34.21
47,-46.24
58,-57.43
70,-66.8
82,-73.34
94,-76.36
106,-75.68
118,-71.8
130,-65.63
142,-58.28
154,-50.59
166,-43.06
178,-35.79
190,-28.66
202,-21.46
214,-14.08
226,-6.58
237,0.89
248,8.15
260,14.97
272,21.19
284,26.67
296,31.34
308,35.2
320,38.28
332,40.64
344,42.3
356,43.25
368,43.36
380,42.57
392,40.81
404,38.02
416,34.08
427,28.67
438,21.33
450,11.61
462,-0.7
474,-15.34
486,-31.48
498,-47.93
510,-63.37
522,-76.76
534,-87.5
546,-95.42
558,-100.62
570,-103.23
582,-103.35
594,-101.08
606,-96.73
617,-90.93
628,-84.53
640,-78.44
652,-73.17
664,-68.66
676,-64.26
688,-58.96
700,-51.87
712,-42.61
724,-31.42
736,-19.1
748,-6.65
760,5.06
772,15.53
784,24.67
796,32.65
807,39.78
818,46.37
830,52.59
842,58.48
854,63.81
866,68.11
878,70.79
890,71.32
902,69.55
914,65.88
926,61.24
938,56.75
950,53.34
962,51.43
974,50.76
986,50.61
997,50.05
1008,48.3
1020,44.94
1032,39.95
1044,33.72
1056,26.84
1068,20.0
1080,13.75
1092,8.41
1104,4.0
1116,0.33
1128,-2.83
1140,-5.66
1152,-8.14
1164,-10.16
1176,-11.61
1187,-12.49
1198,-12.97
1210,-13.28
1222,-13.64
1234,-14.24
1246,-15.32
1258,-17.16
1270,-20.06
1282,-24.12
1294,-29.08
1306,-34.08
1318,-37.95
1330,-39.53
1342,-38.14
1354,-33.85
1366,-27.48
1377,-20.2
1388,-13.16
1400,-7.1
1412,-2.33
1424,1.13
1436,3.41
1448,4.64
1460,4.93
1472,4.41
1484,3.26
1496,1.76
1508,0.13
1520,-1.44
1532,-2.87
1544,-4.14
1556,-5.25
1567,-6.2
1578,-6.93
1590,-7.43
1602,-7.76
1614,-8.12
1626,-8.84
1638,-10.23
1650,-12.45
1662,-15.36
1674,-18.52
1686,-21.25
1698,-22.92
1710,-23.17
1722,-22.01
1734,-19.78
1746,-17.0
1757,-14.13
1768,-11.43
1780,-8.89
1792,-6.28
1804,-3.35
1816,0.01
1828,3.67
1840,7.2
1852,10.0
1864,11.41
1876,11.03
1888,8.93
1900,5.84
1912,3.07
1924,2.17
1936,4.47
1947,10.55
1958,20.1
1970,31.95
1982,44.54
1994,56.3
2006,66.04
2018,72.97
2030,76.7
2042,77.14
2054,74.47
2066,69.21
2078,62.15
2090,54.24
2102,46.31
2114,38.89
2126,32.2
2137,26.21
2148,20.84
2160,15.95
2172,11.35
2184,6.64
2196,1.31
2208,-5.08
2220,-12.53
2232,-20.38
2244,-27.34
2256,-31.96
2268,-33.22
2280,-31.1
2292,-26.6
2304,-21.36
2316,-17.07
2327,-14.79
2338,-14.71
2350,-16.39
2362,-19.1
2374,-22.37
2386,-26.09
2398,-30.52
2410,-35.93
2422,-42.32
2434,-49.25
2446,-55.9
2458,-61.31
2470,-64.59
2482,-65.26
2494,-63.28
2506,-59.06
2517,-53.3
2528,-46.72
2540,-39.93
2552,-33.32
2564,-27.11
2576,-21.41
2588,-16.4
2600,-12.33
2612,-9.42
2624,-7.8
2636,-7.34
2648,-7.61
2660,-8.05
2672,-8.04
2684,-7.23
2696,-5.59
2707,-3.5
2718,-1.48
2730,-0.04
2742,0.61
2754,0.58
2766,0.22
2778,-0.15
2790,-0.42
2802,-0.75
2814,-1.48
2826,-2.9
2838,-5.08
2850,-7.77
2862,-10.58
2874,-13.11
2886,-15.11
2897,-16.63
2908,-17.84
2920,-19.06
2932,-20.6
2944,-22.71
2956,-25.51
2968,-28.94
2980,-32.65
2992,-36.03
3004,-38.29
3016,-38.73
3028,-36.92
3040,-32.96
3052,-27.43
3064,-21.18
3076,-15.07
3087,-9.69
3098,-5.17
3110,-1.38
3122,1.95
3134,4.98
3146,7.68
3158,9.88
3170,11.4
3182,12.22
3194,12.53
3206,12.74
3218,13.33
3230,14.81
3242,17.53
3254,21.56
3266,26.68
3277,32.36
3288,37.89
3300,42.53
3312,45.77
3324,47.37
3336,47.45
3348,46.33
3360,44.36
3372,41.8
3384,38.82
3396,35.52
3408,32.06
3420,28.7
3432,25.78
3444,23.57
3456,22.04
3467,20.88
3478,19.48
3490,17.11
3502,13.19
3514,7.49
3526,0.28
3538,-7.75
3550,-15.56
3562,-22.07
3574,-26.26
3586,-27.52
3598,-25.68
3610,-21.04
3622,-14.21
3634,-5.95
3646,3.0
3657,12.09
3668,20.96
3680,29.41
3692,37.33
3704,44.62
3716,51.14
3728,56.65
3740,60.86
3752,63.49
3764,64.31
3776,63.24
3788,60.33
3800,55.74
3812,49.74
3824,42.66
3836,34.94
3847,27.18
3858,20.08
3870,14.3
3882,10.28
3894,8.06
3906,7.25
3918,7.22
3930,7.31
3942,7.12
3954,6.52
3966,5.68
3978,4.79
3990,3.94
4002,2.98
4014,1.6
4026,-0.58
4037,-3.83
4048,-8.19
4060,-13.45
4072,-19.19
4084,-24.92
4096,-30.2
4108,-34.78
4120,-38.68
4132,-42.09
4144,-45.31
4156,-48.55
4168,-51.86
4180,-55.03
4192,-57.64
4204,-59.15
4216,-58.99
4227,-56.71
4238,-52.16
4250,-45.55
4262,-37.46
4274,-28.82
4286,-20.56
4298,-13.52
4310,-8.12
4322,-4.43
4334,-2.2
4346,-1.01
4358,-0.52
4370,-0.53
4382,-0.97
4394,-1.82
4406,-3.01
4417,-4.39
4428,-5.7
4440,-6.73
4452,-7.3
4464,-7.41
4476,-7.2
4488,-6.83
4500,-6.49
4512,-6.2
4524,-5.98
4536,-5.78
4548,-5.7
4560,-5.93
4572,-6.72
4584,-8.25
4596,-10.53
4607,-13.33
4618,-16.21
4630,-18.74
4642,-20.58
4654,-21.63
4666,-22.03
4678,-22.08
4690,-22.03
4702,-22.02
4714,-21.96
4726,-21.69
4738,-21.0
4750,-19.77
4762,-18.08
4774,-16.33
4786,-15.09
4797,-14.88
4808,-15.91
4820,-17.91
4832,-20.26
4844,-22.03
4856,-22.26
4868,-20.24
4880,-15.65
4892,-8.55
4904,0.7
4916,11.55
4928,23.34
4940,35.18
4952,46.28
4964,56.14
4976,64.47
4987,71.19
4998,76.34
5010,79.95
5022,82.26
5034,83.52
5046,83.62
5058,82.79
5070,81.79
5082,81.43
5094,82.29
5106,84.5
5118,87.51
5130,90.73
5142,93.23
5154,93.24
5166,89.91
5177,83.85
5188,76.53
5200,69.85
5212,65.61
5224,64.86
5236,68.49
5248,76.16
5260,85.34
5272,93.84
5284,100.89
5296,106.54
5308,111.61
5320,117.32
5332,124.65
5344,134.93
5356,148.12
5367,161.05
5378,170.61
5390,175.35
5402,175.09
5414,171.17
5426,166.04
5438,155.54
5450,137.54
5462,121.86
5474,112.24
5486,105.34
5498,99.32
5510,93.04
5522,85.94
5534,77.65
5546,67.54
5557,55.86
5568,42.62
5580,26.13
5592,5.55
5604,-18.51
5616,-45.45
5628,-74.61
5640,-105.04
5652,-135.08
5664,-161.57
5676,-181.32
5688,-193.48
5700,-198.23
5712,-196.49
5724,-190.13
5736,-181.11
5747,-170.72
5758,-159.46
5770,-146.91
5782,-133.0
5794,-119.15
5806,-106.77
5818,-96.4
5830,-87.78
5842,-79.86
5854,-71.3
5866,-61.19
5878,-49.34
5890,-36.68
5902,-25.4
5914,-17.56
5926,-14.28
5937,-15.59
5948,-20.45
5960,-27.16
5972,-33.93
5984,-39.31
5996,-42.51
6008,-43.48
6020,-42.51
6032,-39.97
6044,-36.44
6056,-32.82
6068,-30.27
6080,-29.83
6092,-31.95
6104,-35.96
6116,-40.12
6127,-42.23
6138,-40.52
6150,-34.58
6162,-25.67
6174,-16.23
6186,-8.91
6198,-5.53
6210,-6.54
6222,-11.12
6234,-17.92
6246,-25.8
6258,-34.25
6270,-43.33
6282,-53.14
6294,-63.38
6306,-73.03
6317,-80.57
6328,-84.34
6340,-83.25
6352,-77.12
6364,-66.95
6376,-54.63
6388,-42.58
6400,-33.08
6412,-27.82
6424,-27.57
6436,-32.1
6448,-40.41
6460,-51.05
6472,-62.48
6484,-73.39
6496,-82.84
6507,-90.3
6518,-95.58
6530,-98.68
6542,-99.57
6554,-98.13
6566,-94.0
6578,-86.69
6590,-75.83
6602,-61.34
6614,-43.66
6626,-23.74
6638,-2.99
6650,16.81
6662,33.73
6674,46.01
6686,52.53
6697,53.17
6708,49.12
6720,42.61
6732,36.27
6744,32.2
6756,31.38
6768,33.41
6780,36.99
6792,40.72
6804,43.68
6816,45.66
6828,46.81
6840,47.34
6852,47.13
6864,45.79
6876,42.75
6887,37.49
6898,29.41
6910,17.83
6922,2.1
6934,-18.05
6946,-41.69
6958,-66.33
6970,-88.04
6982,-102.55
6994,-106.69
7006,-99.68
7018,-83.52
7030,-62.24
7042,-40.41
7054,-21.63
7066,-7.63
7077,1.58
7088,7.0
7100,9.68
7112,10.28
7124,9.02
7136,6.13
7148,2.13
7160,-2.04
7172,-5.4
7184,-7.28
7196,-7.57
7208,-6.86
7220,-6.03
7232,-5.85
7244,-6.63
7256,-8.07
7267,-9.51
7278,-10.32
7290,-10.27
7302,-9.59
7314,-8.87
7326,-8.65
7338,-9.19
7350,-10.31
7362,-11.67
7374,-12.91
7386,-13.92
7398,-14.83
7410,-15.88
7422,-17.31
7434,-19.15
7446,-21.29
7457,-23.48
7468,-25.44
7480,-27.04
7492,-28.31
7504,-29.5
7516,-31.0
7528,-33.17
7540,-36.24
7552,-40.09
7564,-44.21
7576,-47.81
7588,-49.93
7600,-49.76
7612,-46.83
7624,-41.13
7636,-33.17
7647,-23.76
7658,-13.93
7670,-4.55
7682,3.77
7694,10.78
7706,16.53
7718,21.17
7730,24.85
7742,27.6
7754,29.45
7766,30.43
7778,30.66
7790,30.38
7802,29.85
7814,29.29
7826,28.88
7837,28.72
7848,28.87
7860,29.35
7872,30.07
7884,30.86
7896,31.48
7908,31.67
7920,31.23
7932,30.09
7944,28.3
7956,26.01
7968,23.37
7980,20.58
7992,17.79
8004,15.1
8016,12.55
8027,10.03
8038,7.33
8050,4.2
8062,0.46
8074,-3.86
8086,-8.55
8098,-13.25
8110,-17.62
8122,-21.5
8134,-24.96
8146,-28.27
8158,-31.79
8170,-35.85
8182,-40.61
8194,-46.0
8206,-51.64
8217,-56.82
8228,-60.57
8240,-61.94
8252,-60.21
8264,-55.21
8276,-47.35
8288,-37.52
8300,-26.87
8312,-16.44
8324,-6.94
8336,1.35
8348,8.4
8360,14.36
8372,19.3
8384,23.23
8396,26.06
8407,27.83
8418,28.64
8430,28.8
8442,28.61
8454,28.37
8466,28.21
8478,28.1
8490,27.94
8502,27.71
8514,27.44
8526,27.28
8538,27.36
8550,27.68
8562,28.06
8574,28.21
8586,27.85
8597,26.76
8608,24.97
8620,22.65
8632,20.13
8644,17.7
8656,15.61
8668,13.98
8680,12.72
8692,11.64
8704,10.46
8716,8.95
8728,7.02
8740,4.73
8752,2.28
8764,-0.11
8776,-2.26
8787,-4.15
8798,-5.89
8810,-7.75
8822,-10.03
8834,-13.02
8846,-16.78
8858,-21.06
8870,-25.23
8882,-28.25
8894,-28.94
8906,-26.27
8918,-19.71
8930,-9.44
8942,3.61
8954,18.03
8966,32.33
8977,45.32
8988,56.42
9000,65.59
9012,73.17
9024,79.6
9036,85.22
9048,90.25
9060,94.93
9072,99.61
9084,104.7
9096,110.66
9108,117.87
9120,126.57
9132,136.99
9144,149.41
9156,164.05
9167,180.7
9178,198.51
9190,216.02
9202,231.8
9214,244.99
9226,255.66
9238,264.47
9250,271.81
9262,277.08
9274,278.54
9286,274.07
9298,262.23
9310,243.19
9322,218.7
9334,191.39
9346,163.4
9357,135.7
9368,108.01
9380,79.32
9392,48.78
9404,15.83
9416,-20.14
9428,-60.66
9440,-108.19
9452,-164.88
9464,-230.64
9476,-301.1
9488,-367.43
9500,-418.42
9512,-444.39
9524,-441.05
9536,-411.32
9547,-364.0
9558,-310.37
9570,-260.44
9582,-220.78
9594,-194.52
9606,-182.46
9618,-183.93
9630,-196.39
9642,-214.53
9654,-230.15
9666,-234.02
9678,-219.26
9690,-184.62
9702,-135.51
9714,-82.09
9726,-35.52
9737,-3.63
9748,11.27
9760,11.98
9772,4.0
9784,-7.13
9796,-17.74
9808,-26.24
9820,-32.37
9832,-36.09
9844,-37.11
9856,-35.03
9868,-29.87
9880,-22.41
9892,-14.02
9904,-6.13
9916,0.39
9927,5.5
9938,9.88
9950,14.38
9962,19.48
9974,25.02
9986,30.32
9998,34.67
10010,37.71
10022,39.65
10034,41.24
10046,43.31
10058,46.43
10070,50.63
10082,55.39
10094,59.9
10106,63.36
10117,65.16
10128,65.07
10140,63.18
10152,59.76
10164,55.25
10176,50.06
10188,44.57
10200,39.04
10212,33.6
10224,28.17
10236,22.51
10248,16.36
10260,9.71
10272,3.04
10284,-2.63
10296,-5.92
10307,-5.54
10318,-0.71
10330,8.61
10342,21.7
10354,37.37
10366,54.31
10378,71.22
10390,86.94
10402,100.4
10414,110.56
10426,116.69
10438,118.47
10450,116.22
10462,110.84
10474,103.54
10486,95.56
10497,87.88
10508,81.13
10520,75.66
10532,71.66
10544,69.26
10556,68.5
10568,69.17
10580,70.74
10592,72.28
10604,72.66
10616,70.98
10628,66.86
10640,60.6
10652,53.15
10664,45.65
10676,39.06
10687,33.85
10698,30.0
10710,27.15
10722,25.05
10734,23.68
10746,23.25
10758,23.99
10770,25.81
10782,28.14
10794,30.01
10806,30.39
10818,28.53
10830,24.39
10842,18.56
10854,12.02
10866,5.79
10877,0.54
10888,-3.64
10900,-7.33
10912,-11.78
10924,-18.81
10936,-30.49
10948,-48.7
10960,-74.3
10972,-106.35
10984,-141.8
10996,-175.95
11008,-203.72
11020,-221.25
11032,-227.18
11044,-222.82
11056,-211.35
11067,-196.32
11078,-180.44
11090,-165.19
11102,-151.17
11114,-138.71
11126,-128.17
11138,-119.73
11150,-112.9
11162,-106.31
11174,-98.33
11186,-87.98
11198,-75.77
11210,-63.67
11222,-54.11
11234,-48.72
11246,-47.4
11257,-48.4
11268,-49.26
11280,-48.08
11292,-44.24
11304,-38.36
11316,-31.56
11328,-24.61
11340,-17.61
11352,-10.2
11364,-2.1
11376,6.51
11388,14.95
11400,22.37
11412,28.27
11424,32.65
11436,35.93
11447,38.58
11458,40.82
11470,42.5
11482,43.29
11494,42.89
11506,41.35
11518,38.94
11530,36.12
11542,33.21
11554,30.42
11566,27.82
11578,25.46
11590,23.38
11602,21.61
11614,20.13
11626,18.84
11637,17.52
11648,15.97
11660,13.93
11672,11.25
11684,7.91
11696,4.04
11708,0.07
11720,-3.25
11732,-5.01
11744,-4.32
11756,-0.69
11768,5.78
11780,14.38
11792,24.01
11804,33.58
11816,42.35
11827,49.97
11838,56.42
11850,61.78
11862,66.05
11874,69.06
11886,70.63
11898,70.63
11910,69.18
11922,66.59
11934,63.32
11946,59.86
11958,56.62
11970,53.87
11982,51.78
11994,50.44
12006,49.94
12017,50.41
12028,51.94
12040,54.54
12052,57.92
12064,61.54
12076,64.62
12088,66.43
12100,66.49
12112,64.74
12124,61.56
12136,57.49
12148,53.08
12160,48.68
12172,44.45
12184,40.53
12196,37.15
12207,34.73
12218,33.77
12230,34.6
12242,37.28
12254,41.39
12266,46.18
12278,50.61
12290,53.55
12302,54.04
12314,51.44
12326,45.62
12338,37.03
12350,26.54
12362,15.25
12374,4.19
12386,-5.92
12397,-14.72
12408,-22.18
12420,-28.5
12432,-34.05
12444,-39.29
12456,-44.7
12468,-50.52
12480,-56.47
12492,-61.71
12504,-64.86
12516,-64.44
12528,-59.52
12540,-50.27
12552,-38.18
12564,-25.84
12576,-16.07
12587,-10.98
12598,-11.15
12610,-15.53
12622,-21.92
12634,-28.12
12646,-32.79
12658,-35.86
12670,-38.06
12682,-40.05
12694,-41.54
12706,-41.16
12718,-37.04
12730,-27.84
12742,-13.69
12754,3.61
12766,21.16
12777,36.01
12788,46.14
12800,50.82
12812,50.49
12824,46.15
12836,38.87
12848,29.57
12860,19.18
12872,8.81
12884,-0.33
12896,-7.25
12908,-11.58
12920,-13.81
12932,-15.13
12944,-16.83
12956,-19.75
12967,-23.89
12978,-28.6
12990,-33.0
13002,-36.44
13014,-38.91
13026,-40.98
13038,-43.58
13050,-47.65
13062,-53.85
13074,-62.17
13086,-71.68
13098,-80.61
13110,-86.58
13122,-87.41
13134,-81.91
13146,-70.41
13157,-54.73
13168,-37.53
13180,-21.29
13192,-7.59
13204,3.11
13216,11.1
13228,16.83
13240,20.47
13252,22.01
13264,21.53
13276,19.52
13288,16.91
13300,14.78
13312,13.85
13324,14.24
13336,15.46
13347,16.73
13358,17.37
13370,17.03
13382,15.7
13394,13.56
13406,10.74
13418,7.24
13430,3.0
13442,-1.98
13454,-7.5
13466,-13.12
13478,-18.33
13490,-22.64
13502,-25.8
13514,-27.88
13526,-29.23
13537,-30.2
13548,-31.0
13560,-31.63
13572,-31.85
13584,-31.45
13596,-30.41
13608,-28.98
13620,-27.54
13632,-26.52
13644,-26.13
13656,-26.34
13668,-26.99
13680,-27.82
13692,-28.67
13704,-29.48
13716,-30.21
13727,-30.8
13738,-31.0
13750,-30.41
13762,-28.54
13774,-24.96
13786,-19.46
13798,-12.15
13810,-3.53
13822,5.62
13834,14.38
13846,21.97
13858,27.85
13870,31.85
13882,34.06
13894,34.72
13906,34.09
13917,32.42
13928,30.0
13940,27.28
13952,24.85
13964,23.26
13976,22.86
13988,23.61
14000,25.09
14012,26.69
14024,27.88
14036,28.46
14048,28.57
14060,28.5
14072,28.42
14084,28.35
14096,28.09
14107,27.46
14118,26.37
14130,24.97
14142,23.45
14154,21.96
14166,20.5
14178,18.96
14190,17.18
14202,15.13
14214,12.87
14226,10.58
14238,8.38
14250,6.34
14262,4.41
14274,2.54
14286,0.64
14297,-1.36
14308,-3.55
14320,-6.1
14332,-9.21
14344,-12.97
14356,-17.25
14368,-21.59
14380,-25.25
14392,-27.38
14404,-27.31
14416,-24.75
14428,-19.91
14440,-13.38
14452,-5.97
14464,1.49
14476,8.35
14487,14.15
14498,18.68
14510,21.88
14522,23.83
14534,24.66
14546,24.55
14558,23.77
14570,22.6
14582,21.33
14594,20.22
14606,19.42
14618,19.0
14630,18.93
14642,19.11
14654,19.46
14666,19.93
14677,20.51
14688,21.23
14700,22.1
14712,23.05
14724,23.97
14736,24.75
14748,25.28
14760,25.59
14772,25.76
14784,25.9
14796,26.15
14808,26.58
14820,27.22
14832,28.03
14844,28.95
14856,29.82
14867,30.39
14878,30.38
14890,29.5
14902,27.63
14914,24.84
14926,21.39
14938,17.66
14950,13.99
14962,10.64
14974,7.76
14986,5.45
14998,3.84
15010,3.21
15022,3.94
15034,6.41
15046,10.95
15057,17.71
15068,26.57
15080,37.14
15092,48.71
15104,60.25
15116,70.54
15128,78.26
15140,82.29
15152,82.03
15164,77.7
15176,70.34
15188,61.75
15200,53.88
15212,48.34
15224,45.88
15236,46.32
15247,48.65
15258,51.55
15270,53.71
15282,54.1
15294,52.11
15306,47.37
15318,39.84
15330,29.77
15342,17.87
15354,5.29
15366,-6.59
15378,-16.5
15390,-23.71
15402,-28.26
15414,-30.84
15426,-32.53
15437,-34.18
15448,-36.21
15460,-38.45
15472,-40.41
15484,-41.63
15496,-41.94
15508,-41.38
15520,-40.08
15532,-37.98
15544,-34.85
15556,-30.48
15568,-25.03
15580,-19.07
15592,-13.46
15604,-8.92
15616,-5.64
15627,-3.1
15638,-0.43
15650,3.16
15662,7.93
15674,13.45
15686,18.91
15698,23.55
15710,27.03
15722,29.53
15734,31.52
15746,33.46
15758,35.56
15770,37.73
15782,39.73
15794,41.27
15806,42.05
15817,41.76
15828,40.04
15840,36.6
15852,31.43
15864,24.96
15876,18.09
15888,11.9
15900,7.22
15912,4.29
15924,2.74
15936,1.93
15948,1.44
15960,1.44
15972,2.66
15984,5.98
15996,11.71
16007,19.27
16018,27.19
16030,33.75
16042,37.71
16054,38.92
16066,38.35
16078,37.59
16090,38.14
16102,40.75
16114,45.36
16126,51.22
16138,57.46
16150,63.45
16162,68.96
16174,73.93
16186,78.29
16197,81.63
16208,83.25
16220,82.4
16232,78.68
16244,72.29
16256,64.11
16268,55.49
16280,47.77
16292,42.03
16304,38.93
16316,38.84
16328,42.19
16340,49.57
16352,61.64
16364,78.63
16376,99.75
16387,122.96
16398,145.24
16410,163.29
16422,174.38
16434,177.07
16446,171.29
16458,158.05
16470,138.86
16482,115.24
16494,88.66
16506,60.69
16518,33.25
16530,8.59
16542,-11.2
16554,-24.95
16566,-32.9
16577,-36.75
16588,-39.02
16600,-42.05
16612,-47.16
16624,-54.31
16636,-62.52
16648,-70.43
16660,-77.04
16672,-81.83
16684,-84.6
16696,-85.21
16708,-83.42
16720,-79.05
16732,-72.26
16744,-63.65
16756,-54.23
16767,-45.11
16778,-37.14
16790,-30.7
16802,-25.69
16814,-21.72
16826,-18.35
16838,-15.47
16850,-13.32
16862,-12.38
16874,-13.07
16886,-15.33
16898,-18.54
16910,-21.73
16922,-24.08
16934,-25.32
16946,-25.85
16957,-26.43
16968,-27.75
16980,-30.02
16992,-32.91
17004,-35.93
17016,-38.73
17028,-41.3
17040,-43.9
17052,-46.63
17064,-49.32
17076,-51.51
17088,-52.73
17100,-52.89
17112,-52.4
17124,-52.02
17136,-52.47
17147,-54.12
17158,-56.85
17170,-60.33
17182,-64.26
17194,-68.59
17206,-73.4
17218,-78.72
17230,-84.24
17242,-89.29
17254,-93.04
17266,-94.81
17278,-94.43
17290,-92.15
17302,-88.55
17314,-84.26
17326,-79.9
17337,-75.95
17348,-72.9
17360,-71.18
17372,-70.99
17384,-72.24
17396,-74.45
17408,-76.99
17420,-79.35
17432,-81.38
17444,-83.26
17456,-85.37
17468,-88.01
17480,-91.14
17492,-94.46
17504,-97.46
17516,-99.76
17527,-101.35
17538,-102.71
17550,-104.73
17562,-108.44
17574,-114.5
17586,-122.78
17598,-132.12
17610,-140.48
17622,-145.48
17634,-145.17
17646,-138.79
17658,-127.03
17670,-111.89
17682,-96.06
17694,-81.99
17706,-71.28
17717,-64.2
17728,-59.93
17740,-57.03
17752,-54.07
17764,-50.25
17776,-45.66
17788,-41.15
17800,-37.99
17812,-37.27
17824,-39.34
17836,-43.43
17848,-47.57
17860,-48.98
17872,-45.01
17884,-34.16
17896,-16.99
17907,3.62
17918,23.11
17930,36.54
17942,40.21
17954,32.81
17966,15.75
17978,-7.57
17990,-33.04
18002,-57.09
18014,-77.51
18026,-93.47
18038,-105.1
18050,-112.79
18062,-116.87
18074,-117.52
18086,-115.03
18097,-109.97
18108,-103.22
18120,-95.72
18132,-88.13
18144,-80.53
18156,-72.55
18168,-63.76
18180,-54.15
18192,-44.34
18204,-35.48
18216,-28.9
18228,-25.62
18240,-26.1
18252,-30.05
18264,-36.48
18276,-43.82
18287,-50.15
18298,-53.6
18310,-52.81
18322,-47.4
18334,-38.02
18346,-26.09
18358,-13.31
18370,-1.04
18382,9.95
18394,19.38
18406,27.12
18418,32.98
18430,36.7
18442,38.37
18454,38.78
18466,39.56
18477,42.95
18488,51.11
18500,65.25
18512,85.0
18524,108.25
18536,131.51
18548,150.94
18560,163.33
18572,167.0
18584,162.03
18596,150.07
18608,133.6
18620,115.3
18632,97.42
18644,81.53
18656,68.54
18667,58.82
18678,52.39
18690,49.12
18702,48.65
18714,50.37
18726,53.2
18738,55.66
18750,56.0
18762,52.68
18774,44.96
18786,33.23
18798,19.04
18810,4.63
18822,-7.65
18834,-15.96
18846,-19.36
18857,-18.02
18868,-13.21
18880,-7.03
18892,-1.94
18904,-0.01
18916,-2.12
18928,-7.52
18940,-14.04
18952,-18.92
18964,-19.89
18976,-16.05
18988,-8.05
19000,2.28
19012,12.84
19024,21.95
19036,28.71
19047,33.0
19058,35.11
19070,35.45
19082,34.42
19094,32.4
19106,29.7
19118,26.65
19130,23.5
19142,20.44
19154,17.51
19166,14.66
19178,11.78
19190,8.89
19202,6.23
19214,4.36
19226,4.07
19237,6.16
19248,11.07
19260,18.6
19272,27.78
19284,37.07
19296,44.73
19308,49.38
19320,50.5
19332,48.51
19344,44.57
19356,40.13
19368,36.37
19380,34.07
19392,33.76
19404,36.09
19416,41.9
19427,51.95
19438,66.38
19450,84.25
19462,103.55
19474,121.82
19486,137.04
19498,148.26
19510,155.7
19522,160.1
19534,162.08
19546,161.62
19558,158.35
19570,152.13
19582,143.58
19594,134.16
19606,125.55
19617,118.87
19628,114.04
19640,109.81
19652,104.31
19664,95.83
19676,83.47
19688,67.41
19700,48.56
19712,28.25
19724,7.73
19736,-12.01
19748,-30.31
19760,-46.73
19772,-60.97
19784,-72.69
19796,-81.48
19807,-86.94
19818,-88.85
19830,-87.46
19842,-83.56
19854,-78.45
19866,-73.59
19878,-70.23
19890,-68.97
19902,-69.79
19914,-72.13
19926,-75.25
19938,-78.49
19950,-81.34
19962,-83.47
19974,-84.63
19986,-84.74
19997,-83.99
20008,-82.91
20020,-82.31
20032,-82.97
20044,-85.38
20056,-89.4
20068,-94.31
20080,-99.03
20092,-102.54
20104,-104.35
20116,-104.76
20128,-104.83
20140,-106.11
20152,-110.11
20164,-117.7
20176,-128.64
20187,-141.34
20198,-153.16
20210,-161.08
20222,-162.64
20234,-156.8
20246,-144.3
20258,-127.29
20270,-108.52
20282,-90.45
20294,-74.61
20306,-61.48
20318,-50.71
20330,-41.37
20342,-32.19
20354,-21.8
20366,-9.18
20377,5.8
20388,21.93
20400,36.81
20412,47.54
20424,51.83
20436,48.93
20448,39.74
20460,26.2
20472,10.28
20484,-6.62
20496,-23.56
20508,-39.35
20520,-52.06
20532,-59.27
20544,-59.29
20556,-52.43
20567,-41.51
20578,-31.1
20590,-25.63
20602,-27.54
20614,-36.38
20626,-49.39
20638,-63.08
20650,-74.73
20662,-83.07
20674,-88.08
20686,-90.44
20698,-91.09
20710,-91.29
20722,-92.68
20734,-96.76
20746,-104.03
20757,-113.09
20768,-120.91
20780,-124.04
20792,-120.51
20804,-110.99
20816,-98.5
20828,-86.88
20840,-78.73
20852,-74.23
20864,-71.39
20876,-67.46
20888,-60.56
20900,-50.49
20912,-38.54
20924,-26.54
20936,-15.88
20947,-7.16
20958,-0.4
20970,4.49
20982,7.27
20994,7.43
