seconds,BVP
0,-24.59
11,-27.99
22,-31.19
34,-33.65
46,-35.02
58,-35.27
70,-34.63
82,-33.29
94,-31.25
106,-28.2
118,-23.79
130,-17.86
142,-10.73
154,-3.17
166,3.83
178,9.37
190,12.93
201,14.47
212,14.32
224,12.99
236,11.01
248,8.86
260,6.99
272,5.83
284,5.71
296,6.72
308,8.66
320,11.16
332,13.81
344,16.37
356,18.81
368,21.24
380,23.76
391,26.3
402,28.57
414,30.22
426,30.94
438,30.59
450,29.12
462,26.53
474,22.76
486,17.77
498,11.62
510,4.61
522,-2.62
534,-9.24
546,-14.3
558,-17.08
570,-17.31
581,-15.37
592,-12.17
604,-8.89
616,-6.5
628,-5.42
640,-5.46
652,-6.0
664,-6.4
676,-6.37
688,-6.04
700,-5.74
712,-5.72
724,-5.84
736,-5.63
748,-4.54
760,-2.27
771,1.04
782,4.77
794,8.04
806,10.05
818,10.3
830,8.67
842,5.52
854,1.5
866,-2.57
878,-5.89
890,-7.86
902,-8.22
914,-7.17
926,-5.27
938,-3.27
950,-1.85
961,-1.45
972,-2.19
984,-3.96
996,-6.54
1008,-9.67
1020,-13.11
1032,-16.53
1044,-19.53
1056,-21.6
1068,-22.4
1080,-21.83
1092,-20.16
1104,-17.95
1116,-15.81
1128,-14.13
1140,-13.02
1151,-12.25
1162,-11.45
1174,-10.32
1186,-8.74
1198,-6.79
1210,-4.68
1222,-2.63
1234,-0.76
1246,0.92
1258,2.47
1270,3.94
1282,5.34
1294,6.63
1306,7.74
1318,8.58
1330,9.14
1341,9.42
1352,9.56
1364,9.64
1376,9.73
1388,9.8
1400,9.76
1412,9.49
1424,8.92
1436,8.06
1448,6.95
1460,5.67
1472,4.24
1484,2.68
1496,1.05
1508,-0.55
1520,-1.98
1531,-3.1
1542,-3.89
1554,-4.44
1566,-4.9
1578,-5.42
1590,-6.08
1602,-6.89
1614,-7.8
1626,-8.78
1638,-9.73
1650,-10.53
1662,-10.95
1674,-10.73
1686,-9.65
1698,-7.65
1710,-4.87
1721,-1.64
1732,1.65
1744,4.62
1756,7.06
1768,8.87
1780,10.13
1792,11.0
1804,11.65
1816,12.22
1828,12.79
1840,13.35
1852,13.88
1864,14.34
1876,14.77
1888,15.2
1900,15.67
1911,16.1
1922,16.35
1934,16.24
1946,15.68
1958,14.68
1970,13.44
1982,12.19
1994,11.12
2006,10.28
2018,9.6
2030,8.92
2042,8.08
2054,7.03
2066,5.79
2078,4.47
2090,3.19
2101,1.99
2112,0.91
2124,-0.08
2136,-0.98
2148,-1.81
2160,-2.58
2172,-3.33
2184,-4.11
2196,-4.99
2208,-5.99
2220,-7.07
2232,-8.13
2244,-9.11
2256,-9.94
2268,-10.63
2280,-11.13
2291,-11.34
2302,-11.12
2314,-10.27
2326,-8.69
2338,-6.42
2350,-3.58
2362,-0.4
2374,2.94
2386,6.32
2398,9.63
2410,12.83
2422,15.84
2434,18.63
2446,21.22
2458,23.69
2470,26.1
2481,28.4
2492,30.34
2504,31.57
2516,31.74
2528,30.68
2540,28.55
2552,25.67
2564,22.48
2576,19.31
2588,16.23
2600,13.13
2612,9.8
2624,6.04
2636,1.82
2648,-2.79
2660,-7.58
2671,-12.28
2682,-16.63
2694,-20.3
2706,-22.93
2718,-24.17
2730,-23.83
2742,-22.08
2754,-19.55
2766,-17.17
2778,-15.81
2790,-15.89
2802,-17.2
2814,-18.98
2826,-20.34
2838,-20.67
2850,-19.93
2861,-18.55
2872,-17.08
2884,-15.89
2896,-15.03
2908,-14.3
2920,-13.53
2932,-12.68
2944,-11.81
2956,-10.96
2968,-10.0
2980,-8.69
2992,-6.78
3004,-4.23
3016,-1.27
3028,1.65
3040,4.07
3051,5.67
3062,6.41
3074,6.45
3086,6.08
3098,5.49
3110,4.78
3122,3.92
3134,2.91
3146,1.8
3158,0.77
3170,0.03
3182,-0.27
3194,-0.15
3206,0.17
3218,0.41
3230,0.28
3241,-0.33
3252,-1.32
3264,-2.47
3276,-3.54
3288,-4.33
3300,-4.83
3312,-5.12
3324,-5.33
3336,-5.55
3348,-5.81
3360,-6.08
3372,-6.3
3384,-6.42
3396,-6.45
3408,-6.43
3420,-6.42
3431,-6.48
3442,-6.62
3454,-6.77
3466,-6.88
3478,-6.88
3490,-6.77
3502,-6.64
3514,-6.6
3526,-6.8
3538,-7.31
3550,-8.13
3562,-9.13
3574,-10.2
3586,-11.16
3598,-11.91
3610,-12.31
3621,-12.25
3632,-11.6
3644,-10.3
3656,-8.34
3668,-5.89
3680,-3.23
3692,-0.7
3704,1.42
3716,2.98
3728,3.98
3740,4.54
3752,4.77
3764,4.77
3776,4.6
3788,4.32
3800,4.05
3811,3.9
3822,3.96
3834,4.2
3846,4.51
3858,4.76
3870,4.84
3882,4.76
3894,4.63
3906,4.55
3918,4.54
3930,4.47
3942,4.19
3954,3.55
3966,2.57
3978,1.4
3990,0.29
4001,-0.53
4012,-0.96
4024,-1.01
4036,-0.85
4048,-0.63
4060,-0.54
4072,-0.67
4084,-1.04
4096,-1.66
4108,-2.47
4120,-3.42
4132,-4.44
4144,-5.48
4156,-6.46
4168,-7.38
4180,-8.26
4191,-9.17
4202,-10.17
4214,-11.3
4226,-12.5
4238,-13.6
4250,-14.34
4262,-14.48
4274,-13.88
4286,-12.58
4298,-10.77
4310,-8.75
4322,-6.8
4334,-5.14
4346,-3.88
4358,-3.08
4370,-2.75
4381,-2.84
4392,-3.26
4404,-3.83
4416,-4.36
4428,-4.66
4440,-4.62
4452,-4.19
4464,-3.43
4476,-2.46
4488,-1.43
4500,-0.44
4512,0.42
4524,1.16
4536,1.85
4548,2.56
4560,3.32
4571,4.08
4582,4.7
4594,5.06
4606,5.05
4618,4.68
4630,4.04
4642,3.28
4654,2.55
4666,1.95
4678,1.47
4690,1.08
4702,0.74
4714,0.43
4726,0.18
4738,0.05
4750,0.03
4761,0.09
4772,0.13
4784,0.09
4796,-0.06
4808,-0.23
4820,-0.34
4832,-0.34
4844,-0.28
4856,-0.24
4868,-0.29
4880,-0.36
4892,-0.29
4904,0.17
4916,1.18
4928,2.73
4940,4.61
4951,6.5
4962,8.12
4974,9.29
4986,10.02
4998,10.42
5010,10.59
5022,10.6
5034,10.43
5046,10.08
5058,9.58
5070,9.03
5082,8.54
5094,8.22
5106,8.06
5118,8.02
5130,8.0
5141,7.93
5152,7.77
5164,7.54
5176,7.27
5188,6.97
5200,6.61
5212,6.16
5224,5.6
5236,4.95
5248,4.22
5260,3.47
5272,2.75
5284,2.08
5296,1.47
5308,0.89
5320,0.32
5331,-0.23
5342,-0.7
5354,-1.05
5366,-1.21
5378,-1.23
5390,-1.19
5402,-1.24
5414,-1.53
5426,-2.15
5438,-3.1
5450,-4.25
5462,-5.4
5474,-6.34
5486,-6.86
5498,-6.86
5510,-6.31
5521,-5.3
5532,-4.01
5544,-2.65
5556,-1.36
5568,-0.25
5580,0.7
5592,1.55
5604,2.34
5616,3.08
5628,3.72
5640,4.18
5652,4.41
5664,4.4
5676,4.18
5688,3.8
5700,3.31
5711,2.71
5722,2.01
5734,1.24
5746,0.47
5758,-0.25
5770,-0.89
5782,-1.46
5794,-2.04
5806,-2.68
5818,-3.41
5830,-4.15
5842,-4.81
5854,-5.25
5866,-5.37
5878,-5.15
5890,-4.65
5901,-3.93
5912,-3.04
5924,-1.97
5936,-0.74
5948,0.59
5960,1.88
5972,2.92
5984,3.54
5996,3.69
6008,3.45
6020,3.02
6032,2.6
6044,2.31
6056,2.14
6068,2.03
6080,1.87
6091,1.68
6102,1.49
6114,1.36
6126,1.3
6138,1.19
6150,0.92
6162,0.41
6174,-0.35
6186,-1.24
6198,-2.12
6210,-2.87
6222,-3.4
6234,-3.68
6246,-3.68
6258,-3.39
6270,-2.87
6281,-2.25
6292,-1.71
6304,-1.43
6316,-1.5
6328,-1.86
6340,-2.41
6352,-3.01
6364,-3.58
6376,-4.1
6388,-4.56
6400,-4.95
6412,-5.26
6424,-5.52
6436,-5.83
6448,-6.3
6460,-7.01
6471,-7.96
6482,-9.02
6494,-9.97
6506,-10.59
6518,-10.76
6530,-10.43
6542,-9.67
6554,-8.56
6566,-7.24
6578,-5.78
6590,-4.29
6602,-2.82
6614,-1.42
6626,-0.12
6638,1.0
6650,1.87
6661,2.43
6672,2.62
6684,2.5
6696,2.19
6708,1.88
6720,1.78
6732,2.04
6744,2.71
6756,3.7
6768,4.84
6780,5.9
6792,6.72
6804,7.21
6816,7.4
6828,7.42
6840,7.4
6851,7.45
6862,7.55
6874,7.62
6886,7.5
6898,7.09
6910,6.32
6922,5.25
6934,3.97
6946,2.6
6958,1.15
6970,-0.42
6982,-2.16
6994,-4.05
7006,-5.91
7018,-7.45
7030,-8.31
7041,-8.21
7052,-7.09
7064,-5.16
7076,-2.75
7088,-0.29
7100,1.91
7112,3.73
7124,5.16
7136,6.26
7148,7.07
7160,7.58
7172,7.73
7184,7.49
7196,6.88
7208,6.02
7220,5.06
7231,4.12
7242,3.3
7254,2.6
7266,2.02
7278,1.52
7290,1.11
7302,0.81
7314,0.68
7326,0.74
7338,0.89
7350,0.97
7362,0.74
7374,0.04
7386,-1.12
7398,-2.59
7410,-4.13
7421,-5.53
7432,-6.72
7444,-7.78
7456,-8.84
7468,-9.95
7480,-11.06
7492,-12.02
7504,-12.73
7516,-13.21
7528,-13.53
7540,-13.71
7552,-13.59
7564,-12.84
7576,-11.09
7588,-8.19
7600,-4.31
7611,0.05
7622,4.29
7634,7.91
7646,10.72
7658,12.83
7670,14.47
7682,15.83
7694,16.96
7706,17.82
7718,18.35
7730,18.62
7742,18.83
7754,19.2
7766,19.87
7778,20.84
7790,22.04
7801,23.37
7812,24.89
7824,26.72
7836,29.02
7848,31.74
7860,34.65
7872,37.35
7884,39.49
7896,40.95
7908,42.0
7920,43.22
7932,45.25
7944,48.58
7956,53.26
7968,58.89
7980,64.86
7991,70.62
8002,75.94
8014,81.0
8026,86.29
8038,92.27
8050,99.05
8062,106.19
8074,112.73
8086,117.53
8098,119.75
8110,119.29
8122,117.01
8134,114.46
8146,113.35
8158,114.85
8170,118.95
8181,124.27
8192,128.19
8204,127.32
8216,118.25
8228,98.41
8240,67.02
8252,25.7
8264,-21.42
8276,-68.56
8288,-109.85
8300,-141.04
8312,-160.75
8324,-170.45
8336,-173.35
8348,-172.8
8360,-170.97
8371,-168.51
8382,-165.08
8394,-160.31
8406,-154.32
8418,-147.68
8430,-140.9
8442,-133.94
8454,-126.2
8466,-116.95
8478,-105.85
8490,-93.29
8502,-80.23
8514,-67.88
8526,-57.25
8538,-48.87
8550,-42.79
8561,-38.68
8572,-35.95
8584,-33.87
8596,-31.77
8608,-29.16
8620,-25.89
8632,-22.13
8644,-18.25
8656,-14.59
8668,-11.35
8680,-8.54
8692,-6.22
8704,-4.64
8716,-4.25
8728,-5.51
8740,-8.53
8751,-12.83
8762,-17.44
8774,-21.15
8786,-22.98
8798,-22.48
8810,-19.84
8822,-15.72
8834,-10.96
8846,-6.27
8858,-2.19
8870,1.02
8882,3.25
8894,4.52
8906,4.89
8918,4.55
8930,3.71
8941,2.66
8952,1.65
8964,0.81
8976,0.21
8988,-0.26
9000,-0.71
9012,-1.29
9024,-2.06
9036,-3.08
9048,-4.34
9060,-5.89
9072,-7.74
9084,-9.87
9096,-12.14
9108,-14.27
9120,-15.92
9131,-16.83
9142,-16.95
9154,-16.41
9166,-15.47
9178,-14.41
9190,-13.41
9202,-12.53
9214,-11.73
9226,-10.96
9238,-10.18
9250,-9.42
9262,-8.71
9274,-8.12
9286,-7.73
9298,-7.63
9310,-7.97
9321,-8.87
9332,-10.35
9344,-12.26
9356,-14.2
9368,-15.64
9380,-16.04
9392,-15.05
9404,-12.67
9416,-9.25
9428,-5.37
9440,-1.62
9452,1.61
9464,4.2
9476,6.2
9488,7.79
9500,9.07
9511,10.12
9522,10.99
9534,11.73
9546,12.43
9558,13.12
9570,13.77
9582,14.23
9594,14.37
9606,14.08
9618,13.41
9630,12.54
9642,11.77
9654,11.37
9666,11.5
9678,12.1
9690,12.89
9701,13.39
9712,13.07
9724,11.54
9736,8.78
9748,5.28
9760,2.07
9772,0.54
9784,1.97
9796,7.2
9808,16.24
9820,28.29
9832,41.9
9844,55.45
9856,67.58
9868,77.39
9880,84.54
9891,89.03
9902,91.04
9914,90.76
9926,88.33
9938,83.9
9950,77.58
9962,69.5
9974,59.72
9986,48.27
9998,35.21
10010,20.72
10022,5.25
10034,-10.44
10046,-25.28
10058,-38.14
10070,-48.02
10081,-54.4
10092,-57.34
10104,-57.45
10116,-55.71
10128,-53.15
10140,-50.56
10152,-48.28
10164,-46.29
10176,-44.28
10188,-41.98
10200,-39.28
10212,-36.32
10224,-33.44
10236,-30.93
10248,-28.98
10260,-27.5
10271,-26.2
10282,-24.73
10294,-22.8
10306,-20.32
10318,-17.43
10330,-14.41
10342,-11.54
10354,-8.99
10366,-6.82
10378,-5.01
10390,-3.49
10402,-2.19
10414,-1.04
10426,-0.01
10438,0.93
10450,1.78
10461,2.53
10472,3.15
10484,3.63
10496,4.01
10508,4.33
10520,4.57
10532,4.71
10544,4.67
10556,4.43
10568,4.02
10580,3.53
10592,3.07
10604,2.67
10616,2.29
10628,1.81
10640,1.19
10651,0.42
10662,-0.4
10674,-1.2
10686,-1.96
10698,-2.78
10710,-3.78
10722,-5.05
10734,-6.54
10746,-8.05
10758,-9.25
10770,-9.84
10782,-9.58
10794,-8.41
10806,-6.43
10818,-3.9
10830,-1.16
10841,1.42
10852,3.59
10864,5.24
10876,6.4
10888,7.2
10900,7.76
10912,8.15
10924,8.39
10936,8.52
10948,8.62
10960,8.83
10972,9.3
10984,10.07
10996,11.04
11008,12.01
11020,12.78
11031,13.26
11042,13.51
11054,13.68
11066,13.94
11078,14.31
11090,14.71
11102,14.99
11114,15.01
11126,14.74
11138,14.24
11150,13.64
11162,13.07
11174,12.56
11186,12.1
11198,11.6
11210,11.0
11221,10.27
11232,9.43
11244,8.52
11256,7.59
11268,6.59
11280,5.44
11292,4.0
11304,2.15
11316,-0.19
11328,-3.02
11340,-6.28
11352,-9.88
11364,-13.66
11376,-17.39
11388,-20.73
11400,-23.38
11411,-25.12
11422,-25.96
11434,-26.1
11446,-25.84
11458,-25.42
11470,-24.88
11482,-24.06
11494,-22.8
11506,-21.06
11518,-19.1
11530,-17.26
11542,-15.84
11554,-14.84
11566,-13.95
11578,-12.66
11590,-10.6
11601,-7.71
11612,-4.33
11624,-1.05
11636,1.59
11648,3.37
11660,4.46
11672,5.39
11684,6.78
11696,9.08
11708,12.42
11720,16.55
11732,20.93
11744,24.88
11756,27.72
11768,29.05
11780,29.02
11791,28.68
11802,30.07
11814,35.96
11826,48.93
11838,70.39
11850,99.69
11862,134.04
11874,169.27
11886,201.1
11898,226.4
11910,243.88
11922,253.85
11934,257.51
11946,256.12
11958,250.51
11970,241.16
11981,228.47
11992,213.02
12004,195.55
12016,176.65
12028,156.47
12040,134.61
12052,110.37
12064,83.17
12076,52.92
12088,20.27
12100,-13.55
12112,-46.92
12124,-78.32
12136,-106.5
12148,-130.65
12160,-150.37
12171,-165.61
12182,-176.69
12194,-184.27
12206,-189.35
12218,-193.04
12230,-196.24
12242,-199.39
12254,-202.26
12266,-204.17
12278,-204.37
12290,-202.42
12302,-198.53
12314,-193.4
12326,-187.93
12338,-182.74
12350,-177.83
12361,-172.59
12372,-165.99
12384,-156.98
12396,-144.92
12408,-129.85
12420,-112.48
12432,-93.99
12444,-75.63
12456,-58.4
12468,-42.96
12480,-29.64
12492,-18.65
12504,-10.11
12516,-3.98
12528,0.1
12540,2.93
12551,5.53
12562,8.76
12574,13.03
12586,18.12
12598,23.37
12610,28.14
12622,32.05
12634,35.18
12646,37.83
12658,40.25
12670,42.52
12682,44.52
12694,46.04
12706,46.89
12718,46.95
12730,46.17
12741,44.62
12752,42.42
12764,39.74
12776,36.76
12788,33.68
12800,30.58
12812,27.52
12824,24.55
12836,21.71
12848,19.07
12860,16.72
12872,14.71
12884,13.04
12896,11.67
12908,10.54
12920,9.56
12931,8.66
12942,7.75
12954,6.76
12966,5.62
12978,4.3
12990,2.77
13002,1.07
13014,-0.77
13026,-2.65
13038,-4.49
13050,-6.17
13062,-7.57
13074,-8.66
13086,-9.45
13098,-10.01
13110,-10.48
13121,-10.94
13132,-11.48
13144,-12.16
13156,-13.08
13168,-14.26
13180,-15.69
13192,-17.21
13204,-18.48
13216,-19.11
13228,-18.75
13240,-17.26
13252,-14.79
13264,-11.71
13276,-8.49
13288,-5.49
13300,-2.92
13311,-0.79
13322,0.94
13334,2.29
13346,3.18
13358,3.54
13370,3.36
13382,2.79
13394,2.17
13406,1.87
13418,2.19
13430,3.24
13442,4.84
13454,6.66
13466,8.33
13478,9.53
13490,10.11
13501,10.07
13512,9.53
13524,8.67
13536,7.71
13548,6.87
13560,6.33
13572,6.13
13584,6.19
13596,6.21
13608,5.81
13620,4.64
13632,2.54
13644,-0.39
13656,-3.8
13668,-7.22
13680,-10.18
13691,-12.41
13702,-13.87
13714,-14.71
13726,-15.17
13738,-15.45
13750,-15.69
13762,-15.96
13774,-16.28
13786,-16.73
13798,-17.35
13810,-18.14
13822,-19.0
13834,-19.75
13846,-20.19
13858,-20.14
13870,-19.5
13881,-18.26
13892,-16.44
13904,-14.12
13916,-11.48
13928,-8.74
13940,-6.2
13952,-4.11
13964,-2.62
13976,-1.72
13988,-1.27
14000,-1.12
14012,-1.14
14024,-1.28
14036,-1.56
14048,-1.92
14060,-2.25
14071,-2.32
14082,-1.91
14094,-0.83
14106,0.93
14118,3.28
14130,6.03
14142,8.92
14154,11.66
14166,14.0
14178,15.74
14190,16.79
14202,17.23
14214,17.32
14226,17.37
14238,17.7
14250,18.4
14261,19.38
14272,20.38
14284,21.12
14296,21.43
14308,21.33
14320,20.98
14332,20.61
14344,20.43
14356,20.55
14368,21.04
14380,21.91
14392,23.08
14404,24.38
14416,25.54
14428,26.25
14440,26.28
14451,25.6
14462,24.36
14474,22.83
14486,21.22
14498,19.51
14510,17.43
14522,14.59
14534,10.73
14546,5.96
14558,0.75
14570,-4.22
14582,-8.35
14594,-11.33
14606,-13.28
14618,-14.57
14630,-15.66
14641,-16.85
14652,-18.24
14664,-19.76
14676,-21.32
14688,-22.84
14700,-24.29
14712,-25.63
14724,-26.76
14736,-27.49
14748,-27.64
14760,-27.07
14772,-25.78
14784,-23.94
14796,-21.81
14808,-19.66
14820,-17.62
14831,-15.63
14842,-13.5
14854,-11.0
14866,-8.04
14878,-4.76
14890,-1.48
14902,1.43
14914,3.72
14926,5.35
14938,6.52
14950,7.62
14962,9.01
14974,10.92
14986,13.33
14998,16.05
15010,18.75
15021,21.11
15032,22.97
15044,24.35
15056,25.45
15068,26.53
15080,27.86
15092,29.55
15104,31.59
15116,33.82
15128,36.0
15140,37.89
15152,39.32
15164,40.24
15176,40.75
15188,40.93
15200,40.83
15211,40.42
15222,39.72
15234,38.84
15246,38.06
15258,37.74
15270,38.13
15282,39.2
15294,40.63
15306,42.01
15318,42.99
15330,43.51
15342,43.7
15354,43.75
15366,43.71
15378,43.42
15390,42.68
15401,41.37
15412,39.59
15424,37.49
15436,35.12
15448,32.22
15460,28.21
15472,22.38
15484,14.25
15496,3.81
15508,-8.42
15520,-21.45
15532,-34.16
15544,-45.59
15556,-55.23
15568,-63.1
15580,-69.7
15591,-75.85
15602,-82.27
15614,-89.17
15626,-95.95
15638,-101.15
15650,-102.91
15662,-99.6
15674,-90.47
15686,-76.03
15698,-57.95
15710,-38.55
15722,-20.17
15734,-4.7
15746,6.62
15758,13.27
15770,15.38
15781,13.66
15792,9.24
15804,3.47
15816,-2.49
15828,-7.98
15840,-12.9
15852,-17.53
15864,-22.12
15876,-26.64
15888,-30.8
15900,-34.3
15912,-37.12
15924,-39.61
15936,-42.18
15948,-45.03
15960,-47.83
15971,-49.89
15982,-50.44
15994,-49.13
16006,-46.13
16018,-42.09
16030,-37.75
16042,-33.53
16054,-29.43
16066,-25.1
16078,-20.21
16090,-14.74
16102,-9.14
16114,-4.08
16126,-0.19
16138,2.26
16150,3.46
16161,3.85
16172,3.89
16184,3.79
16196,3.5
16208,2.83
16220,1.72
16232,0.26
16244,-1.29
16256,-2.71
16268,-3.9
16280,-4.97
16292,-6.07
16304,-7.34
16316,-8.75
16328,-10.1
16340,-11.03
16351,-11.14
16362,-10.09
16374,-7.75
16386,-4.38
16398,-0.63
16410,2.58
16422,4.28
16434,3.78
16446,0.93
16458,-3.86
16470,-9.62
16482,-15.06
16494,-18.76
16506,-19.67
16518,-17.45
16530,-12.79
16541,-7.35
16552,-3.17
16564,-1.86
16576,-3.94
16588,-8.54
16600,-13.86
16612,-18.0
16624,-19.73
16636,-18.88
16648,-16.11
16660,-12.39
16672,-8.52
16684,-4.91
16696,-1.64
16708,1.24
16720,3.58
16731,5.21
16742,5.99
16754,6.01
16766,5.56
16778,5.02
16790,4.73
16802,4.81
16814,5.18
16826,5.53
16838,5.49
16850,4.79
16862,3.38
16874,1.58
16886,-0.08
16898,-0.95
16910,-0.55
16921,1.23
16932,4.08
16944,7.38
16956,10.51
16968,13.07
16980,15.07
16992,16.83
17004,18.74
17016,21.01
17028,23.51
17040,25.85
17052,27.64
17064,28.7
17076,29.16
17088,29.32
17100,29.48
17111,29.72
17122,29.87
17134,29.65
17146,28.85
17158,27.48
17170,25.78
17182,24.05
17194,22.52
17206,21.24
17218,20.11
17230,18.99
17242,17.8
17254,16.49
17266,15.07
17278,13.5
17290,11.69
17301,9.59
17312,7.26
17324,4.94
17336,2.93
17348,1.49
17360,0.7
17372,0.44
17384,0.39
17396,0.24
17408,-0.24
17420,-1.13
17432,-2.31
17444,-3.55
17456,-4.52
17468,-4.89
17480,-4.36
17491,-2.79
17502,-0.26
17514,2.98
17526,6.54
17538,10.04
17550,13.16
17562,15.71
17574,17.69
17586,19.16
17598,20.31
17610,21.33
17622,22.4
17634,23.65
17646,25.17
17658,26.95
17670,28.94
17681,31.05
17692,33.17
17704,35.13
17716,36.78
17728,38.01
17740,38.81
17752,39.29
17764,39.66
17776,40.09
17788,40.64
17800,41.15
17812,41.24
17824,40.47
17836,38.49
17848,35.17
17860,30.69
17871,25.51
17882,20.13
17894,15.04
17906,10.44
17918,6.24
17930,2.07
17942,-2.61
17954,-8.33
17966,-15.37
17978,-23.73
17990,-32.98
18002,-42.44
18014,-51.28
18026,-58.74
18038,-64.26
18050,-67.63
18061,-68.95
18072,-68.55
18084,-66.93
18096,-64.56
18108,-61.74
18120,-58.51
18132,-54.64
18144,-49.67
18156,-43.05
18168,-34.33
18180,-23.3
18192,-10.1
18204,4.76
18216,20.44
18228,35.82
18240,49.69
18251,60.86
18262,68.36
18274,71.68
18286,70.84
18298,66.45
18310,59.56
18322,51.41
18334,43.16
18346,35.64
18358,29.28
18370,24.15
18382,20.09
18394,16.9
18406,14.44
18418,12.6
18430,11.25
18441,10.21
18452,9.26
18464,8.21
18476,6.92
18488,5.42
18500,3.79
18512,2.18
18524,0.72
18536,-0.49
18548,-1.43
18560,-2.15
18572,-2.73
18584,-3.28
18596,-3.87
18608,-4.55
18620,-5.38
18631,-6.36
18642,-7.45
18654,-8.53
18666,-9.4
18678,-9.79
18690,-9.47
18702,-8.31
18714,-6.38
18726,-3.96
18738,-1.49
18750,0.59
18762,1.94
18774,2.4
18786,1.96
18798,0.77
18810,-0.95
18821,-2.96
18832,-4.98
18844,-6.82
18856,-8.33
18868,-9.43
18880,-10.1
18892,-10.32
18904,-10.06
18916,-9.32
18928,-8.19
18940,-6.79
18952,-5.3
18964,-3.87
18976,-2.54
18988,-1.28
19000,0.0
19011,1.33
19022,2.63
19034,3.78
19046,4.61
19058,5.06
19070,5.14
19082,4.92
19094,4.49
19106,3.91
19118,3.19
19130,2.34
19142,1.32
19154,0.09
19166,-1.37
19178,-3.09
19190,-5.07
19201,-7.25
19212,-9.49
19224,-11.59
19236,-13.28
19248,-14.3
19260,-14.46
19272,-13.72
19284,-12.26
19296,-10.35
19308,-8.35
19320,-6.56
19332,-5.13
19344,-4.06
19356,-3.27
19368,-2.66
19380,-2.16
19391,-1.78
19402,-1.49
19414,-1.25
19426,-0.97
19438,-0.52
19450,0.2
19462,1.24
19474,2.59
19486,4.17
19498,5.83
19510,7.4
19522,8.73
19534,9.75
19546,10.48
19558,10.99
19570,11.39
19581,11.71
19592,11.87
19604,11.72
19616,11.12
19628,10.01
19640,8.52
19652,6.86
19664,5.25
19676,3.82
19688,2.55
19700,1.32
19712,0.02
19724,-1.38
19736,-2.84
19748,-4.3
19760,-5.75
19771,-7.25
19782,-8.84
19794,-10.43
19806,-11.74
19818,-12.39
19830,-12.04
19842,-10.56
19854,-8.12
19866,-5.13
19878,-2.04
19890,0.79
19902,3.2
19914,5.2
19926,6.87
19938,8.25
19950,9.31
19961,9.94
19972,10.08
19984,9.78
19996,9.21
20008,8.66
20020,8.45
20032,8.86
20044,10.0
20056,11.85
20068,14.24
20080,16.92
20092,19.63
20104,22.12
20116,24.14
20128,25.52
20140,26.1
20151,25.86
20162,24.86
20174,23.32
20186,21.48
20198,19.58
20210,17.71
20222,15.86
20234,13.92
20246,11.8
20258,9.48
20270,7.01
20282,4.51
20294,2.12
20306,-0.02
20318,-1.75
20330,-2.91
20341,-3.43
20352,-3.37
20364,-3.02
20376,-2.85
20388,-3.37
20400,-4.9
20412,-7.47
20424,-10.77
20436,-14.26
20448,-17.37
20460,-19.64
20472,-20.8
20484,-20.73
20496,-19.4
20508,-16.92
20520,-13.48
20531,-9.39
20542,-4.99
20554,-0.68
20566,3.31
20578,6.89
20590,10.06
20602,12.89
20614,15.38
20626,17.49
20638,19.15
20650,20.34
20662,21.1
20674,21.56
20686,21.87
20698,22.08
20710,22.16
20721,21.98
20732,21.45
20744,20.52
20756,19.2
20768,17.56
20780,15.66
20792,13.47
20804,10.97
20816,8.15
20828,5.07
20840,1.89
20852,-1.21
20864,-4.05
20876,-6.55
20888,-8.73
20900,-10.68
20911,-12.48
20922,-14.16
20934,-15.71
20946,-17.13
20958,-18.43
20970,-19.67
20982,-20.9
20994,-22.1
