seconds,BVP
3,-62.98
15,-60.67
27,-54.45
39,-44.93
51,-33.28
63,-20.87
75,-8.94
87,1.61
99,10.33
111,17.16
123,22.22
135,25.67
147,27.66
159,28.27
171,27.67
182,26.12
193,24.05
205,21.9
217,20.1
229,18.88
241,18.24
253,18.08
265,18.22
277,18.5
289,18.85
301,19.19
313,19.38
325,19.18
337,18.25
349,16.3
361,13.19
372,8.99
383,4.06
395,-1.17
407,-6.27
419,-11.04
431,-15.56
443,-20.13
455,-25.13
467,-30.88
479,-37.46
491,-44.71
503,-52.15
515,-59.02
527,-64.32
539,-67.0
551,-66.17
562,-61.4
573,-52.9
585,-41.52
597,-28.55
609,-15.34
621,-3.03
633,7.63
645,16.27
657,22.8
669,27.23
681,29.65
693,30.26
705,29.41
717,27.58
729,25.29
741,23.02
752,21.05
763,19.49
775,18.32
787,17.46
799,16.93
811,16.79
823,17.07
835,17.7
847,18.36
859,18.69
871,18.3
883,17.01
895,14.86
907,12.07
919,8.86
931,5.42
942,1.79
953,-2.06
965,-6.15
977,-10.56
989,-15.31
1001,-20.48
1013,-26.06
1025,-31.83
1037,-37.24
1049,-41.4
1061,-43.25
1073,-41.89
1085,-36.92
1097,-28.65
1109,-17.97
1121,-6.16
1132,5.49
1143,15.96
1155,24.61
1167,31.16
1179,35.56
1191,37.89
1203,38.32
1215,37.14
1227,34.73
1239,31.5
1251,27.84
1263,24.08
1275,20.48
1287,17.22
1299,14.39
1311,12.06
1322,10.2
1333,8.74
1345,7.54
1357,6.46
1369,5.4
1381,4.17
1393,2.61
1405,0.47
1417,-2.42
1429,-6.13
1441,-10.55
1453,-15.37
1465,-20.26
1477,-25.01
1489,-29.62
1501,-34.35
1512,-39.58
1523,-45.61
1535,-52.4
1547,-59.43
1559,-65.71
1571,-69.97
1583,-71.0
1595,-68.02
1607,-60.91
1619,-50.35
1631,-37.57
1643,-24.06
1655,-11.19
1667,0.1
1679,9.32
1691,16.38
1702,21.36
1713,24.42
1725,25.72
1737,25.5
1749,24.11
1761,22.05
1773,19.87
1785,18.02
1797,16.77
1809,16.15
1821,16.01
1833,16.13
1845,16.36
1857,16.58
1869,16.72
1881,16.64
1892,16.11
1903,14.91
1915,12.84
1927,9.92
1939,6.34
1951,2.41
1963,-1.6
1975,-5.57
1987,-9.62
1999,-14.07
2011,-19.28
2023,-25.54
2035,-32.87
2047,-40.86
2059,-48.65
2071,-54.98
2082,-58.5
2093,-58.06
2105,-53.14
2117,-44.0
2129,-31.7
2141,-17.77
2153,-3.86
2165,8.75
2177,19.26
2189,27.41
2201,33.31
2213,37.24
2225,39.46
2237,40.22
2249,39.73
2261,38.25
2272,36.09
2283,33.61
2295,31.15
2307,28.94
2319,27.13
2331,25.73
2343,24.7
2355,23.98
2367,23.49
2379,23.1
2391,22.61
2403,21.75
2415,20.25
2427,17.94
2439,14.8
2451,10.97
2462,6.7
2473,2.21
2485,-2.34
2497,-6.94
2509,-11.72
2521,-16.9
2533,-22.76
2545,-29.41
2557,-36.66
2569,-43.89
2581,-49.98
2593,-53.61
2605,-53.6
2617,-49.4
2629,-41.25
2641,-30.23
2652,-17.8
2663,-5.45
2675,5.76
2687,15.23
2699,22.77
2711,28.39
2723,32.15
2735,34.14
2747,34.55
2759,33.71
2771,32.05
2783,30.04
2795,28.01
2807,26.17
2819,24.55
2831,23.1
2842,21.82
2853,20.8
2865,20.17
2877,20.0
2889,20.2
2901,20.47
2913,20.34
2925,19.37
2937,17.26
2949,13.97
2961,9.76
2973,5.02
2985,0.13
2997,-4.7
3009,-9.48
3021,-14.46
3032,-20.04
3043,-26.57
3055,-34.17
3067,-42.46
3079,-50.54
3091,-57.08
3103,-60.62
3115,-60.02
3127,-54.88
3139,-45.65
3151,-33.5
3163,-19.97
3175,-6.54
3187,5.64
3199,15.93
3211,24.07
3222,30.04
3233,33.91
3245,35.85
3257,36.06
3269,34.88
3281,32.74
3293,30.11
3305,27.39
3317,24.87
3329,22.72
3341,20.98
3353,19.69
3365,18.84
3377,18.43
3389,18.35
3401,18.41
3412,18.32
3423,17.78
3435,16.57
3447,14.64
3459,12.09
3471,9.06
3483,5.64
3495,1.78
3507,-2.61
3519,-7.67
3531,-13.43
3543,-19.81
3555,-26.65
3567,-33.7
3579,-40.56
3591,-46.65
3602,-51.12
3613,-53.0
3625,-51.42
3637,-45.99
3649,-36.99
3661,-25.41
3673,-12.67
3685,-0.23
3697,10.76
3709,19.64
3721,26.2
3733,30.48
3745,32.68
3757,33.04
3769,31.91
3781,29.73
3792,27.0
3803,24.2
3815,21.68
3827,19.65
3839,18.18
3851,17.25
3863,16.82
3875,16.78
3887,16.96
3899,17.13
3911,17.03
3923,16.45
3935,15.25
3947,13.44
3959,11.05
3971,8.14
3982,4.76
3993,0.88
4005,-3.54
4017,-8.62
4029,-14.42
4041,-21.01
4053,-28.33
4065,-36.08
4077,-43.63
4089,-50.03
4101,-54.13
4113,-54.89
4125,-51.65
4137,-44.44
4149,-33.94
4161,-21.4
4172,-8.22
4183,4.33
4195,15.35
4207,24.31
4219,31.03
4231,35.47
4243,37.71
4255,37.92
4267,36.38
4279,33.54
4291,29.96
4303,26.2
4315,22.78
4327,20.04
4339,18.13
4351,17.05
4362,16.67
4373,16.75
4385,17.02
4397,17.16
4409,16.86
4421,15.86
4433,14.03
4445,11.36
4457,8.0
4469,4.15
4481,0.04
4493,-4.19
4505,-8.55
4517,-13.2
4529,-18.39
4541,-24.41
4552,-31.37
4563,-38.98
4575,-46.53
4587,-52.87
4599,-56.66
4611,-56.75
4623,-52.53
4635,-44.2
4647,-32.72
4659,-19.57
4671,-6.37
4683,5.56
4695,15.4
4707,22.88
4719,28.13
4731,31.39
4742,32.95
4753,33.01
4765,31.78
4777,29.57
4789,26.79
4801,23.94
4813,21.44
4825,19.57
4837,18.45
4849,18.0
4861,18.05
4873,18.36
4885,18.66
4897,18.69
4909,18.22
4921,17.06
4932,15.1
4943,12.33
4955,8.83
4967,4.74
4979,0.26
4991,-4.44
5003,-9.3
5015,-14.37
5027,-19.87
5039,-26.09
5051,-33.15
5063,-40.86
5075,-48.48
5087,-54.75
5099,-58.23
5111,-57.64
5122,-52.45
5133,-43.04
5145,-30.69
5157,-17.12
5169,-4.02
5181,7.42
5193,16.69
5205,23.81
5217,29.03
5229,32.59
5241,34.59
5253,35.09
5265,34.21
5277,32.26
5289,29.71
5301,27.07
5312,24.78
5323,23.08
5335,22.03
5347,21.57
5359,21.53
5371,21.75
5383,22.03
5395,22.09
5407,21.65
5419,20.4
5431,18.19
5443,15.01
5455,11.06
5467,6.69
5479,2.24
5491,-2.06
5502,-6.22
5513,-10.47
5525,-15.28
5537,-21.08
5549,-28.1
5561,-36.13
5573,-44.39
5585,-51.6
5597,-56.3
5609,-57.22
5621,-53.72
5633,-46.01
5645,-35.04
5657,-22.23
5669,-9.05
5681,3.32
5692,14.13
5703,23.04
5715,30.05
5727,35.24
5739,38.73
5751,40.65
5763,41.13
5775,40.38
5787,38.74
5799,36.63
5811,34.48
5823,32.63
5835,31.23
5847,30.26
5859,29.61
5871,29.15
5882,28.79
5893,28.47
5905,28.08
5917,27.46
5929,26.34
5941,24.43
5953,21.52
5965,17.6
5977,12.86
5989,7.63
6001,2.32
6013,-2.76
6025,-7.45
6037,-11.89
6049,-16.42
6061,-21.51
6072,-27.5
6083,-34.49
6095,-42.1
6107,-49.47
6119,-55.45
6131,-58.81
6143,-58.57
6155,-54.32
6167,-46.28
6179,-35.35
6191,-22.79
6203,-9.96
6215,2.02
6227,12.4
6239,20.86
6251,27.34
6262,31.93
6273,34.68
6285,35.71
6297,35.25
6309,33.68
6321,31.54
6333,29.37
6345,27.63
6357,26.5
6369,25.93
6381,25.68
6393,25.52
6405,25.26
6417,24.92
6429,24.59
6441,24.32
6452,24.09
6463,23.66
6475,22.73
6487,20.98
6499,18.23
6511,14.55
6523,10.23
6535,5.69
6547,1.3
6559,-2.72
6571,-6.35
6583,-9.79
6595,-13.34
6607,-17.33
6619,-22.07
6631,-27.74
6642,-34.27
6653,-41.34
6665,-48.25
6677,-53.98
6689,-57.4
6701,-57.46
6713,-53.65
6725,-46.1
6737,-35.63
6749,-23.52
6761,-11.12
6773,0.49
6785,10.61
6797,18.96
6809,25.5
6821,30.26
6832,33.25
6843,34.55
6855,34.34
6867,32.96
6879,30.89
6891,28.67
6903,26.7
6915,25.26
6927,24.43
6939,24.13
6951,24.22
6963,24.5
6975,24.81
6987,25.03
6999,25.04
7011,24.75
7022,24.03
7033,22.7
7045,20.6
7057,17.62
7069,13.81
7081,9.41
7093,4.8
7105,0.36
7117,-3.69
7129,-7.37
7141,-10.89
7153,-14.62
7165,-18.87
7177,-23.87
7189,-29.7
7201,-36.22
7212,-43.13
7223,-49.8
7235,-55.28
7247,-58.46
7259,-58.31
7271,-54.24
7283,-46.39
7295,-35.65
7307,-23.4
7319,-11.09
7331,0.12
7343,9.6
7355,17.15
7367,22.84
7379,26.73
7391,28.82
7402,29.13
7413,27.85
7425,25.42
7437,22.5
7449,19.77
7461,17.77
7473,16.66
7485,16.32
7497,16.44
7509,16.67
7521,16.84
7533,16.93
7545,16.98
7557,17.04
7569,17.01
7581,16.64
7592,15.62
7603,13.66
7615,10.62
7627,6.62
7639,1.96
7651,-2.92
7663,-7.67
7675,-12.09
7687,-16.22
7699,-20.27
7711,-24.59
7723,-29.48
7735,-35.12
7747,-41.44
7759,-48.08
7771,-54.35
7782,-59.3
7793,-61.88
7805,-61.23
7817,-56.88
7829,-48.97
7841,-38.21
7853,-25.73
7865,-12.84
7877,-0.73
7889,9.74
7901,18.01
7913,23.91
7925,27.5
7937,29.01
7949,28.77
7961,27.2
7972,24.8
7983,22.09
7995,19.51
8007,17.37
8019,15.76
8031,14.61
8043,13.77
8055,13.15
8067,12.74
8079,12.6
8091,12.77
8103,13.13
8115,13.38
8127,13.09
8139,11.81
8151,9.31
8162,5.6
8173,1.0
8185,-3.99
8197,-8.9
8209,-13.39
8221,-17.41
8233,-21.18
8245,-25.1
8257,-29.59
8269,-34.89
8281,-40.99
8293,-47.45
8305,-53.49
8317,-58.06
8329,-60.02
8341,-58.5
8352,-53.11
8363,-44.16
8375,-32.56
8387,-19.59
8399,-6.55
8411,5.52
8423,15.98
8435,24.52
8447,30.99
8459,35.34
8471,37.58
8483,37.84
8495,36.45
8507,33.94
8519,30.9
8531,27.85
8542,25.1
8553,22.79
8565,20.91
8577,19.41
8589,18.29
8601,17.56
8613,17.17
8625,16.97
8637,16.65
8649,15.88
8661,14.33
8673,11.86
8685,8.55
8697,4.62
8709,0.37
8721,-3.92
8732,-8.09
8743,-12.16
8755,-16.27
8767,-20.68
8779,-25.71
8791,-31.64
8803,-38.51
8815,-45.99
8827,-53.24
8839,-59.05
8851,-62.06
8863,-61.24
8875,-56.2
8887,-47.37
8899,-35.9
8911,-23.28
8922,-10.94
8933,0.09
8945,9.27
8957,16.41
8969,21.56
8981,24.77
8993,26.12
9005,25.75
9017,24.02
9029,21.42
9041,18.53
9053,15.86
9065,13.69
9077,12.09
9089,10.96
9101,10.16
9112,9.64
9123,9.45
9135,9.66
9147,10.23
9159,10.98
9171,11.52
9183,11.37
9195,10.14
9207,7.66
9219,4.08
9231,-0.17
9243,-4.52
9255,-8.57
9267,-12.21
9279,-15.72
9291,-19.62
9302,-24.47
9313,-30.54
9325,-37.66
9337,-45.09
9349,-51.7
9361,-56.17
9373,-57.39
9385,-54.73
9397,-48.25
9409,-38.65
9421,-27.11
9433,-14.95
9445,-3.29
9457,7.06
9469,15.73
9481,22.62
9492,27.77
9503,31.24
9515,33.06
9527,33.34
9539,32.31
9551,30.38
9563,28.04
9575,25.81
9587,24.05
9599,22.91
9611,22.31
9623,22.1
9635,22.15
9647,22.45
9659,23.04
9671,23.88
9682,24.8
9693,25.42
9705,25.32
9717,24.21
9729,22.07
9741,19.12
9753,15.81
9765,12.56
9777,9.63
9789,7.08
9801,4.7
9813,2.14
9825,-0.92
9837,-4.72
9849,-9.16
9861,-13.71
9872,-17.36
9883,-18.82
9895,-16.82
9907,-10.57
9919,0.02
9931,14.24
9943,30.77
9955,48.15
9967,65.16
9979,81.03
9991,95.45
10003,108.38
10015,119.8
10027,129.57
10039,137.43
10051,143.08
10062,146.35
10073,147.22
10085,145.9
10097,142.7
10109,138.03
10121,132.23
10133,125.58
10145,118.2
10157,110.19
10169,101.61
10181,92.58
10193,83.25
10205,73.76
10217,64.18
10229,54.43
10241,44.4
10252,33.99
10263,23.23
10275,12.36
10287,1.68
10299,-8.52
10311,-18.12
10323,-27.19
10335,-35.92
10347,-44.54
10359,-53.23
10371,-62.0
10383,-70.66
10395,-78.76
10407,-85.6
10419,-90.35
10431,-92.2
10442,-90.6
10453,-85.49
10465,-77.37
10477,-67.25
10489,-56.37
10501,-45.91
10513,-36.71
10525,-29.23
10537,-23.59
10549,-19.76
10561,-17.65
10573,-17.14
10585,-18.01
10597,-19.97
10609,-22.63
10621,-25.62
10632,-28.71
10643,-31.85
10655,-35.1
10667,-38.54
10679,-42.08
10691,-45.52
10703,-48.62
10715,-51.25
10727,-53.57
10739,-55.95
10751,-58.88
10763,-62.75
10775,-67.67
10787,-73.44
10799,-79.64
10811,-85.83
10822,-91.71
10833,-97.2
10845,-102.42
10857,-107.55
10869,-112.71
10881,-117.9
10893,-122.93
10905,-127.49
10917,-131.05
10929,-132.83
10941,-131.91
10953,-127.33
10965,-118.47
10977,-105.3
10989,-88.59
11001,-69.73
11012,-50.47
11023,-32.42
11035,-16.75
11047,-4.06
11059,5.54
11071,12.25
11083,16.43
11095,18.46
11107,18.78
11119,17.88
11131,16.25
11143,14.42
11155,12.82
11167,11.78
11179,11.44
11191,11.8
11202,12.66
11213,13.78
11225,14.87
11237,15.65
11249,15.88
11261,15.39
11273,14.05
11285,11.79
11297,8.69
11309,4.93
11321,0.76
11333,-3.56
11345,-7.88
11357,-12.31
11369,-17.12
11381,-22.73
11392,-29.32
11403,-36.74
11415,-44.24
11427,-50.59
11439,-54.39
11451,-54.38
11463,-49.89
11475,-41.11
11487,-29.0
11499,-15.12
11511,-1.14
11523,11.55
11535,22.07
11547,30.15
11559,35.93
11571,39.69
11582,41.65
11593,41.92
11605,40.59
11617,37.92
11629,34.38
11641,30.67
11653,27.45
11665,25.16
11677,23.93
11689,23.57
11701,23.77
11713,24.28
11725,24.95
11737,25.71
11749,26.41
11761,26.81
11772,26.57
11783,25.39
11795,23.17
11807,20.06
11819,16.42
11831,12.66
11843,9.06
11855,5.62
11867,1.99
11879,-2.31
11891,-7.71
11903,-14.21
11915,-21.27
11927,-27.78
11939,-32.36
11951,-33.73
11962,-31.14
11973,-24.55
11985,-14.71
11997,-2.87
12009,9.5
12021,21.05
12033,30.8
12045,38.26
12057,43.35
12069,46.21
12081,47.11
12093,46.29
12105,43.96
12117,40.43
12129,36.12
12141,31.58
12152,27.37
12163,23.92
12175,21.43
12187,19.86
12199,19.0
12211,18.58
12223,18.33
12235,17.98
12247,17.3
12259,16.03
12271,14.04
12283,11.29
12295,7.9
12307,4.06
12319,-0.03
12331,-4.29
12342,-8.75
12353,-13.59
12365,-18.98
12377,-25.06
12389,-31.79
12401,-38.87
12413,-45.63
12425,-51.05
12437,-53.91
12449,-53.09
12461,-48.04
12473,-38.99
12485,-27.03
12497,-13.74
12509,-0.75
12521,10.67
12532,19.87
12543,26.72
12555,31.35
12567,33.97
12579,34.73
12591,33.83
12603,31.56
12615,28.39
12627,24.88
12639,21.53
12651,18.7
12663,16.59
12675,15.24
12687,14.61
12699,14.57
12711,14.91
12722,15.34
12733,15.49
12745,15.04
12757,13.78
12769,11.72
12781,8.95
12793,5.72
12805,2.18
12817,-1.59
12829,-5.68
12841,-10.28
12853,-15.67
12865,-22.05
12877,-29.39
12889,-37.34
12901,-45.07
12912,-51.38
12923,-54.93
12935,-54.62
12947,-49.97
12959,-41.33
12971,-29.82
12983,-17.0
12995,-4.39
13007,6.85
13019,16.12
13031,23.26
13043,28.34
13055,31.51
13067,32.87
13079,32.53
13091,30.74
13102,27.87
13113,24.44
13125,20.98
13137,17.96
13149,15.65
13161,14.17
13173,13.5
13185,13.48
13197,13.92
13209,14.57
13221,15.14
13233,15.35
13245,14.93
13257,13.7
13269,11.59
13281,8.65
13292,5.05
13303,1.01
13315,-3.31
13327,-7.92
13339,-13.02
13351,-18.93
13363,-25.93
13375,-33.88
13387,-42.14
13399,-49.46
13411,-54.32
13423,-55.36
13435,-51.82
13447,-43.82
13459,-32.29
13471,-18.75
13482,-4.83
13493,8.06
13505,18.91
13517,27.26
13529,33.0
13541,36.33
13553,37.54
13565,37.03
13577,35.22
13589,32.54
13601,29.37
13613,26.05
13625,22.85
13637,20.03
13649,17.74
13661,16.1
13672,15.09
13683,14.55
13695,14.2
13707,13.7
13719,12.75
13731,11.21
13743,9.08
13755,6.47
13767,3.53
13779,0.29
13791,-3.3
13803,-7.37
13815,-12.04
13827,-17.41
13839,-23.5
13851,-30.26
13862,-37.54
13873,-44.9
13885,-51.64
13897,-56.73
13909,-58.99
13921,-57.47
13933,-51.72
13945,-42.08
13957,-29.59
13969,-15.8
13981,-2.25
13993,9.82
14005,19.73
14017,27.3
14029,32.62
14041,35.89
14052,37.3
14063,37.04
14075,35.41
14087,32.84
14099,29.81
14111,26.83
14123,24.25
14135,22.27
14147,20.92
14159,20.18
14171,19.93
14183,19.99
14195,20.16
14207,20.15
14219,19.71
14231,18.65
14242,16.81
14253,14.17
14265,10.81
14277,6.85
14289,2.46
14301,-2.23
14313,-7.19
14325,-12.56
14337,-18.56
14349,-25.42
14361,-33.09
14373,-41.06
14385,-48.28
14397,-53.39
14409,-55.05
14421,-52.45
14432,-45.61
14443,-35.37
14455,-23.11
14467,-10.36
14479,1.67
14491,12.24
14503,21.0
14515,27.83
14527,32.67
14539,35.48
14551,36.3
14563,35.4
14575,33.26
14587,30.47
14599,27.59
14611,24.97
14622,22.73
14633,20.9
14645,19.47
14657,18.49
14669,18.0
14681,17.97
14693,18.22
14705,18.39
14717,18.1
14729,17.02
14741,15.02
14753,12.17
14765,8.69
14777,4.82
14789,0.76
14801,-3.45
14812,-7.86
14823,-12.71
14835,-18.24
14847,-24.62
14859,-31.74
14871,-39.02
14883,-45.47
14895,-49.82
14907,-50.86
14919,-47.86
14931,-40.85
14943,-30.52
14955,-18.1
14967,-4.95
14979,7.78
14991,19.3
15002,29.16
15013,37.14
15025,43.14
15037,47.12
15049,49.17
15061,49.58
15073,48.83
15085,47.52
15097,46.26
15109,45.5
15121,45.43
15133,46.05
15145,47.23
15157,48.87
15169,50.89
15181,53.23
15192,55.7
15203,58.0
15215,59.74
15227,60.61
15239,60.52
15251,59.61
15263,58.19
15275,56.53
15287,54.73
15299,52.67
15311,49.96
15323,46.17
15335,40.85
15347,33.76
15359,24.92
15371,14.83
15382,4.4
15393,-5.01
15405,-11.93
15417,-15.06
15429,-13.7
15441,-7.99
15453,1.09
15465,12.0
15477,23.05
15489,32.91
15501,40.81
15513,46.66
15525,50.74
15537,53.5
15549,55.27
15561,56.12
15572,55.95
15583,54.63
15595,52.12
15607,48.57
15619,44.27
15631,39.56
15643,34.78
15655,30.13
15667,25.64
15679,21.18
15691,16.43
15703,10.99
15715,4.44
15727,-3.58
15739,-13.18
15751,-24.2
15762,-36.18
15773,-48.42
15785,-60.16
15797,-70.81
15809,-80.09
15821,-88.07
15833,-95.17
15845,-101.86
15857,-108.37
15869,-114.55
15881,-119.74
15893,-122.98
15905,-123.3
15917,-120.0
15929,-112.91
15941,-102.44
15952,-89.44
15963,-75.08
15975,-60.56
15987,-46.99
15999,-35.22
16011,-25.8
16023,-18.93
16035,-14.53
16047,-12.29
16059,-11.8
16071,-12.57
16083,-14.12
16095,-15.91
16107,-17.42
16119,-18.19
16131,-17.96
16142,-16.73
16153,-14.82
16165,-12.73
16177,-11.0
16189,-10.01
16201,-9.9
16213,-10.63
16225,-12.02
16237,-13.88
16249,-16.01
16261,-18.29
16273,-20.69
16285,-23.32
16297,-26.41
16309,-30.24
16321,-35.06
16332,-40.86
16343,-47.26
16355,-53.42
16367,-58.19
16379,-60.36
16391,-58.98
16403,-53.64
16415,-44.61
16427,-32.77
16439,-19.42
16451,-5.94
16463,6.49
16475,17.04
16487,25.22
16499,30.87
16511,34.07
16522,35.07
16533,34.24
16545,32.12
16557,29.26
16569,26.2
16581,23.36
16593,21.03
16605,19.33
16617,18.25
16629,17.68
16641,17.41
16653,17.2
16665,16.78
16677,15.86
16689,14.24
16701,11.83
16712,8.66
16723,4.91
16735,0.77
16747,-3.58
16759,-8.07
16771,-12.74
16783,-17.8
16795,-23.48
16807,-29.97
16819,-37.23
16831,-44.92
16843,-52.22
16855,-58.01
16867,-61.0
16879,-60.13
16891,-54.91
16902,-45.6
16913,-33.22
16925,-19.24
16937,-5.22
16949,7.59
16961,18.44
16973,27.07
16985,33.55
16997,38.05
17009,40.71
17021,41.68
17033,41.17
17045,39.55
17057,37.38
17069,35.28
17081,33.75
17092,33.06
17103,33.18
17115,33.9
17127,34.9
17139,35.92
17151,36.81
17163,37.48
17175,37.83
17187,37.71
17199,36.95
17211,35.4
17223,33.01
17235,29.87
17247,26.24
17259,22.39
17271,18.56
17282,14.85
17293,11.19
17305,7.39
17317,3.15
17329,-1.74
17341,-7.31
17353,-13.2
17365,-18.58
17377,-22.22
17389,-22.76
17401,-19.06
17413,-10.67
17425,2.02
17437,17.81
17449,35.03
17461,52.06
17472,67.68
17483,81.19
17495,92.36
17507,101.16
17519,107.66
17531,111.93
17543,114.1
17555,114.39
17567,113.04
17579,110.21
17591,105.84
17603,99.74
17615,91.64
17627,81.51
17639,69.73
17651,57.08
17662,44.65
17673,33.55
17685,24.63
17697,18.31
17709,14.58
17721,13.04
17733,13.04
17745,13.84
17757,14.81
17769,15.53
17781,15.79
17793,15.48
17805,14.37
17817,12.05
17829,7.88
17841,1.22
17852,-8.24
17863,-20.29
17875,-34.13
17887,-48.57
17899,-62.38
17911,-74.64
17923,-84.95
17935,-93.35
17947,-100.1
17959,-105.23
17971,-108.32
17983,-108.47
17995,-104.67
18007,-96.24
18019,-83.34
18031,-67.05
18042,-49.2
18053,-31.98
18065,-17.56
18077,-7.93
18089,-4.86
18101,-9.9
18113,-24.13
18125,-47.88
18137,-80.48
18149,-120.2
18161,-164.62
18173,-210.93
18185,-256.24
18197,-297.62
18209,-332.25
18221,-357.56
18232,-371.75
18243,-374.21
18255,-365.82
18267,-348.8
18279,-326.13
18291,-300.75
18303,-275.07
18315,-250.56
18327,-227.97
18339,-207.48
18351,-189.02
18363,-172.42
18375,-157.53
18387,-144.26
18399,-132.58
18411,-122.51
18422,-114.03
18433,-106.99
18445,-101.13
18457,-96.07
18469,-91.53
18481,-87.46
18493,-84.07
18505,-81.85
18517,-81.38
18529,-83.2
18541,-87.6
18553,-94.43
18565,-102.96
18577,-111.84
18589,-119.19
18601,-123.0
18612,-121.54
18623,-113.91
18635,-100.24
18647,-81.59
18659,-59.5
18671,-35.5
18683,-10.74
18695,14.09
18707,38.63
18719,62.68
18731,86.09
18743,108.86
18755,131.21
18767,153.62
18779,176.8
18791,201.49
18802,228.23
18813,257.21
18825,288.02
18837,319.65
18849,350.67
18861,379.65
18873,405.75
18885,429.09
18897,450.68
18909,471.82
18921,493.37
18933,515.25
18945,536.4
18957,554.99
18969,568.89
18981,575.93
18992,574.17
19003,562.18
19015,539.38
19027,506.47
19039,465.37
19051,418.96
19063,370.26
19075,321.75
19087,274.97
19099,230.61
19111,188.84
19123,149.61
19135,112.64
19147,77.39
19159,43.05
19171,8.9
19182,-25.14
19193,-58.13
19205,-88.25
19217,-113.32
19229,-131.59
19241,-142.31
19253,-146.03
19265,-144.3
19277,-139.09
19289,-132.23
19301,-124.98
19313,-118.02
19325,-111.69
19337,-106.25
19349,-102.02
19361,-99.3
19372,-98.14
19383,-98.14
19395,-98.51
19407,-98.22
19419,-96.4
19431,-92.53
19443,-86.56
19455,-78.75
19467,-69.54
19479,-59.38
19491,-48.72
19503,-37.96
19515,-27.54
19527,-17.86
19539,-9.16
19551,-1.46
19562,5.43
19573,11.68
19585,17.3
19597,21.92
19609,24.84
19621,25.12
19633,21.93
19645,14.8
19657,3.79
19669,-10.48
19681,-26.92
19693,-44.11
19705,-60.53
19717,-74.75
19729,-85.63
19741,-92.49
19752,-95.19
19763,-94.09
19775,-89.98
19787,-83.78
19799,-76.51
19811,-69.05
19823,-62.21
19835,-56.69
19847,-53.01
19859,-51.51
19871,-52.26
19883,-55.04
19895,-59.37
19907,-64.67
19919,-70.32
19931,-75.83
19942,-80.86
19953,-85.23
19965,-88.89
19977,-91.87
19989,-94.24
20001,-96.02
20013,-97.23
20025,-97.91
20037,-98.08
20049,-97.78
20061,-97.1
20073,-96.05
20085,-94.58
20097,-92.57
20109,-89.86
20121,-86.38
20132,-82.19
20143,-77.49
20155,-72.59
20167,-67.81
20179,-63.46
20191,-59.78
20203,-56.93
20215,-54.86
20227,-53.32
20239,-51.77
20251,-49.48
20263,-45.7
20275,-39.83
20287,-31.66
20299,-21.34
20311,-9.34
20322,3.8
20333,17.59
20345,31.68
20357,45.77
20369,59.5
20381,72.31
20393,83.45
20405,92.03
20417,97.2
20429,98.39
20441,95.35
20453,88.33
20465,77.95
20477,65.03
20489,50.4
20501,34.74
20512,18.53
20523,2.16
20535,-13.92
20547,-29.08
20559,-42.68
20571,-54.21
20583,-63.5
20595,-70.69
20607,-76.08
20619,-79.97
20631,-82.45
20643,-83.56
20655,-83.42
20667,-82.36
20679,-80.91
20691,-79.69
20702,-79.28
20713,-80.19
20725,-82.78
20737,-87.2
20749,-93.15
20761,-99.66
20773,-105.0
20785,-107.03
20797,-103.84
20809,-94.41
20821,-79.08
20833,-59.35
20845,-37.36
20857,-15.2
20869,5.58
20881,24.08
20892,39.89
20903,52.86
20915,62.98
20927,70.38
20939,75.46
20951,78.86
20963,81.29
20975,83.36
20987,85.31
20999,87.04
