seconds,BVP
2,20.02
13,19.33
24,18.7
36,18.16
48,17.75
60,17.5
72,17.38
84,17.34
96,17.31
108,17.14
120,16.69
132,15.75
144,14.16
156,11.9
168,9.15
180,6.27
192,3.67
203,1.67
214,0.29
226,-0.73
238,-1.78
250,-3.28
262,-5.36
274,-7.88
286,-10.44
298,-12.64
310,-14.18
322,-15.08
334,-15.59
346,-16.18
358,-17.38
370,-19.58
382,-22.85
393,-26.8
404,-30.54
416,-32.88
428,-32.67
440,-29.22
452,-22.62
464,-13.82
476,-4.29
488,4.42
500,11.19
512,15.66
524,18.15
536,19.35
548,19.95
560,20.36
572,20.64
583,20.65
594,20.27
606,19.55
618,18.73
630,18.16
642,18.11
654,18.59
666,19.44
678,20.31
690,21.0
702,21.42
714,21.69
726,21.94
738,22.21
750,22.35
762,22.06
773,21.08
784,19.33
796,17.0
808,14.47
820,12.07
832,9.89
844,7.71
856,4.99
868,1.27
880,-3.7
892,-9.76
904,-16.35
916,-22.72
928,-28.21
940,-32.42
952,-35.4
963,-37.53
974,-39.34
986,-41.4
998,-44.15
1010,-47.82
1022,-52.3
1034,-57.06
1046,-61.15
1058,-63.4
1070,-62.71
1082,-58.48
1094,-50.88
1106,-40.83
1118,-29.74
1130,-19.04
1142,-9.73
1153,-2.25
1164,3.45
1176,7.69
1188,10.75
1200,12.85
1212,14.11
1224,14.77
1236,15.1
1248,15.42
1260,15.89
1272,16.53
1284,17.24
1296,17.93
1308,18.68
1320,19.74
1332,21.31
1343,23.44
1354,25.89
1366,28.2
1378,29.9
1390,30.71
1402,30.56
1414,29.54
1426,27.85
1438,25.61
1450,22.9
1462,19.82
1474,16.47
1486,12.92
1498,9.21
1510,5.27
1522,1.0
1533,-3.61
1544,-8.48
1556,-13.32
1568,-17.83
1580,-21.75
1592,-25.02
1604,-27.74
1616,-30.24
1628,-32.88
1640,-35.96
1652,-39.5
1664,-43.09
1676,-45.86
1688,-46.76
1700,-44.85
1712,-39.73
1723,-31.76
1734,-21.96
1746,-11.75
1758,-2.49
1770,4.94
1782,10.2
1794,13.48
1806,15.19
1818,15.78
1830,15.58
1842,14.84
1854,13.76
1866,12.56
1878,11.5
1890,10.78
1902,10.48
1913,10.6
1924,11.01
1936,11.55
1948,12.1
1960,12.66
1972,13.26
1984,13.96
1996,14.73
2008,15.36
2020,15.62
2032,15.25
2044,14.13
2056,12.35
2068,10.18
2080,7.93
2092,5.82
2103,3.94
2114,2.15
2126,0.26
2138,-1.86
2150,-4.18
2162,-6.55
2174,-8.78
2186,-10.79
2198,-12.61
2210,-14.43
2222,-16.46
2234,-18.9
2246,-21.88
2258,-25.37
2270,-29.05
2282,-32.24
2293,-34.01
2304,-33.4
2316,-29.73
2328,-23.02
2340,-14.09
2352,-4.26
2364,4.99
2376,12.59
2388,18.08
2400,21.59
2412,23.54
2424,24.39
2436,24.45
2448,23.88
2460,22.77
2472,21.21
2483,19.34
2494,17.36
2506,15.54
2518,14.13
2530,13.34
2542,13.19
2554,13.49
2566,13.89
2578,14.02
2590,13.69
2602,12.91
2614,11.89
2626,10.91
2638,10.12
2650,9.48
2662,8.82
2673,7.86
2684,6.37
2696,4.22
2708,1.46
2720,-1.74
2732,-5.13
2744,-8.44
2756,-11.46
2768,-14.11
2780,-16.43
2792,-18.55
2804,-20.67
2816,-22.94
2828,-25.52
2840,-28.41
2852,-31.38
2863,-33.89
2874,-35.16
2886,-34.36
2898,-30.9
2910,-24.8
2922,-16.7
2934,-7.71
2946,0.93
2958,8.24
2970,13.71
2982,17.31
2994,19.3
3006,20.02
3018,19.7
3030,18.54
3042,16.75
3053,14.63
3064,12.58
3076,10.96
3088,10.05
3100,9.89
3112,10.31
3124,10.98
3136,11.55
3148,11.75
3160,11.52
3172,11.04
3184,10.55
3196,10.26
3208,10.12
3220,9.8
3232,8.88
3243,7.02
3254,4.22
3266,0.83
3278,-2.54
3290,-5.33
3302,-7.29
3314,-8.52
3326,-9.43
3338,-10.47
3350,-12.0
3362,-14.12
3374,-16.74
3386,-19.51
3398,-21.88
3410,-23.11
3422,-22.39
3433,-19.09
3444,-13.1
3456,-4.95
3468,4.31
3480,13.34
3492,21.02
3504,26.63
3516,30.03
3528,31.47
3540,31.36
3552,30.09
3564,27.98
3576,25.29
3588,22.34
3600,19.49
3612,17.05
3623,15.21
3634,13.95
3646,13.12
3658,12.47
3670,11.81
3682,11.06
3694,10.18
3706,9.22
3718,8.12
3730,6.8
3742,5.12
3754,2.99
3766,0.46
3778,-2.33
3790,-5.11
3802,-7.69
3813,-9.98
3824,-12.03
3836,-14.04
3848,-16.28
3860,-18.99
3872,-22.18
3884,-25.52
3896,-28.29
3908,-29.53
3920,-28.31
3932,-24.13
3944,-17.16
3956,-8.29
3968,1.14
3980,9.78
3992,16.63
4003,21.39
4014,24.16
4026,25.35
4038,25.38
4050,24.44
4062,22.64
4074,20.06
4086,16.91
4098,13.52
4110,10.32
4122,7.65
4134,5.67
4146,4.4
4158,3.61
4170,3.07
4182,2.57
4193,1.94
4204,1.13
4216,0.13
4228,-1.1
4240,-2.6
4252,-4.39
4264,-6.45
4276,-8.69
4288,-10.96
4300,-13.11
4312,-15.12
4324,-16.99
4336,-18.95
4348,-21.34
4360,-24.45
4372,-28.43
4383,-32.91
4394,-37.02
4406,-39.55
4418,-39.32
4430,-35.65
4442,-28.66
4454,-19.29
4466,-9.01
4478,0.73
4490,8.87
4502,14.97
4514,19.12
4526,21.69
4538,23.07
4550,23.54
4562,23.25
4573,22.33
4584,20.93
4596,19.31
4608,17.7
4620,16.27
4632,15.03
4644,13.87
4656,12.66
4668,11.31
4680,9.91
4692,8.65
4704,7.73
4716,7.14
4728,6.66
4740,5.87
4752,4.39
4763,2.04
4774,-1.03
4786,-4.4
4798,-7.56
4810,-10.14
4822,-12.08
4834,-13.65
4846,-15.33
4858,-17.57
4870,-20.66
4882,-24.46
4894,-28.47
4906,-31.8
4918,-33.43
4930,-32.47
4942,-28.47
4953,-21.7
4964,-13.0
4976,-3.66
4988,5.01
5000,12.11
5012,17.26
5024,20.63
5036,22.68
5048,23.9
5060,24.68
5072,25.17
5084,25.37
5096,25.18
5108,24.52
5120,23.38
5132,21.92
5143,20.41
5154,19.08
5166,18.09
5178,17.41
5190,16.87
5202,16.28
5214,15.57
5226,14.84
5238,14.29
5250,13.98
5262,13.81
5274,13.39
5286,12.23
5298,10.04
5310,6.8
5322,2.92
5333,-0.97
5344,-4.24
5356,-6.53
5368,-7.83
5380,-8.45
5392,-8.89
5404,-9.57
5416,-10.86
5428,-12.89
5440,-15.59
5452,-18.67
5464,-21.58
5476,-23.48
5488,-23.53
5500,-21.09
5512,-16.0
5523,-8.79
5534,-0.49
5546,7.63
5558,14.47
5570,19.45
5582,22.54
5594,24.12
5606,24.66
5618,24.58
5630,24.04
5642,23.11
5654,21.86
5666,20.47
5678,19.21
5690,18.3
5702,17.86
5713,17.75
5724,17.74
5736,17.52
5748,16.98
5760,16.13
5772,15.12
5784,14.15
5796,13.31
5808,12.55
5820,11.69
5832,10.53
5844,8.91
5856,6.84
5868,4.45
5880,1.99
5892,-0.29
5903,-2.23
5914,-3.76
5926,-5.03
5938,-6.25
5950,-7.65
5962,-9.37
5974,-11.36
5986,-13.4
5998,-15.21
6010,-16.55
6022,-17.41
6034,-17.97
6046,-18.59
6058,-19.73
6070,-21.72
6082,-24.61
6093,-28.02
6104,-31.18
6116,-33.07
6128,-32.75
6140,-29.72
6152,-24.13
6164,-16.8
6176,-8.97
6188,-1.79
6200,3.96
6212,8.06
6224,10.76
6236,12.48
6248,13.63
6260,14.42
6272,14.87
6283,14.96
6294,14.71
6306,14.23
6318,13.65
6330,13.09
6342,12.61
6354,12.21
6366,11.9
6378,11.68
6390,11.53
6402,11.44
6414,11.38
6426,11.28
6438,11.12
6450,10.91
6462,10.64
6473,10.28
6484,9.69
6496,8.69
6508,7.17
6520,5.19
6532,3.0
6544,1.02
6556,-0.44
6568,-1.31
6580,-1.8
6592,-2.31
6604,-3.22
6616,-4.7
6628,-6.66
6640,-8.84
6652,-10.94
6663,-12.78
6674,-14.39
6686,-15.9
6698,-17.49
6710,-19.29
6722,-21.41
6734,-23.95
6746,-26.89
6758,-30.07
6770,-33.05
6782,-35.1
6794,-35.37
6806,-33.19
6818,-28.38
6830,-21.33
6842,-13.04
6853,-4.75
6864,2.46
6876,7.91
6888,11.53
6900,13.71
6912,15.01
6924,15.92
6936,16.69
6948,17.31
6960,17.66
6972,17.61
6984,17.14
6996,16.32
7008,15.31
7020,14.23
7032,13.19
7043,12.26
7054,11.5
7066,10.93
7078,10.56
7090,10.34
7102,10.23
7114,10.11
7126,9.9
7138,9.51
7150,8.82
7162,7.73
7174,6.18
7186,4.26
7198,2.16
7210,0.15
7222,-1.55
7233,-2.91
7244,-4.06
7256,-5.26
7268,-6.76
7280,-8.64
7292,-10.87
7304,-13.29
7316,-15.7
7328,-17.92
7340,-19.82
7352,-21.37
7364,-22.58
7376,-23.58
7388,-24.57
7400,-25.83
7412,-27.62
7423,-30.08
7434,-33.15
7446,-36.41
7458,-39.17
7470,-40.51
7482,-39.6
7494,-35.99
7506,-29.77
7518,-21.69
7530,-12.84
7542,-4.39
7554,2.75
7566,8.24
7578,12.11
7590,14.72
7602,16.47
7613,17.63
7624,18.3
7636,18.54
7648,18.37
7660,17.88
7672,17.23
7684,16.54
7696,15.86
7708,15.14
7720,14.34
7732,13.42
7744,12.54
7756,11.91
7768,11.78
7780,12.23
7792,13.09
7803,13.96
7814,14.35
7826,13.95
7838,12.71
7850,10.92
7862,9.03
7874,7.43
7886,6.32
7898,5.64
7910,5.15
7922,4.56
7934,3.62
7946,2.25
7958,0.5
7970,-1.48
7982,-3.49
7993,-5.27
8004,-6.61
8016,-7.42
8028,-7.75
8040,-7.89
8052,-8.25
8064,-9.22
8076,-11.02
8088,-13.48
8100,-15.95
8112,-17.54
8124,-17.29
8136,-14.61
8148,-9.5
8160,-2.61
8172,4.95
8183,11.98
8194,17.56
8206,21.35
8218,23.44
8230,24.24
8242,24.18
8254,23.5
8266,22.28
8278,20.55
8290,18.41
8302,16.14
8314,14.09
8326,12.52
8338,11.55
8350,11.13
8362,11.02
8373,11.01
8384,10.91
8396,10.55
8408,9.86
8420,8.77
8432,7.27
8444,5.36
8456,3.07
8468,0.42
8480,-2.58
8492,-5.84
8504,-9.24
8516,-12.54
8528,-15.53
8540,-18.1
8552,-20.3
8563,-22.3
8574,-24.26
8586,-26.23
8598,-28.02
8610,-29.37
8622,-30.14
8634,-30.43
8646,-30.66
8658,-31.35
8670,-32.86
8682,-35.15
8694,-37.67
8706,-39.52
8718,-39.73
8730,-37.59
8742,-32.89
8753,-26.01
8764,-17.73
8776,-9.09
8788,-1.01
8800,5.82
8812,11.04
8824,14.62
8836,16.77
8848,17.81
8860,18.06
8872,17.83
8884,17.37
8896,16.82
8908,16.28
8920,15.74
8932,15.23
8943,14.8
8954,14.55
8966,14.6
8978,14.96
8990,15.52
9002,16.09
9014,16.44
9026,16.39
9038,15.82
9050,14.67
9062,12.86
9074,10.36
9086,7.22
9098,3.6
9110,-0.23
9122,-3.99
9133,-7.43
9144,-10.45
9156,-13.07
9168,-15.35
9180,-17.26
9192,-18.81
9204,-20.06
9216,-21.13
9228,-22.25
9240,-23.74
9252,-25.8
9264,-28.51
9276,-31.62
9288,-34.56
9300,-36.46
9312,-36.39
9323,-33.68
9334,-28.2
9346,-20.45
9358,-11.48
9370,-2.49
9382,5.49
9394,11.89
9406,16.6
9418,19.89
9430,22.09
9442,23.49
9454,24.29
9466,24.53
9478,24.25
9490,23.46
9502,22.23
9513,20.71
9524,19.14
9536,17.77
9548,16.83
9560,16.38
9572,16.31
9584,16.42
9596,16.5
9608,16.36
9620,15.97
9632,15.33
9644,14.48
9656,13.45
9668,12.2
9680,10.69
9692,8.88
9703,6.74
9714,4.24
9726,1.46
9738,-1.48
9750,-4.46
9762,-7.31
9774,-9.93
9786,-12.32
9798,-14.54
9810,-16.75
9822,-19.15
9834,-21.87
9846,-24.97
9858,-28.3
9870,-31.46
9882,-33.75
9893,-34.39
9904,-32.66
9916,-28.21
9928,-21.28
9940,-12.67
9952,-3.53
9964,5.0
9976,12.08
9988,17.37
10000,20.95
10012,23.18
10024,24.43
10036,24.97
10048,24.9
10060,24.28
10072,23.15
10083,21.63
10094,19.96
10106,18.41
10118,17.2
10130,16.44
10142,16.04
10154,15.83
10166,15.54
10178,14.97
10190,14.03
10202,12.78
10214,11.36
10226,9.89
10238,8.43
10250,6.99
10262,5.52
10273,3.95
10284,2.24
10296,0.32
10308,-1.84
10320,-4.26
10332,-6.91
10344,-9.73
10356,-12.57
10368,-15.31
10380,-17.84
10392,-20.1
10404,-22.13
10416,-24.11
10428,-26.22
10440,-28.63
10452,-31.26
10463,-33.64
10474,-35.01
10486,-34.46
10498,-31.29
10510,-25.36
10522,-17.26
10534,-8.11
10546,0.71
10558,8.08
10570,13.38
10582,16.58
10594,18.09
10606,18.43
10618,18.05
10630,17.2
10642,16.0
10653,14.54
10664,13.01
10676,11.65
10688,10.69
10700,10.22
10712,10.17
10724,10.28
10736,10.3
10748,10.07
10760,9.61
10772,9.03
10784,8.46
10796,7.87
10808,7.16
10820,6.17
10832,4.76
10843,2.96
10854,0.82
10866,-1.53
10878,-4.03
10890,-6.61
10902,-9.22
10914,-11.73
10926,-14.01
10938,-15.88
10950,-17.25
10962,-18.14
10974,-18.64
10986,-19.01
10998,-19.58
11010,-20.72
11022,-22.68
11033,-25.45
11044,-28.56
11056,-31.05
11068,-31.74
11080,-29.57
11092,-24.1
11104,-15.69
11116,-5.5
11128,4.91
11140,14.12
11152,21.19
11164,25.85
11176,28.38
11188,29.33
11200,29.2
11212,28.35
11223,26.98
11234,25.23
11246,23.28
11258,21.35
11270,19.6
11282,18.15
11294,16.98
11306,15.97
11318,14.99
11330,14.0
11342,13.03
11354,12.26
11366,11.9
11378,12.02
11390,12.48
11402,12.97
11413,13.02
11424,12.26
11436,10.49
11448,7.79
11460,4.46
11472,0.9
11484,-2.6
11496,-5.83
11508,-8.77
11520,-11.43
11532,-13.79
11544,-15.82
11556,-17.52
11568,-18.91
11580,-20.18
11592,-21.61
11603,-23.52
11614,-26.08
11626,-29.13
11638,-32.06
11650,-33.9
11662,-33.62
11674,-30.48
11686,-24.41
11698,-16.08
11710,-6.74
11722,2.21
11734,9.64
11746,15.02
11758,18.42
11770,20.33
11782,21.31
11793,21.77
11804,21.8
11816,21.36
11828,20.34
11840,18.79
11852,16.96
11864,15.2
11876,13.86
11888,13.1
11900,12.89
11912,13.03
11924,13.34
11936,13.62
11948,13.72
11960,13.52
11972,12.89
11983,11.75
11994,10.09
12006,8.05
12018,5.82
12030,3.56
12042,1.36
12054,-0.86
12066,-3.19
12078,-5.71
12090,-8.37
12102,-11.02
12114,-13.47
12126,-15.56
12138,-17.25
12150,-18.66
12162,-20.06
12173,-21.79
12184,-24.11
12196,-27.09
12208,-30.42
12220,-33.38
12232,-34.98
12244,-34.27
12256,-30.68
12268,-24.31
12280,-15.9
12292,-6.72
12304,1.94
12316,9.12
12328,14.39
12340,17.86
12352,19.85
12363,20.71
12374,20.6
12386,19.59
12398,17.74
12410,15.3
12422,12.66
12434,10.25
12446,8.36
12458,7.09
12470,6.36
12482,5.97
12494,5.71
12506,5.41
12518,4.99
12530,4.42
12542,3.77
12553,3.07
12564,2.42
12576,1.83
12588,1.2
12600,0.39
12612,-0.7
12624,-2.08
12636,-3.59
12648,-4.91
12660,-5.77
12672,-5.96
12684,-5.46
12696,-4.42
12708,-3.11
12720,-1.87
12732,-1.01
12743,-0.67
12754,-0.79
12766,-1.03
12778,-0.76
12790,0.68
12802,3.89
12814,9.09
12826,16.04
12838,24.07
12850,32.3
12862,39.82
12874,45.94
12886,50.28
12898,52.77
12910,53.58
12922,52.95
12933,51.18
12944,48.47
12956,44.99
12968,40.9
12980,36.36
12992,31.57
13004,26.79
13016,22.29
13028,18.3
13040,14.94
13052,12.17
13064,9.85
13076,7.74
13088,5.67
13100,3.56
13112,1.42
13123,-0.68
13134,-2.75
13146,-4.95
13158,-7.57
13170,-10.86
13182,-14.87
13194,-19.38
13206,-23.88
13218,-27.85
13230,-30.92
13242,-33.08
13254,-34.63
13266,-36.09
13278,-37.98
13290,-40.58
13302,-43.9
13313,-47.53
13324,-50.83
13336,-52.92
13348,-52.95
13360,-50.34
13372,-45.01
13384,-37.5
13396,-28.8
13408,-20.1
13420,-12.37
13432,-6.15
13444,-1.53
13456,1.75
13468,4.02
13480,5.49
13492,6.2
13503,6.1
13514,5.26
13526,3.84
13538,2.24
13550,0.87
13562,0.12
13574,0.18
13586,0.99
13598,2.27
13610,3.64
13622,4.79
13634,5.57
13646,5.99
13658,6.14
13670,6.04
13682,5.55
13693,4.47
13704,2.62
13716,-0.0
13728,-3.15
13740,-6.4
13752,-9.33
13764,-11.75
13776,-13.75
13788,-15.65
13800,-17.91
13812,-20.84
13824,-24.56
13836,-28.91
13848,-33.5
13860,-37.71
13872,-40.79
13883,-42.02
13894,-40.82
13906,-37.0
13918,-30.88
13930,-23.27
13942,-15.3
13954,-8.09
13966,-2.4
13978,1.54
13990,3.92
14002,5.22
14014,5.8
14026,5.88
14038,5.43
14050,4.5
14062,3.27
14073,2.24
14084,2.07
14096,3.47
14108,6.88
14120,12.37
14132,19.6
14144,27.86
14156,36.31
14168,44.09
14180,50.49
14192,55.0
14204,57.4
14216,57.78
14228,56.51
14240,54.13
14252,51.27
14263,48.51
14274,46.21
14286,44.49
14298,43.28
14310,42.31
14322,41.24
14334,39.71
14346,37.38
14358,34.06
14370,29.8
14382,24.96
14394,20.21
14406,16.41
14418,14.22
14430,13.96
14442,15.31
14453,17.51
14464,19.54
14476,20.55
14488,20.12
14500,18.23
14512,15.24
14524,11.57
14536,7.53
14548,3.33
14560,-0.89
14572,-4.98
14584,-8.69
14596,-11.73
14608,-13.86
14620,-14.97
14632,-15.12
14643,-14.48
14654,-13.28
14666,-11.79
14678,-10.27
14690,-9.03
14702,-8.29
14714,-8.2
14726,-8.76
14738,-9.91
14750,-11.48
14762,-13.33
14774,-15.31
14786,-17.34
14798,-19.35
14810,-21.29
14822,-23.22
14833,-25.26
14844,-27.57
14856,-30.17
14868,-32.8
14880,-34.85
14892,-35.45
14904,-33.81
14916,-29.49
14928,-22.7
14940,-14.29
14952,-5.54
14964,2.3
14976,8.29
14988,12.11
15000,13.99
15012,14.52
15023,14.32
15034,13.82
15046,13.2
15058,12.43
15070,11.41
15082,10.1
15094,8.56
15106,6.95
15118,5.44
15130,4.17
15142,3.23
15154,2.63
15166,2.33
15178,2.21
15190,2.12
15202,1.87
15213,1.29
15224,0.23
15236,-1.38
15248,-3.57
15260,-6.22
15272,-9.15
15284,-12.08
15296,-14.7
15308,-16.84
15320,-18.54
15332,-20.07
15344,-21.86
15356,-24.3
15368,-27.43
15380,-30.79
15392,-33.44
15403,-34.22
15414,-32.22
15426,-27.2
15438,-19.78
15450,-11.2
15462,-2.94
15474,3.9
15486,8.85
15498,12.11
15510,14.28
15522,15.91
15534,17.3
15546,18.39
15558,18.96
15570,18.84
15582,17.99
15593,16.63
15604,15.03
15616,13.48
15628,12.17
15640,11.16
15652,10.42
15664,9.86
15676,9.4
15688,8.96
15700,8.53
15712,8.11
15724,7.66
15736,7.01
15748,5.95
15760,4.23
15772,1.69
15783,-1.66
15794,-5.59
15806,-9.67
15818,-13.42
15830,-16.44
15842,-18.51
15854,-19.69
15866,-20.29
15878,-20.77
15890,-21.62
15902,-23.27
15914,-25.83
15926,-29.1
15938,-32.49
15950,-35.15
15962,-36.19
15973,-34.9
15984,-31.06
15996,-24.98
16008,-17.44
16020,-9.44
16032,-1.97
16044,4.29
16056,9.05
16068,12.39
16080,14.61
16092,16.13
16104,17.29
16116,18.32
16128,19.29
16140,20.18
16152,20.84
16163,21.16
16174,21.02
16186,20.41
16198,19.42
16210,18.26
16222,17.15
16234,16.32
16246,15.85
16258,15.68
16270,15.66
16282,15.54
16294,15.16
16306,14.45
16318,13.38
16330,11.98
16342,10.3
16353,8.41
16364,6.42
16376,4.42
16388,2.53
16400,0.77
16412,-0.88
16424,-2.53
16436,-4.27
16448,-6.09
16460,-8.01
16472,-9.98
16484,-11.97
16496,-14.01
16508,-16.04
16520,-18.04
16532,-19.94
16543,-21.7
16554,-23.33
16566,-24.96
16578,-26.8
16590,-29.05
16602,-31.84
16614,-35.09
16626,-38.39
16638,-41.04
16650,-42.1
16662,-40.74
16674,-36.5
16686,-29.53
16698,-20.64
16710,-11.04
16722,-1.97
16733,5.62
16744,11.3
16756,15.1
16768,17.46
16780,18.91
16792,20.01
16804,21.14
16816,22.45
16828,23.86
16840,25.12
16852,25.92
16864,26.09
16876,25.69
16888,25.0
16900,24.37
16912,24.05
16923,24.07
16934,24.24
16946,24.28
16958,23.82
16970,22.56
16982,20.22
16994,16.6
17006,11.74
17018,5.95
17030,-0.12
17042,-5.54
17054,-9.44
17066,-11.25
17078,-10.91
17090,-8.95
17102,-6.21
17113,-3.55
17124,-1.63
17136,-0.76
17148,-0.96
17160,-2.11
17172,-4.01
17184,-6.5
17196,-9.44
17208,-12.67
17220,-15.97
17232,-19.09
17244,-21.85
17256,-24.1
17268,-25.83
17280,-27.17
17292,-28.4
17303,-29.86
17314,-31.93
17326,-34.86
17338,-38.58
17350,-42.6
17362,-45.96
17374,-47.48
17386,-46.15
17398,-41.55
17410,-34.05
17422,-24.74
17434,-15.06
17446,-6.36
17458,0.52
17470,5.42
17482,8.65
17493,10.81
17504,12.4
17516,13.71
17528,14.76
17540,15.47
17552,15.79
17564,15.79
17576,15.67
17588,15.62
17600,15.71
17612,15.83
17624,15.77
17636,15.37
17648,14.69
17660,13.98
17672,13.52
17683,13.45
17694,13.64
17706,13.75
17718,13.45
17730,12.57
17742,11.2
17754,9.63
17766,8.16
17778,6.88
17790,5.69
17802,4.34
17814,2.64
17826,0.56
17838,-1.7
17850,-3.82
17862,-5.5
17873,-6.66
17884,-7.47
17896,-8.26
17908,-9.29
17920,-10.59
17932,-11.92
17944,-12.91
17956,-13.27
17968,-13.05
17980,-12.6
17992,-12.51
18004,-13.21
18016,-14.89
18028,-17.39
18040,-20.34
18052,-23.27
18063,-25.67
18074,-26.94
18086,-26.35
18098,-23.06
18110,-16.56
18122,-6.97
18134,4.59
18146,16.19
18158,25.72
18170,31.58
18182,33.38
18194,31.91
18206,28.72
18218,25.37
18230,22.73
18242,20.94
18253,19.57
18264,18.25
18276,17.0
18288,16.26
18300,16.53
18312,17.98
18324,20.17
18336,22.23
18348,23.21
18360,22.54
18372,20.27
18384,17.02
18396,13.58
18408,10.55
18420,8.07
18432,5.77
18443,3.09
18454,-0.41
18466,-4.77
18478,-9.6
18490,-14.23
18502,-18.08
18514,-20.89
18526,-22.86
18538,-24.56
18550,-26.67
18562,-29.61
18574,-33.46
18586,-37.9
18598,-42.37
18610,-46.39
18622,-49.65
18633,-52.15
18644,-54.17
18656,-56.11
18668,-58.27
18680,-60.82
18692,-63.57
18704,-65.98
18716,-67.16
18728,-65.99
18740,-61.37
18752,-52.51
18764,-39.27
18776,-22.18
18788,-2.5
18800,18.21
18812,38.35
18823,56.63
18834,72.25
18846,84.81
18858,94.2
18870,100.39
18882,103.31
18894,102.9
18906,99.17
18918,92.37
18930,83.08
18942,72.15
18954,60.62
18966,49.48
18978,39.55
18990,31.33
19002,25.03
19013,20.6
19024,17.79
19036,16.23
19048,15.51
19060,15.15
19072,14.7
19084,13.78
19096,12.1
19108,9.61
19120,6.44
19132,2.99
19144,-0.31
19156,-3.06
19168,-5.15
19180,-6.83
19192,-8.56
19203,-10.83
19214,-13.84
19226,-17.47
19238,-21.25
19250,-24.68
19262,-27.48
19274,-29.7
19286,-31.67
19298,-33.84
19310,-36.57
19322,-40.0
19334,-43.97
19346,-48.02
19358,-51.41
19370,-53.21
19382,-52.58
19393,-49.0
19404,-42.52
19416,-33.85
19428,-24.13
19440,-14.62
19452,-6.33
19464,0.22
19476,5.0
19488,8.29
19500,10.41
19512,11.58
19524,11.88
19536,11.4
19548,10.3
19560,8.79
19572,7.13
19583,5.5
19594,4.01
19606,2.67
19618,1.46
19630,0.37
19642,-0.64
19654,-1.58
19666,-2.55
19678,-3.72
19690,-5.27
19702,-7.36
19714,-9.94
19726,-12.83
19738,-15.61
19750,-17.81
19762,-19.0
19773,-18.97
19784,-17.85
19796,-16.08
19808,-14.34
19820,-13.18
19832,-12.87
19844,-13.3
19856,-14.03
19868,-14.55
19880,-14.55
19892,-13.97
19904,-13.0
19916,-11.94
19928,-11.02
19940,-10.38
19952,-10.1
19963,-10.03
19974,-9.79
19986,-8.61
19998,-5.43
20010,0.81
20022,10.64
20034,23.73
20046,38.82
20058,54.0
20070,67.39
20082,77.69
20094,84.48
20106,88.06
20118,89.13
20130,88.32
20142,85.95
20153,82.12
20164,76.82
20176,70.16
20188,62.48
20200,54.33
20212,46.37
20224,39.15
20236,32.99
20248,27.88
20260,23.53
20272,19.53
20284,15.55
20296,11.45
20308,7.37
20320,3.56
20332,0.27
20343,-2.46
20354,-4.77
20366,-6.95
20378,-9.27
20390,-11.85
20402,-14.66
20414,-17.61
20426,-20.56
20438,-23.44
20450,-26.2
20462,-28.79
20474,-31.13
20486,-33.18
20498,-34.92
20510,-36.47
20522,-38.09
20533,-40.05
20544,-42.58
20556,-45.56
20568,-48.48
20580,-50.44
20592,-50.42
20604,-47.59
20616,-41.71
20628,-33.27
20640,-23.37
20652,-13.45
20664,-4.77
20676,1.87
20688,6.26
20700,8.69
20712,9.64
20723,9.52
20734,8.54
20746,6.79
20758,4.32
20770,1.43
20782,-1.46
20794,-3.84
20806,-5.42
20818,-6.25
20830,-6.76
20842,-7.48
20854,-8.78
20866,-10.6
20878,-12.42
20890,-13.51
20902,-13.25
20913,-11.45
20924,-8.46
20936,-4.99
20948,-1.8
20960,0.65
20972,2.37
20984,3.7
20996,5.11
