seconds,BVP
10,8.56
21,7.98
32,7.03
44,5.75
56,4.24
68,2.54
80,0.7
92,-1.27
104,-3.25
116,-5.02
128,-6.19
140,-6.38
152,-5.37
164,-3.19
176,-0.17
188,3.19
200,6.41
211,9.15
222,11.29
234,12.84
246,13.86
258,14.44
270,14.64
282,14.54
294,14.26
306,13.94
318,13.69
330,13.52
342,13.4
354,13.27
366,13.12
378,13.02
390,13.03
401,13.19
412,13.48
424,13.77
436,13.95
448,13.92
460,13.63
472,13.12
484,12.49
496,11.88
508,11.4
520,11.15
532,11.1
544,11.19
556,11.29
568,11.29
580,11.14
591,10.87
602,10.53
614,10.13
626,9.65
638,9.01
650,8.18
662,7.12
674,5.87
686,4.48
698,2.97
710,1.37
722,-0.31
734,-2.06
746,-3.89
758,-5.74
770,-7.53
781,-9.11
792,-10.29
804,-10.88
816,-10.75
828,-9.93
840,-8.6
852,-7.02
864,-5.43
876,-4.0
888,-2.81
900,-1.85
912,-1.13
924,-0.72
936,-0.65
948,-0.92
960,-1.39
971,-1.8
982,-1.91
994,-1.56
1006,-0.79
1018,0.22
1030,1.21
1042,2.06
1054,2.82
1066,3.66
1078,4.72
1090,5.98
1102,7.28
1114,8.36
1126,9.02
1138,9.27
1150,9.22
1161,9.09
1172,9.01
1184,8.98
1196,8.93
1208,8.73
1220,8.31
1232,7.7
1244,6.96
1256,6.19
1268,5.46
1280,4.81
1292,4.26
1304,3.79
1316,3.33
1328,2.81
1340,2.1
1351,1.14
1362,-0.07
1374,-1.45
1386,-2.83
1398,-4.01
1410,-4.83
1422,-5.2
1434,-5.16
1446,-4.8
1458,-4.23
1470,-3.56
1482,-2.9
1494,-2.28
1506,-1.74
1518,-1.3
1530,-0.94
1541,-0.63
1552,-0.36
1564,-0.11
1576,0.08
1588,0.15
1600,0.08
1612,-0.13
1624,-0.4
1636,-0.64
1648,-0.75
1660,-0.67
1672,-0.38
1684,0.13
1696,0.85
1708,1.75
1720,2.77
1731,3.79
1742,4.65
1754,5.27
1766,5.57
1778,5.6
1790,5.46
1802,5.26
1814,5.09
1826,4.96
1838,4.83
1850,4.66
1862,4.41
1874,4.11
1886,3.8
1898,3.52
1910,3.23
1921,2.82
1932,2.19
1944,1.27
1956,0.1
1968,-1.18
1980,-2.36
1992,-3.24
2004,-3.67
2016,-3.61
2028,-3.08
2040,-2.13
2052,-0.83
2064,0.75
2076,2.53
2088,4.39
2100,6.25
2111,8.01
2122,9.6
2134,10.96
2146,12.06
2158,12.87
2170,13.4
2182,13.7
2194,13.88
2206,14.03
2218,14.19
2230,14.35
2242,14.4
2254,14.27
2266,13.94
2278,13.47
2290,13.01
2301,12.65
2312,12.44
2324,12.29
2336,12.12
2348,11.82
2360,11.3
2372,10.53
2384,9.5
2396,8.21
2408,6.71
2420,5.07
2432,3.38
2444,1.73
2456,0.16
2468,-1.39
2480,-3.04
2491,-4.91
2502,-7.05
2514,-9.41
2526,-11.85
2538,-14.19
2550,-16.26
2562,-17.92
2574,-19.06
2586,-19.6
2598,-19.48
2610,-18.71
2622,-17.39
2634,-15.73
2646,-13.98
2658,-12.36
2670,-10.99
2681,-9.85
2692,-8.87
2704,-7.96
2716,-7.1
2728,-6.31
2740,-5.64
2752,-5.09
2764,-4.62
2776,-4.14
2788,-3.57
2800,-2.87
2812,-2.02
2824,-1.05
2836,-0.02
2848,1.0
2860,1.91
2871,2.67
2882,3.21
2894,3.51
2906,3.62
2918,3.57
2930,3.42
2942,3.17
2954,2.81
2966,2.3
2978,1.62
2990,0.81
3002,-0.1
3014,-1.03
3026,-1.96
3038,-2.88
3050,-3.84
3061,-4.85
3072,-5.91
3084,-6.96
3096,-7.99
3108,-9.0
3120,-10.01
3132,-11.03
3144,-11.97
3156,-12.66
3168,-12.84
3180,-12.31
3192,-10.97
3204,-8.93
3216,-6.47
3228,-3.95
3240,-1.7
3251,0.04
3262,1.18
3274,1.76
3286,1.86
3298,1.56
3310,0.97
3322,0.21
3334,-0.56
3346,-1.17
3358,-1.46
3370,-1.37
3382,-0.93
3394,-0.24
3406,0.59
3418,1.49
3430,2.47
3441,3.52
3452,4.63
3464,5.66
3476,6.41
3488,6.72
3500,6.51
3512,5.85
3524,4.89
3536,3.81
3548,2.73
3560,1.68
3572,0.66
3584,-0.33
3596,-1.22
3608,-1.96
3620,-2.5
3631,-2.91
3642,-3.37
3654,-4.0
3666,-4.89
3678,-5.93
3690,-6.92
3702,-7.65
3714,-8.0
3726,-7.96
3738,-7.59
3750,-6.97
3762,-6.17
3774,-5.19
3786,-4.06
3798,-2.81
3810,-1.48
3821,-0.13
3832,1.15
3844,2.32
3856,3.28
3868,3.98
3880,4.38
3892,4.48
3904,4.37
3916,4.17
3928,4.03
3940,4.06
3952,4.3
3964,4.73
3976,5.24
3988,5.69
4000,5.98
4011,6.03
4022,5.84
4034,5.48
4046,5.07
4058,4.71
4070,4.46
4082,4.34
4094,4.28
4106,4.16
4118,3.85
4130,3.26
4142,2.42
4154,1.44
4166,0.46
4178,-0.38
4190,-1.04
4201,-1.56
4212,-2.05
4224,-2.6
4236,-3.24
4248,-3.91
4260,-4.52
4272,-5.0
4284,-5.35
4296,-5.64
4308,-5.96
4320,-6.41
4332,-7.05
4344,-7.91
4356,-8.96
4368,-10.13
4380,-11.23
4391,-12.05
4402,-12.33
4414,-11.86
4426,-10.59
4438,-8.65
4450,-6.34
4462,-4.04
4474,-2.06
4486,-0.57
4498,0.44
4510,1.08
4522,1.53
4534,1.89
4546,2.23
4558,2.55
4570,2.84
4581,3.09
4592,3.31
4604,3.51
4616,3.74
4628,4.01
4640,4.32
4652,4.63
4664,4.88
4676,5.04
4688,5.12
4700,5.16
4712,5.22
4724,5.35
4736,5.52
4748,5.68
4760,5.73
4771,5.6
4782,5.26
4794,4.73
4806,4.03
4818,3.25
4830,2.47
4842,1.74
4854,1.1
4866,0.55
4878,0.04
4890,-0.51
4902,-1.12
4914,-1.8
4926,-2.49
4938,-3.13
4950,-3.7
4961,-4.23
4972,-4.71
4984,-5.15
4996,-5.53
5008,-5.85
5020,-6.14
5032,-6.41
5044,-6.63
5056,-6.68
5068,-6.38
5080,-5.58
5092,-4.26
5104,-2.57
5116,-0.78
5128,0.86
5140,2.19
5151,3.2
5162,3.98
5174,4.59
5186,4.98
5198,5.06
5210,4.76
5222,4.12
5234,3.27
5246,2.45
5258,1.84
5270,1.56
5282,1.58
5294,1.81
5306,2.17
5318,2.59
5330,3.07
5341,3.61
5352,4.19
5364,4.76
5376,5.24
5388,5.57
5400,5.69
5412,5.58
5424,5.24
5436,4.73
5448,4.11
5460,3.44
5472,2.8
5484,2.23
5496,1.71
5508,1.23
5520,0.81
5531,0.44
5542,0.17
5554,0.02
5566,-0.06
5578,-0.17
5590,-0.42
5602,-0.89
5614,-1.55
5626,-2.34
5638,-3.13
5650,-3.87
5662,-4.55
5674,-5.2
5686,-5.89
5698,-6.64
5710,-7.44
5721,-8.33
5732,-9.3
5744,-10.4
5756,-11.59
5768,-12.77
5780,-13.7
5792,-14.09
5804,-13.69
5816,-12.39
5828,-10.3
5840,-7.7
5852,-4.97
5864,-2.48
5876,-0.46
5888,1.03
5900,2.01
5911,2.6
5922,2.85
5934,2.84
5946,2.6
5958,2.23
5970,1.84
5982,1.57
5994,1.53
6006,1.77
6018,2.28
6030,3.03
6042,3.95
6054,4.97
6066,6.04
6078,7.07
6090,8.01
6101,8.81
6112,9.4
6124,9.74
6136,9.79
6148,9.54
6160,9.05
6172,8.44
6184,7.8
6196,7.2
6208,6.59
6220,5.9
6232,5.07
6244,4.15
6256,3.24
6268,2.52
6280,2.04
6291,1.78
6302,1.54
6314,1.12
6326,0.37
6338,-0.69
6350,-1.95
6362,-3.25
6374,-4.45
6386,-5.48
6398,-6.33
6410,-7.02
6422,-7.64
6434,-8.27
6446,-8.99
6458,-9.85
6470,-10.86
6481,-11.97
6492,-13.04
6504,-13.86
6516,-14.24
6528,-14.01
6540,-13.08
6552,-11.47
6564,-9.35
6576,-6.95
6588,-4.53
6600,-2.31
6612,-0.36
6624,1.31
6636,2.75
6648,4.0
6660,5.03
6671,5.77
6682,6.14
6694,6.12
6706,5.76
6718,5.19
6730,4.6
6742,4.15
6754,3.94
6766,3.97
6778,4.21
6790,4.57
6802,4.97
6814,5.36
6826,5.74
6838,6.1
6850,6.42
6861,6.69
6872,6.88
6884,7.0
6896,7.03
6908,6.97
6920,6.78
6932,6.42
6944,5.84
6956,5.08
6968,4.2
6980,3.32
6992,2.55
7004,1.94
7016,1.48
7028,1.1
7040,0.68
7051,0.16
7062,-0.49
7074,-1.24
7086,-1.96
7098,-2.54
7110,-2.85
7122,-2.88
7134,-2.74
7146,-2.59
7158,-2.64
7170,-3.0
7182,-3.69
7194,-4.64
7206,-5.79
7218,-7.11
7230,-8.59
7241,-10.16
7252,-11.66
7264,-12.75
7276,-13.08
7288,-12.41
7300,-10.75
7312,-8.38
7324,-5.77
7336,-3.38
7348,-1.49
7360,-0.15
7372,0.77
7384,1.48
7396,2.08
7408,2.54
7420,2.73
7431,2.5
7442,1.82
7454,0.86
7466,-0.13
7478,-0.85
7490,-1.13
7502,-0.95
7514,-0.41
7526,0.3
7538,1.06
7550,1.76
7562,2.38
7574,2.91
7586,3.35
7598,3.72
7610,4.0
7621,4.22
7632,4.38
7644,4.48
7656,4.51
7668,4.38
7680,4.06
7692,3.51
7704,2.75
7716,1.87
7728,0.98
7740,0.18
7752,-0.52
7764,-1.15
7776,-1.81
7788,-2.51
7800,-3.18
7811,-3.69
7822,-3.92
7834,-3.88
7846,-3.71
7858,-3.65
7870,-3.9
7882,-4.55
7894,-5.55
7906,-6.78
7918,-8.11
7930,-9.44
7942,-10.65
7954,-11.56
7966,-11.93
7978,-11.51
7990,-10.19
8001,-8.08
8012,-5.55
8024,-3.01
8036,-0.84
8048,0.81
8060,2.0
8072,2.91
8084,3.67
8096,4.29
8108,4.67
8120,4.7
8132,4.36
8144,3.77
8156,3.11
8168,2.6
8180,2.36
8191,2.42
8202,2.76
8214,3.32
8226,3.99
8238,4.72
8250,5.41
8262,6.0
8274,6.44
8286,6.65
8298,6.58
8310,6.18
8322,5.5
8334,4.64
8346,3.8
8358,3.15
8370,2.79
8381,2.71
8392,2.75
8404,2.71
8416,2.41
8428,1.76
8440,0.81
8452,-0.32
8464,-1.49
8476,-2.58
8488,-3.5
8500,-4.27
8512,-4.96
8524,-5.66
8536,-6.45
8548,-7.31
8560,-8.2
8571,-9.04
8582,-9.81
8594,-10.59
8606,-11.5
8618,-12.71
8630,-14.31
8642,-16.21
8654,-18.22
8666,-19.97
8678,-21.12
8690,-21.45
8702,-20.94
8714,-19.74
8726,-18.12
8738,-16.35
8750,-14.61
8761,-12.93
8772,-11.25
8784,-9.48
8796,-7.51
8808,-5.28
8820,-2.79
8832,-0.11
8844,2.66
8856,5.35
8868,7.8
8880,9.8
8892,11.22
8904,11.98
8916,12.14
8928,11.83
8940,11.3
8951,10.82
8962,10.65
8974,10.93
8986,11.69
8998,12.81
9010,14.05
9022,15.11
9034,15.75
9046,15.82
9058,15.29
9070,14.29
9082,13.03
9094,11.72
9106,10.52
9118,9.48
9130,8.58
9141,7.74
9152,6.92
9164,6.13
9176,5.38
9188,4.68
9200,4.02
9212,3.33
9224,2.55
9236,1.61
9248,0.5
9260,-0.76
9272,-2.08
9284,-3.38
9296,-4.57
9308,-5.61
9320,-6.5
9331,-7.27
9342,-7.97
9354,-8.66
9366,-9.4
9378,-10.28
9390,-11.34
9402,-12.54
9414,-13.71
9426,-14.51
9438,-14.56
9450,-13.62
9462,-11.65
9474,-8.91
9486,-5.77
9498,-2.62
9510,0.28
9521,2.85
9532,5.04
9544,6.76
9556,7.87
9568,8.24
9580,7.87
9592,6.94
9604,5.8
9616,4.78
9628,4.1
9640,3.75
9652,3.57
9664,3.37
9676,3.06
9688,2.68
9700,2.4
9711,2.36
9722,2.62
9734,3.12
9746,3.7
9758,4.17
9770,4.43
9782,4.5
9794,4.52
9806,4.62
9818,4.91
9830,5.34
9842,5.8
9854,6.13
9866,6.21
9878,6.07
9890,5.78
9901,5.45
9912,5.13
9924,4.79
9936,4.39
9948,3.88
9960,3.32
9972,2.79
9984,2.41
9996,2.22
10008,2.13
10020,2.0
10032,1.69
10044,1.08
10056,0.17
10068,-0.96
10080,-2.23
10091,-3.6
10102,-5.02
10114,-6.49
10126,-7.9
10138,-9.05
10150,-9.66
10162,-9.5
10174,-8.43
10186,-6.57
10198,-4.18
10210,-1.64
10222,0.71
10234,2.66
10246,4.11
10258,5.05
10270,5.49
10281,5.44
10292,4.95
10304,4.16
10316,3.27
10328,2.6
10340,2.45
10352,3.0
10364,4.23
10376,5.97
10388,7.9
10400,9.66
10412,10.98
10424,11.73
10436,11.97
10448,11.85
10460,11.58
10471,11.29
10482,11.03
10494,10.75
10506,10.37
10518,9.81
10530,9.06
10542,8.17
10554,7.21
10566,6.23
10578,5.25
10590,4.23
10602,3.16
10614,2.05
10626,0.99
10638,0.12
10650,-0.47
10661,-0.79
10672,-0.96
10684,-1.2
10696,-1.67
10708,-2.45
10720,-3.47
10732,-4.57
10744,-5.58
10756,-6.41
10768,-7.09
10780,-7.69
10792,-8.32
10804,-9.04
10816,-9.83
10828,-10.69
10840,-11.53
10851,-12.28
10862,-12.84
10874,-13.09
10886,-12.93
10898,-12.28
10910,-11.15
10922,-9.61
10934,-7.83
10946,-6.01
10958,-4.39
10970,-3.2
10982,-2.58
10994,-2.55
11006,-3.04
11018,-3.89
11030,-4.88
11041,-5.82
11052,-6.58
11064,-7.11
11076,-7.43
11088,-7.64
11100,-7.88
11112,-8.27
11124,-8.85
11136,-9.61
11148,-10.43
11160,-11.22
11172,-11.88
11184,-12.41
11196,-12.9
11208,-13.5
11220,-14.34
11231,-15.47
11242,-16.78
11254,-17.98
11266,-18.6
11278,-18.11
11290,-16.14
11302,-12.63
11314,-7.92
11326,-2.68
11338,2.32
11350,6.46
11362,9.42
11374,11.24
11386,12.14
11398,12.4
11410,12.2
11421,11.7
11432,11.0
11444,10.28
11456,9.7
11468,9.35
11480,9.23
11492,9.2
11504,9.12
11516,8.84
11528,8.33
11540,7.58
11552,6.63
11564,5.51
11576,4.31
11588,3.16
11600,2.29
11611,1.95
11622,2.35
11634,3.56
11646,5.48
11658,7.88
11670,10.4
11682,12.73
11694,14.63
11706,15.98
11718,16.74
11730,17.0
11742,16.78
11754,16.16
11766,15.2
11778,14.03
11790,12.84
11801,11.85
11812,11.24
11824,11.05
11836,11.17
11848,11.39
11860,11.5
11872,11.43
11884,11.22
11896,11.05
11908,11.04
11920,11.2
11932,11.44
11944,11.56
11956,11.41
11968,10.92
11980,10.17
11991,9.31
12002,8.49
12014,7.74
12026,6.98
12038,6.05
12050,4.81
12062,3.2
12074,1.34
12086,-0.53
12098,-2.14
12110,-3.3
12122,-4.02
12134,-4.49
12146,-4.98
12158,-5.7
12170,-6.71
12181,-7.87
12192,-8.95
12204,-9.76
12216,-10.21
12228,-10.44
12240,-10.65
12252,-11.03
12264,-11.69
12276,-12.61
12288,-13.63
12300,-14.61
12312,-15.36
12324,-15.71
12336,-15.52
12348,-14.69
12360,-13.21
12371,-11.16
12382,-8.73
12394,-6.16
12406,-3.66
12418,-1.39
12430,0.55
12442,2.09
12454,3.2
12466,3.85
12478,4.06
12490,3.91
12502,3.56
12514,3.17
12526,2.85
12538,2.64
12550,2.48
12561,2.32
12572,2.13
12584,1.92
12596,1.75
12608,1.66
12620,1.63
12632,1.62
12644,1.58
12656,1.49
12668,1.42
12680,1.46
12692,1.66
12704,2.04
12716,2.5
12728,2.94
12740,3.23
12751,3.32
12762,3.22
12774,3.04
12786,2.87
12798,2.8
12810,2.86
12822,3.03
12834,3.27
12846,3.49
12858,3.64
12870,3.59
12882,3.3
12894,2.69
12906,1.78
12918,0.67
12930,-0.51
12941,-1.62
12952,-2.55
12964,-3.24
12976,-3.8
12988,-4.35
13000,-5.11
13012,-6.21
13024,-7.68
13036,-9.4
13048,-11.07
13060,-12.37
13072,-12.97
13084,-12.75
13096,-11.76
13108,-10.23
13120,-8.43
13131,-6.59
13142,-4.86
13154,-3.3
13166,-1.95
13178,-0.86
13190,-0.08
13202,0.37
13214,0.53
13226,0.48
13238,0.35
13250,0.24
13262,0.22
13274,0.34
13286,0.6
13298,1.01
13310,1.55
13321,2.18
13332,2.82
13344,3.4
13356,3.88
13368,4.28
13380,4.62
13392,4.91
13404,5.15
13416,5.33
13428,5.41
13440,5.37
13452,5.23
13464,4.99
13476,4.65
13488,4.24
13500,3.78
13511,3.32
13522,2.91
13534,2.58
13546,2.33
13558,2.12
13570,1.91
13582,1.63
13594,1.24
13606,0.73
13618,0.08
13630,-0.68
13642,-1.51
13654,-2.31
13666,-3.03
13678,-3.63
13690,-4.11
13701,-4.57
13712,-5.12
13724,-5.85
13736,-6.84
13748,-8.05
13760,-9.33
13772,-10.48
13784,-11.26
13796,-11.44
13808,-10.91
13820,-9.66
13832,-7.84
13844,-5.65
13856,-3.33
13868,-1.11
13880,0.82
13891,2.34
13902,3.39
13914,3.98
13926,4.24
13938,4.36
13950,4.52
13962,4.87
13974,5.43
13986,6.13
13998,6.83
14010,7.41
14022,7.79
14034,7.98
14046,8.1
14058,8.27
14070,8.58
14081,9.1
14092,9.78
14104,10.54
14116,11.25
14128,11.77
14140,12.02
14152,11.95
14164,11.58
14176,10.99
14188,10.27
14200,9.54
14212,8.91
14224,8.47
14236,8.25
14248,8.22
14260,8.29
14271,8.35
14282,8.34
14294,8.2
14306,7.98
14318,7.75
14330,7.6
14342,7.55
14354,7.6
14366,7.63
14378,7.59
14390,7.43
14402,7.23
14414,7.07
14426,7.02
14438,7.06
14450,6.98
14461,6.54
14472,5.47
14484,3.65
14496,1.15
14508,-1.78
14520,-4.75
14532,-7.38
14544,-9.33
14556,-10.39
14568,-10.52
14580,-9.79
14592,-8.42
14604,-6.74
14616,-5.1
14628,-3.79
14640,-2.94
14651,-2.56
14662,-2.51
14674,-2.65
14686,-2.9
14698,-3.24
14710,-3.73
14722,-4.4
14734,-5.26
14746,-6.25
14758,-7.3
14770,-8.31
14782,-9.22
14794,-9.92
14806,-10.35
14818,-10.44
14830,-10.21
14841,-9.79
14852,-9.4
14864,-9.3
14876,-9.65
14888,-10.44
14900,-11.53
14912,-12.65
14924,-13.56
14936,-14.11
14948,-14.28
14960,-14.12
14972,-13.75
14984,-13.24
14996,-12.67
15008,-12.1
15020,-11.63
15031,-11.32
15042,-11.19
15054,-11.19
15066,-11.21
15078,-11.12
15090,-10.9
15102,-10.59
15114,-10.37
15126,-10.4
15138,-10.75
15150,-11.38
15162,-12.1
15174,-12.71
15186,-13.05
15198,-13.09
15210,-12.85
15221,-12.43
15232,-11.91
15244,-11.31
15256,-10.58
15268,-9.61
15280,-8.25
15292,-6.42
15304,-4.12
15316,-1.45
15328,1.36
15340,4.01
15352,6.22
15364,7.77
15376,8.63
15388,8.89
15400,8.7
15411,8.27
15422,7.71
15434,7.12
15446,6.54
15458,6.04
15470,5.67
15482,5.48
15494,5.46
15506,5.51
15518,5.55
15530,5.47
15542,5.27
15554,4.98
15566,4.71
15578,4.54
15590,4.48
15601,4.5
15612,4.47
15624,4.3
15636,3.92
15648,3.36
15660,2.72
15672,2.17
15684,1.86
15696,1.87
15708,2.26
15720,2.95
15732,3.84
15744,4.81
15756,5.72
15768,6.48
15780,7.0
15791,7.24
15802,7.18
15814,6.86
15826,6.33
15838,5.63
15850,4.78
15862,3.76
15874,2.53
15886,1.04
15898,-0.74
15910,-2.82
15922,-5.1
15934,-7.37
15946,-9.31
15958,-10.54
15970,-10.77
15981,-9.93
15992,-8.2
16004,-5.95
16016,-3.62
16028,-1.51
16040,0.29
16052,1.8
16064,3.13
16076,4.31
16088,5.31
16100,6.03
16112,6.41
16124,6.46
16136,6.28
16148,5.97
16160,5.65
16171,5.38
16182,5.19
16194,5.08
16206,5.03
16218,5.07
16230,5.24
16242,5.6
16254,6.12
16266,6.77
16278,7.44
16290,8.06
16302,8.61
16314,9.15
16326,9.8
16338,10.63
16350,11.62
16361,12.65
16372,13.54
16384,14.14
16396,14.36
16408,14.17
16420,13.61
16432,12.67
16444,11.4
16456,9.86
16468,8.16
16480,6.46
16492,4.91
16504,3.6
16516,2.53
16528,1.66
16540,0.89
16551,0.12
16562,-0.72
16574,-1.64
16586,-2.64
16598,-3.65
16610,-4.59
16622,-5.33
16634,-5.76
16646,-5.83
16658,-5.55
16670,-4.98
16682,-4.25
16694,-3.54
16706,-2.99
16718,-2.73
16730,-2.84
16741,-3.35
16752,-4.3
16764,-5.66
16776,-7.39
16788,-9.38
16800,-11.46
16812,-13.41
16824,-15.0
16836,-16.08
16848,-16.6
16860,-16.59
16872,-16.2
16884,-15.54
16896,-14.69
16908,-13.65
16920,-12.33
16931,-10.62
16942,-8.45
16954,-5.88
16966,-3.07
16978,-0.22
16990,2.5
17002,4.99
17014,7.29
17026,9.41
17038,11.37
17050,13.13
17062,14.62
17074,15.79
17086,16.63
17098,17.25
17110,17.75
17121,18.23
17132,18.71
17144,19.1
17156,19.21
17168,18.81
17180,17.73
17192,15.9
17204,13.4
17216,10.43
17228,7.21
17240,3.98
17252,0.89
17264,-1.89
17276,-4.18
17288,-5.84
17300,-6.75
17311,-6.96
17322,-6.67
17334,-6.17
17346,-5.76
17358,-5.59
17370,-5.69
17382,-5.96
17394,-6.29
17406,-6.63
17418,-6.97
17430,-7.33
17442,-7.67
17454,-7.87
17466,-7.76
17478,-7.24
17490,-6.34
17501,-5.29
17512,-4.38
17524,-3.92
17536,-4.05
17548,-4.71
17560,-5.66
17572,-6.56
17584,-7.15
17596,-7.33
17608,-7.15
17620,-6.73
17632,-6.21
17644,-5.68
17656,-5.18
17668,-4.73
17680,-4.34
17691,-4.03
17702,-3.78
17714,-3.58
17726,-3.41
17738,-3.25
17750,-3.09
17762,-2.92
17774,-2.72
17786,-2.49
17798,-2.29
17810,-2.26
17822,-2.6
17834,-3.5
17846,-5.01
17858,-6.94
17870,-8.91
17881,-10.44
17892,-11.17
17904,-10.99
17916,-10.03
17928,-8.53
17940,-6.76
17952,-4.83
17964,-2.81
17976,-0.72
17988,1.36
18000,3.25
18012,4.75
18024,5.76
18036,6.33
18048,6.61
18060,6.82
18071,7.07
18082,7.4
18094,7.77
18106,8.13
18118,8.48
18130,8.85
18142,9.26
18154,9.65
18166,9.89
18178,9.9
18190,9.61
18202,9.07
18214,8.36
18226,7.54
18238,6.65
18250,5.69
18261,4.64
18272,3.52
18284,2.36
18296,1.23
18308,0.2
18320,-0.68
18332,-1.42
18344,-2.05
18356,-2.63
18368,-3.22
18380,-3.88
18392,-4.59
18404,-5.28
18416,-5.85
18428,-6.22
18440,-6.39
18451,-6.45
18462,-6.57
18474,-6.91
18486,-7.52
18498,-8.33
18510,-9.13
18522,-9.63
18534,-9.54
18546,-8.69
18558,-7.09
18570,-4.94
18582,-2.55
18594,-0.25
18606,1.73
18618,3.3
18630,4.48
18641,5.4
18652,6.13
18664,6.71
18676,7.09
18688,7.2
18700,7.01
18712,6.55
18724,5.94
18736,5.35
18748,4.96
18760,4.9
18772,5.21
18784,5.79
18796,6.47
18808,7.05
18820,7.39
18831,7.45
18842,7.32
18854,7.07
18866,6.76
18878,6.4
18890,5.96
18902,5.43
18914,4.89
18926,4.39
18938,3.98
18950,3.63
18962,3.25
18974,2.76
18986,2.18
18998,1.63
19010,1.23
19021,1.08
19032,1.12
19044,1.16
19056,0.99
19068,0.48
19080,-0.4
19092,-1.5
19104,-2.64
19116,-3.68
19128,-4.6
19140,-5.44
19152,-6.3
19164,-7.25
19176,-8.29
19188,-9.32
19200,-10.17
19211,-10.64
19222,-10.51
19234,-9.66
19246,-8.09
19258,-5.98
19270,-3.61
19282,-1.3
19294,0.71
19306,2.28
19318,3.41
19330,4.17
19342,4.59
19354,4.71
19366,4.54
19378,4.14
19390,3.63
19401,3.18
19412,2.91
19424,2.84
19436,2.87
19448,2.91
19460,2.89
19472,2.87
19484,2.93
19496,3.16
19508,3.52
19520,3.88
19532,4.11
19544,4.13
19556,4.0
19568,3.85
19580,3.77
19591,3.78
19602,3.75
19614,3.57
19626,3.17
19638,2.64
19650,2.13
19662,1.74
19674,1.48
19686,1.27
19698,0.96
19710,0.48
19722,-0.15
19734,-0.87
19746,-1.61
19758,-2.35
19770,-3.1
19781,-3.88
19792,-4.65
19804,-5.34
19816,-5.89
19828,-6.33
19840,-6.78
19852,-7.43
19864,-8.42
19876,-9.75
19888,-11.24
19900,-12.55
19912,-13.33
19924,-13.3
19936,-12.38
19948,-10.68
19960,-8.47
19971,-6.07
19982,-3.74
19994,-1.66
20006,0.07
20018,1.41
20030,2.33
20042,2.77
20054,2.71
20066,2.21
20078,1.42
20090,0.58
20102,-0.08
20114,-0.42
20126,-0.45
20138,-0.24
20150,0.09
20161,0.48
20172,0.95
20184,1.54
20196,2.27
20208,3.08
20220,3.86
20232,4.47
20244,4.79
20256,4.73
20268,4.31
20280,3.58
20292,2.67
20304,1.72
20316,0.81
20328,-0.07
20340,-0.97
20351,-1.98
20362,-3.1
20374,-4.25
20386,-5.3
20398,-6.12
20410,-6.7
20422,-7.16
20434,-7.66
20446,-8.36
20458,-9.3
20470,-10.44
20482,-11.66
20494,-12.89
20506,-14.06
20518,-15.17
20530,-16.24
20541,-17.33
20552,-18.55
20564,-20.02
20576,-21.9
20588,-24.16
20600,-26.55
20612,-28.55
20624,-29.45
20636,-28.61
20648,-25.68
20660,-20.75
20672,-14.31
20684,-7.11
20696,0.07
20708,6.61
20720,12.09
20731,16.31
20742,19.23
20754,20.95
20766,21.65
20778,21.64
20790,21.2
20802,20.62
20814,20.06
20826,19.57
20838,19.12
20850,18.61
20862,17.99
20874,17.21
20886,16.32
20898,15.39
20910,14.55
20921,13.91
20932,13.48
20944,13.24
20956,13.04
20968,12.69
20980,12.04
20992,10.97
