seconds,BVP
5,-15.77
17,-16.93
29,-17.88
41,-18.56
53,-18.81
65,-18.44
77,-17.27
89,-15.19
100,-12.17
111,-8.33
123,-3.84
135,1.02
147,5.92
159,10.44
171,14.17
183,16.76
195,17.94
207,17.62
219,15.9
231,13.07
243,9.6
255,6.03
267,2.83
279,0.34
290,-1.31
301,-2.22
313,-2.61
325,-2.67
337,-2.5
349,-2.14
361,-1.62
373,-1.16
385,-1.1
397,-1.85
409,-3.7
421,-6.67
433,-10.44
445,-14.45
457,-18.04
469,-20.58
480,-21.6
491,-20.79
503,-17.98
515,-13.25
527,-6.89
539,0.49
551,8.13
563,15.23
575,21.18
587,25.65
599,28.63
611,30.29
623,30.85
635,30.51
647,29.44
659,27.86
670,26.07
681,24.52
693,23.62
705,23.61
717,24.53
729,26.14
741,28.1
753,30.11
765,31.97
777,33.56
789,34.72
801,35.2
813,34.6
825,32.64
837,29.28
849,24.83
860,19.83
871,14.84
883,10.09
895,5.52
907,0.81
919,-4.3
931,-9.83
943,-15.53
955,-20.98
967,-25.8
979,-29.73
991,-32.58
1003,-34.08
1015,-33.88
1027,-31.65
1039,-27.24
1050,-20.96
1061,-13.63
1073,-6.38
1085,-0.33
1097,3.72
1109,5.58
1121,5.59
1133,4.4
1145,2.63
1157,0.59
1169,-1.81
1181,-4.87
1193,-8.83
1205,-13.61
1217,-18.75
1229,-23.56
1240,-27.37
1251,-29.87
1263,-31.2
1275,-31.77
1287,-32.02
1299,-32.12
1311,-31.87
1323,-30.88
1335,-28.74
1347,-25.36
1359,-20.91
1371,-15.81
1383,-10.48
1395,-5.24
1407,-0.25
1419,4.42
1430,8.67
1441,12.36
1453,15.31
1465,17.42
1477,18.65
1489,19.07
1501,18.8
1513,17.94
1525,16.55
1537,14.67
1549,12.3
1561,9.52
1573,6.57
1585,3.86
1597,1.91
1609,1.23
1620,2.07
1631,4.32
1643,7.46
1655,10.76
1667,13.43
1679,14.92
1691,15.0
1703,13.79
1715,11.62
1727,8.94
1739,6.17
1751,3.67
1763,1.67
1775,0.3
1787,-0.39
1799,-0.42
1810,0.18
1821,1.42
1833,3.31
1845,5.81
1857,8.84
1869,12.32
1881,16.16
1893,20.29
1905,24.59
1917,28.84
1929,32.74
1941,35.98
1953,38.32
1965,39.77
1977,40.62
1989,41.39
2000,42.6
2011,44.5
2023,46.96
2035,49.53
2047,51.57
2059,52.52
2071,52.17
2083,50.79
2095,48.98
2107,47.53
2119,47.11
2131,48.02
2143,50.29
2155,53.48
2167,56.7
2179,59.02
2190,59.91
2201,59.4
2213,58.07
2225,56.95
2237,56.84
2249,58.37
2261,61.26
2273,64.25
2285,65.81
2297,65.03
2309,61.88
2321,57.18
2333,52.32
2345,48.19
2357,45.42
2369,43.59
2380,41.28
2391,37.01
2403,30.36
2415,21.77
2427,12.44
2439,4.08
2451,-1.97
2463,-3.86
2475,-0.34
2487,8.44
2499,20.77
2511,33.83
2523,43.7
2535,46.57
2547,40.33
2559,21.5
2570,-7.18
2581,-37.0
2593,-59.05
2605,-70.07
2617,-72.28
2629,-70.14
2641,-69.16
2653,-69.13
2665,-68.98
2677,-68.1
2689,-68.11
2701,-72.97
2713,-87.8
2725,-112.41
2737,-145.62
2749,-183.62
2760,-220.02
2771,-248.05
2783,-261.43
2795,-256.9
2807,-235.55
2819,-202.18
2831,-163.07
2843,-124.56
2855,-90.78
2867,-63.13
2879,-41.47
2891,-24.6
2903,-11.55
2915,-2.12
2927,3.59
2939,6.03
2950,5.89
2961,4.31
2973,2.44
2985,0.58
2997,-1.55
3009,-4.71
3021,-9.69
3033,-16.69
3045,-24.89
3057,-32.87
3069,-38.88
3081,-41.58
3093,-40.75
3105,-37.31
3117,-32.91
3129,-29.28
3140,-27.52
3151,-27.66
3163,-28.92
3175,-30.02
3187,-29.71
3199,-27.19
3211,-22.15
3223,-14.63
3235,-4.9
3247,6.59
3259,19.24
3271,32.2
3283,44.55
3295,55.51
3307,64.61
3319,71.68
3330,76.73
3341,79.7
3353,80.3
3365,78.03
3377,72.52
3389,63.76
3401,52.42
3413,39.75
3425,27.31
3437,16.57
3449,8.44
3461,3.17
3473,0.31
3485,-1.04
3497,-1.95
3509,-3.42
3520,-6.16
3531,-10.4
3543,-15.87
3555,-21.8
3567,-27.06
3579,-30.48
3591,-31.22
3603,-29.02
3615,-24.28
3627,-17.94
3639,-11.14
3651,-4.98
3663,-0.28
3675,2.47
3687,3.09
3699,1.71
3710,-1.28
3721,-5.28
3733,-9.57
3745,-13.45
3757,-16.48
3769,-18.54
3781,-19.82
3793,-20.72
3805,-21.62
3817,-22.71
3829,-23.91
3841,-24.86
3853,-25.08
3865,-24.19
3877,-22.07
3889,-18.91
3900,-15.17
3911,-11.29
3923,-7.52
3935,-3.73
3947,0.43
3959,5.31
3971,10.98
3983,17.08
3995,22.96
4007,27.88
4019,31.31
4031,33.07
4043,33.34
4055,32.43
4067,30.65
4079,28.24
4090,25.38
4101,22.28
4113,19.2
4125,16.42
4137,14.17
4149,12.54
4161,11.45
4173,10.73
4185,10.11
4197,9.34
4209,8.17
4221,6.37
4233,3.79
4245,0.44
4257,-3.42
4269,-7.2
4280,-10.15
4291,-11.48
4303,-10.65
4315,-7.51
4327,-2.38
4339,4.05
4351,10.9
4363,17.3
4375,22.54
4387,26.19
4399,28.11
4411,28.38
4423,27.3
4435,25.26
4447,22.75
4459,20.28
4470,18.28
4481,17.04
4493,16.66
4505,16.98
4517,17.7
4529,18.46
4541,18.96
4553,19.05
4565,18.63
4577,17.68
4589,16.13
4601,13.87
4613,10.82
4625,7.04
4637,2.81
4649,-1.28
4660,-4.47
4671,-5.93
4683,-5.03
4695,-1.55
4707,4.14
4719,11.17
4731,18.35
4743,24.58
4755,29.14
4767,31.77
4779,32.71
4791,32.35
4803,31.1
4815,29.22
4827,26.85
4839,24.14
4850,21.29
4861,18.58
4873,16.29
4885,14.56
4897,13.39
4909,12.62
4921,12.04
4933,11.44
4945,10.7
4957,9.73
4969,8.44
4981,6.64
4993,4.17
5005,0.94
5017,-2.86
5029,-6.69
5040,-9.72
5051,-11.13
5063,-10.41
5075,-7.56
5087,-3.2
5099,1.73
5111,6.25
5123,9.7
5135,11.81
5147,12.66
5159,12.48
5171,11.51
5183,9.95
5195,7.99
5207,5.92
5219,4.04
5230,2.64
5241,1.82
5253,1.53
5265,1.53
5277,1.54
5289,1.35
5301,0.84
5313,-0.01
5325,-1.18
5337,-2.69
5349,-4.62
5361,-7.0
5373,-9.77
5385,-12.69
5397,-15.23
5409,-16.78
5420,-16.73
5431,-14.76
5443,-11.0
5455,-6.06
5467,-0.87
5479,3.63
5491,6.84
5503,8.56
5515,9.03
5527,8.7
5539,7.97
5551,7.08
5563,6.06
5575,4.83
5587,3.37
5599,1.77
5610,0.3
5621,-0.69
5633,-0.86
5645,0.01
5657,1.87
5669,4.38
5681,6.93
5693,8.75
5705,9.18
5717,7.87
5729,4.97
5741,1.24
5753,-2.16
5765,-4.01
5777,-3.38
5789,0.04
5800,5.86
5811,13.12
5823,20.71
5835,27.72
5847,33.72
5859,38.86
5871,43.76
5883,49.28
5895,56.21
5907,64.89
5919,74.9
5931,84.81
5943,92.3
5955,94.89
5967,90.89
5979,80.3
5990,65.08
6001,48.47
6013,33.71
6025,22.82
6037,16.08
6049,12.48
6061,10.64
6073,9.75
6085,9.63
6097,10.34
6109,11.43
6121,11.85
6133,10.46
6145,6.9
6157,2.21
6169,-1.38
6180,-1.37
6191,3.68
6203,13.37
6215,25.38
6227,36.33
6239,43.09
6251,43.88
6263,38.79
6275,29.44
6287,18.15
6299,6.94
6311,-3.07
6323,-11.71
6335,-19.33
6347,-26.33
6359,-32.81
6370,-38.6
6381,-43.33
6393,-46.45
6405,-47.11
6417,-44.16
6429,-36.33
6441,-22.83
6453,-4.04
6465,18.14
6477,40.63
6489,60.04
6501,73.72
6513,80.58
6525,81.18
6537,77.27
6549,70.98
6560,63.81
6571,55.9
6583,45.88
6595,31.84
6607,13.0
6619,-8.75
6631,-28.63
6643,-40.61
6655,-40.39
6667,-28.04
6679,-8.84
6691,8.61
6703,15.96
6715,8.73
6727,-11.99
6739,-40.42
6750,-68.86
6761,-90.76
6773,-102.61
6785,-104.2
6797,-97.49
6809,-85.23
6821,-69.85
6833,-53.12
6845,-36.08
6857,-19.42
6869,-3.77
6881,10.16
6893,21.73
6905,30.76
6917,37.77
6929,43.92
6940,50.48
6951,58.18
6963,66.66
6975,74.56
6987,80.07
6999,81.7
7011,78.91
7023,72.11
7035,62.25
7047,50.15
7059,36.06
7071,19.69
7083,0.65
7095,-20.94
7107,-44.14
7119,-67.3
7130,-88.6
7141,-106.61
7153,-120.73
7165,-131.14
7177,-138.6
7189,-144.06
7201,-148.41
7213,-152.21
7225,-155.59
7237,-158.12
7249,-158.74
7261,-155.93
7273,-148.08
7285,-134.03
7297,-113.67
7309,-88.17
7320,-59.82
7331,-31.42
7343,-5.55
7355,15.94
7367,32.2
7379,43.07
7391,48.69
7403,49.18
7415,44.48
7427,34.65
7439,20.22
7451,2.52
7463,-16.39
7475,-34.2
7487,-48.95
7499,-59.66
7510,-66.58
7521,-70.93
7533,-74.49
7545,-78.91
7557,-85.42
7569,-94.44
7581,-105.58
7593,-117.45
7605,-127.71
7617,-133.31
7629,-131.18
7641,-119.31
7653,-97.68
7665,-68.69
7677,-36.67
7689,-6.64
7700,17.24
7711,32.77
7723,40.03
7735,40.85
7747,37.85
7759,33.41
7771,29.21
7783,26.04
7795,24.11
7807,23.24
7819,23.14
7831,23.43
7843,23.67
7855,23.4
7867,22.22
7879,19.85
7890,16.24
7901,11.5
7913,5.92
7925,-0.19
7937,-6.47
7949,-12.5
7961,-17.77
7973,-21.64
7985,-23.44
7997,-22.75
8009,-19.58
8021,-14.52
8033,-8.57
8045,-2.86
8057,1.74
8069,4.97
8080,7.08
8091,8.69
8103,10.24
8115,11.77
8127,12.75
8139,12.42
8151,10.22
8163,6.23
8175,1.29
8187,-3.36
8199,-6.48
8211,-7.42
8223,-6.18
8235,-3.25
8247,0.85
8259,5.89
8270,11.92
8281,19.16
8293,27.84
8305,38.25
8317,50.98
8329,66.88
8341,86.65
8353,110.1
8365,135.65
8377,160.4
8389,181.19
8401,196.0
8413,204.95
8425,210.24
8437,214.81
8449,220.62
8460,227.38
8471,232.69
8483,233.38
8495,227.42
8507,215.01
8519,198.53
8531,181.1
8543,164.8
8555,149.46
8567,132.62
8579,110.52
8591,79.54
8603,37.47
8615,-15.56
8627,-76.7
8639,-140.47
8650,-199.42
8661,-245.75
8673,-273.33
8685,-279.7
8697,-267.01
8709,-241.28
8721,-210.13
8733,-180.2
8745,-155.22
8757,-135.83
8769,-120.63
8781,-107.8
8793,-96.16
8805,-85.3
8817,-75.13
8829,-65.54
8840,-56.59
8851,-48.96
8863,-44.14
8875,-43.86
8887,-49.15
8899,-59.41
8911,-72.19
8923,-83.91
8935,-91.13
8947,-91.94
8959,-86.58
8971,-77.32
8983,-67.68
8995,-61.4
9007,-61.48
9019,-69.46
9030,-85.04
9041,-106.12
9053,-129.14
9065,-149.85
9077,-164.29
9089,-169.72
9101,-165.07
9113,-150.97
9125,-129.22
9137,-102.04
9149,-71.56
9161,-39.59
9173,-7.78
9185,22.26
9197,48.85
9209,70.5
9220,86.25
9231,96.0
9243,100.56
9255,101.34
9267,99.94
9279,97.61
9291,95.01
9303,92.14
9315,88.53
9327,83.52
9339,76.48
9351,66.98
9363,54.83
9375,40.2
9387,23.57
9399,5.8
9410,-11.91
9421,-28.22
9433,-41.85
9445,-51.88
9457,-57.97
9469,-60.33
9481,-59.61
9493,-56.53
9505,-51.65
9517,-45.23
9529,-37.36
9541,-28.15
9553,-18.02
9565,-7.76
9577,1.64
9589,9.3
9600,14.81
9611,18.32
9623,20.47
9635,22.08
9647,23.75
9659,25.68
9671,27.61
9683,29.05
9695,29.5
9707,28.59
9719,26.19
9731,22.37
9743,17.36
9755,11.58
9767,5.68
9779,0.51
9790,-2.97
9801,-3.94
9813,-2.04
9825,2.48
9837,8.81
9849,15.77
9861,22.26
9873,27.57
9885,31.52
9897,34.54
9909,37.44
9921,41.11
9933,46.28
9945,53.26
9957,61.87
9969,71.48
9980,81.33
9991,90.8
10003,99.69
10015,108.21
10027,116.91
10039,126.31
10051,136.69
10063,147.94
10075,159.48
10087,170.15
10099,178.1
10111,180.88
10123,175.83
10135,160.88
10147,135.49
10159,101.21
10170,61.53
10181,21.02
10193,-16.01
10205,-46.59
10217,-69.52
10229,-85.01
10241,-94.04
10253,-97.64
10265,-96.79
10277,-92.56
10289,-86.33
10301,-79.75
10313,-74.3
10325,-70.8
10337,-69.08
10349,-68.18
10360,-66.91
10371,-64.64
10383,-61.59
10395,-58.6
10407,-56.27
10419,-54.17
10431,-50.55
10443,-43.0
10455,-29.76
10467,-10.89
10479,11.3
10491,32.94
10503,50.02
10515,59.74
10527,61.25
10539,55.51
10550,44.68
10561,31.54
10573,19.06
10585,10.15
10597,7.14
10609,11.0
10621,20.63
10633,32.68
10645,42.52
10657,45.89
10669,40.67
10681,27.87
10693,11.22
10705,-4.43
10717,-15.17
10729,-19.58
10740,-19.01
10751,-16.64
10763,-15.8
10775,-18.36
10787,-24.02
10799,-30.73
10811,-35.88
10823,-37.6
10835,-35.69
10847,-31.59
10859,-27.62
10871,-25.84
10883,-27.07
10895,-30.45
10907,-33.77
10919,-34.28
10930,-29.68
10941,-18.94
10953,-2.45
10965,17.95
10977,39.24
10989,57.47
11001,68.34
11013,68.45
11025,57.1
11037,37.89
11049,18.83
11061,10.2
11073,20.49
11085,52.3
11097,100.28
11109,152.57
11120,195.32
11131,217.98
11143,216.94
11155,195.87
11167,163.03
11179,127.34
11191,95.39
11203,70.36
11215,52.82
11227,42.2
11239,37.82
11251,39.11
11263,45.12
11275,54.16
11287,63.76
11299,71.32
11310,74.97
11321,74.17
11333,69.83
11345,63.74
11357,57.62
11369,52.31
11381,47.51
11393,42.04
11405,34.65
11417,24.73
11429,12.71
11441,-0.13
11453,-12.34
11465,-23.22
11477,-33.47
11489,-45.05
11500,-60.43
11511,-81.27
11523,-107.24
11535,-135.75
11547,-162.61
11559,-183.57
11571,-195.99
11583,-199.69
11595,-196.83
11607,-190.69
11619,-184.25
11631,-178.95
11643,-174.3
11655,-168.32
11667,-158.42
11679,-142.53
11690,-119.97
11701,-92.0
11713,-61.62
11725,-32.76
11737,-8.98
11749,7.92
11761,18.55
11773,25.6
11785,32.53
11797,41.77
11809,53.53
11821,65.63
11833,74.64
11845,77.44
11857,72.57
11869,60.65
11880,43.77
11891,24.48
11903,5.1
11915,-12.38
11927,-26.25
11939,-35.04
11951,-37.98
11963,-35.31
11975,-28.47
11987,-19.56
11999,-10.77
12011,-3.96
12023,-0.68
12035,-2.34
12047,-10.05
12059,-24.06
12070,-43.03
12081,-63.98
12093,-83.23
12105,-97.91
12117,-107.18
12129,-112.08
12141,-114.19
12153,-113.86
12165,-109.33
12177,-97.68
12189,-76.72
12201,-46.98
12213,-12.15
12225,22.07
12237,49.99
12249,68.04
12260,75.56
12271,74.34
12283,67.37
12295,57.39
12307,46.14
12319,34.23
12331,21.63
12343,8.31
12355,-5.33
12367,-18.33
12379,-29.5
12391,-37.79
12403,-42.65
12415,-44.01
12427,-42.17
12439,-37.46
12450,-30.15
12461,-20.52
12473,-9.07
12485,3.3
12497,15.24
12509,25.25
12521,32.03
12533,34.89
12545,33.87
12557,29.72
12569,23.61
12581,16.84
12593,10.48
12605,5.22
12617,1.28
12629,-1.45
12640,-3.22
12651,-4.26
12663,-4.63
12675,-4.31
12687,-3.25
12699,-1.57
12711,0.41
12723,2.18
12735,3.21
12747,3.12
12759,1.83
12771,-0.44
12783,-3.27
12795,-6.17
12807,-8.68
12819,-10.42
12830,-11.07
12841,-10.37
12853,-8.21
12865,-4.77
12877,-0.52
12889,3.77
12901,7.27
12913,9.37
12925,9.88
12937,9.01
12949,7.26
12961,5.17
12973,3.14
12985,1.39
12997,-0.0
13009,-1.01
13020,-1.58
13031,-1.67
13043,-1.27
13055,-0.54
13067,0.3
13079,0.92
13091,1.04
13103,0.49
13115,-0.77
13127,-2.68
13139,-5.07
13151,-7.73
13163,-10.45
13175,-12.98
13187,-14.99
13199,-16.04
13210,-15.7
13221,-13.57
13233,-9.57
13245,-4.0
13257,2.44
13269,8.77
13281,14.03
13293,17.53
13305,19.0
13317,18.59
13329,16.74
13341,14.05
13353,11.05
13365,8.17
13377,5.63
13389,3.52
13400,1.8
13411,0.38
13423,-0.83
13435,-1.95
13447,-3.06
13459,-4.3
13471,-5.76
13483,-7.57
13495,-9.76
13507,-12.31
13519,-15.15
13531,-18.15
13543,-21.07
13555,-23.59
13567,-25.29
13579,-25.64
13590,-24.23
13601,-20.88
13613,-15.8
13625,-9.53
13637,-2.88
13649,3.35
13661,8.51
13673,12.24
13685,14.49
13697,15.4
13709,15.24
13721,14.34
13733,12.97
13745,11.4
13757,9.85
13769,8.49
13780,7.46
13791,6.86
13803,6.66
13815,6.74
13827,6.91
13839,6.9
13851,6.49
13863,5.55
13875,4.06
13887,2.1
13899,-0.12
13911,-2.29
13923,-4.03
13935,-4.93
13947,-4.63
13959,-2.95
13970,0.04
13981,4.0
13993,8.38
14005,12.58
14017,16.08
14029,18.54
14041,19.81
14053,19.88
14065,18.88
14077,17.03
14089,14.64
14101,12.06
14113,9.66
14125,7.69
14137,6.26
14149,5.34
14160,4.76
14171,4.37
14183,4.02
14195,3.57
14207,2.9
14219,1.86
14231,0.29
14243,-1.81
14255,-4.22
14267,-6.5
14279,-8.04
14291,-8.35
14303,-7.1
14315,-4.35
14327,-0.43
14339,4.13
14350,8.79
14361,13.07
14373,16.57
14385,19.03
14397,20.27
14409,20.25
14421,19.08
14433,16.97
14445,14.27
14457,11.32
14469,8.46
14481,5.98
14493,4.08
14505,2.86
14517,2.27
14529,2.09
14540,1.97
14551,1.52
14563,0.41
14575,-1.47
14587,-3.98
14599,-6.77
14611,-9.32
14623,-11.07
14635,-11.57
14647,-10.56
14659,-8.04
14671,-4.29
14683,0.22
14695,4.86
14707,9.05
14719,12.35
14730,14.52
14741,15.55
14753,15.61
14765,14.92
14777,13.72
14789,12.2
14801,10.51
14813,8.78
14825,7.14
14837,5.73
14849,4.62
14861,3.75
14873,2.95
14885,1.91
14897,0.36
14909,-1.83
14920,-4.6
14931,-7.71
14943,-10.7
14955,-13.08
14967,-14.37
14979,-14.16
14991,-12.27
15003,-8.78
15015,-4.04
15027,1.39
15039,6.87
15051,11.81
15063,15.77
15075,18.48
15087,19.79
15099,19.71
15110,18.36
15121,16.03
15133,13.15
15145,10.23
15157,7.71
15169,5.86
15181,4.75
15193,4.26
15205,4.14
15217,4.14
15229,4.0
15241,3.52
15253,2.57
15265,1.13
15277,-0.64
15289,-2.41
15300,-3.64
15311,-3.8
15323,-2.48
15335,0.38
15347,4.5
15359,9.31
15371,14.14
15383,18.43
15395,21.81
15407,24.14
15419,25.37
15431,25.55
15443,24.75
15455,23.14
15467,21.05
15479,18.88
15490,17.01
15501,15.66
15513,14.77
15525,14.07
15537,13.24
15549,12.01
15561,10.25
15573,7.96
15585,5.19
15597,1.97
15609,-1.69
15621,-5.73
15633,-9.9
15645,-13.8
15657,-16.86
15669,-18.47
15680,-18.17
15691,-15.79
15703,-11.56
15715,-6.09
15727,-0.22
15739,5.17
15751,9.4
15763,12.17
15775,13.52
15787,13.8
15799,13.49
15811,12.96
15823,12.4
15835,11.81
15847,11.07
15859,10.08
15870,8.87
15881,7.55
15893,6.29
15905,5.17
15917,4.15
15929,3.1
15941,1.82
15953,0.22
15965,-1.73
15977,-4.0
15989,-6.54
16001,-9.3
16013,-12.16
16025,-14.87
16037,-17.02
16049,-18.09
16060,-17.65
16071,-15.5
16083,-11.81
16095,-7.05
16107,-1.85
16119,3.16
16131,7.54
16143,11.05
16155,13.63
16167,15.32
16179,16.19
16191,16.36
16203,16.02
16215,15.42
16227,14.87
16239,14.6
16250,14.66
16261,14.86
16273,14.85
16285,14.26
16297,12.88
16309,10.75
16321,8.16
16333,5.48
16345,2.96
16357,0.67
16369,-1.54
16381,-3.89
16393,-6.59
16405,-9.71
16417,-13.22
16429,-16.94
16440,-20.56
16451,-23.62
16463,-25.61
16475,-26.06
16487,-24.76
16499,-21.92
16511,-18.07
16523,-13.95
16535,-10.11
16547,-6.8
16559,-3.89
16571,-1.13
16583,1.71
16595,4.64
16607,7.48
16619,9.93
16630,11.76
16641,12.84
16653,13.15
16665,12.75
16677,11.78
16689,10.45
16701,9.03
16713,7.77
16725,6.84
16737,6.28
16749,6.06
16761,6.01
16773,6.0
16785,5.85
16797,5.42
16809,4.59
16820,3.31
16831,1.62
16843,-0.31
16855,-2.3
16867,-4.19
16879,-5.95
16891,-7.7
16903,-9.58
16915,-11.7
16927,-13.99
16939,-16.26
16951,-18.28
16963,-19.86
16975,-20.95
16987,-21.66
16999,-22.24
17010,-22.95
17021,-23.9
17033,-25.06
17045,-26.14
17057,-26.7
17069,-26.26
17081,-24.49
17093,-21.28
17105,-16.85
17117,-11.66
17129,-6.27
17141,-1.18
17153,3.25
17165,6.88
17177,9.64
17189,11.57
17200,12.69
17211,13.06
17223,12.86
17235,12.42
17247,12.14
17259,12.42
17271,13.48
17283,15.28
17295,17.54
17307,19.85
17319,21.78
17331,23.05
17343,23.53
17355,23.18
17367,22.07
17379,20.27
17390,17.94
17401,15.3
17413,12.64
17425,10.25
17437,8.34
17449,6.93
17461,5.9
17473,5.01
17485,4.03
17497,2.8
17509,1.29
17521,-0.42
17533,-2.19
17545,-3.89
17557,-5.41
17569,-6.77
17580,-8.07
17591,-9.53
17603,-11.37
17615,-13.73
17627,-16.55
17639,-19.56
17651,-22.29
17663,-24.22
17675,-24.92
17687,-24.21
17699,-22.22
17711,-19.33
17723,-16.11
17735,-13.06
17747,-10.55
17759,-8.66
17770,-7.32
17781,-6.36
17793,-5.71
17805,-5.35
17817,-5.34
17829,-5.62
17841,-5.97
17853,-6.05
17865,-5.54
17877,-4.32
17889,-2.56
17901,-0.63
17913,1.03
17925,2.06
17937,2.33
17949,1.9
17960,0.98
17971,-0.13
17983,-1.15
17995,-1.88
18007,-2.21
18019,-2.22
18031,-2.11
18043,-2.12
18055,-2.42
18067,-3.08
18079,-4.0
18091,-5.01
18103,-5.99
18115,-6.93
18127,-7.93
18139,-9.19
18150,-10.91
18161,-13.27
18173,-16.29
18185,-19.81
18197,-23.49
18209,-26.79
18221,-29.15
18233,-30.1
18245,-29.4
18257,-27.15
18269,-23.69
18281,-19.55
18293,-15.23
18305,-11.08
18317,-7.3
18329,-3.91
18340,-0.92
18351,1.65
18363,3.74
18375,5.23
18387,6.09
18399,6.39
18411,6.34
18423,6.25
18435,6.41
18447,6.95
18459,7.78
18471,8.6
18483,9.04
18495,8.83
18507,7.93
18519,6.5
18530,4.84
18541,3.21
18553,1.72
18565,0.33
18577,-1.11
18589,-2.76
18601,-4.67
18613,-6.87
18625,-9.39
18637,-12.23
18649,-15.41
18661,-18.76
18673,-21.9
18685,-24.29
18697,-25.36
18709,-24.74
18720,-22.39
18731,-18.63
18743,-14.01
18755,-9.14
18767,-4.53
18779,-0.51
18791,2.79
18803,5.31
18815,7.08
18827,8.14
18839,8.57
18851,8.49
18863,8.11
18875,7.66
18887,7.37
18899,7.36
18910,7.62
18921,7.96
18933,8.12
18945,7.87
18957,7.08
18969,5.89
18981,4.57
18993,3.4
19005,2.52
19017,1.81
19029,0.98
19041,-0.31
19053,-2.29
19065,-4.99
19077,-8.23
19089,-11.67
19100,-14.95
19111,-17.65
19123,-19.38
19135,-19.77
19147,-18.57
19159,-15.74
19171,-11.48
19183,-6.24
19195,-0.64
19207,4.74
19219,9.44
19231,13.24
19243,16.1
19255,18.04
19267,19.15
19279,19.52
19290,19.31
19301,18.75
19313,18.11
19325,17.68
19337,17.56
19349,17.68
19361,17.77
19373,17.56
19385,16.85
19397,15.61
19409,13.96
19421,12.05
19433,10.02
19445,7.92
19457,5.77
19469,3.58
19480,1.34
19491,-0.99
19503,-3.54
19515,-6.44
19527,-9.71
19539,-13.17
19551,-16.39
19563,-18.78
19575,-19.74
19587,-18.95
19599,-16.41
19611,-12.47
19623,-7.67
19635,-2.53
19647,2.54
19659,7.27
19670,11.4
19681,14.66
19693,16.78
19705,17.58
19717,17.17
19729,15.95
19741,14.55
19753,13.6
19765,13.45
19777,14.08
19789,15.1
19801,15.94
19813,16.11
19825,15.36
19837,13.81
19849,11.83
19860,9.89
19871,8.33
19883,7.24
19895,6.46
19907,5.63
19919,4.4
19931,2.55
19943,0.02
19955,-3.15
19967,-6.78
19979,-10.62
19991,-14.28
20003,-17.25
20015,-18.99
20027,-19.08
20039,-17.34
20050,-13.92
20061,-9.22
20073,-3.78
20085,1.86
20097,7.25
20109,11.98
20121,15.74
20133,18.31
20145,19.63
20157,19.88
20169,19.43
20181,18.69
20193,18.04
20205,17.69
20217,17.65
20229,17.8
20240,17.93
20251,17.79
20263,17.24
20275,16.21
20287,14.76
20299,13.06
20311,11.32
20323,9.74
20335,8.4
20347,7.25
20359,6.09
20371,4.65
20383,2.63
20395,-0.13
20407,-3.58
20419,-7.42
20430,-11.11
20441,-13.97
20453,-15.39
20465,-14.98
20477,-12.67
20489,-8.71
20501,-3.57
20513,2.21
20525,8.1
20537,13.64
20549,18.53
20561,22.59
20573,25.78
20585,28.19
20597,29.94
20609,31.21
20620,32.17
20631,32.97
20643,33.73
20655,34.48
20667,35.11
20679,35.38
20691,34.99
20703,33.73
20715,31.58
20727,28.76
20739,25.62
20751,22.46
20763,19.41
20775,16.4
20787,13.23
20799,9.77
20810,5.94
20821,1.78
20833,-2.63
20845,-7.2
20857,-11.74
20869,-15.96
20881,-19.4
20893,-21.51
20905,-21.85
20917,-20.28
20929,-17.04
20941,-12.75
20953,-8.14
20965,-3.87
20977,-0.37
20989,2.26
