seconds,BVP
4,-62.49
16,-66.02
28,-63.93
40,-55.42
52,-40.79
64,-21.41
76,0.57
88,22.88
100,43.51
112,61.16
124,75.21
136,85.56
147,92.4
158,96.16
170,97.38
182,96.8
194,95.35
206,93.97
218,93.47
230,94.22
242,96.1
254,98.52
266,100.67
278,101.82
290,101.66
302,100.31
314,98.22
326,95.93
337,93.68
348,91.28
360,88.2
372,83.84
384,77.91
396,70.71
408,63.05
420,56.0
432,50.43
444,46.59
456,44.03
468,41.78
480,38.79
492,34.29
504,28.03
516,20.32
527,11.92
538,3.96
550,-2.15
562,-4.98
574,-3.37
586,3.14
598,14.06
610,27.92
622,42.79
634,56.79
646,68.7
658,78.07
670,84.95
682,89.56
694,91.91
706,91.79
717,88.97
728,83.38
740,75.33
752,65.44
764,54.57
776,43.59
788,33.3
800,24.38
812,17.32
824,12.48
836,9.96
848,9.57
860,10.74
872,12.73
884,14.84
896,16.91
907,19.41
918,23.31
930,29.42
942,37.73
954,46.99
966,54.97
978,59.43
990,59.06
1002,54.2
1014,46.7
1026,39.15
1038,33.96
1050,32.83
1062,36.56
1074,45.34
1086,58.8
1097,75.92
1108,94.74
1120,112.44
1132,126.05
1144,133.48
1156,134.3
1168,129.9
1180,122.67
1192,114.86
1204,107.65
1216,101.06
1228,94.62
1240,88.18
1252,82.35
1264,78.08
1276,75.85
1287,75.13
1298,74.45
1310,72.1
1322,67.18
1334,60.02
1346,52.0
1358,44.83
1370,39.66
1382,36.67
1394,35.16
1406,34.02
1418,32.27
1430,29.62
1442,26.5
1454,23.93
1466,23.12
1477,24.88
1488,29.25
1500,35.44
1512,42.13
1524,48.17
1536,53.26
1548,58.12
1560,64.15
1572,72.55
1584,83.39
1596,95.16
1608,105.15
1620,110.36
1632,108.85
1644,100.58
1656,87.48
1667,72.74
1678,59.5
1690,49.6
1702,43.05
1714,38.32
1726,33.29
1738,26.47
1750,17.62
1762,7.78
1774,-1.47
1786,-8.72
1798,-13.3
1810,-15.45
1822,-16.2
1834,-17.39
1846,-21.43
1857,-31.02
1868,-48.41
1880,-74.53
1892,-108.23
1904,-146.33
1916,-184.45
1928,-218.46
1940,-245.75
1952,-265.72
1964,-279.4
1976,-288.5
1988,-294.41
2000,-297.79
2012,-298.69
2024,-296.8
2036,-291.79
2047,-283.46
2058,-271.74
2070,-256.85
2082,-239.37
2094,-220.21
2106,-200.53
2118,-181.35
2130,-163.41
2142,-146.98
2154,-131.97
2166,-118.07
2178,-104.82
2190,-91.6
2202,-77.57
2214,-61.96
2226,-44.38
2237,-25.23
2248,-5.79
2260,12.12
2272,26.74
2284,37.07
2296,43.09
2308,45.57
2320,45.51
2332,43.64
2344,40.25
2356,35.27
2368,28.68
2380,20.67
2392,11.84
2404,3.06
2416,-4.68
2427,-10.4
2438,-13.35
2450,-13.21
2462,-10.33
2474,-5.73
2486,-0.83
2498,3.08
2510,5.52
2522,7.08
2534,9.29
2546,14.02
2558,22.64
2570,35.48
2582,51.71
2594,69.66
2606,87.29
2617,102.68
2628,114.3
2640,121.2
2652,123.27
2664,121.37
2676,117.34
2688,113.59
2700,112.14
2712,113.58
2724,116.49
2736,117.8
2748,114.23
2760,103.89
2772,87.51
2784,68.32
2796,50.73
2807,38.32
2818,32.32
2830,31.26
2842,31.71
2854,29.99
2866,23.62
2878,11.89
2890,-4.38
2902,-23.5
2914,-43.54
2926,-62.72
2938,-79.31
2950,-92.0
2962,-100.14
2974,-104.16
2986,-105.59
2997,-106.56
3008,-108.71
3020,-112.23
3032,-115.53
3044,-115.9
3056,-110.93
3068,-99.86
3080,-84.21
3092,-67.3
3104,-52.98
3116,-44.18
3128,-42.19
3140,-46.68
3152,-56.43
3164,-70.06
3176,-86.3
3187,-103.87
3198,-120.8
3210,-134.28
3222,-141.14
3234,-138.92
3246,-127.07
3258,-107.52
3270,-84.42
3282,-62.77
3294,-46.8
3306,-38.54
3318,-37.21
3330,-39.87
3342,-42.69
3354,-42.56
3366,-38.14
3377,-30.09
3388,-20.53
3400,-12.03
3412,-6.63
3424,-5.26
3436,-7.75
3448,-13.16
3460,-20.32
3472,-28.07
3484,-35.35
3496,-40.98
3508,-43.67
3520,-42.19
3532,-35.78
3544,-24.44
3556,-9.08
3567,8.69
3578,26.98
3590,44.21
3602,59.46
3614,72.64
3626,84.16
3638,94.53
3650,103.91
3662,111.98
3674,118.02
3686,121.31
3698,121.58
3710,119.31
3722,115.6
3734,111.85
3746,109.09
3757,107.45
3768,106.0
3780,103.11
3792,97.28
3804,87.97
3816,76.12
3828,64.05
3840,54.7
3852,50.7
3864,53.31
3876,61.97
3888,74.33
3900,86.87
3912,95.82
3924,98.13
3936,92.26
3947,78.5
3958,58.93
3970,36.88
3982,16.16
3994,0.23
4006,-8.62
4018,-9.72
4030,-4.05
4042,5.99
4054,17.31
4066,26.92
4078,32.53
4090,33.01
4102,28.28
4114,18.99
4126,6.18
4137,-8.84
4148,-24.64
4160,-39.67
4172,-52.45
4184,-62.06
4196,-68.43
4208,-72.45
4220,-75.54
4232,-78.94
4244,-83.03
4256,-87.12
4268,-89.88
4280,-89.99
4292,-87.03
4304,-81.57
4316,-74.84
4327,-68.07
4338,-61.95
4350,-56.52
4362,-51.45
4374,-46.61
4386,-42.15
4398,-38.36
4410,-35.28
4422,-32.42
4434,-28.85
4446,-23.62
4458,-16.14
4470,-6.23
4482,6.06
4494,20.94
4506,38.9
4517,60.49
4528,85.5
4540,112.34
4552,137.91
4564,158.15
4576,169.19
4588,168.58
4600,156.15
4612,134.07
4624,106.22
4636,77.02
4648,50.3
4660,28.55
4672,12.68
4684,2.2
4696,-4.33
4707,-8.86
4718,-13.4
4730,-19.53
4742,-27.78
4754,-37.49
4766,-46.75
4778,-53.16
4790,-54.78
4802,-51.04
4814,-43.03
4826,-33.07
4838,-23.68
4850,-16.46
4862,-11.5
4874,-7.45
4886,-2.23
4897,6.14
4908,18.93
4920,36.43
4932,58.24
4944,83.51
4956,110.99
4968,139.0
4980,165.3
4992,187.3
5004,202.55
5016,209.49
5028,207.96
5040,199.22
5052,185.39
5064,168.59
5076,150.24
5087,130.99
5098,111.03
5110,90.66
5122,70.53
5134,51.47
5146,34.08
5158,18.4
5170,4.05
5182,-9.26
5194,-21.2
5206,-30.61
5218,-35.84
5230,-35.4
5242,-28.74
5254,-16.45
5266,-0.16
5277,18.06
5288,36.23
5300,52.83
5312,66.84
5324,77.66
5336,85.4
5348,90.92
5360,95.87
5372,102.11
5384,110.84
5396,121.66
5408,132.28
5420,139.16
5432,138.91
5444,129.72
5456,112.09
5467,88.41
5478,61.7
5490,34.36
5502,7.44
5514,-19.12
5526,-45.55
5538,-71.51
5550,-95.79
5562,-116.81
5574,-133.41
5586,-145.34
5598,-153.31
5610,-158.33
5622,-161.09
5634,-161.41
5646,-158.48
5657,-151.42
5668,-139.99
5680,-124.96
5692,-107.95
5704,-90.69
5716,-74.38
5728,-59.32
5740,-45.06
5752,-30.85
5764,-16.16
5776,-0.92
5788,14.73
5800,30.53
5812,46.3
5824,61.86
5836,76.76
5847,90.3
5858,101.76
5870,110.76
5882,117.58
5894,123.02
5906,127.92
5918,132.55
5930,136.24
5942,137.48
5954,134.61
5966,126.5
5978,113.03
5990,95.04
6002,73.87
6014,50.87
6026,27.08
6037,3.18
6048,-20.24
6060,-42.62
6072,-63.5
6084,-82.7
6096,-100.47
6108,-117.31
6120,-133.72
6132,-149.84
6144,-165.35
6156,-179.64
6168,-192.1
6180,-202.48
6192,-210.92
6204,-217.77
6216,-223.38
6227,-228.01
6238,-231.81
6250,-235.05
6262,-238.07
6274,-241.07
6286,-243.78
6298,-245.37
6310,-244.61
6322,-240.46
6334,-232.74
6346,-222.29
6358,-210.7
6370,-199.51
6382,-189.41
6394,-179.91
6406,-169.71
6417,-157.41
6428,-142.34
6440,-124.88
6452,-106.18
6464,-87.82
6476,-71.35
6488,-57.95
6500,-48.39
6512,-42.79
6524,-40.6
6536,-40.61
6548,-41.28
6560,-41.19
6572,-39.37
6584,-35.36
6596,-28.93
6607,-19.75
6618,-7.36
6630,8.49
6642,27.12
6654,46.81
6666,65.03
6678,79.38
6690,88.58
6702,92.87
6714,93.69
6726,92.88
6738,91.93
6750,91.71
6762,92.74
6774,95.6
6786,100.98
6797,109.3
6808,120.22
6820,132.26
6832,143.23
6844,150.93
6856,154.07
6868,152.61
6880,147.37
6892,139.37
6904,129.16
6916,116.7
6928,101.76
6940,84.46
6952,65.47
6964,45.73
6976,26.02
6987,6.69
6998,-12.15
7010,-30.1
7022,-46.16
7034,-58.85
7046,-66.9
7058,-70.07
7070,-69.47
7082,-67.3
7094,-66.02
7106,-67.44
7118,-72.36
7130,-80.57
7142,-91.21
7154,-103.15
7166,-115.04
7177,-125.31
7188,-132.22
7200,-134.2
7212,-130.41
7224,-121.1
7236,-107.65
7248,-92.1
7260,-76.51
7272,-62.41
7284,-50.6
7296,-41.36
7308,-34.82
7320,-31.05
7332,-30.05
7344,-31.46
7356,-34.35
7367,-37.31
7378,-38.97
7390,-38.55
7402,-36.25
7414,-33.18
7426,-30.74
7438,-29.97
7450,-31.06
7462,-33.36
7474,-35.98
7486,-38.35
7498,-40.44
7510,-42.59
7522,-44.86
7534,-46.6
7546,-46.5
7557,-43.29
7568,-36.62
7580,-27.49
7592,-18.07
7604,-10.8
7616,-7.48
7628,-8.66
7640,-13.72
7652,-21.6
7664,-31.31
7676,-42.33
7688,-54.35
7700,-66.9
7712,-79.03
7724,-89.41
7736,-96.68
7747,-99.85
7758,-98.65
7770,-93.49
7782,-85.28
7794,-75.22
7806,-64.49
7818,-54.1
7830,-44.49
7842,-35.34
7854,-25.59
7866,-13.83
7878,0.97
7890,18.68
7902,37.65
7914,55.15
7926,68.5
7937,76.4
7948,79.77
7960,81.44
7972,84.82
7984,92.2
7996,103.6
8008,116.67
8020,127.83
8032,133.79
8044,132.94
8056,125.79
8068,114.62
8080,102.63
8092,93.13
8104,89.0
8116,92.3
8127,103.95
8138,123.24
8150,147.48
8162,172.11
8174,191.58
8186,200.67
8198,195.86
8210,176.21
8222,143.38
8234,100.99
8246,53.62
8258,5.91
8270,-38.14
8282,-75.64
8294,-105.04
8306,-126.24
8317,-140.4
8328,-149.41
8340,-155.14
8352,-158.8
8364,-160.55
8376,-159.77
8388,-155.47
8400,-146.99
8412,-134.47
8424,-119.04
8436,-102.65
8448,-87.75
8460,-76.61
8472,-70.75
8484,-70.37
8496,-74.34
8507,-80.65
8518,-87.18
8530,-92.43
8542,-95.86
8554,-97.64
8566,-98.08
8578,-97.18
8590,-94.56
8602,-89.89
8614,-83.36
8626,-75.7
8638,-67.92
8650,-60.58
8662,-53.39
8674,-45.33
8686,-35.26
8697,-22.72
8708,-8.34
8720,6.47
8732,20.08
8744,31.45
8756,40.45
8768,47.64
8780,53.82
8792,59.39
8804,64.32
8816,68.17
8828,70.6
8840,71.62
8852,71.6
8864,71.19
8876,70.97
8887,71.19
8898,71.69
8910,71.96
8922,71.43
8934,69.69
8946,66.65
8958,62.51
8970,57.69
8982,52.61
8994,47.65
9006,43.11
9018,39.27
9030,36.41
9042,34.76
9054,34.33
9066,34.85
9077,35.76
9088,36.43
9100,36.31
9112,35.13
9124,32.95
9136,30.12
9148,27.22
9160,25.05
9172,24.46
9184,26.25
9196,30.91
9208,38.47
9220,48.45
9232,59.88
9244,71.47
9256,81.64
9267,88.71
9278,91.02
9290,87.16
9302,76.21
9314,57.98
9326,33.0
9338,2.42
9350,-32.16
9362,-68.87
9374,-105.63
9386,-140.31
9398,-170.99
9410,-196.13
9422,-214.73
9434,-226.39
9446,-231.16
9457,-229.5
9468,-222.15
9480,-210.15
9492,-194.74
9504,-177.21
9516,-158.66
9528,-139.89
9540,-121.52
9552,-104.26
9564,-89.06
9576,-77.13
9588,-69.49
9600,-66.54
9612,-67.61
9624,-71.03
9636,-74.53
9647,-75.9
9658,-73.55
9670,-66.89
9682,-56.26
9694,-42.53
9706,-26.59
9718,-9.01
9730,9.97
9742,30.15
9754,50.86
9766,70.72
9778,87.71
9790,99.68
9802,105.03
9814,103.25
9826,95.08
9837,82.24
9848,66.87
9860,51.0
9872,36.16
9884,23.34
9896,13.14
9908,5.87
9920,1.5
9932,-0.46
9944,-1.04
9956,-1.57
9968,-3.17
9980,-6.22
9992,-10.03
10004,-13.18
10016,-14.21
10027,-12.4
10038,-8.04
10050,-2.18
10062,4.2
10074,10.79
10086,18.21
10098,27.73
10110,40.53
10122,57.08
10134,76.88
10146,98.55
10158,120.12
10170,139.51
10182,154.65
10194,163.64
10206,164.79
10217,156.96
10228,139.73
10240,113.81
10252,81.04
10264,44.15
10276,6.3
10288,-29.51
10300,-60.78
10312,-85.59
10324,-102.36
10336,-109.87
10348,-107.32
10360,-94.94
10372,-74.51
10384,-49.27
10396,-23.46
10407,-1.21
10418,14.5
10430,22.3
10442,22.33
10454,15.64
10466,3.49
10478,-12.99
10490,-32.67
10502,-54.29
10514,-76.5
10526,-98.06
10538,-118.22
10550,-136.65
10562,-152.96
10574,-166.25
10586,-174.87
10597,-176.89
10608,-170.97
10620,-157.26
10632,-137.58
10644,-114.84
10656,-91.99
10668,-70.94
10680,-52.13
10692,-34.79
10704,-17.72
10716,-0.08
10728,18.05
10740,35.72
10752,51.38
10764,63.57
10776,71.43
10787,75.1
10798,75.8
10810,75.3
10822,75.3
10834,76.76
10846,79.63
10858,83.09
10870,86.13
10882,88.11
10894,89.0
10906,89.19
10918,89.13
10930,89.03
10942,88.78
10954,88.03
10966,86.35
10977,83.24
10988,78.16
11000,70.59
11012,60.13
11024,46.73
11036,30.96
11048,13.92
11060,-3.04
11072,-18.72
11084,-32.55
11096,-44.71
11108,-56.0
11120,-67.5
11132,-80.17
11144,-94.55
11156,-110.69
11167,-128.31
11178,-146.71
11190,-164.84
11202,-181.13
11214,-193.48
11226,-199.63
11238,-197.81
11250,-187.39
11262,-169.3
11274,-145.82
11286,-119.74
11298,-93.45
11310,-68.18
11322,-43.81
11334,-19.26
11346,6.65
11357,34.37
11368,63.1
11380,90.83
11392,114.99
11404,133.33
11416,144.81
11428,149.97
11440,150.67
11452,149.3
11464,147.82
11476,147.22
11488,147.48
11500,148.12
11512,148.67
11524,149.08
11536,149.6
11547,150.44
11558,151.46
11570,152.12
11582,151.77
11594,149.93
11606,146.52
11618,141.83
11630,136.29
11642,130.22
11654,123.72
11666,116.66
11678,108.9
11690,100.47
11702,91.7
11714,83.18
11726,75.66
11737,69.71
11748,65.6
11760,63.01
11772,61.11
11784,58.73
11796,54.76
11808,48.7
11820,41.06
11832,33.32
11844,27.69
11856,26.37
11868,30.99
11880,42.08
11892,59.02
11904,80.28
11916,103.79
11927,127.36
11938,148.94
11950,166.86
11962,179.97
11974,187.71
11986,190.12
11998,187.87
12010,182.15
12022,174.58
12034,166.99
12046,160.95
12058,157.27
12070,155.51
12082,154.06
12094,150.62
12106,143.19
12117,130.94
12128,114.61
12140,96.18
12152,77.97
12164,61.78
12176,48.27
12188,36.95
12200,26.68
12212,16.08
12224,3.95
12236,-10.52
12248,-27.64
12260,-47.13
12272,-68.04
12284,-88.91
12296,-108.09
12307,-124.1
12318,-135.93
12330,-143.19
12342,-145.96
12354,-144.52
12366,-139.13
12378,-129.9
12390,-116.98
12402,-100.89
12414,-82.81
12426,-64.64
12438,-48.57
12450,-36.4
12462,-28.77
12474,-24.73
12486,-21.92
12497,-17.26
12508,-8.07
12520,6.95
12532,27.21
12544,50.35
12556,72.89
12568,91.15
12580,102.14
12592,104.05
12604,96.33
12616,79.56
12628,55.24
12640,25.64
12652,-6.32
12664,-37.25
12676,-63.74
12687,-82.92
12698,-92.99
12710,-93.5
12722,-85.25
12734,-70.06
12746,-50.32
12758,-28.57
12770,-7.26
12782,11.67
12794,27.13
12806,39.2
12818,49.04
12830,58.42
12842,68.88
12854,80.88
12866,93.61
12877,105.32
12888,114.09
12900,118.64
12912,118.58
12924,114.24
12936,106.25
12948,95.21
12960,81.71
12972,66.52
12984,50.65
12996,35.19
13008,20.78
13020,7.32
13032,-6.04
13044,-20.26
13056,-35.72
13067,-51.87
13078,-67.4
13090,-81.04
13102,-92.33
13114,-101.91
13126,-111.14
13138,-121.14
13150,-131.86
13162,-141.56
13174,-147.31
13186,-146.19
13198,-136.79
13210,-120.18
13222,-99.95
13234,-80.96
13246,-67.6
13257,-62.09
13268,-63.83
13280,-69.89
13292,-76.47
13304,-80.42
13316,-80.21
13328,-75.85
13340,-68.16
13352,-58.11
13364,-46.31
13376,-33.35
13388,-20.01
13400,-7.57
13412,2.48
13424,8.84
13436,10.97
13447,9.35
13458,5.35
13470,0.71
13482,-3.05
13494,-5.13
13506,-5.63
13518,-5.48
13530,-6.09
13542,-8.82
13554,-14.54
13566,-23.34
13578,-34.63
13590,-47.38
13602,-60.62
13614,-73.58
13626,-85.69
13637,-96.3
13648,-104.4
13660,-108.76
13672,-108.27
13684,-102.5
13696,-92.17
13708,-79.12
13720,-65.82
13732,-54.51
13744,-46.45
13756,-41.52
13768,-38.45
13780,-35.4
13792,-30.74
13804,-23.55
13816,-13.95
13827,-2.93
13838,7.93
13850,17.08
13862,23.31
13874,26.18
13886,26.09
13898,24.02
13910,21.08
13922,18.03
13934,14.86
13946,10.87
13958,5.1
13970,-3.09
13982,-13.48
13994,-25.03
14006,-36.21
14017,-45.72
14028,-52.93
14040,-58.07
14052,-61.93
14064,-65.52
14076,-69.76
14088,-75.33
14100,-82.72
14112,-91.93
14124,-102.04
14136,-110.89
14148,-115.38
14160,-112.5
14172,-100.87
14184,-81.87
14196,-59.51
14207,-39.02
14218,-24.67
14230,-18.01
14242,-17.55
14254,-19.72
14266,-20.66
14278,-17.72
14290,-9.9
14302,2.52
14314,18.73
14326,37.92
14338,59.19
14350,81.31
14362,102.61
14374,121.4
14386,136.47
14397,147.71
14408,156.27
14420,164.27
14432,174.28
14444,188.35
14456,206.92
14468,228.21
14480,248.16
14492,261.65
14504,264.35
14516,254.69
14528,234.85
14540,210.08
14552,186.73
14564,169.68
14576,160.55
14587,157.45
14598,156.32
14610,153.07
14622,145.44
14634,133.92
14646,121.26
14658,111.03
14670,105.93
14682,106.61
14694,111.32
14706,116.66
14718,118.86
14730,115.17
14742,104.67
14754,88.34
14766,68.33
14777,47.13
14788,26.95
14800,9.5
14812,-3.86
14824,-11.86
14836,-13.54
14848,-8.47
14860,2.73
14872,18.31
14884,35.59
14896,51.6
14908,63.87
14920,70.97
14932,72.63
14944,69.5
14956,62.67
14967,53.35
14978,42.76
14990,32.28
15002,23.51
15014,17.97
15026,16.62
15038,19.2
15050,23.9
15062,27.79
15074,27.71
15086,21.53
15098,8.99
15110,-8.08
15122,-26.53
15134,-43.09
15146,-55.56
15157,-63.45
15168,-67.74
15180,-70.07
15192,-71.83
15204,-73.6
15216,-75.36
15228,-76.98
15240,-78.88
15252,-82.11
15264,-88.05
15276,-97.72
15288,-111.18
15300,-127.4
15312,-144.6
15324,-161.0
15336,-175.34
15347,-187.11
15358,-196.09
15370,-201.82
15382,-203.18
15394,-198.62
15406,-186.9
15418,-168.05
15430,-143.93
15442,-117.91
15454,-93.8
15466,-74.59
15478,-61.5
15490,-53.84
15502,-49.49
15514,-45.81
15526,-40.35
15537,-31.42
15548,-18.35
15560,-1.66
15572,17.01
15584,35.2
15596,50.37
15608,60.74
15620,65.91
15632,66.88
15644,65.49
15656,63.4
15668,61.24
15680,58.21
15692,52.4
15704,41.65
15716,24.46
15727,0.7
15738,-28.15
15750,-59.32
15762,-89.39
15774,-115.11
15786,-134.18
15798,-145.65
15810,-150.14
15822,-149.57
15834,-146.69
15846,-144.35
15858,-144.69
15870,-148.43
15882,-154.55
15894,-160.46
15906,-162.76
15917,-158.29
15928,-145.14
15940,-123.36
15952,-94.88
15964,-63.04
15976,-31.63
15988,-3.92
16000,17.98
16012,33.39
16024,42.94
16036,48.15
16048,50.88
16060,52.88
16072,55.3
16084,58.56
16096,62.19
16107,65.1
16118,65.87
16130,63.21
16142,56.4
16154,45.65
16166,32.17
16178,17.93
16190,5.22
16202,-3.96
16214,-8.44
16226,-8.22
16238,-4.43
16250,1.06
16262,6.25
16274,9.64
16286,10.47
16297,8.82
16308,5.3
16320,0.8
16332,-3.8
16344,-7.79
16356,-10.72
16368,-12.39
16380,-12.94
16392,-12.85
16404,-12.88
16416,-13.94
16428,-16.96
16440,-22.61
16452,-31.12
16464,-42.11
16476,-54.54
16487,-66.8
16498,-77.02
16510,-83.46
16522,-85.14
16534,-82.09
16546,-75.47
16558,-67.03
16570,-58.55
16582,-51.3
16594,-45.86
16606,-42.42
16618,-41.24
16630,-42.92
16642,-48.32
16654,-58.0
16666,-71.73
16677,-88.16
16688,-105.03
16700,-119.7
16712,-129.76
16724,-133.4
16736,-129.6
16748,-118.18
16760,-99.85
16772,-76.36
16784,-50.39
16796,-25.22
16808,-4.04
16820,10.79
16832,18.22
16844,18.61
16856,13.35
16867,4.24
16878,-6.88
16890,-18.53
16902,-29.67
16914,-39.71
16926,-48.37
16938,-55.67
16950,-61.86
16962,-67.41
16974,-72.95
16986,-79.1
16998,-86.39
17010,-95.16
17022,-105.37
17034,-116.43
17046,-127.03
17057,-135.22
17068,-138.77
17080,-135.67
17092,-124.38
17104,-104.57
17116,-77.24
17128,-44.59
17140,-9.47
17152,25.31
17164,57.46
17176,85.51
17188,108.72
17200,127.96
17212,144.49
17224,159.44
17236,173.38
17247,186.29
17258,197.9
17270,208.1
17282,217.08
17294,225.18
17306,234.72
17318,248.01
17330,266.27
17342,288.88
17354,313.46
17366,336.94
17378,356.73
17390,371.43
17402,380.94
17414,388.98
17426,399.99
17437,416.89
17448,439.69
17460,465.69
17472,491.12
17484,513.07
17496,530.41
17508,543.69
17520,558.17
17532,580.3
17544,614.68
17556,662.13
17568,719.33
17580,780.4
17592,838.97
17604,889.93
17616,902.17
17627,853.58
17638,737.0
17650,564.59
17662,363.85
17674,165.18
17686,-9.67
17698,-151.47
17710,-260.56
17722,-335.59
17734,-382.51
17746,-405.4
17758,-407.63
17770,-394.16
17782,-371.82
17794,-347.72
17806,-327.15
17817,-312.81
17828,-304.74
17840,-299.06
17852,-290.6
17864,-276.14
17876,-255.81
17888,-232.66
17900,-210.85
17912,-193.65
17924,-182.49
17936,-177.16
17948,-175.19
17960,-172.98
17972,-168.03
17984,-159.86
17996,-149.75
18007,-139.75
18018,-131.41
18030,-125.3
18042,-121.12
18054,-117.61
18066,-112.95
18078,-106.02
18090,-96.83
18102,-86.44
18114,-76.27
18126,-67.55
18138,-60.9
18150,-56.44
18162,-53.76
18174,-52.03
18186,-50.56
18197,-49.04
18208,-47.56
18220,-46.36
18232,-45.64
18244,-45.43
18256,-45.56
18268,-45.77
18280,-45.63
18292,-44.76
18304,-42.92
18316,-40.16
18328,-36.73
18340,-33.09
18352,-29.7
18364,-26.87
18376,-24.67
18387,-22.94
18398,-21.39
18410,-19.88
18422,-18.54
18434,-17.77
18446,-18.24
18458,-20.45
18470,-24.62
18482,-30.41
18494,-37.14
18506,-43.95
18518,-50.28
18530,-56.2
18542,-62.33
18554,-69.7
18566,-79.23
18577,-91.3
18588,-105.53
18600,-120.97
18612,-136.49
18624,-151.26
18636,-165.13
18648,-178.65
18660,-192.93
18672,-209.49
18684,-230.13
18696,-256.69
18708,-290.13
18720,-329.57
18732,-371.42
18744,-409.76
18756,-437.74
18767,-450.16
18778,-445.34
18790,-425.74
18802,-396.68
18814,-363.87
18826,-331.37
18838,-300.74
18850,-271.82
18862,-244.12
18874,-217.98
18886,-194.4
18898,-174.25
18910,-157.25
18922,-141.93
18934,-126.28
18946,-108.85
18957,-89.33
18968,-68.28
18980,-46.61
18992,-24.95
19004,-3.47
19016,17.71
19028,38.19
19040,57.12
19052,73.54
19064,86.92
19076,97.54
19088,106.3
19100,114.34
19112,122.41
19124,130.55
19136,138.27
19147,144.94
19158,150.26
19170,154.49
19182,158.26
19194,162.25
19206,166.8
19218,171.63
19230,175.95
19242,178.74
19254,179.21
19266,177.12
19278,172.71
19290,166.42
19302,158.5
19314,148.84
19326,137.19
19337,123.44
19348,107.89
19360,91.05
19372,73.2
19384,54.04
19396,32.77
19408,8.53
19420,-18.84
19432,-48.46
19444,-78.54
19456,-107.1
19468,-132.61
19480,-154.36
19492,-172.17
19504,-185.76
19516,-194.27
19527,-196.34
19538,-190.71
19550,-177.03
19562,-156.52
19574,-131.8
19586,-106.24
19598,-82.89
19610,-63.56
19622,-48.64
19634,-37.37
19646,-28.6
19658,-21.41
19670,-15.2
19682,-9.61
19694,-4.2
19706,1.57
19717,8.25
19728,16.16
19740,25.27
19752,35.19
19764,45.33
19776,55.1
19788,63.98
19800,71.65
19812,77.98
19824,83.17
19836,87.67
19848,91.86
19860,95.86
19872,99.31
19884,101.51
19896,101.86
19907,100.36
19918,97.9
19930,95.99
19942,96.1
19954,98.84
19966,103.43
19978,107.8
19990,109.25
20002,105.55
20014,95.9
20026,81.27
20038,64.01
20050,46.94
20062,32.34
20074,21.38
20086,14.09
20097,9.79
20108,7.61
20120,6.85
20132,6.95
20144,7.51
20156,8.12
20168,8.58
20180,8.84
20192,9.16
20204,9.86
20216,11.17
20228,13.0
20240,14.9
20252,16.21
20264,16.22
20276,14.44
20287,10.66
20298,5.09
20310,-1.7
20322,-8.94
20334,-15.82
20346,-21.71
20358,-26.32
20370,-29.67
20382,-32.01
20394,-33.61
20406,-34.59
20418,-34.9
20430,-34.44
20442,-33.2
20454,-31.4
20466,-29.44
20477,-27.75
20488,-26.56
20500,-25.82
20512,-25.29
20524,-24.58
20536,-23.48
20548,-21.96
20560,-20.19
20572,-18.48
20584,-17.1
20596,-16.18
20608,-15.59
20620,-15.1
20632,-14.42
20644,-13.4
20656,-12.13
20667,-10.9
20678,-10.07
20690,-9.9
20702,-10.51
20714,-11.96
20726,-14.26
20738,-17.38
20750,-21.14
20762,-25.08
20774,-28.48
20786,-30.56
20798,-30.81
20810,-29.28
20822,-26.53
20834,-23.37
20846,-20.41
20857,-17.79
20868,-15.18
20880,-12.1
20892,-8.3
20904,-3.9
20916,0.61
20928,4.65
20940,7.81
20952,9.94
20964,11.17
20976,11.76
20988,11.99
