seconds,BVP
7,33.01
19,29.83
31,25.79
43,21.22
55,16.55
67,12.06
79,7.87
91,3.94
103,0.05
115,-3.98
127,-8.31
139,-12.95
151,-17.76
163,-22.54
175,-27.05
186,-31.2
197,-35.1
209,-39.13
221,-43.85
233,-49.81
245,-57.27
257,-65.92
269,-74.76
281,-82.25
293,-86.63
305,-86.47
317,-80.97
329,-70.31
341,-55.59
353,-38.51
365,-20.94
376,-4.48
387,9.85
399,21.66
411,31.07
423,38.33
435,43.7
447,47.29
459,49.19
471,49.56
483,48.8
495,47.51
507,46.34
519,45.81
531,46.16
543,47.27
555,48.83
566,50.45
577,51.83
589,52.81
601,53.29
613,53.21
625,52.44
637,50.87
649,48.42
661,45.09
673,41.07
685,36.6
697,31.95
709,27.34
721,22.79
733,18.31
745,13.92
756,9.66
767,5.65
779,1.95
791,-1.49
803,-4.94
815,-8.71
827,-13.09
839,-18.15
851,-23.71
863,-29.43
875,-34.9
887,-39.89
899,-44.44
911,-48.85
923,-53.6
935,-59.24
946,-66.05
957,-73.9
969,-82.06
981,-89.18
993,-93.55
1005,-93.52
1017,-88.04
1029,-77.01
1041,-61.38
1053,-42.89
1065,-23.63
1077,-5.44
1089,10.45
1101,23.42
1113,33.45
1125,40.77
1136,45.73
1147,48.66
1159,49.92
1171,49.92
1183,49.13
1195,48.04
1207,47.03
1219,46.37
1231,46.13
1243,46.3
1255,46.77
1267,47.48
1279,48.36
1291,49.35
1303,50.29
1315,50.94
1326,51.01
1337,50.27
1349,48.6
1361,46.12
1373,43.06
1385,39.69
1397,36.17
1409,32.49
1421,28.49
1433,24.05
1445,19.11
1457,13.82
1469,8.48
1481,3.37
1493,-1.36
1505,-5.69
1516,-9.78
1527,-13.77
1539,-17.79
1551,-21.84
1563,-25.85
1575,-29.73
1587,-33.41
1599,-36.94
1611,-40.51
1623,-44.39
1635,-48.97
1647,-54.6
1659,-61.43
1671,-69.28
1683,-77.44
1695,-84.68
1706,-89.46
1717,-90.24
1729,-85.97
1741,-76.42
1753,-62.29
1765,-45.07
1777,-26.58
1789,-8.59
1801,7.55
1813,21.03
1825,31.51
1837,38.98
1849,43.61
1861,45.69
1873,45.62
1885,43.95
1896,41.35
1907,38.57
1919,36.27
1931,34.9
1943,34.55
1955,35.02
1967,35.98
1979,37.09
1991,38.23
2003,39.42
2015,40.76
2027,42.14
2039,43.22
2051,43.51
2063,42.52
2075,40.06
2086,36.3
2097,31.72
2109,26.92
2121,22.35
2133,18.18
2145,14.3
2157,10.41
2169,6.19
2181,1.45
2193,-3.79
2205,-9.32
2217,-14.78
2229,-19.82
2241,-24.25
2253,-28.05
2265,-31.56
2276,-35.28
2287,-39.81
2299,-45.57
2311,-52.59
2323,-60.34
2335,-67.72
2347,-73.25
2359,-75.46
2371,-73.28
2383,-66.38
2395,-55.22
2407,-40.98
2419,-25.22
2431,-9.51
2443,4.82
2455,16.82
2466,26.05
2477,32.44
2489,36.24
2501,37.84
2513,37.74
2525,36.42
2537,34.4
2549,32.19
2561,30.3
2573,29.19
2585,29.1
2597,30.04
2609,31.76
2621,33.86
2633,35.92
2645,37.56
2656,38.5
2667,38.54
2679,37.53
2691,35.43
2703,32.32
2715,28.38
2727,23.88
2739,19.06
2751,14.04
2763,8.83
2775,3.34
2787,-2.47
2799,-8.55
2811,-14.69
2823,-20.6
2835,-25.94
2846,-30.47
2857,-34.15
2869,-37.2
2881,-40.12
2893,-43.64
2905,-48.47
2917,-54.94
2929,-62.76
2941,-70.86
2953,-77.57
2965,-81.1
2977,-79.99
2989,-73.63
3001,-62.39
3013,-47.47
3025,-30.55
3036,-13.38
3047,2.57
3059,16.32
3071,27.37
3083,35.63
3095,41.24
3107,44.49
3119,45.75
3131,45.44
3143,44.03
3155,42.03
3167,39.91
3179,38.11
3191,36.92
3203,36.39
3215,36.46
3226,36.92
3237,37.59
3249,38.28
3261,38.9
3273,39.39
3285,39.67
3297,39.62
3309,39.01
3321,37.58
3333,35.09
3345,31.43
3357,26.76
3369,21.46
3381,16.0
3393,10.82
3405,6.09
3416,1.76
3427,-2.42
3439,-6.71
3451,-11.27
3463,-16.12
3475,-21.17
3487,-26.27
3499,-31.28
3511,-36.05
3523,-40.49
3535,-44.62
3547,-48.66
3559,-53.05
3571,-58.34
3583,-64.96
3595,-72.91
3606,-81.53
3617,-89.44
3629,-94.83
3641,-95.93
3653,-91.54
3665,-81.42
3677,-66.35
3689,-47.94
3701,-28.16
3713,-8.89
3725,8.42
3737,22.92
3749,34.38
3761,42.97
3773,49.11
3785,53.24
3796,55.74
3807,56.87
3819,56.87
3831,56.06
3843,54.82
3855,53.62
3867,52.85
3879,52.73
3891,53.17
3903,53.87
3915,54.45
3927,54.58
3939,54.15
3951,53.18
3963,51.79
3975,50.01
3986,47.84
3997,45.18
4009,41.89
4021,37.93
4033,33.31
4045,28.2
4057,22.9
4069,17.77
4081,13.17
4093,9.3
4105,6.1
4117,3.3
4129,0.5
4141,-2.64
4153,-6.3
4165,-10.43
4176,-14.83
4187,-19.28
4199,-23.65
4211,-27.91
4223,-32.08
4235,-36.3
4247,-40.73
4259,-45.68
4271,-51.48
4283,-58.48
4295,-66.66
4307,-75.49
4319,-83.76
4331,-89.72
4343,-91.53
4355,-87.82
4366,-78.19
4377,-63.41
4389,-45.19
4401,-25.67
4413,-6.87
4425,9.81
4437,23.65
4449,34.51
4461,42.52
4473,47.89
4485,50.81
4497,51.54
4509,50.5
4521,48.31
4533,45.66
4545,43.19
4556,41.31
4567,40.15
4579,39.6
4591,39.49
4603,39.68
4615,40.07
4627,40.67
4639,41.39
4651,42.03
4663,42.27
4675,41.63
4687,39.78
4699,36.56
4711,32.13
4723,26.91
4735,21.48
4746,16.35
4757,11.78
4769,7.74
4781,3.94
4793,-0.03
4805,-4.46
4817,-9.41
4829,-14.65
4841,-19.76
4853,-24.41
4865,-28.45
4877,-32.06
4889,-35.66
4901,-39.81
4913,-45.01
4925,-51.54
4936,-59.34
4947,-67.84
4959,-75.94
4971,-82.11
4983,-84.69
4995,-82.36
5007,-74.59
5019,-61.86
5031,-45.55
5043,-27.52
5055,-9.65
5067,6.63
5079,20.46
5091,31.5
5103,39.71
5115,45.15
5126,47.98
5137,48.45
5149,46.93
5161,44.01
5173,40.37
5185,36.73
5197,33.74
5209,31.84
5221,31.19
5233,31.68
5245,32.97
5257,34.57
5269,36.01
5281,36.83
5293,36.72
5305,35.45
5316,32.98
5327,29.42
5339,25.02
5351,20.13
5363,15.06
5375,9.96
5387,4.86
5399,-0.33
5411,-5.7
5423,-11.25
5435,-16.87
5447,-22.32
5459,-27.41
5471,-32.03
5483,-36.2
5495,-40.16
5506,-44.29
5517,-49.07
5529,-54.92
5541,-62.02
5553,-70.02
5565,-77.93
5577,-84.19
5589,-87.08
5601,-85.21
5613,-78.0
5625,-65.86
5637,-50.11
5649,-32.49
5661,-14.77
5673,1.64
5685,15.84
5696,27.4
5707,36.19
5719,42.3
5731,45.93
5743,47.46
5755,47.32
5767,46.11
5779,44.4
5791,42.68
5803,41.31
5815,40.42
5827,39.99
5839,39.92
5851,40.06
5863,40.36
5875,40.72
5886,41.08
5897,41.22
5909,40.86
5921,39.67
5933,37.38
5945,33.92
5957,29.49
5969,24.46
5981,19.26
5993,14.27
6005,9.66
6017,5.34
6029,1.07
6041,-3.46
6053,-8.46
6065,-13.94
6076,-19.72
6087,-25.42
6099,-30.68
6111,-35.29
6123,-39.29
6135,-43.1
6147,-47.34
6159,-52.73
6171,-59.72
6183,-68.21
6195,-77.28
6207,-85.36
6219,-90.46
6231,-90.77
6243,-85.24
6255,-73.91
6266,-57.95
6277,-39.28
6289,-20.05
6301,-2.01
6313,13.71
6325,26.73
6337,37.08
6349,45.0
6361,50.68
6373,54.23
6385,55.86
6397,55.89
6409,54.86
6421,53.34
6433,51.86
6445,50.73
6456,50.1
6467,49.91
6479,50.05
6491,50.34
6503,50.63
6515,50.79
6527,50.74
6539,50.43
6551,49.78
6563,48.6
6575,46.65
6587,43.65
6599,39.46
6611,34.19
6623,28.21
6635,22.09
6646,16.39
6657,11.47
6669,7.36
6681,3.79
6693,0.36
6705,-3.32
6717,-7.43
6729,-11.92
6741,-16.54
6753,-21.0
6765,-25.1
6777,-28.84
6789,-32.42
6801,-36.15
6813,-40.38
6825,-45.43
6836,-51.48
6847,-58.51
6859,-66.18
6871,-73.72
6883,-79.89
6895,-83.2
6907,-82.26
6919,-76.24
6931,-65.12
6943,-49.88
6955,-32.17
6967,-13.97
6979,3.0
6991,17.53
7003,29.08
7015,37.62
7026,43.41
7037,46.79
7049,48.1
7061,47.75
7073,46.2
7085,44.07
7097,41.97
7109,40.39
7121,39.58
7133,39.52
7145,39.97
7157,40.65
7169,41.34
7181,41.95
7193,42.47
7205,42.92
7216,43.2
7227,43.11
7239,42.31
7251,40.55
7263,37.67
7275,33.74
7287,29.16
7299,24.41
7311,19.97
7323,16.08
7335,12.61
7347,9.19
7359,5.35
7371,0.8
7383,-4.45
7395,-10.03
7406,-15.43
7417,-20.18
7429,-24.08
7441,-27.26
7453,-30.16
7465,-33.43
7477,-37.63
7489,-43.1
7501,-49.76
7513,-56.99
7525,-63.68
7537,-68.38
7549,-69.68
7561,-66.61
7573,-58.94
7585,-47.27
7596,-32.95
7607,-17.63
7619,-2.97
7631,9.8
7643,19.96
7655,27.34
7667,32.17
7679,34.86
7691,35.88
7703,35.62
7715,34.39
7727,32.52
7739,30.4
7751,28.49
7763,27.24
7775,26.94
7786,27.58
7797,28.86
7809,30.26
7821,31.22
7833,31.36
7845,30.54
7857,28.86
7869,26.54
7881,23.77
7893,20.63
7905,17.12
7917,13.13
7929,8.65
7941,3.75
7953,-1.34
7965,-6.31
7976,-10.89
7987,-14.9
7999,-18.33
8011,-21.33
8023,-24.06
8035,-26.74
8047,-29.55
8059,-32.74
8071,-36.6
8083,-41.41
8095,-47.22
8107,-53.6
8119,-59.56
8131,-63.73
8143,-64.66
8155,-61.42
8166,-53.82
8177,-42.63
8189,-29.24
8201,-15.3
8213,-2.25
8225,8.88
8237,17.64
8249,24.02
8261,28.31
8273,30.9
8285,32.16
8297,32.4
8309,31.83
8321,30.66
8333,29.17
8345,27.67
8356,26.47
8367,25.81
8379,25.75
8391,26.25
8403,27.13
8415,28.16
8427,29.08
8439,29.58
8451,29.36
8463,28.18
8475,25.93
8487,22.67
8499,18.65
8511,14.18
8523,9.57
8535,5.0
8546,0.54
8557,-3.87
8569,-8.33
8581,-12.94
8593,-17.73
8605,-22.61
8617,-27.42
8629,-31.92
8641,-35.88
8653,-39.21
8665,-42.06
8677,-44.78
8689,-47.93
8701,-52.04
8713,-57.4
8725,-63.89
8736,-70.75
8747,-76.77
8759,-80.52
8771,-80.74
8783,-76.74
8795,-68.62
8807,-57.27
8819,-44.05
8831,-30.41
8843,-17.55
8855,-6.13
8867,3.66
8879,11.96
8891,18.99
8903,24.9
8915,29.72
8926,33.42
8937,36.06
8949,37.75
8961,38.75
8973,39.29
8985,39.64
8997,39.94
9009,40.29
9021,40.74
9033,41.32
9045,42.02
9057,42.8
9069,43.54
9081,44.03
9093,43.98
9105,43.06
9116,41.0
9127,37.7
9139,33.33
9151,28.35
9163,23.33
9175,18.85
9187,15.23
9199,12.47
9211,10.27
9223,8.11
9235,5.47
9247,1.98
9259,-2.46
9271,-7.69
9283,-13.29
9295,-18.8
9306,-23.9
9317,-28.49
9329,-32.73
9341,-37.06
9353,-41.94
9365,-47.7
9377,-54.36
9389,-61.54
9401,-68.38
9413,-73.72
9425,-76.32
9437,-75.26
9449,-70.11
9461,-61.18
9473,-49.41
9485,-36.14
9496,-22.76
9507,-10.43
9519,0.09
9531,8.44
9543,14.62
9555,18.83
9567,21.33
9579,22.46
9591,22.55
9603,21.99
9615,21.2
9627,20.61
9639,20.51
9651,21.04
9663,22.17
9675,23.72
9686,25.45
9697,27.13
9709,28.55
9721,29.52
9733,29.85
9745,29.42
9757,28.22
9769,26.32
9781,23.89
9793,21.06
9805,17.92
9817,14.49
9829,10.81
9841,6.96
9853,3.09
9865,-0.64
9876,-4.16
9887,-7.5
9899,-10.72
9911,-13.95
9923,-17.31
9935,-20.96
9947,-25.13
9959,-29.98
9971,-35.59
9983,-41.66
9995,-47.47
10007,-51.97
10019,-54.05
10031,-52.86
10043,-48.06
10055,-39.99
10066,-29.51
10077,-17.78
10089,-6.05
10101,4.66
10113,13.61
10125,20.45
10137,25.17
10149,27.99
10161,29.24
10173,29.29
10185,28.48
10197,27.09
10209,25.45
10221,23.89
10233,22.7
10245,22.12
10256,22.19
10267,22.76
10279,23.47
10291,23.91
10303,23.7
10315,22.62
10327,20.65
10339,17.99
10351,14.98
10363,11.91
10375,8.96
10387,6.05
10399,2.96
10411,-0.61
10423,-4.76
10435,-9.35
10446,-13.95
10457,-18.02
10469,-21.23
10481,-23.58
10493,-25.48
10505,-27.58
10517,-30.49
10529,-34.57
10541,-39.84
10553,-45.96
10565,-52.25
10577,-57.83
10589,-61.67
10601,-62.78
10613,-60.44
10625,-54.44
10636,-45.22
10647,-33.77
10659,-21.41
10671,-9.44
10683,1.15
10695,9.87
10707,16.6
10719,21.5
10731,24.79
10743,26.71
10755,27.5
10767,27.45
10779,26.89
10791,26.16
10803,25.58
10815,25.32
10826,25.38
10837,25.67
10849,26.04
10861,26.4
10873,26.71
10885,26.97
10897,27.15
10909,27.09
10921,26.55
10933,25.26
10945,23.04
10957,19.88
10969,15.95
10981,11.58
10993,7.09
11005,2.77
11016,-1.23
11027,-4.94
11039,-8.5
11051,-12.11
11063,-15.91
11075,-19.88
11087,-23.83
11099,-27.48
11111,-30.59
11123,-33.12
11135,-35.33
11147,-37.67
11159,-40.71
11171,-44.83
11183,-50.04
11195,-55.81
11206,-61.17
11217,-64.85
11229,-65.64
11241,-62.73
11253,-55.97
11265,-45.92
11277,-33.69
11289,-20.63
11301,-8.03
11313,3.16
11325,12.39
11337,19.47
11349,24.45
11361,27.56
11373,29.11
11385,29.51
11396,29.27
11407,28.86
11419,28.65
11431,28.85
11443,29.47
11455,30.4
11467,31.51
11479,32.71
11491,33.97
11503,35.28
11515,36.56
11527,37.68
11539,38.44
11551,38.68
11563,38.27
11575,37.17
11586,35.36
11597,32.85
11609,29.72
11621,26.11
11633,22.29
11645,18.58
11657,15.26
11669,12.46
11681,10.09
11693,7.9
11705,5.54
11717,2.74
11729,-0.66
11741,-4.63
11753,-8.98
11765,-13.41
11776,-17.6
11787,-21.35
11799,-24.67
11811,-27.84
11823,-31.38
11835,-35.81
11847,-41.36
11859,-47.74
11871,-54.09
11883,-59.15
11895,-61.61
11907,-60.46
11919,-55.35
11931,-46.61
11943,-35.12
11955,-22.07
11966,-8.74
11977,3.79
11989,14.72
12001,23.54
12013,30.04
12025,34.24
12037,36.38
12049,36.86
12061,36.16
12073,34.81
12085,33.27
12097,31.91
12109,30.93
12121,30.38
12133,30.21
12145,30.29
12156,30.46
12167,30.59
12179,30.54
12191,30.21
12203,29.54
12215,28.49
12227,27.09
12239,25.33
12251,23.17
12263,20.54
12275,17.34
12287,13.54
12299,9.29
12311,4.79
12323,0.25
12335,-4.22
12346,-8.68
12357,-13.21
12369,-17.86
12381,-22.53
12393,-27.02
12405,-31.15
12417,-34.96
12429,-38.71
12441,-42.82
12453,-47.68
12465,-53.34
12477,-59.4
12489,-65.04
12501,-69.17
12513,-70.72
12525,-68.89
12536,-63.41
12547,-54.61
12559,-43.31
12571,-30.66
12583,-17.82
12595,-5.78
12607,4.81
12619,13.55
12631,20.24
12643,24.79
12655,27.24
12667,27.8
12679,26.88
12691,25.05
12703,22.96
12715,21.18
12726,20.08
12737,19.84
12749,20.41
12761,21.56
12773,23.0
12785,24.4
12797,25.46
12809,26.03
12821,26.0
12833,25.35
12845,24.05
12857,22.06
12869,19.35
12881,15.91
12893,11.84
12905,7.32
12916,2.52
12927,-2.49
12939,-7.74
12951,-13.26
12963,-19.0
12975,-24.74
12987,-30.11
12999,-34.77
13011,-38.56
13023,-41.68
13035,-44.62
13047,-48.04
13059,-52.46
13071,-57.94
13083,-63.99
13095,-69.54
13106,-73.23
13117,-73.78
13129,-70.33
13141,-62.69
13153,-51.36
13165,-37.32
13177,-21.78
13189,-5.95
13201,9.16
13213,22.71
13225,34.15
13237,43.11
13249,49.49
13261,53.4
13273,55.19
13285,55.34
13296,54.42
13307,52.94
13319,51.34
13331,49.87
13343,48.64
13355,47.64
13367,46.78
13379,45.95
13391,45.14
13403,44.37
13415,43.71
13427,43.18
13439,42.67
13451,41.93
13463,40.62
13475,38.43
13486,35.22
13497,31.03
13509,26.13
13521,20.87
13533,15.56
13545,10.37
13557,5.36
13569,0.48
13581,-4.29
13593,-8.93
13605,-13.33
13617,-17.33
13629,-20.8
13641,-23.75
13653,-26.38
13665,-29.11
13676,-32.49
13687,-37.03
13699,-42.92
13711,-49.81
13723,-56.75
13735,-62.3
13747,-64.91
13759,-63.41
13771,-57.31
13783,-47.02
13795,-33.65
13807,-18.75
13819,-3.84
13831,9.88
13843,21.67
13855,31.23
13866,38.51
13877,43.58
13889,46.51
13901,47.39
13913,46.46
13925,44.15
13937,41.03
13949,37.83
13961,35.19
13973,33.58
13985,33.17
13997,33.8
14009,35.08
14021,36.46
14033,37.47
14045,37.83
14056,37.47
14067,36.5
14079,35.04
14091,33.15
14103,30.76
14115,27.76
14127,24.0
14139,19.49
14151,14.31
14163,8.66
14175,2.8
14187,-3.01
14199,-8.51
14211,-13.52
14223,-17.98
14235,-22.0
14246,-25.88
14257,-29.98
14269,-34.69
14281,-40.21
14293,-46.42
14305,-52.84
14317,-58.53
14329,-62.26
14341,-62.82
14353,-59.33
14365,-51.6
14377,-40.23
14389,-26.45
14401,-11.81
14413,2.29
14425,14.81
14436,25.11
14447,32.91
14459,38.12
14471,40.81
14483,41.17
14495,39.62
14507,36.78
14519,33.41
14531,30.21
14543,27.68
14555,26.01
14567,25.1
14579,24.69
14591,24.48
14603,24.21
14615,23.76
14626,23.17
14637,22.48
14649,21.7
14661,20.72
14673,19.32
14685,17.25
14697,14.33
14709,10.58
14721,6.16
14733,1.43
14745,-3.23
14757,-7.54
14769,-11.36
14781,-14.8
14793,-18.14
14805,-21.8
14816,-26.16
14827,-31.54
14839,-37.92
14851,-44.92
14863,-51.72
14875,-57.2
14887,-60.11
14899,-59.42
14911,-54.61
14923,-45.86
14935,-34.04
14947,-20.53
14959,-6.83
14971,5.79
14983,16.52
14995,25.05
15006,31.43
15017,35.81
15029,38.34
15041,39.07
15053,38.18
15065,35.98
15077,33.08
15089,30.19
15101,28.0
15113,26.9
15125,26.9
15137,27.68
15149,28.77
15161,29.69
15173,30.14
15185,30.05
15196,29.49
15207,28.55
15219,27.26
15231,25.53
15243,23.15
15255,19.86
15267,15.53
15279,10.17
15291,4.05
15303,-2.4
15315,-8.72
15327,-14.55
15339,-19.81
15351,-24.65
15363,-29.35
15375,-34.27
15386,-39.68
15397,-45.73
15409,-52.35
15421,-59.2
15433,-65.55
15445,-70.33
15457,-72.28
15469,-70.33
15481,-63.98
15493,-53.53
15505,-40.01
15517,-24.94
15529,-9.86
15541,3.94
15553,15.67
15565,24.95
15576,31.76
15587,36.2
15599,38.48
15611,38.96
15623,38.05
15635,36.26
15647,34.16
15659,32.24
15671,30.89
15683,30.31
15695,30.44
15707,31.08
15719,31.92
15731,32.63
15743,32.98
15755,32.82
15766,32.13
15777,30.96
15789,29.41
15801,27.54
15813,25.36
15825,22.78
15837,19.7
15849,16.03
15861,11.82
15873,7.22
15885,2.42
15897,-2.38
15909,-7.05
15921,-11.56
15933,-15.9
15945,-20.1
15956,-24.25
15967,-28.51
15979,-33.14
15991,-38.36
16003,-44.21
16015,-50.38
16027,-56.12
16039,-60.28
16051,-61.66
16063,-59.31
16075,-52.86
16087,-42.67
16099,-29.76
16111,-15.52
16123,-1.41
16135,11.41
16146,22.21
16157,30.65
16169,36.73
16181,40.55
16193,42.19
16205,41.77
16217,39.49
16229,35.73
16241,31.11
16253,26.37
16265,22.2
16277,19.06
16289,17.05
16301,16.0
16313,15.56
16325,15.43
16336,15.47
16347,15.67
16359,16.1
16371,16.71
16383,17.31
16395,17.49
16407,16.85
16419,15.06
16431,12.05
16443,7.99
16455,3.21
16467,-1.9
16479,-6.97
16491,-11.8
16503,-16.34
16515,-20.68
16526,-25.01
16537,-29.59
16549,-34.65
16561,-40.31
16573,-46.39
16585,-52.35
16597,-57.24
16609,-59.9
16621,-59.28
16633,-54.75
16645,-46.35
16657,-34.84
16669,-21.47
16681,-7.73
16693,5.03
16705,15.85
16716,24.24
16727,30.11
16739,33.66
16751,35.16
16763,34.96
16775,33.4
16787,30.88
16799,27.91
16811,25.01
16823,22.61
16835,20.94
16847,19.96
16859,19.44
16871,19.12
16883,18.82
16895,18.56
16906,18.39
16917,18.28
16929,17.99
16941,17.08
16953,15.12
16965,11.86
16977,7.41
16989,2.2
17001,-3.15
17013,-8.1
17025,-12.36
17037,-15.99
17049,-19.37
17061,-23.05
17073,-27.6
17085,-33.32
17096,-40.16
17107,-47.51
17119,-54.3
17131,-59.21
17143,-60.94
17155,-58.62
17167,-51.98
17179,-41.52
17191,-28.35
17203,-13.89
17215,0.33
17227,13.03
17239,23.33
17251,30.8
17263,35.44
17275,37.57
17286,37.65
17297,36.18
17309,33.64
17321,30.5
17333,27.25
17345,24.32
17357,22.11
17369,20.82
17381,20.42
17393,20.61
17405,21.06
17417,21.42
17429,21.49
17441,21.16
17453,20.37
17465,19.01
17476,16.93
17487,14.03
17499,10.25
17511,5.67
17523,0.51
17535,-4.99
17547,-10.53
17559,-15.9
17571,-21.0
17583,-25.92
17595,-30.91
17607,-36.4
17619,-42.75
17631,-50.01
17643,-57.67
17655,-64.6
17666,-69.33
17677,-70.42
17689,-66.99
17701,-58.96
17713,-47.1
17725,-32.76
17737,-17.48
17749,-2.71
17761,10.47
17773,21.37
17785,29.7
17797,35.45
17809,38.76
17821,39.89
17833,39.17
17845,37.06
17856,34.09
17867,30.95
17879,28.27
17891,26.51
17903,25.85
17915,26.12
17927,26.92
17939,27.82
17951,28.46
17963,28.68
17975,28.43
17987,27.78
17999,26.77
18011,25.37
18023,23.48
18035,20.92
18046,17.51
18057,13.15
18069,7.95
18081,2.25
18093,-3.47
18105,-8.74
18117,-13.21
18129,-16.84
18141,-19.9
18153,-22.85
18165,-26.2
18177,-30.3
18189,-35.22
18201,-40.63
18213,-45.87
18225,-50.01
18236,-51.94
18247,-50.71
18259,-45.64
18271,-36.68
18283,-24.33
18295,-9.66
18307,6.02
18319,21.45
18331,35.63
18343,47.94
18355,57.98
18367,65.37
18379,69.64
18391,70.25
18403,66.84
18415,59.57
18426,49.29
18437,37.45
18449,25.77
18461,15.69
18473,8.08
18485,3.05
18497,0.21
18509,-1.04
18521,-1.17
18533,-0.5
18545,0.77
18557,2.36
18569,3.87
18581,4.82
18593,4.83
18605,3.73
18616,1.62
18627,-1.22
18639,-4.52
18651,-8.12
18663,-12.0
18675,-16.22
18687,-20.72
18699,-25.3
18711,-29.63
18723,-33.34
18735,-36.18
18747,-38.16
18759,-39.57
18771,-40.96
18783,-42.96
18795,-46.05
18806,-50.29
18817,-55.13
18829,-59.48
18841,-61.94
18853,-61.19
18865,-56.47
18877,-47.75
18889,-35.81
18901,-21.99
18913,-7.8
18925,5.45
18937,16.82
18949,25.87
18961,32.49
18973,36.81
18985,39.07
18996,39.55
19007,38.58
19019,36.56
19031,33.95
19043,31.27
19055,28.97
19067,27.32
19079,26.45
19091,26.26
19103,26.58
19115,27.21
19127,27.96
19139,28.61
19151,28.95
19163,28.8
19175,28.01
19186,26.56
19197,24.48
19209,21.86
19221,18.69
19233,14.92
19245,10.59
19257,5.8
19269,0.86
19281,-3.84
19293,-8.0
19305,-11.52
19317,-14.55
19329,-17.52
19341,-20.94
19353,-25.26
19365,-30.7
19376,-37.13
19387,-44.03
19399,-50.49
19411,-55.39
19423,-57.56
19435,-56.13
19447,-50.77
19459,-41.81
19471,-30.22
19483,-17.36
19495,-4.57
19507,7.06
19519,16.89
19531,24.65
19543,30.24
19555,33.67
19566,34.95
19577,34.23
19589,31.87
19601,28.55
19613,25.14
19625,22.41
19637,20.91
19649,20.72
19661,21.51
19673,22.75
19685,23.93
19697,24.69
19709,24.93
19721,24.69
19733,24.04
19745,22.99
19756,21.41
19767,19.05
19779,15.65
19791,11.11
19803,5.49
19815,-0.84
19827,-7.38
19839,-13.64
19851,-19.21
19863,-23.98
19875,-28.03
19887,-31.67
19899,-35.23
19911,-39.04
19923,-43.32
19935,-48.07
19946,-53.04
19957,-57.57
19969,-60.69
19981,-61.3
19993,-58.42
20005,-51.6
20017,-41.15
20029,-28.09
20041,-13.9
20053,-0.17
20065,11.8
20077,21.18
20089,27.65
20101,31.33
20113,32.56
20125,31.87
20136,29.83
20147,27.01
20159,23.96
20171,21.14
20183,18.95
20195,17.62
20207,17.29
20219,17.87
20231,19.18
20243,20.9
20255,22.63
20267,24.03
20279,24.8
20291,24.76
20303,23.83
20315,22.04
20326,19.47
20337,16.29
20349,12.69
20361,8.85
20373,4.91
20385,0.92
20397,-3.18
20409,-7.45
20421,-11.93
20433,-16.51
20445,-20.96
20457,-25.1
20469,-28.79
20481,-32.16
20493,-35.54
20505,-39.43
20516,-44.27
20527,-50.19
20539,-56.88
20551,-63.51
20563,-68.85
20575,-71.53
20587,-70.41
20599,-64.91
20611,-55.22
20623,-42.25
20635,-27.42
20647,-12.29
20659,1.78
20671,13.82
20683,23.38
20695,30.37
20706,35.0
20717,37.6
20729,38.58
20741,38.31
20753,37.21
20765,35.68
20777,34.16
20789,33.04
20801,32.56
20813,32.81
20825,33.64
20837,34.75
20849,35.82
20861,36.57
20873,36.9
20885,36.81
20896,36.31
20907,35.37
20919,33.82
20931,31.47
20943,28.2
20955,24.06
20967,19.38
20979,14.6
20991,10.1
