seconds,BVP
0,-31.77
12,-32.22
24,-31.02
36,-28.56
48,-25.34
60,-21.8
72,-18.21
84,-14.76
96,-11.69
108,-9.26
120,-7.72
132,-7.22
144,-7.72
156,-9.09
168,-11.17
179,-13.83
190,-17.03
202,-20.69
214,-24.59
226,-28.33
238,-31.29
250,-32.81
262,-32.34
274,-29.62
286,-24.75
298,-18.28
310,-11.02
322,-3.91
334,2.21
346,6.75
358,9.47
369,10.43
380,9.87
392,8.13
404,5.63
416,2.81
428,0.12
440,-2.02
452,-3.33
464,-3.73
476,-3.37
488,-2.62
500,-1.89
512,-1.55
524,-1.73
536,-2.41
548,-3.39
559,-4.51
570,-5.74
582,-7.24
594,-9.28
606,-12.1
618,-15.71
630,-19.79
642,-23.72
654,-26.69
666,-27.96
678,-27.08
690,-24.0
702,-19.1
714,-13.04
726,-6.54
738,-0.25
749,5.33
760,9.87
772,13.09
784,14.8
796,14.89
808,13.48
820,10.96
832,7.97
844,5.25
856,3.4
868,2.67
880,2.92
892,3.71
904,4.52
916,4.94
928,4.82
939,4.25
950,3.42
962,2.48
974,1.48
986,0.33
998,-1.09
1010,-2.91
1022,-5.21
1034,-8.02
1046,-11.26
1058,-14.74
1070,-18.08
1082,-20.73
1094,-22.01
1106,-21.38
1118,-18.56
1129,-13.73
1140,-7.5
1152,-0.74
1164,5.65
1176,10.99
1188,14.89
1200,17.26
1212,18.21
1224,17.93
1236,16.66
1248,14.66
1260,12.28
1272,9.9
1284,7.92
1296,6.62
1308,6.07
1319,6.09
1330,6.32
1342,6.42
1354,6.14
1366,5.46
1378,4.52
1390,3.47
1402,2.4
1414,1.25
1426,-0.11
1438,-1.86
1450,-4.12
1462,-6.91
1474,-10.17
1486,-13.7
1498,-17.2
1509,-20.23
1520,-22.23
1532,-22.7
1544,-21.28
1556,-17.96
1568,-13.08
1580,-7.29
1592,-1.34
1604,4.1
1616,8.56
1628,11.78
1640,13.68
1652,14.25
1664,13.53
1676,11.64
1688,8.89
1699,5.73
1710,2.78
1722,0.6
1734,-0.45
1746,-0.34
1758,0.61
1770,1.91
1782,3.07
1794,3.77
1806,3.96
1818,3.78
1830,3.46
1842,3.09
1854,2.62
1866,1.84
1878,0.55
1889,-1.35
1900,-3.79
1912,-6.55
1924,-9.45
1936,-12.3
1948,-14.97
1960,-17.23
1972,-18.69
1984,-18.86
1996,-17.37
2008,-14.08
2020,-9.33
2032,-3.78
2044,1.76
2056,6.55
2068,10.11
2079,12.27
2090,13.06
2102,12.63
2114,11.2
2126,9.07
2138,6.63
2150,4.35
2162,2.64
2174,1.78
2186,1.8
2198,2.52
2210,3.62
2222,4.74
2234,5.54
2246,5.84
2258,5.57
2269,4.79
2280,3.65
2292,2.3
2304,0.88
2316,-0.6
2328,-2.15
2340,-3.88
2352,-5.86
2364,-8.11
2376,-10.55
2388,-13.01
2400,-15.22
2412,-16.82
2424,-17.48
2436,-16.91
2448,-14.92
2459,-11.58
2470,-7.2
2482,-2.25
2494,2.68
2506,7.04
2518,10.4
2530,12.5
2542,13.23
2554,12.68
2566,11.05
2578,8.67
2590,5.96
2602,3.37
2614,1.3
2626,-0.01
2638,-0.45
2649,-0.19
2660,0.48
2672,1.22
2684,1.72
2696,1.76
2708,1.31
2720,0.42
2732,-0.82
2744,-2.26
2756,-3.82
2768,-5.45
2780,-7.13
2792,-8.89
2804,-10.82
2816,-12.97
2828,-15.36
2839,-17.83
2850,-20.05
2862,-21.49
2874,-21.59
2886,-19.98
2898,-16.59
2910,-11.76
2922,-6.1
2934,-0.34
2946,4.88
2958,9.08
2970,12.02
2982,13.64
2994,14.03
3006,13.35
3018,11.86
3029,9.83
3040,7.53
3052,5.28
3064,3.37
3076,2.04
3088,1.48
3100,1.68
3112,2.43
3124,3.35
3136,4.03
3148,4.15
3160,3.61
3172,2.54
3184,1.15
3196,-0.35
3208,-1.87
3219,-3.4
3230,-4.99
3242,-6.69
3254,-8.54
3266,-10.6
3278,-12.91
3290,-15.43
3302,-17.95
3314,-20.06
3326,-21.23
3338,-20.93
3350,-18.85
3362,-15.06
3374,-9.99
3386,-4.3
3398,1.31
3409,6.28
3420,10.25
3432,13.04
3444,14.57
3456,14.86
3468,13.99
3480,12.2
3492,9.85
3504,7.41
3516,5.33
3528,3.92
3540,3.31
3552,3.37
3564,3.86
3576,4.5
3588,4.99
3599,5.2
3610,5.04
3622,4.52
3634,3.71
3646,2.68
3658,1.47
3670,0.11
3682,-1.4
3694,-3.04
3706,-4.76
3718,-6.52
3730,-8.38
3742,-10.46
3754,-12.95
3766,-15.82
3778,-18.79
3789,-21.24
3800,-22.36
3812,-21.48
3824,-18.38
3836,-13.35
3848,-7.18
3860,-0.82
3872,4.91
3884,9.46
3896,12.64
3908,14.48
3920,15.09
3932,14.6
3944,13.17
3956,11.03
3968,8.48
3979,5.86
3990,3.54
4002,1.81
4014,0.86
4026,0.71
4038,1.25
4050,2.2
4062,3.23
4074,4.0
4086,4.26
4098,3.91
4110,2.97
4122,1.62
4134,0.05
4146,-1.6
4158,-3.22
4169,-4.85
4180,-6.55
4192,-8.41
4204,-10.48
4216,-12.75
4228,-15.13
4240,-17.4
4252,-19.26
4264,-20.28
4276,-20.01
4288,-18.16
4300,-14.63
4312,-9.68
4324,-3.86
4336,2.12
4348,7.56
4359,11.89
4370,14.79
4382,16.13
4394,15.97
4406,14.47
4418,11.91
4430,8.7
4442,5.38
4454,2.55
4466,0.69
4478,-0.01
4490,0.34
4502,1.34
4514,2.53
4526,3.5
4538,4.06
4549,4.17
4560,3.89
4572,3.28
4584,2.39
4596,1.27
4608,-0.03
4620,-1.44
4632,-2.95
4644,-4.62
4656,-6.59
4668,-8.98
4680,-11.8
4692,-14.88
4704,-17.86
4716,-20.23
4728,-21.46
4739,-21.12
4750,-18.97
4762,-15.06
4774,-9.79
4786,-3.78
4798,2.18
4810,7.4
4822,11.36
4834,13.84
4846,14.79
4858,14.4
4870,12.86
4882,10.49
4894,7.62
4906,4.63
4918,1.95
4929,-0.09
4940,-1.28
4952,-1.6
4964,-1.23
4976,-0.5
4988,0.29
5000,0.87
5012,1.04
5024,0.74
5036,-0.07
5048,-1.33
5060,-2.93
5072,-4.73
5084,-6.61
5096,-8.53
5108,-10.55
5119,-12.81
5130,-15.46
5142,-18.49
5154,-21.65
5166,-24.39
5178,-25.99
5190,-25.79
5202,-23.35
5214,-18.68
5226,-12.22
5238,-4.74
5250,2.85
5262,9.72
5274,15.23
5286,18.98
5298,20.78
5309,20.66
5320,18.8
5332,15.61
5344,11.61
5356,7.44
5368,3.7
5380,0.83
5392,-0.94
5404,-1.62
5416,-1.39
5428,-0.55
5440,0.53
5452,1.49
5464,2.01
5476,1.9
5488,1.14
5499,-0.14
5510,-1.7
5522,-3.34
5534,-4.94
5546,-6.55
5558,-8.32
5570,-10.43
5582,-13.0
5594,-16.06
5606,-19.44
5618,-22.81
5630,-25.61
5642,-27.17
5654,-26.83
5666,-24.23
5678,-19.42
5689,-12.93
5700,-5.57
5712,1.76
5724,8.35
5736,13.71
5748,17.52
5760,19.61
5772,19.91
5784,18.53
5796,15.85
5808,12.46
5820,9.02
5832,6.14
5844,4.19
5856,3.27
5868,3.26
5879,3.86
5890,4.75
5902,5.59
5914,6.12
5926,6.14
5938,5.63
5950,4.67
5962,3.41
5974,1.99
5986,0.42
5998,-1.38
6010,-3.56
6022,-6.22
6034,-9.41
6046,-13.03
6058,-16.91
6069,-20.76
6080,-24.12
6092,-26.42
6104,-27.01
6116,-25.41
6128,-21.45
6140,-15.41
6152,-7.93
6164,0.04
6176,7.61
6188,14.05
6200,18.9
6212,21.97
6224,23.27
6236,22.96
6248,21.31
6259,18.7
6270,15.62
6282,12.61
6294,10.14
6306,8.55
6318,7.93
6330,8.14
6342,8.85
6354,9.66
6366,10.25
6378,10.45
6390,10.27
6402,9.79
6414,9.07
6426,8.06
6438,6.63
6449,4.66
6460,2.16
6472,-0.7
6484,-3.71
6496,-6.72
6508,-9.7
6520,-12.74
6532,-15.81
6544,-18.65
6556,-20.67
6568,-21.16
6580,-19.49
6592,-15.49
6604,-9.47
6616,-2.19
6628,5.42
6639,12.49
6650,18.34
6662,22.56
6674,24.95
6686,25.45
6698,24.22
6710,21.56
6722,17.99
6734,14.18
6746,10.76
6758,8.29
6770,7.03
6782,6.99
6794,7.87
6806,9.18
6818,10.4
6829,11.12
6840,11.14
6852,10.51
6864,9.43
6876,8.1
6888,6.63
6900,4.99
6912,3.1
6924,0.91
6936,-1.56
6948,-4.28
6960,-7.23
6972,-10.4
6984,-13.69
6996,-16.8
7008,-19.15
7019,-20.02
7030,-18.8
7042,-15.29
7054,-9.79
7066,-3.08
7078,3.9
7090,10.27
7102,15.48
7114,19.23
7126,21.43
7138,22.11
7150,21.35
7162,19.32
7174,16.39
7186,13.04
7198,9.84
7209,7.27
7220,5.62
7232,4.92
7244,4.96
7256,5.37
7268,5.79
7280,6.0
7292,5.92
7304,5.62
7316,5.18
7328,4.6
7340,3.8
7352,2.63
7364,1.0
7376,-1.13
7388,-3.72
7399,-6.67
7410,-9.95
7422,-13.45
7434,-16.95
7446,-20.02
7458,-22.01
7470,-22.25
7482,-20.3
7494,-16.13
7506,-10.22
7518,-3.4
7530,3.39
7542,9.33
7554,13.88
7566,16.78
7578,17.98
7589,17.58
7600,15.75
7612,12.82
7624,9.25
7636,5.6
7648,2.44
7660,0.17
7672,-1.02
7684,-1.23
7696,-0.75
7708,0.04
7720,0.79
7732,1.26
7744,1.36
7756,1.1
7768,0.54
7779,-0.29
7790,-1.41
7802,-2.92
7814,-4.93
7826,-7.52
7838,-10.66
7850,-14.18
7862,-17.71
7874,-20.77
7886,-22.79
7898,-23.3
7910,-21.95
7922,-18.68
7934,-13.73
7946,-7.6
7958,-1.01
7969,5.31
7980,10.71
7992,14.72
8004,17.09
8016,17.73
8028,16.75
8040,14.39
8052,11.1
8064,7.46
8076,4.06
8088,1.4
8100,-0.28
8112,-0.98
8124,-0.95
8136,-0.5
8148,0.07
8159,0.5
8170,0.63
8182,0.36
8194,-0.36
8206,-1.49
8218,-2.96
8230,-4.68
8242,-6.63
8254,-8.85
8266,-11.41
8278,-14.35
8290,-17.56
8302,-20.68
8314,-23.17
8326,-24.42
8338,-23.86
8349,-21.17
8360,-16.42
8372,-10.11
8384,-2.99
8396,4.01
8408,10.08
8420,14.67
8432,17.5
8444,18.58
8456,18.09
8468,16.35
8480,13.74
8492,10.74
8504,7.83
8516,5.49
8528,4.04
8539,3.58
8550,3.96
8562,4.77
8574,5.6
8586,6.09
8598,6.06
8610,5.52
8622,4.58
8634,3.37
8646,1.95
8658,0.31
8670,-1.66
8682,-4.06
8694,-7.01
8706,-10.49
8718,-14.34
8729,-18.13
8740,-21.29
8752,-23.13
8764,-23.11
8776,-21.0
8788,-16.95
8800,-11.43
8812,-5.07
8824,1.44
8836,7.55
8848,12.79
8860,16.81
8872,19.31
8884,20.12
8896,19.26
8908,16.99
8919,13.79
8930,10.29
8942,7.12
8954,4.73
8966,3.4
8978,3.11
8990,3.69
9002,4.79
9014,5.98
9026,6.85
9038,7.06
9050,6.47
9062,5.15
9074,3.33
9086,1.26
9098,-0.86
9109,-3.04
9120,-5.41
9132,-8.13
9144,-11.31
9156,-14.82
9168,-18.34
9180,-21.35
9192,-23.24
9204,-23.43
9216,-21.55
9228,-17.52
9240,-11.66
9252,-4.65
9264,2.61
9276,9.23
9288,14.5
9299,18.05
9310,19.79
9322,19.86
9334,18.5
9346,16.07
9358,12.97
9370,9.7
9382,6.83
9394,4.89
9406,4.16
9418,4.6
9430,5.81
9442,7.17
9454,8.08
9466,8.18
9478,7.49
9489,6.3
9500,5.03
9512,3.92
9524,2.99
9536,2.01
9548,0.65
9560,-1.28
9572,-3.81
9584,-6.8
9596,-10.07
9608,-13.44
9620,-16.71
9632,-19.54
9644,-21.44
9656,-21.77
9668,-20.04
9679,-16.07
9690,-10.17
9702,-3.08
9714,4.23
9726,10.85
9738,16.09
9750,19.6
9762,21.3
9774,21.32
9786,19.93
9798,17.5
9810,14.53
9822,11.53
9834,9.01
9846,7.32
9858,6.63
9869,6.84
9880,7.64
9892,8.63
9904,9.41
9916,9.72
9928,9.51
9940,8.86
9952,7.93
9964,6.83
9976,5.56
9988,4.01
10000,2.08
10012,-0.27
10024,-2.96
10036,-5.86
10048,-8.83
10059,-11.78
10070,-14.62
10082,-17.16
10094,-19.01
10106,-19.64
10118,-18.56
10130,-15.52
10142,-10.69
10154,-4.62
10166,1.87
10178,7.96
10190,13.01
10202,16.64
10214,18.73
10226,19.3
10238,18.46
10249,16.46
10260,13.65
10272,10.49
10284,7.51
10296,5.16
10308,3.69
10320,3.13
10332,3.26
10344,3.75
10356,4.25
10368,4.48
10380,4.27
10392,3.58
10404,2.45
10416,0.95
10428,-0.8
10439,-2.7
10450,-4.7
10462,-6.75
10474,-8.91
10486,-11.31
10498,-14.04
10510,-17.05
10522,-20.12
10534,-22.75
10546,-24.35
10558,-24.36
10570,-22.43
10582,-18.56
10594,-13.1
10606,-6.62
10618,0.13
10629,6.45
10640,11.72
10652,15.45
10664,17.34
10676,17.33
10688,15.61
10700,12.61
10712,8.98
10724,5.42
10736,2.52
10748,0.65
10760,-0.07
10772,0.19
10784,1.08
10796,2.19
10808,3.14
10819,3.68
10830,3.72
10842,3.35
10854,2.72
10866,1.94
10878,1.04
10890,-0.04
10902,-1.51
10914,-3.52
10926,-6.18
10938,-9.49
10950,-13.29
10962,-17.29
10974,-21.04
10986,-23.93
10998,-25.28
11009,-24.5
11020,-21.37
11032,-16.09
11044,-9.36
11056,-2.13
11068,4.64
11080,10.26
11092,14.42
11104,17.12
11116,18.53
11128,18.79
11140,18.03
11152,16.37
11164,14.04
11176,11.38
11188,8.84
11199,6.86
11210,5.7
11222,5.47
11234,6.01
11246,7.0
11258,8.04
11270,8.72
11282,8.77
11294,8.05
11306,6.66
11318,4.82
11330,2.81
11342,0.84
11354,-1.05
11366,-2.99
11378,-5.19
11389,-7.82
11400,-10.96
11412,-14.5
11424,-18.18
11436,-21.52
11448,-23.95
11460,-24.85
11472,-23.69
11484,-20.25
11496,-14.72
11508,-7.68
11520,-0.05
11532,7.18
11544,13.21
11556,17.51
11568,19.95
11579,20.7
11590,20.06
11602,18.39
11614,16.09
11626,13.52
11638,11.02
11650,8.89
11662,7.37
11674,6.57
11686,6.49
11698,6.97
11710,7.74
11722,8.52
11734,9.06
11746,9.23
11758,8.95
11769,8.23
11780,7.07
11792,5.46
11804,3.45
11816,1.12
11828,-1.4
11840,-3.93
11852,-6.38
11864,-8.78
11876,-11.26
11888,-14.0
11900,-17.03
11912,-20.12
11924,-22.73
11936,-24.16
11948,-23.73
11959,-21.08
11970,-16.31
11982,-9.97
11994,-2.92
12006,3.94
12018,9.84
12030,14.32
12042,17.21
12054,18.52
12066,18.43
12078,17.14
12090,14.92
12102,12.12
12114,9.17
12126,6.56
12138,4.7
12149,3.86
12160,4.06
12172,5.07
12184,6.49
12196,7.87
12208,8.85
12220,9.18
12232,8.77
12244,7.66
12256,6.01
12268,4.02
12280,1.92
12292,-0.14
12304,-2.09
12316,-3.99
12328,-5.96
12339,-8.1
12350,-10.45
12362,-13.05
12374,-15.89
12386,-18.85
12398,-21.71
12410,-23.98
12422,-25.02
12434,-24.19
12446,-21.09
12458,-15.8
12470,-8.92
12482,-1.42
12494,5.66
12506,11.5
12518,15.62
12529,17.91
12540,18.5
12552,17.66
12564,15.72
12576,13.08
12588,10.15
12600,7.35
12612,5.08
12624,3.61
12636,3.04
12648,3.32
12660,4.21
12672,5.36
12684,6.42
12696,7.08
12708,7.18
12719,6.7
12730,5.76
12742,4.45
12754,2.86
12766,1.03
12778,-1.02
12790,-3.25
12802,-5.55
12814,-7.85
12826,-10.18
12838,-12.68
12850,-15.52
12862,-18.72
12874,-21.98
12886,-24.65
12898,-25.94
12909,-25.17
12920,-22.05
12932,-16.86
12944,-10.31
12956,-3.36
12968,3.07
12980,8.3
12992,11.98
13004,14.03
13016,14.55
13028,13.77
13040,11.96
13052,9.44
13064,6.61
13076,3.86
13088,1.58
13099,0.05
13110,-0.57
13122,-0.36
13134,0.44
13146,1.45
13158,2.29
13170,2.68
13182,2.47
13194,1.7
13206,0.5
13218,-0.94
13230,-2.51
13242,-4.13
13254,-5.82
13266,-7.62
13278,-9.62
13289,-11.85
13300,-14.37
13312,-17.2
13324,-20.25
13336,-23.29
13348,-25.85
13360,-27.29
13372,-26.95
13384,-24.41
13396,-19.63
13408,-13.11
13420,-5.71
13432,1.6
13444,7.99
13456,12.96
13468,16.32
13479,18.07
13490,18.3
13502,17.16
13514,14.9
13526,11.92
13538,8.69
13550,5.74
13562,3.44
13574,2.0
13586,1.43
13598,1.61
13610,2.3
13622,3.23
13634,4.09
13646,4.58
13658,4.49
13669,3.73
13680,2.38
13692,0.61
13704,-1.43
13716,-3.63
13728,-5.99
13740,-8.54
13752,-11.29
13764,-14.25
13776,-17.41
13788,-20.74
13800,-24.1
13812,-27.17
13824,-29.43
13836,-30.19
13848,-28.82
13859,-25.04
13870,-19.05
13882,-11.57
13894,-3.58
13906,3.94
13918,10.31
13930,15.14
13942,18.37
13954,20.02
13966,20.16
13978,18.9
13990,16.46
14002,13.22
14014,9.71
14026,6.53
14038,4.17
14049,2.9
14060,2.71
14072,3.28
14084,4.17
14096,4.93
14108,5.27
14120,5.08
14132,4.48
14144,3.65
14156,2.7
14168,1.62
14180,0.27
14192,-1.53
14204,-3.86
14216,-6.71
14228,-9.97
14239,-13.48
14250,-17.14
14262,-20.76
14274,-24.0
14286,-26.33
14298,-27.1
14310,-25.74
14322,-22.01
14334,-16.13
14346,-8.73
14358,-0.72
14370,7.03
14382,13.76
14394,18.94
14406,22.25
14418,23.51
14429,22.77
14440,20.32
14452,16.77
14464,12.94
14476,9.63
14488,7.38
14500,6.36
14512,6.37
14524,6.98
14536,7.82
14548,8.62
14560,9.3
14572,9.8
14584,9.98
14596,9.69
14608,8.75
14619,7.15
14630,5.02
14642,2.64
14654,0.21
14666,-2.22
14678,-4.8
14690,-7.75
14702,-11.24
14714,-15.2
14726,-19.24
14738,-22.72
14750,-24.89
14762,-25.12
14774,-23.02
14786,-18.62
14798,-12.33
14809,-4.85
14820,2.99
14832,10.39
14844,16.65
14856,21.27
14868,23.95
14880,24.62
14892,23.41
14904,20.71
14916,17.09
14928,13.24
14940,9.82
14952,7.37
14964,6.11
14976,5.98
14988,6.68
14999,7.75
15010,8.75
15022,9.3
15034,9.24
15046,8.59
15058,7.49
15070,6.15
15082,4.73
15094,3.28
15106,1.69
15118,-0.2
15130,-2.56
15142,-5.52
15154,-9.08
15166,-13.09
15178,-17.17
15189,-20.78
15200,-23.24
15212,-23.91
15224,-22.35
15236,-18.52
15248,-12.73
15260,-5.68
15272,1.79
15284,8.84
15296,14.74
15308,18.96
15320,21.16
15332,21.29
15344,19.51
15356,16.24
15368,12.12
15379,7.86
15390,4.1
15402,1.3
15414,-0.32
15426,-0.77
15438,-0.27
15450,0.82
15462,2.12
15474,3.24
15486,3.86
15498,3.8
15510,3.04
15522,1.69
15534,-0.1
15546,-2.14
15558,-4.39
15569,-6.88
15580,-9.78
15592,-13.22
15604,-17.23
15616,-21.52
15628,-25.5
15640,-28.42
15652,-29.49
15664,-28.21
15676,-24.5
15688,-18.71
15700,-11.54
15712,-3.85
15724,3.54
15736,9.91
15748,14.74
15759,17.67
15770,18.59
15782,17.59
15794,15.02
15806,11.46
15818,7.56
15830,4.01
15842,1.3
15854,-0.28
15866,-0.7
15878,-0.17
15890,0.89
15902,2.03
15914,2.83
15926,3.05
15938,2.66
15949,1.77
15960,0.54
15972,-0.93
15984,-2.68
15996,-4.81
16008,-7.48
16020,-10.77
16032,-14.64
16044,-18.88
16056,-23.08
16068,-26.62
16080,-28.75
16092,-28.82
16104,-26.42
16116,-21.6
16128,-14.83
16139,-6.91
16150,1.3
16162,9.03
16174,15.71
16186,20.95
16198,24.45
16210,26.01
16222,25.6
16234,23.4
16246,19.94
16258,15.93
16270,12.12
16282,9.17
16294,7.41
16306,6.84
16318,7.14
16329,7.79
16340,8.24
16352,8.14
16364,7.4
16376,6.18
16388,4.71
16400,3.16
16412,1.54
16424,-0.3
16436,-2.5
16448,-5.12
16460,-8.07
16472,-11.23
16484,-14.5
16496,-17.74
16508,-20.68
16519,-22.81
16530,-23.43
16542,-21.86
16554,-17.77
16566,-11.38
16578,-3.52
16590,4.72
16602,12.3
16614,18.49
16626,23.02
16638,25.89
16650,27.16
16662,26.94
16674,25.31
16686,22.51
16698,18.99
16709,15.42
16720,12.47
16732,10.63
16744,10.03
16756,10.42
16768,11.33
16780,12.25
16792,12.8
16804,12.8
16816,12.23
16828,11.15
16840,9.66
16852,7.85
16864,5.79
16876,3.47
16888,0.87
16899,-2.13
16910,-5.6
16922,-9.51
16934,-13.64
16946,-17.49
16958,-20.4
16970,-21.72
16982,-20.97
16994,-17.95
17006,-12.84
17018,-6.17
17030,1.33
17042,8.8
17054,15.39
17066,20.42
17078,23.43
17089,24.26
17100,23.05
17112,20.18
17124,16.24
17136,11.93
17148,8.0
17160,5.05
17172,3.44
17184,3.19
17196,3.96
17208,5.2
17220,6.3
17232,6.79
17244,6.48
17256,5.41
17268,3.82
17279,1.98
17290,0.1
17302,-1.73
17314,-3.58
17326,-5.68
17338,-8.31
17350,-11.66
17362,-15.71
17374,-20.14
17386,-24.28
17398,-27.3
17410,-28.47
17422,-27.32
17434,-23.81
17446,-18.32
17458,-11.52
17469,-4.2
17480,2.88
17492,9.02
17504,13.68
17516,16.51
17528,17.37
17540,16.34
17552,13.81
17564,10.36
17576,6.67
17588,3.42
17600,1.06
17612,-0.18
17624,-0.38
17636,0.16
17648,1.03
17659,1.85
17670,2.4
17682,2.61
17694,2.54
17706,2.28
17718,1.77
17730,0.86
17742,-0.7
17754,-3.1
17766,-6.41
17778,-10.46
17790,-14.92
17802,-19.29
17814,-22.91
17826,-25.14
17838,-25.36
17849,-23.19
17860,-18.66
17872,-12.26
17884,-4.88
17896,2.44
17908,8.81
17920,13.66
17932,16.79
17944,18.22
17956,18.1
17968,16.56
17980,13.84
17992,10.29
18004,6.5
18016,3.13
18028,0.76
18039,-0.37
18050,-0.41
18062,0.15
18074,0.74
18086,0.98
18098,0.74
18110,0.16
18122,-0.54
18134,-1.22
18146,-1.96
18158,-2.97
18170,-4.56
18182,-6.97
18194,-10.27
18206,-14.32
18218,-18.74
18229,-22.91
18240,-26.06
18252,-27.39
18264,-26.36
18276,-22.82
18288,-17.08
18300,-9.83
18312,-1.93
18324,5.83
18336,12.79
18348,18.43
18360,22.38
18372,24.33
18384,24.22
18396,22.26
18408,19.0
18419,15.22
18430,11.73
18442,9.13
18454,7.66
18466,7.22
18478,7.51
18490,8.14
18502,8.74
18514,9.05
18526,8.89
18538,8.19
18550,6.96
18562,5.32
18574,3.4
18586,1.26
18598,-1.1
18609,-3.84
18620,-7.12
18632,-10.99
18644,-15.24
18656,-19.31
18668,-22.42
18680,-23.71
18692,-22.55
18704,-18.76
18716,-12.65
18728,-4.97
18740,3.35
18752,11.34
18764,18.23
18776,23.46
18788,26.67
18799,27.76
18810,26.85
18822,24.28
18834,20.64
18846,16.65
18858,13.0
18870,10.25
18882,8.62
18894,8.01
18906,8.06
18918,8.28
18930,8.29
18942,7.84
18954,6.92
18966,5.66
18978,4.22
18989,2.74
19000,1.2
19012,-0.52
19024,-2.58
19036,-5.19
19048,-8.44
19060,-12.3
19072,-16.51
19084,-20.58
19096,-23.83
19108,-25.54
19120,-25.14
19132,-22.36
19144,-17.35
19156,-10.63
19168,-3.0
19179,4.67
19190,11.56
19202,17.07
19214,20.8
19226,22.62
19238,22.66
19250,21.22
19262,18.74
19274,15.79
19286,12.91
19298,10.59
19310,9.12
19322,8.56
19334,8.66
19346,9.05
19358,9.34
19369,9.28
19380,8.78
19392,7.97
19404,6.99
19416,5.95
19428,4.83
19440,3.48
19452,1.66
19464,-0.85
19476,-4.13
19488,-8.11
19500,-12.47
19512,-16.7
19524,-20.12
19536,-22.01
19548,-21.8
19559,-19.28
19570,-14.63
19582,-8.45
19594,-1.54
19606,5.26
19618,11.27
19630,16.03
19642,19.27
19654,20.86
19666,20.79
19678,19.13
19690,16.16
19702,12.34
19714,8.29
19726,4.67
19738,1.99
19749,0.49
19760,0.07
19772,0.4
19784,1.0
19796,1.49
19808,1.61
19820,1.31
19832,0.67
19844,-0.18
19856,-1.17
19868,-2.34
19880,-3.79
19892,-5.68
19904,-8.13
19916,-11.12
19928,-14.5
19939,-17.88
19950,-20.68
19962,-22.24
19974,-22.04
19986,-19.81
19998,-15.68
20010,-10.08
20022,-3.66
20034,2.84
20046,8.72
20058,13.35
20070,16.25
20082,17.18
20094,16.15
20106,13.57
20118,10.07
20129,6.41
20140,3.25
20152,0.99
20164,-0.26
20176,-0.68
20188,-0.54
20200,-0.17
20212,0.19
20224,0.36
20236,0.25
20248,-0.19
20260,-0.96
20272,-2.03
20284,-3.37
20296,-4.99
20308,-6.94
20319,-9.36
20330,-12.38
20342,-15.99
20354,-19.92
20366,-23.58
20378,-26.14
20390,-26.76
20402,-24.94
20414,-20.69
20426,-14.51
20438,-7.29
20450,0.02
20462,6.63
20474,12.0
20486,15.83
20498,17.97
20509,18.38
20520,17.17
20532,14.62
20544,11.24
20556,7.65
20568,4.47
20580,2.17
20592,0.92
20604,0.64
20616,1.03
20628,1.7
20640,2.32
20652,2.63
20664,2.51
20676,1.93
20688,1.0
20699,-0.16
20710,-1.48
20722,-2.91
20734,-4.58
20746,-6.68
20758,-9.43
20770,-12.85
20782,-16.64
20794,-20.21
20806,-22.74
20818,-23.46
20830,-21.96
20842,-18.26
20854,-12.82
20866,-6.38
20878,0.28
20889,6.54
20900,11.95
20912,16.23
20924,19.14
20936,20.49
20948,20.16
20960,18.23
20972,15.05
20984,11.2
20996,7.43
