seconds,BVP
9,-0.74
21,-0.45
32,-0.31
43,-0.49
55,-1.03
67,-1.82
79,-2.65
91,-3.35
103,-3.9
115,-4.42
127,-5.13
139,-6.17
151,-7.54
163,-9.1
175,-10.65
187,-12.04
199,-13.21
211,-14.16
222,-14.83
233,-15.12
245,-14.85
257,-13.91
269,-12.26
281,-10.06
293,-7.53
305,-4.86
317,-2.16
329,0.56
341,3.34
353,6.12
365,8.68
377,10.71
389,11.88
401,12.06
412,11.33
423,9.99
435,8.4
447,6.86
459,5.49
471,4.28
483,3.16
495,2.04
507,0.85
519,-0.46
531,-1.95
543,-3.68
555,-5.62
567,-7.68
579,-9.59
591,-11.03
602,-11.61
613,-11.08
625,-9.37
637,-6.66
649,-3.3
661,0.25
673,3.56
685,6.4
697,8.72
709,10.63
721,12.25
733,13.61
745,14.6
757,14.99
769,14.63
781,13.51
792,11.87
803,10.04
815,8.33
827,6.91
839,5.74
851,4.66
863,3.51
875,2.24
887,0.89
899,-0.44
911,-1.65
923,-2.69
935,-3.51
947,-4.08
959,-4.31
971,-4.05
982,-3.2
993,-1.7
1005,0.38
1017,2.92
1029,5.76
1041,8.69
1053,11.57
1065,14.22
1077,16.5
1089,18.3
1101,19.53
1113,20.13
1125,20.11
1137,19.56
1149,18.61
1161,17.44
1172,16.22
1183,15.05
1195,13.94
1207,12.86
1219,11.74
1231,10.54
1243,9.27
1255,7.94
1267,6.57
1279,5.13
1291,3.58
1303,1.93
1315,0.26
1327,-1.21
1339,-2.24
1351,-2.56
1362,-2.07
1373,-0.78
1385,1.13
1397,3.4
1409,5.74
1421,7.85
1433,9.55
1445,10.76
1457,11.5
1469,11.9
1481,12.07
1493,12.06
1505,11.82
1517,11.18
1529,10.04
1541,8.42
1552,6.52
1563,4.67
1575,3.1
1587,1.9
1599,0.92
1611,-0.06
1623,-1.24
1635,-2.69
1647,-4.39
1659,-6.22
1671,-8.11
1683,-9.95
1695,-11.6
1707,-12.83
1719,-13.35
1731,-13.0
1742,-11.79
1753,-9.98
1765,-7.93
1777,-5.98
1789,-4.28
1801,-2.79
1813,-1.43
1825,-0.09
1837,1.18
1849,2.29
1861,3.12
1873,3.57
1885,3.62
1897,3.28
1909,2.59
1921,1.58
1932,0.35
1943,-1.02
1955,-2.35
1967,-3.58
1979,-4.68
1991,-5.73
2003,-6.89
2015,-8.32
2027,-10.15
2039,-12.36
2051,-14.76
2063,-16.93
2075,-18.33
2087,-18.47
2099,-17.08
2111,-14.25
2122,-10.42
2133,-6.24
2145,-2.25
2157,1.22
2169,4.18
2181,6.79
2193,9.19
2205,11.4
2217,13.26
2229,14.55
2241,15.11
2253,14.9
2265,14.01
2277,12.58
2289,10.83
2301,8.91
2312,6.99
2323,5.19
2335,3.61
2347,2.25
2359,1.03
2371,-0.23
2383,-1.72
2395,-3.55
2407,-5.66
2419,-7.79
2431,-9.58
2443,-10.64
2455,-10.68
2467,-9.64
2479,-7.66
2491,-5.02
2502,-2.1
2513,0.73
2525,3.2
2537,5.14
2549,6.53
2561,7.49
2573,8.13
2585,8.53
2597,8.67
2609,8.46
2621,7.84
2633,6.89
2645,5.76
2657,4.64
2669,3.65
2681,2.76
2692,1.88
2703,0.89
2715,-0.27
2727,-1.56
2739,-2.94
2751,-4.35
2763,-5.75
2775,-7.1
2787,-8.32
2799,-9.25
2811,-9.69
2823,-9.48
2835,-8.53
2847,-6.85
2859,-4.56
2871,-1.86
2882,0.96
2893,3.64
2905,6.01
2917,8.01
2929,9.65
2941,10.98
2953,12.0
2965,12.7
2977,13.02
2989,13.0
3001,12.74
3013,12.39
3025,12.1
3037,11.93
3049,11.9
3061,11.96
3072,12.07
3083,12.25
3095,12.47
3107,12.68
3119,12.78
3131,12.63
3143,12.21
3155,11.64
3167,11.18
3179,11.11
3191,11.57
3203,12.52
3215,13.74
3227,15.0
3239,16.21
3251,17.44
3262,18.81
3273,20.39
3285,22.05
3297,23.45
3309,24.18
3321,23.95
3333,22.65
3345,20.42
3357,17.58
3369,14.46
3381,11.33
3393,8.38
3405,5.67
3417,3.26
3429,1.2
3441,-0.37
3452,-1.39
3463,-1.85
3475,-1.97
3487,-2.08
3499,-2.54
3511,-3.58
3523,-5.11
3535,-6.8
3547,-8.17
3559,-8.84
3571,-8.66
3583,-7.77
3595,-6.5
3607,-5.2
3619,-4.15
3631,-3.42
3642,-2.99
3653,-2.75
3665,-2.65
3677,-2.66
3689,-2.84
3701,-3.24
3713,-3.88
3725,-4.7
3737,-5.6
3749,-6.49
3761,-7.33
3773,-8.15
3785,-9.01
3797,-9.91
3809,-10.81
3821,-11.56
3832,-12.03
3843,-12.21
3855,-12.17
3867,-12.09
3879,-12.11
3891,-12.33
3903,-12.66
3915,-12.98
3927,-13.12
3939,-12.94
3951,-12.41
3963,-11.56
3975,-10.45
3987,-9.11
3999,-7.56
4011,-5.84
4022,-4.01
4033,-2.23
4045,-0.67
4057,0.49
4069,1.15
4081,1.33
4093,1.13
4105,0.73
4117,0.27
4129,-0.16
4141,-0.55
4153,-0.95
4165,-1.44
4177,-2.08
4189,-2.91
4201,-3.93
4212,-5.12
4223,-6.45
4235,-7.93
4247,-9.52
4259,-11.09
4271,-12.42
4283,-13.23
4295,-13.27
4307,-12.41
4319,-10.74
4331,-8.52
4343,-6.07
4355,-3.68
4367,-1.5
4379,0.38
4391,1.91
4402,2.98
4413,3.47
4425,3.27
4437,2.41
4449,1.04
4461,-0.57
4473,-2.12
4485,-3.46
4497,-4.55
4509,-5.47
4521,-6.32
4533,-7.18
4545,-8.08
4557,-9.02
4569,-10.0
4581,-11.0
4592,-11.96
4603,-12.73
4615,-13.17
4627,-13.07
4639,-12.37
4651,-11.09
4663,-9.4
4675,-7.48
4687,-5.5
4699,-3.52
4711,-1.56
4723,0.4
4735,2.31
4747,4.08
4759,5.54
4771,6.5
4782,6.81
4793,6.44
4805,5.46
4817,4.07
4829,2.53
4841,1.11
4853,0.0
4865,-0.69
4877,-0.97
4889,-1.0
4901,-0.96
4913,-1.08
4925,-1.49
4937,-2.17
4949,-2.97
4961,-3.61
4972,-3.84
4983,-3.47
4995,-2.49
5007,-0.95
5019,0.94
5031,3.02
5043,5.11
5055,7.09
5067,8.86
5079,10.42
5091,11.72
5103,12.71
5115,13.33
5127,13.5
5139,13.12
5151,12.2
5162,10.83
5173,9.18
5185,7.49
5197,5.97
5209,4.75
5221,3.85
5233,3.24
5245,2.8
5257,2.43
5269,2.04
5281,1.57
5293,1.04
5305,0.5
5317,0.03
5329,-0.3
5341,-0.41
5352,-0.21
5363,0.42
5375,1.57
5387,3.19
5399,5.08
5411,6.9
5423,8.29
5435,9.03
5447,9.11
5459,8.75
5471,8.26
5483,7.85
5495,7.58
5507,7.34
5519,6.98
5531,6.47
5542,5.85
5553,5.24
5565,4.7
5577,4.25
5589,3.83
5601,3.34
5613,2.76
5625,2.08
5637,1.33
5649,0.55
5661,-0.21
5673,-0.92
5685,-1.49
5697,-1.87
5709,-2.0
5721,-1.85
5732,-1.41
5743,-0.68
5755,0.34
5767,1.58
5779,2.87
5791,4.09
5803,5.08
5815,5.79
5827,6.21
5839,6.35
5851,6.21
5863,5.74
5875,4.99
5887,4.07
5899,3.19
5911,2.53
5922,2.12
5933,1.82
5945,1.41
5957,0.7
5969,-0.3
5981,-1.44
5993,-2.52
6005,-3.43
6017,-4.15
6029,-4.75
6041,-5.25
6053,-5.62
6065,-5.8
6077,-5.75
6089,-5.48
6101,-5.07
6112,-4.52
6123,-3.75
6135,-2.65
6147,-1.2
6159,0.47
6171,2.03
6183,3.14
6195,3.6
6207,3.41
6219,2.87
6231,2.32
6243,2.04
6255,2.1
6267,2.36
6279,2.59
6291,2.62
6302,2.43
6313,2.1
6325,1.74
6337,1.38
6349,0.89
6361,0.15
6373,-0.9
6385,-2.11
6397,-3.1
6409,-3.48
6421,-2.99
6433,-1.68
6445,0.05
6457,1.66
6469,2.73
6481,3.1
6492,3.03
6503,3.0
6515,3.49
6527,4.71
6539,6.52
6551,8.52
6563,10.24
6575,11.4
6587,11.92
6599,12.01
6611,11.89
6623,11.76
6635,11.67
6647,11.59
6659,11.53
6671,11.55
6682,11.81
6693,12.46
6705,13.53
6717,14.95
6729,16.57
6741,18.25
6753,19.92
6765,21.62
6777,23.43
6789,25.44
6801,27.69
6813,30.15
6825,32.69
6837,35.09
6849,37.12
6861,38.58
6872,39.34
6883,39.31
6895,38.49
6907,36.92
6919,34.62
6931,31.61
6943,27.95
6955,23.77
6967,19.27
6979,14.66
6991,10.12
7003,5.75
7015,1.49
7027,-2.77
7039,-7.17
7051,-11.76
7062,-16.5
7073,-21.27
7085,-25.86
7097,-30.07
7109,-33.68
7121,-36.59
7133,-38.73
7145,-40.12
7157,-40.91
7169,-41.27
7181,-41.41
7193,-41.5
7205,-41.65
7217,-41.91
7229,-42.27
7241,-42.75
7252,-43.37
7263,-44.19
7275,-45.25
7287,-46.54
7299,-47.94
7311,-49.2
7323,-50.04
7335,-50.24
7347,-49.68
7359,-48.41
7371,-46.6
7383,-44.46
7395,-42.19
7407,-39.85
7419,-37.41
7431,-34.76
7442,-31.81
7453,-28.59
7465,-25.14
7477,-21.51
7489,-17.62
7501,-13.36
7513,-8.63
7525,-3.48
7537,1.71
7549,6.42
7561,10.07
7573,12.32
7585,13.18
7597,12.95
7609,12.09
7621,10.93
7632,9.66
7643,8.28
7655,6.8
7667,5.34
7679,4.08
7691,3.16
7703,2.6
7715,2.2
7727,1.73
7739,1.02
7751,0.09
7763,-0.84
7775,-1.52
7787,-1.74
7799,-1.47
7811,-0.78
7822,0.2
7833,1.3
7845,2.48
7857,3.67
7869,4.84
7881,5.92
7893,6.81
7905,7.43
7917,7.72
7929,7.65
7941,7.25
7953,6.62
7965,5.92
7977,5.27
7989,4.77
8001,4.38
8012,3.97
8023,3.38
8035,2.47
8047,1.25
8059,-0.18
8071,-1.63
8083,-2.93
8095,-3.95
8107,-4.59
8119,-4.79
8131,-4.49
8143,-3.7
8155,-2.5
8167,-1.05
8179,0.44
8191,1.8
8202,2.92
8213,3.81
8225,4.58
8237,5.37
8249,6.29
8261,7.38
8273,8.54
8285,9.63
8297,10.45
8309,10.84
8321,10.7
8333,10.01
8345,8.88
8357,7.46
8369,5.92
8381,4.4
8392,3.0
8403,1.74
8415,0.6
8427,-0.43
8439,-1.38
8451,-2.22
8463,-2.86
8475,-3.23
8487,-3.23
8499,-2.83
8511,-2.06
8523,-1.02
8535,0.21
8547,1.52
8559,2.86
8571,4.13
8582,5.3
8593,6.3
8605,7.09
8617,7.64
8629,7.99
8641,8.14
8653,8.09
8665,7.82
8677,7.27
8689,6.45
8701,5.43
8713,4.34
8725,3.3
8737,2.36
8749,1.49
8761,0.65
8772,-0.16
8783,-0.84
8795,-1.21
8807,-1.15
8819,-0.6
8831,0.35
8843,1.53
8855,2.75
8867,3.91
8879,4.98
8891,5.94
8903,6.79
8915,7.5
8927,8.02
8939,8.34
8951,8.46
8962,8.45
8973,8.34
8985,8.18
8997,7.99
9009,7.72
9021,7.33
9033,6.77
9045,6.01
9057,5.03
9069,3.89
9081,2.7
9093,1.61
9105,0.78
9117,0.33
9129,0.29
9141,0.66
9152,1.43
9163,2.56
9175,4.07
9187,5.88
9199,7.88
9211,9.89
9223,11.77
9235,13.42
9247,14.81
9259,15.97
9271,16.89
9283,17.51
9295,17.75
9307,17.53
9319,16.84
9331,15.72
9342,14.28
9353,12.54
9365,10.51
9377,8.17
9389,5.54
9401,2.69
9413,-0.25
9425,-3.19
9437,-6.08
9449,-8.93
9461,-11.76
9473,-14.61
9485,-17.42
9497,-20.04
9509,-22.26
9521,-23.82
9532,-24.52
9543,-24.26
9555,-23.07
9567,-21.1
9579,-18.6
9591,-15.89
9603,-13.28
9615,-11.01
9627,-9.16
9639,-7.7
9651,-6.5
9663,-5.45
9675,-4.5
9687,-3.72
9699,-3.18
9711,-2.93
9722,-2.89
9733,-2.97
9745,-3.09
9757,-3.29
9769,-3.68
9781,-4.35
9793,-5.26
9805,-6.22
9817,-6.97
9829,-7.27
9841,-7.04
9853,-6.39
9865,-5.55
9877,-4.75
9889,-4.14
9901,-3.64
9912,-3.12
9923,-2.43
9935,-1.55
9947,-0.6
9959,0.22
9971,0.73
9983,0.85
9995,0.67
10007,0.33
10019,-0.04
10031,-0.37
10043,-0.68
10055,-1.0
10067,-1.38
10079,-1.84
10091,-2.4
10102,-3.09
10113,-3.9
10125,-4.81
10137,-5.67
10149,-6.38
10161,-6.8
10173,-6.88
10185,-6.65
10197,-6.13
10209,-5.35
10221,-4.3
10233,-3.02
10245,-1.55
10257,-0.01
10269,1.48
10281,2.77
10292,3.71
10303,4.2
10315,4.21
10327,3.75
10339,2.94
10351,1.92
10363,0.88
10375,-0.04
10387,-0.79
10399,-1.41
10411,-2.01
10423,-2.7
10435,-3.48
10447,-4.27
10459,-4.91
10471,-5.22
10482,-5.09
10493,-4.51
10505,-3.56
10517,-2.35
10529,-0.98
10541,0.47
10553,1.96
10565,3.46
10577,4.91
10589,6.22
10601,7.27
10613,7.99
10625,8.32
10637,8.29
10649,7.98
10661,7.48
10672,6.87
10683,6.17
10695,5.4
10707,4.57
10719,3.76
10731,3.08
10743,2.61
10755,2.36
10767,2.22
10779,2.0
10791,1.58
10803,0.94
10815,0.22
10827,-0.35
10839,-0.61
10851,-0.49
10862,-0.12
10873,0.32
10885,0.64
10897,0.77
10909,0.8
10921,0.83
10933,1.0
10945,1.31
10957,1.7
10969,2.05
10981,2.32
10993,2.51
11005,2.69
11017,2.85
11029,2.91
11041,2.72
11052,2.18
11063,1.31
11075,0.29
11087,-0.69
11099,-1.46
11111,-2.02
11123,-2.47
11135,-2.97
11147,-3.65
11159,-4.47
11171,-5.28
11183,-5.83
11195,-5.87
11207,-5.25
11219,-3.96
11231,-2.15
11242,-0.05
11253,2.11
11265,4.16
11277,6.0
11289,7.62
11301,8.97
11313,9.98
11325,10.58
11337,10.7
11349,10.38
11361,9.74
11373,8.94
11385,8.1
11397,7.29
11409,6.59
11421,6.11
11432,6.05
11443,6.6
11455,7.85
11467,9.69
11479,11.89
11491,14.17
11503,16.35
11515,18.43
11527,20.53
11539,22.86
11551,25.59
11563,28.78
11575,32.38
11587,36.24
11599,40.18
11611,44.0
11622,47.52
11633,50.65
11645,53.28
11657,55.42
11669,57.09
11681,58.34
11693,59.17
11705,59.49
11717,59.08
11729,57.57
11741,54.58
11753,49.8
11765,43.13
11777,34.78
11789,25.3
11801,15.36
11812,5.65
11823,-3.35
11835,-11.42
11847,-18.53
11859,-24.79
11871,-30.28
11883,-35.03
11895,-39.03
11907,-42.34
11919,-45.05
11931,-47.26
11943,-48.97
11955,-50.02
11967,-50.13
11979,-49.04
11991,-46.73
12002,-43.48
12013,-39.84
12025,-36.45
12037,-33.89
12049,-32.53
12061,-32.56
12073,-33.99
12085,-36.68
12097,-40.31
12109,-44.32
12121,-47.94
12133,-50.36
12145,-50.91
12157,-49.31
12169,-45.72
12181,-40.7
12192,-34.94
12203,-29.1
12215,-23.64
12227,-18.85
12239,-14.78
12251,-11.36
12263,-8.41
12275,-5.65
12287,-2.79
12299,0.27
12311,3.45
12323,6.37
12335,8.52
12347,9.4
12359,8.77
12371,6.67
12382,3.42
12393,-0.54
12405,-4.7
12417,-8.64
12429,-12.01
12441,-14.59
12453,-16.32
12465,-17.31
12477,-17.84
12489,-18.27
12501,-18.9
12513,-19.85
12525,-20.98
12537,-21.98
12549,-22.4
12561,-21.97
12572,-20.61
12583,-18.51
12595,-16.02
12607,-13.53
12619,-11.28
12631,-9.33
12643,-7.6
12655,-5.91
12667,-4.11
12679,-2.11
12691,0.08
12703,2.3
12715,4.35
12727,5.95
12739,6.89
12751,7.08
12762,6.62
12773,5.74
12785,4.68
12797,3.6
12809,2.49
12821,1.25
12833,-0.22
12845,-1.87
12857,-3.51
12869,-4.83
12881,-5.57
12893,-5.65
12905,-5.15
12917,-4.31
12929,-3.31
12941,-2.25
12952,-1.09
12963,0.29
12975,1.89
12987,3.6
12999,5.13
13011,6.15
13023,6.47
13035,6.18
13047,5.52
13059,4.86
13071,4.41
13083,4.22
13095,4.14
13107,3.96
13119,3.59
13131,2.98
13142,2.21
13153,1.35
13165,0.47
13177,-0.34
13189,-0.95
13201,-1.2
13213,-0.9
13225,0.04
13237,1.59
13249,3.56
13261,5.66
13273,7.63
13285,9.26
13297,10.44
13309,11.14
13321,11.4
13332,11.24
13343,10.73
13355,9.93
13367,8.98
13379,8.05
13391,7.29
13403,6.75
13415,6.33
13427,5.85
13439,5.11
13451,4.0
13463,2.57
13475,0.99
13487,-0.58
13499,-2.04
13511,-3.38
13522,-4.63
13533,-5.77
13545,-6.67
13557,-7.15
13569,-7.03
13581,-6.25
13593,-4.9
13605,-3.17
13617,-1.26
13629,0.62
13641,2.31
13653,3.63
13665,4.38
13677,4.43
13689,3.71
13701,2.42
13712,0.87
13723,-0.51
13735,-1.39
13747,-1.65
13759,-1.39
13771,-0.89
13783,-0.49
13795,-0.41
13807,-0.71
13819,-1.31
13831,-2.0
13843,-2.58
13855,-2.91
13867,-2.91
13879,-2.57
13891,-1.85
13902,-0.68
13913,1.02
13925,3.25
13937,5.95
13949,8.9
13961,11.79
13973,14.35
13985,16.37
13997,17.81
14009,18.8
14021,19.52
14033,20.17
14045,20.81
14057,21.37
14069,21.73
14081,21.83
14092,21.66
14103,21.33
14115,20.91
14127,20.39
14139,19.7
14151,18.73
14163,17.45
14175,15.96
14187,14.47
14199,13.14
14211,12.02
14223,11.07
14235,10.2
14247,9.4
14259,8.77
14271,8.48
14282,8.61
14293,9.15
14305,9.87
14317,10.46
14329,10.53
14341,9.76
14353,7.96
14365,5.14
14377,1.44
14389,-2.84
14401,-7.34
14413,-11.68
14425,-15.52
14437,-18.66
14449,-21.01
14461,-22.6
14472,-23.55
14483,-24.0
14495,-24.13
14507,-24.05
14519,-23.85
14531,-23.53
14543,-23.05
14555,-22.32
14567,-21.19
14579,-19.51
14591,-17.2
14603,-14.26
14615,-10.88
14627,-7.37
14639,-4.17
14651,-1.68
14662,-0.18
14673,0.33
14685,0.12
14697,-0.32
14709,-0.42
14721,0.24
14733,1.84
14745,4.15
14757,6.61
14769,8.42
14781,8.81
14793,7.32
14805,4.01
14817,-0.41
14829,-4.79
14841,-7.96
14852,-9.16
14863,-8.24
14875,-5.68
14887,-2.13
14899,1.93
14911,6.38
14923,11.35
14935,16.86
14947,22.46
14959,27.25
14971,30.09
14983,30.15
14995,27.2
15007,21.77
15019,14.92
15031,7.8
15042,1.34
15053,-4.07
15065,-8.51
15077,-12.3
15089,-15.8
15101,-19.11
15113,-22.07
15125,-24.3
15137,-25.47
15149,-25.5
15161,-24.62
15173,-23.3
15185,-22.04
15197,-21.16
15209,-20.69
15221,-20.42
15232,-20.07
15243,-19.48
15255,-18.63
15267,-17.66
15279,-16.69
15291,-15.81
15303,-14.96
15315,-14.04
15327,-12.98
15339,-11.81
15351,-10.72
15363,-10.01
15375,-9.92
15387,-10.55
15399,-11.79
15411,-13.33
15422,-14.84
15433,-16.03
15445,-16.78
15457,-17.03
15469,-16.69
15481,-15.63
15493,-13.69
15505,-10.74
15517,-6.86
15529,-2.35
15541,2.33
15553,6.73
15565,10.54
15577,13.65
15589,16.19
15601,18.38
15612,20.45
15623,22.52
15635,24.5
15647,26.14
15659,27.08
15671,26.98
15683,25.73
15695,23.45
15707,20.45
15719,17.12
15731,13.74
15743,10.43
15755,7.2
15767,4.03
15779,0.95
15791,-1.95
15802,-4.59
15813,-6.87
15825,-8.71
15837,-10.07
15849,-10.9
15861,-11.23
15873,-11.16
15885,-10.86
15897,-10.49
15909,-10.08
15921,-9.53
15933,-8.69
15945,-7.48
15957,-6.02
15969,-4.66
15981,-3.79
15992,-3.67
16003,-4.27
16015,-5.26
16027,-6.21
16039,-6.74
16051,-6.72
16063,-6.3
16075,-5.85
16087,-5.74
16099,-6.26
16111,-7.46
16123,-9.21
16135,-11.21
16147,-13.11
16159,-14.56
16171,-15.33
16182,-15.25
16193,-14.27
16205,-12.42
16217,-9.83
16229,-6.68
16241,-3.25
16253,0.16
16265,3.28
16277,5.89
16289,7.92
16301,9.36
16313,10.29
16325,10.82
16337,11.09
16349,11.26
16361,11.43
16372,11.71
16383,12.07
16395,12.43
16407,12.62
16419,12.47
16431,11.89
16443,10.88
16455,9.53
16467,7.96
16479,6.32
16491,4.68
16503,3.19
16515,1.96
16527,1.11
16539,0.71
16551,0.77
16562,1.2
16573,1.83
16585,2.47
16597,2.88
16609,2.86
16621,2.21
16633,0.83
16645,-1.28
16657,-4.03
16669,-7.25
16681,-10.73
16693,-14.23
16705,-17.6
16717,-20.79
16729,-23.84
16741,-26.77
16752,-29.49
16763,-31.84
16775,-33.62
16787,-34.6
16799,-34.43
16811,-32.94
16823,-30.17
16835,-26.59
16847,-23.0
16859,-20.23
16871,-18.87
16883,-19.04
16895,-20.31
16907,-21.7
16919,-22.4
16931,-22.06
16942,-20.99
16953,-19.81
16965,-18.99
16977,-18.64
16989,-18.48
17001,-18.02
17013,-16.2
17025,-12.45
17037,-7.0
17049,-0.9
17061,4.48
17073,8.04
17085,9.16
17097,7.8
17109,4.46
17121,1.25
17132,-0.03
17143,1.32
17155,4.75
17167,9.3
17179,14.49
17191,20.47
17203,27.8
17215,37.15
17227,51.21
17239,72.05
17251,100.31
17263,134.73
17275,172.75
17287,211.05
17299,245.75
17311,272.87
17322,289.48
17333,297.51
17345,300.53
17357,301.97
17369,303.29
17381,303.89
17393,301.91
17405,295.08
17417,281.49
17429,244.21
17441,177.37
17453,88.72
17465,-3.1
17477,-80.25
17489,-134.42
17501,-166.43
17512,-181.77
17523,-187.07
17535,-187.77
17547,-185.38
17559,-180.96
17571,-175.36
17583,-169.49
17595,-162.94
17607,-153.23
17619,-137.11
17631,-113.02
17643,-82.0
17655,-46.8
17667,-14.82
17679,6.26
17691,12.08
17702,3.46
17713,-14.8
17725,-35.72
17737,-56.79
17749,-76.67
17761,-93.07
17773,-103.85
17785,-107.54
17797,-104.36
17809,-95.87
17821,-84.43
17833,-70.92
17845,-56.98
17857,-43.81
17869,-31.41
17881,-19.45
17892,-8.15
17903,0.98
17915,5.97
17927,5.32
17939,-1.41
17951,-13.37
17963,-28.93
17975,-46.03
17987,-60.39
17999,-68.22
18011,-68.29
18023,-62.05
18035,-51.78
18047,-42.02
18059,-31.75
18071,-19.12
18082,-3.11
18093,16.39
18105,39.91
18117,66.19
18129,93.55
18141,120.35
18153,145.06
18165,166.47
18177,183.02
18189,193.22
18201,195.95
18213,190.02
18225,174.04
18237,147.37
18249,110.65
18261,66.48
18272,19.63
18283,-24.43
18295,-60.57
18307,-85.4
18319,-98.41
18331,-101.84
18343,-99.09
18355,-93.45
18367,-86.96
18379,-80.21
18391,-73.33
18403,-66.39
18415,-59.58
18427,-53.35
18439,-48.38
18451,-45.0
18462,-43.31
18473,-42.51
18485,-40.83
18497,-36.13
18509,-26.5
18521,-11.03
18533,9.63
18545,33.06
18557,55.91
18569,74.04
18581,84.28
18593,84.6
18605,73.9
18617,51.95
18629,19.7
18641,-20.14
18652,-63.68
18663,-106.17
18675,-144.09
18687,-174.88
18699,-197.6
18711,-212.93
18723,-222.61
18735,-228.28
18747,-230.64
18759,-230.11
18771,-226.42
18783,-219.86
18795,-209.52
18807,-193.84
18819,-171.57
18831,-143.08
18842,-110.62
18853,-78.08
18865,-51.02
18877,-25.71
18889,-1.99
18901,18.77
18913,34.77
18925,45.66
18937,53.35
18949,58.64
18961,67.28
18973,83.25
18985,107.63
18997,137.39
19009,167.91
19021,194.13
19032,211.02
19043,213.21
19055,200.07
19067,177.48
19079,153.45
19091,133.19
19103,116.17
19115,99.11
19127,79.44
19139,57.21
19151,34.63
19163,14.88
19175,0.37
19187,-8.96
19199,-15.95
19211,-22.37
19222,-28.67
19233,-34.25
19245,-38.09
19257,-39.57
19269,-38.09
19281,-33.37
19293,-26.09
19305,-17.37
19317,-8.31
19329,0.17
19341,7.5
19353,14.34
19365,20.22
19377,24.67
19389,27.39
19401,28.15
19412,26.96
19423,24.25
19435,20.71
19447,17.1
19459,14.12
19471,12.16
19483,11.69
19495,13.04
19507,16.1
19519,20.22
19531,24.49
19543,27.78
19555,29.2
19567,28.3
19579,25.14
19591,20.44
19602,15.11
19613,9.87
19625,4.98
19637,0.35
19649,-4.24
19661,-8.9
19673,-13.37
19685,-17.3
19697,-20.27
19709,-22.09
19721,-22.89
19733,-22.96
19745,-22.59
19757,-21.83
19769,-20.54
19781,-18.46
19792,-15.5
19803,-11.78
19815,-7.67
19827,-3.66
19839,-0.22
19851,2.26
19863,3.57
19875,3.7
19887,2.78
19899,1.14
19911,-0.83
19923,-2.62
19935,-3.85
19947,-4.27
19959,-3.92
19971,-3.15
19982,-2.49
19993,-2.42
20005,-3.1
20017,-4.17
20029,-4.81
20041,-4.07
20053,-1.3
20065,3.57
20077,9.89
20089,16.52
20101,22.31
20113,26.47
20125,28.72
20137,29.26
20149,28.48
20161,26.82
20172,24.58
20183,21.88
20195,18.74
20207,15.09
20219,10.89
20231,6.1
20243,0.85
20255,-4.64
20267,-10.06
20279,-15.13
20291,-19.66
20303,-23.59
20315,-26.98
20327,-29.86
20339,-32.21
20351,-33.93
20362,-34.96
20373,-35.27
20385,-34.96
20397,-34.21
20409,-33.15
20421,-31.78
20433,-29.99
20445,-27.58
20457,-24.48
20469,-20.88
20481,-17.23
20493,-14.15
20505,-12.15
20517,-11.4
20529,-11.7
20541,-12.58
20552,-13.48
20563,-14.05
20575,-14.2
20587,-14.11
20599,-14.03
20611,-14.14
20623,-14.53
20635,-15.17
20647,-15.94
20659,-16.68
20671,-17.23
20683,-17.35
20695,-16.82
20707,-15.5
20719,-13.38
20731,-10.61
20742,-7.46
20753,-4.25
20765,-1.28
20777,1.22
20789,3.07
20801,4.17
20813,4.45
20825,3.93
20837,2.67
20849,0.87
20861,-1.21
20873,-3.3
20885,-5.15
20897,-6.65
20909,-7.78
20921,-8.58
20932,-9.05
20943,-9.26
20955,-9.23
20967,-9.04
20979,-8.75
20991,-8.42
