seconds,BVP
2,-0.58
14,-1.28
26,-1.74
38,-2.19
49,-2.91
60,-4.09
72,-5.74
84,-7.64
96,-9.46
108,-10.92
120,-11.93
132,-12.63
144,-13.29
156,-14.21
168,-15.55
180,-17.29
192,-19.25
204,-21.11
216,-22.53
228,-23.19
239,-22.78
250,-21.15
262,-18.27
274,-14.36
286,-9.8
298,-5.09
310,-0.74
322,2.87
334,5.54
346,7.28
358,8.22
370,8.62
382,8.7
394,8.68
406,8.61
418,8.53
429,8.4
440,8.22
452,8.05
464,7.97
476,8.1
488,8.51
500,9.23
512,10.18
524,11.23
536,12.26
548,13.12
560,13.67
572,13.78
584,13.41
596,12.58
608,11.44
619,10.22
630,9.17
642,8.43
654,8.0
666,7.72
678,7.37
690,6.78
702,5.9
714,4.79
726,3.56
738,2.32
750,1.12
762,0.02
774,-0.96
786,-1.77
798,-2.42
809,-2.99
820,-3.6
832,-4.34
844,-5.27
856,-6.32
868,-7.42
880,-8.48
892,-9.53
904,-10.66
916,-11.96
928,-13.51
940,-15.27
952,-17.11
964,-18.86
976,-20.23
988,-20.87
999,-20.44
1010,-18.68
1022,-15.56
1034,-11.36
1046,-6.63
1058,-2.03
1070,1.82
1082,4.6
1094,6.32
1106,7.25
1118,7.76
1130,8.1
1142,8.33
1154,8.35
1166,8.09
1178,7.56
1189,6.93
1200,6.46
1212,6.34
1224,6.61
1236,7.14
1248,7.71
1260,8.08
1272,8.2
1284,8.15
1296,8.08
1308,8.13
1320,8.38
1332,8.72
1344,9.0
1356,9.01
1368,8.66
1379,7.97
1390,7.07
1402,6.15
1414,5.32
1426,4.61
1438,3.98
1450,3.34
1462,2.68
1474,1.98
1486,1.23
1498,0.4
1510,-0.58
1522,-1.76
1534,-3.11
1546,-4.49
1558,-5.73
1569,-6.76
1580,-7.62
1592,-8.48
1604,-9.53
1616,-10.87
1628,-12.48
1640,-14.27
1652,-16.06
1664,-17.67
1676,-18.92
1688,-19.6
1700,-19.45
1712,-18.28
1724,-16.0
1736,-12.72
1748,-8.78
1759,-4.64
1770,-0.77
1782,2.43
1794,4.82
1806,6.39
1818,7.33
1830,7.82
1842,8.07
1854,8.18
1866,8.22
1878,8.24
1890,8.28
1902,8.41
1914,8.68
1926,9.07
1938,9.47
1949,9.73
1960,9.73
1972,9.46
1984,9.05
1996,8.68
2008,8.56
2020,8.76
2032,9.16
2044,9.56
2056,9.76
2068,9.64
2080,9.26
2092,8.73
2104,8.16
2116,7.56
2128,6.86
2139,5.97
2150,4.88
2162,3.69
2174,2.58
2186,1.65
2198,0.94
2210,0.35
2222,-0.25
2234,-0.94
2246,-1.79
2258,-2.76
2270,-3.88
2282,-5.13
2294,-6.51
2306,-7.94
2318,-9.31
2329,-10.44
2340,-11.28
2352,-11.85
2364,-12.35
2376,-13.06
2388,-14.23
2400,-15.95
2412,-18.11
2424,-20.38
2436,-22.25
2448,-23.22
2460,-22.91
2472,-21.18
2484,-18.18
2496,-14.33
2508,-10.14
2519,-6.09
2530,-2.5
2542,0.48
2554,2.89
2566,4.81
2578,6.35
2590,7.58
2602,8.51
2614,9.14
2626,9.46
2638,9.48
2650,9.26
2662,8.92
2674,8.57
2686,8.31
2698,8.15
2709,8.07
2720,8.05
2732,8.15
2744,8.45
2756,9.01
2768,9.81
2780,10.65
2792,11.26
2804,11.42
2816,11.02
2828,10.17
2840,9.11
2852,8.11
2864,7.31
2876,6.74
2888,6.3
2899,5.86
2910,5.34
2922,4.68
2934,3.87
2946,2.94
2958,1.91
2970,0.85
2982,-0.12
2994,-0.95
3006,-1.6
3018,-2.12
3030,-2.61
3042,-3.23
3054,-4.07
3066,-5.16
3078,-6.48
3089,-7.93
3100,-9.43
3112,-10.88
3124,-12.25
3136,-13.54
3148,-14.79
3160,-16.04
3172,-17.37
3184,-18.86
3196,-20.5
3208,-22.15
3220,-23.46
3232,-24.02
3244,-23.43
3256,-21.55
3268,-18.55
3279,-14.86
3290,-11.03
3302,-7.54
3314,-4.63
3326,-2.31
3338,-0.49
3350,0.9
3362,1.87
3374,2.39
3386,2.49
3398,2.29
3410,2.06
3422,2.08
3434,2.56
3446,3.56
3458,4.98
3469,6.6
3480,8.2
3492,9.59
3504,10.67
3516,11.42
3528,11.89
3540,12.14
3552,12.2
3564,12.11
3576,11.85
3588,11.43
3600,10.85
3612,10.18
3624,9.56
3636,9.16
3648,9.08
3659,9.3
3670,9.65
3682,9.85
3694,9.67
3706,8.99
3718,7.88
3730,6.56
3742,5.32
3754,4.39
3766,3.86
3778,3.67
3790,3.72
3802,3.82
3814,3.84
3826,3.65
3838,3.15
3849,2.23
3860,0.79
3872,-1.17
3884,-3.64
3896,-6.51
3908,-9.72
3920,-13.19
3932,-16.83
3944,-20.5
3956,-23.95
3968,-26.77
3980,-28.51
3992,-28.78
4004,-27.4
4016,-24.53
4028,-20.62
4039,-16.25
4050,-11.98
4062,-8.23
4074,-5.2
4086,-2.94
4098,-1.37
4110,-0.4
4122,0.08
4134,0.2
4146,0.11
4158,-0.04
4170,-0.06
4182,0.2
4194,0.79
4206,1.71
4218,2.83
4229,4.03
4240,5.19
4252,6.27
4264,7.31
4276,8.46
4288,9.81
4300,11.36
4312,12.96
4324,14.33
4336,15.21
4348,15.47
4360,15.2
4372,14.67
4384,14.23
4396,14.14
4408,14.44
4419,14.95
4430,15.33
4442,15.27
4454,14.6
4466,13.38
4478,11.8
4490,10.12
4502,8.51
4514,7.02
4526,5.6
4538,4.16
4550,2.64
4562,0.99
4574,-0.82
4586,-2.84
4598,-5.07
4609,-7.36
4620,-9.4
4632,-10.76
4644,-11.01
4656,-9.93
4668,-7.68
4680,-4.75
4692,-1.78
4704,0.68
4716,2.39
4728,3.42
4740,4.07
4752,4.63
4764,5.25
4776,5.85
4788,6.23
4799,6.21
4810,5.76
4822,5.05
4834,4.32
4846,3.82
4858,3.63
4870,3.7
4882,3.9
4894,4.08
4906,4.21
4918,4.32
4930,4.49
4942,4.8
4954,5.27
4966,5.77
4978,6.16
4989,6.27
5000,6.05
5012,5.54
5024,4.87
5036,4.12
5048,3.34
5060,2.5
5072,1.54
5084,0.47
5096,-0.64
5108,-1.68
5120,-2.63
5132,-3.52
5144,-4.5
5156,-5.67
5168,-7.03
5179,-8.5
5190,-9.9
5202,-11.12
5214,-12.17
5226,-13.16
5238,-14.27
5250,-15.64
5262,-17.31
5274,-19.16
5286,-20.92
5298,-22.22
5310,-22.73
5322,-22.23
5334,-20.67
5346,-18.15
5358,-14.89
5369,-11.21
5380,-7.43
5392,-3.86
5404,-0.76
5416,1.68
5428,3.43
5440,4.58
5452,5.31
5464,5.83
5476,6.27
5488,6.67
5500,7.01
5512,7.22
5524,7.3
5536,7.25
5548,7.17
5559,7.13
5570,7.22
5582,7.5
5594,7.96
5606,8.55
5618,9.17
5630,9.71
5642,10.06
5654,10.15
5666,9.98
5678,9.56
5690,8.97
5702,8.3
5714,7.65
5726,7.06
5738,6.51
5749,5.9
5760,5.13
5772,4.13
5784,2.95
5796,1.71
5808,0.54
5820,-0.42
5832,-1.16
5844,-1.7
5856,-2.14
5868,-2.58
5880,-3.13
5892,-3.88
5904,-4.88
5916,-6.12
5928,-7.54
5939,-8.98
5950,-10.29
5962,-11.36
5974,-12.2
5986,-12.92
5998,-13.7
6010,-14.72
6022,-16.08
6034,-17.7
6046,-19.38
6058,-20.75
6070,-21.39
6082,-20.98
6094,-19.36
6106,-16.66
6118,-13.2
6129,-9.38
6140,-5.59
6152,-2.08
6164,1.04
6176,3.7
6188,5.82
6200,7.35
6212,8.2
6224,8.45
6236,8.25
6248,7.88
6260,7.6
6272,7.55
6284,7.72
6296,8.0
6308,8.23
6319,8.36
6330,8.41
6342,8.55
6354,8.93
6366,9.64
6378,10.61
6390,11.65
6402,12.54
6414,13.08
6426,13.2
6438,12.94
6450,12.41
6462,11.73
6474,10.96
6486,10.11
6498,9.16
6509,8.1
6520,6.93
6532,5.72
6544,4.52
6556,3.41
6568,2.44
6580,1.68
6592,1.12
6604,0.75
6616,0.52
6628,0.3
6640,-0.02
6652,-0.53
6664,-1.28
6676,-2.23
6688,-3.32
6699,-4.42
6710,-5.43
6722,-6.33
6734,-7.13
6746,-7.94
6758,-8.88
6770,-10.05
6782,-11.48
6794,-13.05
6806,-14.5
6818,-15.51
6830,-15.75
6842,-15.05
6854,-13.39
6866,-10.92
6878,-7.9
6889,-4.56
6900,-1.04
6912,2.54
6924,6.12
6936,9.51
6948,12.5
6960,14.81
6972,16.31
6984,17.02
6996,17.15
7008,16.98
7020,16.75
7032,16.59
7044,16.51
7056,16.43
7068,16.3
7079,16.11
7090,15.94
7102,15.86
7114,15.93
7126,16.18
7138,16.59
7150,17.14
7162,17.8
7174,18.53
7186,19.26
7198,19.91
7210,20.41
7222,20.74
7234,21.07
7246,21.65
7258,22.83
7269,24.86
7280,27.8
7292,31.49
7304,35.69
7316,40.32
7328,45.63
7340,52.17
7352,60.51
7364,70.83
7376,82.54
7388,94.26
7400,104.11
7412,110.34
7424,111.88
7436,108.7
7448,101.7
7459,92.44
7470,82.73
7482,74.34
7494,68.78
7506,66.96
7518,68.89
7530,73.39
7542,78.13
7554,80.31
7566,77.65
7578,69.36
7590,56.54
7602,41.73
7614,27.79
7626,16.71
7638,8.93
7649,3.51
7660,-1.09
7672,-6.12
7684,-12.03
7696,-18.6
7708,-25.34
7720,-32.07
7732,-38.96
7744,-46.25
7756,-54.03
7768,-61.86
7780,-69.12
7792,-75.04
7804,-79.03
7816,-80.87
7828,-80.84
7839,-79.46
7850,-77.32
7862,-74.87
7874,-72.34
7886,-69.91
7898,-67.73
7910,-65.91
7922,-64.58
7934,-63.96
7946,-64.12
7958,-64.86
7970,-65.82
7982,-66.57
7994,-67.17
8006,-68.04
8018,-69.63
8029,-72.3
8040,-76.62
8052,-82.73
8064,-90.25
8076,-98.31
8088,-105.51
8100,-111.18
8112,-114.96
8124,-116.7
8136,-116.74
8148,-116.87
8160,-118.76
8172,-123.04
8184,-128.7
8196,-132.83
8208,-133.57
8219,-129.83
8230,-121.52
8242,-109.87
8254,-98.58
8266,-90.98
8278,-88.62
8290,-90.65
8302,-93.61
8314,-95.87
8326,-96.56
8338,-95.06
8350,-91.2
8362,-87.02
8374,-84.02
8386,-82.41
8398,-81.22
8409,-78.15
8420,-74.68
8432,-73.51
8444,-76.58
8456,-69.73
8468,-43.2
8480,4.02
8492,62.8
8504,111.02
8516,147.13
8528,172.99
8540,190.46
8552,203.43
8564,213.29
8576,218.48
8588,217.23
8599,208.54
8610,192.95
8622,173.79
8634,152.51
8646,130.71
8658,110.5
8670,93.47
8682,78.86
8694,65.22
8706,51.39
8718,37.19
8730,24.33
8742,12.81
8754,2.44
8766,-6.56
8778,-13.88
8789,-20.2
8800,-26.16
8812,-32.03
8824,-37.46
8836,-41.03
8848,-42.6
8860,-42.29
8872,-40.17
8884,-36.58
8896,-32.45
8908,-28.82
8920,-26.33
8932,-24.96
8944,-23.72
8956,-21.94
8968,-19.04
8979,-14.64
8990,-8.84
9002,-2.23
9014,4.38
9026,10.33
9038,15.37
9050,19.64
9062,23.3
9074,26.49
9086,29.37
9098,32.09
9110,34.94
9122,38.31
9134,42.54
9146,47.63
9158,52.91
9169,56.87
9180,57.46
9192,52.71
9204,41.52
9216,24.25
9228,2.68
9240,-20.52
9252,-42.7
9264,-62.03
9276,-77.91
9288,-90.7
9300,-101.27
9312,-110.45
9324,-118.78
9336,-126.5
9348,-133.69
9359,-140.17
9370,-145.48
9382,-148.72
9394,-148.7
9406,-144.35
9418,-135.11
9430,-121.33
9442,-104.12
9454,-85.07
9466,-65.68
9478,-47.02
9490,-29.72
9502,-14.07
9514,-0.32
9526,11.28
9538,20.64
9549,27.97
9560,33.96
9572,39.52
9584,45.45
9596,51.98
9608,58.71
9620,64.77
9632,69.31
9644,71.87
9656,72.66
9668,72.25
9680,71.3
9692,70.17
9704,68.81
9716,66.95
9728,64.37
9739,61.11
9750,57.43
9762,53.7
9774,50.11
9786,46.66
9798,43.14
9810,39.33
9822,35.12
9834,30.61
9846,26.05
9858,21.75
9870,17.91
9882,14.54
9894,11.48
9906,8.57
9918,5.69
9929,3.01
9940,0.87
9952,-0.31
9964,-0.29
9976,0.86
9988,2.8
10000,5.02
10012,7.19
10024,9.28
10036,11.55
10048,14.34
10060,17.74
10072,21.43
10084,24.81
10096,27.2
10108,28.2
10119,27.87
10130,26.67
10142,25.24
10154,24.06
10166,23.37
10178,23.05
10190,22.87
10202,22.59
10214,22.12
10226,21.53
10238,20.96
10250,20.53
10262,20.22
10274,19.91
10286,19.44
10298,18.63
10309,17.45
10320,15.93
10332,14.21
10344,12.45
10356,10.72
10368,9.05
10380,7.36
10392,5.55
10404,3.6
10416,1.52
10428,-0.64
10440,-2.84
10452,-5.07
10464,-7.4
10476,-9.88
10488,-12.4
10499,-14.74
10510,-16.49
10522,-17.22
10534,-16.62
10546,-14.64
10558,-11.45
10570,-7.45
10582,-3.11
10594,1.15
10606,5.01
10618,8.29
10630,10.93
10642,12.95
10654,14.42
10666,15.42
10678,16.0
10689,16.21
10700,16.11
10712,15.8
10724,15.44
10736,15.18
10748,15.13
10760,15.28
10772,15.5
10784,15.63
10796,15.5
10808,15.06
10820,14.36
10832,13.5
10844,12.6
10856,11.71
10868,10.82
10879,9.86
10890,8.78
10902,7.58
10914,6.28
10926,4.92
10938,3.56
10950,2.19
10962,0.76
10974,-0.73
10986,-2.29
10998,-3.88
11010,-5.48
11022,-7.08
11034,-8.75
11046,-10.58
11058,-12.64
11069,-14.87
11080,-17.08
11092,-18.92
11104,-19.95
11116,-19.83
11128,-18.39
11140,-15.74
11152,-12.22
11164,-8.26
11176,-4.27
11188,-0.52
11200,2.84
11212,5.73
11224,8.08
11236,9.8
11248,10.81
11259,11.16
11270,10.96
11282,10.42
11294,9.72
11306,9.02
11318,8.46
11330,8.12
11342,8.08
11354,8.36
11366,8.89
11378,9.55
11390,10.12
11402,10.44
11414,10.39
11426,9.97
11438,9.24
11449,8.32
11460,7.33
11472,6.34
11484,5.37
11496,4.38
11508,3.3
11520,2.1
11532,0.79
11544,-0.59
11556,-2.04
11568,-3.59
11580,-5.32
11592,-7.32
11604,-9.57
11616,-11.96
11628,-14.33
11639,-16.46
11650,-18.2
11662,-19.38
11674,-19.82
11686,-19.28
11698,-17.59
11710,-14.72
11722,-10.88
11734,-6.51
11746,-2.13
11758,1.81
11770,5.11
11782,7.79
11794,9.96
11806,11.72
11818,13.03
11829,13.79
11840,13.91
11852,13.47
11864,12.71
11876,11.96
11888,11.52
11900,11.5
11912,11.86
11924,12.43
11936,13.02
11948,13.59
11960,14.15
11972,14.78
11984,15.45
11996,16.04
12008,16.35
12019,16.21
12030,15.56
12042,14.47
12054,13.13
12066,11.72
12078,10.4
12090,9.22
12102,8.17
12114,7.24
12126,6.44
12138,5.81
12150,5.4
12162,5.19
12174,5.06
12186,4.84
12198,4.31
12209,3.38
12220,2.07
12232,0.54
12244,-0.99
12256,-2.37
12268,-3.57
12280,-4.68
12292,-5.84
12304,-7.09
12316,-8.41
12328,-9.67
12340,-10.79
12352,-11.77
12364,-12.71
12376,-13.78
12388,-15.12
12399,-16.76
12410,-18.71
12422,-20.92
12434,-23.31
12446,-25.72
12458,-27.84
12470,-29.21
12482,-29.33
12494,-27.8
12506,-24.58
12518,-19.97
12530,-14.61
12542,-9.21
12554,-4.37
12566,-0.4
12578,2.65
12589,4.91
12600,6.54
12612,7.65
12624,8.32
12636,8.67
12648,8.85
12660,9.08
12672,9.51
12684,10.21
12696,11.07
12708,11.94
12720,12.7
12732,13.35
12744,13.94
12756,14.57
12768,15.27
12779,15.94
12790,16.45
12802,16.7
12814,16.66
12826,16.4
12838,16.01
12850,15.53
12862,14.94
12874,14.22
12886,13.42
12898,12.66
12910,12.1
12922,11.79
12934,11.65
12946,11.45
12958,10.94
12969,9.96
12980,8.56
12992,6.94
13004,5.42
13016,4.26
13028,3.52
13040,3.11
13052,2.77
13064,2.29
13076,1.57
13088,0.64
13100,-0.37
13112,-1.31
13124,-2.08
13136,-2.67
13148,-3.19
13159,-3.77
13170,-4.55
13182,-5.65
13194,-7.18
13206,-9.16
13218,-11.53
13230,-14.1
13242,-16.49
13254,-18.24
13266,-18.9
13278,-18.2
13290,-16.18
13302,-13.17
13314,-9.67
13326,-6.2
13338,-3.12
13349,-0.52
13360,1.6
13372,3.33
13384,4.74
13396,5.78
13408,6.39
13420,6.56
13432,6.33
13444,5.85
13456,5.28
13468,4.8
13480,4.52
13492,4.48
13504,4.67
13516,5.03
13528,5.47
13539,5.91
13550,6.28
13562,6.52
13574,6.53
13586,6.28
13598,5.73
13610,4.93
13622,3.99
13634,3.07
13646,2.32
13658,1.79
13670,1.45
13682,1.16
13694,0.77
13706,0.2
13718,-0.56
13729,-1.45
13740,-2.37
13752,-3.27
13764,-4.1
13776,-4.85
13788,-5.49
13800,-6.03
13812,-6.5
13824,-7.0
13836,-7.68
13848,-8.65
13860,-9.99
13872,-11.62
13884,-13.32
13896,-14.75
13908,-15.55
13919,-15.44
13930,-14.31
13942,-12.28
13954,-9.61
13966,-6.67
13978,-3.77
13990,-1.13
14002,1.12
14014,2.96
14026,4.35
14038,5.32
14050,5.89
14062,6.14
14074,6.15
14086,6.01
14098,5.78
14109,5.49
14120,5.17
14132,4.86
14144,4.59
14156,4.42
14168,4.36
14180,4.42
14192,4.57
14204,4.81
14216,5.09
14228,5.36
14240,5.52
14252,5.46
14264,5.14
14276,4.58
14288,3.87
14299,3.12
14310,2.41
14322,1.73
14334,1.08
14346,0.42
14358,-0.22
14370,-0.82
14382,-1.38
14394,-1.93
14406,-2.55
14418,-3.34
14430,-4.31
14442,-5.37
14454,-6.36
14466,-7.13
14478,-7.62
14489,-7.9
14500,-8.15
14512,-8.6
14524,-9.36
14536,-10.42
14548,-11.68
14560,-13.02
14572,-14.33
14584,-15.55
14596,-16.58
14608,-17.15
14620,-16.96
14632,-15.74
14644,-13.45
14656,-10.35
14668,-6.96
14679,-3.8
14690,-1.21
14702,0.74
14714,2.24
14726,3.5
14738,4.68
14750,5.74
14762,6.51
14774,6.83
14786,6.64
14798,6.0
14810,5.11
14822,4.26
14834,3.7
14846,3.61
14858,3.99
14869,4.69
14880,5.46
14892,6.06
14904,6.37
14916,6.37
14928,6.17
14940,5.86
14952,5.54
14964,5.23
14976,4.96
14988,4.72
15000,4.5
15012,4.24
15024,3.85
15036,3.24
15048,2.36
15059,1.27
15070,0.09
15082,-1.04
15094,-2.03
15106,-2.88
15118,-3.66
15130,-4.4
15142,-5.12
15154,-5.79
15166,-6.39
15178,-6.93
15190,-7.46
15202,-8.04
15214,-8.7
15226,-9.47
15238,-10.38
15249,-11.46
15260,-12.7
15272,-13.98
15284,-15.02
15296,-15.45
15308,-14.98
15320,-13.53
15332,-11.26
15344,-8.51
15356,-5.65
15368,-2.95
15380,-0.53
15392,1.6
15404,3.45
15416,5.01
15428,6.19
15439,6.93
15450,7.17
15462,6.9
15474,6.22
15486,5.35
15498,4.54
15510,4.03
15522,3.92
15534,4.14
15546,4.47
15558,4.72
15570,4.8
15582,4.8
15594,4.91
15606,5.24
15618,5.75
15629,6.22
15640,6.41
15652,6.18
15664,5.6
15676,4.82
15688,4.04
15700,3.31
15712,2.58
15724,1.77
15736,0.85
15748,-0.09
15760,-0.94
15772,-1.6
15784,-2.1
15796,-2.56
15808,-3.1
15819,-3.78
15830,-4.54
15842,-5.27
15854,-5.94
15866,-6.55
15878,-7.21
15890,-8.05
15902,-9.1
15914,-10.32
15926,-11.59
15938,-12.77
15950,-13.75
15962,-14.42
15974,-14.62
15986,-14.21
15998,-13.04
16009,-11.08
16020,-8.45
16032,-5.44
16044,-2.4
16056,0.31
16068,2.49
16080,4.06
16092,5.05
16104,5.56
16116,5.68
16128,5.54
16140,5.24
16152,4.92
16164,4.66
16176,4.49
16188,4.38
16199,4.25
16210,4.09
16222,3.97
16234,4.01
16246,4.27
16258,4.72
16270,5.25
16282,5.69
16294,5.94
16306,5.95
16318,5.75
16330,5.34
16342,4.73
16354,3.94
16366,3.02
16378,2.13
16389,1.37
16400,0.82
16412,0.4
16424,-0.03
16436,-0.58
16448,-1.33
16460,-2.22
16472,-3.21
16484,-4.22
16496,-5.26
16508,-6.31
16520,-7.29
16532,-8.12
16544,-8.69
16556,-9.05
16568,-9.31
16579,-9.67
16590,-10.3
16602,-11.22
16614,-12.38
16626,-13.59
16638,-14.69
16650,-15.47
16662,-15.77
16674,-15.42
16686,-14.32
16698,-12.45
16710,-9.92
16722,-6.99
16734,-3.95
16746,-1.09
16758,1.43
16769,3.54
16780,5.23
16792,6.49
16804,7.27
16816,7.56
16828,7.39
16840,6.91
16852,6.31
16864,5.77
16876,5.41
16888,5.22
16900,5.16
16912,5.18
16924,5.3
16936,5.59
16948,6.06
16959,6.68
16970,7.29
16982,7.71
16994,7.81
17006,7.53
17018,6.94
17030,6.15
17042,5.31
17054,4.57
17066,4.05
17078,3.81
17090,3.82
17102,3.96
17114,4.02
17126,3.77
17138,3.09
17149,2.0
17160,0.64
17172,-0.73
17184,-1.93
17196,-2.84
17208,-3.48
17220,-3.97
17232,-4.44
17244,-5.05
17256,-5.84
17268,-6.82
17280,-7.92
17292,-9.07
17304,-10.21
17316,-11.3
17328,-12.39
17339,-13.56
17350,-14.87
17362,-16.29
17374,-17.68
17386,-18.79
17398,-19.3
17410,-18.94
17422,-17.59
17434,-15.32
17446,-12.4
17458,-9.17
17470,-5.94
17482,-2.93
17494,-0.22
17506,2.2
17518,4.32
17529,6.11
17540,7.51
17552,8.47
17564,8.98
17576,9.14
17588,9.04
17600,8.84
17612,8.7
17624,8.71
17636,8.9
17648,9.21
17660,9.54
17672,9.76
17684,9.8
17696,9.66
17708,9.44
17719,9.24
17730,9.13
17742,9.07
17754,8.97
17766,8.73
17778,8.29
17790,7.7
17802,7.01
17814,6.31
17826,5.6
17838,4.89
17850,4.14
17862,3.36
17874,2.58
17886,1.9
17898,1.37
17909,0.97
17920,0.6
17932,0.07
17944,-0.77
17956,-1.93
17968,-3.3
17980,-4.68
17992,-5.87
18004,-6.79
18016,-7.51
18028,-8.26
18040,-9.27
18052,-10.7
18064,-12.51
18076,-14.47
18088,-16.27
18099,-17.55
18110,-18.03
18122,-17.57
18134,-16.16
18146,-13.93
18158,-11.09
18170,-7.94
18182,-4.75
18194,-1.76
18206,0.85
18218,2.96
18230,4.53
18242,5.58
18254,6.23
18266,6.61
18278,6.88
18289,7.11
18300,7.32
18312,7.42
18324,7.32
18336,6.97
18348,6.45
18360,5.95
18372,5.64
18384,5.66
18396,5.98
18408,6.45
18420,6.9
18432,7.21
18444,7.38
18456,7.47
18468,7.55
18479,7.59
18490,7.5
18502,7.17
18514,6.54
18526,5.64
18538,4.57
18550,3.48
18562,2.49
18574,1.67
18586,0.99
18598,0.37
18610,-0.32
18622,-1.2
18634,-2.32
18646,-3.68
18658,-5.16
18669,-6.66
18680,-8.07
18692,-9.45
18704,-10.91
18716,-12.55
18728,-14.3
18740,-15.85
18752,-16.75
18764,-16.53
18776,-15.0
18788,-12.27
18800,-8.75
18812,-4.98
18824,-1.42
18836,1.64
18848,4.08
18859,5.9
18870,7.17
18882,7.98
18894,8.42
18906,8.58
18918,8.55
18930,8.36
18942,8.03
18954,7.61
18966,7.18
18978,6.87
18990,6.78
19002,6.96
19014,7.34
19026,7.79
19038,8.18
19049,8.43
19060,8.54
19072,8.52
19084,8.37
19096,8.07
19108,7.57
19120,6.9
19132,6.14
19144,5.44
19156,4.93
19168,4.67
19180,4.59
19192,4.51
19204,4.22
19216,3.58
19228,2.56
19239,1.22
19250,-0.3
19262,-1.86
19274,-3.35
19286,-4.7
19298,-5.89
19310,-6.89
19322,-7.72
19334,-8.41
19346,-9.09
19358,-9.88
19370,-10.94
19382,-12.33
19394,-14.05
19406,-15.94
19418,-17.7
19429,-18.97
19440,-19.35
19452,-18.54
19464,-16.45
19476,-13.25
19488,-9.36
19500,-5.27
19512,-1.43
19524,1.91
19536,4.69
19548,6.98
19560,8.8
19572,10.09
19584,10.75
19596,10.72
19608,10.1
19619,9.12
19630,8.08
19642,7.23
19654,6.65
19666,6.28
19678,5.91
19690,5.39
19702,4.62
19714,3.65
19726,2.61
19738,1.58
19750,0.54
19762,-0.63
19774,-2.1
19786,-3.97
19798,-6.25
19809,-8.81
19820,-11.45
19832,-13.91
19844,-15.97
19856,-17.48
19868,-18.41
19880,-18.8
19892,-18.85
19904,-18.8
19916,-18.9
19928,-19.28
19940,-19.89
19952,-20.5
19964,-20.81
19976,-20.67
19988,-20.08
19999,-19.29
20010,-18.56
20022,-18.09
20034,-17.92
20046,-17.89
20058,-17.89
20070,-17.83
20082,-17.77
20094,-17.67
20106,-17.33
20118,-16.3
20130,-13.96
20142,-9.85
20154,-3.84
20166,3.66
20178,11.89
20189,19.9
20200,26.91
20212,32.44
20224,36.38
20236,38.87
20248,40.22
20260,40.73
20272,40.63
20284,40.15
20296,39.44
20308,38.59
20320,37.68
20332,36.75
20344,35.78
20356,34.78
20368,33.72
20379,32.53
20390,31.16
20402,29.63
20414,28.04
20426,26.59
20438,25.48
20450,24.85
20462,24.67
20474,24.74
20486,24.78
20498,24.56
20510,23.99
20522,23.14
20534,22.2
20546,21.29
20558,20.46
20569,19.59
20580,18.52
20592,17.15
20604,15.49
20616,13.68
20628,11.91
20640,10.32
20652,8.9
20664,7.57
20676,6.2
20688,4.71
20700,3.15
20712,1.68
20724,0.42
20736,-0.53
20748,-1.18
20759,-1.55
20770,-1.6
20782,-1.22
20794,-0.31
20806,1.11
20818,2.82
20830,4.48
20842,5.77
20854,6.5
20866,6.68
20878,6.46
20890,6.01
20902,5.42
20914,4.75
20926,4.0
20938,3.22
20949,2.48
20960,1.86
20972,1.42
20984,1.21
20996,1.24
