seconds,BVP
4,7.8
16,12.52
28,16.91
40,20.77
52,23.79
64,25.91
76,27.4
88,28.71
100,30.23
111,32.09
122,34.21
134,36.4
146,38.59
158,40.9
170,43.51
182,46.52
194,49.75
206,52.74
218,54.81
230,55.39
242,54.2
254,51.35
266,47.3
278,42.68
290,38.02
301,33.61
312,29.42
324,25.17
336,20.54
348,15.32
360,9.54
372,3.5
384,-2.42
396,-7.89
408,-12.87
420,-17.59
432,-22.49
444,-27.96
456,-34.14
468,-40.83
480,-47.61
491,-54.02
502,-59.81
514,-65.1
526,-70.39
538,-76.37
550,-83.71
562,-92.68
574,-102.99
586,-113.59
598,-122.84
610,-128.83
622,-129.88
634,-125.04
646,-114.36
658,-98.85
670,-80.2
681,-60.26
692,-40.61
704,-22.28
716,-5.78
728,8.83
740,21.68
752,32.93
764,42.69
776,50.96
788,57.74
800,63.07
812,67.12
824,70.22
836,72.75
848,75.06
860,77.35
871,79.66
882,81.89
894,83.89
906,85.55
918,86.74
930,87.31
942,87.09
954,85.84
966,83.37
978,79.66
990,74.9
1002,69.53
1014,64.07
1026,58.93
1038,54.28
1050,49.98
1061,45.67
1072,40.9
1084,35.38
1096,29.06
1108,22.26
1120,15.48
1132,9.22
1144,3.75
1156,-0.99
1168,-5.46
1180,-10.22
1192,-15.8
1204,-22.4
1216,-29.81
1228,-37.54
1240,-45.0
1251,-51.86
1262,-58.15
1274,-64.3
1286,-71.01
1298,-78.98
1310,-88.68
1322,-100.14
1334,-112.69
1346,-124.91
1358,-134.8
1370,-140.17
1382,-139.25
1394,-131.26
1406,-116.69
1418,-97.23
1430,-75.25
1441,-53.11
1452,-32.6
1464,-14.64
1476,0.64
1488,13.56
1500,24.56
1512,33.89
1524,41.63
1536,47.75
1548,52.32
1560,55.6
1572,58.07
1584,60.27
1596,62.61
1608,65.28
1620,68.23
1631,71.24
1642,74.13
1654,76.78
1666,79.15
1678,81.2
1690,82.76
1702,83.53
1714,83.2
1726,81.58
1738,78.73
1750,75.01
1762,70.95
1774,67.08
1786,63.72
1798,60.89
1810,58.35
1821,55.7
1832,52.56
1844,48.73
1856,44.22
1868,39.31
1880,34.41
1892,29.93
1904,26.14
1916,23.02
1928,20.29
1940,17.41
1952,13.81
1964,9.13
1976,3.34
1988,-3.32
2000,-10.35
2011,-17.34
2022,-24.11
2034,-30.79
2046,-37.79
2058,-45.68
2070,-55.0
2082,-66.01
2094,-78.44
2106,-91.32
2118,-102.97
2130,-111.24
2142,-114.06
2154,-110.1
2166,-99.28
2178,-82.85
2190,-63.12
2201,-42.69
2212,-23.76
2224,-7.64
2236,5.37
2248,15.66
2260,23.89
2272,30.59
2284,36.02
2296,40.23
2308,43.18
2320,44.96
2332,45.73
2344,45.73
2356,45.2
2368,44.32
2380,43.33
2391,42.51
2402,42.26
2414,42.88
2426,44.5
2438,46.92
2450,49.6
2462,51.83
2474,53.0
2486,52.77
2498,51.22
2510,48.76
2522,45.97
2534,43.36
2546,41.24
2558,39.6
2570,38.25
2581,36.85
2592,35.14
2604,32.99
2616,30.47
2628,27.77
2640,25.09
2652,22.51
2664,19.94
2676,17.16
2688,13.92
2700,10.08
2712,5.68
2724,0.91
2736,-3.95
2748,-8.68
2760,-13.25
2771,-17.86
2782,-22.84
2794,-28.66
2806,-35.66
2818,-43.88
2830,-52.86
2842,-61.48
2854,-68.11
2866,-70.9
2878,-68.34
2890,-59.84
2902,-46.07
2914,-28.87
2926,-10.74
2938,5.9
2950,19.38
2961,29.1
2972,35.33
2984,38.84
2996,40.39
3008,40.53
3020,39.6
3032,37.89
3044,35.77
3056,33.67
3068,32.0
3080,30.95
3092,30.52
3104,30.53
3116,30.75
3128,31.05
3140,31.4
3151,31.88
3162,32.53
3174,33.37
3186,34.25
3198,34.96
3210,35.21
3222,34.73
3234,33.35
3246,31.1
3258,28.17
3270,24.83
3282,21.37
3294,17.96
3306,14.67
3318,11.44
3330,8.18
3341,4.76
3352,1.01
3364,-3.16
3376,-7.81
3388,-12.81
3400,-17.9
3412,-22.75
3424,-27.12
3436,-30.99
3448,-34.59
3460,-38.42
3472,-43.02
3484,-48.91
3496,-56.34
3508,-65.18
3520,-74.76
3531,-83.76
3542,-90.42
3554,-92.84
3566,-89.64
3578,-80.48
3590,-66.26
3602,-48.91
3614,-30.77
3626,-13.85
3638,0.63
3650,12.37
3662,21.74
3674,29.35
3686,35.66
3698,40.92
3710,45.1
3721,48.19
3732,50.24
3744,51.45
3756,52.09
3768,52.44
3780,52.66
3792,52.83
3804,52.96
3816,53.07
3828,53.18
3840,53.31
3852,53.39
3864,53.2
3876,52.44
3888,50.87
3900,48.42
3911,45.22
3922,41.59
3934,37.83
3946,34.12
3958,30.46
3970,26.78
3982,23.0
3994,19.14
4006,15.29
4018,11.53
4030,7.84
4042,4.07
4054,0.05
4066,-4.42
4078,-9.34
4090,-14.6
4101,-19.94
4112,-25.11
4124,-29.94
4136,-34.44
4148,-38.75
4160,-43.17
4172,-48.1
4184,-54.0
4196,-61.2
4208,-69.68
4220,-78.83
4232,-87.31
4244,-93.28
4256,-94.86
4268,-90.72
4280,-80.67
4291,-65.7
4302,-47.75
4314,-29.08
4326,-11.64
4338,3.35
4350,15.45
4362,24.84
4374,31.96
4386,37.35
4398,41.41
4410,44.47
4422,46.75
4434,48.38
4446,49.47
4458,50.08
4470,50.31
4481,50.27
4492,50.08
4504,49.86
4516,49.69
4528,49.61
4540,49.59
4552,49.54
4564,49.31
4576,48.74
4588,47.64
4600,45.89
4612,43.46
4624,40.43
4636,36.99
4648,33.34
4660,29.61
4671,25.89
4682,22.16
4694,18.41
4706,14.69
4718,11.07
4730,7.62
4742,4.35
4754,1.12
4766,-2.3
4778,-6.16
4790,-10.57
4802,-15.49
4814,-20.68
4826,-25.8
4838,-30.63
4850,-35.1
4861,-39.37
4872,-43.82
4884,-48.89
4896,-55.01
4908,-62.37
4920,-70.81
4932,-79.56
4944,-87.33
4956,-92.4
4968,-93.15
4980,-88.53
4992,-78.51
5004,-64.17
5016,-47.41
5028,-30.32
5040,-14.62
5051,-1.23
5062,9.71
5074,18.58
5086,25.88
5098,31.93
5110,36.82
5122,40.51
5134,43.0
5146,44.44
5158,45.1
5170,45.31
5182,45.35
5194,45.37
5206,45.42
5218,45.51
5230,45.62
5241,45.78
5252,45.96
5264,46.05
5276,45.86
5288,45.13
5300,43.71
5312,41.57
5324,38.9
5336,35.95
5348,32.91
5360,29.86
5372,26.69
5384,23.25
5396,19.51
5408,15.54
5420,11.57
5431,7.84
5442,4.45
5454,1.31
5466,-1.83
5478,-5.26
5490,-9.15
5502,-13.48
5514,-18.04
5526,-22.52
5538,-26.72
5550,-30.57
5562,-34.3
5574,-38.27
5586,-42.94
5598,-48.68
5610,-55.65
5621,-63.64
5632,-71.96
5644,-79.38
5656,-84.38
5668,-85.48
5680,-81.73
5692,-73.08
5704,-60.5
5716,-45.68
5728,-30.52
5740,-16.55
5752,-4.61
5764,5.2
5776,13.22
5788,19.89
5800,25.46
5811,29.97
5822,33.32
5834,35.47
5846,36.62
5858,37.11
5870,37.39
5882,37.76
5894,38.33
5906,39.01
5918,39.63
5930,40.07
5942,40.33
5954,40.49
5966,40.62
5978,40.64
5990,40.38
6001,39.6
6012,38.11
6024,35.9
6036,33.1
6048,29.95
6060,26.68
6072,23.42
6084,20.24
6096,17.12
6108,14.04
6120,10.97
6132,7.9
6144,4.73
6156,1.34
6168,-2.41
6180,-6.58
6191,-11.14
6202,-15.9
6214,-20.64
6226,-25.13
6238,-29.3
6250,-33.24
6262,-37.19
6274,-41.47
6286,-46.45
6298,-52.44
6310,-59.55
6322,-67.5
6334,-75.52
6346,-82.26
6358,-86.11
6370,-85.65
6381,-80.11
6392,-69.71
6404,-55.65
6416,-39.71
6428,-23.76
6440,-9.2
6452,3.24
6464,13.42
6476,21.61
6488,28.17
6500,33.35
6512,37.29
6524,40.06
6536,41.76
6548,42.55
6560,42.69
6571,42.5
6582,42.27
6594,42.18
6606,42.27
6618,42.43
6630,42.49
6642,42.29
6654,41.77
6666,41.0
6678,40.08
6690,39.04
6702,37.84
6714,36.33
6726,34.34
6738,31.76
6750,28.65
6761,25.19
6772,21.65
6784,18.25
6796,15.18
6808,12.44
6820,9.96
6832,7.56
6844,5.0
6856,2.07
6868,-1.37
6880,-5.3
6892,-9.58
6904,-13.94
6916,-18.1
6928,-21.92
6940,-25.4
6951,-28.76
6962,-32.34
6974,-36.56
6986,-41.83
6998,-48.42
7010,-56.34
7022,-65.09
7034,-73.61
7046,-80.33
7058,-83.56
7070,-81.98
7082,-75.17
7094,-63.81
7106,-49.47
7118,-34.11
7130,-19.43
7141,-6.49
7152,4.34
7164,13.23
7176,20.5
7188,26.34
7200,30.77
7212,33.77
7224,35.38
7236,35.81
7248,35.46
7260,34.75
7272,34.05
7284,33.52
7296,33.17
7308,32.88
7320,32.58
7331,32.25
7342,31.94
7354,31.69
7366,31.44
7378,30.98
7390,30.02
7402,28.31
7414,25.75
7426,22.47
7438,18.82
7450,15.22
7462,12.0
7474,9.27
7486,6.82
7498,4.23
7510,1.08
7521,-2.82
7532,-7.31
7544,-11.93
7556,-16.1
7568,-19.39
7580,-21.74
7592,-23.52
7604,-25.44
7616,-28.28
7628,-32.73
7640,-39.06
7652,-47.03
7664,-55.76
7676,-63.84
7688,-69.62
7700,-71.66
7711,-69.21
7722,-62.44
7734,-52.51
7746,-41.05
7758,-29.74
7770,-19.74
7782,-11.56
7794,-5.12
7806,-0.1
7818,3.77
7830,6.62
7842,8.41
7854,9.22
7866,9.28
7878,8.98
7890,8.8
7901,9.11
7912,10.06
7924,11.6
7936,13.5
7948,15.52
7960,17.47
7972,19.23
7984,20.77
7996,22.06
8008,23.01
8020,23.48
8032,23.26
8044,22.17
8056,20.13
8068,17.23
8080,13.74
8091,10.09
8102,6.7
8114,3.82
8126,1.46
8138,-0.69
8150,-3.07
8162,-6.1
8174,-9.97
8186,-14.56
8198,-19.49
8210,-24.34
8222,-28.83
8234,-32.98
8246,-37.06
8258,-41.54
8270,-46.89
8281,-53.44
8292,-61.22
8304,-69.81
8316,-78.28
8328,-85.31
8340,-89.39
8352,-89.3
8364,-84.47
8376,-75.2
8388,-62.63
8400,-48.36
8412,-34.0
8424,-20.71
8436,-9.11
8448,0.76
8460,9.12
8471,16.25
8482,22.29
8494,27.2
8506,30.85
8518,33.2
8530,34.4
8542,34.84
8554,35.04
8566,35.48
8578,36.37
8590,37.65
8602,39.05
8614,40.23
8626,41.02
8638,41.41
8650,41.53
8661,41.48
8672,41.23
8684,40.61
8696,39.34
8708,37.24
8720,34.34
8732,30.82
8744,27.04
8756,23.33
8768,19.87
8780,16.65
8792,13.45
8804,9.97
8816,5.94
8828,1.22
8840,-4.12
8851,-9.82
8862,-15.54
8874,-20.93
8886,-25.78
8898,-30.09
8910,-34.09
8922,-38.16
8934,-42.77
8946,-48.35
8958,-55.21
8970,-63.31
8982,-72.23
8994,-81.04
9006,-88.36
9018,-92.63
9030,-92.51
9041,-87.3
9052,-77.25
9064,-63.55
9076,-47.94
9088,-32.25
9100,-17.8
9112,-5.23
9124,5.48
9136,14.73
9148,22.9
9160,30.18
9172,36.49
9184,41.59
9196,45.29
9208,47.55
9220,48.61
9231,48.84
9242,48.69
9254,48.49
9266,48.45
9278,48.58
9290,48.77
9302,48.91
9314,48.88
9326,48.65
9338,48.21
9350,47.56
9362,46.64
9374,45.33
9386,43.53
9398,41.19
9410,38.32
9421,35.02
9432,31.41
9444,27.64
9456,23.87
9468,20.18
9480,16.64
9492,13.19
9504,9.71
9516,5.98
9528,1.78
9540,-2.98
9552,-8.24
9564,-13.75
9576,-19.14
9588,-24.13
9600,-28.62
9611,-32.77
9622,-36.97
9634,-41.75
9646,-47.62
9658,-54.87
9670,-63.37
9682,-72.44
9694,-80.83
9706,-86.89
9718,-89.04
9730,-86.22
9742,-78.28
9754,-66.14
9766,-51.44
9778,-36.09
9790,-21.69
9801,-9.14
9812,1.37
9824,10.18
9836,17.75
9848,24.44
9860,30.34
9872,35.34
9884,39.33
9896,42.25
9908,44.25
9920,45.6
9932,46.65
9944,47.67
9956,48.78
9968,49.96
9980,51.11
9991,52.12
10002,52.94
10014,53.59
10026,54.07
10038,54.29
10050,54.08
10062,53.2
10074,51.49
10086,48.95
10098,45.75
10110,42.17
10122,38.49
10134,34.86
10146,31.27
10158,27.62
10170,23.84
10181,19.91
10192,15.87
10204,11.7
10216,7.33
10228,2.63
10240,-2.53
10252,-8.11
10264,-13.94
10276,-19.76
10288,-25.34
10300,-30.64
10312,-35.84
10324,-41.32
10336,-47.5
10348,-54.73
10360,-63.1
10371,-72.36
10382,-81.79
10394,-90.19
10406,-96.08
10418,-98.0
10430,-94.95
10442,-86.73
10454,-74.11
10466,-58.61
10478,-42.02
10490,-25.92
10502,-11.32
10514,1.42
10526,12.36
10538,21.65
10550,29.34
10561,35.27
10572,39.28
10584,41.36
10596,41.88
10608,41.47
10620,40.9
10632,40.79
10644,41.41
10656,42.66
10668,44.2
10680,45.65
10692,46.8
10704,47.6
10716,48.13
10728,48.37
10740,48.19
10751,47.32
10762,45.5
10774,42.64
10786,38.89
10798,34.62
10810,30.24
10822,26.06
10834,22.13
10846,18.3
10858,14.3
10870,9.94
10882,5.28
10894,0.58
10906,-3.79
10918,-7.54
10930,-10.65
10941,-13.4
10952,-16.29
10964,-19.88
10976,-24.67
10988,-30.83
11000,-38.13
11012,-45.82
11024,-52.71
11036,-57.35
11048,-58.44
11060,-55.19
11072,-47.67
11084,-36.84
11096,-24.21
11108,-11.48
11120,0.03
11131,9.58
11142,17.06
11154,22.68
11166,26.79
11178,29.68
11190,31.55
11202,32.57
11214,32.95
11226,32.95
11238,32.88
11250,32.95
11262,33.26
11274,33.72
11286,34.18
11298,34.44
11310,34.47
11321,34.34
11332,34.23
11344,34.23
11356,34.23
11368,33.92
11380,32.92
11392,30.95
11404,28.01
11416,24.41
11428,20.62
11440,17.1
11452,14.07
11464,11.44
11476,8.91
11488,6.05
11500,2.58
11511,-1.61
11522,-6.35
11534,-11.28
11546,-16.06
11558,-20.42
11570,-24.35
11582,-28.03
11594,-31.9
11606,-36.47
11618,-42.16
11630,-49.12
11642,-56.97
11654,-64.72
11666,-70.87
11678,-73.84
11690,-72.42
11701,-66.26
11712,-56.04
11724,-43.23
11736,-29.6
11748,-16.66
11760,-5.27
11772,4.35
11784,12.41
11796,19.15
11808,24.66
11820,28.9
11832,31.8
11844,33.48
11856,34.26
11868,34.61
11880,34.94
11891,35.43
11902,35.98
11914,36.37
11926,36.37
11938,35.99
11950,35.43
11962,35.0
11974,34.91
11986,35.16
11998,35.43
12010,35.23
12022,34.12
12034,31.84
12046,28.47
12058,24.42
12070,20.21
12081,16.29
12092,12.9
12104,9.94
12116,7.11
12128,4.04
12140,0.43
12152,-3.79
12164,-8.44
12176,-13.23
12188,-17.84
12200,-22.05
12212,-25.87
12224,-29.48
12236,-33.21
12248,-37.51
12260,-42.76
12271,-49.18
12282,-56.57
12294,-64.23
12306,-70.94
12318,-75.18
12330,-75.6
12342,-71.42
12354,-62.83
12366,-50.92
12378,-37.34
12390,-23.74
12402,-11.38
12414,-0.79
12426,8.02
12438,15.34
12450,21.41
12461,26.34
12472,30.13
12484,32.74
12496,34.29
12508,35.04
12520,35.3
12532,35.38
12544,35.41
12556,35.41
12568,35.25
12580,34.84
12592,34.18
12604,33.41
12616,32.76
12628,32.4
12640,32.3
12651,32.15
12662,31.46
12674,29.79
12686,26.97
12698,23.21
12710,19.07
12722,15.21
12734,12.06
12746,9.71
12758,7.79
12770,5.74
12782,2.98
12794,-0.77
12806,-5.42
12818,-10.52
12830,-15.53
12841,-20.0
12852,-23.76
12864,-27.01
12876,-30.17
12888,-33.75
12900,-38.24
12912,-43.92
12924,-50.76
12936,-58.31
12948,-65.62
12960,-71.34
12972,-74.02
12984,-72.52
12996,-66.46
13008,-56.4
13020,-43.73
13031,-30.24
13042,-17.53
13054,-6.61
13066,2.2
13078,9.13
13090,14.56
13102,18.78
13114,21.85
13126,23.72
13138,24.41
13150,24.07
13162,23.05
13174,21.73
13186,20.45
13198,19.39
13210,18.58
13221,17.97
13232,17.51
13244,17.16
13256,16.91
13268,16.68
13280,16.36
13292,15.75
13304,14.64
13316,12.89
13328,10.47
13340,7.51
13352,4.32
13364,1.29
13376,-1.21
13388,-2.99
13400,-4.13
13411,-4.97
13422,-6.04
13434,-7.79
13446,-10.44
13458,-13.87
13470,-17.64
13482,-21.22
13494,-24.19
13506,-26.49
13518,-28.41
13530,-30.52
13542,-33.42
13554,-37.56
13566,-43.06
13578,-49.64
13590,-56.64
13601,-63.0
13612,-67.51
13624,-68.99
13636,-66.66
13648,-60.34
13660,-50.58
13672,-38.49
13684,-25.47
13696,-12.8
13708,-1.41
13720,8.27
13732,16.21
13744,22.58
13756,27.58
13768,31.33
13780,33.9
13791,35.36
13802,35.88
13814,35.76
13826,35.37
13838,35.05
13850,35.03
13862,35.38
13874,36.03
13886,36.86
13898,37.73
13910,38.52
13922,39.04
13934,39.09
13946,38.43
13958,36.89
13970,34.43
13981,31.24
13992,27.62
14004,23.97
14016,20.57
14028,17.56
14040,14.87
14052,12.27
14064,9.49
14076,6.29
14088,2.61
14100,-1.44
14112,-5.59
14124,-9.55
14136,-13.11
14148,-16.32
14160,-19.44
14171,-22.96
14182,-27.35
14194,-32.91
14206,-39.53
14218,-46.54
14230,-52.76
14242,-56.78
14254,-57.33
14266,-53.72
14278,-46.11
14290,-35.48
14302,-23.33
14314,-11.21
14326,-0.29
14338,8.84
14350,16.15
14361,21.86
14372,26.24
14384,29.4
14396,31.38
14408,32.18
14420,31.92
14432,30.89
14444,29.5
14456,28.14
14468,27.08
14480,26.38
14492,25.93
14504,25.55
14516,25.11
14528,24.6
14540,24.1
14551,23.68
14562,23.26
14574,22.61
14586,21.4
14598,19.41
14610,16.67
14622,13.49
14634,10.3
14646,7.44
14658,4.98
14670,2.64
14682,-0.0
14694,-3.3
14706,-7.33
14718,-11.85
14730,-16.39
14741,-20.5
14752,-23.94
14764,-26.81
14776,-29.47
14788,-32.47
14800,-36.35
14812,-41.49
14824,-47.92
14836,-55.17
14848,-62.27
14860,-67.85
14872,-70.44
14884,-68.92
14896,-62.93
14908,-52.99
14920,-40.41
14931,-26.84
14942,-13.8
14954,-2.3
14966,7.31
14978,15.14
14990,21.5
15002,26.66
15014,30.7
15026,33.63
15038,35.49
15050,36.44
15062,36.82
15074,37.02
15086,37.33
15098,37.85
15110,38.44
15121,38.88
15132,39.02
15144,38.86
15156,38.6
15168,38.49
15180,38.65
15192,38.93
15204,38.93
15216,38.16
15228,36.25
15240,33.17
15252,29.23
15264,24.95
15276,20.83
15288,17.12
15300,13.76
15311,10.49
15322,7.0
15334,3.1
15346,-1.16
15358,-5.58
15370,-9.89
15382,-13.85
15394,-17.4
15406,-20.63
15418,-23.85
15430,-27.5
15442,-32.06
15454,-37.91
15466,-45.04
15478,-52.92
15490,-60.43
15501,-66.04
15512,-68.22
15524,-65.95
15536,-59.04
15548,-48.25
15560,-35.04
15572,-21.09
15584,-7.77
15596,4.16
15608,14.59
15620,23.79
15632,32.11
15644,39.63
15656,46.12
15668,51.14
15680,54.37
15691,55.81
15702,55.89
15714,55.34
15726,54.92
15738,55.09
15750,55.89
15762,57.02
15774,58.06
15786,58.73
15798,58.99
15810,59.03
15822,59.04
15834,59.04
15846,58.74
15858,57.65
15870,55.29
15881,51.47
15892,46.4
15904,40.65
15916,34.96
15928,29.84
15940,25.42
15952,21.41
15964,17.33
15976,12.8
15988,7.8
16000,2.67
16012,-2.04
16024,-5.85
16036,-8.59
16048,-10.41
16060,-11.62
16071,-12.5
16082,-13.19
16094,-13.76
16106,-14.3
16118,-15.09
16130,-16.38
16142,-18.29
16154,-20.5
16166,-22.26
16178,-22.63
16190,-20.86
16202,-16.82
16214,-11.04
16226,-4.45
16238,1.99
16250,7.74
16261,12.63
16272,16.8
16284,20.25
16296,22.73
16308,23.79
16320,23.09
16332,20.6
16344,16.81
16356,12.49
16368,8.49
16380,5.42
16392,3.45
16404,2.39
16416,1.78
16428,1.11
16440,0.02
16451,-1.6
16462,-3.62
16474,-5.77
16486,-7.8
16498,-9.61
16510,-11.34
16522,-13.22
16534,-15.51
16546,-18.28
16558,-21.36
16570,-24.44
16582,-27.18
16594,-29.41
16606,-31.18
16618,-32.76
16630,-34.51
16641,-36.71
16652,-39.51
16664,-42.85
16676,-46.53
16688,-50.22
16700,-53.65
16712,-56.71
16724,-59.5
16736,-62.4
16748,-66.0
16760,-70.93
16772,-77.66
16784,-86.18
16796,-95.78
16808,-105.0
16820,-111.9
16831,-114.64
16842,-112.13
16854,-104.45
16866,-92.85
16878,-79.29
16890,-65.68
16902,-53.22
16914,-42.18
16926,-32.14
16938,-22.45
16950,-12.84
16962,-3.51
16974,4.96
16986,11.99
16998,17.37
17010,21.41
17021,24.94
17032,29.17
17044,35.5
17056,45.34
17068,59.81
17080,79.22
17092,102.66
17104,127.83
17116,151.32
17128,169.52
17140,179.66
17152,180.73
17164,173.69
17176,161.02
17188,145.7
17200,130.33
17211,116.5
17222,104.93
17234,95.71
17246,88.69
17258,83.65
17270,80.23
17282,77.84
17294,75.72
17306,73.16
17318,69.66
17330,65.07
17342,59.48
17354,52.95
17366,45.36
17378,36.35
17390,25.5
17401,12.49
17412,-2.66
17424,-19.6
17436,-37.64
17448,-55.95
17460,-73.62
17472,-89.89
17484,-104.21
17496,-116.27
17508,-125.98
17520,-133.34
17532,-138.34
17544,-140.87
17556,-140.83
17568,-138.17
17580,-133.06
17591,-125.89
17602,-117.17
17614,-107.38
17626,-96.86
17638,-85.84
17650,-74.51
17662,-63.17
17674,-52.2
17686,-42.0
17698,-32.92
17710,-25.12
17722,-18.7
17734,-13.72
17746,-10.32
17758,-8.66
17770,-8.74
17781,-10.23
17792,-12.51
17804,-14.85
17816,-16.62
17828,-17.61
17840,-18.05
17852,-18.42
17864,-19.2
17876,-20.67
17888,-22.88
17900,-25.72
17912,-29.18
17924,-33.4
17936,-38.62
17948,-45.08
17960,-52.84
17971,-61.62
17982,-70.87
17994,-79.9
18006,-88.0
18018,-94.65
18030,-99.6
18042,-102.73
18054,-103.92
18066,-102.9
18078,-99.28
18090,-92.71
18102,-83.2
18114,-71.25
18126,-57.91
18138,-44.5
18150,-32.42
18161,-22.87
18172,-16.9
18184,-15.47
18196,-19.43
18208,-29.31
18220,-44.84
18232,-64.67
18244,-86.47
18256,-107.47
18268,-125.34
18280,-138.89
18292,-148.1
18304,-153.65
18316,-156.15
18328,-155.54
18340,-151.2
18351,-142.55
18362,-129.86
18374,-114.6
18386,-99.14
18398,-85.93
18410,-76.6
18422,-71.45
18434,-69.57
18446,-69.46
18458,-69.68
18470,-69.31
18482,-67.97
18494,-65.71
18506,-62.78
18518,-59.6
18530,-56.79
18541,-55.16
18552,-55.65
18564,-59.03
18576,-65.51
18588,-74.49
18600,-84.51
18612,-93.47
18624,-99.08
18636,-99.44
18648,-93.5
18660,-81.29
18672,-63.88
18684,-43.03
18696,-20.76
18708,1.14
18720,21.48
18731,39.74
18742,55.97
18754,70.53
18766,83.72
18778,95.54
18790,105.69
18802,113.75
18814,119.45
18826,122.94
18838,124.81
18850,125.85
18862,126.77
18874,127.98
18886,129.46
18898,131.01
18910,132.35
18921,133.32
18932,133.85
18944,133.87
18956,133.23
18968,131.76
18980,129.33
18992,125.92
19004,121.68
19016,116.81
19028,111.44
19040,105.62
19052,99.32
19064,92.54
19076,85.37
19088,78.01
19100,70.73
19111,63.69
19122,56.94
19134,50.32
19146,43.5
19158,36.05
19170,27.56
19182,17.77
19194,6.74
19206,-4.97
19218,-16.23
19230,-25.51
19242,-31.24
19254,-32.23
19266,-28.1
19278,-19.39
19290,-7.4
19301,6.25
19312,20.13
19324,33.3
19336,45.41
19348,56.52
19360,66.77
19372,76.13
19384,84.35
19396,91.03
19408,95.82
19420,98.65
19432,99.75
19444,99.59
19456,98.68
19468,97.44
19480,96.11
19491,94.71
19502,93.22
19514,91.6
19526,89.9
19538,88.18
19550,86.39
19562,84.36
19574,81.83
19586,78.53
19598,74.36
19610,69.5
19622,64.31
19634,59.24
19646,54.59
19658,50.38
19670,46.36
19681,42.17
19692,37.5
19704,32.31
19716,26.79
19728,21.3
19740,16.17
19752,11.55
19764,7.37
19776,3.33
19788,-1.02
19800,-6.11
19812,-12.27
19824,-19.53
19836,-27.49
19848,-35.26
19860,-41.61
19871,-45.2
19882,-44.99
19894,-40.48
19906,-31.95
19918,-20.37
19930,-7.13
19942,6.37
19954,19.02
19966,30.16
19978,39.56
19990,47.29
20002,53.42
20014,57.99
20026,60.95
20038,62.29
20050,62.13
20061,60.84
20072,58.91
20084,56.85
20096,55.01
20108,53.54
20120,52.37
20132,51.38
20144,50.43
20156,49.41
20168,48.27
20180,46.9
20192,45.2
20204,43.03
20216,40.34
20228,37.17
20240,33.69
20251,30.09
20262,26.55
20274,23.16
20286,19.94
20298,16.95
20310,14.31
20322,12.24
20334,10.97
20346,10.61
20358,11.1
20370,12.24
20382,13.85
20394,15.8
20406,18.1
20418,20.88
20430,24.26
20441,28.49
20452,34.0
20464,41.48
20476,51.79
20488,65.71
20500,83.63
20512,105.3
20524,129.79
20536,155.71
20548,181.52
20560,205.7
20572,226.83
20584,243.4
20596,253.8
20608,256.61
20620,250.99
20631,237.19
20642,216.64
20654,191.63
20666,164.69
20678,137.8
20690,112.0
20702,87.36
20714,63.36
20726,39.43
20738,15.36
20750,-8.57
20762,-31.68
20774,-53.14
20786,-72.15
20798,-88.18
20810,-101.02
20821,-110.85
20832,-118.1
20844,-123.39
20856,-127.27
20868,-130.14
20880,-132.2
20892,-133.53
20904,-134.14
20916,-134.06
20928,-133.35
20940,-132.12
20952,-130.48
20964,-128.62
20976,-126.81
20988,-125.38
