seconds,BVP
5,12.59
17,11.89
29,10.45
41,8.26
53,5.34
65,1.85
77,-1.97
89,-5.75
101,-9.12
113,-11.74
125,-13.51
137,-14.56
149,-15.25
160,-16.03
171,-17.28
183,-19.21
195,-21.78
207,-24.77
219,-27.84
231,-30.57
243,-32.49
255,-33.13
267,-32.13
279,-29.37
291,-25.04
303,-19.61
315,-13.73
327,-8.02
339,-2.87
350,1.52
361,5.14
373,8.01
385,10.12
397,11.48
409,12.11
421,12.16
433,11.81
445,11.24
457,10.56
469,9.73
481,8.65
493,7.24
505,5.52
517,3.63
529,1.73
540,-0.0
551,-1.49
563,-2.8
575,-4.11
587,-5.63
599,-7.54
611,-9.85
623,-12.34
635,-14.56
647,-15.97
659,-16.11
671,-14.78
683,-12.07
695,-8.36
707,-4.13
719,0.15
730,4.13
741,7.54
753,10.19
765,11.92
777,12.68
789,12.54
801,11.75
813,10.64
825,9.57
837,8.79
849,8.36
861,8.23
873,8.21
885,8.13
897,7.85
909,7.28
920,6.4
931,5.17
943,3.57
955,1.58
967,-0.83
979,-3.66
991,-6.87
1003,-10.4
1015,-14.03
1027,-17.46
1039,-20.25
1051,-21.86
1063,-21.8
1075,-19.77
1087,-15.78
1099,-10.21
1110,-3.74
1121,2.82
1133,8.75
1145,13.53
1157,16.92
1169,18.88
1181,19.51
1193,18.96
1205,17.41
1217,15.13
1229,12.49
1241,9.88
1253,7.7
1265,6.15
1277,5.27
1289,4.96
1300,5.07
1311,5.46
1323,6.04
1335,6.69
1347,7.21
1359,7.26
1371,6.5
1383,4.64
1395,1.6
1407,-2.49
1419,-7.32
1431,-12.44
1443,-17.3
1455,-21.31
1467,-23.86
1479,-24.45
1490,-22.81
1501,-18.99
1513,-13.34
1525,-6.43
1537,1.02
1549,8.36
1561,14.95
1573,20.27
1585,23.98
1597,25.89
1609,26.11
1621,24.95
1633,22.91
1645,20.51
1657,18.1
1669,15.89
1680,13.9
1691,12.08
1703,10.38
1715,8.79
1727,7.39
1739,6.28
1751,5.52
1763,5.13
1775,5.0
1787,4.91
1799,4.54
1811,3.58
1823,1.85
1835,-0.63
1847,-3.62
1859,-6.65
1870,-9.17
1881,-10.66
1893,-10.81
1905,-9.53
1917,-6.98
1929,-3.51
1941,0.47
1953,4.61
1965,8.68
1977,12.54
1989,16.08
2001,19.14
2013,21.51
2025,22.98
2037,23.46
2049,23.1
2060,22.24
2071,21.3
2083,20.58
2095,20.12
2107,19.64
2119,18.72
2131,17.03
2143,14.5
2155,11.38
2167,8.16
2179,5.29
2191,3.02
2203,1.35
2215,0.01
2227,-1.31
2239,-2.87
2250,-4.75
2261,-6.94
2273,-9.26
2285,-11.47
2297,-13.26
2309,-14.25
2321,-14.08
2333,-12.47
2345,-9.34
2357,-4.93
2369,0.26
2381,5.61
2393,10.54
2405,14.64
2417,17.72
2429,19.73
2440,20.76
2451,20.91
2463,20.33
2475,19.28
2487,18.08
2499,17.07
2511,16.49
2523,16.37
2535,16.47
2547,16.4
2559,15.75
2571,14.28
2583,11.98
2595,8.99
2607,5.57
2619,1.93
2630,-1.77
2641,-5.43
2653,-9.03
2665,-12.54
2677,-15.93
2689,-19.15
2701,-22.06
2713,-24.45
2725,-25.98
2737,-26.29
2749,-25.08
2761,-22.21
2773,-17.78
2785,-12.18
2797,-5.96
2809,0.23
2820,5.82
2831,10.38
2843,13.7
2855,15.72
2867,16.58
2879,16.43
2891,15.52
2903,14.15
2915,12.69
2927,11.53
2939,10.97
2951,11.17
2963,11.99
2975,13.11
2987,14.07
2999,14.53
3010,14.35
3021,13.61
3033,12.58
3045,11.54
3057,10.65
3069,9.93
3081,9.24
3093,8.38
3105,7.21
3117,5.72
3129,4.12
3141,2.76
3153,2.1
3165,2.54
3177,4.32
3189,7.5
3200,11.94
3211,17.45
3223,23.79
3235,30.72
3247,37.96
3259,45.16
3271,51.89
3283,57.7
3295,62.19
3307,65.09
3319,66.24
3331,65.69
3343,63.7
3355,60.69
3367,57.26
3379,54.06
3390,51.58
3401,49.95
3413,48.91
3425,47.89
3437,46.22
3449,43.37
3461,39.1
3473,33.48
3485,26.75
3497,19.24
3509,11.22
3521,2.86
3533,-5.72
3545,-14.43
3557,-23.09
3569,-31.38
3580,-38.84
3591,-44.94
3603,-49.25
3615,-51.6
3627,-52.16
3639,-51.35
3651,-49.63
3663,-47.33
3675,-44.53
3687,-41.13
3699,-37.06
3711,-32.4
3723,-27.45
3735,-22.65
3747,-18.45
3759,-15.17
3770,-13.0
3781,-12.04
3793,-12.25
3805,-13.51
3817,-15.52
3829,-17.89
3841,-20.1
3853,-21.68
3865,-22.3
3877,-21.89
3889,-20.63
3901,-18.92
3913,-17.23
3925,-16.02
3937,-15.66
3949,-16.36
3960,-18.16
3971,-21.0
3983,-24.62
3995,-28.65
4007,-32.57
4019,-35.82
4031,-37.93
4043,-38.63
4055,-37.85
4067,-35.77
4079,-32.73
4091,-29.05
4103,-25.07
4115,-21.03
4127,-17.14
4139,-13.61
4150,-10.66
4161,-8.49
4173,-7.26
4185,-7.0
4197,-7.58
4209,-8.78
4221,-10.31
4233,-11.92
4245,-13.44
4257,-14.82
4269,-16.08
4281,-17.28
4293,-18.44
4305,-19.52
4317,-20.51
4329,-21.39
4340,-22.24
4351,-23.13
4363,-24.13
4375,-25.23
4387,-26.23
4399,-26.84
4411,-26.67
4423,-25.47
4435,-23.17
4447,-19.94
4459,-16.1
4471,-11.95
4483,-7.7
4495,-3.41
4507,0.87
4519,5.04
4530,8.86
4541,11.97
4553,14.06
4565,15.02
4577,14.98
4589,14.29
4601,13.34
4613,12.43
4625,11.69
4637,11.03
4649,10.29
4661,9.29
4673,7.91
4685,6.15
4697,4.04
4709,1.67
4720,-0.96
4731,-3.84
4743,-6.97
4755,-10.23
4767,-13.29
4779,-15.69
4791,-16.91
4803,-16.53
4815,-14.41
4827,-10.76
4839,-6.04
4851,-0.86
4863,4.21
4875,8.7
4887,12.26
4899,14.69
4910,15.93
4921,16.03
4933,15.2
4945,13.72
4957,11.89
4969,9.96
4981,8.09
4993,6.42
5005,5.08
5017,4.19
5029,3.79
5041,3.81
5053,4.05
5065,4.22
5077,4.07
5089,3.49
5100,2.49
5111,1.14
5123,-0.49
5135,-2.36
5147,-4.35
5159,-6.2
5171,-7.52
5183,-7.88
5195,-7.02
5207,-4.97
5219,-2.03
5231,1.27
5243,4.41
5255,6.99
5267,8.8
5279,9.77
5290,9.91
5301,9.26
5313,7.91
5325,6.0
5337,3.69
5349,1.13
5361,-1.59
5373,-4.38
5385,-7.15
5397,-9.71
5409,-11.75
5421,-12.88
5433,-12.77
5445,-11.3
5457,-8.57
5469,-4.98
5480,-1.08
5491,2.49
5503,5.18
5515,6.58
5527,6.53
5539,5.15
5551,2.87
5563,0.34
5575,-1.73
5587,-2.83
5599,-2.77
5611,-1.79
5623,-0.4
5635,0.84
5647,1.52
5659,1.48
5670,0.83
5681,-0.18
5693,-1.24
5705,-2.02
5717,-2.2
5729,-1.51
5741,0.2
5753,2.84
5765,6.1
5777,9.53
5789,12.63
5801,15.03
5813,16.44
5825,16.72
5837,15.77
5849,13.55
5860,10.1
5871,5.57
5883,0.2
5895,-5.79
5907,-12.23
5919,-19.01
5931,-25.92
5943,-32.52
5955,-38.05
5967,-41.57
5979,-42.3
5991,-39.9
6003,-34.63
6015,-27.34
6027,-19.06
6039,-10.72
6050,-2.96
6061,3.9
6073,9.73
6085,14.36
6097,17.54
6109,19.07
6121,18.93
6133,17.43
6145,15.2
6157,13.04
6169,11.62
6181,11.27
6193,11.83
6205,12.72
6217,13.16
6229,12.48
6240,10.35
6251,6.91
6263,2.65
6275,-1.82
6287,-5.96
6299,-9.47
6311,-12.35
6323,-14.76
6335,-16.94
6347,-19.02
6359,-20.97
6371,-22.54
6383,-23.29
6395,-22.8
6407,-20.74
6419,-17.1
6430,-12.2
6441,-6.59
6453,-0.89
6465,4.44
6477,9.16
6489,13.15
6501,16.35
6513,18.6
6525,19.7
6537,19.51
6549,18.15
6561,15.99
6573,13.59
6585,11.47
6597,9.97
6609,9.17
6620,8.87
6631,8.79
6643,8.67
6655,8.38
6667,7.88
6679,7.24
6691,6.51
6703,5.74
6715,4.87
6727,3.79
6739,2.36
6751,0.45
6763,-1.95
6775,-4.75
6787,-7.6
6799,-10.02
6810,-11.42
6821,-11.31
6833,-9.44
6845,-5.89
6857,-1.08
6869,4.35
6881,9.75
6893,14.55
6905,18.35
6917,20.88
6929,22.05
6941,21.89
6953,20.67
6965,18.82
6977,16.86
6989,15.17
7000,13.95
7011,13.09
7023,12.4
7035,11.7
7047,10.96
7059,10.21
7071,9.48
7083,8.72
7095,7.74
7107,6.43
7119,4.75
7131,2.85
7143,0.9
7155,-0.99
7167,-2.84
7179,-4.78
7190,-6.89
7201,-9.09
7213,-11.05
7225,-12.32
7237,-12.45
7249,-11.2
7261,-8.6
7273,-5.02
7285,-1.01
7297,2.83
7309,6.04
7321,8.39
7333,9.82
7345,10.41
7357,10.25
7369,9.42
7380,8.03
7391,6.3
7403,4.6
7415,3.39
7427,3.04
7439,3.71
7451,5.22
7463,7.13
7475,8.86
7487,9.96
7499,10.21
7511,9.67
7523,8.54
7535,7.04
7547,5.2
7559,2.91
7570,-0.01
7581,-3.67
7593,-8.0
7605,-12.68
7617,-17.22
7629,-21.08
7641,-23.72
7653,-24.67
7665,-23.65
7677,-20.59
7689,-15.78
7701,-9.81
7713,-3.48
7725,2.41
7737,7.31
7749,10.99
7760,13.51
7771,15.0
7783,15.5
7795,14.95
7807,13.29
7819,10.65
7831,7.48
7843,4.45
7855,2.16
7867,0.94
7879,0.68
7891,1.0
7903,1.51
7915,2.0
7927,2.53
7939,3.26
7950,4.26
7961,5.37
7973,6.28
7985,6.63
7997,6.25
8009,5.13
8021,3.47
8033,1.54
8045,-0.41
8057,-2.09
8069,-3.2
8081,-3.39
8093,-2.43
8105,-0.35
8117,2.53
8129,5.51
8140,7.82
8151,8.79
8163,8.08
8175,5.8
8187,2.4
8199,-1.47
8211,-5.17
8223,-8.18
8235,-10.19
8247,-11.11
8259,-11.03
8271,-10.16
8283,-8.8
8295,-7.22
8307,-5.63
8319,-4.16
8330,-2.84
8341,-1.65
8353,-0.54
8365,0.53
8377,1.55
8389,2.46
8401,3.11
8413,3.35
8425,3.07
8437,2.22
8449,0.86
8461,-0.83
8473,-2.67
8485,-4.48
8497,-6.17
8509,-7.72
8520,-9.08
8531,-10.14
8543,-10.66
8555,-10.38
8567,-9.07
8579,-6.72
8591,-3.57
8603,-0.01
8615,3.5
8627,6.52
8639,8.78
8651,10.14
8663,10.6
8675,10.29
8687,9.43
8699,8.3
8710,7.14
8721,6.05
8733,4.96
8745,3.68
8757,2.04
8769,0.02
8781,-2.2
8793,-4.3
8805,-5.99
8817,-7.12
8829,-7.76
8841,-8.08
8853,-8.27
8865,-8.47
8877,-8.63
8889,-8.62
8900,-8.24
8911,-7.28
8923,-5.6
8935,-3.2
8947,-0.25
8959,2.85
8971,5.55
8983,7.26
8995,7.57
9007,6.41
9019,4.12
9031,1.36
9043,-1.03
9055,-2.39
9067,-2.32
9079,-0.8
9090,1.89
9101,5.3
9113,8.98
9125,12.58
9137,15.89
9149,18.82
9161,21.39
9173,23.68
9185,25.8
9197,27.87
9209,29.95
9221,32.01
9233,33.94
9245,35.58
9257,36.88
9269,37.98
9280,39.28
9291,41.42
9303,45.01
9315,50.4
9327,57.45
9339,65.43
9351,73.33
9363,80.2
9375,85.49
9387,89.15
9399,91.47
9411,92.81
9423,93.19
9435,92.32
9447,89.58
9459,84.35
9470,76.16
9481,64.9
9493,50.73
9505,34.14
9517,15.92
9529,-2.9
9541,-21.17
9553,-37.72
9565,-51.66
9577,-62.55
9589,-70.4
9601,-75.6
9613,-78.69
9625,-80.14
9637,-80.29
9649,-79.36
9660,-77.49
9671,-74.9
9683,-71.82
9695,-68.52
9707,-65.23
9719,-62.14
9731,-59.4
9743,-57.13
9755,-55.41
9767,-54.24
9779,-53.51
9791,-52.92
9803,-52.09
9815,-50.58
9827,-48.1
9839,-44.58
9850,-40.19
9861,-35.34
9873,-30.46
9885,-25.87
9897,-21.69
9909,-17.82
9921,-14.18
9933,-10.76
9945,-7.77
9957,-5.6
9969,-4.61
9981,-5.01
9993,-6.73
10005,-9.44
10017,-12.66
10029,-15.87
10040,-18.63
10051,-20.66
10063,-21.83
10075,-22.16
10087,-21.78
10099,-20.8
10111,-19.21
10123,-16.82
10135,-13.34
10147,-8.49
10159,-2.28
10171,4.91
10183,12.33
10195,19.01
10207,23.99
10219,26.56
10230,26.39
10241,23.53
10253,18.37
10265,11.57
10277,3.97
10289,-3.51
10301,-9.97
10313,-14.67
10325,-17.22
10337,-17.65
10349,-16.42
10361,-14.27
10373,-11.92
10385,-9.93
10397,-8.53
10409,-7.7
10420,-7.35
10431,-7.48
10443,-8.18
10455,-9.57
10467,-11.65
10479,-14.17
10491,-16.7
10503,-18.81
10515,-20.23
10527,-20.88
10539,-20.85
10551,-20.22
10563,-18.94
10575,-16.92
10587,-14.09
10599,-10.61
10610,-6.81
10621,-3.22
10633,-0.31
10645,1.68
10657,2.7
10669,2.96
10681,2.73
10693,2.26
10705,1.72
10717,1.25
10729,0.89
10741,0.67
10753,0.58
10765,0.59
10777,0.57
10789,0.37
10800,-0.23
10811,-1.43
10823,-3.33
10835,-5.88
10847,-8.83
10859,-11.75
10871,-14.11
10883,-15.38
10895,-15.21
10907,-13.44
10919,-10.22
10931,-5.9
10943,-0.98
10955,3.97
10967,8.47
10979,12.18
10990,15.02
11001,17.11
11013,18.76
11025,20.33
11037,22.14
11049,24.3
11061,26.72
11073,29.13
11085,31.2
11097,32.68
11109,33.54
11121,33.94
11133,34.17
11145,34.5
11157,35.05
11169,35.71
11180,36.08
11191,35.59
11203,33.58
11215,29.47
11227,22.95
11239,14.1
11251,3.48
11263,-7.94
11275,-18.94
11287,-28.25
11299,-34.92
11311,-38.37
11323,-38.6
11335,-35.99
11347,-31.27
11359,-25.21
11370,-18.52
11381,-11.73
11393,-5.27
11405,0.5
11417,5.22
11429,8.59
11441,10.52
11453,11.2
11465,11.08
11477,10.72
11489,10.5
11501,10.41
11513,9.99
11525,8.56
11537,5.53
11549,0.76
11560,-5.4
11571,-12.13
11583,-18.51
11595,-23.78
11607,-27.56
11619,-29.84
11631,-30.75
11643,-30.42
11655,-28.83
11667,-25.85
11679,-21.42
11691,-15.64
11703,-8.88
11715,-1.69
11727,5.31
11739,11.62
11750,16.92
11761,21.11
11773,24.23
11785,26.39
11797,27.74
11809,28.45
11821,28.73
11833,28.82
11845,29.03
11857,29.63
11869,30.83
11881,32.7
11893,35.16
11905,37.97
11917,40.77
11929,43.16
11940,44.75
11951,45.3
11963,44.7
11975,42.97
11987,40.19
11999,36.45
12011,31.77
12023,26.18
12035,19.77
12047,12.77
12059,5.61
12071,-1.19
12083,-7.18
12095,-12.06
12107,-15.77
12119,-18.44
12130,-20.26
12141,-21.34
12153,-21.72
12165,-21.37
12177,-20.31
12189,-18.67
12201,-16.65
12213,-14.5
12225,-12.47
12237,-10.79
12249,-9.69
12261,-9.35
12273,-9.99
12285,-11.68
12297,-14.35
12309,-17.73
12320,-21.36
12331,-24.77
12343,-27.61
12355,-29.77
12367,-31.36
12379,-32.68
12391,-34.05
12403,-35.65
12415,-37.45
12427,-39.16
12439,-40.38
12451,-40.64
12463,-39.67
12475,-37.41
12487,-34.02
12499,-29.81
12510,-25.04
12521,-19.93
12533,-14.6
12545,-9.24
12557,-4.12
12569,0.37
12581,3.84
12593,6.13
12605,7.34
12617,7.86
12629,8.17
12641,8.67
12653,9.54
12665,10.67
12677,11.74
12689,12.29
12700,11.89
12711,10.25
12723,7.28
12735,3.11
12747,-1.99
12759,-7.66
12771,-13.53
12783,-19.19
12795,-24.18
12807,-28.0
12819,-30.17
12831,-30.37
12843,-28.51
12855,-24.85
12867,-19.89
12879,-14.3
12890,-8.69
12901,-3.57
12913,0.76
12925,4.15
12937,6.58
12949,8.16
12961,9.02
12973,9.3
12985,9.16
12997,8.69
13009,7.96
13021,7.06
13033,6.1
13045,5.18
13057,4.46
13069,3.99
13080,3.71
13091,3.42
13103,2.84
13115,1.7
13127,-0.18
13139,-2.87
13151,-6.26
13163,-10.09
13175,-13.95
13187,-17.3
13199,-19.58
13211,-20.33
13223,-19.3
13235,-16.61
13247,-12.66
13259,-8.02
13270,-3.24
13281,1.26
13293,5.27
13305,8.68
13317,11.4
13329,13.32
13341,14.39
13353,14.67
13365,14.41
13377,13.97
13389,13.71
13401,13.84
13413,14.33
13425,14.9
13437,15.19
13449,14.91
13460,13.92
13471,12.38
13483,10.59
13495,8.93
13507,7.65
13519,6.82
13531,6.27
13543,5.7
13555,4.81
13567,3.41
13579,1.57
13591,-0.39
13603,-1.98
13615,-2.66
13627,-2.0
13639,0.19
13650,3.83
13661,8.61
13673,14.06
13685,19.69
13697,25.11
13709,30.07
13721,34.44
13733,38.17
13745,41.22
13757,43.56
13769,45.21
13781,46.32
13793,47.13
13805,47.92
13817,48.92
13829,50.12
13840,51.34
13851,52.25
13863,52.63
13875,52.43
13887,51.86
13899,51.3
13911,51.1
13923,51.43
13935,52.23
13947,53.16
13959,53.74
13971,53.38
13983,51.51
13995,47.68
14007,41.68
14019,33.66
14030,24.15
14041,14.0
14053,4.23
14065,-4.26
14077,-10.81
14089,-15.19
14101,-17.51
14113,-18.17
14125,-17.58
14137,-16.15
14149,-14.16
14161,-11.84
14173,-9.35
14185,-6.89
14197,-4.63
14209,-2.71
14220,-1.19
14231,-0.1
14243,0.54
14255,0.73
14267,0.41
14279,-0.47
14291,-1.91
14303,-3.86
14315,-6.2
14327,-8.76
14339,-11.35
14351,-13.76
14363,-15.85
14375,-17.54
14387,-18.84
14399,-19.9
14410,-20.92
14421,-22.15
14433,-23.81
14445,-26.03
14457,-28.76
14469,-31.74
14481,-34.52
14493,-36.55
14505,-37.29
14517,-36.42
14529,-33.9
14541,-30.0
14553,-25.15
14565,-19.86
14577,-14.56
14589,-9.59
14600,-5.22
14611,-1.64
14623,0.98
14635,2.61
14647,3.35
14659,3.48
14671,3.37
14683,3.36
14695,3.66
14707,4.31
14719,5.12
14731,5.78
14743,5.98
14755,5.54
14767,4.48
14779,2.96
14790,1.19
14801,-0.72
14813,-2.85
14825,-5.44
14837,-8.74
14849,-12.9
14861,-17.8
14873,-23.13
14885,-28.4
14897,-33.12
14909,-36.83
14921,-39.13
14933,-39.75
14945,-38.56
14957,-35.66
14969,-31.4
14980,-26.32
14991,-21.07
15003,-16.18
15015,-12.04
15027,-8.84
15039,-6.62
15051,-5.29
15063,-4.74
15075,-4.79
15087,-5.23
15099,-5.81
15111,-6.33
15123,-6.72
15135,-7.02
15147,-7.42
15159,-8.13
15170,-9.29
15181,-10.89
15193,-12.79
15205,-14.83
15217,-16.88
15229,-18.96
15241,-21.19
15253,-23.66
15265,-26.42
15277,-29.35
15289,-32.19
15301,-34.66
15313,-36.46
15325,-37.32
15337,-37.02
15349,-35.35
15360,-32.24
15371,-27.77
15383,-22.21
15395,-16.02
15407,-9.66
15419,-3.56
15431,2.0
15443,6.88
15455,10.97
15467,14.23
15479,16.64
15491,18.24
15503,19.14
15515,19.47
15527,19.32
15539,18.69
15550,17.51
15561,15.73
15573,13.39
15585,10.69
15597,7.95
15609,5.44
15621,3.32
15633,1.55
15645,-0.05
15657,-1.72
15669,-3.69
15681,-6.13
15693,-9.07
15705,-12.53
15717,-16.38
15729,-20.37
15740,-24.11
15751,-27.09
15763,-28.76
15775,-28.69
15787,-26.64
15799,-22.71
15811,-17.27
15823,-10.95
15835,-4.4
15847,1.74
15859,7.03
15871,11.24
15883,14.33
15895,16.4
15907,17.65
15919,18.28
15930,18.55
15941,18.67
15953,18.9
15965,19.37
15977,20.12
15989,20.97
16001,21.58
16013,21.57
16025,20.69
16037,18.97
16049,16.66
16061,14.19
16073,11.9
16085,9.91
16097,8.06
16109,6.04
16120,3.55
16131,0.48
16143,-3.06
16155,-6.76
16167,-10.17
16179,-12.78
16191,-14.13
16203,-13.82
16215,-11.66
16227,-7.7
16239,-2.32
16251,3.88
16263,10.18
16275,16.0
16287,20.96
16299,24.96
16310,28.09
16321,30.49
16333,32.28
16345,33.48
16357,34.05
16369,34.0
16381,33.38
16393,32.37
16405,31.18
16417,30.03
16429,29.01
16441,28.12
16453,27.23
16465,26.18
16477,24.84
16489,23.22
16500,21.41
16511,19.56
16523,17.77
16535,16.0
16547,14.07
16559,11.75
16571,8.85
16583,5.4
16595,1.63
16607,-1.99
16619,-4.95
16631,-6.81
16643,-7.37
16655,-6.69
16667,-4.98
16679,-2.57
16690,0.26
16701,3.26
16713,6.26
16725,9.03
16737,11.39
16749,13.15
16761,14.23
16773,14.67
16785,14.57
16797,14.11
16809,13.46
16821,12.75
16833,12.05
16845,11.39
16857,10.74
16869,10.03
16880,9.1
16891,7.82
16903,6.09
16915,3.92
16927,1.42
16939,-1.33
16951,-4.28
16963,-7.51
16975,-11.17
16987,-15.35
16999,-20.1
17011,-25.28
17023,-30.63
17035,-35.75
17047,-40.15
17059,-43.3
17070,-44.75
17081,-44.19
17093,-41.61
17105,-37.29
17117,-31.79
17129,-25.71
17141,-19.62
17153,-13.88
17165,-8.7
17177,-4.17
17189,-0.35
17201,2.74
17213,5.12
17225,6.9
17237,8.27
17249,9.46
17260,10.64
17271,11.82
17283,12.82
17295,13.32
17307,12.92
17319,11.36
17331,8.63
17343,4.98
17355,0.89
17367,-3.17
17379,-6.87
17391,-10.12
17403,-13.09
17415,-16.05
17427,-19.2
17439,-22.65
17450,-26.28
17461,-29.82
17473,-32.88
17485,-35.06
17497,-36.0
17509,-35.48
17521,-33.48
17533,-30.2
17545,-26.01
17557,-21.36
17569,-16.64
17581,-12.16
17593,-8.1
17605,-4.6
17617,-1.82
17629,0.14
17640,1.24
17651,1.58
17663,1.43
17675,1.17
17687,1.09
17699,1.28
17711,1.63
17723,1.86
17735,1.67
17747,0.91
17759,-0.43
17771,-2.2
17783,-4.22
17795,-6.36
17807,-8.58
17819,-10.92
17830,-13.49
17841,-16.39
17853,-19.69
17865,-23.37
17877,-27.25
17889,-31.02
17901,-34.2
17913,-36.26
17925,-36.72
17937,-35.33
17949,-32.15
17961,-27.51
17973,-21.96
17985,-16.08
17997,-10.34
18009,-5.04
18020,-0.3
18031,3.83
18043,7.3
18055,10.02
18067,11.99
18079,13.23
18091,13.93
18103,14.35
18115,14.78
18127,15.43
18139,16.3
18151,17.2
18163,17.8
18175,17.76
18187,16.93
18199,15.36
18210,13.37
18221,11.37
18233,9.65
18245,8.22
18257,6.78
18269,4.93
18281,2.41
18293,-0.69
18305,-3.83
18317,-6.21
18329,-6.96
18341,-5.48
18353,-1.65
18365,4.08
18377,10.74
18389,17.09
18400,22.03
18411,24.96
18423,26.04
18435,26.05
18447,26.11
18459,27.11
18471,29.34
18483,32.29
18495,34.93
18507,36.23
18519,35.59
18531,33.22
18543,30.09
18555,27.61
18567,27.17
18579,29.6
18590,34.61
18601,40.5
18613,44.29
18625,42.36
18637,31.58
18649,10.66
18661,-18.96
18673,-52.87
18685,-84.66
18697,-107.56
18709,-116.21
18721,-107.97
18733,-83.15
18745,-44.46
18757,4.0
18769,57.53
18780,111.2
18791,160.03
18803,198.99
18815,223.53
18827,230.29
18839,217.68
18851,186.11
18863,137.82
18875,76.55
18887,7.5
18899,-62.87
18911,-127.35
18923,-179.29
18935,-214.34
18947,-231.72
18959,-234.3
18970,-227.19
18981,-215.5
18993,-202.56
19005,-189.46
19017,-175.94
19029,-161.77
19041,-147.77
19053,-135.49
19065,-126.17
19077,-119.71
19089,-114.42
19101,-107.85
19113,-97.95
19125,-84.07
19137,-67.09
19149,-48.99
19160,-31.89
19171,-17.24
19183,-5.52
19195,3.68
19207,11.22
19219,17.79
19231,23.6
19243,28.29
19255,31.32
19267,32.39
19279,31.75
19291,30.19
19303,28.68
19315,27.96
19327,28.17
19339,28.87
19350,29.29
19361,28.81
19373,27.25
19385,24.95
19397,22.57
19409,20.71
19421,19.62
19433,19.08
19445,18.57
19457,17.5
19469,15.43
19481,12.26
19493,8.25
19505,4.02
19517,0.37
19529,-1.87
19540,-2.01
19551,0.28
19563,4.87
19575,11.19
19587,18.4
19599,25.61
19611,32.09
19623,37.36
19635,41.2
19647,43.57
19659,44.52
19671,44.22
19683,42.88
19695,40.84
19707,38.46
19719,36.07
19730,33.91
19741,32.04
19753,30.4
19765,28.87
19777,27.32
19789,25.68
19801,23.91
19813,21.98
19825,19.97
19837,17.93
19849,15.94
19861,13.96
19873,11.83
19885,9.26
19897,5.94
19909,1.77
19920,-3.0
19931,-7.68
19943,-11.32
19955,-13.05
19967,-12.33
19979,-9.14
19991,-3.98
20003,2.38
20015,9.17
20027,15.74
20039,21.68
20051,26.72
20063,30.65
20075,33.3
20087,34.54
20099,34.47
20110,33.4
20121,31.79
20133,30.14
20145,28.77
20157,27.74
20169,26.87
20181,25.89
20193,24.6
20205,22.98
20217,21.16
20229,19.34
20241,17.6
20253,15.87
20265,13.98
20277,11.76
20289,9.1
20300,6.03
20311,2.65
20323,-0.96
20335,-4.66
20347,-8.22
20359,-11.26
20371,-13.26
20383,-13.72
20395,-12.35
20407,-9.25
20419,-4.86
20431,0.16
20443,5.14
20455,9.62
20467,13.35
20479,16.28
20490,18.45
20501,19.84
20513,20.44
20525,20.28
20537,19.45
20549,18.16
20561,16.71
20573,15.39
20585,14.36
20597,13.68
20609,13.23
20621,12.83
20633,12.32
20645,11.64
20657,10.8
20669,9.9
20680,8.99
20691,8.08
20703,7.08
20715,5.85
20727,4.25
20739,2.2
20751,-0.32
20763,-3.2
20775,-6.22
20787,-9.08
20799,-11.35
20811,-12.62
20823,-12.55
20835,-10.99
20847,-8.07
20859,-4.14
20870,0.31
20881,4.77
20893,8.86
20905,12.33
20917,15.07
20929,17.01
20941,18.11
20953,18.41
20965,18.02
20977,17.18
20989,16.22
