seconds,BVP
0,13.75
11,15.94
22,16.52
34,16.06
46,15.35
58,14.78
70,14.15
82,13.08
94,11.46
106,9.8
118,8.93
130,9.31
142,10.67
154,12.17
166,13.09
178,13.19
190,12.9
201,12.73
212,12.77
224,12.53
236,11.52
248,9.66
260,7.6
272,6.28
284,6.21
296,7.01
308,7.71
320,7.46
332,6.11
344,4.26
356,2.73
368,1.87
380,1.27
391,0.34
402,-1.22
414,-3.03
426,-4.33
438,-4.7
450,-4.56
462,-4.9
474,-6.57
486,-9.57
498,-12.93
510,-15.29
522,-15.82
534,-14.65
546,-12.61
558,-10.48
570,-8.5
581,-6.36
592,-3.76
604,-0.96
616,1.25
628,2.14
640,1.61
652,0.48
664,-0.08
676,0.67
688,2.46
700,4.35
712,5.36
724,5.04
736,3.67
748,1.72
760,-0.66
771,-3.65
782,-7.3
794,-11.08
806,-13.76
818,-13.98
830,-11.12
842,-5.79
854,0.5
866,6.17
878,10.24
890,12.61
902,13.69
914,13.81
926,12.95
938,11.06
950,8.42
961,5.73
972,3.88
984,3.32
996,3.7
1008,4.24
1020,4.26
1032,3.64
1044,2.87
1056,2.53
1068,2.72
1080,2.94
1092,2.54
1104,1.25
1116,-0.55
1128,-2.11
1140,-2.97
1151,-3.36
1162,-4.02
1174,-5.57
1186,-8.01
1198,-10.59
1210,-12.33
1222,-12.77
1234,-12.31
1246,-11.83
1258,-12.05
1270,-13.13
1282,-14.61
1294,-15.99
1306,-17.22
1318,-18.66
1330,-20.56
1341,-22.65
1352,-23.96
1364,-23.4
1376,-20.51
1388,-15.89
1400,-10.78
1412,-6.42
1424,-3.4
1436,-1.62
1448,-0.72
1460,-0.58
1472,-1.34
1484,-2.99
1496,-4.95
1508,-6.06
1520,-5.08
1531,-1.57
1542,3.78
1554,9.56
1566,14.43
1578,17.76
1590,19.78
1602,21.11
1614,22.09
1626,22.58
1638,22.44
1650,21.92
1662,21.79
1674,22.97
1686,25.67
1698,29.06
1710,31.66
1721,32.23
1732,30.5
1744,27.24
1756,23.67
1768,20.5
1780,17.55
1792,14.16
1804,9.86
1816,4.86
1828,0.05
1840,-3.79
1852,-6.6
1864,-8.96
1876,-11.55
1888,-14.47
1900,-17.01
1911,-18.05
1922,-16.99
1934,-14.14
1946,-10.48
1958,-7.01
1970,-4.23
1982,-1.96
1994,0.12
2006,1.96
2018,3.12
2030,3.19
2042,2.22
2054,0.91
2066,0.25
2078,0.82
2090,2.44
2101,4.48
2112,6.35
2124,7.93
2136,9.53
2148,11.41
2160,13.32
2172,14.55
2184,14.56
2196,13.42
2208,11.99
2220,11.34
2232,11.93
2244,13.2
2256,13.96
2268,13.3
2280,11.22
2291,8.62
2302,6.68
2314,5.89
2326,5.73
2338,5.22
2350,3.82
2362,1.85
2374,0.33
2386,0.11
2398,1.03
2410,2.04
2422,1.99
2434,0.49
2446,-1.71
2458,-3.24
2470,-3.19
2481,-1.77
2492,-0.04
2504,0.95
2516,0.86
2528,0.28
2540,0.0
2552,0.27
2564,0.56
2576,0.12
2588,-1.32
2600,-3.14
2612,-4.25
2624,-3.86
2636,-2.15
2648,-0.02
2660,1.57
2671,2.16
2682,2.01
2694,1.69
2706,1.36
2718,0.75
2730,-0.45
2742,-2.22
2754,-3.95
2766,-4.81
2778,-4.49
2790,-3.49
2802,-2.75
2814,-3.02
2826,-4.39
2838,-6.23
2850,-7.81
2861,-8.92
2872,-9.98
2884,-11.56
2896,-13.81
2908,-16.23
2920,-17.96
2932,-18.58
2944,-18.4
2956,-18.28
2968,-18.79
2980,-19.79
2992,-20.38
3004,-19.6
3016,-17.25
3028,-14.16
3040,-11.55
3051,-10.19
3062,-9.89
3074,-9.66
3086,-8.65
3098,-6.88
3110,-5.23
3122,-4.69
3134,-5.57
3146,-7.17
3158,-8.32
3170,-8.31
3182,-7.38
3194,-6.48
3206,-6.39
3218,-7.22
3230,-8.34
3241,-9.02
3252,-9.14
3264,-9.21
3276,-9.82
3288,-11.0
3300,-11.99
3312,-11.66
3324,-9.41
3336,-5.65
3348,-1.5
3360,1.97
3372,4.26
3384,5.73
3396,6.97
3408,8.22
3420,9.2
3431,9.51
3442,9.07
3454,8.45
3466,8.51
3478,9.77
3490,11.96
3502,14.3
3514,16.03
3526,16.87
3538,17.13
3550,17.21
3562,17.13
3574,16.36
3586,14.4
3598,11.2
3610,7.5
3621,4.37
3632,2.58
3644,1.98
3656,1.74
3668,0.94
3680,-0.9
3692,-3.53
3704,-6.36
3716,-9.05
3728,-11.63
3740,-14.19
3752,-16.59
3764,-18.21
3776,-18.42
3788,-17.12
3800,-15.12
3811,-13.63
3822,-13.6
3834,-15.06
3846,-17.17
3858,-18.85
3870,-19.56
3882,-19.58
3894,-19.47
3906,-19.56
3918,-19.56
3930,-18.85
3942,-17.19
3954,-15.12
3966,-13.72
3978,-13.86
3990,-15.61
4001,-18.15
4012,-20.3
4024,-21.38
4036,-21.58
4048,-21.55
4060,-21.85
4072,-22.52
4084,-23.05
4096,-23.05
4108,-22.66
4120,-22.49
4132,-23.07
4144,-24.32
4156,-25.38
4168,-25.04
4180,-22.68
4191,-18.59
4202,-13.77
4214,-9.22
4226,-5.38
4238,-1.97
4250,1.5
4262,5.1
4274,8.41
4286,10.8
4298,12.08
4310,12.74
4322,13.67
4334,15.42
4346,17.8
4358,20.06
4370,21.47
4381,21.85
4392,21.65
4404,21.43
4416,21.3
4428,20.76
4440,19.24
4452,16.59
4464,13.42
4476,10.69
4488,9.01
4500,8.04
4512,6.81
4524,4.39
4536,0.42
4548,-4.53
4560,-9.46
4571,-13.6
4582,-16.71
4594,-18.82
4606,-20.0
4618,-20.05
4630,-18.73
4642,-16.2
4654,-13.29
4666,-11.1
4678,-10.4
4690,-11.1
4702,-12.32
4714,-12.93
4726,-12.32
4738,-10.71
4750,-8.65
4761,-6.55
4772,-4.21
4784,-1.08
4796,3.14
4808,7.98
4820,12.42
4832,15.58
4844,17.33
4856,18.5
4868,20.29
4880,23.38
4892,27.43
4904,31.44
4916,34.5
4928,36.31
4940,37.3
4951,37.94
4962,38.18
4974,37.46
4986,35.21
4998,31.53
5010,27.43
5022,24.26
5034,22.88
5046,23.03
5058,23.65
5070,23.6
5082,22.37
5094,20.38
5106,18.43
5118,16.95
5130,15.73
5141,14.23
5152,12.1
5164,9.66
5176,7.77
5188,7.11
5200,7.75
5212,9.08
5224,10.3
5236,10.94
5248,11.13
5260,11.32
5272,11.75
5284,12.23
5296,12.41
5308,12.16
5320,11.82
5331,12.03
5342,13.14
5354,14.9
5366,16.59
5378,17.6
5390,17.82
5402,17.7
5414,17.83
5426,18.26
5438,18.33
5450,17.19
5462,14.45
5474,10.49
5486,6.31
5498,2.69
5510,-0.33
5521,-3.36
5532,-7.06
5544,-11.45
5556,-15.75
5568,-18.9
5580,-20.37
5592,-20.56
5604,-20.41
5616,-20.67
5628,-21.35
5640,-21.68
5652,-20.85
5664,-18.68
5676,-15.78
5688,-13.15
5700,-11.45
5711,-10.59
5722,-9.89
5734,-8.73
5746,-7.08
5758,-5.43
5770,-4.39
5782,-4.18
5794,-4.45
5806,-4.6
5818,-4.24
5830,-3.51
5842,-2.74
5854,-2.14
5866,-1.49
5878,-0.33
5890,1.56
5901,3.82
5912,5.7
5924,6.53
5936,6.2
5948,5.2
5960,4.21
5972,3.52
5984,2.76
5996,1.4
6008,-0.78
6020,-3.4
6032,-5.66
6044,-7.05
6056,-7.87
6068,-9.01
6080,-11.24
6091,-14.58
6102,-18.11
6114,-20.52
6126,-21.04
6138,-19.94
6150,-18.23
6162,-16.91
6174,-16.32
6186,-16.06
6198,-15.49
6210,-14.39
6222,-13.15
6234,-12.35
6246,-12.25
6258,-12.48
6270,-12.28
6281,-11.11
6292,-9.05
6304,-6.71
6316,-4.71
6328,-3.33
6340,-2.35
6352,-1.42
6364,-0.48
6376,0.17
6388,0.24
6400,-0.31
6412,-1.0
6424,-1.18
6436,-0.52
6448,0.67
6460,1.65
6471,1.8
6482,0.96
6494,-0.42
6506,-1.72
6518,-2.64
6530,-3.32
6542,-4.05
6554,-4.92
6566,-5.56
6578,-5.37
6590,-4.1
6602,-2.13
6614,-0.26
6626,0.87
6638,1.11
6650,0.87
6661,0.71
6672,0.8
6684,0.77
6696,0.23
6708,-0.85
6720,-1.84
6732,-1.92
6744,-0.69
6756,1.35
6768,3.13
6780,3.77
6792,3.2
6804,2.21
6816,1.93
6828,2.92
6840,4.87
6851,6.93
6862,8.42
6874,9.26
6886,9.93
6898,10.89
6910,12.1
6922,13.02
6934,13.18
6946,12.55
6958,11.78
6970,11.73
6982,12.77
6994,14.51
7006,16.1
7018,16.82
7030,16.56
7041,15.84
7052,15.3
7064,15.13
7076,14.97
7088,14.3
7100,13.0
7112,11.51
7124,10.67
7136,11.0
7148,12.32
7160,13.91
7172,14.96
7184,15.11
7196,14.56
7208,13.75
7220,12.88
7231,11.68
7242,9.87
7254,7.47
7266,5.04
7278,3.4
7290,2.97
7302,3.4
7314,3.81
7326,3.42
7338,2.05
7350,0.24
7362,-1.24
7374,-2.0
7386,-2.24
7398,-2.36
7410,-2.47
7421,-2.15
7432,-0.71
7444,2.18
7456,6.1
7468,10.07
7480,13.19
7492,15.15
7504,16.38
7516,17.56
7528,18.92
7540,20.02
7552,20.13
7564,18.77
7576,16.13
7588,12.93
7600,9.91
7611,7.31
7622,4.84
7634,2.09
7646,-0.98
7658,-3.88
7670,-5.85
7682,-6.51
7694,-6.13
7706,-5.42
7718,-5.02
7730,-5.15
7742,-5.5
7754,-5.69
7766,-5.72
7778,-6.0
7790,-6.94
7801,-8.47
7812,-9.95
7824,-10.4
7836,-9.32
7848,-7.09
7860,-4.68
7872,-3.04
7884,-2.53
7896,-2.72
7908,-2.87
7920,-2.6
7932,-2.11
7944,-1.86
7956,-2.08
7968,-2.4
7980,-2.13
7991,-0.89
8002,0.97
8014,2.51
8026,2.9
8038,2.0
8050,0.49
8062,-0.55
8074,-0.45
8086,0.63
8098,2.01
8110,3.01
8122,3.42
8134,3.53
8146,3.65
8158,3.72
8170,3.31
8181,2.04
8192,-0.04
8204,-2.26
8216,-3.79
8228,-4.24
8240,-4.04
8252,-4.08
8264,-5.17
8276,-7.53
8288,-10.62
8300,-13.66
8312,-16.11
8324,-17.96
8336,-19.45
8348,-20.69
8360,-21.36
8371,-20.95
8382,-19.22
8394,-16.59
8406,-13.95
8418,-12.14
8430,-11.52
8442,-11.7
8454,-11.97
8466,-11.79
8478,-11.17
8490,-10.38
8502,-9.63
8514,-8.84
8526,-7.68
8538,-6.05
8550,-4.34
8561,-3.21
8572,-3.14
8584,-4.08
8596,-5.42
8608,-6.44
8620,-6.88
8632,-7.06
8644,-7.45
8656,-8.24
8668,-9.12
8680,-9.51
8692,-9.16
8704,-8.52
8716,-8.42
8728,-9.42
8740,-11.41
8751,-13.55
8762,-14.86
8774,-14.95
8786,-14.22
8798,-13.44
8810,-13.14
8822,-13.16
8834,-12.91
8846,-11.93
8858,-10.37
8870,-8.96
8882,-8.33
8894,-8.51
8906,-8.77
8918,-8.09
8930,-5.96
8941,-2.78
8952,0.51
8964,3.1
8976,4.79
8988,6.11
9000,7.68
9012,9.6
9024,11.37
9036,12.33
9048,12.22
9060,11.55
9072,11.25
9084,11.93
9096,13.44
9108,15.02
9120,15.9
9131,15.78
9142,15.06
9154,14.33
9166,13.87
9178,13.48
9190,12.87
9202,12.1
9214,11.79
9226,12.77
9238,15.41
9250,19.15
9262,22.76
9274,24.99
9286,25.11
9298,23.28
9310,20.19
9321,16.48
9332,12.46
9344,8.29
9356,4.17
9368,0.58
9380,-1.85
9392,-2.82
9404,-2.56
9416,-1.72
9428,-0.92
9440,-0.44
9452,-0.1
9464,0.39
9476,1.13
9488,1.83
9500,2.24
9511,2.34
9522,2.55
9534,3.42
9546,5.17
9558,7.37
9570,9.26
9582,10.24
9594,10.35
9606,10.23
9618,10.66
9630,11.88
9642,13.44
9654,14.59
9666,14.9
9678,14.6
9690,14.41
9701,14.83
9712,15.66
9724,16.14
9736,15.56
9748,13.85
9760,11.72
9772,10.09
9784,9.4
9796,9.21
9808,8.65
9820,7.16
9832,4.87
9844,2.58
9856,1.02
9868,0.23
9880,-0.43
9891,-1.71
9902,-3.85
9914,-6.32
9926,-8.22
9938,-9.01
9950,-8.89
9962,-8.61
9974,-8.87
9986,-9.93
9998,-11.51
10010,-13.28
10022,-15.28
10034,-17.86
10046,-21.26
10058,-25.19
10070,-28.69
10081,-30.55
10092,-30.1
10104,-27.62
10116,-24.1
10128,-20.7
10140,-18.17
10152,-16.6
10164,-15.67
10176,-15.16
10188,-15.05
10200,-15.29
10212,-15.57
10224,-15.31
10236,-13.86
10248,-11.08
10260,-7.58
10271,-4.4
10282,-2.36
10294,-1.71
10306,-2.01
10318,-2.58
10330,-3.08
10342,-3.58
10354,-4.23
10366,-4.95
10378,-5.25
10390,-4.64
10402,-3.2
10414,-1.74
10426,-1.35
10438,-2.69
10450,-5.46
10461,-8.58
10472,-10.84
10484,-11.76
10496,-11.8
10508,-11.88
10520,-12.59
10532,-13.83
10544,-14.89
10556,-15.19
10568,-14.78
10580,-14.32
10592,-14.45
10604,-15.31
10616,-16.27
10628,-16.42
10640,-15.27
10651,-13.18
10662,-11.02
10674,-9.61
10686,-9.25
10698,-9.52
10710,-9.81
10722,-9.86
10734,-9.85
10746,-10.18
10758,-10.99
10770,-11.9
10782,-12.25
10794,-11.61
10806,-10.16
10818,-8.56
10830,-7.43
10841,-7.05
10852,-7.15
10864,-7.34
10876,-7.49
10888,-7.81
10900,-8.47
10912,-9.25
10924,-9.39
10936,-8.01
10948,-4.77
10960,-0.24
10972,4.43
10984,8.18
10996,10.58
11008,11.99
11020,13.11
11031,14.37
11042,15.71
11054,16.91
11066,17.92
11078,19.09
11090,20.92
11102,23.52
11114,26.41
11126,28.76
11138,29.99
11150,30.12
11162,29.73
11174,29.54
11186,29.81
11198,30.22
11210,30.3
11221,29.85
11232,29.11
11244,28.57
11256,28.4
11268,28.18
11280,27.2
11292,24.94
11304,21.57
11316,17.95
11328,15.11
11340,13.56
11352,12.96
11364,12.46
11376,11.34
11388,9.41
11400,7.13
11411,5.09
11422,3.53
11434,2.25
11446,0.87
11458,-0.66
11470,-1.96
11482,-2.4
11494,-1.71
11506,-0.29
11518,1.03
11530,1.51
11542,0.91
11554,-0.33
11566,-1.56
11578,-2.48
11590,-3.2
11601,-4.03
11612,-5.09
11624,-6.07
11636,-6.47
11648,-6.07
11660,-5.18
11672,-4.44
11684,-4.31
11696,-4.78
11708,-5.43
11720,-5.82
11732,-5.96
11744,-6.3
11756,-7.3
11768,-9.0
11780,-10.94
11791,-12.37
11802,-12.91
11814,-12.72
11826,-12.31
11838,-12.01
11850,-11.68
11862,-10.76
11874,-8.76
11886,-5.78
11898,-2.58
11910,-0.09
11922,1.17
11934,1.39
11946,1.26
11958,1.4
11970,1.94
11981,2.46
11992,2.55
12004,2.14
12016,1.7
12028,1.88
12040,2.95
12052,4.59
12064,6.09
12076,6.9
12088,6.92
12100,6.59
12112,6.36
12124,6.34
12136,6.19
12148,5.55
12160,4.41
12171,3.25
12182,2.81
12194,3.43
12206,4.82
12218,6.21
12230,6.93
12242,6.77
12254,6.08
12266,5.35
12278,4.8
12290,4.2
12302,3.26
12314,1.98
12326,0.85
12338,0.51
12350,1.24
12361,2.63
12372,3.81
12384,4.07
12396,3.25
12408,1.84
12420,0.55
12432,-0.27
12444,-0.78
12456,-1.4
12468,-2.33
12480,-3.4
12492,-4.12
12504,-4.28
12516,-4.21
12528,-4.61
12540,-6.0
12551,-8.35
12562,-10.97
12574,-13.0
12586,-14.01
12598,-14.31
12610,-14.57
12622,-15.32
12634,-16.59
12646,-17.97
12658,-19.07
12670,-19.98
12682,-21.12
12694,-22.81
12706,-24.82
12718,-26.25
12730,-26.03
12741,-23.65
12752,-19.56
12764,-14.89
12776,-10.67
12788,-7.41
12800,-4.86
12812,-2.5
12824,-0.12
12836,2.09
12848,3.8
12860,5.01
12872,6.2
12884,8.12
12896,11.16
12908,15.02
12920,18.91
12931,22.06
12942,24.1
12954,25.26
12966,26.02
12978,26.64
12990,27.05
13002,27.07
13014,26.73
13026,26.38
13038,26.51
13050,27.27
13062,28.28
13074,28.81
13086,28.3
13098,26.67
13110,24.4
13121,22.12
13132,20.13
13144,18.28
13156,16.26
13168,14.02
13180,11.93
13192,10.53
13204,9.98
13216,9.74
13228,8.82
13240,6.45
13252,2.62
13264,-1.81
13276,-5.63
13288,-8.18
13300,-9.64
13311,-10.8
13322,-12.32
13334,-14.31
13346,-16.21
13358,-17.54
13370,-18.33
13382,-19.27
13394,-21.11
13406,-24.0
13418,-27.27
13430,-29.74
13442,-30.55
13454,-29.72
13466,-28.02
13478,-26.42
13490,-25.5
13501,-25.27
13512,-25.46
13524,-25.99
13536,-27.08
13548,-28.91
13560,-31.33
13572,-33.71
13584,-35.24
13596,-35.46
13608,-34.58
13620,-33.17
13632,-31.75
13644,-30.52
13656,-29.31
13668,-27.99
13680,-26.79
13691,-26.11
13702,-26.11
13714,-26.29
13726,-25.51
13738,-22.64
13750,-17.25
13762,-10.01
13774,-2.29
13786,4.55
13798,9.84
13810,13.7
13822,16.58
13834,18.63
13846,19.5
13858,18.71
13870,16.24
13881,12.78
13892,9.53
13904,7.45
13916,6.63
13928,6.37
13940,5.73
13952,4.2
13964,2.05
13976,0.04
13988,-1.25
14000,-1.79
14012,-1.96
14024,-2.08
14036,-2.08
14048,-1.55
14060,-0.19
14071,1.72
14082,3.48
14094,4.39
14106,4.34
14118,3.94
14130,4.17
14142,5.65
14154,8.21
14166,11.1
14178,13.55
14190,15.19
14202,16.24
14214,17.05
14226,17.73
14238,17.95
14250,17.42
14261,16.16
14272,14.74
14284,13.95
14296,14.29
14308,15.59
14320,17.2
14332,18.47
14344,19.08
14356,19.2
14368,19.06
14380,18.62
14392,17.45
14404,15.16
14416,11.87
14428,8.32
14440,5.58
14451,4.36
14462,4.56
14474,5.44
14486,6.23
14498,6.57
14510,6.77
14522,7.37
14534,8.51
14546,9.81
14558,10.65
14570,10.69
14582,10.18
14594,9.78
14606,9.91
14618,10.41
14630,10.63
14641,10.02
14652,8.57
14664,6.95
14676,5.94
14688,5.92
14700,6.53
14712,7.06
14724,7.1
14736,6.78
14748,6.64
14760,7.06
14772,7.83
14784,8.23
14796,7.72
14808,6.28
14820,4.62
14831,3.67
14842,3.84
14854,4.76
14866,5.63
14878,5.81
14890,5.21
14902,4.33
14914,3.69
14926,3.3
14938,2.66
14950,1.24
14962,-1.02
14974,-3.45
14986,-5.09
14998,-5.32
15010,-4.36
15021,-3.06
15032,-2.27
15044,-2.36
15056,-2.99
15068,-3.55
15080,-3.73
15092,-3.8
15104,-4.18
15116,-5.16
15128,-6.48
15140,-7.58
15152,-8.09
15164,-8.26
15176,-8.68
15188,-9.81
15200,-11.58
15211,-13.27
15222,-14.11
15234,-13.85
15246,-12.94
15258,-12.04
15270,-11.6
15282,-11.4
15294,-10.83
15306,-9.47
15318,-7.5
15330,-5.6
15342,-4.39
15354,-4.03
15366,-4.14
15378,-4.15
15390,-3.85
15401,-3.55
15412,-3.64
15424,-4.2
15436,-4.8
15448,-4.78
15460,-3.87
15472,-2.51
15484,-1.5
15496,-1.43
15508,-2.16
15520,-2.89
15532,-2.71
15544,-1.36
15556,0.54
15568,2.04
15580,2.47
15591,2.01
15602,1.46
15614,1.57
15626,2.39
15638,3.22
15650,3.21
15662,1.98
15674,0.04
15686,-1.55
15698,-2.01
15710,-1.35
15722,-0.3
15734,0.31
15746,0.05
15758,-0.79
15770,-1.64
15781,-2.21
15792,-2.69
15804,-3.52
15816,-4.97
15828,-6.73
15840,-8.1
15852,-8.57
15864,-8.2
15876,-7.57
15888,-7.31
15900,-7.82
15912,-8.99
15924,-10.54
15936,-12.38
15948,-14.69
15960,-17.46
15971,-20.31
15982,-22.34
15994,-22.61
16006,-20.76
16018,-17.34
16030,-13.48
16042,-10.21
16054,-8.01
16066,-6.62
16078,-5.57
16090,-4.65
16102,-4.1
16114,-4.2
16126,-4.86
16138,-5.45
16150,-5.15
16161,-3.58
16172,-1.15
16184,1.18
16196,2.53
16208,2.64
16220,1.96
16232,1.29
16244,1.17
16256,1.53
16268,2.07
16280,2.53
16292,3.11
16304,4.2
16316,5.98
16328,8.03
16340,9.5
16351,9.74
16362,8.73
16374,7.19
16386,6.16
16398,6.18
16410,7.04
16422,8.0
16434,8.46
16446,8.32
16458,8.03
16470,8.03
16482,8.31
16494,8.36
16506,7.64
16518,6.09
16530,4.29
16541,3.07
16552,2.89
16564,3.41
16576,3.82
16588,3.4
16600,2.0
16612,0.09
16624,-1.68
16636,-3.06
16648,-4.32
16660,-5.9
16672,-8.02
16684,-10.39
16696,-12.42
16708,-13.71
16720,-14.32
16731,-14.62
16742,-14.97
16754,-15.33
16766,-15.27
16778,-14.33
16790,-12.44
16802,-10.07
16814,-7.81
16826,-6.02
16838,-4.58
16850,-3.01
16862,-0.97
16874,1.43
16886,3.65
16898,5.21
16910,5.92
16921,6.07
16932,6.15
16944,6.4
16956,6.62
16968,6.51
16980,5.98
16992,5.32
17004,5.13
17016,5.73
17028,6.87
17040,7.84
17052,8.0
17064,7.23
17076,6.15
17088,5.58
17100,5.94
17111,6.93
17122,7.83
17134,8.07
17146,7.64
17158,7.12
17170,7.09
17182,7.59
17194,8.12
17206,8.05
17218,7.17
17230,5.95
17242,5.2
17254,5.45
17266,6.52
17278,7.7
17290,8.3
17301,8.07
17312,7.34
17324,6.65
17336,6.18
17348,5.66
17360,4.74
17372,3.31
17384,1.79
17396,0.82
17408,0.72
17420,1.1
17432,1.16
17444,0.17
17456,-2.02
17468,-4.81
17480,-7.34
17491,-9.06
17502,-10.04
17514,-10.69
17526,-11.3
17538,-11.71
17550,-11.43
17562,-10.1
17574,-7.99
17586,-5.8
17598,-4.27
17610,-3.58
17622,-3.23
17634,-2.39
17646,-0.59
17658,1.94
17670,4.43
17681,6.24
17692,7.16
17704,7.58
17716,7.94
17728,8.34
17740,8.46
17752,7.96
17764,6.85
17776,5.72
17788,5.34
17800,6.11
17812,7.72
17824,9.41
17836,10.5
17848,10.81
17860,10.69
17871,10.66
17882,10.9
17894,11.11
17906,10.96
17918,10.35
17930,9.68
17942,9.52
17954,10.1
17966,11.05
17978,11.63
17990,11.27
18002,9.97
18014,8.35
18026,7.21
18038,6.87
18050,7.01
18061,6.97
18072,6.25
18084,4.93
18096,3.53
18108,2.54
18120,1.99
18132,1.42
18144,0.34
18156,-1.32
18168,-3.04
18180,-4.04
18192,-3.97
18204,-3.16
18216,-2.45
18228,-2.57
18240,-3.69
18251,-5.37
18262,-6.94
18274,-8.06
18286,-8.93
18298,-9.95
18310,-11.31
18322,-12.75
18334,-13.72
18346,-13.87
18358,-13.37
18370,-12.76
18382,-12.45
18394,-12.44
18406,-12.29
18418,-11.45
18430,-9.78
18441,-7.7
18452,-5.77
18464,-4.31
18476,-3.14
18488,-1.78
18500,0.02
18512,2.02
18524,3.64
18536,4.46
18548,4.54
18560,4.46
18572,4.88
18584,5.99
18596,7.34
18608,8.3
18620,8.56
18631,8.36
18642,8.39
18654,9.09
18666,10.28
18678,11.22
18690,11.25
18702,10.26
18714,8.88
18726,8.08
18738,8.37
18750,9.45
18762,10.56
18774,10.98
18786,10.57
18798,9.79
18810,9.23
18821,9.03
18832,8.89
18844,8.35
18856,7.3
18868,6.21
18880,5.75
18892,6.25
18904,7.42
18916,8.56
18928,9.08
18940,8.86
18952,8.28
18964,7.74
18976,7.29
18988,6.55
19000,5.15
19011,3.17
19022,1.23
19034,0.14
19046,0.31
19058,1.38
19070,2.55
19082,3.07
19094,2.73
19106,1.85
19118,0.98
19130,0.29
19142,-0.43
19154,-1.49
19166,-2.9
19178,-4.18
19190,-4.69
19201,-4.19
19212,-3.11
19224,-2.37
19236,-2.65
19248,-4.03
19260,-5.8
19272,-7.06
19284,-7.32
19296,-6.86
19308,-6.36
19320,-6.37
19332,-6.93
19344,-7.6
19356,-8.01
19368,-8.32
19380,-9.1
19391,-10.75
19402,-13.02
19414,-14.88
19426,-15.06
19438,-12.93
19450,-8.96
19462,-4.42
19474,-0.63
19486,1.68
19498,2.64
19510,2.78
19522,2.45
19534,1.7
19546,0.41
19558,-1.21
19570,-2.52
19581,-2.73
19592,-1.48
19604,0.81
19616,3.21
19628,4.91
19640,5.58
19652,5.58
19664,5.47
19676,5.52
19688,5.58
19700,5.41
19712,5.01
19724,4.79
19736,5.35
19748,6.92
19760,9.09
19771,11.12
19782,12.34
19794,12.67
19806,12.56
19818,12.63
19830,13.06
19842,13.49
19854,13.39
19866,12.46
19878,10.97
19890,9.54
19902,8.63
19914,8.11
19926,7.46
19938,6.24
19950,4.5
19961,2.84
19972,1.9
19984,1.84
19996,2.09
20008,1.84
20020,0.62
20032,-1.3
20044,-3.08
20056,-3.98
20068,-3.95
20080,-3.64
20092,-3.87
20104,-5.04
20116,-6.74
20128,-8.17
20140,-8.68
20151,-8.32
20162,-7.65
20174,-7.24
20186,-7.32
20198,-7.64
20210,-7.85
20222,-7.94
20234,-8.31
20246,-9.42
20258,-11.36
20270,-13.69
20282,-15.57
20294,-16.33
20306,-15.8
20318,-14.33
20330,-12.38
20341,-10.3
20352,-8.18
20364,-5.97
20376,-3.83
20388,-2.16
20400,-1.3
20412,-1.29
20424,-1.73
20436,-2.07
20448,-1.93
20460,-1.43
20472,-0.99
20484,-0.92
20496,-1.17
20508,-1.29
20520,-0.8
20531,0.36
20542,1.74
20554,2.74
20566,3.05
20578,2.91
20590,2.89
20602,3.37
20614,4.16
20626,4.56
20638,3.96
20650,2.32
20662,0.35
20674,-0.89
20686,-0.8
20698,0.41
20710,1.86
20721,2.7
20732,2.5
20744,1.55
20756,0.45
20768,-0.45
20780,-1.23
20792,-2.14
20804,-3.32
20816,-4.47
20828,-5.06
20840,-4.77
20852,-3.81
20864,-2.74
20876,-2.15
20888,-2.26
20900,-2.83
20911,-3.49
20922,-4.08
20934,-4.84
20946,-6.03
20958,-7.66
20970,-9.36
20982,-10.57
20994,-11.01
