seconds,BVP
1,-0.88
13,-3.01
25,-5.27
37,-7.64
49,-10.18
61,-12.85
72,-15.54
83,-18.11
95,-20.45
107,-22.55
119,-24.59
131,-26.7
143,-29.02
155,-31.53
167,-34.16
179,-36.76
191,-39.26
203,-41.6
215,-43.71
227,-45.38
239,-46.32
251,-46.09
262,-44.32
273,-40.79
285,-35.55
297,-28.95
309,-21.55
321,-14.0
333,-6.91
345,-0.66
357,4.57
369,8.82
381,12.29
393,15.19
405,17.63
417,19.65
429,21.24
441,22.4
452,23.22
463,23.81
475,24.21
487,24.5
499,24.62
511,24.54
523,24.26
535,23.86
547,23.55
559,23.47
571,23.66
583,23.97
595,24.21
607,24.11
619,23.5
631,22.35
642,20.74
653,18.89
665,17.08
677,15.6
689,14.58
701,14.01
713,13.67
725,13.21
737,12.35
749,10.98
761,9.21
773,7.3
785,5.55
797,4.05
809,2.71
821,1.29
832,-0.43
843,-2.55
855,-5.0
867,-7.64
879,-10.38
891,-13.16
903,-15.98
915,-18.79
927,-21.46
939,-23.84
951,-25.74
963,-27.14
975,-28.19
987,-29.19
999,-30.42
1011,-32.02
1022,-33.78
1033,-35.24
1045,-35.78
1057,-34.89
1069,-32.32
1081,-28.23
1093,-23.03
1105,-17.28
1117,-11.52
1129,-6.14
1141,-1.37
1153,2.62
1165,5.81
1177,8.26
1189,10.09
1201,11.6
1212,13.07
1223,14.71
1235,16.58
1247,18.49
1259,20.16
1271,21.32
1283,21.84
1295,21.8
1307,21.37
1319,20.75
1331,20.01
1343,19.13
1355,18.0
1367,16.48
1379,14.63
1391,12.62
1402,10.69
1413,8.99
1425,7.56
1437,6.26
1449,4.93
1461,3.3
1473,1.13
1485,-1.54
1497,-4.49
1509,-7.29
1521,-9.55
1533,-11.12
1545,-12.02
1557,-12.54
1569,-13.13
1581,-14.27
1592,-15.94
1603,-17.73
1615,-18.97
1627,-19.15
1639,-18.21
1651,-16.45
1663,-14.39
1675,-12.75
1687,-12.11
1699,-12.35
1711,-12.69
1723,-12.05
1735,-9.54
1747,-4.91
1759,1.8
1771,10.48
1782,20.62
1793,30.37
1805,37.77
1817,41.51
1829,41.57
1841,39.17
1853,35.93
1865,33.95
1877,35.39
1889,41.17
1901,51.0
1913,63.46
1925,76.65
1937,88.45
1949,98.98
1961,107.16
1972,112.63
1983,115.71
1995,115.99
2007,112.96
2019,106.42
2031,96.93
2043,85.25
2055,72.15
2067,57.87
2079,41.63
2091,25.31
2103,10.29
2115,-2.61
2127,-15.19
2139,-28.52
2151,-43.21
2162,-59.53
2173,-77.83
2185,-98.43
2197,-117.62
2209,-133.63
2221,-145.35
2233,-152.15
2245,-153.41
2257,-148.85
2269,-138.67
2281,-123.72
2293,-105.26
2305,-84.78
2317,-64.7
2329,-47.03
2341,-32.87
2352,-22.08
2363,-14.06
2375,-8.05
2387,-3.54
2399,-0.13
2411,2.67
2423,4.71
2435,5.75
2447,5.41
2459,3.42
2471,-0.61
2483,-6.77
2495,-14.74
2507,-23.59
2519,-32.02
2531,-39.07
2542,-44.05
2553,-46.72
2565,-47.07
2577,-45.33
2589,-41.81
2601,-36.87
2613,-30.91
2625,-24.38
2637,-17.89
2649,-11.89
2661,-6.62
2673,-2.05
2685,2.03
2697,5.77
2709,9.25
2721,12.42
2732,15.14
2743,17.21
2755,18.53
2767,19.07
2779,18.94
2791,18.39
2803,17.68
2815,17.12
2827,16.91
2839,17.15
2851,17.74
2863,18.5
2875,19.16
2887,19.49
2899,19.4
2911,18.92
2922,18.14
2933,17.18
2945,16.11
2957,14.92
2969,13.56
2981,11.99
2993,10.23
3005,8.35
3017,6.41
3029,4.55
3041,2.82
3053,1.26
3065,-0.08
3077,-1.29
3089,-2.43
3101,-3.71
3112,-5.32
3123,-7.46
3135,-10.13
3147,-13.21
3159,-16.4
3171,-19.41
3183,-22.07
3195,-24.31
3207,-26.25
3219,-28.07
3231,-29.98
3243,-31.98
3255,-33.98
3267,-35.76
3279,-36.94
3291,-37.14
3302,-36.03
3313,-33.47
3325,-29.5
3337,-24.45
3349,-18.76
3361,-12.88
3373,-7.22
3385,-1.94
3397,2.94
3409,7.46
3421,11.6
3433,15.25
3445,18.2
3457,20.29
3469,21.52
3481,22.07
3492,22.28
3503,22.46
3515,22.82
3527,23.29
3539,23.63
3551,23.59
3563,23.07
3575,22.15
3587,21.11
3599,20.24
3611,19.73
3623,19.52
3635,19.46
3647,19.35
3659,18.99
3671,18.29
3682,17.24
3693,15.86
3705,14.22
3717,12.4
3729,10.42
3741,8.24
3753,5.77
3765,2.92
3777,-0.35
3789,-3.89
3801,-7.52
3813,-11.07
3825,-14.53
3837,-18.02
3849,-21.64
3861,-25.32
3872,-28.64
3883,-31.02
3895,-31.83
3907,-30.77
3919,-28.01
3931,-24.06
3943,-19.54
3955,-14.92
3967,-10.34
3979,-5.67
3991,-0.72
4003,4.59
4015,10.04
4027,15.32
4039,20.01
4051,23.86
4062,26.79
4073,28.86
4085,30.23
4097,31.07
4109,31.55
4121,31.76
4133,31.79
4145,31.7
4157,31.5
4169,31.13
4181,30.52
4193,29.6
4205,28.31
4217,26.66
4229,24.71
4241,22.53
4252,20.25
4263,17.98
4275,15.73
4287,13.51
4299,11.25
4311,8.92
4323,6.54
4335,4.21
4347,2.02
4359,0.01
4371,-1.9
4383,-3.82
4395,-5.83
4407,-7.97
4419,-10.14
4431,-12.17
4442,-13.96
4453,-15.59
4465,-17.27
4477,-19.24
4489,-21.68
4501,-24.52
4513,-27.52
4525,-30.23
4537,-32.2
4549,-33.13
4561,-32.91
4573,-31.57
4585,-29.25
4597,-26.1
4609,-22.21
4621,-17.66
4632,-12.54
4643,-7.01
4655,-1.28
4667,4.35
4679,9.59
4691,14.16
4703,17.96
4715,21.06
4727,23.62
4739,25.87
4751,27.91
4763,29.77
4775,31.39
4787,32.63
4799,33.39
4811,33.65
4822,33.49
4833,33.03
4845,32.41
4857,31.77
4869,31.22
4881,30.77
4893,30.36
4905,29.79
4917,28.89
4929,27.6
4941,25.96
4953,24.2
4965,22.56
4977,21.13
4989,19.9
5001,18.68
5012,17.35
5023,15.82
5035,14.15
5047,12.43
5059,10.75
5071,9.14
5083,7.56
5095,5.92
5107,4.16
5119,2.27
5131,0.29
5143,-1.73
5155,-3.69
5167,-5.54
5179,-7.3
5191,-9.0
5202,-10.7
5213,-12.44
5225,-14.26
5237,-16.17
5249,-18.12
5261,-20.05
5273,-21.82
5285,-23.36
5297,-24.65
5309,-25.85
5321,-27.21
5333,-29.09
5345,-31.71
5357,-35.11
5369,-38.95
5381,-42.67
5392,-45.63
5403,-47.28
5415,-47.3
5427,-45.64
5439,-42.49
5451,-38.15
5463,-32.97
5475,-27.22
5487,-21.17
5499,-15.01
5511,-8.9
5523,-2.97
5535,2.72
5547,8.06
5559,12.98
5571,17.34
5582,20.98
5593,23.82
5605,25.83
5617,27.12
5629,27.82
5641,28.08
5653,27.97
5665,27.53
5677,26.8
5689,25.8
5701,24.66
5713,23.56
5725,22.63
5737,21.92
5749,21.4
5761,20.94
5772,20.42
5783,19.7
5795,18.72
5807,17.46
5819,16.01
5831,14.51
5843,13.09
5855,11.87
5867,10.9
5879,10.15
5891,9.51
5903,8.86
5915,8.16
5927,7.4
5939,6.66
5951,6.0
5962,5.45
5973,5.0
5985,4.55
5997,3.99
6009,3.15
6021,1.83
6033,-0.08
6045,-2.54
6057,-5.38
6069,-8.37
6081,-11.31
6093,-14.14
6105,-16.98
6117,-20.04
6129,-23.56
6141,-27.61
6152,-32.09
6163,-36.67
6175,-40.92
6187,-44.29
6199,-46.33
6211,-46.71
6223,-45.29
6235,-42.23
6247,-37.87
6259,-32.68
6271,-27.06
6283,-21.34
6295,-15.72
6307,-10.3
6319,-5.14
6331,-0.32
6342,4.04
6353,7.84
6365,11.07
6377,13.75
6389,15.97
6401,17.84
6413,19.45
6425,20.81
6437,21.89
6449,22.61
6461,22.98
6473,23.06
6485,22.93
6497,22.7
6509,22.44
6521,22.11
6532,21.6
6543,20.83
6555,19.81
6567,18.65
6579,17.5
6591,16.46
6603,15.51
6615,14.57
6627,13.53
6639,12.26
6651,10.72
6663,9.01
6675,7.22
6687,5.5
6699,3.94
6711,2.59
6722,1.41
6733,0.3
6745,-0.86
6757,-2.17
6769,-3.71
6781,-5.49
6793,-7.47
6805,-9.59
6817,-11.74
6829,-13.88
6841,-15.98
6853,-18.08
6865,-20.29
6877,-22.78
6889,-25.66
6901,-28.95
6912,-32.39
6923,-35.52
6935,-37.77
6947,-38.66
6959,-37.92
6971,-35.59
6983,-32.0
6995,-27.58
7007,-22.73
7019,-17.74
7031,-12.8
7043,-7.99
7055,-3.42
7067,0.83
7079,4.72
7091,8.18
7102,11.19
7113,13.74
7125,15.83
7137,17.43
7149,18.51
7161,19.01
7173,18.93
7185,18.33
7197,17.41
7209,16.45
7221,15.76
7233,15.53
7245,15.77
7257,16.26
7269,16.71
7281,16.88
7292,16.66
7303,16.19
7315,15.65
7327,15.2
7339,14.85
7351,14.49
7363,13.98
7375,13.2
7387,12.19
7399,11.01
7411,9.73
7423,8.41
7435,7.04
7447,5.61
7459,4.13
7471,2.64
7482,1.18
7493,-0.23
7505,-1.62
7517,-3.11
7529,-4.76
7541,-6.65
7553,-8.82
7565,-11.29
7577,-14.05
7589,-17.04
7601,-20.19
7613,-23.46
7625,-26.87
7637,-30.38
7649,-33.9
7661,-37.1
7672,-39.53
7683,-40.69
7695,-40.22
7707,-38.05
7719,-34.47
7731,-29.95
7743,-25.03
7755,-20.11
7767,-15.4
7779,-10.93
7791,-6.65
7803,-2.46
7815,1.7
7827,5.83
7839,9.85
7851,13.59
7862,16.85
7873,19.48
7885,21.43
7897,22.74
7909,23.53
7921,23.95
7933,24.11
7945,24.12
7957,24.02
7969,23.89
7981,23.76
7993,23.63
8005,23.47
8017,23.22
8029,22.81
8041,22.26
8052,21.6
8063,20.89
8075,20.19
8087,19.51
8099,18.81
8111,17.97
8123,16.86
8135,15.37
8147,13.49
8159,11.3
8171,8.98
8183,6.75
8195,4.71
8207,2.84
8219,1.0
8231,-0.97
8242,-3.22
8253,-5.75
8265,-8.5
8277,-11.32
8289,-14.15
8301,-16.97
8313,-19.81
8325,-22.68
8337,-25.56
8349,-28.44
8361,-31.3
8373,-34.13
8385,-36.91
8397,-39.5
8409,-41.62
8421,-42.84
8432,-42.72
8443,-40.96
8455,-37.56
8467,-32.86
8479,-27.48
8491,-22.05
8503,-17.0
8515,-12.45
8527,-8.15
8539,-3.79
8551,0.88
8563,5.83
8575,10.83
8587,15.41
8599,19.13
8611,21.78
8622,23.35
8633,24.12
8645,24.43
8657,24.57
8669,24.72
8681,24.91
8693,25.1
8705,25.19
8717,25.17
8729,25.0
8741,24.7
8753,24.25
8765,23.61
8777,22.72
8789,21.61
8801,20.34
8812,19.07
8823,17.94
8835,17.08
8847,16.51
8859,16.12
8871,15.72
8883,15.06
8895,13.93
8907,12.27
8919,10.24
8931,8.07
8943,6.0
8955,4.18
8967,2.6
8979,1.03
8991,-0.8
9002,-3.07
9013,-5.84
9025,-8.92
9037,-12.03
9049,-14.9
9061,-17.33
9073,-19.3
9085,-21.03
9097,-22.78
9109,-24.85
9121,-27.44
9133,-30.47
9145,-33.58
9157,-36.25
9169,-37.89
9181,-38.05
9192,-36.59
9203,-33.65
9215,-29.65
9227,-25.05
9239,-20.25
9251,-15.43
9263,-10.63
9275,-5.83
9287,-1.0
9299,3.74
9311,8.26
9323,12.33
9335,15.82
9347,18.68
9359,20.88
9371,22.43
9382,23.29
9393,23.48
9405,23.07
9417,22.25
9429,21.3
9441,20.5
9453,20.1
9465,20.12
9477,20.45
9489,20.84
9501,21.07
9513,20.92
9525,20.34
9537,19.34
9549,18.08
9561,16.73
9572,15.48
9583,14.49
9595,13.72
9607,13.06
9619,12.28
9631,11.23
9643,9.89
9655,8.37
9667,6.91
9679,5.59
9691,4.41
9703,3.2
9715,1.8
9727,0.11
9739,-1.81
9751,-3.84
9762,-5.88
9773,-7.92
9785,-10.0
9797,-12.18
9809,-14.41
9821,-16.6
9833,-18.68
9845,-20.76
9857,-23.01
9869,-25.69
9881,-28.87
9893,-32.39
9905,-35.75
9917,-38.36
9929,-39.65
9941,-39.36
9952,-37.5
9963,-34.37
9975,-30.32
9987,-25.67
9999,-20.65
10011,-15.34
10023,-9.84
10035,-4.23
10047,1.36
10059,6.69
10071,11.52
10083,15.65
10095,18.94
10107,21.36
10119,23.03
10131,24.12
10142,24.79
10153,25.14
10165,25.18
10177,24.89
10189,24.25
10201,23.37
10213,22.37
10225,21.36
10237,20.37
10249,19.34
10261,18.18
10273,16.89
10285,15.62
10297,14.5
10309,13.73
10321,13.28
10332,13.04
10343,12.8
10355,12.34
10367,11.55
10379,10.38
10391,8.9
10403,7.21
10415,5.46
10427,3.76
10439,2.2
10451,0.8
10463,-0.53
10475,-1.87
10487,-3.36
10499,-5.08
10511,-7.06
10522,-9.2
10533,-11.41
10545,-13.53
10557,-15.43
10569,-17.03
10581,-18.32
10593,-19.41
10605,-20.51
10617,-21.89
10629,-23.75
10641,-26.17
10653,-29.01
10665,-31.9
10677,-34.35
10689,-35.84
10701,-35.97
10712,-34.6
10723,-31.85
10735,-28.07
10747,-23.68
10759,-19.07
10771,-14.49
10783,-10.1
10795,-5.95
10807,-2.08
10819,1.44
10831,4.58
10843,7.25
10855,9.41
10867,11.01
10879,12.04
10891,12.58
10902,12.78
10913,12.9
10925,13.16
10937,13.76
10949,14.69
10961,15.82
10973,16.94
10985,17.83
10997,18.39
11009,18.59
11021,18.5
11033,18.15
11045,17.59
11057,16.8
11069,15.77
11081,14.52
11092,13.11
11103,11.68
11115,10.32
11127,9.08
11139,7.87
11151,6.53
11163,4.81
11175,2.67
11187,0.15
11199,-2.48
11211,-4.95
11223,-7.04
11235,-8.64
11247,-9.89
11259,-11.03
11271,-12.36
11282,-14.12
11293,-16.46
11305,-19.39
11317,-22.74
11329,-26.2
11341,-29.41
11353,-31.97
11365,-33.58
11377,-34.02
11389,-33.16
11401,-31.07
11413,-27.93
11425,-24.03
11437,-19.71
11449,-15.23
11461,-10.72
11472,-6.15
11483,-1.45
11495,3.38
11507,8.16
11519,12.52
11531,16.14
11543,18.72
11555,20.26
11567,20.92
11579,21.07
11591,20.96
11603,20.82
11615,20.73
11627,20.7
11639,20.8
11651,21.01
11662,21.31
11673,21.63
11685,21.86
11697,21.87
11709,21.58
11721,20.96
11733,20.01
11745,18.79
11757,17.36
11769,15.79
11781,14.13
11793,12.35
11805,10.44
11817,8.38
11829,6.27
11841,4.23
11852,2.42
11863,0.86
11875,-0.55
11887,-2.02
11899,-3.75
11911,-5.74
11923,-7.89
11935,-9.99
11947,-11.98
11959,-13.89
11971,-15.95
11983,-18.37
11995,-21.23
12007,-24.46
12019,-27.85
12031,-31.06
12042,-33.73
12053,-35.5
12065,-36.08
12077,-35.25
12089,-33.02
12101,-29.54
12113,-25.09
12125,-20.06
12137,-14.84
12149,-9.75
12161,-5.03
12173,-0.81
12185,2.92
12197,6.2
12209,9.11
12221,11.7
12232,13.88
12243,15.57
12255,16.76
12267,17.53
12279,18.02
12291,18.4
12303,18.71
12315,18.9
12327,18.92
12339,18.78
12351,18.63
12363,18.66
12375,18.95
12387,19.47
12399,19.99
12411,20.3
12422,20.25
12433,19.91
12445,19.43
12457,19.0
12469,18.76
12481,18.66
12493,18.61
12505,18.45
12517,18.08
12529,17.47
12541,16.61
12553,15.49
12565,14.06
12577,12.32
12589,10.23
12601,7.91
12612,5.62
12623,3.55
12635,1.93
12647,0.7
12659,-0.4
12671,-1.76
12683,-3.68
12695,-6.3
12707,-9.37
12719,-12.5
12731,-15.32
12743,-17.66
12755,-19.59
12767,-21.35
12779,-23.2
12791,-25.3
12802,-27.73
12813,-30.48
12825,-33.49
12837,-36.67
12849,-39.72
12861,-42.2
12873,-43.59
12885,-43.41
12897,-41.49
12909,-38.01
12921,-33.46
12933,-28.44
12945,-23.43
12957,-18.59
12969,-13.84
12981,-9.02
12992,-4.0
13003,1.1
13015,5.97
13027,10.26
13039,13.71
13051,16.26
13063,18.08
13075,19.4
13087,20.36
13099,21.02
13111,21.33
13123,21.19
13135,20.66
13147,19.94
13159,19.34
13171,19.13
13182,19.42
13193,20.13
13205,21.01
13217,21.75
13229,22.08
13241,21.95
13253,21.41
13265,20.58
13277,19.58
13289,18.45
13301,17.2
13313,15.82
13325,14.36
13337,12.87
13349,11.42
13361,10.02
13372,8.65
13383,7.3
13395,5.96
13407,4.69
13419,3.53
13431,2.48
13443,1.43
13455,0.26
13467,-1.26
13479,-3.3
13491,-5.88
13503,-8.94
13515,-12.3
13527,-15.74
13539,-19.04
13551,-22.09
13562,-24.76
13573,-27.02
13585,-28.87
13597,-30.35
13609,-31.64
13621,-32.94
13633,-34.34
13645,-35.78
13657,-36.93
13669,-37.35
13681,-36.61
13693,-34.51
13705,-31.12
13717,-26.76
13729,-21.85
13741,-16.75
13752,-11.67
13763,-6.69
13775,-1.89
13787,2.6
13799,6.58
13811,9.86
13823,12.3
13835,14.0
13847,15.13
13859,15.97
13871,16.68
13883,17.37
13895,17.99
13907,18.4
13919,18.55
13931,18.48
13942,18.35
13953,18.35
13965,18.62
13977,19.12
13989,19.69
14001,20.08
14013,20.08
14025,19.64
14037,18.81
14049,17.74
14061,16.53
14073,15.17
14085,13.56
14097,11.66
14109,9.55
14121,7.43
14132,5.58
14143,4.16
14155,3.17
14167,2.4
14179,1.55
14191,0.39
14203,-1.18
14215,-3.06
14227,-5.11
14239,-7.21
14251,-9.38
14263,-11.63
14275,-13.95
14287,-16.23
14299,-18.31
14311,-20.09
14322,-21.61
14333,-23.16
14345,-24.97
14357,-27.19
14369,-29.66
14381,-32.02
14393,-33.73
14405,-34.34
14417,-33.64
14429,-31.66
14441,-28.66
14453,-24.99
14465,-21.03
14477,-17.07
14489,-13.29
14501,-9.69
14512,-6.16
14523,-2.6
14535,1.05
14547,4.67
14559,8.06
14571,10.98
14583,13.3
14595,15.05
14607,16.37
14619,17.46
14631,18.47
14643,19.48
14655,20.49
14667,21.44
14679,22.34
14691,23.14
14702,23.82
14713,24.31
14725,24.54
14737,24.49
14749,24.17
14761,23.63
14773,22.92
14785,22.08
14797,21.13
14809,20.06
14821,18.83
14833,17.38
14845,15.68
14857,13.75
14869,11.65
14881,9.52
14892,7.47
14903,5.64
14915,4.05
14927,2.65
14939,1.3
14951,-0.17
14963,-1.91
14975,-3.93
14987,-6.22
14999,-8.65
15011,-11.08
15023,-13.39
15035,-15.48
15047,-17.33
15059,-19.01
15071,-20.7
15082,-22.62
15093,-25.03
15105,-28.07
15117,-31.67
15129,-35.5
15141,-39.04
15153,-41.64
15165,-42.78
15177,-42.17
15189,-39.91
15201,-36.33
15213,-31.89
15225,-26.97
15237,-21.88
15249,-16.7
15261,-11.5
15272,-6.27
15283,-1.08
15295,3.97
15307,8.72
15319,12.95
15331,16.52
15343,19.28
15355,21.24
15367,22.46
15379,23.13
15391,23.47
15403,23.67
15415,23.85
15427,24.02
15439,24.21
15451,24.38
15462,24.56
15473,24.73
15485,24.84
15497,24.84
15509,24.6
15521,24.07
15533,23.21
15545,22.13
15557,20.93
15569,19.74
15581,18.57
15593,17.3
15605,15.79
15617,13.92
15629,11.73
15641,9.38
15652,7.14
15663,5.2
15675,3.63
15687,2.33
15699,1.07
15711,-0.33
15723,-2.0
15735,-3.89
15747,-5.88
15759,-7.84
15771,-9.65
15783,-11.24
15795,-12.61
15807,-13.81
15819,-14.97
15831,-16.22
15842,-17.76
15853,-19.76
15865,-22.29
15877,-25.28
15889,-28.45
15901,-31.3
15913,-33.32
15925,-34.01
15937,-33.12
15949,-30.65
15961,-26.86
15973,-22.24
15985,-17.26
15997,-12.35
16009,-7.71
16021,-3.44
16032,0.5
16043,4.1
16055,7.3
16067,10.01
16079,12.14
16091,13.72
16103,14.89
16115,15.86
16127,16.87
16139,18.05
16151,19.44
16163,20.94
16175,22.39
16187,23.65
16199,24.61
16211,25.25
16222,25.53
16233,25.47
16245,25.07
16257,24.33
16269,23.22
16281,21.73
16293,19.91
16305,17.89
16317,15.88
16329,14.07
16341,12.61
16353,11.49
16365,10.62
16377,9.82
16389,8.94
16401,7.87
16412,6.57
16423,5.04
16435,3.23
16447,1.16
16459,-1.16
16471,-3.65
16483,-6.2
16495,-8.68
16507,-10.99
16519,-13.17
16531,-15.23
16543,-17.28
16555,-19.39
16567,-21.57
16579,-23.8
16591,-26.05
16602,-28.19
16613,-30.01
16625,-31.24
16637,-31.55
16649,-30.72
16661,-28.68
16673,-25.65
16685,-22.0
16697,-18.15
16709,-14.37
16721,-10.71
16733,-7.0
16745,-2.99
16757,1.44
16769,6.22
16781,11.06
16792,15.58
16803,19.44
16815,22.45
16827,24.55
16839,25.86
16851,26.54
16863,26.79
16875,26.75
16887,26.55
16899,26.24
16911,25.89
16923,25.54
16935,25.16
16947,24.69
16959,24.07
16971,23.19
16982,22.03
16993,20.59
17005,18.94
17017,17.28
17029,15.81
17041,14.7
17053,13.97
17065,13.46
17077,12.93
17089,12.1
17101,10.8
17113,9.04
17125,6.98
17137,4.86
17149,2.86
17161,1.09
17172,-0.55
17183,-2.13
17195,-3.74
17207,-5.36
17219,-6.93
17231,-8.37
17243,-9.7
17255,-11.02
17267,-12.47
17279,-14.22
17291,-16.37
17303,-18.95
17315,-21.96
17327,-25.36
17339,-28.99
17351,-32.63
17362,-35.92
17373,-38.38
17385,-39.57
17397,-39.18
17409,-37.17
17421,-33.77
17433,-29.35
17445,-24.33
17457,-19.01
17469,-13.61
17481,-8.24
17493,-3.04
17505,1.82
17517,6.16
17529,9.81
17541,12.72
17552,15.01
17563,16.86
17575,18.47
17587,19.96
17599,21.25
17611,22.18
17623,22.63
17635,22.6
17647,22.26
17659,21.91
17671,21.77
17683,21.97
17695,22.41
17707,22.86
17719,23.06
17731,22.91
17742,22.43
17753,21.71
17765,20.87
17777,19.89
17789,18.77
17801,17.44
17813,15.91
17825,14.26
17837,12.63
17849,11.07
17861,9.58
17873,8.15
17885,6.65
17897,5.04
17909,3.34
17921,1.66
17932,0.11
17943,-1.14
17955,-2.07
17967,-2.71
17979,-3.18
17991,-3.64
18003,-4.31
18015,-5.27
18027,-6.61
18039,-8.27
18051,-10.12
18063,-12.01
18075,-13.81
18087,-15.48
18099,-17.09
18111,-18.76
18122,-20.59
18133,-22.71
18145,-25.16
18157,-27.88
18169,-30.7
18181,-33.28
18193,-35.15
18205,-35.85
18217,-35.06
18229,-32.8
18241,-29.52
18253,-25.82
18265,-22.27
18277,-19.13
18289,-16.3
18301,-13.48
18312,-10.39
18323,-7.0
18335,-3.49
18347,-0.12
18359,2.91
18371,5.61
18383,8.03
18395,10.25
18407,12.24
18419,13.86
18431,14.95
18443,15.43
18455,15.38
18467,15.0
18479,14.49
18491,14.02
18502,13.69
18513,13.48
18525,13.37
18537,13.23
18549,13.01
18561,12.69
18573,12.34
18585,12.04
18597,11.84
18609,11.74
18621,11.63
18633,11.38
18645,10.9
18657,10.14
18669,9.11
18681,7.86
18692,6.44
18703,4.95
18715,3.49
18727,2.14
18739,0.97
18751,-0.04
18763,-0.97
18775,-1.93
18787,-2.99
18799,-4.18
18811,-5.49
18823,-6.95
18835,-8.64
18847,-10.64
18859,-13.04
18871,-15.85
18882,-18.95
18893,-22.14
18905,-25.12
18917,-27.56
18929,-29.17
18941,-29.7
18953,-29.03
18965,-27.2
18977,-24.41
18989,-20.95
19001,-17.19
19013,-13.37
19025,-9.66
19037,-6.05
19049,-2.49
19061,1.07
19072,4.59
19083,7.96
19095,10.99
19107,13.49
19119,15.36
19131,16.57
19143,17.16
19155,17.2
19167,16.76
19179,15.92
19191,14.81
19203,13.64
19215,12.57
19227,11.8
19239,11.39
19251,11.32
19262,11.48
19273,11.71
19285,11.96
19297,12.21
19309,12.51
19321,12.9
19333,13.38
19345,13.88
19357,14.31
19369,14.57
19381,14.56
19393,14.19
19405,13.44
19417,12.26
19429,10.67
19441,8.74
19452,6.55
19463,4.27
19475,2.03
19487,-0.01
19499,-1.71
19511,-3.04
19523,-4.07
19535,-4.94
19547,-5.85
19559,-6.96
19571,-8.29
19583,-9.68
19595,-10.93
19607,-11.9
19619,-12.69
19631,-13.61
19642,-15.03
19653,-17.28
19665,-20.49
19677,-24.42
19689,-28.64
19701,-32.56
19713,-35.64
19725,-37.51
19737,-38.04
19749,-37.25
19761,-35.3
19773,-32.45
19785,-29.03
19797,-25.36
19809,-21.67
19821,-18.04
19832,-14.46
19843,-10.77
19855,-6.9
19867,-2.88
19879,1.11
19891,4.86
19903,8.14
19915,10.9
19927,13.23
19939,15.26
19951,17.06
19963,18.59
19975,19.71
19987,20.33
19999,20.48
20011,20.33
20022,20.06
20033,19.84
20045,19.7
20057,19.65
20069,19.6
20081,19.56
20093,19.55
20105,19.6
20117,19.71
20129,19.79
20141,19.73
20153,19.43
20165,18.85
20177,17.97
20189,16.78
20201,15.3
20212,13.51
20223,11.44
20235,9.17
20247,6.84
20259,4.58
20271,2.49
20283,0.55
20295,-1.31
20307,-3.22
20319,-5.25
20331,-7.43
20343,-9.73
20355,-12.04
20367,-14.3
20379,-16.4
20391,-18.24
20402,-19.74
20413,-20.88
20425,-21.77
20437,-22.65
20449,-23.83
20461,-25.56
20473,-27.92
20485,-30.74
20497,-33.63
20509,-36.04
20521,-37.49
20533,-37.63
20545,-36.38
20557,-33.86
20569,-30.37
20581,-26.24
20592,-21.75
20603,-17.17
20615,-12.63
20627,-8.27
20639,-4.19
20651,-0.46
20663,2.83
20675,5.65
20687,8.04
20699,10.06
20711,11.74
20723,13.1
20735,14.18
20747,15.01
20759,15.69
20771,16.31
20782,16.93
20793,17.54
20805,18.07
20817,18.42
20829,18.53
20841,18.41
20853,18.14
20865,17.79
20877,17.4
20889,16.96
20901,16.43
20913,15.85
20925,15.26
20937,14.73
20949,14.27
20961,13.76
20972,13.05
20983,11.96
20995,10.41
