seconds,BVP
11,88.19
23,88.32
35,87.15
47,84.66
59,81.15
71,77.13
82,73.18
93,69.81
105,67.27
117,65.54
129,64.39
141,63.42
153,62.21
165,60.4
177,57.87
189,54.99
201,52.49
213,51.27
225,51.86
237,54.14
249,57.31
261,60.42
272,63.07
283,65.82
295,70.05
307,77.26
319,88.14
331,102.08
343,117.32
355,131.78
367,143.88
379,153.06
391,159.69
403,164.44
415,167.77
427,169.64
439,169.72
451,167.82
462,164.22
473,159.8
485,155.8
497,153.31
509,152.87
521,154.1
533,155.86
545,156.62
557,155.11
569,150.89
581,144.53
593,137.38
605,130.99
617,126.6
629,124.81
641,125.64
652,128.56
663,132.48
675,135.44
687,134.63
699,126.79
711,109.39
723,81.92
735,46.7
747,8.37
759,-27.6
771,-56.93
783,-77.84
795,-91.2
807,-99.36
819,-104.77
831,-108.94
842,-112.45
853,-115.54
865,-118.7
877,-122.84
889,-128.87
901,-137.1
913,-146.94
925,-157.13
937,-166.28
949,-173.44
961,-178.41
973,-181.61
985,-183.73
997,-185.27
1009,-186.3
1021,-186.4
1032,-184.74
1043,-180.41
1055,-172.67
1067,-161.19
1079,-146.23
1091,-128.62
1103,-109.62
1115,-90.61
1127,-72.75
1139,-56.78
1151,-42.92
1163,-31.11
1175,-21.22
1187,-13.31
1199,-7.66
1211,-4.6
1222,-4.13
1233,-5.81
1245,-8.65
1257,-11.46
1269,-13.21
1281,-13.37
1293,-12.0
1305,-9.65
1317,-6.98
1329,-4.45
1341,-2.02
1353,0.83
1365,4.89
1377,10.87
1389,19.05
1401,29.15
1412,40.3
1423,51.38
1435,61.26
1447,69.06
1459,74.26
1471,76.62
1483,76.05
1495,72.57
1507,66.31
1519,57.7
1531,47.47
1543,36.62
1555,26.25
1567,17.29
1579,10.4
1591,5.79
1602,3.26
1613,2.32
1625,2.28
1637,2.39
1649,1.94
1661,0.45
1673,-2.27
1685,-6.02
1697,-10.27
1709,-14.31
1721,-17.48
1733,-19.35
1745,-19.88
1757,-19.32
1769,-18.07
1781,-16.47
1792,-14.64
1803,-12.45
1815,-9.72
1827,-6.39
1839,-2.68
1851,0.88
1863,3.61
1875,4.89
1887,4.39
1899,2.16
1911,-1.46
1923,-5.93
1935,-10.72
1947,-15.34
1959,-19.5
1971,-22.97
1982,-25.62
1993,-27.42
2005,-28.41
2017,-28.79
2029,-28.87
2041,-29.08
2053,-29.77
2065,-31.19
2077,-33.39
2089,-36.28
2101,-39.7
2113,-43.52
2125,-47.69
2137,-52.09
2149,-56.51
2161,-60.52
2172,-63.49
2183,-64.8
2195,-63.93
2207,-60.77
2219,-55.57
2231,-48.95
2243,-41.75
2255,-34.83
2267,-28.89
2279,-24.37
2291,-21.31
2303,-19.49
2315,-18.55
2327,-18.18
2339,-18.3
2351,-19.09
2362,-20.8
2373,-23.54
2385,-27.14
2397,-31.11
2409,-34.85
2421,-37.92
2433,-40.25
2445,-42.19
2457,-44.3
2469,-47.12
2481,-50.97
2493,-55.85
2505,-61.46
2517,-67.34
2529,-73.05
2541,-78.23
2552,-82.71
2563,-86.55
2575,-90.0
2587,-93.43
2599,-97.27
2611,-101.78
2623,-106.95
2635,-112.34
2647,-117.09
2659,-120.03
2671,-119.99
2683,-116.08
2695,-108.01
2707,-96.27
2719,-81.98
2731,-66.71
2742,-52.09
2753,-39.4
2765,-29.38
2777,-22.15
2789,-17.4
2801,-14.62
2813,-13.29
2825,-13.07
2837,-13.7
2849,-14.98
2861,-16.7
2873,-18.53
2885,-20.07
2897,-20.9
2909,-20.65
2921,-19.08
2932,-16.18
2943,-12.2
2955,-7.5
2967,-2.38
2979,3.09
2991,9.12
3003,16.03
3015,24.01
3027,32.83
3039,41.78
3051,49.86
3063,56.08
3075,59.8
3087,60.83
3099,59.46
3111,56.29
3122,52.17
3133,48.08
3145,45.08
3157,44.12
3169,45.82
3181,50.25
3193,56.84
3205,64.58
3217,72.26
3229,78.94
3241,84.12
3253,87.78
3265,90.24
3277,91.92
3289,93.02
3301,93.53
3312,93.21
3323,91.77
3335,89.0
3347,84.87
3359,79.58
3371,73.47
3383,66.94
3395,60.32
3407,53.83
3419,47.53
3431,41.43
3443,35.57
3455,30.15
3467,25.51
3479,22.0
3491,19.76
3502,18.61
3513,17.97
3525,16.98
3537,14.72
3549,10.37
3561,3.44
3573,-6.13
3585,-17.91
3597,-30.91
3609,-43.67
3621,-54.56
3633,-62.16
3645,-65.69
3657,-65.2
3669,-61.45
3681,-55.55
3692,-48.52
3703,-41.0
3715,-33.15
3727,-24.91
3739,-16.24
3751,-7.32
3763,1.37
3775,9.24
3787,15.68
3799,20.21
3811,22.59
3823,22.72
3835,20.54
3847,15.88
3859,8.39
3871,-2.48
3882,-17.26
3893,-36.21
3905,-58.98
3917,-84.5
3929,-111.15
3941,-137.18
3953,-161.27
3965,-182.91
3977,-202.27
3989,-219.68
4001,-234.81
4013,-246.04
4025,-250.49
4037,-244.67
4049,-225.79
4061,-192.79
4072,-147.14
4083,-92.64
4095,-34.64
4107,21.35
4119,70.96
4131,111.97
4143,144.47
4155,170.35
4167,192.1
4179,211.55
4191,229.11
4203,243.62
4215,253.18
4227,256.23
4239,252.56
4251,243.72
4262,232.66
4273,222.9
4285,217.54
4297,218.36
4309,225.39
4321,236.82
4333,249.21
4345,258.34
4357,260.15
4369,251.79
4381,232.28
4393,202.64
4405,165.42
4417,123.93
4429,81.39
4441,40.47
4452,3.07
4463,-29.73
4475,-57.6
4487,-80.93
4499,-100.69
4511,-118.06
4523,-134.01
4535,-148.81
4547,-161.76
4559,-171.45
4571,-176.23
4583,-174.93
4595,-167.3
4607,-154.17
4619,-137.18
4631,-118.34
4642,-99.5
4653,-81.99
4665,-66.46
4677,-53.02
4689,-41.42
4701,-31.34
4713,-22.56
4725,-15.08
4737,-9.0
4749,-4.52
4761,-1.75
4773,-0.66
4785,-1.05
4797,-2.58
4809,-4.77
4821,-7.09
4832,-9.04
4843,-10.22
4855,-10.41
4867,-9.57
4879,-7.92
4891,-5.84
4903,-3.87
4915,-2.61
4927,-2.63
4939,-4.36
4951,-7.95
4963,-13.12
4975,-19.09
4987,-24.74
4999,-28.75
5011,-30.0
5022,-27.82
5033,-22.18
5045,-13.7
5057,-3.41
5069,7.5
5081,17.97
5093,27.29
5105,35.07
5117,41.2
5129,45.72
5141,48.63
5153,49.95
5165,49.69
5177,47.93
5189,44.93
5201,41.09
5212,36.86
5223,32.67
5235,28.76
5247,25.2
5259,21.93
5271,18.87
5283,16.01
5295,13.44
5307,11.3
5319,9.65
5331,8.38
5343,7.18
5355,5.63
5367,3.31
5379,-0.02
5391,-4.37
5402,-9.53
5413,-15.1
5425,-20.49
5437,-25.02
5449,-27.94
5461,-28.56
5473,-26.45
5485,-21.57
5497,-14.32
5509,-5.53
5521,3.87
5533,13.0
5545,21.27
5557,28.34
5569,34.02
5581,38.16
5592,40.61
5603,41.27
5615,40.2
5627,37.68
5639,34.24
5651,30.42
5663,26.62
5675,23.05
5687,19.69
5699,16.44
5711,13.24
5723,10.21
5735,7.55
5747,5.47
5759,4.02
5771,3.08
5782,2.31
5793,1.34
5805,-0.23
5817,-2.68
5829,-6.21
5841,-10.91
5853,-16.73
5865,-23.36
5877,-30.09
5889,-35.91
5901,-39.61
5913,-40.17
5925,-37.08
5937,-30.53
5949,-21.41
5961,-10.93
5972,-0.29
5983,9.66
5995,18.48
6007,26.02
6019,32.24
6031,36.98
6043,40.02
6055,41.19
6067,40.48
6079,38.2
6091,34.86
6103,31.02
6115,27.17
6127,23.56
6139,20.29
6151,17.33
6162,14.61
6173,12.13
6185,9.93
6197,8.1
6209,6.72
6221,5.79
6233,5.13
6245,4.44
6257,3.3
6269,1.3
6281,-1.82
6293,-6.1
6305,-11.27
6317,-16.78
6329,-21.89
6341,-25.75
6352,-27.56
6363,-26.8
6375,-23.31
6387,-17.4
6399,-9.78
6411,-1.4
6423,6.85
6435,14.26
6447,20.44
6459,25.2
6471,28.42
6483,30.01
6495,29.86
6507,28.04
6519,24.81
6531,20.65
6542,16.17
6553,11.9
6565,8.15
6577,4.98
6589,2.28
6601,-0.13
6613,-2.34
6625,-4.33
6637,-6.03
6649,-7.42
6661,-8.57
6673,-9.68
6685,-10.96
6697,-12.64
6709,-14.85
6721,-17.69
6732,-21.14
6743,-25.12
6755,-29.34
6767,-33.33
6779,-36.45
6791,-37.98
6803,-37.37
6815,-34.37
6827,-29.13
6839,-22.2
6851,-14.35
6863,-6.35
6875,1.13
6887,7.65
6899,12.94
6911,16.86
6922,19.36
6933,20.41
6945,20.1
6957,18.6
6969,16.19
6981,13.25
6993,10.15
7005,7.22
7017,4.62
7029,2.38
7041,0.42
7053,-1.38
7065,-3.06
7077,-4.61
7089,-5.94
7101,-6.99
7112,-7.83
7123,-8.62
7135,-9.66
7147,-11.23
7159,-13.55
7171,-16.68
7183,-20.49
7195,-24.61
7207,-28.46
7219,-31.31
7231,-32.46
7243,-31.41
7255,-28.02
7267,-22.56
7279,-15.62
7291,-7.92
7302,-0.13
7313,7.22
7325,13.73
7337,19.03
7349,22.78
7361,24.69
7373,24.7
7385,22.99
7397,20.06
7409,16.5
7421,12.88
7433,9.57
7445,6.71
7457,4.24
7469,2.03
7481,-0.05
7492,-2.04
7503,-3.92
7515,-5.6
7527,-6.95
7539,-7.9
7551,-8.5
7563,-9.0
7575,-9.83
7587,-11.46
7599,-14.25
7611,-18.22
7623,-22.99
7635,-27.78
7647,-31.63
7659,-33.61
7671,-33.04
7682,-29.74
7693,-23.94
7705,-16.32
7717,-7.77
7729,0.77
7741,8.58
7753,15.1
7765,20.09
7777,23.45
7789,25.21
7801,25.48
7813,24.43
7825,22.35
7837,19.59
7849,16.5
7861,13.38
7872,10.37
7883,7.45
7895,4.51
7907,1.5
7919,-1.51
7931,-4.32
7943,-6.64
7955,-8.24
7967,-9.13
7979,-9.58
7991,-10.05
8003,-11.08
8015,-13.07
8027,-16.21
8039,-20.37
8051,-25.15
8062,-29.91
8073,-33.87
8085,-36.23
8097,-36.34
8109,-33.9
8121,-29.02
8133,-22.17
8145,-14.09
8157,-5.57
8169,2.72
8181,10.24
8193,16.62
8205,21.54
8217,24.76
8229,26.12
8241,25.64
8252,23.59
8263,20.42
8275,16.75
8287,13.15
8299,10.04
8311,7.57
8323,5.65
8335,4.09
8347,2.66
8359,1.3
8371,0.01
8383,-1.1
8395,-2.0
8407,-2.73
8419,-3.43
8431,-4.34
8442,-5.7
8453,-7.75
8465,-10.66
8477,-14.49
8489,-19.03
8501,-23.8
8513,-28.07
8525,-30.96
8537,-31.73
8549,-29.96
8561,-25.66
8573,-19.26
8585,-11.46
8597,-3.04
8609,5.27
8621,12.85
8632,19.23
8643,24.04
8655,27.05
8667,28.19
8679,27.62
8691,25.64
8703,22.7
8715,19.29
8727,15.86
8739,12.75
8751,10.17
8763,8.14
8775,6.52
8787,5.15
8799,3.89
8811,2.69
8822,1.62
8833,0.77
8845,0.17
8857,-0.32
8869,-0.94
8881,-2.01
8893,-3.78
8905,-6.42
8917,-9.97
8929,-14.36
8941,-19.3
8953,-24.3
8965,-28.61
8977,-31.34
8989,-31.72
9001,-29.36
9012,-24.35
9023,-17.31
9035,-9.12
9047,-0.71
9059,7.2
9071,14.15
9083,19.87
9095,24.17
9107,26.89
9119,27.92
9131,27.31
9143,25.3
9155,22.32
9167,18.89
9179,15.5
9191,12.5
9202,10.03
9213,8.1
9225,6.61
9237,5.46
9249,4.54
9261,3.75
9273,3.01
9285,2.23
9297,1.35
9309,0.32
9321,-0.88
9333,-2.29
9345,-3.98
9357,-6.09
9369,-8.82
9381,-12.37
9392,-16.81
9403,-21.94
9415,-27.19
9427,-31.66
9439,-34.32
9451,-34.31
9463,-31.26
9475,-25.38
9487,-17.45
9499,-8.49
9511,0.46
9523,8.62
9535,15.53
9547,21.0
9559,24.94
9571,27.3
9582,28.07
9593,27.34
9605,25.41
9617,22.71
9629,19.72
9641,16.84
9653,14.3
9665,12.12
9677,10.23
9689,8.58
9701,7.19
9713,6.15
9725,5.49
9737,5.14
9749,4.85
9761,4.32
9772,3.32
9783,1.79
9795,-0.15
9807,-2.29
9819,-4.52
9831,-6.9
9843,-9.69
9855,-13.2
9867,-17.6
9879,-22.69
9891,-27.93
9903,-32.4
9915,-35.11
9927,-35.24
9939,-32.38
9951,-26.69
9962,-18.86
9973,-9.9
9985,-0.9
9997,7.25
10009,13.98
10021,19.1
10033,22.66
10045,24.81
10057,25.67
10069,25.37
10081,24.02
10093,21.86
10105,19.23
10117,16.56
10129,14.24
10141,12.51
10152,11.4
10163,10.81
10175,10.54
10187,10.43
10199,10.36
10211,10.25
10223,9.99
10235,9.48
10247,8.61
10259,7.34
10271,5.74
10283,3.92
10295,1.97
10307,-0.08
10319,-2.33
10331,-4.94
10342,-8.07
10353,-11.73
10365,-15.67
10377,-19.35
10389,-21.94
10401,-22.52
10413,-20.32
10425,-15.0
10437,-6.81
10449,3.41
10461,14.47
10473,25.17
10485,34.56
10497,42.17
10509,47.87
10521,51.84
10532,54.31
10543,55.55
10555,55.8
10567,55.3
10579,54.27
10591,52.86
10603,51.12
10615,48.96
10627,46.22
10639,42.8
10651,38.71
10663,34.14
10675,29.36
10687,24.65
10699,20.16
10711,15.83
10722,11.49
10733,6.86
10745,1.72
10757,-4.04
10769,-10.38
10781,-17.16
10793,-24.18
10805,-31.24
10817,-38.17
10829,-44.89
10841,-51.36
10853,-57.49
10865,-63.04
10877,-67.55
10889,-70.39
10901,-70.85
10912,-68.42
10923,-62.94
10935,-54.7
10947,-44.36
10959,-32.81
10971,-20.98
10983,-9.65
10995,0.54
11007,9.16
11019,15.86
11031,20.49
11043,23.02
11055,23.65
11067,22.76
11079,20.87
11091,18.53
11102,16.17
11113,14.08
11125,12.36
11137,11.03
11149,10.12
11161,9.69
11173,9.84
11185,10.57
11197,11.72
11209,12.96
11221,13.91
11233,14.31
11245,14.09
11257,13.42
11269,12.54
11281,11.67
11292,10.9
11303,10.11
11315,9.09
11327,7.57
11339,5.33
11351,2.26
11363,-1.53
11375,-5.66
11387,-9.41
11399,-11.87
11411,-12.12
11423,-9.5
11435,-3.85
11447,4.43
11459,14.41
11471,24.86
11482,34.51
11493,42.31
11505,47.58
11517,50.01
11529,49.61
11541,46.58
11553,41.21
11565,33.86
11577,24.99
11589,15.22
11601,5.34
11613,-3.76
11625,-11.33
11637,-16.93
11649,-20.54
11661,-22.53
11672,-23.47
11683,-23.85
11695,-23.94
11707,-23.79
11719,-23.43
11731,-22.97
11743,-22.81
11755,-23.51
11767,-25.6
11779,-29.34
11791,-34.66
11803,-41.15
11815,-48.29
11827,-55.56
11839,-62.69
11851,-69.59
11862,-76.37
11873,-83.18
11885,-90.07
11897,-96.91
11909,-103.26
11921,-108.43
11933,-111.61
11945,-111.94
11957,-108.75
11969,-101.67
11981,-90.75
11993,-76.5
12005,-59.88
12017,-42.23
12029,-24.99
12041,-9.48
12052,3.39
12063,13.23
12075,20.1
12087,24.36
12099,26.41
12111,26.65
12123,25.38
12135,22.96
12147,19.79
12159,16.28
12171,12.77
12183,9.45
12195,6.37
12207,3.58
12219,1.07
12231,-1.15
12242,-3.17
12253,-5.18
12265,-7.47
12277,-10.26
12289,-13.54
12301,-17.04
12313,-20.29
12325,-22.79
12337,-24.23
12349,-24.54
12361,-23.9
12373,-22.64
12385,-21.09
12397,-19.64
12409,-18.67
12421,-18.51
12432,-19.28
12443,-20.77
12455,-22.35
12467,-23.04
12479,-21.82
12491,-17.86
12503,-10.85
12515,-1.04
12527,10.81
12539,23.62
12551,36.23
12563,47.59
12575,56.87
12587,63.58
12599,67.48
12611,68.57
12622,67.04
12633,63.27
12645,57.79
12657,51.35
12669,44.73
12681,38.7
12693,33.76
12705,30.14
12717,27.71
12729,26.18
12741,25.2
12753,24.48
12765,23.83
12777,23.07
12789,22.08
12801,20.73
12812,18.94
12823,16.74
12835,14.22
12847,11.52
12859,8.74
12871,5.9
12883,2.97
12895,-0.21
12907,-3.82
12919,-8.09
12931,-13.11
12943,-18.79
12955,-24.73
12967,-30.17
12979,-34.15
12991,-35.71
13002,-34.16
13013,-29.4
13025,-21.9
13037,-12.75
13049,-3.3
13061,5.06
13073,11.31
13085,14.92
13097,15.99
13109,15.13
13121,13.25
13133,11.2
13145,9.48
13157,8.02
13169,6.26
13181,3.49
13192,-0.67
13203,-5.81
13215,-10.65
13227,-13.53
13239,-13.19
13251,-9.59
13263,-4.25
13275,-0.02
13287,-0.34
13299,-8.41
13311,-26.29
13323,-54.18
13335,-89.95
13347,-129.02
13359,-164.96
13371,-190.9
13382,-201.53
13393,-195.02
13405,-173.91
13417,-144.45
13429,-114.51
13441,-90.95
13453,-77.44
13465,-73.74
13477,-76.4
13489,-80.44
13501,-81.16
13513,-75.44
13525,-62.21
13537,-42.31
13549,-17.77
13561,8.84
13572,35.03
13583,58.82
13595,78.89
13607,94.54
13619,105.73
13631,112.99
13643,117.25
13655,119.66
13667,121.24
13679,122.5
13691,123.27
13703,122.85
13715,120.33
13727,115.1
13739,107.19
13751,97.36
13762,86.84
13773,76.93
13785,68.42
13797,61.21
13809,54.27
13821,45.92
13833,34.46
13845,18.95
13857,-0.27
13869,-21.49
13881,-42.13
13893,-59.65
13905,-72.65
13917,-81.45
13929,-87.93
13941,-94.57
13952,-103.09
13963,-113.34
13975,-123.08
13987,-128.59
13999,-126.04
14011,-112.76
14023,-88.12
14035,-53.46
14047,-11.6
14059,33.9
14071,79.32
14083,121.04
14095,155.77
14107,180.78
14119,194.39
14131,196.38
14142,188.13
14153,172.28
14165,152.06
14177,130.49
14189,109.81
14201,91.33
14213,75.62
14225,62.83
14237,53.02
14249,46.18
14261,42.07
14273,40.1
14285,39.29
14297,38.41
14309,36.41
14321,32.65
14332,27.1
14343,20.26
14355,12.87
14367,5.64
14379,-1.05
14391,-7.17
14403,-13.11
14415,-19.48
14427,-26.88
14439,-35.55
14451,-45.08
14463,-54.2
14475,-60.87
14487,-62.75
14499,-57.94
14511,-45.67
14522,-26.69
14533,-3.11
14545,22.19
14557,46.33
14569,67.1
14581,83.26
14593,94.43
14605,100.83
14617,102.95
14629,101.42
14641,96.93
14653,90.25
14665,82.22
14677,73.65
14689,65.18
14701,57.28
14712,50.15
14723,43.81
14735,38.23
14747,33.4
14759,29.31
14771,26.04
14783,23.6
14795,21.91
14807,20.77
14819,19.85
14831,18.75
14843,17.08
14855,14.6
14867,11.21
14879,6.93
14891,1.81
14902,-4.17
14913,-11.07
14925,-18.92
14937,-27.47
14949,-36.01
14961,-43.4
14973,-48.28
14985,-49.45
14997,-46.27
15009,-38.85
15021,-28.0
15033,-15.06
15045,-1.52
15057,11.24
15069,22.14
15081,30.44
15092,35.83
15103,38.28
15115,38.12
15127,35.83
15139,31.95
15151,27.02
15163,21.45
15175,15.5
15187,9.4
15199,3.36
15211,-2.37
15223,-7.53
15235,-11.84
15247,-15.12
15259,-17.35
15271,-18.71
15282,-19.54
15293,-20.27
15305,-21.28
15317,-22.79
15329,-24.81
15341,-27.18
15353,-29.73
15365,-32.32
15377,-34.97
15389,-37.77
15401,-40.9
15413,-44.53
15425,-48.8
15437,-53.77
15449,-59.21
15461,-64.54
15472,-68.73
15483,-70.4
15495,-68.21
15507,-61.24
15519,-49.33
15531,-33.17
15543,-14.05
15555,6.46
15567,26.9
15579,46.13
15591,63.36
15603,78.05
15615,89.82
15627,98.41
15639,103.63
15651,105.48
15662,104.21
15673,100.33
15685,94.61
15697,87.95
15709,81.13
15721,74.65
15733,68.65
15745,62.99
15757,57.48
15769,52.04
15781,46.78
15793,41.8
15805,37.08
15817,32.33
15829,27.07
15841,20.84
15852,13.5
15863,5.3
15875,-3.2
15887,-11.36
15899,-18.75
15911,-25.33
15923,-31.36
15935,-37.23
15947,-43.14
15959,-48.89
15971,-53.95
15983,-57.6
15995,-59.17
16007,-58.37
16019,-55.29
16031,-50.41
16042,-44.35
16053,-37.79
16065,-31.3
16077,-25.31
16089,-20.18
16101,-16.15
16113,-13.42
16125,-12.07
16137,-12.06
16149,-13.2
16161,-15.11
16173,-17.33
16185,-19.39
16197,-20.96
16209,-21.85
16221,-22.13
16232,-21.93
16243,-21.46
16255,-20.87
16267,-20.22
16279,-19.52
16291,-18.86
16303,-18.32
16315,-18.06
16327,-18.22
16339,-18.86
16351,-19.96
16363,-21.4
16375,-23.05
16387,-24.8
16399,-26.63
16411,-28.59
16422,-30.79
16433,-33.3
16445,-36.03
16457,-38.66
16469,-40.72
16481,-41.66
16493,-41.05
16505,-38.68
16517,-34.62
16529,-29.15
16541,-22.67
16553,-15.67
16565,-8.64
16577,-2.14
16589,3.29
16601,7.23
16612,9.45
16623,10.04
16635,9.34
16647,7.8
16659,5.81
16671,3.61
16683,1.31
16695,-1.04
16707,-3.31
16719,-5.3
16731,-6.75
16743,-7.57
16755,-7.81
16767,-7.75
16779,-7.79
16791,-8.28
16802,-9.44
16813,-11.3
16825,-13.72
16837,-16.46
16849,-19.25
16861,-21.92
16873,-24.41
16885,-26.84
16897,-29.45
16909,-32.59
16921,-36.62
16933,-41.71
16945,-47.75
16957,-54.13
16969,-59.74
16981,-63.15
16992,-62.94
17003,-58.21
17015,-48.94
17027,-36.15
17039,-21.57
17051,-7.21
17063,5.31
17075,15.01
17087,21.64
17099,25.4
17111,26.68
17123,25.86
17135,23.3
17147,19.38
17159,14.61
17171,9.57
17182,4.87
17193,0.95
17205,-1.9
17217,-3.6
17229,-4.23
17241,-4.02
17253,-3.3
17265,-2.43
17277,-1.8
17289,-1.65
17301,-2.14
17313,-3.26
17325,-4.95
17337,-7.13
17349,-9.72
17361,-12.64
17372,-15.88
17383,-19.48
17395,-23.56
17407,-28.34
17419,-33.94
17431,-40.2
17443,-46.44
17455,-51.46
17467,-53.77
17479,-52.06
17491,-45.75
17503,-35.23
17515,-21.85
17527,-7.47
17539,6.1
17551,17.55
17562,26.29
17573,32.33
17585,36.01
17597,37.72
17609,37.82
17621,36.55
17633,34.21
17645,31.15
17657,27.81
17669,24.59
17681,21.74
17693,19.36
17705,17.36
17717,15.65
17729,14.24
17741,13.22
17752,12.81
17763,13.1
17775,13.99
17787,15.14
17799,16.05
17811,16.23
17823,15.45
17835,13.72
17847,11.3
17859,8.51
17871,5.57
17883,2.47
17895,-1.0
17907,-5.17
17919,-10.35
17931,-16.68
17942,-23.95
17953,-31.54
17965,-38.35
17977,-42.96
17989,-43.97
18001,-40.41
18013,-32.2
18025,-20.21
18037,-6.11
18049,8.15
18061,20.92
18073,31.26
18085,38.89
18097,44.05
18109,47.1
18121,48.28
18132,47.75
18143,45.69
18155,42.46
18167,38.65
18179,34.93
18191,31.77
18203,29.35
18215,27.44
18227,25.63
18239,23.5
18251,20.86
18263,17.79
18275,14.53
18287,11.36
18299,8.35
18311,5.4
18322,2.27
18333,-1.26
18345,-5.25
18357,-9.53
18369,-13.77
18381,-17.71
18393,-21.18
18405,-24.32
18417,-27.44
18429,-30.98
18441,-35.28
18453,-40.49
18465,-46.46
18477,-52.71
18489,-58.48
18501,-62.7
18512,-64.19
18523,-61.92
18535,-55.26
18547,-44.39
18559,-30.28
18571,-14.58
18583,0.87
18595,14.49
18607,25.32
18619,33.08
18631,37.95
18643,40.32
18655,40.55
18667,38.99
18679,36.04
18691,32.3
18702,28.47
18713,25.28
18725,23.2
18737,22.28
18749,22.25
18761,22.54
18773,22.58
18785,22.01
18797,20.78
18809,19.08
18821,17.23
18833,15.44
18845,13.7
18857,11.77
18869,9.31
18881,6.0
18892,1.76
18903,-3.25
18915,-8.68
18927,-14.11
18939,-19.2
18951,-23.83
18963,-28.08
18975,-32.26
18987,-36.78
18999,-42.01
19011,-48.15
19023,-55.02
19035,-61.9
19047,-67.49
19059,-70.16
19071,-68.38
19082,-61.23
19093,-48.86
19105,-32.49
19117,-14.16
19129,3.9
19141,19.89
19153,32.71
19165,42.09
19177,48.25
19189,51.59
19201,52.5
19213,51.28
19225,48.36
19237,44.29
19249,39.86
19261,35.81
19272,32.7
19283,30.71
19295,29.63
19307,28.99
19319,28.3
19331,27.22
19343,25.68
19355,23.77
19367,21.64
19379,19.32
19391,16.7
19403,13.57
19415,9.76
19427,5.24
19439,0.13
19451,-5.31
19462,-10.8
19473,-16.1
19485,-21.1
19497,-25.81
19509,-30.43
19521,-35.24
19533,-40.63
19545,-46.89
19557,-54.11
19569,-61.96
19581,-69.55
19593,-75.49
19605,-78.18
19617,-76.25
19629,-69.01
19641,-56.8
19652,-40.92
19663,-23.31
19675,-5.97
19687,9.49
19699,22.19
19711,31.84
19723,38.54
19735,42.5
19747,43.92
19759,43.05
19771,40.28
19783,36.28
19795,31.86
19807,27.76
19819,24.46
19831,22.09
19842,20.43
19853,19.15
19865,18.01
19877,17.0
19889,16.31
19901,16.08
19913,16.25
19925,16.38
19937,15.78
19949,13.77
19961,9.98
19973,4.55
19985,-1.93
19997,-8.61
20009,-14.79
20021,-20.07
20032,-24.48
20043,-28.41
20055,-32.5
20067,-37.37
20079,-43.48
20091,-50.82
20103,-58.7
20115,-65.71
20127,-69.99
20139,-69.74
20151,-63.9
20163,-52.56
20175,-37.06
20187,-19.48
20199,-2.06
20211,13.4
20222,25.91
20233,35.14
20245,41.2
20257,44.34
20269,44.85
20281,43.13
20293,39.7
20305,35.3
20317,30.76
20329,26.75
20341,23.67
20353,21.55
20365,20.17
20377,19.23
20389,18.56
20401,18.15
20412,18.16
20423,18.73
20435,19.77
20447,20.91
20459,21.53
20471,21.0
20483,18.93
20495,15.32
20507,10.59
20519,5.41
20531,0.38
20543,-4.2
20555,-8.45
20567,-12.83
20579,-17.94
20591,-24.21
20602,-31.67
20613,-39.8
20625,-47.49
20637,-53.23
20649,-55.4
20661,-52.72
20673,-44.72
20685,-31.9
20697,-15.77
20709,1.6
20721,18.1
20733,32.1
20745,42.75
20757,49.88
20769,53.8
20781,54.96
20792,53.78
20803,50.68
20815,46.11
20827,40.7
20839,35.11
20851,29.9
20863,25.41
20875,21.69
20887,18.58
20899,15.93
20911,13.68
20923,11.93
20935,10.75
20947,10.03
20959,9.36
20971,8.14
20982,5.81
20993,2.11
