seconds,BVP
5,213.19
17,179.31
29,117.71
41,42.72
53,-25.66
65,-77.51
77,-113.33
89,-137.11
101,-151.75
113,-158.24
125,-156.98
137,-145.73
149,-125.79
160,-100.08
171,-73.24
183,-49.14
195,-30.47
207,-19.23
219,-16.77
231,-23.49
243,-35.43
255,-48.46
267,-59.45
279,-67.73
291,-72.96
303,-76.12
315,-79.5
327,-85.36
339,-94.96
350,-105.71
361,-114.76
373,-119.36
385,-118.02
397,-110.17
409,-95.31
421,-73.14
433,-43.68
445,-8.44
457,31.77
469,68.22
481,92.3
493,103.21
505,106.75
517,108.94
529,110.74
540,110.85
551,101.02
563,75.12
575,31.29
587,-26.11
599,-89.01
611,-149.83
623,-198.54
635,-227.11
647,-232.19
659,-216.39
671,-185.78
683,-148.09
695,-109.63
707,-74.67
719,-45.87
730,-23.65
741,-7.13
753,5.45
765,15.82
777,26.49
789,40.48
801,60.97
813,89.87
825,122.0
837,148.28
849,161.2
861,159.96
873,148.79
885,133.57
897,118.95
909,107.09
920,96.98
931,85.15
943,68.7
955,46.78
967,21.43
979,-3.56
991,-23.94
1003,-36.76
1015,-41.46
1027,-40.06
1039,-36.15
1051,-32.7
1063,-31.57
1075,-33.39
1087,-37.96
1099,-44.34
1110,-50.91
1121,-55.72
1133,-57.29
1145,-55.85
1157,-51.42
1169,-45.0
1181,-38.02
1193,-31.72
1205,-26.5
1217,-21.8
1229,-16.77
1241,-11.05
1253,-5.25
1265,-0.28
1277,2.79
1289,3.45
1300,1.9
1311,-1.03
1323,-4.2
1335,-6.67
1347,-7.99
1359,-8.17
1371,-7.16
1383,-4.99
1395,-1.62
1407,2.91
1419,8.32
1431,14.09
1443,19.65
1455,24.49
1467,27.6
1479,28.85
1490,28.52
1501,27.07
1513,24.93
1525,22.17
1537,18.53
1549,13.52
1561,6.64
1573,-2.3
1585,-12.87
1597,-24.28
1609,-35.49
1621,-45.53
1633,-53.65
1645,-59.54
1657,-63.26
1669,-65.05
1680,-65.02
1691,-62.89
1703,-58.18
1715,-50.38
1727,-39.29
1739,-25.29
1751,-9.46
1763,6.57
1775,20.91
1787,31.9
1799,38.48
1811,40.43
1823,38.34
1835,33.42
1847,27.17
1859,20.95
1870,15.73
1881,11.92
1893,9.56
1905,8.49
1917,8.61
1929,10.0
1941,12.8
1953,16.99
1965,22.3
1977,28.1
1989,33.55
2001,37.88
2013,40.55
2025,41.31
2037,40.21
2049,37.42
2060,33.24
2071,28.03
2083,22.18
2095,15.99
2107,9.65
2119,3.09
2131,-3.84
2143,-11.21
2155,-18.75
2167,-25.74
2179,-31.13
2191,-33.95
2203,-33.61
2215,-30.1
2227,-24.04
2239,-16.33
2250,-7.9
2261,0.5
2273,8.35
2285,15.32
2297,21.19
2309,25.77
2321,28.98
2333,30.8
2345,31.3
2357,30.52
2369,28.5
2381,25.23
2393,20.83
2405,15.48
2417,9.53
2429,3.44
2440,-2.33
2451,-7.33
2463,-11.22
2475,-13.81
2487,-15.27
2499,-16.16
2511,-17.35
2523,-19.63
2535,-23.29
2547,-27.84
2559,-32.06
2571,-34.46
2583,-33.91
2595,-30.12
2607,-23.78
2619,-16.08
2630,-8.17
2641,-0.68
2653,6.28
2665,12.81
2677,18.9
2689,24.38
2701,28.96
2713,32.45
2725,34.99
2737,36.94
2749,38.65
2761,40.04
2773,40.55
2785,39.31
2797,36.03
2809,30.85
2820,24.36
2831,17.38
2843,10.66
2855,4.66
2867,-0.78
2879,-6.27
2891,-12.42
2903,-18.71
2915,-24.19
2927,-27.95
2939,-29.37
2951,-28.2
2963,-24.61
2975,-19.28
2987,-13.28
2999,-7.58
3010,-1.84
3021,4.25
3033,10.24
3045,15.09
3057,17.98
3069,18.88
3081,18.59
3093,18.37
3105,19.68
3117,25.01
3129,35.58
3141,50.46
3153,67.15
3165,83.07
3177,96.48
3189,106.68
3200,113.56
3211,109.66
3223,92.4
3235,66.07
3247,38.55
3259,15.11
3271,-3.31
3283,-17.99
3295,-30.39
3307,-41.38
3319,-51.9
3331,-60.74
3343,-66.89
3355,-70.54
3367,-72.83
3379,-74.95
3390,-77.77
3401,-80.12
3413,-81.38
3425,-81.31
3437,-78.85
3449,-73.61
3461,-66.25
3473,-58.06
3485,-50.21
3497,-43.44
3509,-37.9
3521,-33.37
3533,-29.42
3545,-24.87
3557,-18.88
3569,-11.54
3580,-3.51
3591,4.16
3603,10.48
3615,14.92
3627,17.75
3639,19.52
3651,21.12
3663,23.06
3675,25.17
3687,27.11
3699,28.42
3711,28.64
3723,27.5
3735,25.14
3747,21.03
3759,14.17
3770,3.41
3781,-12.22
3793,-30.29
3805,-45.69
3817,-54.0
3829,-56.46
3841,-54.39
3853,-49.18
3865,-42.12
3877,-32.77
3889,-21.62
3901,-9.12
3913,3.68
3925,14.96
3937,22.59
3949,25.3
3960,22.57
3971,15.04
3983,4.59
3995,-6.25
4007,-14.72
4019,-19.05
4031,-18.94
4043,-15.07
4055,-8.11
4067,1.12
4079,11.81
4091,23.25
4103,34.46
4115,44.59
4127,52.65
4139,57.76
4150,59.38
4161,57.74
4173,53.23
4185,46.4
4197,37.88
4209,28.3
4221,18.59
4233,9.69
4245,2.46
4257,-2.54
4269,-5.01
4281,-5.15
4293,-3.6
4305,-1.14
4317,1.49
4329,3.86
4340,5.83
4351,7.44
4363,8.76
4375,9.83
4387,10.63
4399,11.11
4411,11.23
4423,10.93
4435,10.06
4447,8.35
4459,5.45
4471,1.1
4483,-4.57
4495,-11.0
4507,-17.22
4519,-22.1
4530,-24.75
4541,-24.79
4553,-22.47
4565,-18.67
4577,-14.52
4589,-11.1
4601,-8.99
4613,-8.23
4625,-8.26
4637,-8.19
4649,-7.21
4661,-4.8
4673,-0.91
4685,4.14
4697,9.75
4709,15.37
4720,20.52
4731,24.91
4743,28.42
4755,30.97
4767,32.49
4779,32.98
4791,32.63
4803,31.82
4815,31.08
4827,30.86
4839,31.19
4851,31.59
4863,31.11
4875,28.92
4887,24.77
4899,19.39
4910,14.17
4921,10.54
4933,9.03
4945,8.93
4957,8.55
4969,6.07
4981,0.67
4993,-6.86
5005,-14.2
5017,-18.32
5029,-16.6
5041,-7.88
5053,7.04
5065,25.51
5077,43.7
5089,57.56
5100,63.91
5111,61.28
5123,50.36
5135,33.86
5147,15.84
5159,0.59
5171,-8.52
5183,-10.1
5195,-5.21
5207,2.99
5219,10.26
5231,12.82
5243,8.75
5255,-1.32
5267,-14.67
5279,-27.68
5290,-37.32
5301,-42.09
5313,-42.09
5325,-38.32
5337,-31.86
5349,-23.31
5361,-13.08
5373,-1.84
5385,9.12
5397,18.1
5409,23.63
5421,25.12
5433,23.18
5445,19.25
5457,15.01
5469,11.51
5480,8.84
5491,6.22
5503,2.46
5515,-3.43
5527,-11.73
5539,-21.91
5551,-32.86
5563,-43.29
5575,-52.27
5587,-59.48
5599,-65.3
5611,-70.38
5623,-75.26
5635,-80.0
5647,-84.23
5659,-87.34
5670,-88.74
5681,-88.1
5693,-85.38
5705,-80.77
5717,-74.48
5729,-66.6
5741,-57.27
5753,-46.84
5765,-36.01
5777,-25.66
5789,-16.66
5801,-9.59
5813,-4.64
5825,-1.37
5837,1.35
5849,5.03
5860,10.99
5871,19.89
5883,31.5
5895,44.52
5907,56.94
5919,66.05
5931,69.86
5943,67.9
5955,61.1
5967,51.09
5979,39.57
5991,27.88
6003,16.69
6015,6.22
6027,-4.76
6039,-16.97
6050,-29.96
6061,-42.52
6073,-53.65
6085,-62.92
6097,-70.39
6109,-76.55
6121,-81.79
6133,-88.15
6145,-96.54
6157,-105.98
6169,-114.49
6181,-120.6
6193,-123.91
6205,-124.71
6217,-123.83
6229,-121.83
6240,-121.35
6251,-123.7
6263,-127.91
6275,-131.7
6287,-133.17
6299,-131.2
6311,-124.86
6323,-113.28
6335,-81.41
6347,-25.8
6359,42.5
6371,105.85
6383,152.3
6395,178.73
6407,187.52
6419,185.55
6430,177.27
6441,165.56
6453,150.23
6465,131.82
6477,112.92
6489,97.26
6501,87.5
6513,84.8
6525,88.28
6537,95.29
6549,102.79
6561,106.45
6573,103.86
6585,95.59
6597,84.14
6609,71.91
6620,60.36
6631,50.09
6643,41.24
6655,34.24
6667,28.4
6679,23.01
6691,17.56
6703,11.52
6715,4.16
6727,-4.9
6739,-15.03
6751,-24.85
6763,-32.58
6775,-37.63
6787,-40.29
6799,-41.2
6810,-40.93
6821,-39.79
6833,-37.81
6845,-34.94
6857,-31.51
6869,-28.06
6881,-25.56
6893,-24.67
6905,-25.39
6917,-27.17
6929,-29.29
6941,-31.13
6953,-32.39
6965,-33.01
6977,-32.95
6989,-32.19
7000,-30.68
7011,-28.42
7023,-25.47
7035,-21.93
7047,-17.85
7059,-13.24
7071,-8.11
7083,-2.48
7095,3.41
7107,9.21
7119,14.51
7131,18.98
7143,22.49
7155,25.05
7167,26.7
7179,27.41
7190,27.03
7201,25.41
7213,22.58
7225,18.86
7237,14.84
7249,11.14
7261,8.26
7273,6.31
7285,5.05
7297,4.06
7309,2.87
7321,1.14
7333,-1.34
7345,-4.65
7357,-8.76
7369,-13.51
7380,-18.62
7391,-23.76
7403,-28.59
7415,-32.96
7427,-36.87
7439,-40.48
7451,-43.97
7463,-47.41
7475,-50.76
7487,-53.94
7499,-56.85
7511,-59.41
7523,-61.51
7535,-62.92
7547,-63.27
7559,-62.16
7570,-59.23
7581,-54.32
7593,-47.57
7605,-39.35
7617,-30.2
7629,-20.61
7641,-10.93
7653,-1.28
7665,8.33
7677,17.93
7689,27.45
7701,36.62
7713,45.09
7725,52.46
7737,58.43
7749,62.9
7760,65.94
7771,67.76
7783,68.62
7795,68.73
7807,68.3
7819,67.39
7831,65.99
7843,64.04
7855,61.39
7867,57.96
7879,53.76
7891,48.88
7903,43.49
7915,37.8
7927,31.96
7939,26.13
7950,20.51
7961,15.39
7973,11.08
7985,7.9
7997,5.93
8009,4.99
8021,4.69
8033,4.61
8045,4.47
8057,4.18
8069,3.85
8081,3.66
8093,3.71
8105,4.03
8117,4.54
8129,5.2
8140,6.11
8151,7.48
8163,9.57
8175,12.67
8187,16.97
8199,22.52
8211,29.15
8223,36.38
8235,43.49
8247,49.55
8259,53.69
8271,55.22
8283,54.0
8295,50.52
8307,45.71
8319,40.59
8330,35.96
8341,32.27
8353,29.56
8365,27.65
8377,26.24
8389,25.23
8401,24.84
8413,25.37
8425,26.9
8437,29.12
8449,31.48
8461,33.38
8473,34.32
8485,33.8
8497,31.67
8509,28.13
8520,23.52
8531,17.99
8543,11.57
8555,4.38
8567,-3.24
8579,-10.93
8591,-18.77
8603,-27.07
8615,-36.1
8627,-46.05
8639,-56.97
8651,-68.67
8663,-80.58
8675,-91.17
8687,-97.46
8699,-97.9
8710,-93.49
8721,-86.33
8733,-77.84
8745,-68.44
8757,-58.29
8769,-47.82
8781,-38.06
8793,-29.64
8805,-23.62
8817,-20.57
8829,-20.17
8841,-21.46
8853,-23.33
8865,-24.95
8877,-25.68
8889,-25.28
8900,-23.41
8911,-20.14
8923,-15.65
8935,-10.15
8947,-3.99
8959,2.13
8971,7.43
8983,11.25
8995,13.29
9007,13.66
9019,12.55
9031,10.48
9043,8.24
9055,6.72
9067,6.51
9079,7.77
9090,10.13
9101,12.93
9113,15.4
9125,16.89
9137,17.19
9149,16.57
9161,15.47
9173,14.12
9185,12.39
9197,9.91
9209,6.36
9221,1.81
9233,-3.26
9245,-7.96
9257,-11.35
9269,-12.72
9280,-11.95
9291,-9.41
9303,-5.8
9315,-1.83
9327,2.02
9339,5.55
9351,8.77
9363,11.79
9375,14.68
9387,17.35
9399,19.62
9411,21.28
9423,22.13
9435,22.14
9447,21.33
9459,19.83
9470,17.68
9481,14.89
9493,11.35
9505,6.95
9517,1.65
9529,-4.4
9541,-10.82
9553,-17.12
9565,-22.86
9577,-27.77
9589,-31.7
9601,-34.57
9613,-36.25
9625,-36.5
9637,-34.99
9649,-31.44
9660,-25.78
9671,-18.06
9683,-8.6
9695,2.19
9707,13.62
9719,24.69
9731,34.21
9743,41.17
9755,45.03
9767,45.91
9779,44.75
9791,42.81
9803,41.4
9815,41.2
9827,41.85
9839,42.34
9850,41.49
9861,38.51
9873,33.22
9885,26.25
9897,18.45
9909,10.84
9921,4.06
9933,-1.79
9945,-6.75
9957,-10.53
9969,-12.66
9981,-12.74
9993,-10.58
10005,-6.78
10017,-1.93
10029,3.34
10040,8.47
10051,13.15
10063,17.15
10075,19.59
10087,18.98
10099,13.88
10111,2.83
10123,-12.19
10135,-25.64
10147,-32.29
10159,-30.74
10171,-23.39
10183,-14.5
10195,-8.91
10207,-7.28
10219,-8.81
10230,-11.77
10241,-14.77
10253,-17.64
10265,-21.21
10277,-25.01
10289,-28.94
10301,-32.81
10313,-36.24
10325,-39.26
10337,-41.9
10349,-44.43
10361,-47.37
10373,-51.05
10385,-55.2
10397,-59.26
10409,-62.42
10420,-63.82
10431,-63.14
10443,-60.34
10455,-55.59
10467,-49.27
10479,-41.62
10491,-32.6
10503,-22.3
10515,-11.15
10527,0.08
10539,10.22
10551,18.26
10563,23.68
10575,26.59
10587,27.7
10599,27.93
10610,27.86
10621,27.64
10633,27.18
10645,26.53
10657,26.21
10669,27.17
10681,30.4
10693,36.52
10705,45.37
10717,56.02
10729,66.94
10741,76.61
10753,83.87
10765,88.02
10777,88.8
10789,86.4
10800,81.58
10811,75.73
10823,70.62
10835,67.56
10847,67.22
10859,69.07
10871,71.03
10883,69.76
10895,61.73
10907,44.84
10919,19.52
10931,-11.02
10943,-42.37
10955,-69.41
10967,-87.65
10979,-94.84
10990,-91.66
11001,-81.23
11013,-67.63
11025,-54.47
11037,-44.07
11049,-38.28
11061,-37.11
11073,-38.78
11085,-41.06
11097,-42.56
11109,-43.23
11121,-43.83
11133,-45.3
11145,-48.41
11157,-55.02
11169,-65.99
11180,-80.41
11191,-96.22
11203,-110.86
11215,-121.54
11227,-125.07
11239,-118.27
11251,-91.21
11263,-43.58
11275,13.69
11287,65.94
11299,104.17
11311,126.69
11323,135.39
11335,132.77
11347,121.11
11359,102.48
11370,78.18
11381,51.09
11393,26.12
11405,6.69
11417,-5.14
11429,-9.62
11441,-8.72
11453,-4.89
11465,-0.24
11477,2.77
11489,3.01
11501,0.92
11513,-2.44
11525,-6.32
11537,-9.96
11549,-13.46
11560,-17.04
11571,-20.92
11583,-25.85
11595,-32.02
11607,-38.62
11619,-44.33
11631,-47.77
11643,-48.14
11655,-45.22
11667,-39.19
11679,-30.63
11691,-20.69
11703,-10.58
11715,-1.19
11727,6.86
11739,13.15
11750,17.35
11761,19.22
11773,18.89
11785,16.76
11797,13.34
11809,9.28
11821,5.21
11833,1.62
11845,-1.26
11857,-3.45
11869,-5.0
11881,-5.87
11893,-5.86
11905,-4.81
11917,-2.79
11929,-0.19
11940,2.33
11951,4.1
11963,4.68
11975,3.97
11987,2.16
11999,-0.33
12011,-3.11
12023,-5.86
12035,-8.33
12047,-10.33
12059,-11.69
12071,-12.32
12083,-12.22
12095,-11.62
12107,-10.79
12119,-10.01
12130,-9.4
12141,-8.86
12153,-8.11
12165,-6.83
12177,-4.87
12189,-2.25
12201,0.66
12213,3.42
12225,5.59
12237,6.99
12249,7.68
12261,7.99
12273,8.29
12285,8.83
12297,9.67
12309,10.65
12320,11.47
12331,11.85
12343,11.6
12355,10.68
12367,9.16
12379,7.23
12391,5.08
12403,2.91
12415,0.82
12427,-1.12
12439,-2.89
12451,-4.51
12463,-6.0
12475,-7.39
12487,-8.66
12499,-9.79
12510,-10.72
12521,-11.37
12533,-11.74
12545,-11.95
12557,-12.2
12569,-12.76
12581,-13.72
12593,-14.95
12605,-16.03
12617,-16.38
12629,-15.49
12641,-13.09
12653,-9.28
12665,-4.53
12677,0.54
12689,5.26
12700,9.07
12711,11.56
12723,12.54
12735,12.1
12747,10.63
12759,8.72
12771,7.04
12783,6.18
12795,6.43
12807,7.79
12819,9.94
12831,12.41
12843,14.64
12855,16.15
12867,16.54
12879,15.64
12890,13.51
12901,10.48
12913,7.08
12925,3.85
12937,1.22
12949,-0.62
12961,-1.69
12973,-2.12
12985,-2.02
12997,-1.42
13009,-0.37
13021,1.03
13033,2.64
13045,4.33
13057,6.07
13069,8.0
13080,10.25
13091,12.85
13103,15.67
13115,18.39
13127,20.79
13139,22.84
13151,24.75
13163,26.81
13175,29.14
13187,31.6
13199,33.8
13211,35.35
13223,36.06
13235,36.02
13247,35.49
13259,34.62
13270,33.47
13281,31.96
13293,30.1
13305,28.06
13317,26.13
13329,24.57
13341,23.46
13353,22.63
13365,21.77
13377,20.65
13389,19.29
13401,17.96
13413,16.97
13425,16.41
13437,15.97
13449,14.96
13460,12.67
13471,8.67
13483,3.12
13495,-3.19
13507,-9.1
13519,-13.43
13531,-15.46
13543,-15.07
13555,-12.8
13567,-9.61
13579,-6.69
13591,-5.23
13603,-6.16
13615,-9.91
13627,-16.1
13639,-23.46
13650,-30.02
13661,-33.69
13673,-33.01
13685,-27.81
13697,-19.34
13709,-9.86
13721,-1.67
13733,3.74
13745,6.2
13757,6.67
13769,6.56
13781,7.01
13793,8.39
13805,10.31
13817,12.07
13829,13.11
13840,13.35
13851,13.15
13863,13.02
13875,13.28
13887,13.88
13899,14.42
13911,14.4
13923,13.56
13935,12.06
13947,10.52
13959,9.78
13971,10.59
13983,13.24
13995,17.47
14007,22.47
14019,27.18
14030,30.63
14041,32.23
14053,31.91
14065,30.02
14077,27.1
14089,23.63
14101,19.87
14113,15.89
14125,11.6
14137,6.9
14149,1.81
14161,-3.52
14173,-8.79
14185,-13.72
14197,-18.13
14209,-22.04
14220,-25.66
14231,-29.31
14243,-33.18
14255,-37.16
14267,-40.87
14279,-43.7
14291,-45.12
14303,-44.91
14315,-43.22
14327,-40.53
14339,-37.36
14351,-34.03
14363,-30.63
14375,-27.1
14387,-23.33
14399,-19.38
14410,-15.48
14421,-11.95
14433,-9.13
14445,-7.23
14457,-6.27
14469,-6.04
14481,-6.13
14493,-6.07
14505,-5.49
14517,-4.24
14529,-2.52
14541,-0.77
14553,0.53
14565,1.06
14577,0.8
14589,-0.03
14600,-1.01
14611,-1.74
14623,-1.86
14635,-1.15
14647,0.46
14659,2.87
14671,5.82
14683,8.92
14695,11.75
14707,13.95
14719,15.34
14731,15.9
14743,15.7
14755,14.8
14767,13.26
14779,11.13
14790,8.52
14801,5.67
14813,2.98
14825,0.87
14837,-0.31
14849,-0.4
14861,0.52
14873,2.2
14885,4.28
14897,6.45
14909,8.52
14921,10.45
14933,12.22
14945,13.8
14957,15.1
14969,16.03
14980,16.65
14991,17.22
15003,18.22
15015,20.23
15027,23.62
15039,28.41
15051,34.24
15063,40.42
15075,46.28
15087,51.41
15099,55.76
15111,59.62
15123,63.41
15135,67.41
15147,71.72
15159,76.2
15170,80.63
15181,84.85
15193,88.9
15205,92.94
15217,97.18
15229,101.75
15241,106.62
15253,111.63
15265,116.58
15277,121.3
15289,125.71
15301,129.72
15313,133.19
15325,135.78
15337,137.07
15349,136.67
15360,134.33
15371,130.08
15383,124.14
15395,116.78
15407,108.24
15419,98.57
15431,87.75
15443,75.78
15455,62.72
15467,48.74
15479,34.06
15491,18.87
15503,3.33
15515,-12.42
15527,-28.18
15539,-43.68
15550,-58.5
15561,-72.24
15573,-84.64
15585,-95.72
15597,-105.83
15609,-115.6
15621,-125.62
15633,-136.2
15645,-147.22
15657,-158.09
15669,-168.05
15681,-176.4
15693,-182.69
15705,-186.8
15717,-188.71
15729,-188.39
15740,-185.72
15751,-180.47
15763,-172.36
15775,-161.06
15787,-145.97
15799,-126.16
15811,-100.57
15823,-68.97
15835,-32.2
15847,7.31
15859,45.68
15871,78.44
15883,102.04
15895,115.15
15907,118.9
15919,116.05
15930,109.19
15941,100.11
15953,89.59
15965,77.88
15977,65.31
15989,52.86
16001,42.13
16013,34.65
16025,31.2
16037,30.73
16049,31.67
16061,32.57
16073,32.16
16085,29.02
16097,21.65
16109,8.95
16120,-9.39
16131,-32.7
16143,-61.14
16155,-92.93
16167,-124.12
16179,-150.33
16191,-169.01
16203,-179.96
16215,-184.93
16227,-186.99
16239,-189.82
16251,-200.49
16263,-221.79
16275,-250.08
16287,-278.02
16299,-299.34
16310,-311.01
16321,-313.44
16333,-309.77
16345,-304.24
16357,-306.46
16369,-319.42
16381,-337.11
16393,-349.9
16405,-351.94
16417,-343.18
16429,-327.39
16441,-309.47
16453,-293.21
16465,-288.27
16477,-297.09
16489,-312.94
16500,-326.03
16511,-330.76
16523,-326.15
16535,-312.93
16547,-291.84
16559,-212.0
16571,-65.68
16583,107.13
16595,255.71
16607,357.77
16619,417.2
16631,446.84
16643,458.62
16655,460.64
16667,457.58
16679,443.66
16690,416.71
16701,381.57
16713,345.44
16725,311.85
16737,280.95
16749,252.57
16761,227.77
16773,207.24
16785,185.6
16797,160.32
16809,133.96
16821,111.14
16833,94.14
16845,82.72
16857,75.57
16869,71.18
16880,68.23
16891,62.29
16903,51.71
16915,39.16
16927,29.13
16939,24.44
16951,25.5
16963,31.63
16975,40.53
16987,49.55
16999,55.17
17011,55.46
17023,50.85
17035,43.36
17047,35.37
17059,29.11
17070,26.05
17081,26.75
17093,30.9
17105,37.64
17117,45.66
17129,53.52
17141,60.07
17153,64.43
17165,65.73
17177,62.62
17189,53.68
17201,34.32
17213,5.97
17225,-23.96
17237,-46.82
17249,-58.6
17260,-60.86
17271,-56.18
17283,-47.43
17295,-36.16
17307,-24.3
17319,-12.66
17331,-2.25
17343,5.81
17355,11.05
17367,13.65
17379,14.39
17391,14.19
17403,14.21
17415,15.46
17427,18.98
17439,24.28
17450,30.06
17461,35.38
17473,39.71
17485,43.06
17497,45.71
17509,48.37
17521,51.79
17533,56.77
17545,63.45
17557,68.08
17569,69.47
17581,69.02
17593,68.4
17605,67.13
17617,63.06
17629,54.16
17640,42.34
17651,26.82
17663,7.85
17675,-13.16
17687,-35.43
17699,-59.5
17711,-87.09
17723,-117.98
17735,-146.95
17747,-167.32
17759,-174.23
17771,-166.39
17783,-145.96
17795,-117.54
17807,-86.31
17819,-56.53
17830,-30.47
17841,-8.63
17853,8.96
17865,21.81
17877,29.58
17889,32.5
17901,31.13
17913,26.25
17925,19.61
17937,12.62
17949,6.89
17961,3.2
17973,1.1
17985,-0.34
17997,-1.99
18009,-4.5
18020,-8.06
18031,-12.27
18043,-15.64
18055,-16.51
18067,-13.82
18079,-7.75
18091,0.88
18103,11.09
18115,21.19
18127,29.73
18139,35.72
18151,39.45
18163,41.4
18175,42.4
18187,43.12
18199,44.85
18210,49.57
18221,59.55
18233,76.6
18245,96.34
18257,112.81
18269,120.79
18281,119.73
18293,112.2
18305,101.66
18317,90.53
18329,79.57
18341,67.84
18353,53.5
18365,35.64
18377,13.61
18389,-10.98
18400,-38.06
18411,-66.73
18423,-95.65
18435,-123.11
18447,-147.11
18459,-165.64
18471,-170.14
18483,-159.27
18495,-135.12
18507,-102.44
18519,-66.98
18531,-34.63
18543,-10.14
18555,4.09
18567,8.52
18579,6.5
18590,1.67
18601,-2.27
18613,-3.45
18625,-1.84
18637,1.38
18649,4.98
18661,8.47
18673,11.9
18685,15.36
18697,17.48
18709,16.97
18721,12.95
18733,5.82
18745,-2.8
18757,-10.56
18769,-15.3
18780,-15.94
18791,-12.7
18803,-7.28
18815,-1.35
18827,3.76
18839,7.57
18851,10.25
18863,12.42
18875,14.92
18887,18.4
18899,23.11
18911,28.68
18923,34.67
18935,39.36
18947,41.28
18959,39.33
18970,33.25
18981,23.64
18993,11.78
19005,-1.08
19017,-13.81
19029,-25.78
19041,-37.14
19053,-48.46
19065,-60.16
19077,-71.83
19089,-82.2
19101,-89.5
19113,-92.06
19125,-88.11
19137,-76.56
19149,-57.69
19160,-33.45
19171,-7.14
19183,17.39
19195,36.38
19207,47.0
19219,47.99
19231,40.97
19243,29.6
19255,18.25
19267,10.7
19279,9.74
19291,17.29
19303,34.22
19315,60.13
19327,88.61
19339,110.89
19350,120.76
19361,118.34
19373,107.6
19385,93.13
19397,78.91
19409,67.57
19421,59.84
19433,54.52
19445,49.96
19457,44.01
19469,34.08
19481,17.67
19493,-6.44
19505,-36.93
19517,-69.8
19529,-99.47
19540,-121.84
19551,-132.37
19563,-128.68
19575,-111.64
19587,-85.12
19599,-54.43
19611,-24.44
19623,1.02
19635,19.36
19647,29.36
19659,31.76
19671,28.52
19683,22.24
19695,15.74
19707,11.5
19719,11.03
19730,13.98
19741,18.11
19753,19.98
19765,17.27
19777,9.08
19789,-3.41
19801,-16.97
19813,-27.15
19825,-30.03
19837,-24.62
19849,-13.68
19861,-2.53
19873,3.5
19885,0.79
19897,-11.33
19909,-30.45
19920,-52.17
19931,-69.43
19943,-75.0
19955,-66.48
19967,-47.77
19979,-24.97
19991,-2.44
20003,17.82
20015,35.14
20027,49.06
20039,60.28
20051,68.22
20063,72.07
20075,72.01
20087,69.73
20099,67.45
20110,66.81
20121,68.29
20133,71.3
20145,72.59
20157,69.59
20169,60.92
20181,47.35
20193,32.03
20205,19.13
20217,11.96
20229,11.64
20241,16.93
20253,25.02
20265,32.96
20277,38.81
20289,42.36
20300,44.78
20311,47.46
20323,50.81
20335,54.14
20347,56.12
20359,55.6
20371,52.18
20383,46.21
20395,38.58
20407,30.27
20419,21.95
20431,13.77
20443,5.7
20455,-2.27
20467,-9.92
20479,-16.76
20490,-22.35
20501,-26.35
20513,-28.61
20525,-29.15
20537,-28.11
20549,-25.73
20561,-22.3
20573,-18.23
20585,-14.02
20597,-10.3
20609,-7.75
20621,-7.07
20633,-8.84
20645,-13.47
20657,-20.98
20669,-31.03
20680,-42.96
20691,-55.81
20703,-68.67
20715,-80.79
20727,-91.59
20739,-100.53
20751,-107.0
20763,-110.18
20775,-109.25
20787,-103.7
20799,-93.66
20811,-80.17
20823,-65.03
20835,-50.49
20847,-38.63
20859,-30.87
20870,-27.51
20881,-27.74
20893,-29.83
20905,-31.8
20917,-31.94
20929,-29.36
20941,-24.13
20953,-17.08
20965,-9.47
20977,-2.55
20989,2.88
