seconds,BVP
5,10.17
17,8.25
29,1.53
41,-9.0
53,-21.28
65,-32.24
77,-38.7
88,-38.82
99,-32.89
111,-22.99
123,-11.72
135,-0.95
147,8.69
159,17.51
171,25.86
183,33.73
195,40.36
207,44.7
219,45.94
231,43.7
243,38.15
255,30.0
267,20.4
278,10.8
289,2.73
301,-2.95
313,-6.21
325,-7.83
337,-8.84
349,-9.87
361,-10.88
373,-11.35
385,-11.13
397,-10.58
409,-10.72
421,-12.31
433,-15.2
445,-18.31
457,-20.2
468,-19.96
479,-17.77
491,-14.71
503,-12.18
515,-11.23
527,-12.0
539,-13.87
551,-15.93
563,-17.53
575,-19.03
587,-21.82
599,-27.91
611,-38.57
623,-53.59
635,-70.3
647,-84.28
658,-90.67
669,-85.84
681,-68.99
693,-42.44
705,-10.96
717,19.84
729,44.88
741,60.96
753,67.27
765,65.52
777,59.63
789,54.12
801,52.31
813,54.41
825,57.2
837,55.57
848,45.73
859,27.55
871,5.15
883,-15.24
895,-28.69
907,-33.94
919,-33.56
931,-31.95
943,-32.69
955,-36.62
967,-41.63
979,-44.06
991,-40.19
1003,-28.09
1015,-8.16
1027,16.85
1038,42.54
1049,64.18
1061,78.19
1073,83.24
1085,80.4
1097,72.58
1109,63.04
1121,54.38
1133,47.86
1145,43.57
1157,40.91
1169,39.01
1181,36.88
1193,33.65
1205,29.13
1217,24.21
1228,20.84
1239,21.07
1251,25.69
1263,33.46
1275,41.73
1287,46.96
1299,46.03
1311,37.45
1323,21.76
1335,1.2
1347,-21.67
1359,-45.16
1371,-68.84
1383,-92.39
1395,-116.2
1407,-141.07
1418,-167.84
1429,-196.2
1441,-223.66
1453,-245.6
1465,-256.39
1477,-251.33
1489,-226.73
1501,-182.93
1513,-124.17
1525,-57.21
1537,11.43
1549,76.84
1561,134.99
1573,181.46
1585,211.69
1597,225.44
1608,226.78
1619,223.55
1631,224.08
1643,234.06
1655,254.21
1667,280.02
1679,304.56
1691,308.27
1703,280.93
1715,225.92
1727,157.91
1739,91.52
1751,33.34
1763,-17.21
1775,-62.8
1787,-104.36
1798,-140.77
1809,-168.43
1821,-185.44
1833,-192.86
1845,-194.83
1857,-195.99
1869,-199.31
1881,-205.88
1893,-215.16
1905,-225.87
1917,-234.9
1929,-240.64
1941,-241.32
1953,-236.63
1965,-226.9
1977,-212.03
1988,-191.45
1999,-164.55
2011,-131.38
2023,-91.81
2035,-48.32
2047,-4.21
2059,36.61
2071,70.88
2083,96.79
2095,114.16
2107,123.87
2119,127.31
2131,126.29
2143,122.42
2155,117.06
2167,110.82
2178,104.03
2189,97.09
2201,90.5
2213,84.64
2225,79.55
2237,74.99
2249,70.51
2261,65.9
2273,60.94
2285,55.79
2297,51.0
2309,47.2
2321,44.83
2333,43.75
2345,43.33
2357,42.62
2368,40.95
2379,38.08
2391,34.49
2403,31.15
2415,29.21
2427,29.36
2439,31.49
2451,34.73
2463,37.73
2475,39.47
2487,39.49
2499,38.21
2511,36.62
2523,35.81
2535,36.57
2547,39.43
2558,44.65
2569,52.09
2581,60.48
2593,66.93
2605,67.43
2617,58.36
2629,38.6
2641,11.22
2653,-17.86
2665,-41.3
2677,-53.43
2689,-52.59
2701,-41.34
2713,-24.69
2725,-7.68
2737,6.58
2748,17.04
2759,23.76
2771,26.8
2783,25.65
2795,19.49
2807,8.04
2819,-7.75
2831,-25.9
2843,-44.12
2855,-60.22
2867,-72.92
2879,-81.78
2891,-87.06
2903,-89.55
2915,-90.47
2927,-90.37
2938,-89.93
2949,-89.56
2961,-89.38
2973,-89.22
2985,-88.72
2997,-87.6
3009,-85.7
3021,-83.24
3033,-80.48
3045,-78.02
3057,-76.47
3069,-76.5
3081,-78.77
3093,-83.49
3105,-89.73
3117,-95.0
3128,-95.42
3139,-87.08
3151,-67.97
3163,-39.35
3175,-5.98
3187,25.7
3199,50.02
3211,64.42
3223,69.86
3235,69.63
3247,67.16
3259,64.11
3271,60.26
3283,54.41
3295,46.03
3307,36.03
3318,26.7
3329,20.21
3341,17.62
3353,18.56
3365,21.78
3377,26.35
3389,32.02
3401,38.93
3413,46.43
3425,52.51
3437,54.22
3449,49.32
3461,38.05
3473,23.53
3485,10.2
3497,1.13
3508,-3.65
3519,-6.43
3531,-9.24
3543,-11.39
3555,-9.12
3567,1.84
3579,22.44
3591,48.4
3603,71.17
3615,82.29
3627,77.66
3639,59.48
3651,34.82
3663,11.71
3675,-4.55
3687,-13.22
3698,-16.68
3709,-18.06
3721,-19.19
3733,-20.09
3745,-19.98
3757,-18.47
3769,-16.29
3781,-14.6
3793,-13.91
3805,-12.68
3817,-7.57
3829,5.04
3841,26.33
3853,53.27
3865,79.06
3877,95.86
3888,98.34
3899,85.97
3911,63.58
3923,38.6
3935,17.98
3947,5.36
3959,0.47
3971,0.84
3983,3.96
3995,8.73
4007,14.38
4019,20.68
4031,26.75
4043,31.51
4055,33.95
4067,33.5
4078,30.29
4089,25.08
4101,18.69
4113,9.48
4125,-2.15
4137,-16.96
4149,-35.14
4161,-56.15
4173,-78.87
4185,-101.76
4197,-123.16
4209,-141.63
4221,-158.51
4233,-175.59
4245,-194.46
4257,-215.39
4268,-237.45
4279,-259.25
4291,-279.23
4303,-295.93
4315,-295.43
4327,-269.87
4339,-219.64
4351,-153.95
4363,-84.77
4375,-20.59
4387,35.14
4399,82.63
4411,123.3
4423,158.4
4435,186.1
4447,204.35
4458,212.91
4469,212.98
4481,206.67
4493,196.15
4505,182.9
4517,167.5
4529,149.35
4541,125.38
4553,92.77
4565,49.78
4577,-1.62
4589,-56.7
4601,-110.85
4613,-160.11
4625,-200.16
4637,-226.07
4648,-234.05
4659,-222.35
4671,-193.28
4683,-153.73
4695,-113.45
4707,-81.94
4719,-64.82
4731,-61.83
4743,-68.48
4755,-80.35
4767,-92.63
4779,-102.13
4791,-106.86
4803,-105.21
4815,-95.58
4827,-76.57
4838,-47.52
4849,-9.48
4861,33.68
4873,76.15
4885,112.75
4897,140.54
4909,158.91
4921,168.99
4933,172.6
4945,171.87
4957,168.09
4969,161.68
4981,152.78
4993,141.62
5005,128.77
5017,115.24
5028,102.2
5039,90.44
5051,80.78
5063,73.16
5075,66.92
5087,61.48
5099,56.33
5111,51.17
5123,45.95
5135,42.73
5147,39.95
5159,36.71
5171,32.15
5183,25.25
5195,15.6
5207,2.92
5218,-12.67
5229,-30.77
5241,-50.65
5253,-71.82
5265,-93.36
5277,-114.45
5289,-134.5
5301,-152.35
5313,-167.23
5325,-178.63
5337,-186.35
5349,-190.44
5361,-191.54
5373,-190.33
5385,-187.77
5397,-185.14
5408,-182.91
5419,-181.78
5431,-182.34
5443,-184.79
5455,-188.86
5467,-193.77
5479,-197.86
5491,-198.58
5503,-198.24
5515,-196.45
5527,-192.6
5539,-186.26
5551,-177.41
5563,-166.45
5575,-154.26
5587,-141.81
5598,-130.22
5609,-120.69
5621,-113.48
5633,-108.77
5645,-106.49
5657,-106.31
5669,-107.65
5681,-109.67
5693,-111.3
5705,-111.39
5717,-109.09
5729,-103.17
5741,-92.92
5753,-77.91
5765,-57.94
5777,-32.86
5788,-2.44
5799,33.57
5811,75.24
5823,122.03
5835,173.0
5847,226.12
5859,278.52
5871,327.02
5883,368.74
5895,401.7
5907,425.2
5919,439.88
5931,447.23
5943,449.39
5955,448.26
5967,445.44
5978,442.21
5989,439.7
6001,438.89
6013,440.77
6025,446.09
6037,455.47
6049,469.64
6061,489.23
6073,514.44
6085,544.18
6097,575.34
6109,602.81
6121,620.56
6133,623.53
6145,609.27
6157,578.68
6168,535.31
6179,483.56
6191,427.11
6203,368.05
6215,307.22
6227,245.19
6239,183.02
6251,122.21
6263,64.17
6275,9.47
6287,-42.33
6299,-92.24
6311,-140.97
6323,-188.24
6335,-232.61
6347,-272.0
6358,-304.51
6369,-329.26
6381,-346.82
6393,-358.76
6405,-366.75
6417,-371.51
6429,-372.16
6441,-366.39
6453,-351.34
6465,-324.84
6477,-286.33
6489,-237.17
6501,-180.16
6513,-118.9
6525,-57.39
6537,-0.03
6548,48.61
6559,84.28
6571,104.43
6583,109.6
6595,104.0
6607,94.65
6619,89.12
6631,92.73
6643,106.87
6655,129.1
6667,154.96
6679,180.39
6691,203.11
6703,222.67
6715,239.14
6727,251.83
6738,258.94
6749,258.42
6761,249.36
6773,232.85
6785,211.84
6797,189.75
6809,169.21
6821,151.03
6833,134.34
6845,117.35
6857,98.29
6869,76.24
6881,51.08
6893,23.31
6905,-6.39
6917,-37.34
6928,-68.94
6939,-100.67
6951,-132.1
6963,-162.88
6975,-192.79
6987,-221.71
6999,-249.53
7011,-276.16
7023,-301.38
7035,-324.91
7047,-346.53
7059,-366.16
7071,-384.1
7083,-401.06
7095,-418.28
7107,-437.41
7118,-460.42
7129,-488.75
7141,-522.43
7153,-559.25
7165,-594.56
7177,-622.08
7189,-635.56
7201,-630.83
7213,-607.08
7225,-567.07
7237,-516.01
7249,-459.4
7261,-401.32
7273,-343.3
7285,-284.69
7297,-223.67
7308,-159.08
7319,-91.3
7331,-22.72
7343,43.29
7355,103.98
7367,158.51
7379,208.44
7391,256.32
7403,303.89
7415,350.47
7427,392.95
7439,427.14
7451,449.53
7463,458.16
7475,452.0
7487,430.33
7498,392.57
7509,340.04
7521,277.88
7533,215.55
7545,164.27
7557,132.48
7569,121.38
7581,123.7
7593,126.79
7605,118.19
7617,90.91
7629,45.36
7641,-12.51
7653,-75.39
7665,-137.93
7677,-198.01
7688,-255.72
7699,-311.2
7711,-363.61
7723,-411.5
7735,-454.29
7747,-493.18
7759,-530.43
7771,-567.42
7783,-602.53
7795,-630.33
7807,-643.12
7819,-634.14
7831,-600.75
7843,-545.84
7855,-476.72
7867,-402.27
7878,-329.66
7889,-262.53
7901,-200.86
7913,-142.56
7925,-85.05
7937,-26.34
7949,34.6
7961,98.12
7973,164.38
7985,233.37
7997,304.81
8009,377.25
8021,447.14
8033,508.08
8045,551.85
8057,570.47
8068,559.17
8079,518.44
8091,453.88
8103,373.7
8115,285.28
8127,193.2
8139,99.66
8151,7.14
8163,-79.24
8175,-151.41
8187,-200.92
8199,-222.71
8211,-217.78
8223,-193.03
8235,-158.48
8247,-123.81
8258,-95.79
8269,-77.75
8281,-70.12
8293,-71.59
8305,-79.84
8317,-91.79
8329,-103.84
8341,-112.48
8353,-115.18
8365,-111.11
8377,-101.36
8389,-88.29
8401,-74.82
8413,-63.52
8425,-56.06
8437,-53.08
8448,-54.24
8459,-58.32
8471,-63.4
8483,-67.23
8495,-67.61
8507,-62.79
8519,-52.02
8531,-35.86
8543,-16.2
8555,4.05
8567,21.93
8579,35.38
8591,43.82
8603,48.15
8615,50.11
8627,51.49
8638,53.49
8649,56.57
8661,60.48
8673,64.66
8685,68.65
8697,72.22
8709,75.44
8721,78.54
8733,81.68
8745,84.84
8757,87.87
8769,90.53
8781,92.65
8793,94.21
8805,95.29
8817,95.96
8828,96.19
8839,95.83
8851,94.65
8863,92.46
8875,89.21
8887,85.02
8899,80.22
8911,75.13
8923,69.96
8935,64.71
8947,59.17
8959,53.14
8971,46.62
8983,39.9
8995,33.5
9007,27.96
9018,23.53
9029,20.02
9041,16.8
9053,13.03
9065,8.03
9077,1.61
9089,-5.72
9101,-12.78
9113,-18.05
9125,-20.1
9137,-18.06
9149,-11.87
9161,-2.24
9173,9.62
9185,22.36
9197,34.84
9208,46.33
9219,56.48
9231,65.13
9243,72.22
9255,77.69
9267,81.46
9279,83.48
9291,83.88
9303,82.99
9315,81.4
9327,79.84
9339,79.01
9351,79.43
9363,81.23
9375,84.15
9387,87.58
9398,90.69
9409,92.65
9421,93.01
9433,92.0
9445,90.74
9457,90.83
9469,93.66
9481,99.55
9493,107.3
9505,114.6
9517,119.08
9529,119.47
9541,116.19
9553,110.96
9565,105.68
9577,101.45
9588,98.11
9599,94.71
9611,90.32
9623,84.61
9635,77.71
9647,69.78
9659,60.45
9671,48.89
9683,34.46
9695,17.22
9707,-1.83
9719,-21.11
9731,-39.15
9743,-55.07
9755,-68.53
9767,-79.44
9778,-87.51
9789,-92.15
9801,-92.8
9813,-89.33
9825,-82.26
9837,-72.77
9849,-62.18
9861,-51.57
9873,-41.48
9885,-31.96
9897,-22.89
9909,-14.2
9921,-6.06
9933,1.36
9945,7.87
9957,13.47
9968,18.3
9979,22.6
9991,26.53
10003,30.11
10015,33.12
10027,35.28
10039,36.3
10051,36.1
10063,34.8
10075,32.8
10087,30.56
10099,28.59
10111,27.19
10123,26.46
10135,26.29
10147,26.4
10158,26.38
10169,25.91
10181,24.72
10193,22.64
10205,19.68
10217,15.98
10229,11.82
10241,7.56
10253,3.52
10265,-0.12
10277,-3.4
10289,-6.49
10301,-9.77
10313,-13.58
10325,-18.12
10337,-23.32
10348,-28.78
10359,-33.71
10371,-37.15
10383,-38.13
10395,-35.97
10407,-30.53
10419,-22.32
10431,-12.38
10443,-1.95
10455,7.94
10467,16.72
10479,24.27
10491,30.77
10503,36.32
10515,40.81
10527,43.97
10538,45.54
10549,45.53
10561,44.35
10573,42.67
10585,41.13
10597,40.2
10609,39.97
10621,40.32
10633,41.0
10645,41.82
10657,42.61
10669,43.24
10681,43.55
10693,43.35
10705,42.49
10717,40.88
10728,38.47
10739,35.34
10751,31.66
10763,27.67
10775,23.64
10787,19.77
10799,16.11
10811,12.55
10823,8.87
10835,4.92
10847,0.77
10859,-3.27
10871,-6.8
10883,-9.54
10895,-11.46
10907,-12.88
10918,-14.23
10929,-15.86
10941,-17.84
10953,-19.84
10965,-21.16
10977,-20.89
10989,-18.2
11001,-12.65
11013,-4.49
11025,5.14
11037,14.32
11049,20.69
11061,22.04
11073,16.94
11085,5.16
11097,-12.4
11108,-33.96
11119,-57.38
11131,-80.56
11143,-101.7
11155,-119.41
11167,-132.68
11179,-141.09
11191,-144.85
11203,-144.87
11215,-142.57
11227,-139.45
11239,-136.42
11251,-133.55
11263,-130.49
11275,-127.4
11287,-125.87
11298,-129.2
11309,-141.54
11321,-166.22
11333,-203.92
11345,-251.42
11357,-301.78
11369,-345.89
11381,-374.81
11393,-381.96
11405,-364.57
11417,-323.9
11429,-264.62
11441,-193.6
11453,-118.47
11465,-46.15
11477,18.48
11488,73.37
11499,119.37
11511,159.14
11523,195.48
11535,229.64
11547,260.61
11559,285.54
11571,301.31
11583,306.41
11595,301.9
11607,291.0
11619,277.67
11631,265.01
11643,254.41
11655,245.83
11667,238.7
11678,232.81
11689,228.81
11701,227.66
11713,229.76
11725,234.32
11737,239.19
11749,241.54
11761,238.86
11773,229.91
11785,214.99
11797,195.65
11809,173.74
11821,150.56
11833,126.4
11845,100.83
11857,73.26
11868,43.6
11879,12.61
11891,-18.23
11903,-47.11
11915,-72.35
11927,-92.67
11939,-107.24
11951,-115.75
11963,-118.41
11975,-116.18
11987,-110.63
11999,-103.76
12011,-97.41
12023,-92.83
12035,-90.29
12047,-89.16
12058,-88.31
12069,-86.58
12081,-83.17
12093,-77.89
12105,-71.11
12117,-63.63
12129,-56.46
12141,-50.62
12153,-46.8
12165,-45.26
12177,-45.62
12189,-46.95
12201,-47.97
12213,-47.28
12225,-43.69
12237,-36.44
12248,-25.43
12259,-11.29
12271,4.64
12283,20.54
12295,34.64
12307,45.79
12319,53.82
12331,59.54
12343,64.28
12355,69.25
12367,74.98
12379,81.08
12391,86.27
12403,88.76
12415,86.69
12427,78.69
12438,64.3
12449,44.36
12461,20.92
12473,-3.16
12485,-25.03
12497,-42.61
12509,-55.14
12521,-62.96
12533,-66.99
12545,-68.04
12557,-66.39
12569,-61.97
12581,-54.87
12593,-45.77
12605,-36.04
12617,-27.33
12628,-20.99
12639,-17.56
12651,-16.72
12663,-17.57
12675,-19.16
12687,-20.78
12699,-22.14
12711,-23.24
12723,-24.12
12735,-24.82
12747,-25.28
12759,-25.42
12771,-25.19
12783,-24.63
12795,-23.8
12807,-22.83
12818,-21.87
12829,-21.1
12841,-20.65
12853,-20.61
12865,-20.95
12877,-21.5
12889,-21.99
12901,-22.13
12913,-21.63
12925,-20.33
12937,-18.22
12949,-15.38
12961,-11.94
12973,-8.06
12985,-3.8
12997,0.85
13008,5.85
13019,11.09
13031,16.31
13043,21.11
13055,25.1
13067,28.03
13079,29.79
13091,30.44
13103,30.11
13115,28.98
13127,27.22
13139,24.96
13151,22.42
13163,19.77
13175,17.2
13187,14.82
13198,12.65
13209,10.56
13221,8.36
13233,5.93
13245,3.21
13257,0.34
13269,-2.47
13281,-5.07
13293,-7.46
13305,-9.81
13317,-12.44
13329,-15.61
13341,-19.43
13353,-23.75
13365,-28.2
13377,-32.3
13388,-35.66
13399,-38.01
13411,-39.3
13423,-39.69
13435,-39.51
13447,-39.24
13459,-39.39
13471,-40.43
13483,-42.55
13495,-45.61
13507,-49.01
13519,-51.86
13531,-53.15
13543,-52.06
13555,-48.22
13567,-41.82
13578,-33.53
13589,-24.29
13601,-15.03
13613,-6.42
13625,1.17
13637,7.66
13649,13.13
13661,17.67
13673,21.26
13685,23.88
13697,25.46
13709,26.11
13721,26.02
13733,25.59
13745,25.2
13757,25.17
13768,25.65
13779,26.57
13791,27.75
13803,29.01
13815,30.2
13827,31.25
13839,32.04
13851,32.4
13863,32.04
13875,30.75
13887,28.53
13899,25.69
13911,22.73
13923,20.18
13935,18.37
13947,17.23
13958,16.41
13969,15.48
13981,14.16
13993,12.41
14005,10.36
14017,8.16
14029,5.79
14041,3.11
14053,-0.18
14065,-4.44
14077,-9.98
14089,-16.91
14101,-25.14
14113,-34.3
14125,-43.78
14137,-52.77
14148,-60.24
14159,-65.12
14171,-66.45
14183,-63.58
14195,-56.56
14207,-46.19
14219,-33.98
14231,-21.68
14243,-10.78
14255,-2.14
14267,3.99
14279,7.67
14291,8.98
14303,7.91
14315,4.61
14327,-0.25
14338,-5.49
14349,-9.79
14361,-12.27
14373,-12.96
14385,-12.76
14397,-12.92
14409,-14.32
14421,-17.01
14433,-20.18
14445,-22.65
14457,-23.42
14469,-22.12
14481,-19.06
14493,-14.93
14505,-10.57
14517,-6.58
14528,-3.3
14539,-0.74
14551,1.19
14563,2.58
14575,3.35
14587,3.25
14599,1.98
14611,-0.66
14623,-4.73
14635,-10.08
14647,-16.34
14659,-23.06
14671,-29.63
14683,-35.44
14695,-39.98
14707,-42.99
14718,-44.63
14729,-45.43
14741,-46.18
14753,-47.68
14765,-50.47
14777,-54.62
14789,-59.7
14801,-64.81
14813,-68.81
14825,-70.5
14837,-68.87
14849,-63.34
14861,-53.84
14873,-40.87
14885,-25.54
14897,-9.35
14908,6.03
14919,19.06
14931,28.78
14943,34.93
14955,37.92
14967,38.56
14979,37.72
14991,36.0
15003,33.69
15015,31.0
15027,28.23
15039,25.84
15051,24.27
15063,23.75
15075,24.04
15087,24.52
15098,24.46
15109,23.42
15121,21.47
15133,19.19
15145,17.32
15157,16.35
15169,16.29
15181,16.73
15193,17.13
15205,17.18
15217,17.05
15229,17.16
15241,17.97
15253,19.5
15265,21.34
15277,22.63
15288,22.52
15299,20.38
15311,16.01
15323,9.46
15335,0.84
15347,-9.73
15359,-22.06
15371,-35.51
15383,-49.07
15395,-61.36
15407,-71.03
15419,-77.03
15431,-78.86
15443,-76.48
15455,-69.96
15467,-59.51
15478,-45.25
15489,-27.6
15501,-7.38
15513,14.04
15525,35.0
15537,53.85
15549,69.37
15561,81.05
15573,89.01
15585,93.88
15597,96.39
15609,97.12
15621,96.46
15633,94.65
15645,91.97
15657,88.87
15668,85.94
15679,83.67
15691,82.29
15703,81.74
15715,81.68
15727,81.81
15739,81.93
15751,82.06
15763,82.29
15775,82.63
15787,82.84
15799,82.41
15811,80.67
15823,76.68
15835,69.62
15847,58.85
15858,44.35
15869,26.89
15881,7.97
15893,-10.49
15905,-26.76
15917,-39.75
15929,-49.17
15941,-55.42
15953,-59.14
15965,-60.9
15977,-61.12
15989,-60.21
16001,-58.62
16013,-56.93
16025,-55.6
16037,-54.86
16048,-54.64
16059,-54.68
16071,-54.75
16083,-54.73
16095,-54.77
16107,-55.12
16119,-56.11
16131,-58.02
16143,-61.04
16155,-65.0
16167,-69.39
16179,-73.36
16191,-75.89
16203,-76.25
16215,-74.23
16227,-70.37
16238,-65.73
16249,-61.62
16261,-58.88
16273,-57.7
16285,-57.57
16297,-57.64
16309,-56.99
16321,-54.92
16333,-51.07
16345,-45.16
16357,-37.04
16369,-26.61
16381,-13.99
16393,0.33
16405,15.39
16417,29.95
16428,42.8
16439,53.03
16451,60.21
16463,64.46
16475,66.18
16487,65.85
16499,63.92
16511,60.76
16523,56.64
16535,51.92
16547,46.9
16559,41.93
16571,37.16
16583,32.53
16595,27.77
16607,22.55
16618,16.7
16629,10.33
16641,4.03
16653,-1.32
16665,-4.68
16677,-5.41
16689,-3.52
16701,0.3
16713,4.84
16725,8.91
16737,11.53
16749,12.26
16761,11.1
16773,8.41
16785,4.76
16797,0.75
16808,-2.98
16819,-5.79
16831,-7.25
16843,-7.25
16855,-6.01
16867,-3.93
16879,-1.47
16891,1.05
16903,3.43
16915,5.51
16927,7.19
16939,8.32
16951,8.77
16963,8.47
16975,7.45
16987,5.78
16998,3.68
17009,1.39
17021,-0.77
17033,-2.51
17045,-3.53
17057,-3.69
17069,-3.03
17081,-1.83
17093,-0.52
17105,0.57
17117,1.12
17129,0.97
17141,0.02
17153,-1.83
17165,-4.72
17177,-8.83
17188,-14.31
17199,-21.17
17211,-29.2
17223,-38.17
17235,-47.84
17247,-57.9
17259,-67.93
17271,-77.23
17283,-84.75
17295,-89.36
17307,-90.13
17319,-86.48
17331,-78.58
17343,-67.19
17355,-53.43
17367,-38.55
17378,-23.64
17389,-9.59
17401,2.82
17413,12.91
17425,20.23
17437,24.82
17449,27.31
17461,28.95
17473,31.15
17485,35.12
17497,41.39
17509,49.5
17521,58.33
17533,66.52
17545,73.08
17557,77.57
17568,80.16
17579,81.26
17591,81.39
17603,80.9
17615,79.87
17627,78.34
17639,76.3
17651,73.9
17663,71.47
17675,69.5
17687,68.42
17699,68.62
17711,70.41
17723,73.73
17735,77.89
17747,81.34
17758,81.93
17769,77.28
17781,65.76
17793,47.08
17805,22.72
17817,-4.39
17829,-30.88
17841,-53.98
17853,-72.25
17865,-85.39
17877,-93.8
17889,-97.86
17901,-97.78
17913,-93.68
17925,-85.92
17937,-75.49
17948,-63.91
17959,-52.82
17971,-43.59
17983,-36.91
17995,-33.05
18007,-32.09
18019,-34.03
18031,-38.66
18043,-45.38
18055,-52.98
18067,-59.88
18079,-64.74
18091,-66.71
18103,-65.74
18115,-62.37
18127,-57.32
18138,-50.99
18149,-43.47
18161,-34.65
18173,-24.53
18185,-13.53
18197,-2.33
18209,8.33
18221,17.76
18233,25.52
18245,31.36
18257,35.2
18269,37.29
18281,37.92
18293,37.28
18305,35.43
18317,32.32
18328,27.99
18339,22.7
18351,16.97
18363,11.54
18375,7.0
18387,3.67
18399,1.45
18411,-0.02
18423,-0.92
18435,-1.48
18447,-1.84
18459,-2.53
18471,-4.2
18483,-7.56
18495,-12.93
18507,-20.11
18518,-28.24
18529,-36.1
18541,-42.52
18553,-46.58
18565,-47.89
18577,-46.35
18589,-42.07
18601,-35.22
18613,-26.09
18625,-15.07
18637,-2.92
18649,9.39
18661,20.82
18673,30.46
18685,37.65
18697,42.14
18708,44.15
18719,44.1
18731,42.57
18743,40.12
18755,37.04
18767,33.5
18779,29.59
18791,25.26
18803,20.61
18815,15.85
18827,11.44
18839,7.83
18851,5.53
18863,4.72
18875,5.37
18887,7.16
18898,9.65
18909,12.57
18921,15.68
18933,18.94
18945,22.26
18957,25.52
18969,28.44
18981,30.72
18993,32.06
19005,32.42
19017,31.96
19029,30.94
19041,29.58
19053,28.07
19065,26.37
19077,24.43
19088,22.19
19099,19.73
19111,17.24
19123,14.95
19135,13.0
19147,11.37
19159,10.05
19171,8.87
19183,7.8
19195,6.84
19207,6.05
19219,5.54
19231,5.4
19243,5.62
19255,6.24
19267,7.17
19278,8.17
19289,9.03
19301,9.34
19313,8.85
19325,7.51
19337,5.42
19349,2.86
19361,0.18
19373,-2.41
19385,-4.87
19397,-7.21
19409,-9.51
19421,-11.72
19433,-13.64
19445,-15.2
19457,-16.36
19468,-17.24
19479,-18.01
19491,-18.85
19503,-19.74
19515,-20.52
19527,-21.08
19539,-21.25
19551,-21.06
19563,-20.56
19575,-19.75
19587,-18.76
19599,-17.75
19611,-16.96
19623,-16.71
19635,-17.36
19647,-19.17
19658,-22.39
19669,-26.93
19681,-32.63
19693,-38.96
19705,-45.29
19717,-50.8
19729,-54.59
19741,-55.87
19753,-53.79
19765,-48.03
19777,-38.45
19789,-25.6
19801,-10.37
19813,5.97
19825,22.08
19837,36.79
19848,49.19
19859,58.9
19871,65.77
19883,69.82
19895,71.2
19907,70.13
19919,67.07
19931,62.51
19943,57.12
19955,51.53
19967,46.24
19979,41.51
19991,37.26
20003,33.29
20015,29.26
20027,25.17
20038,21.07
20049,17.24
20061,13.86
20073,11.05
20085,8.72
20097,6.6
20109,4.51
20121,2.24
20133,-0.09
20145,-2.37
20157,-4.39
20169,-6.13
20181,-7.58
20193,-8.91
20205,-10.29
20217,-11.77
20228,-13.24
20239,-14.35
20251,-14.72
20263,-13.97
20275,-12.04
20287,-9.06
20299,-5.34
20311,-1.34
20323,2.66
20335,6.45
20347,9.99
20359,13.19
20371,15.91
20383,18.03
20395,19.4
20407,20.01
20418,19.92
20429,19.23
20441,18.06
20453,16.54
20465,14.82
20477,13.04
20489,11.44
20501,10.23
20513,9.55
20525,9.37
20537,9.52
20549,9.82
20561,10.1
20573,10.24
20585,10.21
20597,9.97
20608,9.52
20619,8.87
20631,8.05
20643,7.17
20655,6.37
20667,5.67
20679,5.05
20691,4.34
20703,3.38
20715,2.05
20727,0.41
20739,-1.41
20751,-3.19
20763,-4.82
20775,-6.23
20787,-7.43
20798,-8.34
20809,-8.85
20821,-8.9
20833,-8.5
20845,-7.84
20857,-7.24
20869,-7.05
20881,-7.44
20893,-8.38
20905,-9.67
20917,-11.23
20929,-13.03
20941,-15.12
20953,-17.62
20965,-20.32
20977,-22.91
20988,-24.81
20999,-25.49
