seconds,BVP
9,-91.31
21,-92.85
33,-94.32
45,-93.93
57,-89.24
68,-79.03
79,-64.4
91,-48.53
103,-35.13
115,-26.84
127,-24.25
139,-26.36
151,-31.43
163,-37.58
175,-42.79
187,-44.41
199,-39.05
211,-23.54
223,3.46
235,40.27
247,82.04
258,122.23
269,155.1
281,177.51
293,189.58
305,193.64
317,192.31
329,187.08
341,178.18
353,165.47
365,149.57
377,132.55
389,117.05
401,104.91
413,96.2
425,89.39
437,82.74
448,76.04
459,71.39
471,72.36
483,81.81
495,99.43
507,120.68
519,137.84
531,142.6
543,129.12
555,96.13
567,47.19
579,-10.53
591,-68.49
603,-119.18
615,-157.72
627,-182.5
638,-195.0
649,-198.74
661,-198.05
673,-196.76
685,-197.33
697,-200.33
709,-204.46
721,-206.8
733,-203.57
745,-191.16
757,-167.36
769,-132.41
781,-89.27
793,-42.89
805,1.18
817,38.45
828,66.4
839,84.41
851,93.13
863,93.86
875,88.05
887,77.36
899,63.66
911,48.77
923,34.25
935,20.95
947,9.02
959,-1.94
971,-12.39
983,-22.82
995,-33.78
1007,-46.05
1018,-60.4
1029,-77.17
1041,-95.53
1053,-113.18
1065,-126.83
1077,-133.2
1089,-130.53
1101,-119.32
1113,-102.05
1125,-82.05
1137,-62.22
1149,-44.44
1161,-29.77
1173,-19.1
1185,-13.58
1197,-14.07
1208,-20.16
1219,-29.5
1231,-38.36
1243,-43.14
1255,-42.25
1267,-36.86
1279,-30.3
1291,-26.3
1303,-27.16
1315,-32.94
1327,-41.7
1339,-50.6
1351,-56.91
1363,-58.83
1375,-55.85
1387,-48.86
1398,-39.98
1409,-32.06
1421,-27.81
1433,-28.95
1445,-35.49
1457,-45.59
1469,-56.15
1481,-63.81
1493,-66.02
1505,-61.6
1517,-50.71
1529,-34.41
1541,-14.22
1553,8.23
1565,31.26
1577,53.01
1588,71.57
1599,85.34
1611,93.44
1623,96.01
1635,94.17
1647,89.6
1659,83.94
1671,78.42
1683,73.75
1695,70.2
1707,67.89
1719,66.81
1731,66.7
1743,66.97
1755,66.75
1767,65.23
1778,62.08
1789,57.65
1801,52.76
1813,48.21
1825,44.28
1837,40.49
1849,35.88
1861,29.41
1873,20.51
1885,9.42
1897,-2.85
1909,-14.92
1921,-25.66
1933,-34.66
1945,-42.31
1957,-49.45
1968,-56.75
1979,-64.04
1991,-70.2
2003,-73.56
2015,-72.78
2027,-67.78
2039,-60.17
2051,-52.75
2063,-48.14
2075,-47.51
2087,-49.87
2099,-52.43
2111,-52.0
2123,-46.47
2135,-35.81
2147,-22.18
2158,-9.09
2169,-0.14
2181,2.21
2193,-2.84
2205,-14.44
2217,-30.47
2229,-48.12
2241,-64.29
2253,-75.95
2265,-80.49
2277,-76.14
2289,-62.51
2301,-40.92
2313,-14.27
2325,13.52
2337,38.68
2348,58.63
2359,72.53
2371,81.13
2383,85.77
2395,87.34
2407,85.92
2419,81.12
2431,72.94
2443,62.65
2455,52.58
2467,45.22
2479,42.12
2491,43.11
2503,46.74
2515,51.25
2527,55.73
2538,60.38
2549,65.92
2561,72.45
2573,78.7
2585,82.24
2597,80.51
2609,72.23
2621,58.23
2633,41.3
2645,25.07
2657,12.69
2669,5.59
2681,3.12
2693,3.02
2705,2.62
2717,0.11
2728,-4.63
2739,-10.17
2751,-14.61
2763,-16.84
2775,-17.36
2787,-17.99
2799,-20.72
2811,-26.35
2823,-33.94
2835,-41.28
2847,-46.32
2859,-48.31
2871,-48.19
2883,-47.98
2895,-49.58
2907,-53.91
2918,-60.62
2929,-68.45
2941,-75.69
2953,-80.65
2965,-81.71
2977,-77.58
2989,-67.51
3001,-51.61
3013,-30.98
3025,-7.43
3037,17.12
3049,41.02
3061,63.12
3073,82.62
3085,98.86
3097,111.04
3108,118.1
3119,118.91
3131,112.73
3143,99.84
3155,82.1
3167,62.95
3179,46.49
3191,36.0
3203,32.54
3215,34.4
3227,37.94
3239,39.25
3251,35.98
3263,28.16
3275,17.8
3287,7.63
3298,-0.22
3309,-4.63
3321,-5.31
3333,-2.31
3345,4.12
3357,13.18
3369,23.14
3381,31.47
3393,35.51
3405,33.54
3417,25.59
3429,13.39
3441,-0.2
3453,-12.5
3465,-21.94
3477,-28.43
3488,-32.97
3499,-36.81
3511,-40.6
3523,-44.29
3535,-47.51
3547,-50.16
3559,-52.65
3571,-55.73
3583,-59.79
3595,-64.49
3607,-68.74
3619,-71.51
3631,-72.68
3643,-73.49
3655,-75.97
3667,-81.53
3678,-89.43
3689,-96.22
3701,-96.96
3713,-87.63
3725,-67.36
3737,-39.36
3749,-9.49
3761,16.41
3773,35.06
3785,46.73
3797,54.2
3809,60.46
3821,66.71
3833,71.75
3845,73.05
3857,68.72
3868,59.09
3879,46.74
3891,35.22
3903,27.15
3915,22.98
3927,21.11
3939,19.06
3951,15.07
3963,8.82
3975,1.37
3987,-5.92
3999,-12.37
4011,-18.24
4023,-24.19
4035,-30.32
4047,-35.67
4058,-38.71
4069,-38.43
4081,-35.53
4093,-32.49
4105,-32.64
4117,-38.46
4129,-50.13
4141,-65.07
4153,-78.78
4165,-86.41
4177,-84.81
4189,-73.8
4201,-56.49
4213,-38.05
4225,-23.85
4237,-17.39
4248,-19.19
4259,-26.94
4271,-36.91
4283,-45.58
4295,-50.84
4307,-52.22
4319,-50.52
4331,-47.23
4343,-44.11
4355,-43.16
4367,-46.32
4379,-54.87
4391,-68.55
4403,-84.92
4415,-99.81
4427,-108.58
4438,-107.99
4449,-97.35
4461,-78.6
4473,-55.1
4485,-30.13
4497,-5.84
4509,16.84
4521,37.46
4533,55.33
4545,69.27
4557,78.01
4569,80.86
4581,78.39
4593,72.32
4605,64.89
4617,58.04
4628,52.71
4639,48.84
4651,45.89
4663,43.51
4675,41.91
4687,41.89
4699,44.16
4711,48.63
4723,54.01
4735,57.96
4747,57.98
4759,52.67
4771,42.52
4783,30.13
4795,19.26
4807,13.51
4818,15.01
4829,23.73
4841,37.68
4853,53.7
4865,68.65
4877,80.15
4889,87.06
4901,89.31
4913,87.56
4925,82.91
4937,76.75
4949,70.48
4961,65.22
4973,61.34
4985,58.14
4997,54.2
5008,48.27
5019,40.23
5031,31.44
5043,24.07
5055,19.68
5067,18.05
5079,17.1
5091,14.19
5103,7.99
5115,-0.25
5127,-7.26
5139,-9.36
5151,-4.64
5163,6.28
5175,20.86
5187,36.38
5198,51.36
5209,65.94
5221,80.92
5233,96.48
5245,111.59
5257,124.41
5269,133.23
5281,137.4
5293,137.51
5305,134.9
5317,131.21
5329,127.79
5341,125.57
5353,124.98
5365,125.75
5377,126.86
5388,126.65
5399,123.35
5411,115.89
5423,104.44
5435,90.4
5447,75.82
5459,62.37
5471,50.59
5483,39.69
5495,28.1
5507,14.38
5519,-1.96
5531,-20.16
5543,-38.54
5555,-55.18
5567,-68.73
5578,-78.86
5589,-86.06
5601,-91.38
5613,-95.81
5625,-100.15
5637,-104.88
5649,-110.28
5661,-116.48
5673,-123.47
5685,-131.2
5697,-139.74
5709,-149.43
5721,-160.9
5733,-174.75
5745,-191.0
5757,-208.62
5768,-225.51
5779,-239.02
5791,-246.74
5803,-246.99
5815,-239.05
5827,-222.71
5839,-198.14
5851,-165.84
5863,-127.07
5875,-84.01
5887,-39.61
5899,3.1
5911,41.76
5923,75.06
5935,102.66
5947,124.59
5958,140.76
5969,150.7
5981,153.96
5993,150.76
6005,142.46
6017,131.45
6029,120.36
6041,111.19
6053,104.68
6065,100.23
6077,96.53
6089,92.27
6101,86.92
6113,81.01
6125,75.85
6137,72.69
6148,71.83
6159,72.2
6171,71.62
6183,67.8
6195,59.51
6207,47.22
6219,32.78
6231,18.43
6243,5.52
6255,-6.17
6267,-18.05
6279,-31.59
6291,-46.99
6303,-62.61
6315,-75.64
6327,-83.5
6338,-85.18
6349,-81.91
6361,-76.59
6373,-72.46
6385,-71.73
6397,-74.81
6409,-80.46
6421,-86.7
6433,-91.87
6445,-95.35
6457,-97.63
6469,-99.95
6481,-103.4
6493,-108.28
6505,-113.66
6517,-117.55
6528,-117.53
6539,-111.43
6551,-97.92
6563,-76.84
6575,-49.1
6587,-16.54
6599,18.25
6611,52.13
6623,81.85
6635,104.54
6647,118.46
6659,123.37
6671,120.53
6683,112.21
6695,100.96
6707,88.99
6718,77.76
6729,68.1
6741,60.28
6753,54.09
6765,48.87
6777,43.65
6789,37.55
6801,30.29
6813,22.45
6825,15.34
6837,10.37
6849,8.23
6861,8.28
6873,8.87
6885,8.0
6897,4.41
6908,-1.79
6919,-9.36
6931,-16.53
6943,-22.04
6955,-25.76
6967,-28.67
6979,-32.14
6991,-37.05
7003,-43.35
7015,-50.26
7027,-56.99
7039,-63.37
7051,-69.86
7063,-77.05
7075,-84.83
7087,-92.13
7098,-97.36
7109,-99.58
7121,-99.34
7133,-98.84
7145,-100.87
7157,-107.41
7169,-118.5
7181,-132.1
7193,-145.06
7205,-154.34
7217,-158.02
7229,-155.27
7241,-146.12
7253,-130.93
7265,-110.32
7277,-85.35
7288,-57.6
7299,-29.12
7311,-1.98
7323,22.0
7335,41.51
7347,55.61
7359,63.57
7371,65.1
7383,60.62
7395,51.69
7407,40.85
7419,31.11
7431,24.85
7443,23.11
7455,25.28
7467,29.53
7478,33.67
7489,36.08
7501,36.29
7513,34.92
7525,33.36
7537,32.99
7549,34.63
7561,38.27
7573,43.15
7585,48.14
7597,52.15
7609,54.55
7621,55.13
7633,54.13
7645,52.03
7657,49.31
7668,46.52
7679,44.12
7691,42.54
7703,41.93
7715,42.2
7727,42.89
7739,43.3
7751,42.7
7763,40.47
7775,36.29
7787,30.13
7799,22.39
7811,13.82
7823,5.32
7835,-2.28
7847,-8.66
7858,-14.16
7869,-19.72
7881,-26.23
7893,-33.88
7905,-41.7
7917,-47.65
7929,-49.41
7941,-45.26
7953,-34.79
7965,-18.74
7977,1.44
7989,24.35
8001,48.84
8013,73.86
8025,98.12
8037,119.66
8048,135.98
8059,144.61
8071,144.04
8083,134.49
8095,118.15
8107,98.69
8119,79.98
8131,64.82
8143,54.08
8155,46.88
8167,41.45
8179,36.25
8191,30.79
8203,25.6
8215,21.59
8227,19.21
8238,18.09
8249,17.06
8261,14.88
8273,10.8
8285,4.85
8297,-2.25
8309,-9.43
8321,-15.58
8333,-19.91
8345,-22.12
8357,-22.57
8369,-22.05
8381,-21.48
8393,-21.66
8405,-22.97
8417,-25.45
8428,-28.94
8439,-33.31
8451,-38.41
8463,-43.84
8475,-48.89
8487,-52.56
8499,-54.03
8511,-53.13
8523,-50.72
8535,-48.58
8547,-48.85
8559,-53.19
8571,-61.93
8583,-73.65
8595,-85.19
8607,-92.35
8618,-91.09
8629,-78.88
8641,-55.78
8653,-24.53
8665,10.21
8677,43.31
8689,70.62
8701,89.86
8713,100.62
8725,103.81
8737,100.82
8749,93.05
8761,81.88
8773,68.75
8785,55.49
8797,44.16
8808,36.67
8819,34.27
8831,37.09
8843,43.99
8855,52.76
8867,60.78
8879,65.67
8891,66.1
8903,62.09
8915,55.0
8927,47.08
8939,40.7
8951,37.62
8963,38.27
8975,41.45
8987,44.64
8998,44.94
9009,40.37
9021,30.69
9033,17.49
9045,3.22
9057,-10.17
9069,-22.05
9081,-32.79
9093,-42.83
9105,-51.78
9117,-58.58
9129,-62.37
9141,-63.56
9153,-63.99
9165,-65.98
9177,-70.84
9188,-78.17
9199,-86.11
9211,-92.84
9223,-97.78
9235,-101.92
9247,-106.82
9259,-113.29
9271,-120.53
9283,-126.32
9295,-128.16
9307,-124.23
9319,-113.96
9331,-97.64
9343,-75.99
9355,-49.8
9367,-20.19
9378,10.96
9389,40.84
9401,66.06
9413,83.49
9425,91.36
9437,89.92
9449,81.22
9461,68.41
9473,54.66
9485,42.24
9497,32.32
9509,25.12
9521,20.39
9533,17.82
9545,17.06
9557,17.59
9568,18.68
9579,19.52
9591,19.51
9603,18.48
9615,16.57
9627,13.88
9639,10.32
9651,5.45
9663,-1.09
9675,-9.18
9687,-18.03
9699,-26.49
9711,-33.63
9723,-39.16
9735,-43.48
9747,-47.17
9758,-50.62
9769,-53.72
9781,-56.08
9793,-57.62
9805,-58.84
9817,-60.77
9829,-64.45
9841,-70.22
9853,-77.29
9865,-84.1
9877,-89.06
9889,-91.44
9901,-91.89
9913,-91.94
9925,-93.04
9937,-95.58
9948,-98.68
9959,-100.71
9971,-100.15
9983,-96.17
9995,-88.55
10007,-77.27
10019,-61.91
10031,-41.87
10043,-16.99
10055,11.82
10067,42.44
10079,72.21
10091,98.91
10103,121.47
10115,139.8
10127,154.0
10138,163.55
10149,167.23
10161,163.97
10173,153.89
10185,139.03
10197,123.03
10209,109.79
10221,101.99
10233,100.11
10245,102.35
10257,105.4
10269,105.94
10281,101.59
10293,91.59
10305,76.54
10317,57.88
10328,37.15
10339,15.52
10351,-6.5
10363,-28.79
10375,-51.32
10387,-73.48
10399,-93.78
10411,-109.98
10423,-119.98
10435,-122.76
10447,-118.92
10459,-110.6
10471,-100.37
10483,-90.04
10495,-79.84
10507,-68.57
10518,-54.47
10529,-36.53
10541,-15.36
10553,6.71
10565,26.32
10577,40.17
10589,46.1
10601,43.42
10613,33.01
10625,16.83
10637,-2.66
10649,-22.93
10661,-41.56
10673,-56.24
10685,-64.73
10697,-64.98
10708,-55.79
10719,-37.46
10731,-12.18
10743,16.3
10755,43.81
10767,67.24
10779,85.52
10791,99.63
10803,111.59
10815,122.67
10827,132.25
10839,137.68
10851,135.53
10863,123.74
10875,103.18
10887,77.88
10898,53.35
10909,34.24
10921,22.39
10933,16.66
10945,14.33
10957,13.16
10969,12.62
10981,13.65
10993,17.2
11005,22.74
11017,27.94
11029,29.64
11041,25.58
11053,15.66
11065,1.93
11077,-12.49
11088,-24.92
11099,-34.23
11111,-40.81
11123,-46.02
11135,-51.22
11147,-57.11
11159,-63.64
11171,-70.32
11183,-76.61
11195,-82.38
11207,-87.89
11219,-93.54
11231,-99.33
11243,-104.6
11255,-107.97
11267,-107.91
11278,-103.62
11289,-95.71
11301,-86.41
11313,-78.84
11325,-75.92
11337,-78.97
11349,-86.9
11361,-96.24
11373,-102.16
11385,-100.14
11397,-87.38
11409,-63.79
11421,-31.86
11433,4.29
11445,40.17
11457,71.91
11468,96.83
11479,113.48
11491,121.53
11503,121.56
11515,115.0
11527,103.9
11539,90.69
11551,77.78
11563,67.21
11575,60.22
11587,56.96
11599,56.44
11611,56.83
11623,56.16
11635,53.25
11647,48.32
11658,42.95
11669,39.25
11681,38.62
11693,40.8
11705,43.97
11717,45.67
11729,44.12
11741,39.15
11753,32.15
11765,25.06
11777,19.31
11789,15.08
11801,11.54
11813,7.6
11825,2.71
11837,-2.95
11848,-8.72
11859,-14.09
11871,-19.07
11883,-24.1
11895,-29.64
11907,-35.79
11919,-41.96
11931,-47.24
11943,-50.86
11955,-52.67
11967,-53.51
11979,-54.86
11991,-58.33
12003,-64.84
12015,-74.11
12027,-84.38
12038,-92.78
12049,-96.06
12061,-91.45
12073,-77.72
12085,-55.55
12097,-27.35
12109,3.48
12121,33.52
12133,60.13
12145,81.58
12157,96.97
12169,105.98
12181,108.77
12193,105.9
12205,98.49
12217,88.02
12228,76.05
12239,63.85
12251,51.95
12263,40.13
12275,27.73
12287,14.33
12299,0.17
12311,-13.54
12323,-24.91
12335,-32.03
12347,-33.75
12359,-30.44
12371,-24.07
12383,-17.64
12395,-14.15
12407,-15.59
12418,-22.23
12429,-32.73
12441,-44.76
12453,-55.93
12465,-64.54
12477,-70.04
12489,-72.85
12501,-74.05
12513,-74.79
12525,-75.87
12537,-77.63
12549,-80.08
12561,-83.02
12573,-86.22
12585,-89.34
12597,-91.86
12608,-93.21
12619,-92.87
12631,-90.81
12643,-87.68
12655,-84.92
12667,-84.43
12679,-87.88
12691,-95.83
12703,-107.12
12715,-118.75
12727,-126.58
12739,-126.63
12751,-116.49
12763,-96.3
12775,-68.46
12787,-36.72
12798,-4.7
12809,25.09
12821,51.27
12833,72.93
12845,88.99
12857,98.25
12869,100.06
12881,95.22
12893,86.12
12905,76.13
12917,68.19
12929,63.84
12941,62.89
12953,64.0
12965,65.55
12977,66.35
12988,65.81
12999,63.97
13011,61.18
13023,58.1
13035,55.44
13047,53.69
13059,52.56
13071,50.96
13083,47.36
13095,40.86
13107,32.19
13119,23.93
13131,19.57
13143,21.75
13155,30.75
13167,43.85
13178,56.25
13189,63.02
13201,61.03
13213,50.18
13225,33.06
13237,13.63
13249,-4.31
13261,-18.39
13273,-28.09
13285,-34.42
13297,-39.35
13309,-45.14
13321,-53.49
13333,-64.94
13345,-78.56
13357,-92.05
13368,-102.48
13379,-107.13
13391,-104.4
13403,-94.1
13415,-77.39
13427,-56.05
13439,-31.99
13451,-6.6
13463,19.12
13475,44.34
13487,68.03
13499,88.7
13511,104.48
13523,113.5
13535,114.54
13547,107.61
13558,94.41
13569,78.19
13581,62.92
13593,52.08
13605,47.47
13617,48.77
13629,53.83
13641,59.74
13653,63.88
13665,64.93
13677,63.02
13689,59.25
13701,54.95
13713,51.02
13725,47.65
13737,44.5
13748,41.15
13759,37.34
13771,33.04
13783,28.42
13795,23.69
13807,19.03
13819,14.64
13831,10.56
13843,6.69
13855,2.76
13867,-1.42
13879,-5.77
13891,-9.75
13903,-12.59
13915,-13.56
13927,-12.6
13938,-10.59
13949,-9.24
13961,-10.46
13973,-15.57
13985,-24.69
13997,-36.53
14009,-48.73
14021,-58.19
14033,-61.59
14045,-56.01
14057,-39.72
14069,-13.03
14081,21.35
14093,58.84
14105,94.45
14117,124.6
14128,148.24
14139,166.87
14151,183.18
14163,199.12
14175,214.46
14187,226.47
14199,230.99
14211,224.4
14223,205.42
14235,175.94
14247,140.53
14259,104.73
14271,73.22
14283,48.51
14295,30.53
14307,17.35
14318,6.48
14329,-4.01
14341,-14.79
14353,-25.51
14365,-35.33
14377,-43.68
14389,-50.58
14401,-56.55
14413,-62.38
14425,-68.64
14437,-75.58
14449,-83.08
14461,-90.76
14473,-98.04
14485,-104.34
14497,-109.21
14508,-112.55
14519,-114.75
14531,-116.5
14543,-118.55
14555,-121.21
14567,-123.98
14579,-125.55
14591,-124.41
14603,-119.83
14615,-112.59
14627,-105.01
14639,-100.15
14651,-100.46
14663,-106.48
14675,-116.23
14687,-125.77
14698,-130.46
14709,-126.61
14721,-112.76
14733,-90.1
14745,-61.8
14757,-31.71
14769,-2.92
14781,22.99
14793,45.66
14805,65.14
14817,80.89
14829,91.58
14841,95.75
14853,92.75
14865,83.45
14877,70.11
14888,55.43
14899,41.46
14911,29.2
14923,18.72
14935,9.74
14947,1.94
14959,-5.31
14971,-13.38
14983,-24.36
14995,-40.4
15007,-62.39
15019,-89.0
15031,-116.68
15043,-140.78
15055,-157.2
15067,-163.73
15078,-160.55
15089,-149.71
15101,-134.06
15113,-116.1
15125,-97.57
15137,-79.75
15149,-63.84
15161,-51.31
15173,-43.55
15185,-41.04
15197,-42.88
15209,-46.94
15221,-50.68
15233,-52.33
15245,-51.75
15257,-50.24
15268,-49.94
15279,-52.83
15291,-60.14
15303,-71.93
15315,-87.06
15327,-103.2
15339,-117.06
15351,-124.92
15363,-123.45
15375,-110.91
15387,-87.85
15399,-57.09
15411,-22.76
15423,11.05
15435,41.24
15447,66.01
15458,84.5
15469,96.3
15481,101.1
15493,98.9
15505,90.4
15517,77.24
15529,62.07
15541,47.94
15553,37.55
15565,32.45
15577,32.64
15589,36.77
15601,42.93
15613,49.58
15625,56.11
15637,62.55
15648,68.97
15659,74.72
15671,78.42
15683,78.64
15695,74.97
15707,68.68
15719,62.49
15731,59.36
15743,61.07
15755,67.4
15767,76.09
15779,83.84
15791,87.58
15803,85.69
15815,78.47
15827,68.04
15838,57.32
15849,48.91
15861,44.04
15873,42.23
15885,41.64
15897,39.89
15909,35.09
15921,26.45
15933,14.4
15945,0.27
15957,-14.33
15969,-27.83
15981,-38.88
15993,-46.14
16005,-48.22
16017,-43.86
16028,-32.3
16039,-13.81
16051,10.14
16063,36.99
16075,63.52
16087,86.39
16099,102.72
16111,110.59
16123,109.35
16135,99.98
16147,84.84
16159,67.27
16171,50.8
16183,38.09
16195,30.28
16207,27.01
16218,26.83
16229,28.17
16241,29.99
16253,31.88
16265,33.87
16277,35.89
16289,37.45
16301,37.56
16313,35.29
16325,30.19
16337,22.61
16349,13.58
16361,4.35
16373,-4.13
16385,-11.52
16397,-17.98
16408,-23.87
16419,-29.55
16431,-35.24
16443,-41.21
16455,-47.85
16467,-55.49
16479,-64.17
16491,-73.32
16503,-81.85
16515,-88.52
16527,-92.64
16539,-94.49
16551,-95.17
16563,-96.09
16575,-98.4
16587,-102.58
16598,-108.5
16609,-115.54
16621,-122.76
16633,-128.85
16645,-132.09
16657,-130.48
16669,-122.15
16681,-106.07
16693,-82.55
16705,-53.32
16717,-21.27
16729,10.26
16741,38.17
16753,60.31
16765,75.87
16777,85.17
16788,89.16
16799,88.86
16811,84.98
16823,77.89
16835,68.12
16847,56.71
16859,45.26
16871,35.48
16883,28.54
16895,24.52
16907,22.63
16919,21.8
16931,21.31
16943,21.09
16955,21.43
16967,22.24
16978,22.7
16989,21.45
17001,17.35
17013,10.38
17025,1.83
17037,-6.31
17049,-12.4
17061,-16.13
17073,-18.72
17085,-22.05
17097,-27.46
17109,-34.58
17121,-41.18
17133,-44.29
17145,-41.73
17157,-33.46
17168,-21.9
17179,-10.94
17191,-4.16
17203,-3.32
17215,-7.69
17227,-14.71
17239,-21.51
17251,-26.2
17263,-28.43
17275,-29.15
17287,-29.51
17299,-29.77
17311,-28.93
17323,-25.12
17335,-16.69
17347,-3.18
17358,14.24
17369,33.41
17381,52.29
17393,70.01
17405,87.1
17417,104.66
17429,123.17
17441,141.52
17453,157.23
17465,167.41
17477,170.12
17489,165.36
17501,155.02
17513,142.0
17525,128.88
17537,117.05
17548,106.51
17559,96.46
17571,86.04
17583,74.95
17595,63.62
17607,52.92
17619,43.8
17631,36.75
17643,31.61
17655,27.7
17667,24.08
17679,20.05
17691,15.39
17703,10.28
17715,5.19
17727,0.56
17738,-3.39
17749,-6.88
17761,-10.59
17773,-15.64
17785,-23.12
17797,-33.46
17809,-45.95
17821,-58.83
17833,-69.96
17845,-77.88
17857,-82.54
17869,-85.25
17881,-87.77
17893,-91.3
17905,-95.84
17917,-100.36
17928,-103.67
17939,-105.22
17951,-105.49
17963,-105.5
17975,-106.15
17987,-107.68
17999,-109.74
18011,-111.73
18023,-113.13
18035,-113.41
18047,-111.69
18059,-106.69
18071,-96.86
18083,-81.19
18095,-59.74
18107,-33.78
18118,-5.31
18129,23.63
18141,51.35
18153,76.45
18165,97.53
18177,112.98
18189,121.14
18201,121.01
18213,112.88
18225,98.69
18237,81.71
18249,65.58
18261,53.31
18273,46.28
18285,44.01
18297,44.52
18308,45.28
18319,44.3
18331,40.98
18343,36.25
18355,31.8
18367,29.02
18379,27.9
18391,26.94
18403,24.08
18415,18.08
18427,9.41
18439,0.16
18451,-7.22
18463,-11.35
18475,-12.58
18487,-12.68
18498,-13.67
18509,-16.66
18521,-21.32
18533,-26.28
18545,-30.02
18557,-31.71
18569,-31.6
18581,-30.78
18593,-30.58
18605,-32.08
18617,-35.59
18629,-40.68
18641,-46.27
18653,-51.23
18665,-54.82
18677,-57.19
18688,-59.3
18699,-62.5
18711,-67.78
18723,-75.23
18735,-84.01
18747,-92.66
18759,-99.5
18771,-102.95
18783,-101.61
18795,-94.33
18807,-80.54
18819,-60.63
18831,-36.03
18843,-9.17
18855,17.19
18867,40.7
18878,59.98
18889,74.59
18901,84.76
18913,90.78
18925,92.69
18937,90.31
18949,83.9
18961,74.54
18973,64.28
18985,55.5
18997,49.9
19009,47.82
19021,48.16
19033,49.03
19045,48.92
19057,47.48
19068,45.49
19079,44.18
19091,44.16
19103,44.89
19115,44.9
19127,42.74
19139,37.88
19151,31.09
19163,23.86
19175,17.55
19187,12.7
19199,8.87
19211,5.16
19223,0.92
19235,-3.87
19247,-8.63
19258,-12.48
19269,-14.73
19281,-15.17
19293,-13.99
19305,-11.81
19317,-9.5
19329,-8.15
19341,-8.96
19353,-13.01
19365,-20.69
19377,-31.3
19389,-42.99
19401,-53.27
19413,-60.15
19425,-63.18
19437,-63.87
19448,-64.98
19459,-69.23
19471,-77.74
19483,-89.31
19495,-100.75
19507,-108.15
19519,-108.45
19531,-100.49
19543,-85.22
19555,-64.9
19567,-42.14
19579,-19.01
19591,3.24
19603,23.91
19615,42.34
19627,57.64
19638,68.71
19649,74.64
19661,75.1
19673,70.78
19685,63.23
19697,54.6
19709,46.94
19721,41.73
19733,39.53
19745,39.98
19757,42.02
19769,44.27
19781,45.53
19793,45.21
19805,43.48
19817,41.13
19828,38.95
19839,37.31
19851,35.83
19863,33.69
19875,30.18
19887,25.33
19899,19.9
19911,14.9
19923,10.73
19935,6.67
19947,1.03
19959,-7.96
19971,-20.91
19983,-36.64
19995,-52.36
20007,-64.82
20018,-71.68
20029,-72.51
20041,-68.91
20053,-63.64
20065,-59.4
20077,-57.85
20089,-59.18
20101,-62.37
20113,-65.98
20125,-68.8
20137,-70.26
20149,-70.49
20161,-70.0
20173,-69.51
20185,-69.63
20197,-70.73
20208,-72.78
20219,-75.3
20231,-77.02
20243,-75.89
20255,-69.4
20267,-55.43
20279,-33.29
20291,-4.34
20303,28.23
20315,60.6
20327,89.71
20339,114.36
20351,135.09
20363,153.33
20375,170.04
20387,184.75
20398,195.48
20409,199.68
20421,195.62
20433,183.45
20445,165.6
20457,146.0
20469,128.79
20481,116.86
20493,111.15
20505,110.74
20517,113.73
20529,118.46
20541,124.22
20553,131.11
20565,139.13
20577,147.38
20588,153.78
20599,155.69
20611,151.1
20623,139.49
20635,121.91
20647,100.33
20659,76.76
20671,52.51
20683,28.28
20695,4.57
20707,-17.92
20719,-38.15
20731,-54.86
20743,-67.04
20755,-74.38
20767,-77.31
20778,-77.09
20789,-75.53
20801,-74.6
20813,-76.06
20825,-81.01
20837,-89.64
20849,-101.07
20861,-113.68
20873,-125.58
20885,-135.37
20897,-142.71
20909,-148.35
20921,-153.7
20933,-159.85
20945,-166.72
20957,-172.59
20968,-174.48
20979,-169.32
20991,-155.13
