seconds,BVP
10,-33.92
22,-37.44
34,-41.66
46,-46.23
57,-50.42
68,-53.16
80,-53.43
92,-50.54
104,-44.46
116,-35.78
128,-25.54
140,-14.94
152,-4.98
164,3.64
176,10.62
188,15.89
200,19.58
212,21.93
224,23.26
236,23.93
247,24.29
258,24.61
270,24.98
282,25.29
294,25.34
306,24.91
318,23.97
330,22.65
342,21.28
354,20.17
366,19.51
378,19.3
390,19.34
402,19.35
414,19.05
426,18.25
437,16.92
448,15.13
460,13.02
472,10.76
484,8.46
496,6.17
508,3.86
520,1.4
532,-1.28
544,-4.27
556,-7.47
568,-10.73
580,-13.86
592,-16.76
604,-19.41
616,-21.96
627,-24.66
638,-27.79
650,-31.57
662,-36.0
674,-40.76
686,-45.19
698,-48.34
710,-49.23
722,-47.11
734,-41.75
746,-33.56
758,-23.47
770,-12.68
782,-2.31
794,6.83
806,14.35
817,20.18
828,24.44
840,27.36
852,29.19
864,30.23
876,30.72
888,30.86
900,30.77
912,30.44
924,29.84
936,28.89
948,27.61
960,26.11
972,24.57
984,23.2
996,22.18
1007,21.56
1018,21.24
1030,21.01
1042,20.53
1054,19.51
1066,17.83
1078,15.54
1090,12.83
1102,9.99
1114,7.22
1126,4.63
1138,2.13
1150,-0.47
1162,-3.35
1174,-6.65
1186,-10.28
1197,-14.03
1208,-17.59
1220,-20.71
1232,-23.33
1244,-25.57
1256,-27.71
1268,-30.08
1280,-32.93
1292,-36.4
1304,-40.43
1316,-44.78
1328,-48.92
1340,-52.13
1352,-53.49
1364,-52.19
1376,-47.74
1387,-40.25
1398,-30.48
1410,-19.63
1422,-9.0
1434,0.46
1446,8.28
1458,14.56
1470,19.63
1482,23.86
1494,27.48
1506,30.51
1518,32.89
1530,34.55
1542,35.52
1554,35.85
1566,35.67
1577,35.08
1588,34.16
1600,32.95
1612,31.53
1624,30.03
1636,28.55
1648,27.24
1660,26.17
1672,25.33
1684,24.62
1696,23.85
1708,22.85
1720,21.44
1732,19.55
1744,17.23
1756,14.6
1767,11.83
1778,9.08
1790,6.4
1802,3.78
1814,1.13
1826,-1.66
1838,-4.64
1850,-7.83
1862,-11.16
1874,-14.48
1886,-17.65
1898,-20.6
1910,-23.27
1922,-25.71
1934,-28.01
1946,-30.37
1957,-33.02
1968,-36.2
1980,-40.05
1992,-44.45
2004,-48.98
2016,-52.86
2028,-55.12
2040,-54.84
2052,-51.41
2064,-44.78
2076,-35.5
2088,-24.62
2100,-13.41
2112,-3.05
2124,5.65
2136,12.42
2147,17.42
2158,21.12
2170,24.0
2182,26.43
2194,28.52
2206,30.27
2218,31.6
2230,32.45
2242,32.86
2254,32.86
2266,32.51
2278,31.83
2290,30.83
2302,29.53
2314,27.99
2326,26.38
2337,24.94
2348,23.9
2360,23.4
2372,23.38
2384,23.5
2396,23.33
2408,22.4
2420,20.44
2432,17.51
2444,13.93
2456,10.16
2468,6.61
2480,3.49
2492,0.78
2504,-1.72
2516,-4.21
2527,-6.86
2538,-9.73
2550,-12.78
2562,-15.93
2574,-19.06
2586,-22.02
2598,-24.65
2610,-26.87
2622,-28.72
2634,-30.41
2646,-32.32
2658,-34.87
2670,-38.33
2682,-42.59
2694,-47.06
2706,-50.75
2717,-52.51
2728,-51.39
2740,-46.96
2752,-39.42
2764,-29.59
2776,-18.6
2788,-7.67
2800,2.22
2812,10.46
2824,16.81
2836,21.39
2848,24.45
2860,26.34
2872,27.37
2884,27.77
2896,27.73
2907,27.39
2918,26.85
2930,26.15
2942,25.33
2954,24.41
2966,23.46
2978,22.56
2990,21.8
3002,21.25
3014,20.88
3026,20.61
3038,20.28
3050,19.75
3062,18.89
3074,17.6
3086,15.82
3097,13.6
3108,11.05
3120,8.38
3132,5.74
3144,3.18
3156,0.59
3168,-2.2
3180,-5.36
3192,-8.84
3204,-12.42
3216,-15.81
3228,-18.81
3240,-21.46
3252,-24.04
3264,-26.95
3276,-30.48
3287,-34.72
3298,-39.45
3310,-44.16
3322,-48.18
3334,-50.77
3346,-51.18
3358,-48.88
3370,-43.7
3382,-35.89
3394,-26.19
3406,-15.65
3418,-5.37
3430,3.78
3442,11.31
3454,17.2
3466,21.66
3477,25.02
3488,27.51
3500,29.26
3512,30.27
3524,30.55
3536,30.18
3548,29.3
3560,28.1
3572,26.76
3584,25.42
3596,24.17
3608,23.07
3620,22.15
3632,21.48
3644,21.0
3656,20.62
3667,20.15
3678,19.34
3690,18.04
3702,16.23
3714,14.04
3726,11.69
3738,9.32
3750,6.91
3762,4.32
3774,1.34
3786,-2.11
3798,-5.93
3810,-9.87
3822,-13.62
3834,-16.97
3846,-19.86
3857,-22.39
3868,-24.69
3880,-26.92
3892,-29.24
3904,-31.87
3916,-35.03
3928,-38.87
3940,-43.23
3952,-47.56
3964,-50.93
3976,-52.26
3988,-50.69
4000,-45.91
4012,-38.24
4024,-28.55
4036,-18.02
4047,-7.74
4058,1.48
4070,9.23
4082,15.48
4094,20.4
4106,24.29
4118,27.39
4130,29.84
4142,31.67
4154,32.86
4166,33.42
4178,33.46
4190,33.15
4202,32.68
4214,32.18
4226,31.65
4237,31.07
4248,30.4
4260,29.72
4272,29.13
4284,28.68
4296,28.37
4308,28.01
4320,27.39
4332,26.32
4344,24.75
4356,22.7
4368,20.28
4380,17.57
4392,14.65
4404,11.6
4416,8.53
4427,5.5
4438,2.54
4450,-0.43
4462,-3.57
4474,-6.99
4486,-10.74
4498,-14.68
4510,-18.57
4522,-22.14
4534,-25.16
4546,-27.61
4558,-29.62
4570,-31.51
4582,-33.68
4594,-36.51
4606,-40.26
4617,-44.91
4628,-50.06
4640,-54.88
4652,-58.23
4664,-58.97
4676,-56.29
4688,-49.99
4700,-40.64
4712,-29.36
4724,-17.52
4736,-6.34
4748,3.36
4760,11.26
4772,17.39
4784,22.03
4796,25.53
4807,28.19
4818,30.3
4830,32.06
4842,33.59
4854,34.88
4866,35.8
4878,36.23
4890,36.06
4902,35.38
4914,34.39
4926,33.37
4938,32.6
4950,32.17
4962,32.07
4974,32.1
4986,32.01
4997,31.58
5008,30.68
5020,29.27
5032,27.41
5044,25.22
5056,22.8
5068,20.25
5080,17.65
5092,15.05
5104,12.5
5116,10.03
5128,7.59
5140,5.12
5152,2.45
5164,-0.53
5176,-3.89
5187,-7.54
5198,-11.29
5210,-14.87
5222,-18.07
5234,-20.8
5246,-23.16
5258,-25.41
5270,-27.9
5282,-30.92
5294,-34.63
5306,-39.01
5318,-43.82
5330,-48.63
5342,-52.75
5354,-55.37
5366,-55.67
5377,-53.07
5388,-47.42
5400,-39.15
5412,-29.15
5424,-18.59
5436,-8.59
5448,0.03
5460,6.9
5472,12.08
5484,15.91
5496,18.83
5508,21.2
5520,23.18
5532,24.79
5544,25.93
5556,26.54
5567,26.64
5578,26.33
5590,25.78
5602,25.11
5614,24.39
5626,23.71
5638,23.14
5650,22.78
5662,22.72
5674,22.93
5686,23.23
5698,23.35
5710,22.94
5722,21.8
5734,19.89
5746,17.36
5757,14.47
5768,11.44
5780,8.41
5792,5.36
5804,2.21
5816,-1.13
5828,-4.68
5840,-8.36
5852,-12.0
5864,-15.44
5876,-18.54
5888,-21.3
5900,-23.82
5912,-26.35
5924,-29.19
5936,-32.58
5947,-36.63
5958,-41.12
5970,-45.49
5982,-48.86
5994,-50.24
6006,-48.82
6018,-44.22
6030,-36.65
6042,-26.87
6054,-16.04
6066,-5.37
6078,4.1
6090,11.75
6102,17.41
6114,21.29
6126,23.83
6137,25.48
6148,26.62
6160,27.45
6172,27.98
6184,28.15
6196,27.9
6208,27.16
6220,25.98
6232,24.47
6244,22.81
6256,21.24
6268,19.97
6280,19.14
6292,18.73
6304,18.57
6316,18.36
6327,17.84
6338,16.8
6350,15.22
6362,13.21
6374,10.92
6386,8.48
6398,5.94
6410,3.27
6422,0.41
6434,-2.64
6446,-5.83
6458,-9.09
6470,-12.3
6482,-15.37
6494,-18.26
6506,-21.01
6517,-23.72
6528,-26.58
6540,-29.79
6552,-33.51
6564,-37.7
6576,-42.01
6588,-45.72
6600,-47.85
6612,-47.44
6624,-43.89
6636,-37.23
6648,-28.15
6660,-17.81
6672,-7.52
6684,1.67
6696,9.18
6707,14.85
6718,18.88
6730,21.6
6742,23.35
6754,24.39
6766,24.95
6778,25.21
6790,25.3
6802,25.24
6814,24.97
6826,24.43
6838,23.6
6850,22.56
6862,21.52
6874,20.66
6886,20.1
6897,19.83
6908,19.71
6920,19.54
6932,19.17
6944,18.45
6956,17.32
6968,15.74
6980,13.74
6992,11.48
7004,9.15
7016,6.99
7028,5.16
7040,3.62
7052,2.14
7064,0.43
7076,-1.79
7087,-4.58
7098,-7.79
7110,-11.15
7122,-14.31
7134,-17.08
7146,-19.46
7158,-21.63
7170,-23.97
7182,-26.88
7194,-30.67
7206,-35.39
7218,-40.65
7230,-45.69
7242,-49.49
7254,-50.97
7266,-49.4
7277,-44.51
7288,-36.69
7300,-26.84
7312,-16.14
7324,-5.82
7336,3.25
7348,10.57
7360,16.14
7372,20.29
7384,23.48
7396,26.13
7408,28.49
7420,30.62
7432,32.37
7444,33.51
7456,33.87
7467,33.38
7478,32.16
7490,30.47
7502,28.65
7514,27.0
7526,25.7
7538,24.8
7550,24.28
7562,24.05
7574,23.98
7586,23.88
7598,23.5
7610,22.53
7622,20.8
7634,18.28
7646,15.17
7657,11.82
7668,8.57
7680,5.64
7692,3.06
7704,0.69
7716,-1.67
7728,-4.22
7740,-7.09
7752,-10.3
7764,-13.74
7776,-17.21
7788,-20.43
7800,-23.21
7812,-25.55
7824,-27.64
7836,-29.92
7847,-32.85
7858,-36.69
7870,-41.37
7882,-46.37
7894,-50.79
7906,-53.55
7918,-53.71
7930,-50.67
7942,-44.44
7954,-35.61
7966,-25.22
7978,-14.47
7990,-4.45
8002,4.13
8014,10.98
8026,16.15
8037,19.91
8048,22.61
8060,24.51
8072,25.88
8084,26.9
8096,27.7
8108,28.31
8120,28.68
8132,28.68
8144,28.2
8156,27.25
8168,25.96
8180,24.55
8192,23.28
8204,22.36
8216,21.84
8227,21.64
8238,21.54
8250,21.25
8262,20.48
8274,19.04
8286,16.93
8298,14.33
8310,11.51
8322,8.71
8334,6.04
8346,3.38
8358,0.55
8370,-2.66
8382,-6.32
8394,-10.31
8406,-14.36
8417,-18.23
8428,-21.72
8440,-24.79
8452,-27.55
8464,-30.19
8476,-32.95
8488,-36.04
8500,-39.56
8512,-43.38
8524,-47.05
8536,-49.81
8548,-50.74
8560,-49.04
8572,-44.31
8584,-36.8
8596,-27.33
8607,-17.08
8618,-7.2
8630,1.47
8642,8.58
8654,14.16
8666,18.43
8678,21.62
8690,23.89
8702,25.3
8714,25.94
8726,25.97
8738,25.59
8750,25.03
8762,24.43
8774,23.83
8786,23.16
8797,22.38
8808,21.5
8820,20.66
8832,20.04
8844,19.76
8856,19.81
8868,19.99
8880,19.99
8892,19.49
8904,18.25
8916,16.27
8928,13.69
8940,10.81
8952,7.89
8964,5.08
8976,2.37
8987,-0.37
8998,-3.32
9010,-6.6
9022,-10.17
9034,-13.84
9046,-17.32
9058,-20.41
9070,-23.04
9082,-25.39
9094,-27.79
9106,-30.67
9118,-34.29
9130,-38.64
9142,-43.29
9154,-47.45
9166,-50.07
9177,-50.2
9188,-47.23
9200,-41.15
9212,-32.55
9224,-22.44
9236,-11.99
9248,-2.19
9260,6.31
9272,13.26
9284,18.72
9296,22.87
9308,25.94
9320,28.16
9332,29.71
9344,30.75
9356,31.39
9367,31.7
9378,31.67
9390,31.26
9402,30.47
9414,29.39
9426,28.15
9438,26.95
9450,25.94
9462,25.18
9474,24.65
9486,24.2
9498,23.69
9510,22.93
9522,21.78
9534,20.16
9546,18.04
9557,15.46
9568,12.57
9580,9.62
9592,6.84
9604,4.4
9616,2.31
9628,0.37
9640,-1.77
9652,-4.4
9664,-7.64
9676,-11.33
9688,-15.14
9700,-18.67
9712,-21.64
9724,-23.97
9736,-25.85
9747,-27.61
9758,-29.66
9770,-32.34
9782,-35.84
9794,-40.14
9806,-44.87
9818,-49.31
9830,-52.42
9842,-53.15
9854,-50.7
9866,-44.9
9878,-36.23
9890,-25.78
9902,-14.84
9914,-4.54
9926,4.38
9937,11.65
9948,17.4
9960,21.93
9972,25.54
9984,28.47
9996,30.82
10008,32.62
10020,33.8
10032,34.35
10044,34.26
10056,33.65
10068,32.69
10080,31.59
10092,30.55
10104,29.69
10116,29.06
10127,28.67
10138,28.47
10150,28.38
10162,28.26
10174,27.93
10186,27.23
10198,26.06
10210,24.39
10222,22.29
10234,19.85
10246,17.19
10258,14.38
10270,11.51
10282,8.65
10294,5.87
10306,3.23
10317,0.71
10328,-1.81
10340,-4.46
10352,-7.34
10364,-10.46
10376,-13.69
10388,-16.87
10400,-19.83
10412,-22.48
10424,-24.85
10436,-27.05
10448,-29.26
10460,-31.71
10472,-34.66
10484,-38.25
10496,-42.44
10507,-46.8
10518,-50.54
10530,-52.61
10542,-52.04
10554,-48.27
10566,-41.38
10578,-32.12
10590,-21.64
10602,-11.15
10614,-1.61
10626,6.47
10638,12.97
10650,18.04
10662,21.89
10674,24.75
10686,26.75
10697,28.06
10708,28.82
10720,29.23
10732,29.44
10744,29.59
10756,29.67
10768,29.61
10780,29.27
10792,28.56
10804,27.48
10816,26.21
10828,25.01
10840,24.16
10852,23.77
10864,23.72
10876,23.72
10887,23.37
10898,22.37
10910,20.59
10922,18.07
10934,15.02
10946,11.68
10958,8.26
10970,4.96
10982,1.89
10994,-0.86
11006,-3.3
11018,-5.54
11030,-7.74
11042,-10.09
11054,-12.7
11066,-15.53
11077,-18.44
11088,-21.22
11100,-23.72
11112,-25.93
11124,-28.02
11136,-30.27
11148,-33.04
11160,-36.56
11172,-40.78
11184,-45.22
11196,-49.0
11208,-50.99
11220,-50.21
11232,-46.13
11244,-38.98
11256,-29.63
11267,-19.36
11278,-9.37
11290,-0.48
11302,7.0
11314,13.11
11326,18.03
11338,21.87
11350,24.65
11362,26.39
11374,27.24
11386,27.5
11398,27.51
11410,27.47
11422,27.4
11434,27.09
11446,26.34
11457,25.1
11468,23.5
11480,21.9
11492,20.64
11504,19.92
11516,19.7
11528,19.74
11540,19.67
11552,19.18
11564,18.05
11576,16.3
11588,14.06
11600,11.54
11612,8.95
11624,6.36
11636,3.75
11647,1.0
11658,-2.05
11670,-5.46
11682,-9.22
11694,-13.13
11706,-16.96
11718,-20.45
11730,-23.46
11742,-26.01
11754,-28.29
11766,-30.64
11778,-33.47
11790,-37.02
11802,-41.25
11814,-45.7
11826,-49.48
11837,-51.54
11848,-50.92
11860,-47.11
11872,-40.22
11884,-30.99
11896,-20.55
11908,-10.11
11920,-0.64
11932,7.32
11944,13.64
11956,18.51
11968,22.22
11980,25.02
11992,27.06
12004,28.4
12016,29.09
12027,29.21
12038,28.95
12050,28.57
12062,28.28
12074,28.16
12086,28.08
12098,27.84
12110,27.23
12122,26.23
12134,25.01
12146,23.84
12158,22.94
12170,22.3
12182,21.66
12194,20.67
12206,19.0
12217,16.58
12228,13.56
12240,10.27
12252,7.01
12264,3.95
12276,1.1
12288,-1.69
12300,-4.59
12312,-7.69
12324,-10.99
12336,-14.38
12348,-17.71
12360,-20.8
12372,-23.54
12384,-25.93
12396,-28.08
12407,-30.24
12418,-32.69
12430,-35.72
12442,-39.48
12454,-43.82
12466,-48.2
12478,-51.67
12490,-53.13
12502,-51.64
12514,-46.73
12526,-38.64
12538,-28.26
12550,-16.88
12562,-5.78
12574,4.09
12586,12.26
12597,18.71
12608,23.69
12620,27.52
12632,30.44
12644,32.59
12656,34.04
12668,34.87
12680,35.16
12692,35.03
12704,34.58
12716,33.88
12728,32.95
12740,31.83
12752,30.56
12764,29.2
12776,27.88
12787,26.74
12798,25.88
12810,25.3
12822,24.92
12834,24.5
12846,23.77
12858,22.41
12870,20.28
12882,17.37
12894,13.92
12906,10.3
12918,6.87
12930,3.84
12942,1.2
12954,-1.25
12966,-3.74
12977,-6.45
12988,-9.41
13000,-12.53
13012,-15.69
13024,-18.73
13036,-21.62
13048,-24.37
13060,-27.07
13072,-29.86
13084,-32.83
13096,-36.05
13108,-39.57
13120,-43.37
13132,-47.32
13144,-51.11
13156,-54.16
13167,-55.71
13178,-54.96
13190,-51.33
13202,-44.68
13214,-35.44
13226,-24.49
13238,-13.01
13250,-2.13
13262,7.3
13274,14.85
13286,20.48
13298,24.47
13310,27.18
13322,29.01
13334,30.22
13346,30.97
13357,31.33
13368,31.32
13380,30.98
13392,30.44
13404,29.81
13416,29.17
13428,28.54
13440,27.92
13452,27.28
13464,26.65
13476,26.09
13488,25.66
13500,25.39
13512,25.18
13524,24.85
13536,24.14
13547,22.86
13558,20.88
13570,18.23
13582,15.1
13594,11.72
13606,8.37
13618,5.2
13630,2.26
13642,-0.55
13654,-3.4
13666,-6.45
13678,-9.72
13690,-13.15
13702,-16.52
13714,-19.62
13726,-22.32
13737,-24.6
13748,-26.57
13760,-28.46
13772,-30.53
13784,-33.05
13796,-36.31
13808,-40.44
13820,-45.27
13832,-50.22
13844,-54.29
13856,-56.27
13868,-55.09
13880,-50.22
13892,-41.92
13904,-31.15
13916,-19.29
13927,-7.69
13938,2.62
13950,11.11
13962,17.65
13974,22.42
13986,25.69
13998,27.81
14010,29.13
14022,29.97
14034,30.59
14046,31.12
14058,31.56
14070,31.81
14082,31.71
14094,31.15
14106,30.12
14117,28.74
14128,27.24
14140,25.91
14152,24.95
14164,24.43
14176,24.16
14188,23.76
14200,22.85
14212,21.15
14224,18.59
14236,15.42
14248,11.99
14260,8.65
14272,5.63
14284,2.91
14296,0.31
14307,-2.45
14318,-5.61
14330,-9.23
14342,-13.19
14354,-17.22
14366,-20.97
14378,-24.16
14390,-26.73
14402,-28.87
14414,-30.94
14426,-33.38
14438,-36.5
14450,-40.31
14462,-44.47
14474,-48.32
14486,-51.01
14497,-51.66
14508,-49.62
14520,-44.65
14532,-36.97
14544,-27.28
14556,-16.6
14568,-5.99
14580,3.67
14592,11.81
14604,18.27
14616,23.12
14628,26.59
14640,28.88
14652,30.17
14664,30.57
14676,30.29
14687,29.52
14698,28.49
14710,27.38
14722,26.23
14734,25.03
14746,23.76
14758,22.46
14770,21.28
14782,20.36
14794,19.82
14806,19.61
14818,19.56
14830,19.36
14842,18.76
14854,17.52
14866,15.62
14877,13.15
14888,10.32
14900,7.35
14912,4.4
14924,1.53
14936,-1.35
14948,-4.4
14960,-7.74
14972,-11.37
14984,-15.16
14996,-18.84
15008,-22.13
15020,-24.85
15032,-27.05
15044,-28.96
15056,-31.01
15067,-33.65
15078,-37.14
15090,-41.4
15102,-45.86
15114,-49.56
15126,-51.33
15138,-50.19
15150,-45.67
15162,-38.03
15174,-28.12
15186,-17.19
15198,-6.4
15210,3.37
15222,11.68
15234,18.46
15246,23.78
15257,27.75
15268,30.48
15280,32.08
15292,32.78
15304,32.89
15316,32.72
15328,32.5
15340,32.27
15352,31.93
15364,31.34
15376,30.44
15388,29.32
15400,28.17
15412,27.2
15424,26.52
15436,26.06
15447,25.61
15458,24.91
15470,23.72
15482,21.96
15494,19.65
15506,16.98
15518,14.14
15530,11.31
15542,8.57
15554,5.9
15566,3.18
15578,0.24
15590,-3.04
15602,-6.7
15614,-10.61
15626,-14.56
15637,-18.3
15648,-21.64
15660,-24.52
15672,-27.05
15684,-29.52
15696,-32.3
15708,-35.74
15720,-39.96
15732,-44.7
15744,-49.25
15756,-52.54
15768,-53.42
15780,-51.02
15792,-45.13
15804,-36.29
15816,-25.63
15827,-14.5
15838,-4.09
15850,4.87
15862,12.17
15874,17.93
15886,22.41
15898,25.85
15910,28.44
15922,30.34
15934,31.72
15946,32.71
15958,33.37
15970,33.6
15982,33.26
15994,32.25
16006,30.63
16017,28.65
16028,26.67
16040,24.99
16052,23.8
16064,23.09
16076,22.69
16088,22.34
16100,21.77
16112,20.77
16124,19.21
16136,17.13
16148,14.71
16160,12.17
16172,9.72
16184,7.42
16196,5.15
16207,2.68
16218,-0.19
16230,-3.57
16242,-7.37
16254,-11.33
16266,-15.17
16278,-18.64
16290,-21.65
16302,-24.27
16314,-26.7
16326,-29.23
16338,-32.15
16350,-35.62
16362,-39.59
16374,-43.74
16386,-47.38
16397,-49.62
16408,-49.55
16420,-46.51
16432,-40.35
16444,-31.53
16456,-21.06
16468,-10.18
16480,-0.12
16492,8.33
16504,14.88
16516,19.65
16528,23.06
16540,25.5
16552,27.26
16564,28.48
16576,29.15
16587,29.26
16598,28.83
16610,27.97
16622,26.82
16634,25.55
16646,24.3
16658,23.19
16670,22.27
16682,21.57
16694,21.04
16706,20.58
16718,20.06
16730,19.35
16742,18.36
16754,17.02
16766,15.29
16777,13.17
16788,10.65
16800,7.77
16812,4.59
16824,1.2
16836,-2.32
16848,-5.89
16860,-9.49
16872,-13.07
16884,-16.6
16896,-20.0
16908,-23.18
16920,-26.09
16932,-28.79
16944,-31.48
16956,-34.44
16967,-37.85
16978,-41.67
16990,-45.44
17002,-48.31
17014,-49.28
17026,-47.46
17038,-42.43
17050,-34.42
17062,-24.28
17074,-13.27
17086,-2.63
17098,6.67
17110,14.17
17122,19.88
17134,24.07
17146,27.1
17157,29.19
17168,30.45
17180,30.95
17192,30.8
17204,30.23
17216,29.5
17228,28.89
17240,28.47
17252,28.2
17264,27.89
17276,27.4
17288,26.66
17300,25.77
17312,24.86
17324,24.1
17336,23.49
17347,22.91
17358,22.15
17370,20.94
17382,19.15
17394,16.82
17406,14.11
17418,11.28
17430,8.47
17442,5.7
17454,2.88
17466,-0.17
17478,-3.52
17490,-7.1
17502,-10.69
17514,-14.05
17526,-17.03
17537,-19.66
17548,-22.12
17560,-24.66
17572,-27.53
17584,-30.9
17596,-34.88
17608,-39.37
17620,-44.04
17632,-48.26
17644,-51.12
17656,-51.61
17668,-48.96
17680,-42.93
17692,-33.99
17704,-23.24
17716,-12.11
17727,-1.88
17738,6.61
17750,13.1
17762,17.83
17774,21.3
17786,24.02
17798,26.32
17810,28.3
17822,29.87
17834,30.9
17846,31.34
17858,31.25
17870,30.81
17882,30.26
17894,29.74
17906,29.27
17917,28.8
17928,28.2
17940,27.43
17952,26.53
17964,25.57
17976,24.58
17988,23.5
18000,22.17
18012,20.45
18024,18.26
18036,15.68
18048,12.89
18060,10.06
18072,7.37
18084,4.82
18096,2.34
18107,-0.24
18118,-3.08
18130,-6.32
18142,-9.95
18154,-13.83
18166,-17.7
18178,-21.25
18190,-24.22
18202,-26.47
18214,-28.06
18226,-29.25
18238,-30.4
18250,-31.91
18262,-34.12
18274,-37.23
18286,-41.2
18297,-45.68
18308,-49.94
18320,-52.98
18332,-53.78
18344,-51.56
18356,-46.09
18368,-37.77
18380,-27.54
18392,-16.63
18404,-6.17
18416,3.01
18428,10.53
18440,16.42
18452,20.92
18464,24.38
18476,27.06
18487,29.16
18498,30.77
18510,31.91
18522,32.58
18534,32.75
18546,32.4
18558,31.56
18570,30.34
18582,28.92
18594,27.55
18606,26.46
18618,25.8
18630,25.56
18642,25.6
18654,25.7
18666,25.62
18677,25.18
18688,24.28
18700,22.85
18712,20.87
18724,18.35
18736,15.39
18748,12.14
18760,8.81
18772,5.57
18784,2.52
18796,-0.36
18808,-3.12
18820,-5.84
18832,-8.57
18844,-11.29
18856,-13.99
18867,-16.67
18878,-19.35
18890,-22.01
18902,-24.6
18914,-27.06
18926,-29.35
18938,-31.62
18950,-34.1
18962,-37.13
18974,-40.96
18986,-45.59
18998,-50.67
19010,-55.41
19022,-58.79
19034,-59.74
19046,-57.55
19057,-52.05
19068,-43.74
19080,-33.65
19092,-23.06
19104,-13.13
19116,-4.62
19128,2.18
19140,7.35
19152,11.15
19164,13.82
19176,15.49
19188,16.2
19200,16.02
19212,15.13
19224,13.88
19236,12.67
19247,11.76
19258,11.25
19270,11.03
19282,10.85
19294,10.53
19306,10.0
19318,9.43
19330,9.12
19342,9.38
19354,10.25
19366,11.49
19378,12.68
19390,13.37
19402,13.24
19414,12.14
19426,10.23
19437,7.89
19448,5.52
19460,3.32
19472,1.25
19484,-0.83
19496,-3.11
19508,-5.59
19520,-8.12
19532,-10.18
19544,-11.0
19556,-9.84
19568,-6.37
19580,-0.76
19592,6.34
19604,14.02
19616,21.73
19627,28.23
19638,32.09
19650,32.38
19662,29.04
19674,22.75
19686,14.7
19698,6.58
19710,0.3
19722,-2.42
19734,-0.69
19746,5.26
19758,14.19
19770,24.46
19782,34.42
19794,42.83
19806,48.84
19817,51.89
19828,51.48
19840,47.63
19852,40.21
19864,29.71
19876,17.31
19888,4.4
19900,-7.9
19912,-19.04
19924,-29.09
19936,-38.3
19948,-46.83
19960,-54.27
19972,-59.66
19984,-61.41
19996,-58.04
20007,-48.77
20018,-33.87
20030,-14.6
20042,7.13
20054,29.32
20066,51.54
20078,72.12
20090,89.68
20102,103.46
20114,113.57
20126,120.99
20138,127.3
20150,134.08
20162,142.23
20174,151.43
20186,160.02
20197,165.8
20208,166.39
20220,159.71
20232,144.24
20244,119.15
20256,84.56
20268,41.72
20280,-6.78
20292,-57.37
20304,-105.84
20316,-148.39
20328,-182.51
20340,-207.36
20352,-223.61
20364,-232.81
20376,-236.73
20387,-236.9
20398,-234.56
20410,-230.27
20422,-224.07
20434,-215.66
20446,-204.73
20458,-191.42
20470,-176.76
20482,-162.71
20494,-151.74
20506,-146.11
20518,-146.93
20530,-153.66
20542,-164.21
20554,-175.54
20566,-184.6
20577,-189.04
20588,-187.73
20600,-180.73
20612,-169.04
20624,-154.05
20636,-137.12
20648,-119.31
20660,-101.15
20672,-82.72
20684,-63.69
20696,-43.59
20708,-21.94
20720,1.65
20732,27.33
20744,55.09
20756,84.99
20767,117.43
20778,153.31
20790,193.78
20802,239.53
20814,289.8
20826,341.36
20838,388.37
20850,423.41
20862,439.83
20874,434.69
20886,410.73
20898,376.24
20910,342.38
20922,318.86
20934,310.04
20946,313.3
20957,320.56
20968,322.15
20980,310.96
20992,284.83
