seconds,BVP
11,-6.37
23,-4.46
35,-3.41
47,-2.96
58,-2.87
69,-3.26
81,-4.51
93,-6.98
105,-10.61
117,-14.66
129,-18.19
141,-20.4
153,-21.19
165,-21.35
177,-22.17
189,-24.81
201,-29.69
213,-36.28
225,-43.22
237,-49.01
248,-52.59
259,-53.77
271,-53.32
283,-52.51
295,-52.51
307,-54.14
319,-57.56
331,-62.51
343,-68.57
355,-75.37
367,-82.56
379,-89.66
391,-95.78
403,-99.49
415,-99.09
427,-93.01
438,-80.3
449,-61.05
461,-36.41
473,-8.35
485,20.68
497,48.07
509,71.33
521,88.32
533,97.58
545,98.56
557,91.9
569,79.63
581,64.86
593,51.22
605,41.85
617,38.34
628,40.1
639,44.57
651,48.16
663,47.77
675,42.14
687,32.33
699,21.13
711,11.65
723,5.85
735,3.76
747,3.71
759,3.38
771,0.96
783,-4.1
795,-11.22
807,-19.19
818,-26.84
829,-33.45
841,-38.65
853,-42.22
865,-43.85
877,-43.33
889,-40.69
901,-36.53
913,-31.85
925,-27.72
937,-24.92
949,-23.54
961,-23.26
973,-23.69
985,-24.76
997,-26.87
1008,-30.68
1019,-36.65
1031,-44.69
1043,-53.99
1055,-63.17
1067,-70.61
1079,-74.75
1091,-74.34
1103,-68.69
1115,-57.67
1127,-41.76
1139,-21.99
1151,0.21
1163,23.1
1175,44.65
1187,62.72
1198,75.32
1209,81.11
1221,79.84
1233,72.73
1245,62.31
1257,51.79
1269,44.12
1281,40.86
1293,41.64
1305,44.35
1317,46.17
1329,45.04
1341,40.88
1353,35.96
1365,34.0
1377,38.46
1388,50.59
1399,68.42
1411,87.13
1423,100.72
1435,104.37
1447,96.21
1459,77.95
1471,53.92
1483,29.39
1495,8.72
1507,-5.64
1519,-13.27
1531,-15.11
1543,-12.56
1555,-6.9
1567,0.83
1578,9.5
1589,17.69
1601,23.69
1613,26.01
1625,24.04
1637,18.39
1649,10.71
1661,3.06
1673,-3.07
1685,-7.33
1697,-10.63
1709,-14.59
1721,-20.59
1733,-28.92
1745,-38.43
1757,-46.8
1768,-51.35
1779,-49.87
1791,-41.12
1803,-25.0
1815,-2.38
1827,24.96
1839,54.4
1851,82.5
1863,105.46
1875,120.01
1887,124.22
1899,118.34
1911,104.76
1923,87.37
1935,70.24
1947,56.41
1958,47.11
1969,41.84
1981,38.98
1993,36.68
2005,33.62
2017,29.43
2029,24.52
2041,19.67
2053,15.53
2065,12.26
2077,9.57
2089,6.98
2101,4.23
2113,1.43
2125,-1.06
2137,-2.9
2148,-4.08
2159,-4.96
2171,-6.06
2183,-7.84
2195,-10.61
2207,-14.56
2219,-19.83
2231,-26.58
2243,-34.82
2255,-44.06
2267,-53.27
2279,-61.03
2291,-66.01
2303,-67.53
2315,-65.9
2327,-62.34
2338,-58.61
2349,-56.48
2361,-57.28
2373,-61.64
2385,-69.47
2397,-79.82
2409,-90.86
2421,-100.04
2433,-104.49
2445,-101.85
2457,-91.18
2469,-73.38
2481,-50.97
2493,-27.26
2505,-5.31
2517,12.67
2528,25.56
2539,32.99
2551,35.09
2563,32.33
2575,25.61
2587,16.29
2599,6.12
2611,-3.06
2623,-9.69
2635,-12.84
2647,-12.25
2659,-8.4
2671,-2.42
2683,4.19
2695,9.93
2707,13.79
2718,15.64
2729,16.18
2741,16.35
2753,16.79
2765,17.17
2777,16.52
2789,13.77
2801,8.57
2813,1.52
2825,-6.11
2837,-13.13
2849,-19.06
2861,-24.19
2873,-29.17
2885,-34.33
2897,-39.28
2908,-43.09
2919,-44.97
2931,-44.81
2943,-43.43
2955,-42.18
2967,-42.18
2979,-43.83
2991,-46.76
3003,-50.25
3015,-53.9
3027,-57.89
3039,-62.69
3051,-68.54
3063,-75.16
3075,-81.52
3087,-86.29
3098,-88.13
3109,-85.99
3121,-79.29
3133,-67.96
3145,-52.5
3157,-33.89
3169,-13.58
3181,6.9
3193,26.19
3205,43.29
3217,57.48
3229,68.06
3241,74.26
3253,75.39
3265,71.35
3277,63.02
3288,52.26
3299,41.35
3311,32.14
3323,25.5
3335,21.19
3347,18.32
3359,15.96
3371,13.62
3383,11.32
3395,9.46
3407,8.29
3419,7.72
3431,7.14
3443,5.74
3455,2.97
3467,-1.04
3478,-5.31
3489,-8.45
3501,-9.36
3513,-7.93
3525,-5.28
3537,-3.3
3549,-3.66
3561,-6.92
3573,-12.24
3585,-17.82
3597,-21.9
3609,-23.7
3621,-23.62
3633,-22.87
3645,-22.58
3657,-23.13
3668,-24.06
3679,-24.59
3691,-24.09
3703,-22.63
3715,-20.88
3727,-19.89
3739,-20.5
3751,-23.08
3763,-27.46
3775,-33.05
3787,-39.01
3799,-44.35
3811,-47.87
3823,-48.27
3835,-44.3
3847,-35.29
3858,-21.53
3869,-4.39
3881,14.02
3893,31.62
3905,47.13
3917,60.31
3929,71.55
3941,81.11
3953,88.36
3965,91.91
3977,90.31
3989,83.22
4001,72.06
4013,59.76
4025,49.67
4037,44.19
4048,43.85
4059,47.43
4071,52.83
4083,58.18
4095,62.61
4107,66.16
4119,69.32
4131,72.33
4143,74.98
4155,76.71
4167,77.12
4179,76.24
4191,74.45
4203,72.1
4215,69.08
4227,64.81
4238,58.56
4249,49.95
4261,39.32
4273,27.63
4285,16.18
4297,6.1
4309,-1.97
4321,-7.97
4333,-12.28
4345,-15.52
4357,-18.42
4369,-21.65
4381,-25.62
4393,-30.4
4405,-35.62
4417,-40.68
4428,-45.15
4439,-49.14
4451,-53.44
4463,-59.21
4475,-67.21
4487,-77.16
4499,-87.39
4511,-95.29
4523,-98.09
4535,-93.79
4547,-81.82
4559,-63.08
4571,-39.52
4583,-13.62
4595,12.15
4607,35.71
4618,55.49
4629,70.62
4641,80.78
4653,86.05
4665,86.68
4677,83.05
4689,75.81
4701,66.12
4713,55.79
4725,46.88
4737,41.1
4749,39.14
4761,40.43
4773,43.55
4785,46.89
4797,49.17
4808,49.66
4819,48.02
4831,44.09
4843,37.86
4855,29.61
4867,20.04
4879,10.13
4891,0.83
4903,-7.25
4915,-13.96
4927,-19.33
4939,-23.38
4951,-26.04
4963,-27.38
4975,-27.86
4987,-28.32
4998,-29.78
5009,-32.86
5021,-37.59
5033,-43.41
5045,-49.51
5057,-55.13
5069,-59.81
5081,-63.3
5093,-65.54
5105,-66.72
5117,-67.26
5129,-67.96
5141,-69.72
5153,-73.27
5165,-78.7
5177,-85.14
5188,-90.85
5199,-93.57
5211,-91.27
5223,-82.73
5235,-67.92
5247,-47.88
5259,-24.42
5271,0.42
5283,24.67
5295,46.62
5307,64.88
5319,78.42
5331,86.71
5343,89.71
5355,87.86
5367,81.95
5378,73.08
5389,62.55
5401,51.9
5413,42.67
5425,36.0
5437,32.34
5449,31.1
5461,31.04
5473,30.82
5485,29.81
5497,28.34
5509,27.27
5521,27.16
5533,27.49
5545,26.63
5557,22.65
5568,14.64
5579,3.39
5591,-8.69
5603,-18.73
5615,-24.84
5627,-27.02
5639,-26.94
5651,-26.9
5663,-28.6
5675,-32.17
5687,-36.44
5699,-39.8
5711,-41.28
5723,-41.22
5735,-41.04
5747,-42.44
5758,-46.47
5769,-53.07
5781,-61.12
5793,-69.04
5805,-75.56
5817,-80.16
5829,-83.21
5841,-85.61
5853,-88.36
5865,-92.14
5877,-97.13
5889,-103.0
5901,-108.91
5913,-113.54
5925,-115.2
5937,-112.21
5948,-103.42
5959,-88.81
5971,-69.57
5983,-47.89
5995,-26.16
6007,-6.29
6019,10.67
6031,24.42
6043,34.81
6055,41.44
6067,43.54
6079,40.47
6091,32.38
6103,20.59
6115,7.54
6127,-4.06
6138,-12.11
6149,-15.85
6161,-15.86
6173,-13.51
6185,-10.07
6197,-6.06
6209,-1.33
6221,4.5
6233,11.23
6245,17.85
6257,22.76
6269,24.55
6281,22.69
6293,17.85
6305,11.58
6317,5.55
6328,0.87
6339,-2.35
6351,-4.77
6363,-7.31
6375,-10.57
6387,-14.41
6399,-17.93
6411,-19.85
6423,-19.05
6435,-14.83
6447,-7.16
6459,3.41
6471,15.98
6483,29.42
6495,42.5
6507,53.91
6518,62.35
6529,66.66
6541,66.09
6553,60.44
6565,50.2
6577,36.51
6589,20.97
6601,5.4
6613,-8.51
6625,-19.35
6637,-26.09
6649,-28.01
6661,-24.66
6673,-15.75
6685,-1.28
6697,18.21
6708,41.52
6719,66.6
6731,90.86
6743,111.45
6755,125.95
6767,132.79
6779,131.73
6791,124.06
6803,112.27
6815,99.44
6827,88.34
6839,80.62
6851,76.48
6863,75.06
6875,75.21
6887,76.28
6898,78.48
6909,82.51
6921,88.78
6933,96.76
6945,104.86
6957,110.98
6969,113.53
6981,112.15
6993,108.0
7005,103.15
7017,99.49
7029,97.83
7041,97.48
7053,96.74
7065,93.69
7077,86.95
7088,76.04
7099,61.21
7111,43.1
7123,22.46
7135,0.17
7147,-22.67
7159,-44.6
7171,-63.9
7183,-78.82
7195,-87.91
7207,-90.56
7219,-87.19
7231,-79.46
7243,-69.97
7255,-61.78
7267,-57.48
7278,-58.26
7289,-63.2
7301,-69.4
7313,-72.96
7325,-70.28
7337,-59.42
7349,-40.66
7361,-16.2
7373,10.83
7385,37.32
7397,60.83
7409,79.7
7421,92.75
7433,99.08
7445,97.98
7457,89.27
7468,73.7
7479,53.2
7491,30.84
7503,10.11
7515,-5.92
7527,-15.53
7539,-18.87
7551,-17.77
7563,-14.95
7575,-12.8
7587,-12.45
7599,-13.44
7611,-14.4
7623,-14.16
7635,-12.72
7647,-11.55
7658,-12.9
7669,-18.65
7681,-29.25
7693,-43.52
7705,-59.24
7717,-74.23
7729,-87.11
7741,-97.63
7753,-106.33
7765,-113.96
7777,-121.02
7789,-127.67
7801,-133.94
7813,-139.75
7825,-145.05
7837,-149.54
7848,-152.61
7859,-153.42
7871,-151.3
7883,-146.12
7895,-138.66
7907,-130.48
7919,-123.5
7931,-119.35
7943,-118.6
7955,-120.36
7967,-122.38
7979,-121.51
7991,-114.73
8003,-100.04
8015,-77.11
8027,-47.29
8038,-13.17
8049,22.11
8061,55.48
8073,84.19
8085,106.0
8097,119.24
8109,123.15
8121,118.35
8133,106.99
8145,92.54
8157,78.81
8169,68.84
8181,63.89
8193,63.23
8205,64.68
8217,65.7
8228,64.5
8239,60.68
8251,55.25
8263,49.91
8275,46.23
8287,44.94
8299,45.64
8311,47.05
8323,47.53
8335,45.69
8347,40.72
8359,32.65
8371,22.23
8383,10.77
8395,-0.16
8407,-9.13
8418,-15.34
8429,-19.0
8441,-21.35
8453,-24.22
8465,-29.15
8477,-36.57
8489,-45.54
8501,-54.11
8513,-60.51
8525,-64.09
8537,-65.86
8549,-68.03
8561,-72.84
8573,-81.46
8585,-93.4
8597,-106.86
8608,-119.44
8619,-128.98
8631,-133.72
8643,-132.33
8655,-123.75
8667,-107.43
8679,-83.73
8691,-54.29
8703,-22.04
8715,9.44
8727,36.75
8739,57.55
8751,70.99
8763,77.58
8775,78.63
8787,75.65
8798,70.06
8809,62.94
8821,55.23
8833,47.68
8845,40.81
8857,34.8
8869,29.51
8881,24.76
8893,20.68
8905,18.15
8917,18.61
8929,23.46
8941,33.1
8953,46.22
8965,59.87
8977,70.45
8988,75.17
8999,73.24
9011,66.14
9023,56.85
9035,48.45
9047,42.75
9059,39.72
9071,38.01
9083,35.93
9095,32.43
9107,27.53
9119,21.88
9131,16.16
9143,10.59
9155,4.94
9167,-1.05
9178,-7.15
9189,-12.59
9201,-16.41
9213,-18.09
9225,-17.99
9237,-17.31
9249,-17.47
9261,-19.35
9273,-22.82
9285,-26.63
9297,-29.05
9309,-28.49
9321,-24.09
9333,-15.81
9345,-4.27
9357,9.72
9368,25.34
9379,41.84
9391,58.3
9403,73.39
9415,85.36
9427,92.38
9439,93.18
9451,87.74
9463,77.64
9475,65.76
9487,55.38
9499,48.9
9511,47.07
9523,48.79
9535,51.81
9547,53.73
9558,53.17
9569,50.23
9581,46.21
9593,42.81
9605,41.15
9617,41.09
9629,41.29
9641,39.76
9653,34.85
9665,26.11
9677,14.6
9689,2.52
9701,-7.7
9713,-14.45
9725,-17.7
9737,-18.99
9748,-20.63
9759,-24.71
9771,-32.18
9783,-42.62
9795,-54.52
9807,-66.02
9819,-75.65
9831,-82.89
9843,-88.3
9855,-93.34
9867,-99.83
9879,-109.41
9891,-122.86
9903,-139.77
9915,-158.27
9927,-175.4
9938,-187.78
9949,-192.41
9961,-187.5
9973,-172.95
9985,-150.34
9997,-122.3
10009,-91.92
10021,-61.92
10033,-34.32
10045,-10.29
10057,9.59
10069,25.02
10081,35.81
10093,41.83
10105,43.37
10117,41.34
10128,37.41
10139,33.69
10151,32.11
10163,33.81
10175,38.74
10187,45.72
10199,53.06
10211,59.35
10223,64.01
10235,67.37
10247,70.21
10259,72.95
10271,75.33
10283,76.32
10295,74.78
10307,70.09
10318,62.55
10329,53.24
10341,43.57
10353,34.77
10365,27.42
10377,21.5
10389,16.5
10401,11.78
10413,6.8
10425,1.3
10437,-4.56
10449,-10.26
10461,-15.03
10473,-18.3
10485,-20.04
10497,-21.18
10508,-23.39
10519,-28.47
10531,-37.47
10543,-50.04
10555,-64.44
10567,-78.13
10579,-88.67
10591,-94.38
10603,-94.54
10615,-89.18
10627,-78.63
10639,-63.29
10651,-43.66
10663,-20.64
10675,4.29
10687,29.08
10698,51.45
10709,69.4
10721,81.53
10733,87.3
10745,86.89
10757,81.11
10769,71.34
10781,59.37
10793,47.23
10805,36.72
10817,28.93
10829,23.87
10841,20.61
10853,17.87
10865,14.81
10877,11.47
10888,8.7
10899,7.44
10911,7.98
10923,9.6
10935,10.87
10947,10.32
10959,7.18
10971,1.64
10983,-5.37
10995,-12.69
11007,-19.32
11019,-24.73
11031,-28.87
11043,-32.07
11055,-34.9
11067,-37.98
11078,-41.71
11089,-46.01
11101,-50.44
11113,-54.27
11125,-56.88
11137,-58.06
11149,-58.02
11161,-57.23
11173,-56.21
11185,-55.36
11197,-55.06
11209,-55.87
11221,-58.42
11233,-63.16
11245,-69.77
11257,-76.73
11268,-81.37
11279,-80.56
11291,-71.73
11303,-54.03
11315,-28.75
11327,0.97
11339,31.25
11351,58.62
11363,80.89
11375,97.22
11387,107.76
11399,113.02
11411,113.52
11423,109.75
11435,102.55
11447,93.3
11458,83.78
11469,75.92
11481,70.98
11493,69.23
11505,69.79
11517,71.12
11529,71.67
11541,70.71
11553,68.57
11565,66.36
11577,65.27
11589,65.74
11601,67.13
11613,68.02
11625,66.97
11637,63.33
11648,57.49
11659,50.63
11671,44.06
11683,38.56
11695,34.23
11707,30.61
11719,27.05
11731,23.06
11743,18.5
11755,13.65
11767,9.04
11779,5.25
11791,2.49
11803,0.37
11815,-1.94
11827,-5.38
11838,-10.45
11849,-16.88
11861,-23.74
11873,-30.08
11885,-35.54
11897,-40.48
11909,-45.7
11921,-51.51
11933,-57.23
11945,-61.18
11957,-61.43
11969,-56.7
11981,-46.93
11993,-33.12
12005,-16.63
12017,1.31
12028,19.84
12039,38.03
12051,54.32
12063,66.41
12075,71.95
12087,69.55
12099,59.87
12111,45.71
12123,31.05
12135,19.63
12147,13.56
12159,12.86
12171,15.92
12183,20.49
12195,24.73
12207,27.79
12218,29.61
12229,30.55
12241,30.87
12253,30.49
12265,29.14
12277,26.5
12289,22.41
12301,17.05
12313,11.0
12325,5.14
12337,0.26
12349,-3.23
12361,-5.5
12373,-7.11
12385,-8.47
12397,-9.7
12408,-10.27
12419,-9.17
12431,-5.46
12443,0.92
12455,8.87
12467,16.39
12479,21.51
12491,23.29
12503,21.62
12515,17.38
12527,12.02
12539,6.97
12551,3.04
12563,0.32
12575,-1.14
12587,-0.69
12598,3.32
12609,12.11
12621,26.4
12633,46.32
12645,71.47
12657,100.84
12669,132.83
12681,165.55
12693,196.69
12705,223.5
12717,241.33
12729,245.06
12741,231.17
12753,199.27
12765,152.41
12777,96.1
12788,37.04
12799,-18.72
12811,-61.06
12823,-81.3
12835,-76.77
12847,-51.47
12859,-12.61
12871,33.29
12883,81.62
12895,129.32
12907,173.03
12919,212.52
12931,246.38
12943,272.52
12955,289.72
12967,298.17
12978,298.86
12989,292.49
13001,278.77
13013,257.73
13025,229.81
13037,194.89
13049,152.88
13061,104.95
13073,53.53
13085,1.79
13097,-47.24
13109,-91.33
13121,-128.93
13133,-159.03
13145,-181.69
13157,-198.27
13168,-209.68
13179,-216.08
13191,-217.07
13203,-212.3
13215,-202.02
13227,-186.91
13239,-167.67
13251,-145.15
13263,-122.41
13275,-101.44
13287,-82.55
13299,-64.55
13311,-46.06
13323,-26.65
13335,-6.95
13347,12.01
13358,29.17
13369,38.81
13381,36.98
13393,22.89
13405,-0.75
13417,-30.13
13429,-62.57
13441,-96.94
13453,-132.71
13465,-169.05
13477,-212.74
13489,-268.32
13501,-335.99
13513,-410.87
13525,-486.58
13537,-558.91
13548,-626.64
13559,-690.45
13571,-751.56
13583,-821.28
13595,-906.56
13607,-1005.85
13619,-1107.87
13631,-1197.5
13643,-1263.64
13655,-1303.09
13667,-1319.66
13679,-1255.03
13691,-1080.67
13703,-805.99
13715,-478.34
13727,-153.74
13738,130.03
13749,357.9
13761,529.14
13773,650.07
13785,730.58
13797,770.08
13809,774.75
13821,751.84
13833,711.13
13845,661.81
13857,609.34
13869,555.04
13881,498.15
13893,439.54
13905,374.12
13917,300.54
13928,223.01
13939,152.38
13951,101.2
13963,77.59
13975,81.63
13987,106.03
13999,139.54
14011,166.03
14023,174.8
14035,163.56
14047,138.41
14059,108.0
14071,80.12
14083,58.63
14095,45.03
14107,40.08
14118,42.39
14129,51.32
14141,66.65
14153,88.52
14165,114.72
14177,141.45
14189,164.59
14201,181.54
14213,191.71
14225,195.28
14237,193.44
14249,187.58
14261,179.01
14273,168.51
14285,156.52
14297,143.21
14308,129.04
14319,114.84
14331,101.7
14343,90.56
14355,81.79
14367,75.01
14379,69.37
14391,64.06
14403,58.48
14415,52.51
14427,46.35
14439,40.55
14451,35.59
14463,31.69
14475,28.74
14487,26.29
14498,24.0
14509,21.61
14521,19.12
14533,16.69
14545,14.67
14557,13.42
14569,13.27
14581,14.39
14593,16.71
14605,20.15
14617,24.52
14629,30.55
14641,37.16
14653,43.44
14665,48.64
14677,51.95
14688,52.66
14699,50.19
14711,44.3
14723,35.05
14735,21.6
14747,5.8
14759,-11.03
14771,-27.65
14783,-43.08
14795,-56.62
14807,-67.92
14819,-76.8
14831,-83.25
14843,-87.25
14855,-88.56
14867,-87.03
14878,-82.66
14889,-75.56
14901,-66.12
14913,-55.12
14925,-43.36
14937,-31.77
14949,-20.9
14961,-10.82
14973,-1.52
14985,7.19
14997,15.37
15009,22.77
15021,28.85
15033,33.18
15045,35.5
15057,35.92
15068,34.94
15079,33.12
15091,30.96
15103,29.26
15115,28.81
15127,30.31
15139,34.02
15151,39.08
15163,43.16
15175,42.95
15187,35.33
15199,18.94
15211,-4.59
15223,-31.25
15235,-55.98
15247,-74.49
15258,-84.9
15269,-88.13
15281,-86.81
15293,-83.98
15305,-81.68
15317,-80.5
15329,-80.14
15341,-80.19
15353,-80.5
15365,-81.09
15377,-81.63
15389,-81.24
15401,-79.03
15413,-74.72
15425,-69.07
15437,-63.73
15448,-61.0
15459,-62.1
15471,-66.25
15483,-70.27
15495,-69.97
15507,-62.49
15519,-48.27
15531,-31.73
15543,-20.09
15555,-20.85
15567,-38.47
15579,-72.54
15591,-117.46
15603,-164.35
15615,-203.95
15627,-229.02
15638,-235.98
15649,-225.06
15661,-199.57
15673,-164.48
15685,-125.6
15697,-88.87
15709,-59.51
15721,-40.95
15733,-33.53
15745,-34.11
15757,-36.76
15769,-34.8
15781,-23.01
15793,0.34
15805,33.13
15817,70.55
15828,107.24
15839,139.44
15851,166.3
15863,189.78
15875,213.37
15887,239.85
15899,269.4
15911,298.76
15923,321.9
15935,331.6
15947,321.67
15959,288.84
15971,234.06
15983,162.93
15995,84.76
16007,10.76
16018,-48.64
16029,-86.39
16041,-100.84
16053,-95.89
16065,-79.49
16077,-60.88
16089,-47.6
16101,-43.78
16113,-49.75
16125,-63.03
16137,-79.84
16149,-96.18
16161,-108.58
16173,-114.38
16185,-112.16
16197,-102.16
16208,-86.2
16219,-67.29
16231,-48.54
16243,-32.53
16255,-20.52
16267,-12.91
16279,-9.7
16291,-11.17
16303,-18.07
16315,-30.9
16327,-48.86
16339,-69.12
16351,-86.98
16363,-97.03
16375,-95.11
16387,-79.78
16398,-52.9
16409,-18.92
16421,16.69
16433,49.25
16445,75.92
16457,95.86
16469,109.81
16481,119.19
16493,125.6
16505,130.64
16517,135.69
16529,141.97
16541,150.18
16553,160.37
16565,171.74
16577,182.98
16588,192.69
16599,199.84
16611,204.09
16623,205.33
16635,203.3
16647,196.65
16659,182.91
16671,159.46
16683,125.0
16695,81.35
16707,33.7
16719,-10.68
16731,-44.97
16743,-65.18
16755,-71.38
16767,-66.71
16778,-55.42
16789,-41.11
16801,-26.02
16813,-11.62
16825,0.42
16837,8.21
16849,10.49
16861,7.51
16873,1.28
16885,-5.46
16897,-10.81
16909,-14.56
16921,-17.7
16933,-21.05
16945,-24.09
16957,-25.16
16968,-22.67
16979,-16.63
16991,-9.24
17003,-4.16
17015,-4.66
17027,-12.21
17039,-25.9
17051,-42.96
17063,-60.02
17075,-73.94
17087,-82.18
17099,-83.19
17111,-76.44
17123,-62.61
17135,-43.67
17147,-22.45
17158,-1.77
17169,16.14
17181,30.01
17193,39.38
17205,43.89
17217,42.96
17229,35.8
17241,21.88
17253,1.52
17265,-23.8
17277,-51.84
17289,-80.0
17301,-106.03
17313,-128.44
17325,-146.57
17337,-160.4
17348,-170.47
17359,-177.4
17371,-181.54
17383,-182.58
17395,-179.15
17407,-168.92
17419,-149.32
17431,-118.42
17443,-76.29
17455,-25.7
17467,28.12
17479,78.54
17491,119.5
17503,147.14
17515,160.77
17527,162.46
17538,156.05
17549,145.49
17561,133.83
17573,122.78
17585,113.01
17597,104.58
17609,97.4
17621,91.35
17633,86.22
17645,81.98
17657,78.7
17669,76.67
17681,76.33
17693,77.87
17705,80.92
17717,84.49
17728,87.05
17739,87.23
17751,84.2
17763,77.93
17775,68.98
17787,58.34
17799,46.98
17811,35.76
17823,25.31
17835,15.99
17847,8.06
17859,1.61
17871,-3.46
17883,-7.35
17895,-10.27
17907,-12.33
17918,-13.51
17929,-13.6
17941,-12.41
17953,-9.93
17965,-6.49
17977,-2.82
17989,0.1
18001,1.45
18013,0.84
18025,-1.46
18037,-4.49
18049,-6.94
18061,-7.65
18073,-5.93
18085,-1.7
18097,4.6
18108,12.17
18119,20.24
18131,28.09
18143,35.09
18155,40.59
18167,43.91
18179,44.35
18191,41.5
18203,35.29
18215,26.2
18227,15.39
18239,4.5
18251,-4.67
18263,-10.65
18275,-12.81
18287,-11.62
18298,-8.38
18309,-4.85
18321,-2.48
18333,-2.09
18345,-3.67
18357,-6.61
18369,-9.97
18381,-12.87
18393,-14.62
18405,-14.79
18417,-13.23
18429,-10.2
18441,-6.26
18453,-2.41
18465,0.28
18477,0.96
18488,-0.87
18499,-5.1
18511,-11.11
18523,-17.71
18535,-23.61
18547,-27.66
18559,-29.39
18571,-29.17
18583,-28.16
18595,-27.91
18607,-29.63
18619,-33.58
18631,-38.72
18643,-43.09
18655,-44.43
18667,-41.18
18678,-32.97
18689,-20.7
18701,-6.17
18713,8.66
18725,22.16
18737,33.24
18749,41.37
18761,46.44
18773,48.49
18785,47.72
18797,44.52
18809,39.39
18821,33.13
18833,26.63
18845,20.71
18857,16.04
18868,12.96
18879,11.59
18891,11.68
18903,12.89
18915,14.86
18927,17.2
18939,19.66
18951,21.9
18963,23.51
18975,24.05
18987,23.15
18999,20.53
19011,16.21
19023,10.5
19035,3.91
19047,-2.98
19058,-9.78
19069,-16.45
19081,-23.11
19093,-30.01
19105,-37.3
19117,-44.7
19129,-51.62
19141,-57.2
19153,-60.67
19165,-61.66
19177,-60.38
19189,-57.65
19201,-54.67
19213,-52.71
19225,-52.42
19237,-53.56
19248,-54.87
19259,-54.46
19271,-50.47
19283,-41.92
19295,-29.03
19307,-13.28
19319,3.09
19331,17.91
19343,29.46
19355,36.88
19367,40.08
19379,39.43
19391,35.77
19403,30.15
19415,23.77
19427,17.79
19438,13.29
19449,10.81
19461,10.42
19473,11.69
19485,13.76
19497,15.68
19509,16.69
19521,16.64
19533,15.97
19545,15.65
19557,16.58
19569,19.19
19581,23.09
19593,27.07
19605,29.59
19617,29.43
19628,26.32
19639,21.01
19651,15.01
19663,9.86
19675,6.55
19687,4.97
19699,3.97
19711,1.9
19723,-2.73
19735,-10.45
19747,-20.51
19759,-31.13
19771,-40.14
19783,-45.79
19795,-47.53
19807,-46.09
19818,-43.12
19829,-40.57
19841,-39.97
19853,-42.11
19865,-46.73
19877,-52.75
19889,-58.34
19901,-61.4
19913,-59.9
19925,-52.56
19937,-39.29
19949,-21.25
19961,-0.65
19973,19.95
19985,38.2
19997,52.55
20008,62.23
20019,67.29
20031,68.24
20043,66.0
20055,61.7
20067,56.61
20079,51.91
20091,48.37
20103,46.31
20115,45.46
20127,45.16
20139,44.67
20151,43.38
20163,41.24
20175,38.69
20187,36.57
20198,35.78
20209,36.89
20221,39.79
20233,43.55
20245,46.59
20257,46.88
20269,42.54
20281,32.4
20293,16.47
20305,-3.69
20317,-25.37
20329,-45.29
20341,-60.76
20353,-70.44
20365,-74.67
20377,-75.02
20388,-73.44
20399,-71.19
20411,-68.61
20423,-65.21
20435,-60.44
20447,-54.41
20459,-47.97
20471,-42.47
20483,-39.08
20495,-38.43
20507,-40.42
20519,-44.7
20531,-50.8
20543,-58.14
20555,-65.83
20567,-72.41
20578,-75.99
20589,-74.83
20601,-68.03
20613,-55.8
20625,-39.56
20637,-21.21
20649,-2.61
20661,14.76
20673,29.74
20685,41.3
20697,48.53
20709,50.82
20721,48.45
20733,42.67
20745,35.68
20757,30.0
20768,27.53
20779,28.89
20791,33.24
20803,38.58
20815,42.7
20827,44.07
20839,42.28
20851,38.08
20863,32.79
20875,27.54
20887,22.79
20899,18.16
20911,12.81
20923,6.09
20935,-2.17
20947,-11.44
20958,-20.6
20969,-28.41
20981,-33.95
20993,-36.7
