seconds,BVP
1,-26.76
13,-23.58
25,-19.29
37,-14.21
49,-8.58
61,-2.55
73,3.74
85,10.01
97,15.92
109,21.07
120,25.19
131,28.21
143,30.3
155,31.74
167,32.72
179,33.28
191,33.33
203,32.72
215,31.41
227,29.47
239,26.99
251,24.04
263,20.57
275,16.52
287,11.93
299,6.97
310,1.96
321,-2.82
333,-7.25
345,-11.4
357,-15.41
369,-19.31
381,-22.85
393,-25.51
405,-26.69
417,-25.93
429,-23.11
441,-18.48
453,-12.54
465,-5.84
477,1.09
489,7.84
500,14.04
511,19.34
523,23.43
535,26.09
547,27.3
559,27.25
571,26.34
583,25.1
595,24.01
607,23.45
619,23.56
631,24.26
643,25.29
655,26.35
667,27.21
679,27.83
690,28.31
701,28.76
713,29.26
725,29.71
737,29.86
749,29.44
761,28.22
773,26.14
785,23.3
797,19.97
809,16.5
821,13.28
833,10.75
845,9.33
857,9.37
869,11.02
880,14.1
891,18.14
903,22.33
915,25.84
927,27.93
939,28.26
951,26.89
963,24.21
975,20.77
987,17.05
999,13.33
1011,9.75
1023,6.36
1035,3.2
1047,0.27
1059,-2.48
1070,-5.18
1081,-8.01
1093,-10.99
1105,-13.99
1117,-16.64
1129,-18.59
1141,-19.57
1153,-19.65
1165,-19.17
1177,-18.64
1189,-18.59
1201,-19.42
1213,-21.27
1225,-24.0
1237,-27.19
1249,-30.15
1260,-32.1
1271,-32.36
1283,-30.53
1295,-26.65
1307,-21.22
1319,-14.97
1331,-8.7
1343,-2.98
1355,1.83
1367,5.57
1379,8.16
1391,9.49
1403,9.5
1415,8.24
1427,5.97
1439,3.14
1450,0.2
1461,-2.53
1473,-5.01
1485,-7.36
1497,-9.75
1509,-12.2
1521,-14.56
1533,-16.57
1545,-18.03
1557,-18.94
1569,-19.54
1581,-20.21
1593,-21.27
1605,-22.92
1617,-25.09
1629,-27.47
1640,-29.57
1651,-30.81
1663,-30.72
1675,-29.02
1687,-25.74
1699,-21.25
1711,-16.09
1723,-10.9
1735,-6.19
1747,-2.36
1759,0.4
1771,2.04
1783,2.58
1795,2.16
1807,0.98
1819,-0.7
1830,-2.62
1841,-4.58
1853,-6.45
1865,-8.18
1877,-9.74
1889,-11.13
1901,-12.31
1913,-13.27
1925,-14.06
1937,-14.78
1949,-15.6
1961,-16.75
1973,-18.41
1985,-20.67
1997,-23.43
2009,-26.33
2020,-28.8
2031,-30.21
2043,-30.04
2055,-28.07
2067,-24.44
2079,-19.64
2091,-14.28
2103,-8.98
2115,-4.21
2127,-0.26
2139,2.73
2151,4.74
2163,5.79
2175,5.99
2187,5.47
2199,4.4
2210,2.97
2221,1.35
2233,-0.32
2245,-1.94
2257,-3.47
2269,-4.89
2281,-6.24
2293,-7.55
2305,-8.86
2317,-10.2
2329,-11.6
2341,-13.15
2353,-14.93
2365,-17.05
2377,-19.5
2389,-22.08
2400,-24.36
2411,-25.76
2423,-25.73
2435,-23.87
2447,-20.17
2459,-15.02
2471,-9.11
2483,-3.19
2495,2.15
2507,6.54
2519,9.91
2531,12.29
2543,13.76
2555,14.38
2567,14.16
2579,13.2
2590,11.65
2601,9.73
2613,7.7
2625,5.71
2637,3.81
2649,1.98
2661,0.2
2673,-1.51
2685,-3.15
2697,-4.76
2709,-6.48
2721,-8.56
2733,-11.24
2745,-14.68
2757,-18.73
2769,-23.0
2780,-26.79
2791,-29.32
2803,-29.91
2815,-28.17
2827,-24.15
2839,-18.35
2851,-11.54
2863,-4.57
2875,1.9
2887,7.47
2899,12.04
2911,15.63
2923,18.28
2935,19.96
2947,20.62
2959,20.31
2970,19.21
2981,17.63
2993,15.94
3005,14.33
3017,12.82
3029,11.28
3041,9.52
3053,7.49
3065,5.27
3077,3.0
3089,0.79
3101,-1.41
3113,-3.77
3125,-6.49
3137,-9.73
3149,-13.49
3160,-17.61
3171,-21.75
3183,-25.44
3195,-28.13
3207,-29.23
3219,-28.29
3231,-25.1
3243,-19.84
3255,-13.05
3267,-5.51
3279,1.96
3291,8.74
3303,14.46
3315,18.96
3327,22.24
3339,24.29
3350,25.11
3361,24.73
3373,23.31
3385,21.17
3397,18.72
3409,16.37
3421,14.37
3433,12.78
3445,11.42
3457,10.02
3469,8.35
3481,6.31
3493,4.03
3505,1.73
3517,-0.29
3529,-1.93
3540,-3.3
3551,-4.71
3563,-6.59
3575,-9.3
3587,-12.98
3599,-17.46
3611,-22.24
3623,-26.62
3635,-29.8
3647,-31.1
3659,-30.1
3671,-26.75
3683,-21.38
3695,-14.63
3707,-7.29
3719,-0.09
3730,6.42
3741,11.97
3753,16.43
3765,19.83
3777,22.2
3789,23.6
3801,24.1
3813,23.84
3825,23.05
3837,21.95
3849,20.77
3861,19.65
3873,18.6
3885,17.57
3897,16.42
3909,15.07
3920,13.47
3931,11.65
3943,9.68
3955,7.65
3967,5.58
3979,3.47
3991,1.27
4003,-1.11
4015,-3.7
4027,-6.53
4039,-9.62
4051,-12.98
4063,-16.64
4075,-20.6
4087,-24.74
4099,-28.74
4110,-32.0
4121,-33.83
4133,-33.55
4145,-30.78
4157,-25.58
4169,-18.44
4181,-10.14
4193,-1.48
4205,6.89
4217,14.54
4229,21.21
4241,26.7
4253,30.85
4265,33.57
4277,34.89
4289,35.02
4300,34.33
4311,33.24
4323,32.09
4335,31.13
4347,30.4
4359,29.84
4371,29.31
4383,28.66
4395,27.76
4407,26.46
4419,24.65
4431,22.22
4443,19.03
4455,14.99
4467,10.0
4479,4.14
4490,-2.44
4501,-9.43
4513,-16.49
4525,-23.37
4537,-29.96
4549,-36.34
4561,-42.63
4573,-48.81
4585,-54.49
4597,-58.98
4609,-61.4
4621,-61.0
4633,-57.47
4645,-51.06
4657,-42.52
4669,-32.81
4680,-22.89
4691,-13.5
4703,-5.1
4715,2.12
4727,8.18
4739,13.28
4751,17.7
4763,21.76
4775,25.71
4787,29.63
4799,33.44
4811,36.98
4823,40.1
4835,42.73
4847,44.9
4859,46.67
4870,47.98
4881,48.59
4893,48.01
4905,45.59
4917,40.65
4929,32.83
4941,22.19
4953,9.38
4965,-4.51
4977,-18.26
4989,-30.76
5001,-41.35
5013,-49.85
5025,-56.41
5037,-61.41
5049,-65.12
5060,-67.65
5071,-68.85
5083,-68.43
5095,-66.04
5107,-61.39
5119,-54.41
5131,-45.33
5143,-34.63
5155,-23.0
5167,-11.2
5179,0.07
5191,10.27
5203,19.01
5215,26.08
5227,31.38
5239,34.97
5250,37.02
5261,37.81
5273,37.7
5285,37.12
5297,36.43
5309,35.92
5321,35.67
5333,35.55
5345,35.26
5357,34.37
5369,32.55
5381,29.63
5393,25.72
5405,21.19
5417,16.52
5429,12.19
5440,8.49
5451,5.57
5463,3.33
5475,1.56
5487,-0.09
5499,-1.97
5511,-4.38
5523,-7.45
5535,-11.1
5547,-14.98
5559,-18.54
5571,-21.13
5583,-22.14
5595,-21.13
5607,-18.0
5619,-12.96
5630,-6.54
5641,0.55
5653,7.56
5665,13.85
5677,18.99
5689,22.78
5701,25.16
5713,26.25
5725,26.22
5737,25.28
5749,23.72
5761,21.9
5773,20.19
5785,18.84
5797,17.96
5809,17.48
5820,17.17
5831,16.79
5843,16.18
5855,15.28
5867,14.12
5879,12.73
5891,11.11
5903,9.24
5915,7.09
5927,4.71
5939,2.13
5951,-0.61
5963,-3.52
5975,-6.59
5987,-9.72
5999,-12.62
6010,-14.84
6021,-15.81
6033,-15.17
6045,-12.83
6057,-9.09
6069,-4.47
6081,0.36
6093,4.81
6105,8.43
6117,10.85
6129,11.82
6141,11.27
6153,9.3
6165,6.28
6177,2.75
6189,-0.69
6200,-3.56
6211,-5.65
6223,-6.98
6235,-7.74
6247,-8.13
6259,-8.26
6271,-8.13
6283,-7.67
6295,-6.85
6307,-5.78
6319,-4.7
6331,-3.91
6343,-3.7
6355,-4.25
6367,-5.58
6379,-7.59
6390,-10.1
6401,-12.85
6413,-15.48
6425,-17.56
6437,-18.59
6449,-18.18
6461,-16.15
6473,-12.71
6485,-8.35
6497,-3.78
6509,0.32
6521,3.47
6533,5.44
6545,6.28
6557,6.22
6569,5.56
6580,4.64
6591,3.74
6603,3.06
6615,2.7
6627,2.62
6639,2.77
6651,3.03
6663,3.3
6675,3.47
6687,3.45
6699,3.12
6711,2.38
6723,1.15
6735,-0.57
6747,-2.76
6759,-5.35
6770,-8.35
6781,-11.77
6793,-15.56
6805,-19.54
6817,-23.31
6829,-26.28
6841,-27.78
6853,-27.29
6865,-24.57
6877,-19.76
6889,-13.38
6901,-6.22
6913,0.91
6925,7.26
6937,12.33
6949,15.87
6960,17.87
6971,18.52
6983,18.09
6995,16.92
7007,15.36
7019,13.77
7031,12.46
7043,11.64
7055,11.37
7067,11.56
7079,11.99
7091,12.47
7103,12.86
7115,13.1
7127,13.21
7139,13.14
7150,12.8
7161,11.98
7173,10.53
7185,8.34
7197,5.48
7209,2.21
7221,-1.07
7233,-3.83
7245,-5.61
7257,-6.09
7269,-5.29
7281,-3.56
7293,-1.51
7305,0.15
7317,0.82
7329,0.19
7340,-1.79
7351,-4.92
7363,-8.9
7375,-13.36
7387,-17.82
7399,-21.76
7411,-24.65
7423,-26.14
7435,-26.12
7447,-24.82
7459,-22.7
7471,-20.23
7483,-17.81
7495,-15.62
7507,-13.73
7519,-12.14
7530,-10.84
7541,-9.87
7553,-9.3
7565,-9.21
7577,-9.65
7589,-10.6
7601,-11.95
7613,-13.39
7625,-14.41
7637,-14.42
7649,-12.83
7661,-9.34
7673,-3.96
7685,2.87
7697,10.48
7709,18.16
7720,25.31
7731,31.53
7743,36.55
7755,40.16
7767,42.05
7779,41.92
7791,39.51
7803,34.85
7815,28.27
7827,20.39
7839,11.97
7851,3.7
7863,-3.96
7875,-10.8
7887,-16.78
7899,-21.92
7910,-26.22
7921,-29.68
7933,-32.3
7945,-34.13
7957,-35.32
7969,-36.04
7981,-36.52
7993,-36.92
8005,-37.33
8017,-37.62
8029,-37.48
8041,-36.44
8053,-33.99
8065,-29.8
8077,-23.88
8089,-16.63
8100,-8.74
8111,-0.96
8123,6.06
8135,11.88
8147,16.33
8159,19.38
8171,21.07
8183,21.56
8195,21.07
8207,19.91
8219,18.4
8231,16.84
8243,15.45
8255,14.3
8267,13.41
8279,12.69
8290,12.07
8301,11.42
8313,10.66
8325,9.73
8337,8.59
8349,7.26
8361,5.77
8373,4.13
8385,2.33
8397,0.33
8409,-1.78
8421,-3.76
8433,-5.14
8445,-5.4
8457,-4.1
8469,-1.08
8480,3.48
8491,9.07
8503,15.04
8515,20.74
8527,25.67
8539,29.5
8551,32.09
8563,33.4
8575,33.54
8587,32.68
8599,31.1
8611,29.19
8623,27.39
8635,26.03
8647,25.32
8659,25.2
8670,25.41
8681,25.51
8693,25.14
8705,24.1
8717,22.43
8729,20.34
8741,18.09
8753,15.84
8765,13.57
8777,11.19
8789,8.64
8801,5.97
8813,3.42
8825,1.31
8837,0.03
8849,-0.2
8860,0.72
8871,2.66
8883,5.31
8895,8.25
8907,11.03
8919,13.27
8931,14.71
8943,15.24
8955,14.88
8967,13.73
8979,11.94
8991,9.7
9003,7.26
9015,4.86
9027,2.77
9039,1.14
9050,0.03
9061,-0.67
9073,-1.16
9085,-1.65
9097,-2.28
9109,-3.08
9121,-3.98
9133,-4.89
9145,-5.8
9157,-6.75
9169,-7.87
9181,-9.26
9193,-10.92
9205,-12.71
9217,-14.31
9229,-15.31
9240,-15.3
9251,-14.03
9263,-11.49
9275,-7.98
9287,-4.02
9299,-0.25
9311,2.85
9323,4.99
9335,6.15
9347,6.48
9359,6.13
9371,5.28
9383,4.0
9395,2.41
9407,0.7
9419,-0.89
9430,-2.13
9441,-2.92
9453,-3.29
9465,-3.39
9477,-3.44
9489,-3.59
9501,-3.9
9513,-4.41
9525,-5.15
9537,-6.24
9549,-7.87
9561,-10.19
9573,-13.13
9585,-16.32
9597,-19.12
9609,-20.75
9620,-20.63
9631,-18.55
9643,-14.8
9655,-10.08
9667,-5.2
9679,-0.89
9691,2.41
9703,4.52
9715,5.51
9727,5.55
9739,4.81
9751,3.52
9763,1.9
9775,0.15
9787,-1.6
9799,-3.27
9810,-4.84
9821,-6.28
9833,-7.52
9845,-8.52
9857,-9.25
9869,-9.8
9881,-10.36
9893,-11.19
9905,-12.5
9917,-14.38
9929,-16.76
9941,-19.38
9953,-21.89
9965,-23.85
9977,-24.83
9989,-24.52
10000,-22.8
10011,-19.82
10023,-16.0
10035,-11.9
10047,-8.1
10059,-5.03
10071,-2.87
10083,-1.6
10095,-1.02
10107,-0.93
10119,-1.19
10131,-1.73
10143,-2.5
10155,-3.46
10167,-4.53
10179,-5.61
10190,-6.63
10201,-7.56
10213,-8.44
10225,-9.31
10237,-10.2
10249,-11.15
10261,-12.16
10273,-13.27
10285,-14.54
10297,-15.98
10309,-17.55
10321,-19.03
10333,-20.08
10345,-20.26
10357,-19.18
10369,-16.65
10380,-12.78
10391,-7.94
10403,-2.7
10415,2.32
10427,6.63
10439,9.93
10451,12.14
10463,13.32
10475,13.65
10487,13.33
10499,12.53
10511,11.36
10523,9.93
10535,8.31
10547,6.58
10559,4.83
10570,3.14
10581,1.57
10593,0.11
10605,-1.3
10617,-2.76
10629,-4.42
10641,-6.39
10653,-8.8
10665,-11.69
10677,-15.04
10689,-18.68
10701,-22.25
10713,-25.25
10725,-27.09
10737,-27.27
10749,-25.52
10760,-21.93
10771,-17.0
10783,-11.45
10795,-6.13
10807,-1.67
10819,1.59
10831,3.65
10843,4.75
10855,5.2
10867,5.25
10879,5.01
10891,4.54
10903,3.85
10915,3.05
10927,2.31
10939,1.78
10950,1.55
10961,1.62
10973,1.85
10985,2.06
10997,2.04
11009,1.64
11021,0.73
11033,-0.79
11045,-2.99
11057,-5.92
11069,-9.52
11081,-13.57
11093,-17.71
11105,-21.39
11117,-24.03
11129,-25.12
11140,-24.37
11151,-21.82
11163,-17.79
11175,-12.84
11187,-7.63
11199,-2.77
11211,1.3
11223,4.29
11235,6.17
11247,7.0
11259,6.96
11271,6.31
11283,5.37
11295,4.45
11307,3.79
11319,3.55
11330,3.68
11341,4.04
11353,4.35
11365,4.37
11377,3.93
11389,3.03
11401,1.8
11413,0.4
11425,-1.02
11437,-2.48
11449,-4.11
11461,-6.12
11473,-8.64
11485,-11.58
11497,-14.62
11509,-17.27
11520,-18.96
11531,-19.25
11543,-17.97
11555,-15.21
11567,-11.26
11579,-6.56
11591,-1.53
11603,3.41
11615,7.91
11627,11.65
11639,14.4
11651,16.0
11663,16.49
11675,16.08
11687,15.19
11699,14.26
11710,13.69
11721,13.7
11733,14.25
11745,15.08
11757,15.79
11769,16.02
11781,15.51
11793,14.25
11805,12.42
11817,10.37
11829,8.47
11841,6.93
11853,5.76
11865,4.76
11877,3.58
11889,1.92
11900,-0.34
11911,-3.07
11923,-5.91
11935,-8.42
11947,-10.15
11959,-10.76
11971,-10.08
11983,-8.1
11995,-4.99
12007,-1.09
12019,3.12
12031,7.15
12043,10.58
12055,13.23
12067,15.09
12079,16.25
12090,16.84
12101,16.91
12113,16.48
12125,15.6
12137,14.39
12149,13.07
12161,11.85
12173,10.88
12185,10.16
12197,9.57
12209,8.98
12221,8.32
12233,7.59
12245,6.9
12257,6.34
12269,6.01
12280,5.89
12291,5.93
12303,6.01
12315,5.93
12327,5.54
12339,4.65
12351,3.11
12363,0.84
12375,-2.17
12387,-5.75
12399,-9.51
12411,-12.89
12423,-15.21
12435,-15.91
12447,-14.66
12459,-11.55
12470,-7.02
12481,-1.8
12493,3.37
12505,7.92
12517,11.55
12529,14.23
12541,16.08
12553,17.23
12565,17.77
12577,17.71
12589,17.04
12601,15.86
12613,14.36
12625,12.81
12637,11.47
12649,10.47
12660,9.77
12671,9.22
12683,8.61
12695,7.82
12707,6.84
12719,5.78
12731,4.78
12743,3.93
12755,3.21
12767,2.51
12779,1.69
12791,0.65
12803,-0.65
12815,-2.21
12827,-4.05
12839,-6.16
12850,-8.51
12861,-10.89
12873,-12.9
12885,-14.02
12897,-13.79
12909,-11.94
12921,-8.6
12933,-4.18
12945,0.71
12957,5.46
12969,9.65
12981,13.03
12993,15.5
13005,16.99
13017,17.49
13029,17.0
13040,15.67
13051,13.76
13063,11.67
13075,9.82
13087,8.54
13099,7.96
13111,8.0
13123,8.38
13135,8.77
13147,8.84
13159,8.42
13171,7.5
13183,6.27
13195,4.99
13207,3.86
13219,2.91
13230,2.01
13241,0.87
13253,-0.74
13265,-2.96
13277,-5.68
13289,-8.61
13301,-11.4
13313,-13.66
13325,-15.08
13337,-15.42
13349,-14.56
13361,-12.51
13373,-9.44
13385,-5.73
13397,-1.82
13409,1.83
13420,4.92
13431,7.31
13443,9.03
13455,10.17
13467,10.8
13479,10.93
13491,10.56
13503,9.82
13515,8.94
13527,8.3
13539,8.2
13551,8.84
13563,10.13
13575,11.8
13587,13.42
13599,14.65
13610,15.28
13621,15.31
13633,14.93
13645,14.43
13657,14.06
13669,13.92
13681,14.0
13693,14.12
13705,14.06
13717,13.64
13729,12.73
13741,11.34
13753,9.56
13765,7.58
13777,5.69
13789,4.27
13800,3.78
13811,4.57
13823,6.83
13835,10.44
13847,15.0
13859,19.93
13871,24.65
13883,28.71
13895,31.86
13907,33.99
13919,35.12
13931,35.24
13943,34.37
13955,32.55
13967,29.91
13979,26.67
13990,23.09
14001,19.41
14013,15.69
14025,11.87
14037,7.72
14049,3.06
14061,-2.19
14073,-7.95
14085,-13.93
14097,-19.81
14109,-25.25
14121,-30.09
14133,-34.32
14145,-38.11
14157,-41.68
14169,-45.22
14180,-48.76
14191,-52.11
14203,-54.83
14215,-56.38
14227,-56.25
14239,-54.13
14251,-50.01
14263,-44.14
14275,-36.98
14287,-29.08
14299,-20.93
14311,-12.92
14323,-5.39
14335,1.39
14347,7.14
14359,11.6
14370,14.57
14381,16.01
14393,16.02
14405,14.85
14417,12.86
14429,10.39
14441,7.66
14453,4.79
14465,1.77
14477,-1.46
14489,-4.92
14501,-8.52
14513,-12.09
14525,-15.38
14537,-18.23
14549,-20.53
14560,-22.33
14571,-23.76
14583,-25.06
14595,-26.46
14607,-28.13
14619,-30.06
14631,-32.01
14643,-33.54
14655,-34.0
14667,-32.8
14679,-29.6
14691,-24.47
14703,-17.89
14715,-10.6
14727,-3.44
14739,2.91
14750,7.98
14761,11.55
14773,13.49
14785,13.85
14797,12.77
14809,10.5
14821,7.43
14833,4.01
14845,0.64
14857,-2.36
14869,-4.87
14881,-6.89
14893,-8.58
14905,-10.08
14917,-11.47
14929,-12.75
14940,-13.8
14951,-14.52
14963,-14.89
14975,-15.03
14987,-15.21
14999,-15.73
15011,-16.83
15023,-18.54
15035,-20.65
15047,-22.72
15059,-24.13
15071,-24.31
15083,-22.85
15095,-19.65
15107,-14.95
15119,-9.26
15130,-3.24
15141,2.51
15153,7.51
15165,11.53
15177,14.47
15189,16.35
15201,17.23
15213,17.22
15225,16.43
15237,15.02
15249,13.19
15261,11.11
15273,8.93
15285,6.69
15297,4.42
15309,2.11
15320,-0.2
15331,-2.47
15343,-4.62
15355,-6.62
15367,-8.57
15379,-10.66
15391,-13.17
15403,-16.29
15415,-20.07
15427,-24.34
15439,-28.68
15451,-32.49
15463,-35.13
15475,-36.02
15487,-34.87
15499,-31.75
15510,-27.1
15521,-21.63
15533,-16.05
15545,-10.86
15557,-6.23
15569,-2.12
15581,1.59
15593,4.94
15605,7.83
15617,10.1
15629,11.68
15641,12.63
15653,13.12
15665,13.38
15677,13.53
15689,13.62
15700,13.64
15711,13.59
15723,13.51
15735,13.43
15747,13.38
15759,13.32
15771,13.13
15783,12.56
15795,11.31
15807,9.12
15819,5.89
15831,1.86
15843,-2.41
15855,-6.07
15867,-8.26
15879,-8.39
15890,-6.46
15901,-3.05
15913,0.8
15925,3.98
15937,5.67
15949,5.57
15961,3.84
15973,0.95
15985,-2.66
15997,-6.72
16009,-11.13
16021,-15.8
16033,-20.5
16045,-24.82
16057,-28.23
16069,-30.38
16080,-31.2
16091,-30.95
16103,-30.08
16115,-29.0
16127,-27.91
16139,-26.77
16151,-25.47
16163,-23.97
16175,-22.43
16187,-21.24
16199,-20.83
16211,-21.53
16223,-23.35
16235,-26.06
16247,-29.12
16259,-31.84
16270,-33.51
16281,-33.48
16293,-31.34
16305,-26.95
16317,-20.58
16329,-12.73
16341,-4.08
16353,4.75
16365,13.28
16377,21.25
16389,28.49
16401,34.84
16413,40.01
16425,43.67
16437,45.6
16449,45.79
16460,44.56
16471,42.48
16483,40.18
16495,38.14
16507,36.51
16519,35.11
16531,33.62
16543,31.74
16555,29.38
16567,26.68
16579,23.88
16591,21.19
16603,18.62
16615,15.98
16627,12.95
16639,9.3
16650,4.9
16661,-0.16
16673,-5.68
16685,-11.34
16697,-16.74
16709,-21.4
16721,-24.76
16733,-26.26
16745,-25.52
16757,-22.44
16769,-17.33
16781,-10.77
16793,-3.5
16805,3.82
16817,10.72
16829,16.92
16840,22.24
16851,26.54
16863,29.6
16875,31.26
16887,31.49
16899,30.47
16911,28.62
16923,26.47
16935,24.54
16947,23.17
16959,22.47
16971,22.33
16983,22.49
16995,22.63
17007,22.44
17019,21.68
17030,20.26
17041,18.18
17053,15.62
17065,12.76
17077,9.79
17089,6.7
17101,3.41
17113,-0.33
17125,-4.71
17137,-9.82
17149,-15.53
17161,-21.5
17173,-27.15
17185,-31.76
17197,-34.55
17209,-34.82
17220,-32.2
17231,-26.72
17243,-18.87
17255,-9.5
17267,0.4
17279,9.94
17291,18.5
17303,25.75
17315,31.6
17327,36.02
17339,39.05
17351,40.78
17363,41.37
17375,41.07
17387,40.25
17399,39.29
17410,38.47
17421,37.9
17433,37.48
17445,36.95
17457,36.02
17469,34.49
17481,32.27
17493,29.44
17505,26.12
17517,22.44
17529,18.43
17541,14.09
17553,9.42
17565,4.51
17577,-0.52
17589,-5.53
17600,-10.47
17611,-15.42
17623,-20.52
17635,-25.75
17647,-30.81
17659,-35.06
17671,-37.66
17683,-37.85
17695,-35.19
17707,-29.84
17719,-22.47
17731,-14.08
17743,-5.71
17755,1.85
17767,8.17
17779,13.15
17790,16.88
17801,19.52
17813,21.17
17825,21.92
17837,21.9
17849,21.33
17861,20.51
17873,19.79
17885,19.45
17897,19.59
17909,20.11
17921,20.75
17933,21.22
17945,21.25
17957,20.71
17969,19.61
17980,18.1
17991,16.37
18003,14.59
18015,12.81
18027,10.96
18039,8.86
18051,6.31
18063,3.14
18075,-0.67
18087,-5.03
18099,-9.68
18111,-14.22
18123,-18.09
18135,-20.65
18147,-21.28
18159,-19.66
18170,-15.89
18181,-10.63
18193,-4.96
18205,-0.06
18217,3.09
18229,4.04
18241,2.85
18253,0.02
18265,-3.82
18277,-8.02
18289,-12.05
18301,-15.46
18313,-17.86
18325,-18.97
18337,-18.63
18349,-16.92
18360,-14.15
18371,-10.81
18383,-7.37
18395,-4.23
18407,-1.53
18419,0.71
18431,2.57
18443,4.11
18455,5.3
18467,6.04
18479,6.18
18491,5.57
18503,4.15
18515,2.01
18527,-0.58
18539,-3.14
18550,-5.02
18561,-5.53
18573,-4.08
18585,-0.3
18597,5.81
18609,13.92
18621,23.4
18633,33.47
18645,43.29
18657,52.12
18669,59.4
18681,64.81
18693,68.31
18705,70.04
18717,70.22
18729,69.05
18740,66.67
18751,63.2
18763,58.77
18775,53.49
18787,47.41
18799,40.39
18811,32.23
18823,22.76
18835,12.02
18847,0.36
18859,-11.65
18871,-23.46
18883,-34.75
18895,-45.52
18907,-55.96
18919,-66.18
18930,-75.96
18941,-84.68
18953,-91.46
18965,-95.4
18977,-95.81
18989,-92.39
19001,-85.25
19013,-74.92
19025,-62.19
19037,-48.11
19049,-33.79
19061,-20.3
19073,-8.49
19085,1.11
19097,8.38
19109,13.47
19120,16.75
19131,18.69
19143,19.76
19155,20.43
19167,21.1
19179,22.08
19191,23.48
19203,25.21
19215,27.07
19227,28.83
19239,30.34
19251,31.54
19263,32.42
19275,32.9
19287,32.78
19299,31.77
19310,29.61
19321,26.1
19333,21.22
19345,15.07
19357,7.9
19369,0.08
19381,-7.83
19393,-15.13
19405,-21.15
19417,-25.39
19429,-27.73
19441,-28.46
19453,-28.12
19465,-27.3
19477,-26.4
19489,-25.57
19500,-24.72
19511,-23.74
19523,-22.58
19535,-21.21
19547,-19.66
19559,-17.86
19571,-15.63
19583,-12.85
19595,-9.49
19607,-5.75
19619,-1.97
19631,1.5
19643,4.48
19655,6.97
19667,9.17
19679,11.27
19690,13.36
19701,15.32
19713,16.9
19725,17.74
19737,17.51
19749,16.0
19761,13.22
19773,9.35
19785,4.77
19797,-0.01
19809,-4.43
19821,-7.99
19833,-10.33
19845,-11.29
19857,-10.92
19869,-9.48
19880,-7.32
19891,-4.81
19903,-2.34
19915,-0.23
19927,1.3
19939,2.16
19951,2.46
19963,2.54
19975,2.81
19987,3.71
19999,5.53
20011,8.27
20023,11.7
20035,15.42
20047,19.06
20059,22.36
20070,25.24
20081,27.71
20093,29.82
20105,31.55
20117,32.82
20129,33.59
20141,33.79
20153,33.34
20165,32.08
20177,29.78
20189,26.28
20201,21.6
20213,16.04
20225,10.17
20237,4.58
20249,-0.33
20260,-4.52
20271,-8.23
20283,-11.75
20295,-15.22
20307,-18.49
20319,-21.26
20331,-23.19
20343,-24.19
20355,-24.38
20367,-24.05
20379,-23.42
20391,-22.56
20403,-21.38
20415,-19.69
20427,-17.42
20439,-14.66
20450,-11.67
20461,-8.78
20473,-6.28
20485,-4.29
20497,-2.81
20509,-1.8
20521,-1.23
20533,-1.17
20545,-1.72
20557,-2.95
20569,-4.82
20581,-7.1
20593,-9.41
20605,-11.24
20617,-12.07
20629,-11.45
20640,-9.19
20651,-5.43
20663,-0.61
20675,4.53
20687,9.21
20699,12.81
20711,14.97
20723,15.71
20735,15.29
20747,14.09
20759,12.44
20771,10.6
20783,8.66
20795,6.7
20807,4.75
20819,2.9
20830,1.24
20841,-0.17
20853,-1.36
20865,-2.42
20877,-3.5
20889,-4.77
20901,-6.34
20913,-8.25
20925,-10.54
20937,-13.27
20949,-16.45
20961,-20.0
20973,-23.6
20985,-26.71
20997,-28.58
