seconds,BVP
10,33.76
22,33.53
34,32.74
46,31.52
58,30.03
70,28.43
81,26.8
92,25.18
104,23.46
116,21.41
128,18.71
140,15.15
152,10.73
164,5.66
176,0.34
188,-4.83
200,-9.7
212,-14.31
224,-18.97
236,-24.03
248,-29.78
260,-36.32
271,-43.44
282,-50.6
294,-56.89
306,-61.19
318,-62.45
330,-60.02
342,-53.9
354,-44.82
366,-34.02
378,-22.77
390,-12.05
402,-2.32
414,6.34
426,14.08
438,20.91
450,26.74
461,31.41
472,34.81
484,37.05
496,38.4
508,39.18
520,39.63
532,39.95
544,40.19
556,40.39
568,40.59
580,40.82
592,41.08
604,41.34
616,41.51
628,41.43
640,40.9
651,39.74
662,37.86
674,35.31
686,32.29
698,29.14
710,26.16
722,23.45
734,20.89
746,18.16
758,14.93
770,11.09
782,6.76
794,2.27
806,-1.98
818,-5.8
830,-9.25
841,-12.67
852,-16.5
864,-21.16
876,-26.83
888,-33.38
900,-40.25
912,-46.56
924,-51.2
936,-53.13
948,-51.65
960,-46.62
972,-38.55
984,-28.37
996,-17.21
1008,-6.03
1020,4.53
1031,14.15
1042,22.73
1054,30.21
1066,36.51
1078,41.56
1090,45.39
1102,48.19
1114,50.31
1126,52.15
1138,54.04
1150,56.1
1162,58.26
1174,60.31
1186,62.08
1198,63.59
1210,65.08
1221,66.93
1232,69.45
1244,72.69
1256,76.28
1268,79.61
1280,81.9
1292,82.54
1304,81.24
1316,78.06
1328,73.4
1340,67.9
1352,62.32
1364,57.38
1376,53.73
1388,51.68
1400,51.29
1411,52.28
1422,54.29
1434,56.91
1446,59.83
1458,62.77
1470,65.3
1482,66.71
1494,65.84
1506,61.31
1518,51.92
1530,37.25
1542,18.03
1554,-3.76
1566,-25.45
1578,-44.46
1590,-59.16
1601,-69.21
1612,-75.41
1624,-79.18
1636,-81.83
1648,-84.13
1660,-86.3
1672,-88.22
1684,-89.73
1696,-90.69
1708,-91.0
1720,-90.48
1732,-88.9
1744,-86.1
1756,-82.07
1768,-77.07
1780,-71.52
1791,-65.85
1802,-60.47
1814,-55.66
1826,-51.58
1838,-48.25
1850,-45.57
1862,-43.31
1874,-41.23
1886,-39.18
1898,-37.19
1910,-35.47
1922,-34.32
1934,-33.88
1946,-34.05
1958,-34.46
1970,-34.68
1981,-34.42
1992,-33.73
2004,-32.93
2016,-32.47
2028,-32.67
2040,-33.61
2052,-35.06
2064,-36.72
2076,-38.33
2088,-39.79
2100,-41.15
2112,-42.5
2124,-43.98
2136,-45.74
2148,-47.99
2160,-51.03
2171,-55.01
2182,-59.75
2194,-64.48
2206,-67.97
2218,-68.85
2230,-66.15
2242,-59.68
2254,-50.12
2266,-38.75
2278,-26.91
2290,-15.57
2302,-5.22
2314,4.06
2326,12.27
2338,19.32
2350,24.99
2361,29.07
2372,31.51
2384,32.52
2396,32.54
2408,32.1
2420,31.66
2432,31.55
2444,31.87
2456,32.52
2468,33.31
2480,34.03
2492,34.52
2504,34.67
2516,34.4
2528,33.68
2540,32.5
2551,30.88
2562,28.9
2574,26.65
2586,24.2
2598,21.54
2610,18.63
2622,15.43
2634,12.02
2646,8.51
2658,5.07
2670,1.83
2682,-1.25
2694,-4.28
2706,-7.42
2718,-10.8
2730,-14.56
2741,-18.8
2752,-23.64
2764,-29.02
2776,-34.64
2788,-39.81
2800,-43.45
2812,-44.49
2824,-42.17
2836,-36.41
2848,-27.82
2860,-17.53
2872,-6.74
2884,3.59
2896,12.93
2908,21.11
2920,28.09
2931,33.79
2942,38.12
2954,40.97
2966,42.44
2978,42.83
2990,42.61
3002,42.3
3014,42.25
3026,42.58
3038,43.15
3050,43.7
3062,43.96
3074,43.82
3086,43.33
3098,42.68
3110,42.01
3121,41.33
3132,40.45
3144,39.07
3156,36.96
3168,34.06
3180,30.56
3192,26.79
3204,23.13
3216,19.78
3228,16.71
3240,13.7
3252,10.44
3264,6.76
3276,2.63
3288,-1.77
3300,-6.19
3311,-10.48
3322,-14.62
3334,-18.77
3346,-23.21
3358,-28.19
3370,-33.87
3382,-40.22
3394,-46.9
3406,-53.21
3418,-58.18
3430,-60.77
3442,-60.13
3454,-55.99
3466,-48.68
3478,-39.13
3490,-28.49
3501,-17.83
3512,-7.82
3524,1.22
3536,9.29
3548,16.37
3560,22.38
3572,27.17
3584,30.57
3596,32.61
3608,33.51
3620,33.68
3632,33.58
3644,33.54
3656,33.72
3668,34.04
3680,34.33
3691,34.45
3702,34.38
3714,34.22
3726,34.1
3738,34.05
3750,33.93
3762,33.48
3774,32.4
3786,30.54
3798,27.96
3810,24.92
3822,21.8
3834,18.85
3846,16.13
3858,13.49
3870,10.65
3881,7.38
3892,3.62
3904,-0.46
3916,-4.58
3928,-8.42
3940,-11.85
3952,-14.92
3964,-17.86
3976,-21.03
3988,-24.79
4000,-29.43
4012,-35.03
4024,-41.4
4036,-47.95
4048,-53.71
4060,-57.53
4071,-58.34
4082,-55.53
4094,-49.14
4106,-39.95
4118,-29.16
4130,-18.05
4142,-7.6
4154,1.7
4166,9.79
4178,16.85
4190,23.0
4202,28.23
4214,32.37
4226,35.31
4238,37.1
4250,37.97
4261,38.25
4272,38.28
4284,38.25
4296,38.19
4308,38.1
4320,37.97
4332,37.86
4344,37.88
4356,38.09
4368,38.45
4380,38.8
4392,38.88
4404,38.44
4416,37.3
4428,35.47
4440,33.09
4451,30.43
4462,27.72
4474,25.11
4486,22.6
4498,20.03
4510,17.19
4522,13.9
4534,10.09
4546,5.89
4558,1.53
4570,-2.68
4582,-6.51
4594,-9.89
4606,-13.0
4618,-16.18
4630,-19.87
4641,-24.49
4652,-30.22
4664,-36.9
4676,-43.94
4688,-50.38
4700,-55.09
4712,-57.06
4724,-55.68
4736,-50.98
4748,-43.57
4760,-34.48
4772,-24.8
4784,-15.41
4796,-6.82
4808,0.76
4820,7.27
4831,12.71
4842,17.03
4854,20.2
4866,22.27
4878,23.39
4890,23.78
4902,23.7
4914,23.33
4926,22.8
4938,22.14
4950,21.41
4962,20.67
4974,20.01
4986,19.55
4998,19.35
5010,19.36
5021,19.39
5032,19.19
5044,18.49
5056,17.14
5068,15.2
5080,12.83
5092,10.32
5104,7.85
5116,5.49
5128,3.17
5140,0.71
5152,-2.02
5164,-5.05
5176,-8.3
5188,-11.62
5200,-14.86
5211,-17.94
5222,-20.85
5234,-23.64
5246,-26.37
5258,-29.18
5270,-32.28
5282,-35.9
5294,-40.16
5306,-44.88
5318,-49.39
5330,-52.68
5342,-53.6
5354,-51.35
5366,-45.81
5378,-37.55
5390,-27.67
5401,-17.36
5412,-7.53
5424,1.34
5436,9.09
5448,15.75
5460,21.36
5472,25.89
5484,29.29
5496,31.58
5508,32.84
5520,33.27
5532,33.08
5544,32.54
5556,31.84
5568,31.15
5580,30.57
5591,30.16
5602,29.94
5614,29.94
5626,30.16
5638,30.57
5650,31.0
5662,31.2
5674,30.89
5686,29.81
5698,27.88
5710,25.19
5722,21.97
5734,18.51
5746,15.1
5758,11.94
5770,9.09
5781,6.44
5792,3.76
5804,0.74
5816,-2.84
5828,-6.99
5840,-11.52
5852,-16.07
5864,-20.3
5876,-24.05
5888,-27.44
5900,-30.79
5912,-34.49
5924,-38.88
5936,-44.09
5948,-49.96
5960,-56.04
5971,-61.55
5982,-65.54
5994,-67.0
6006,-65.23
6018,-60.02
6030,-51.79
6042,-41.55
6054,-30.53
6066,-19.91
6078,-10.42
6090,-2.31
6102,4.57
6114,10.48
6126,15.61
6138,19.88
6150,23.14
6161,25.26
6172,26.34
6184,26.68
6196,26.72
6208,26.84
6220,27.22
6232,27.78
6244,28.31
6256,28.64
6268,28.69
6280,28.55
6292,28.39
6304,28.33
6316,28.34
6328,28.29
6340,27.97
6351,27.19
6362,25.88
6374,24.05
6386,21.84
6398,19.4
6410,16.84
6422,14.2
6434,11.46
6446,8.55
6458,5.44
6470,2.12
6482,-1.39
6494,-5.01
6506,-8.65
6518,-12.19
6530,-15.52
6541,-18.6
6552,-21.49
6564,-24.41
6576,-27.64
6588,-31.5
6600,-36.2
6612,-41.71
6624,-47.72
6636,-53.55
6648,-58.22
6660,-60.71
6672,-60.2
6684,-56.32
6696,-49.38
6708,-40.23
6720,-30.03
6731,-19.93
6742,-10.68
6754,-2.59
6766,4.4
6778,10.49
6790,15.79
6802,20.2
6814,23.58
6826,25.79
6838,26.93
6850,27.24
6862,27.1
6874,26.84
6886,26.66
6898,26.62
6910,26.67
6921,26.72
6932,26.72
6944,26.68
6956,26.59
6968,26.46
6980,26.23
6992,25.81
7004,25.1
7016,24.02
7028,22.53
7040,20.59
7052,18.27
7064,15.64
7076,12.89
7088,10.21
7100,7.73
7111,5.48
7122,3.32
7134,1.02
7146,-1.66
7158,-4.79
7170,-8.25
7182,-11.74
7194,-14.93
7206,-17.62
7218,-19.9
7230,-22.07
7242,-24.57
7254,-27.79
7266,-31.96
7278,-37.09
7290,-42.95
7301,-49.05
7312,-54.61
7324,-58.7
7336,-60.34
7348,-58.84
7360,-53.99
7372,-46.23
7384,-36.51
7396,-26.02
7408,-15.86
7420,-6.74
7432,1.08
7444,7.62
7456,13.06
7468,17.5
7480,20.98
7491,23.45
7502,24.92
7514,25.55
7526,25.63
7538,25.54
7550,25.64
7562,26.11
7574,26.97
7586,28.07
7598,29.2
7610,30.25
7622,31.16
7634,31.95
7646,32.58
7658,32.98
7670,32.97
7681,32.38
7692,31.14
7704,29.38
7716,27.33
7728,25.33
7740,23.57
7752,22.13
7764,20.86
7776,19.47
7788,17.66
7800,15.16
7812,11.85
7824,7.72
7836,2.99
7848,-2.06
7860,-6.99
7871,-11.48
7882,-15.36
7894,-18.66
7906,-21.69
7918,-24.91
7930,-28.76
7942,-33.52
7954,-39.18
7966,-45.35
7978,-51.28
7990,-55.98
8002,-58.42
8014,-57.87
8026,-54.02
8038,-47.23
8050,-38.32
8061,-28.34
8072,-18.26
8084,-8.7
8096,0.06
8108,8.01
8120,15.17
8132,21.59
8144,27.24
8156,32.17
8168,36.54
8180,40.64
8192,44.79
8204,49.37
8216,54.72
8228,61.09
8240,68.59
8251,77.12
8262,86.2
8274,95.14
8286,103.05
8298,109.04
8310,112.41
8322,112.77
8334,109.96
8346,104.11
8358,95.57
8370,84.82
8382,72.52
8394,59.37
8406,46.05
8418,33.08
8430,20.79
8441,9.22
8452,-1.75
8464,-12.35
8476,-22.76
8488,-32.94
8500,-42.73
8512,-51.84
8524,-60.04
8536,-67.29
8548,-73.75
8560,-79.8
8572,-85.79
8584,-91.96
8596,-98.24
8608,-104.22
8620,-109.11
8631,-111.99
8642,-111.98
8654,-108.6
8666,-101.96
8678,-92.74
8690,-82.03
8702,-71.0
8714,-60.55
8726,-51.14
8738,-42.81
8750,-35.41
8762,-28.83
8774,-23.09
8786,-18.36
8798,-14.76
8810,-12.24
8821,-10.52
8832,-9.19
8844,-7.81
8856,-6.13
8868,-4.14
8880,-2.02
8892,0.01
8904,1.82
8916,3.37
8928,4.76
8940,6.03
8952,7.16
8964,8.03
8976,8.4
8988,8.12
9000,7.16
9011,5.62
9022,3.76
9034,1.88
9046,0.2
9058,-1.21
9070,-2.48
9082,-3.9
9094,-5.74
9106,-8.17
9118,-11.13
9130,-14.29
9142,-17.28
9154,-19.77
9166,-21.69
9178,-23.19
9190,-24.64
9201,-26.45
9212,-28.97
9224,-32.43
9236,-36.86
9248,-42.07
9260,-47.55
9272,-52.47
9284,-55.76
9296,-56.34
9308,-53.49
9320,-47.12
9332,-37.84
9344,-26.8
9356,-15.34
9368,-4.56
9380,4.86
9391,12.76
9402,19.27
9414,24.65
9426,29.06
9438,32.5
9450,34.92
9462,36.25
9474,36.51
9486,35.81
9498,34.33
9510,32.27
9522,29.87
9534,27.3
9546,24.76
9558,22.42
9570,20.41
9581,18.81
9592,17.66
9604,16.89
9616,16.34
9628,15.81
9640,15.08
9652,13.99
9664,12.45
9676,10.53
9688,8.42
9700,6.34
9712,4.51
9724,2.95
9736,1.52
9748,-0.12
9760,-2.28
9771,-5.12
9782,-8.57
9794,-12.31
9806,-15.98
9818,-19.29
9830,-22.17
9842,-24.79
9854,-27.43
9866,-30.48
9878,-34.3
9890,-39.1
9902,-44.84
9914,-51.09
9926,-57.04
9938,-61.56
9950,-63.52
9961,-62.13
9972,-57.26
9984,-49.44
9996,-39.73
10008,-29.3
10020,-19.14
10032,-9.83
10044,-1.55
10056,5.72
10068,12.05
10080,17.42
10092,21.7
10104,24.74
10116,26.53
10128,27.27
10140,27.34
10151,27.23
10162,27.33
10174,27.82
10186,28.62
10198,29.49
10210,30.15
10222,30.5
10234,30.57
10246,30.54
10258,30.55
10270,30.6
10282,30.47
10294,29.87
10306,28.58
10318,26.5
10330,23.79
10341,20.75
10352,17.71
10364,14.9
10376,12.42
10388,10.15
10400,7.92
10412,5.47
10424,2.7
10436,-0.43
10448,-3.79
10460,-7.2
10472,-10.51
10484,-13.63
10496,-16.58
10508,-19.49
10520,-22.57
10531,-26.06
10542,-30.2
10554,-35.19
10566,-41.04
10578,-47.41
10590,-53.57
10602,-58.44
10614,-60.86
10626,-59.99
10638,-55.56
10650,-48.02
10662,-38.32
10674,-27.63
10686,-16.99
10698,-7.06
10710,1.82
10721,9.55
10732,16.1
10744,21.41
10756,25.39
10768,28.09
10780,29.66
10792,30.45
10804,30.84
10816,31.15
10828,31.55
10840,32.1
10852,32.74
10864,33.39
10876,34.04
10888,34.68
10900,35.33
10911,35.97
10922,36.53
10934,36.87
10946,36.85
10958,36.33
10970,35.22
10982,33.49
10994,31.19
11006,28.49
11018,25.65
11030,22.89
11042,20.33
11054,17.97
11066,15.61
11078,12.98
11090,9.89
11101,6.32
11112,2.43
11124,-1.47
11136,-5.1
11148,-8.32
11160,-11.2
11172,-14.03
11184,-17.17
11196,-20.98
11208,-25.7
11220,-31.37
11232,-37.8
11244,-44.49
11256,-50.67
11268,-55.31
11280,-57.38
11291,-56.12
11302,-51.32
11314,-43.48
11326,-33.62
11338,-22.99
11350,-12.63
11362,-3.16
11374,5.28
11386,12.77
11398,19.36
11410,24.9
11422,29.07
11434,31.59
11446,32.47
11458,32.08
11470,31.07
11481,30.14
11492,29.76
11504,30.05
11516,30.84
11528,31.8
11540,32.65
11552,33.24
11564,33.57
11576,33.69
11588,33.67
11600,33.45
11612,32.94
11624,32.02
11636,30.61
11648,28.71
11660,26.39
11671,23.77
11682,20.99
11694,18.16
11706,15.35
11718,12.57
11730,9.75
11742,6.79
11754,3.6
11766,0.11
11778,-3.65
11790,-7.57
11802,-11.5
11814,-15.32
11826,-18.99
11838,-22.59
11850,-26.3
11861,-30.38
11872,-35.13
11884,-40.72
11896,-47.05
11908,-53.62
11920,-59.5
11932,-63.48
11944,-64.44
11956,-61.72
11968,-55.35
11980,-46.11
11992,-35.17
12004,-23.78
12016,-12.89
12028,-3.0
12040,5.76
12051,13.45
12062,20.09
12074,25.59
12086,29.86
12098,32.82
12110,34.58
12122,35.44
12134,35.8
12146,36.02
12158,36.38
12170,36.95
12182,37.65
12194,38.36
12206,38.98
12218,39.47
12230,39.86
12241,40.15
12252,40.31
12264,40.23
12276,39.81
12288,38.96
12300,37.65
12312,35.91
12324,33.8
12336,31.36
12348,28.68
12360,25.82
12372,22.87
12384,19.91
12396,16.98
12408,14.08
12420,11.14
12431,8.07
12442,4.8
12454,1.26
12466,-2.56
12478,-6.61
12490,-10.8
12502,-14.98
12514,-19.06
12526,-22.99
12538,-26.87
12550,-30.89
12562,-35.34
12574,-40.46
12586,-46.36
12598,-52.88
12610,-59.47
12621,-65.22
12632,-69.01
12644,-69.75
12656,-66.8
12668,-60.14
12680,-50.49
12692,-39.06
12704,-27.18
12716,-15.89
12728,-5.77
12740,3.06
12752,10.68
12764,17.2
12776,22.6
12788,26.81
12800,29.79
12811,31.66
12822,32.65
12834,33.08
12846,33.25
12858,33.37
12870,33.61
12882,34.06
12894,34.8
12906,35.83
12918,37.03
12930,38.19
12942,39.02
12954,39.31
12966,38.95
12978,38.03
12990,36.74
13001,35.26
13012,33.71
13024,32.04
13036,30.16
13048,27.95
13060,25.39
13072,22.57
13084,19.64
13096,16.72
13108,13.82
13120,10.86
13132,7.72
13144,4.3
13156,0.65
13168,-3.1
13180,-6.76
13191,-10.17
13202,-13.3
13214,-16.23
13226,-19.16
13238,-22.35
13250,-26.05
13262,-30.49
13274,-35.8
13286,-41.93
13298,-48.53
13310,-54.91
13322,-60.04
13334,-62.79
13346,-62.26
13358,-58.06
13370,-50.52
13381,-40.58
13392,-29.56
13404,-18.73
13416,-8.97
13428,-0.7
13440,6.08
13452,11.57
13464,16.01
13476,19.48
13488,22.03
13500,23.66
13512,24.5
13524,24.76
13536,24.77
13548,24.81
13560,25.08
13571,25.62
13582,26.33
13594,27.08
13606,27.73
13618,28.22
13630,28.56
13642,28.78
13654,28.85
13666,28.69
13678,28.13
13690,26.97
13702,25.1
13714,22.58
13726,19.66
13738,16.7
13750,14.03
13761,11.8
13772,9.9
13784,7.98
13796,5.63
13808,2.53
13820,-1.34
13832,-5.69
13844,-10.06
13856,-14.01
13868,-17.32
13880,-20.12
13892,-22.79
13904,-25.89
13916,-29.82
13928,-34.79
13940,-40.61
13951,-46.73
13962,-52.35
13974,-56.47
13986,-58.17
13998,-56.82
14010,-52.23
14022,-44.79
14034,-35.35
14046,-25.03
14058,-14.89
14070,-5.7
14082,2.17
14094,8.74
14106,14.22
14118,18.83
14130,22.65
14141,25.61
14152,27.62
14164,28.67
14176,28.97
14188,28.86
14200,28.73
14212,28.87
14224,29.3
14236,29.86
14248,30.3
14260,30.45
14272,30.31
14284,30.05
14296,29.82
14308,29.68
14320,29.47
14331,28.92
14342,27.73
14354,25.75
14366,23.05
14378,19.85
14390,16.53
14402,13.39
14414,10.62
14426,8.23
14438,6.01
14450,3.65
14462,0.86
14474,-2.57
14486,-6.58
14498,-10.95
14510,-15.28
14521,-19.24
14532,-22.68
14544,-25.72
14556,-28.68
14568,-31.98
14580,-35.97
14592,-40.83
14604,-46.46
14616,-52.5
14628,-58.26
14640,-62.84
14652,-65.22
14664,-64.54
14676,-60.36
14688,-52.86
14700,-42.82
14711,-31.38
14722,-19.72
14734,-8.74
14746,1.1
14758,9.7
14770,17.16
14782,23.58
14794,28.97
14806,33.29
14818,36.56
14830,38.94
14842,40.74
14854,42.33
14866,44.02
14878,45.92
14890,47.83
14901,49.36
14912,50.0
14924,49.33
14936,47.26
14948,44.05
14960,40.24
14972,36.41
14984,32.93
14996,29.85
15008,26.93
15020,23.82
15032,20.26
15044,16.32
15056,12.29
15068,8.52
15080,5.26
15091,2.49
15102,-0.03
15114,-2.62
15126,-5.55
15138,-8.88
15150,-12.48
15162,-16.11
15174,-19.52
15186,-22.64
15198,-25.52
15210,-28.44
15222,-31.71
15234,-35.67
15246,-40.54
15258,-46.34
15270,-52.84
15281,-59.5
15292,-65.46
15304,-69.67
15316,-71.11
15328,-69.09
15340,-63.5
15352,-54.91
15364,-44.42
15376,-33.32
15388,-22.73
15400,-13.38
15412,-5.49
15424,1.06
15436,6.5
15448,11.02
15460,14.71
15471,17.55
15482,19.54
15494,20.78
15506,21.42
15518,21.76
15530,22.08
15542,22.6
15554,23.39
15566,24.38
15578,25.44
15590,26.37
15602,27.05
15614,27.42
15626,27.49
15638,27.24
15650,26.58
15661,25.41
15672,23.61
15684,21.2
15696,18.36
15708,15.38
15720,12.5
15732,9.83
15744,7.23
15756,4.48
15768,1.35
15780,-2.2
15792,-6.0
15804,-9.76
15816,-13.25
15828,-16.36
15840,-19.22
15851,-22.09
15862,-25.31
15874,-29.2
15886,-33.95
15898,-39.49
15910,-45.39
15922,-50.8
15934,-54.6
15946,-55.73
15958,-53.51
15970,-47.95
15982,-39.72
15994,-29.93
16006,-19.78
16018,-10.22
16030,-1.81
16041,5.26
16052,11.03
16064,15.55
16076,18.89
16088,21.13
16100,22.37
16112,22.85
16124,22.83
16136,22.62
16148,22.47
16160,22.5
16172,22.72
16184,23.07
16196,23.54
16208,24.12
16220,24.84
16231,25.65
16242,26.35
16254,26.65
16266,26.22
16278,24.88
16290,22.69
16302,19.92
16314,16.9
16326,13.91
16338,11.04
16350,8.23
16362,5.28
16374,2.04
16386,-1.56
16398,-5.43
16410,-9.38
16421,-13.2
16432,-16.76
16444,-20.03
16456,-23.1
16468,-26.17
16480,-29.51
16492,-33.41
16504,-38.16
16516,-43.86
16528,-50.3
16540,-56.83
16552,-62.37
16564,-65.68
16576,-65.68
16588,-61.89
16600,-54.65
16611,-44.94
16622,-34.11
16634,-23.37
16646,-13.47
16658,-4.67
16670,3.1
16682,9.96
16694,15.88
16706,20.72
16718,24.29
16730,26.58
16742,27.78
16754,28.29
16766,28.51
16778,28.76
16790,29.12
16801,29.57
16812,29.99
16824,30.32
16836,30.61
16848,30.92
16860,31.33
16872,31.85
16884,32.35
16896,32.61
16908,32.37
16920,31.42
16932,29.66
16944,27.17
16956,24.21
16968,21.09
16980,18.07
16991,15.26
17002,12.56
17014,9.72
17026,6.49
17038,2.72
17050,-1.52
17062,-6.0
17074,-10.39
17086,-14.41
17098,-17.97
17110,-21.14
17122,-24.17
17134,-27.45
17146,-31.38
17158,-36.26
17170,-42.21
17181,-48.99
17192,-55.96
17204,-62.13
17216,-66.3
17228,-67.39
17240,-64.78
17252,-58.51
17264,-49.34
17276,-38.49
17288,-27.27
17300,-16.72
17312,-7.33
17324,0.86
17336,8.11
17348,14.67
17360,20.59
17371,25.73
17382,29.87
17394,32.85
17406,34.69
17418,35.64
17430,36.06
17442,36.25
17454,36.41
17466,36.57
17478,36.7
17490,36.77
17502,36.8
17514,36.87
17526,37.0
17538,37.16
17550,37.17
17561,36.8
17572,35.81
17584,34.08
17596,31.65
17608,28.71
17620,25.55
17632,22.45
17644,19.58
17656,16.99
17668,14.58
17680,12.16
17692,9.52
17704,6.47
17716,2.92
17728,-1.06
17740,-5.27
17751,-9.44
17762,-13.33
17774,-16.81
17786,-19.94
17798,-22.96
17810,-26.2
17822,-30.01
17834,-34.68
17846,-40.33
17858,-46.89
17870,-53.97
17882,-60.85
17894,-66.5
17906,-69.74
17918,-69.63
17930,-65.74
17941,-58.42
17952,-48.68
17964,-37.91
17976,-27.39
17988,-17.96
18000,-9.89
18012,-3.02
18024,2.97
18036,8.3
18048,12.96
18060,16.82
18072,19.74
18084,21.73
18096,23.03
18108,23.98
18120,24.93
18131,26.08
18142,27.39
18154,28.68
18166,29.73
18178,30.44
18190,30.88
18202,31.25
18214,31.75
18226,32.41
18238,33.04
18250,33.26
18262,32.68
18274,31.12
18286,28.7
18298,25.82
18310,22.95
18321,20.46
18332,18.38
18344,16.46
18356,14.26
18368,11.42
18380,7.86
18392,3.78
18404,-0.43
18416,-4.37
18428,-7.86
18440,-10.93
18452,-13.84
18464,-16.91
18476,-20.48
18488,-24.83
18500,-30.13
18511,-36.37
18522,-43.22
18534,-49.95
18546,-55.47
18558,-58.57
18570,-58.35
18582,-54.44
18594,-47.27
18606,-37.86
18618,-27.48
18630,-17.27
18642,-7.93
18654,0.33
18666,7.61
18678,14.14
18690,20.02
18701,25.19
18712,29.43
18724,32.55
18736,34.47
18748,35.35
18760,35.54
18772,35.5
18784,35.61
18796,36.07
18808,36.87
18820,37.84
18832,38.78
18844,39.53
18856,39.98
18868,40.11
18880,39.89
18891,39.28
18902,38.27
18914,36.84
18926,35.05
18938,32.94
18950,30.58
18962,28.02
18974,25.28
18986,22.43
18998,19.5
19010,16.57
19022,13.64
19034,10.65
19046,7.49
19058,4.04
19070,0.2
19081,-4.03
19092,-8.56
19104,-13.22
19116,-17.8
19128,-22.14
19140,-26.14
19152,-29.85
19164,-33.5
19176,-37.4
19188,-41.9
19200,-47.25
19212,-53.46
19224,-60.15
19236,-66.52
19248,-71.5
19260,-73.92
19271,-72.9
19282,-68.12
19294,-59.94
19306,-49.3
19318,-37.47
19330,-25.66
19342,-14.75
19354,-5.1
19366,3.36
19378,10.93
19390,17.91
19402,24.37
19414,30.22
19426,35.21
19438,39.14
19450,41.92
19461,43.7
19472,44.71
19484,45.24
19496,45.55
19508,45.77
19520,46.01
19532,46.29
19544,46.65
19556,47.05
19568,47.42
19580,47.59
19592,47.42
19604,46.75
19616,45.59
19628,44.01
19640,42.16
19651,40.18
19662,38.09
19674,35.85
19686,33.31
19698,30.35
19710,26.93
19722,23.14
19734,19.18
19746,15.29
19758,11.62
19770,8.2
19782,4.87
19794,1.38
19806,-2.49
19818,-6.87
19830,-11.68
19841,-16.66
19852,-21.52
19864,-26.03
19876,-30.13
19888,-33.99
19900,-37.98
19912,-42.48
19924,-47.72
19936,-53.65
19948,-59.78
19960,-65.24
19972,-68.98
19984,-70.04
19996,-67.87
20008,-62.55
20020,-54.72
20031,-45.39
20042,-35.64
20054,-26.31
20066,-17.86
20078,-10.44
20090,-3.98
20102,1.57
20114,6.26
20126,10.1
20138,13.1
20150,15.37
20162,17.07
20174,18.39
20186,19.49
20198,20.48
20210,21.39
20221,22.22
20232,22.9
20244,23.39
20256,23.67
20268,23.73
20280,23.68
20292,23.58
20304,23.51
20316,23.37
20328,23.03
20340,22.27
20352,20.98
20364,19.19
20376,17.1
20388,14.98
20400,13.04
20411,11.3
20422,9.59
20434,7.63
20446,5.2
20458,2.28
20470,-0.93
20482,-4.13
20494,-7.0
20506,-9.44
20518,-11.52
20530,-13.51
20542,-15.73
20554,-18.5
20566,-22.05
20578,-26.48
20590,-31.58
20601,-36.79
20612,-41.22
20624,-43.81
20636,-43.64
20648,-40.28
20660,-33.92
20672,-25.29
20684,-15.44
20696,-5.38
20708,4.25
20720,13.09
20732,21.03
20744,28.05
20756,34.09
20768,39.05
20780,42.92
20791,45.87
20802,48.25
20814,50.55
20826,53.16
20838,56.26
20850,59.76
20862,63.37
20874,66.75
20886,69.73
20898,72.38
20910,74.93
20922,77.64
20934,80.59
20946,83.61
20958,86.31
20970,88.26
20981,89.1
20992,88.68
