seconds,BVP
2,-117.31
14,-111.27
25,-102.24
36,-90.89
48,-78.29
60,-65.61
72,-53.91
84,-44.11
96,-36.93
108,-32.98
120,-32.62
132,-35.8
144,-41.96
156,-50.03
168,-58.55
180,-66.1
192,-71.63
204,-74.72
215,-75.65
226,-75.07
238,-73.67
250,-71.93
262,-70.14
274,-68.72
286,-68.51
298,-70.51
310,-75.26
322,-81.93
334,-87.8
346,-88.82
358,-81.03
370,-62.39
382,-33.86
394,0.84
405,36.62
416,69.0
428,95.54
440,116.11
452,132.19
464,145.76
476,158.44
488,171.17
500,184.36
512,197.99
524,211.76
536,225.05
548,237.24
560,248.04
572,257.91
584,268.13
595,280.41
606,296.14
618,315.47
630,336.69
642,356.29
654,369.63
666,372.3
678,361.42
690,336.64
702,300.15
714,255.93
726,208.32
738,160.8
750,115.3
762,72.24
774,31.05
785,-9.27
796,-49.7
808,-90.74
820,-132.08
832,-172.22
844,-208.49
856,-237.58
868,-256.57
880,-264.03
892,-260.63
904,-248.94
916,-232.49
928,-214.68
940,-197.95
952,-183.53
964,-171.75
975,-162.46
986,-155.38
998,-150.08
1010,-146.02
1022,-142.64
1034,-139.59
1046,-137.02
1058,-135.74
1070,-136.98
1082,-141.95
1094,-151.18
1106,-164.09
1118,-178.91
1130,-193.03
1142,-203.71
1154,-208.68
1165,-206.54
1176,-196.74
1188,-179.38
1200,-155.04
1212,-124.81
1224,-90.53
1236,-54.81
1248,-20.77
1260,8.64
1272,31.42
1284,47.08
1296,56.63
1308,62.12
1320,65.8
1332,69.47
1344,74.09
1355,79.88
1366,86.57
1378,93.69
1390,100.83
1402,107.65
1414,114.0
1426,119.92
1438,125.59
1450,131.32
1462,137.44
1474,144.1
1486,151.2
1498,158.32
1510,164.88
1522,170.32
1534,174.41
1545,177.4
1556,179.9
1568,182.57
1580,185.68
1592,188.85
1604,191.1
1616,191.27
1628,188.61
1640,183.19
1652,175.92
1664,168.24
1676,161.57
1688,156.81
1700,153.93
1712,151.92
1724,148.82
1735,142.03
1746,128.8
1758,106.82
1770,74.94
1782,33.65
1794,-14.63
1806,-65.91
1818,-115.45
1830,-158.87
1842,-193.23
1854,-217.64
1866,-233.26
1878,-242.62
1890,-248.64
1902,-253.68
1914,-259.01
1925,-264.81
1936,-270.59
1948,-275.75
1960,-279.86
1972,-282.71
1984,-284.06
1996,-283.41
2008,-280.02
2020,-273.13
2032,-262.27
2044,-247.62
2056,-229.96
2068,-210.54
2080,-190.7
2092,-171.47
2104,-153.39
2115,-136.5
2126,-120.48
2138,-104.95
2150,-89.62
2162,-74.37
2174,-59.24
2186,-44.39
2198,-30.07
2210,-16.6
2222,-4.37
2234,6.34
2246,15.31
2258,22.62
2270,28.61
2282,33.93
2294,39.42
2305,45.8
2316,53.42
2328,61.91
2340,70.21
2352,76.73
2364,79.76
2376,78.1
2388,71.41
2400,60.41
2412,46.75
2424,32.57
2436,19.98
2448,10.73
2460,6.0
2472,6.47
2484,12.52
2495,24.27
2506,41.47
2518,63.12
2530,87.22
2542,110.84
2554,130.86
2566,144.94
2578,152.38
2590,154.26
2602,152.78
2614,150.17
2626,147.84
2638,146.12
2650,144.6
2662,142.82
2674,140.53
2685,137.54
2696,133.03
2708,125.04
2720,110.61
2732,86.82
2744,52.29
2756,8.38
2768,-40.52
2780,-87.97
2792,-127.33
2804,-153.76
2816,-165.54
2828,-164.09
2840,-153.01
2852,-136.5
2864,-118.02
2875,-99.61
2886,-82.09
2898,-65.75
2910,-50.86
2922,-37.97
2934,-27.67
2946,-20.08
2958,-14.54
2970,-9.53
2982,-3.22
2994,5.71
3006,17.35
3018,30.31
3030,42.17
3042,50.48
3054,53.72
3065,51.82
3076,46.02
3088,38.14
3100,29.74
3112,21.59
3124,13.64
3136,5.41
3148,-3.54
3160,-13.37
3172,-23.98
3184,-35.22
3196,-47.03
3208,-59.45
3220,-72.34
3232,-85.05
3244,-96.35
3255,-104.59
3266,-108.14
3278,-105.97
3290,-97.99
3302,-85.05
3314,-68.63
3326,-50.37
3338,-31.59
3350,-13.14
3362,4.59
3374,21.56
3386,37.92
3398,53.89
3410,69.61
3422,84.9
3434,99.06
3445,110.93
3456,119.14
3468,122.77
3480,121.83
3492,117.51
3504,111.81
3516,106.76
3528,103.61
3540,102.36
3552,101.95
3564,101.07
3576,98.82
3588,95.23
3600,91.04
3612,87.03
3624,83.5
3635,79.91
3646,75.2
3658,68.24
3670,58.34
3682,45.32
3694,29.42
3706,10.94
3718,-9.89
3730,-32.7
3742,-56.74
3754,-80.59
3766,-102.26
3778,-119.6
3790,-131.08
3802,-136.27
3814,-136.12
3825,-132.65
3836,-128.3
3848,-125.22
3860,-124.68
3872,-126.83
3884,-130.64
3896,-134.16
3908,-134.91
3920,-130.51
3932,-119.41
3944,-101.55
3956,-78.72
3968,-54.25
3980,-32.14
3992,-15.71
4004,-6.52
4015,-3.93
4026,-5.64
4038,-8.77
4050,-11.06
4062,-11.56
4074,-10.46
4086,-8.49
4098,-6.08
4110,-3.04
4122,1.26
4134,7.29
4146,14.82
4158,22.8
4170,29.66
4182,33.95
4194,34.89
4205,32.48
4216,27.38
4228,20.52
4240,12.92
4252,5.53
4264,-0.69
4276,-4.94
4288,-6.65
4300,-5.78
4312,-2.81
4324,1.33
4336,5.57
4348,9.04
4360,11.25
4372,12.15
4384,12.02
4395,11.36
4406,10.77
4418,10.86
4430,12.14
4442,14.96
4454,19.4
4466,25.3
4478,32.24
4490,39.61
4502,46.63
4514,52.41
4526,56.02
4538,56.71
4550,54.08
4562,48.36
4574,40.35
4585,31.25
4596,22.34
4608,14.53
4620,8.19
4632,3.14
4644,-1.13
4656,-5.1
4668,-9.04
4680,-13.0
4692,-16.94
4704,-20.91
4716,-25.08
4728,-29.54
4740,-34.07
4752,-37.97
4764,-40.19
4775,-39.63
4786,-35.61
4798,-28.15
4810,-17.99
4822,-6.35
4834,5.44
4846,16.34
4858,25.71
4870,33.33
4882,39.08
4894,42.87
4906,44.48
4918,43.76
4930,40.74
4942,35.79
4954,29.66
4965,23.26
4976,17.44
4988,12.86
5000,9.79
5012,8.18
5024,7.68
5036,7.77
5048,7.91
5060,7.64
5072,6.64
5084,4.82
5096,2.28
5108,-0.75
5120,-3.95
5132,-7.05
5144,-9.92
5155,-12.5
5166,-14.86
5178,-17.13
5190,-19.44
5202,-21.99
5214,-24.98
5226,-28.65
5238,-33.15
5250,-38.52
5262,-44.63
5274,-51.23
5286,-57.91
5298,-64.19
5310,-69.5
5322,-73.19
5334,-74.62
5345,-73.3
5356,-69.12
5368,-62.44
5380,-54.06
5392,-44.92
5404,-35.78
5416,-26.9
5428,-18.04
5440,-8.74
5452,1.28
5464,11.9
5476,22.5
5488,32.33
5500,40.9
5512,48.16
5524,54.63
5535,61.01
5546,67.84
5558,75.09
5570,82.14
5582,88.01
5594,91.78
5606,93.06
5618,92.15
5630,89.9
5642,87.28
5654,84.94
5666,82.99
5678,81.08
5690,78.76
5702,75.96
5714,73.06
5725,70.8
5736,69.8
5748,70.16
5760,71.41
5772,72.72
5784,73.34
5796,72.91
5808,71.53
5820,69.56
5832,67.28
5844,64.7
5856,61.49
5868,57.1
5880,50.99
5892,42.76
5904,32.3
5915,19.95
5926,6.5
5938,-6.81
5950,-18.49
5962,-27.12
5974,-31.68
5986,-31.81
5998,-27.85
6010,-20.7
6022,-11.59
6034,-1.79
6046,7.62
6058,15.88
6070,22.59
6082,27.72
6094,31.49
6105,34.26
6116,36.31
6128,37.72
6140,38.24
6152,37.41
6164,34.8
6176,30.27
6188,24.18
6200,17.46
6212,11.36
6224,7.07
6236,5.31
6248,6.11
6260,8.77
6272,12.18
6284,15.17
6295,16.88
6306,16.92
6318,15.32
6330,12.44
6342,8.72
6354,4.64
6366,0.62
6378,-2.98
6390,-5.85
6402,-7.79
6414,-8.76
6426,-8.95
6438,-8.71
6450,-8.5
6462,-8.8
6474,-9.96
6485,-12.15
6496,-15.37
6508,-19.49
6520,-24.33
6532,-29.72
6544,-35.49
6556,-41.41
6568,-47.13
6580,-52.23
6592,-56.25
6604,-58.9
6616,-60.08
6628,-59.87
6640,-58.35
6652,-55.47
6664,-50.97
6675,-44.63
6686,-36.5
6698,-27.15
6710,-17.68
6722,-9.37
6734,-3.25
6746,0.28
6758,1.46
6770,0.99
6782,-0.35
6794,-2.06
6806,-3.97
6818,-6.13
6830,-8.59
6842,-11.22
6854,-13.74
6865,-15.88
6876,-17.54
6888,-18.9
6900,-20.32
6912,-22.19
6924,-24.7
6936,-27.78
6948,-31.04
6960,-33.96
6972,-36.03
6984,-36.97
6996,-36.81
7008,-35.87
7020,-34.68
7032,-33.76
7044,-33.39
7055,-33.58
7066,-34.09
7078,-34.57
7090,-34.75
7102,-34.6
7114,-34.31
7126,-34.21
7138,-34.67
7150,-35.9
7162,-37.89
7174,-40.42
7186,-43.03
7198,-45.1
7210,-45.97
7222,-45.04
7234,-41.93
7245,-36.61
7256,-29.31
7268,-20.58
7280,-11.08
7292,-1.52
7304,7.44
7316,15.23
7328,21.46
7340,25.95
7352,28.8
7364,30.36
7376,31.12
7388,31.57
7400,32.09
7412,32.88
7424,33.98
7435,35.4
7446,37.07
7458,38.87
7470,40.63
7482,42.09
7494,43.0
7506,43.19
7518,42.62
7530,41.38
7542,39.67
7554,37.65
7566,35.45
7578,33.13
7590,30.71
7602,28.22
7614,25.64
7625,23.01
7636,20.3
7648,17.52
7660,14.66
7672,11.71
7684,8.72
7696,5.72
7708,2.77
7720,-0.06
7732,-2.75
7744,-5.39
7756,-8.12
7768,-11.1
7780,-14.38
7792,-17.71
7804,-20.59
7815,-22.3
7826,-22.18
7838,-19.81
7850,-15.22
7862,-8.88
7874,-1.58
7886,5.83
7898,12.57
7910,18.11
7922,22.23
7934,24.9
7946,26.25
7958,26.51
7970,25.89
7982,24.62
7994,22.94
8005,21.13
8016,19.46
8028,18.2
8040,17.52
8052,17.43
8064,17.79
8076,18.36
8088,18.88
8100,19.12
8112,18.95
8124,18.37
8136,17.48
8148,16.45
8160,15.43
8172,14.5
8184,13.58
8195,12.5
8206,11.08
8218,9.24
8230,7.02
8242,4.6
8254,2.12
8266,-0.33
8278,-2.73
8290,-5.09
8302,-7.32
8314,-9.33
8326,-11.09
8338,-12.68
8350,-14.32
8362,-16.17
8374,-18.16
8385,-19.83
8396,-20.5
8408,-19.43
8420,-16.25
8432,-11.05
8444,-4.4
8456,2.96
8468,10.29
8480,17.0
8492,22.63
8504,26.71
8516,28.7
8528,28.13
8540,24.81
8552,19.08
8564,11.81
8575,4.25
8586,-2.37
8598,-7.18
8610,-9.87
8622,-10.6
8634,-9.73
8646,-7.52
8658,-3.96
8670,1.1
8682,7.77
8694,15.81
8706,24.55
8718,32.92
8730,39.81
8742,44.28
8754,45.98
8765,45.16
8776,42.66
8788,39.67
8800,37.45
8812,37.0
8824,38.7
8836,42.07
8848,45.73
8860,47.56
8872,45.24
8884,36.9
8896,21.91
8908,1.33
8920,-22.14
8932,-44.69
8944,-62.44
8955,-72.65
8966,-74.52
8978,-69.35
8990,-60.03
9002,-49.91
9014,-41.68
9026,-36.63
9038,-34.55
9050,-34.26
9062,-34.46
9074,-34.32
9086,-33.61
9098,-32.45
9110,-30.77
9122,-28.17
9134,-24.05
9145,-18.07
9156,-10.59
9168,-2.65
9180,4.47
9192,9.82
9204,13.31
9216,15.71
9228,18.2
9240,21.7
9252,26.47
9264,32.04
9276,37.57
9288,42.29
9300,45.81
9312,48.21
9324,49.81
9335,50.94
9346,51.74
9358,52.1
9370,51.75
9382,50.34
9394,47.57
9406,43.3
9418,37.64
9430,31.01
9442,24.17
9454,18.0
9466,13.38
9478,10.8
9490,10.28
9502,11.35
9514,13.28
9525,15.37
9536,17.17
9548,18.57
9560,19.64
9572,20.44
9584,20.89
9596,20.83
9608,20.17
9620,19.08
9632,18.04
9644,17.65
9656,18.35
9668,20.23
9680,22.96
9692,25.97
9704,28.76
9715,31.07
9726,32.91
9738,34.37
9750,35.39
9762,35.57
9774,34.3
9786,30.96
9798,25.31
9810,17.69
9822,9.0
9834,0.39
9846,-7.08
9858,-12.88
9870,-17.01
9882,-19.96
9894,-22.36
9905,-24.72
9916,-27.24
9928,-29.81
9940,-32.06
9952,-33.38
9964,-33.07
9976,-30.42
9988,-24.95
10000,-16.63
10012,-6.13
10024,5.28
10036,15.9
10048,24.02
10060,28.43
10072,28.6
10084,24.77
10095,17.78
10106,8.74
10118,-1.21
10130,-11.17
10142,-20.53
10154,-28.99
10166,-36.5
10178,-43.17
10190,-49.19
10202,-54.74
10214,-59.96
10226,-64.95
10238,-69.66
10250,-73.91
10262,-77.39
10274,-79.7
10285,-80.51
10296,-79.71
10308,-77.52
10320,-74.4
10332,-70.96
10344,-67.67
10356,-64.8
10368,-62.31
10380,-60.07
10392,-57.96
10404,-56.09
10416,-54.75
10428,-54.22
10440,-54.62
10452,-55.66
10464,-56.75
10475,-57.12
10486,-56.15
10498,-53.54
10510,-49.34
10522,-43.91
10534,-37.69
10546,-31.11
10558,-24.48
10570,-18.13
10582,-12.4
10594,-7.65
10606,-4.15
10618,-1.99
10630,-1.0
10642,-0.8
10654,-0.93
10665,-0.89
10676,-0.28
10688,1.12
10700,3.42
10712,6.51
10724,10.14
10736,13.93
10748,17.48
10760,20.42
10772,22.53
10784,23.7
10796,23.96
10808,23.46
10820,22.4
10832,20.99
10844,19.43
10855,17.84
10866,16.22
10878,14.46
10890,12.39
10902,9.88
10914,6.84
10926,3.35
10938,-0.4
10950,-4.13
10962,-7.48
10974,-10.07
10986,-11.59
10998,-11.83
11010,-10.79
11022,-8.63
11034,-5.65
11045,-2.22
11056,1.33
11068,4.69
11080,7.6
11092,9.83
11104,11.14
11116,11.36
11128,10.42
11140,8.43
11152,5.75
11164,2.85
11176,0.26
11188,-1.63
11200,-2.67
11212,-2.93
11224,-2.67
11235,-2.23
11246,-1.92
11258,-1.89
11270,-2.19
11282,-2.74
11294,-3.41
11306,-4.04
11318,-4.54
11330,-4.85
11342,-4.96
11354,-4.93
11366,-4.86
11378,-4.85
11390,-5.01
11402,-5.4
11414,-6.08
11425,-7.1
11436,-8.5
11448,-10.33
11460,-12.62
11472,-15.25
11484,-17.91
11496,-20.13
11508,-21.29
11520,-20.87
11532,-18.54
11544,-14.39
11556,-8.79
11568,-2.34
11580,4.3
11592,10.49
11604,15.74
11615,19.6
11626,21.79
11638,22.23
11650,21.07
11662,18.76
11674,15.87
11686,13.03
11698,10.7
11710,9.13
11722,8.36
11734,8.3
11746,8.79
11758,9.64
11770,10.62
11782,11.44
11794,11.8
11805,11.5
11816,10.47
11828,8.82
11840,6.79
11852,4.65
11864,2.59
11876,0.69
11888,-1.09
11900,-2.8
11912,-4.46
11924,-6.06
11936,-7.57
11948,-9.09
11960,-10.81
11972,-12.94
11984,-15.5
11995,-18.31
12006,-20.82
12018,-22.38
12030,-22.37
12042,-20.5
12054,-16.85
12066,-11.88
12078,-6.23
12090,-0.54
12102,4.66
12114,9.0
12126,12.21
12138,14.16
12150,14.81
12162,14.25
12174,12.69
12185,10.5
12196,8.1
12208,5.9
12220,4.24
12232,3.3
12244,3.04
12256,3.34
12268,3.97
12280,4.74
12292,5.49
12304,6.1
12316,6.48
12328,6.51
12340,6.09
12352,5.2
12364,3.91
12375,2.41
12386,0.91
12398,-0.4
12410,-1.51
12422,-2.54
12434,-3.73
12446,-5.32
12458,-7.51
12470,-10.31
12482,-13.58
12494,-17.0
12506,-20.14
12518,-22.51
12530,-23.64
12542,-23.22
12554,-21.11
12565,-17.38
12576,-12.3
12588,-6.36
12600,-0.13
12612,5.76
12624,10.74
12636,14.4
12648,16.57
12660,17.28
12672,16.79
12684,15.41
12696,13.55
12708,11.58
12720,9.85
12732,8.59
12744,7.95
12755,7.87
12766,8.19
12778,8.69
12790,9.2
12802,9.59
12814,9.81
12826,9.83
12838,9.57
12850,8.93
12862,7.85
12874,6.35
12886,4.55
12898,2.63
12910,0.71
12922,-1.16
12934,-3.0
12945,-4.87
12956,-6.82
12968,-8.95
12980,-11.34
12992,-14.06
13004,-17.11
13016,-20.28
13028,-23.14
13040,-25.1
13052,-25.56
13064,-24.07
13076,-20.57
13088,-15.34
13100,-8.97
13112,-2.21
13124,4.24
13135,9.81
13146,14.11
13158,16.94
13170,18.25
13182,18.16
13194,16.94
13206,15.01
13218,12.91
13230,11.14
13242,10.04
13254,9.72
13266,9.98
13278,10.5
13290,10.93
13302,11.06
13314,10.93
13325,10.66
13336,10.39
13348,10.1
13360,9.62
13372,8.74
13384,7.35
13396,5.54
13408,3.54
13420,1.61
13432,-0.09
13444,-1.58
13456,-3.04
13468,-4.67
13480,-6.6
13492,-8.82
13504,-11.26
13515,-13.81
13526,-16.4
13538,-18.96
13550,-21.32
13562,-23.12
13574,-23.89
13586,-23.12
13598,-20.49
13610,-15.99
13622,-10.02
13634,-3.29
13646,3.38
13658,9.22
13670,13.71
13682,16.62
13694,17.96
13705,17.98
13716,16.97
13728,15.33
13740,13.44
13752,11.64
13764,10.26
13776,9.49
13788,9.41
13800,9.94
13812,10.84
13824,11.79
13836,12.46
13848,12.61
13860,12.19
13872,11.32
13884,10.2
13895,9.05
13906,7.98
13918,6.94
13930,5.84
13942,4.53
13954,2.93
13966,1.06
13978,-0.99
13990,-3.06
14002,-5.04
14014,-6.83
14026,-8.47
14038,-10.02
14050,-11.67
14062,-13.58
14074,-15.79
14085,-18.18
14096,-20.4
14108,-21.94
14120,-22.25
14132,-20.98
14144,-18.0
14156,-13.53
14168,-8.08
14180,-2.24
14192,3.39
14204,8.35
14216,12.27
14228,14.93
14240,16.2
14252,16.1
14264,14.81
14275,12.72
14286,10.34
14298,8.22
14310,6.76
14322,6.18
14334,6.42
14346,7.23
14358,8.25
14370,9.16
14382,9.72
14394,9.86
14406,9.62
14418,9.13
14430,8.52
14442,7.87
14454,7.13
14465,6.19
14476,4.92
14488,3.28
14500,1.29
14512,-0.88
14524,-3.04
14536,-5.04
14548,-6.78
14560,-8.29
14572,-9.64
14584,-10.94
14596,-12.27
14608,-13.74
14620,-15.32
14632,-16.96
14644,-18.44
14655,-19.42
14666,-19.44
14678,-18.05
14690,-15.02
14702,-10.44
14714,-4.78
14726,1.21
14738,6.77
14750,11.31
14762,14.58
14774,16.61
14786,17.6
14798,17.79
14810,17.33
14822,16.33
14834,14.91
14845,13.28
14856,11.75
14868,10.65
14880,10.23
14892,10.53
14904,11.35
14916,12.35
14928,13.16
14940,13.53
14952,13.35
14964,12.7
14976,11.77
14988,10.7
15000,9.57
15012,8.34
15024,6.94
15035,5.3
15046,3.42
15058,1.36
15070,-0.78
15082,-2.91
15094,-4.97
15106,-6.96
15118,-8.89
15130,-10.83
15142,-12.81
15154,-14.91
15166,-17.17
15178,-19.56
15190,-21.99
15202,-24.21
15214,-25.87
15225,-26.5
15236,-25.66
15248,-23.06
15260,-18.73
15272,-13.04
15284,-6.63
15296,-0.23
15308,5.52
15320,10.24
15332,13.76
15344,16.09
15356,17.3
15368,17.51
15380,16.91
15392,15.78
15404,14.48
15415,13.34
15426,12.6
15438,12.34
15450,12.5
15462,12.97
15474,13.61
15486,14.31
15498,14.94
15510,15.36
15522,15.43
15534,15.05
15546,14.2
15558,12.94
15570,11.39
15582,9.7
15594,8.03
15605,6.49
15616,5.15
15628,4.01
15640,2.97
15652,1.89
15664,0.62
15676,-0.94
15688,-2.77
15700,-4.7
15712,-6.54
15724,-8.12
15736,-9.39
15748,-10.51
15760,-11.78
15772,-13.5
15784,-15.88
15795,-18.89
15806,-22.2
15818,-25.26
15830,-27.34
15842,-27.77
15854,-26.16
15866,-22.44
15878,-16.99
15890,-10.42
15902,-3.45
15914,3.29
15926,9.36
15938,14.47
15950,18.44
15962,21.09
15974,22.36
15985,22.33
15996,21.34
16008,20.02
16020,19.1
16032,19.13
16044,20.31
16056,22.39
16068,24.76
16080,26.72
16092,27.79
16104,27.9
16116,27.49
16128,27.23
16140,27.8
16152,29.48
16164,31.98
16175,34.51
16186,36.08
16198,35.96
16210,34.06
16222,31.0
16234,28.04
16246,26.54
16258,27.55
16270,31.26
16282,36.82
16294,42.36
16306,45.27
16318,42.96
16330,33.6
16342,16.93
16354,-5.34
16365,-29.68
16376,-51.61
16388,-66.95
16400,-73.17
16412,-70.19
16424,-60.3
16436,-47.19
16448,-34.64
16460,-25.19
16472,-19.61
16484,-17.09
16496,-16.18
16508,-15.55
16520,-14.65
16532,-13.56
16544,-12.66
16555,-12.15
16566,-11.91
16578,-11.73
16590,-11.64
16602,-12.06
16614,-13.57
16626,-16.59
16638,-20.98
16650,-26.02
16662,-30.66
16674,-33.97
16686,-35.54
16698,-35.55
16710,-34.71
16722,-33.84
16734,-33.61
16745,-34.34
16756,-36.03
16768,-38.49
16780,-41.45
16792,-44.73
16804,-48.18
16816,-51.54
16828,-54.34
16840,-55.81
16852,-55.0
16864,-51.07
16876,-43.59
16888,-32.77
16900,-19.54
16912,-5.35
16924,8.12
16935,19.38
16946,27.39
16958,31.75
16970,32.68
16982,30.83
16994,27.06
17006,22.21
17018,17.0
17030,11.97
17042,7.58
17054,4.21
17066,2.17
17078,1.65
17090,2.66
17102,4.96
17114,8.2
17125,11.95
17136,15.84
17148,19.55
17160,22.79
17172,25.26
17184,26.73
17196,27.05
17208,26.25
17220,24.58
17232,22.41
17244,20.16
17256,18.14
17268,16.56
17280,15.53
17292,15.07
17304,15.11
17315,15.55
17326,16.13
17338,16.6
17350,16.73
17362,16.38
17374,15.62
17386,14.6
17398,13.52
17410,12.45
17422,11.38
17434,10.15
17446,8.64
17458,6.81
17470,4.75
17482,2.62
17494,0.62
17505,-1.15
17516,-2.72
17528,-4.2
17540,-5.76
17552,-7.6
17564,-9.82
17576,-12.43
17588,-15.25
17600,-17.96
17612,-20.08
17624,-21.09
17636,-20.56
17648,-18.31
17660,-14.47
17672,-9.46
17684,-3.9
17695,1.56
17706,6.38
17718,10.22
17730,12.92
17742,14.5
17754,15.05
17766,14.76
17778,13.89
17790,12.76
17802,11.68
17814,10.91
17826,10.59
17838,10.67
17850,10.97
17862,11.26
17874,11.38
17885,11.26
17896,10.95
17908,10.57
17920,10.17
17932,9.73
17944,9.13
17956,8.26
17968,7.03
17980,5.49
17992,3.73
18004,1.86
18016,-0.05
18028,-2.01
18040,-4.05
18052,-6.2
18064,-8.44
18075,-10.75
18086,-13.07
18098,-15.39
18110,-17.71
18122,-19.98
18134,-22.08
18146,-23.71
18158,-24.49
18170,-23.99
18182,-21.93
18194,-18.31
18206,-13.44
18218,-7.89
18230,-2.29
18242,2.85
18254,7.18
18265,10.59
18276,13.04
18288,14.61
18300,15.37
18312,15.42
18324,14.93
18336,14.09
18348,13.16
18360,12.32
18372,11.76
18384,11.54
18396,11.66
18408,11.99
18420,12.34
18432,12.48
18444,12.27
18455,11.67
18466,10.75
18478,9.65
18490,8.44
18502,7.1
18514,5.53
18526,3.62
18538,1.36
18550,-1.15
18562,-3.69
18574,-6.01
18586,-7.94
18598,-9.43
18610,-10.57
18622,-11.54
18634,-12.61
18645,-13.96
18656,-15.74
18668,-17.94
18680,-20.37
18692,-22.69
18704,-24.41
18716,-25.02
18728,-24.03
18740,-21.21
18752,-16.6
18764,-10.62
18776,-3.91
18788,2.75
18800,8.69
18812,13.44
18824,16.76
18835,18.64
18846,19.2
18858,18.7
18870,17.49
18882,15.97
18894,14.54
18906,13.47
18918,12.92
18930,12.86
18942,13.17
18954,13.67
18966,14.17
18978,14.49
18990,14.49
19002,14.13
19014,13.45
19025,12.53
19036,11.46
19048,10.3
19060,9.01
19072,7.51
19084,5.8
19096,3.91
19108,1.97
19120,0.07
19132,-1.74
19144,-3.46
19156,-5.11
19168,-6.66
19180,-8.13
19192,-9.56
19204,-11.07
19215,-12.84
19226,-15.0
19238,-17.51
19250,-20.07
19262,-22.21
19274,-23.39
19286,-23.19
19298,-21.41
19310,-18.15
19322,-13.76
19334,-8.7
19346,-3.5
19358,1.38
19370,5.58
19382,8.81
19394,10.91
19405,11.84
19416,11.66
19428,10.59
19440,8.98
19452,7.26
19464,5.8
19476,4.93
19488,4.75
19500,5.2
19512,6.06
19524,7.06
19536,7.93
19548,8.51
19560,8.72
19572,8.59
19584,8.21
19595,7.64
19606,6.96
19618,6.19
19630,5.31
19642,4.27
19654,3.03
19666,1.58
19678,-0.04
19690,-1.73
19702,-3.4
19714,-5.01
19726,-6.59
19738,-8.2
19750,-9.95
19762,-11.86
19774,-13.92
19785,-16.06
19796,-18.13
19808,-19.93
19820,-21.21
19832,-21.63
19844,-20.81
19856,-18.51
19868,-14.72
19880,-9.77
19892,-4.24
19904,1.16
19916,5.83
19928,9.42
19940,11.82
19952,13.1
19964,13.39
19975,12.86
19986,11.66
19998,10.0
20010,8.16
20022,6.5
20034,5.35
20046,4.89
20058,5.11
20070,5.79
20082,6.64
20094,7.4
20106,7.89
20118,8.07
20130,7.93
20142,7.48
20154,6.74
20165,5.69
20176,4.42
20188,3.0
20200,1.58
20212,0.2
20224,-1.15
20236,-2.54
20248,-4.04
20260,-5.66
20272,-7.38
20284,-9.19
20296,-11.09
20308,-13.09
20320,-15.16
20332,-17.12
20344,-18.7
20355,-19.52
20366,-19.28
20378,-17.79
20390,-15.08
20402,-11.37
20414,-7.01
20426,-2.4
20438,2.04
20450,5.99
20462,9.13
20474,11.26
20486,12.24
20498,12.05
20510,10.82
20522,8.84
20534,6.55
20545,4.45
20556,2.98
20568,2.35
20580,2.47
20592,3.08
20604,3.82
20616,4.45
20628,4.88
20640,5.15
20652,5.3
20664,5.3
20676,4.96
20688,4.11
20700,2.71
20712,0.89
20724,-1.07
20735,-2.87
20746,-4.37
20758,-5.59
20770,-6.73
20782,-7.96
20794,-9.41
20806,-11.07
20818,-12.87
20830,-14.76
20842,-16.73
20854,-18.73
20866,-20.56
20878,-21.87
20890,-22.15
20902,-20.92
20914,-17.89
20925,-13.1
20936,-6.94
20948,-0.05
20960,6.85
20972,13.16
20984,18.47
20996,22.57
