seconds,BVP
3,33.53
15,34.79
26,36.15
37,37.34
49,37.93
61,37.58
73,36.09
85,33.41
97,29.71
109,25.29
121,20.52
133,15.78
145,11.35
157,7.36
169,3.77
181,0.37
193,-3.09
205,-6.87
216,-11.04
227,-15.52
239,-20.04
251,-24.34
263,-28.25
275,-31.77
287,-35.13
299,-38.67
311,-42.82
323,-47.94
335,-54.17
347,-61.3
359,-68.62
371,-75.01
383,-79.01
395,-79.28
406,-74.97
417,-66.08
429,-53.48
441,-38.72
453,-23.51
465,-9.27
477,3.18
489,13.66
501,22.35
513,29.54
525,35.35
537,39.76
549,42.69
561,44.21
573,44.64
585,44.44
596,44.07
607,43.83
619,43.81
631,43.89
643,43.94
655,43.94
667,43.98
679,44.17
691,44.5
703,44.73
715,44.49
727,43.4
739,41.27
751,38.19
763,34.47
775,30.56
786,26.77
797,23.25
809,19.93
821,16.65
833,13.26
845,9.73
857,6.13
869,2.61
881,-0.76
893,-3.96
905,-7.07
917,-10.21
929,-13.48
941,-16.9
953,-20.43
965,-23.99
976,-27.44
987,-30.69
999,-33.74
1011,-36.68
1023,-39.81
1035,-43.53
1047,-48.28
1059,-54.28
1071,-61.31
1083,-68.63
1095,-74.92
1107,-78.61
1119,-78.37
1131,-73.46
1143,-64.1
1155,-51.33
1166,-36.73
1177,-21.9
1189,-8.05
1201,4.13
1213,14.41
1225,22.83
1237,29.47
1249,34.42
1261,37.85
1273,40.0
1285,41.23
1297,41.92
1309,42.4
1321,42.84
1333,43.28
1345,43.66
1356,43.93
1367,44.07
1379,44.09
1391,44.02
1403,43.79
1415,43.28
1427,42.33
1439,40.84
1451,38.8
1463,36.29
1475,33.42
1487,30.24
1499,26.77
1511,23.01
1523,19.03
1535,15.03
1546,11.24
1557,7.86
1569,4.92
1581,2.24
1593,-0.48
1605,-3.52
1617,-6.97
1629,-10.69
1641,-14.4
1653,-17.81
1665,-20.83
1677,-23.58
1689,-26.4
1701,-29.73
1713,-33.99
1725,-39.44
1736,-46.06
1747,-53.45
1759,-60.8
1771,-66.96
1783,-70.63
1795,-70.75
1807,-66.76
1819,-58.85
1831,-47.88
1843,-35.17
1855,-22.11
1867,-9.84
1879,0.95
1891,9.91
1903,17.01
1915,22.31
1926,25.89
1937,27.88
1949,28.52
1961,28.17
1973,27.3
1985,26.43
1997,25.93
2009,25.97
2021,26.53
2033,27.41
2045,28.4
2057,29.32
2069,30.04
2081,30.49
2093,30.62
2105,30.29
2116,29.32
2127,27.58
2139,25.02
2151,21.74
2163,18.06
2175,14.35
2187,11.01
2199,8.24
2211,5.95
2223,3.83
2235,1.43
2247,-1.63
2259,-5.48
2271,-9.94
2283,-14.62
2295,-19.02
2306,-22.88
2317,-26.23
2329,-29.46
2341,-33.15
2353,-37.88
2365,-43.96
2377,-51.24
2389,-59.03
2401,-66.14
2413,-71.18
2425,-72.85
2437,-70.36
2449,-63.67
2461,-53.52
2473,-41.2
2485,-28.15
2496,-15.68
2507,-4.58
2519,4.79
2531,12.45
2543,18.59
2555,23.36
2567,26.86
2579,29.12
2591,30.26
2603,30.47
2615,30.08
2627,29.46
2639,28.96
2651,28.82
2663,29.11
2675,29.81
2686,30.77
2697,31.85
2709,32.9
2721,33.79
2733,34.35
2745,34.43
2757,33.9
2769,32.69
2781,30.82
2793,28.37
2805,25.48
2817,22.27
2829,18.88
2841,15.43
2853,12.03
2865,8.78
2876,5.69
2887,2.69
2899,-0.37
2911,-3.67
2923,-7.31
2935,-11.26
2947,-15.38
2959,-19.5
2971,-23.46
2983,-27.2
2995,-30.74
3007,-34.17
3019,-37.59
3031,-41.16
3043,-45.16
3055,-49.89
3066,-55.57
3077,-62.04
3089,-68.56
3101,-73.86
3113,-76.41
3125,-74.92
3137,-68.83
3149,-58.59
3161,-45.47
3173,-31.18
3185,-17.32
3197,-4.96
3209,5.44
3221,13.98
3233,20.97
3245,26.69
3256,31.25
3267,34.65
3279,36.83
3291,37.89
3303,38.08
3315,37.72
3327,37.2
3339,36.74
3351,36.45
3363,36.36
3375,36.42
3387,36.62
3399,36.98
3411,37.53
3423,38.21
3435,38.84
3446,39.07
3457,38.61
3469,37.23
3481,34.96
3493,32.05
3505,28.88
3517,25.81
3529,22.99
3541,20.39
3553,17.82
3565,15.1
3577,12.12
3589,8.97
3601,5.83
3613,2.86
3625,0.12
3636,-2.49
3647,-5.14
3659,-8.06
3671,-11.37
3683,-15.04
3695,-18.91
3707,-22.74
3719,-26.28
3731,-29.44
3743,-32.32
3755,-35.26
3767,-38.69
3779,-43.04
3791,-48.47
3803,-54.67
3815,-60.76
3826,-65.47
3837,-67.44
3849,-65.61
3861,-59.64
3873,-50.06
3885,-38.09
3897,-25.24
3909,-12.94
3921,-2.12
3933,6.82
3945,13.97
3957,19.58
3969,23.91
3981,27.1
3993,29.19
4005,30.26
4016,30.51
4027,30.3
4039,30.05
4051,30.1
4063,30.52
4075,31.18
4087,31.77
4099,32.03
4111,31.91
4123,31.5
4135,31.03
4147,30.56
4159,29.99
4171,29.02
4183,27.33
4195,24.74
4206,21.37
4217,17.55
4229,13.77
4241,10.45
4253,7.74
4265,5.53
4277,3.45
4289,1.01
4301,-2.13
4313,-6.04
4325,-10.43
4337,-14.82
4349,-18.78
4361,-22.14
4373,-25.07
4385,-28.03
4396,-31.52
4407,-35.92
4419,-41.43
4431,-48.01
4443,-55.41
4455,-63.04
4467,-70.03
4479,-75.16
4491,-77.22
4503,-75.4
4515,-69.67
4527,-60.91
4539,-50.64
4551,-40.48
4563,-31.66
4575,-24.62
4586,-19.12
4597,-14.61
4609,-10.56
4621,-6.73
4633,-3.25
4645,-0.32
4657,1.95
4669,3.72
4681,5.35
4693,7.27
4705,9.77
4717,12.82
4729,16.14
4741,19.28
4753,21.87
4765,23.75
4776,24.98
4787,25.82
4799,26.44
4811,26.87
4823,27.0
4835,26.74
4847,26.17
4859,25.68
4871,25.7
4883,26.44
4895,27.58
4907,28.25
4919,27.38
4931,24.19
4943,18.7
4955,11.79
4966,4.96
4977,-0.3
4989,-3.1
5001,-3.45
5013,-2.2
5025,-0.65
5037,-0.01
5049,-0.98
5061,-3.57
5073,-7.05
5085,-10.2
5097,-11.62
5109,-10.07
5121,-4.73
5133,4.61
5145,17.59
5156,33.37
5167,50.83
5179,68.8
5191,86.27
5203,102.69
5215,118.05
5227,132.86
5239,147.7
5251,162.64
5263,176.67
5275,187.62
5287,192.84
5299,190.23
5311,179.28
5323,161.34
5335,139.16
5346,115.83
5357,93.78
5369,74.53
5381,59.0
5393,48.05
5405,42.67
5417,43.56
5429,50.31
5441,60.85
5453,71.54
5465,78.19
5477,77.34
5489,67.37
5501,48.9
5513,24.37
5525,-3.0
5536,-30.27
5547,-55.69
5559,-78.96
5571,-100.87
5583,-122.52
5595,-144.4
5607,-165.78
5619,-184.62
5631,-198.27
5643,-204.45
5655,-202.25
5667,-192.54
5679,-177.75
5691,-161.05
5703,-145.38
5715,-132.79
5726,-124.1
5737,-119.02
5749,-116.4
5761,-114.55
5773,-111.49
5785,-105.41
5797,-95.01
5809,-80.0
5821,-61.15
5833,-40.15
5845,-19.1
5857,0.14
5869,16.38
5881,29.27
5893,39.09
5905,46.51
5916,52.32
5927,57.29
5939,62.24
5951,67.85
5963,74.5
5975,82.13
5987,90.05
5999,97.22
6011,102.51
6023,105.14
6035,104.92
6047,102.2
6059,97.63
6071,91.78
6083,85.02
6095,77.43
6106,69.0
6117,59.81
6129,50.12
6141,40.24
6153,30.51
6165,21.09
6177,12.06
6189,3.41
6201,-4.9
6213,-12.83
6225,-20.42
6237,-27.7
6249,-34.83
6261,-41.96
6273,-49.21
6285,-56.69
6296,-64.47
6307,-72.66
6319,-81.2
6331,-89.81
6343,-97.81
6355,-104.17
6367,-107.74
6379,-107.69
6391,-103.8
6403,-96.57
6415,-87.04
6427,-76.42
6439,-65.72
6451,-55.64
6463,-46.61
6475,-39.05
6486,-33.47
6497,-30.44
6509,-30.37
6521,-33.3
6533,-38.65
6545,-45.35
6557,-52.1
6569,-57.68
6581,-61.35
6593,-62.95
6605,-62.86
6617,-61.68
6629,-60.03
6641,-58.38
6653,-56.96
6665,-55.85
6676,-55.06
6687,-54.59
6699,-54.44
6711,-54.64
6723,-55.18
6735,-56.1
6747,-57.41
6759,-59.03
6771,-60.84
6783,-62.66
6795,-64.4
6807,-66.05
6819,-67.75
6831,-69.74
6843,-72.29
6855,-75.63
6866,-79.86
6877,-84.91
6889,-90.43
6901,-95.72
6913,-99.66
6925,-100.89
6937,-98.12
6949,-90.55
6961,-78.21
6973,-62.03
6985,-43.57
6997,-24.64
7009,-6.73
7021,9.27
7033,23.1
7045,34.88
7056,44.92
7067,53.38
7079,60.31
7091,65.67
7103,69.55
7115,72.2
7127,74.06
7139,75.55
7151,76.99
7163,78.54
7175,80.18
7187,81.74
7199,83.0
7211,83.74
7223,83.74
7235,82.91
7246,81.24
7257,78.86
7269,75.99
7281,72.84
7293,69.51
7305,65.98
7317,62.11
7329,57.8
7341,53.1
7353,48.19
7365,43.32
7377,38.59
7389,33.96
7401,29.14
7413,23.74
7425,17.43
7436,10.01
7447,1.42
7459,-8.15
7471,-18.33
7483,-28.38
7495,-37.28
7507,-43.72
7519,-46.47
7531,-44.72
7543,-38.49
7555,-28.69
7567,-16.87
7579,-4.86
7591,5.79
7603,14.14
7615,19.93
7626,23.46
7637,25.2
7649,25.63
7661,25.01
7673,23.54
7685,21.44
7697,19.17
7709,17.33
7721,16.53
7733,17.24
7745,19.53
7757,23.09
7769,27.38
7781,31.85
7793,36.06
7805,39.8
7816,42.95
7827,45.41
7839,47.02
7851,47.6
7863,47.04
7875,45.32
7887,42.6
7899,39.13
7911,35.16
7923,30.78
7935,25.92
7947,20.31
7959,13.73
7971,6.15
7983,-2.15
7995,-10.64
8006,-18.78
8017,-26.28
8029,-33.26
8041,-40.21
8053,-47.69
8065,-55.96
8077,-64.68
8089,-72.79
8101,-78.85
8113,-81.38
8125,-79.36
8137,-72.55
8149,-61.49
8161,-47.33
8173,-31.46
8185,-15.26
8196,0.16
8207,13.95
8219,25.48
8231,34.33
8243,40.33
8255,43.61
8267,44.66
8279,44.31
8291,43.48
8303,42.93
8315,43.1
8327,44.06
8339,45.61
8351,47.45
8363,49.36
8375,51.17
8386,52.72
8397,53.83
8409,54.26
8421,53.8
8433,52.36
8445,50.06
8457,47.15
8469,43.94
8481,40.61
8493,37.25
8505,33.76
8517,30.01
8529,25.92
8541,21.49
8553,16.76
8565,11.89
8576,6.91
8587,1.82
8599,-3.49
8611,-9.27
8623,-15.81
8635,-23.34
8647,-31.84
8659,-40.85
8671,-49.36
8683,-56.04
8695,-59.52
8707,-58.82
8719,-53.66
8731,-44.57
8743,-32.67
8755,-19.37
8766,-5.98
8777,6.44
8789,17.2
8801,25.88
8813,32.34
8825,36.64
8837,38.97
8849,39.73
8861,39.35
8873,38.34
8885,37.14
8897,36.13
8909,35.51
8921,35.33
8933,35.49
8945,35.82
8956,36.15
8967,36.34
8979,36.3
8991,35.98
9003,35.29
9015,34.13
9027,32.41
9039,30.0
9051,26.83
9063,22.9
9075,18.3
9087,13.24
9099,8.0
9111,2.93
9123,-1.71
9135,-5.83
9146,-9.58
9157,-13.3
9169,-17.42
9181,-22.32
9193,-28.14
9205,-34.66
9217,-41.22
9229,-46.82
9241,-50.28
9253,-50.53
9265,-46.89
9277,-39.35
9289,-28.55
9301,-15.68
9313,-2.12
9325,10.82
9336,22.25
9347,31.71
9359,39.09
9371,44.46
9383,47.98
9395,49.77
9407,50.02
9419,48.97
9431,47.02
9443,44.6
9455,42.11
9467,39.83
9479,37.9
9491,36.36
9503,35.18
9515,34.35
9526,33.78
9537,33.35
9549,32.79
9561,31.8
9573,30.11
9585,27.61
9597,24.34
9609,20.47
9621,16.22
9633,11.7
9645,6.99
9657,2.12
9669,-2.88
9681,-7.9
9693,-12.76
9705,-17.34
9716,-21.59
9727,-25.6
9739,-29.54
9751,-33.67
9763,-38.24
9775,-43.43
9787,-49.33
9799,-55.84
9811,-62.55
9823,-68.66
9835,-73.03
9847,-74.43
9859,-71.88
9871,-64.99
9883,-54.18
9895,-40.6
9906,-25.8
9917,-11.32
9929,1.71
9941,12.71
9953,21.56
9965,28.45
9977,33.58
9989,37.1
10001,39.15
10013,39.89
10025,39.59
10037,38.64
10049,37.43
10061,36.22
10073,35.17
10085,34.27
10096,33.48
10107,32.79
10119,32.22
10131,31.87
10143,31.79
10155,31.96
10167,32.19
10179,32.18
10191,31.54
10203,29.96
10215,27.28
10227,23.62
10239,19.3
10251,14.79
10263,10.46
10275,6.5
10286,2.84
10297,-0.74
10309,-4.5
10321,-8.52
10333,-12.72
10345,-16.92
10357,-20.9
10369,-24.54
10381,-27.84
10393,-30.86
10405,-33.75
10417,-36.72
10429,-40.06
10441,-44.05
10453,-48.88
10465,-54.39
10476,-59.97
10487,-64.57
10499,-66.95
10511,-66.03
10523,-61.19
10535,-52.57
10547,-40.96
10559,-27.63
10571,-13.97
10583,-1.23
10595,9.68
10607,18.34
10619,24.64
10631,28.78
10643,31.06
10655,31.77
10666,31.23
10677,29.74
10689,27.66
10701,25.4
10713,23.37
10725,21.81
10737,20.82
10749,20.33
10761,20.14
10773,20.11
10785,20.18
10797,20.36
10809,20.67
10821,21.03
10833,21.23
10845,20.98
10856,19.99
10867,18.07
10879,15.21
10891,11.65
10903,7.76
10915,3.92
10927,0.43
10939,-2.63
10951,-5.38
10963,-8.03
10975,-10.79
10987,-13.75
10999,-16.82
11011,-19.82
11023,-22.59
11035,-25.03
11046,-27.16
11057,-29.11
11069,-31.09
11081,-33.4
11093,-36.33
11105,-40.06
11117,-44.51
11129,-49.16
11141,-53.13
11153,-55.36
11165,-54.87
11177,-51.14
11189,-44.17
11201,-34.54
11213,-23.2
11225,-11.21
11236,0.39
11247,10.75
11259,19.28
11271,25.67
11283,29.87
11295,32.07
11307,32.64
11319,32.02
11331,30.61
11343,28.73
11355,26.64
11367,24.53
11379,22.66
11391,21.23
11403,20.43
11415,20.32
11426,20.81
11437,21.66
11449,22.58
11461,23.25
11473,23.45
11485,23.02
11497,21.85
11509,19.91
11521,17.19
11533,13.79
11545,9.84
11557,5.51
11569,0.98
11581,-3.57
11593,-8.0
11605,-12.16
11616,-15.98
11627,-19.38
11639,-22.41
11651,-25.2
11663,-27.96
11675,-30.94
11687,-34.39
11699,-38.41
11711,-42.95
11723,-47.6
11735,-51.67
11747,-54.2
11759,-54.26
11771,-51.2
11783,-44.92
11795,-35.93
11806,-25.21
11817,-13.97
11829,-3.35
11841,5.86
11853,13.22
11865,18.58
11877,21.98
11889,23.55
11901,23.52
11913,22.22
11925,20.08
11937,17.53
11949,14.94
11961,12.56
11973,10.56
11985,9.04
11996,8.07
12007,7.66
12019,7.68
12031,7.91
12043,8.02
12055,7.74
12067,6.96
12079,5.77
12091,4.37
12103,2.92
12115,1.43
12127,-0.27
12139,-2.39
12151,-5.11
12163,-8.41
12175,-12.12
12186,-15.97
12197,-19.76
12209,-23.31
12221,-26.55
12233,-29.51
12245,-32.28
12257,-35.1
12269,-38.29
12281,-42.18
12293,-46.99
12305,-52.58
12317,-58.34
12329,-63.21
12341,-65.93
12353,-65.38
12365,-60.96
12376,-52.79
12387,-41.68
12399,-28.86
12411,-15.67
12423,-3.16
12435,7.92
12447,17.21
12459,24.52
12471,29.79
12483,33.1
12495,34.65
12507,34.77
12519,33.92
12531,32.5
12543,30.79
12555,29.02
12566,27.31
12577,25.81
12589,24.68
12601,24.07
12613,23.98
12625,24.31
12637,24.83
12649,25.24
12661,25.29
12673,24.77
12685,23.59
12697,21.69
12709,19.12
12721,16.03
12733,12.6
12745,9.01
12756,5.33
12767,1.53
12779,-2.54
12791,-6.99
12803,-11.77
12815,-16.64
12827,-21.26
12839,-25.34
12851,-28.81
12863,-31.92
12875,-35.18
12887,-39.1
12899,-44.04
12911,-49.97
12923,-56.46
12935,-62.69
12946,-67.67
12957,-70.34
12969,-69.8
12981,-65.52
12993,-57.46
13005,-46.14
13017,-32.55
13029,-17.97
13041,-3.75
13053,9.03
13065,19.65
13077,27.8
13089,33.47
13101,36.87
13113,38.29
13125,38.09
13136,36.71
13147,34.66
13159,32.44
13171,30.49
13183,29.05
13195,28.17
13207,27.79
13219,27.82
13231,28.23
13243,29.04
13255,30.21
13267,31.63
13279,32.99
13291,33.86
13303,33.85
13315,32.76
13326,30.61
13337,27.6
13349,24.08
13361,20.33
13373,16.52
13385,12.66
13397,8.65
13409,4.43
13421,-0.04
13433,-4.67
13445,-9.36
13457,-13.96
13469,-18.41
13481,-22.66
13493,-26.71
13505,-30.7
13516,-34.86
13527,-39.49
13539,-44.77
13551,-50.55
13563,-56.2
13575,-60.57
13587,-62.37
13599,-60.48
13611,-54.41
13623,-44.42
13635,-31.52
13647,-17.15
13659,-2.8
13671,10.31
13683,21.33
13695,29.84
13706,35.76
13717,39.2
13729,40.42
13741,39.78
13753,37.75
13765,34.84
13777,31.64
13789,28.7
13801,26.45
13813,25.17
13825,24.94
13837,25.68
13849,27.12
13861,28.93
13873,30.72
13885,32.17
13896,33.02
13907,33.16
13919,32.57
13931,31.31
13943,29.38
13955,26.81
13967,23.6
13979,19.81
13991,15.58
14003,11.12
14015,6.7
14027,2.53
14039,-1.28
14051,-4.77
14063,-8.13
14075,-11.62
14086,-15.55
14097,-20.15
14109,-25.55
14121,-31.7
14133,-38.23
14145,-44.48
14157,-49.46
14169,-52.1
14181,-51.43
14193,-46.98
14205,-38.96
14217,-28.18
14229,-15.91
14241,-3.47
14253,8.07
14265,18.01
14276,26.04
14287,32.09
14299,36.12
14311,38.12
14323,38.12
14335,36.31
14347,33.18
14359,29.45
14371,25.92
14383,23.26
14395,21.78
14407,21.36
14419,21.59
14431,22.01
14443,22.29
14455,22.27
14466,21.98
14477,21.4
14489,20.42
14501,18.8
14513,16.29
14525,12.76
14537,8.33
14549,3.3
14561,-1.93
14573,-7.02
14585,-11.75
14597,-16.07
14609,-20.02
14621,-23.78
14633,-27.52
14645,-31.47
14656,-35.87
14667,-40.91
14679,-46.67
14691,-53.01
14703,-59.41
14715,-64.9
14727,-68.28
14739,-68.3
14751,-64.17
14763,-55.74
14775,-43.64
14787,-29.09
14799,-13.61
14811,1.39
14823,14.82
14835,26.01
14846,34.66
14857,40.69
14869,44.18
14881,45.33
14893,44.49
14905,42.11
14917,38.81
14929,35.19
14941,31.79
14953,28.97
14965,26.88
14977,25.46
14989,24.54
15001,23.95
15013,23.55
15025,23.22
15036,22.86
15047,22.27
15059,21.25
15071,19.65
15083,17.41
15095,14.66
15107,11.56
15119,8.2
15131,4.6
15143,0.67
15155,-3.66
15167,-8.29
15179,-13.02
15191,-17.56
15203,-21.77
15215,-25.63
15226,-29.37
15237,-33.27
15249,-37.64
15261,-42.7
15273,-48.53
15285,-55.01
15297,-61.71
15309,-67.78
15321,-72.04
15333,-73.24
15345,-70.4
15357,-63.21
15369,-52.15
15381,-38.4
15393,-23.53
15405,-9.06
15416,3.86
15427,14.55
15439,22.83
15451,28.81
15463,32.72
15475,34.86
15487,35.59
15499,35.29
15511,34.46
15523,33.53
15535,32.87
15547,32.61
15559,32.71
15571,33.03
15583,33.4
15595,33.79
15606,34.23
15617,34.75
15629,35.25
15641,35.48
15653,35.09
15665,33.76
15677,31.39
15689,28.14
15701,24.36
15713,20.45
15725,16.72
15737,13.26
15749,9.94
15761,6.49
15773,2.6
15785,-1.87
15796,-6.89
15807,-12.21
15819,-17.49
15831,-22.4
15843,-26.84
15855,-30.97
15867,-35.17
15879,-39.95
15891,-45.61
15903,-52.15
15915,-59.02
15927,-65.16
15939,-69.24
15951,-69.99
15963,-66.54
15975,-58.74
15986,-47.2
15997,-33.17
16009,-18.16
16021,-3.64
16033,9.3
16045,19.96
16057,28.13
16069,33.85
16081,37.36
16093,38.94
16105,38.9
16117,37.64
16129,35.57
16141,33.15
16153,30.82
16165,28.91
16176,27.59
16187,26.93
16199,26.91
16211,27.49
16223,28.59
16235,30.06
16247,31.67
16259,33.03
16271,33.77
16283,33.57
16295,32.34
16307,30.17
16319,27.28
16331,23.94
16343,20.29
16355,16.39
16366,12.23
16377,7.82
16389,3.27
16401,-1.26
16413,-5.51
16425,-9.21
16437,-12.19
16449,-14.47
16461,-16.29
16473,-18.12
16485,-20.53
16497,-24.0
16509,-28.68
16521,-34.27
16533,-40.0
16545,-44.68
16556,-47.08
16567,-46.18
16579,-41.52
16591,-33.37
16603,-22.65
16615,-10.69
16627,1.11
16639,11.7
16651,20.54
16663,27.55
16675,32.83
16687,36.52
16699,38.63
16711,39.11
16723,38.04
16735,35.78
16746,32.96
16757,30.3
16769,28.39
16781,27.48
16793,27.41
16805,27.76
16817,28.06
16829,27.91
16841,27.14
16853,25.71
16865,23.71
16877,21.2
16889,18.23
16901,14.83
16913,10.92
16925,6.49
16936,1.56
16947,-3.68
16959,-8.87
16971,-13.57
16983,-17.4
16995,-20.23
17007,-22.21
17019,-23.8
17031,-25.59
17043,-28.09
17055,-31.69
17067,-36.53
17079,-42.52
17091,-49.33
17103,-56.3
17115,-62.38
17126,-66.21
17137,-66.43
17149,-62.07
17161,-52.94
17173,-39.77
17185,-24.03
17197,-7.61
17209,7.75
17221,20.78
17233,30.84
17245,37.81
17257,42.0
17269,43.83
17281,43.81
17293,42.43
17305,40.16
17316,37.48
17327,34.86
17339,32.72
17351,31.33
17363,30.78
17375,30.9
17387,31.35
17399,31.7
17411,31.61
17423,30.89
17435,29.53
17447,27.62
17459,25.31
17471,22.78
17483,20.21
17495,17.73
17506,15.43
17517,13.27
17529,11.1
17541,8.67
17553,5.79
17565,2.3
17577,-1.81
17589,-6.41
17601,-11.32
17613,-16.37
17625,-21.49
17637,-26.77
17649,-32.42
17661,-38.75
17673,-46.02
17685,-54.19
17696,-62.81
17707,-70.89
17719,-76.98
17731,-79.58
17743,-77.51
17755,-70.3
17767,-58.38
17779,-43.0
17791,-25.9
17803,-8.87
17815,6.61
17827,19.58
17839,29.62
17851,36.72
17863,41.13
17875,43.24
17886,43.46
17897,42.27
17909,40.12
17921,37.4
17933,34.45
17945,31.53
17957,28.9
17969,26.77
17981,25.4
17993,24.95
18005,25.41
18017,26.58
18029,28.08
18041,29.4
18053,30.05
18065,29.75
18076,28.43
18087,26.22
18099,23.31
18111,19.92
18123,16.1
18135,11.84
18147,7.12
18159,1.97
18171,-3.46
18183,-8.93
18195,-14.16
18207,-18.93
18219,-23.14
18231,-26.87
18243,-30.29
18255,-33.7
18266,-37.4
18277,-41.72
18289,-46.92
18301,-53.01
18313,-59.61
18325,-65.81
18337,-70.26
18349,-71.45
18361,-68.15
18373,-59.85
18385,-47.02
18397,-31.02
18409,-13.73
18421,2.96
18433,17.59
18445,29.36
18456,38.11
18467,44.02
18479,47.39
18491,48.54
18503,47.74
18515,45.37
18527,41.94
18539,38.12
18551,34.62
18563,31.97
18575,30.5
18587,30.27
18599,31.1
18611,32.66
18623,34.52
18635,36.23
18646,37.33
18657,37.48
18669,36.5
18681,34.42
18693,31.45
18705,27.86
18717,23.89
18729,19.69
18741,15.28
18753,10.72
18765,6.01
18777,1.26
18789,-3.41
18801,-7.89
18813,-12.11
18825,-16.03
18836,-19.72
18847,-23.37
18859,-27.31
18871,-31.93
18883,-37.55
18895,-44.16
18907,-51.25
18919,-57.75
18931,-62.23
18943,-63.26
18955,-59.89
18967,-51.92
18979,-40.03
18991,-25.58
19003,-10.26
19015,4.39
19026,17.18
19037,27.45
19049,34.94
19061,39.66
19073,41.78
19085,41.56
19097,39.36
19109,35.73
19121,31.34
19133,26.89
19145,23.04
19157,20.2
19169,18.57
19181,18.1
19193,18.53
19205,19.46
19216,20.43
19227,21.1
19239,21.23
19251,20.82
19263,19.94
19275,18.66
19287,16.92
19299,14.52
19311,11.27
19323,7.1
19335,2.19
19347,-3.06
19359,-8.1
19371,-12.57
19383,-16.3
19395,-19.45
19406,-22.37
19417,-25.47
19429,-29.11
19441,-33.57
19453,-38.96
19465,-45.27
19477,-52.16
19489,-58.95
19501,-64.58
19513,-67.75
19525,-67.22
19537,-62.22
19549,-52.73
19561,-39.52
19573,-23.96
19585,-7.63
19596,8.07
19607,22.21
19619,34.35
19631,44.35
19643,52.17
19655,57.69
19667,60.71
19679,61.1
19691,59.06
19703,55.24
19715,50.72
19727,46.75
19739,44.44
19751,44.49
19763,47.21
19775,52.6
19786,60.49
19797,70.63
19809,82.66
19821,95.87
19833,109.24
19845,121.51
19857,131.45
19869,138.27
19881,141.84
19893,142.73
19905,141.94
19917,140.46
19929,138.72
19941,136.19
19953,131.27
19965,121.62
19976,104.84
19987,79.3
19999,44.9
20011,3.34
20023,-42.29
20035,-88.11
20047,-130.39
20059,-166.21
20071,-193.81
20083,-212.63
20095,-223.2
20107,-226.97
20119,-226.02
20131,-222.67
20143,-218.73
20155,-215.02
20166,-210.88
20177,-204.54
20189,-193.9
20201,-177.52
20213,-155.39
20225,-129.06
20237,-101.08
20249,-74.11
20261,-50.11
20273,-29.94
20285,-13.58
20297,-0.55
20309,9.69
20321,17.47
20333,23.02
20345,26.65
20356,28.85
20367,30.2
20379,31.25
20391,32.29
20403,33.33
20415,34.2
20427,34.75
20439,34.99
20451,35.11
20463,35.33
20475,35.77
20487,36.34
20499,36.77
20511,36.7
20523,35.86
20535,34.16
20546,31.68
20557,28.65
20569,25.27
20581,21.72
20593,18.0
20605,14.09
20617,9.89
20629,5.37
20641,0.58
20653,-4.34
20665,-9.14
20677,-13.63
20689,-17.67
20701,-21.35
20713,-24.94
20725,-28.93
20736,-33.75
20747,-39.62
20759,-46.26
20771,-52.79
20783,-57.84
20795,-59.94
20807,-57.88
20819,-51.22
20831,-40.35
20843,-26.48
20855,-11.24
20867,3.74
20879,17.15
20891,28.19
20903,36.58
20915,42.42
20926,46.03
20937,47.79
20949,48.07
20961,47.23
20973,45.62
20985,43.62
20997,41.62
