seconds,BVP
9,2.09
21,-1.82
33,-6.46
45,-11.74
56,-17.27
67,-22.52
79,-27.09
91,-30.91
103,-34.23
115,-37.46
127,-41.07
139,-45.37
151,-50.48
163,-56.33
175,-62.55
187,-68.41
199,-72.83
211,-74.52
223,-72.37
235,-65.79
246,-55.11
257,-41.41
269,-26.28
281,-11.36
293,2.12
305,13.51
317,22.66
329,29.69
341,34.75
353,38.03
365,39.7
377,40.08
389,39.66
401,39.04
413,38.72
425,38.98
436,39.78
447,40.84
459,41.72
471,42.15
483,42.0
495,41.43
507,40.71
519,40.07
531,39.53
543,38.88
555,37.73
567,35.62
579,32.27
591,27.67
603,22.1
615,16.12
626,10.37
637,5.42
649,1.66
661,-0.93
673,-2.82
685,-4.92
697,-8.35
709,-14.02
721,-22.25
733,-32.49
745,-43.49
757,-53.67
769,-61.61
781,-66.5
793,-68.29
805,-67.59
816,-65.32
827,-62.5
839,-60.02
851,-58.46
863,-58.05
875,-58.5
887,-59.02
899,-58.38
911,-55.22
923,-48.49
935,-37.75
947,-23.4
959,-6.58
971,11.11
983,27.95
995,42.53
1006,53.92
1017,61.74
1029,66.08
1041,67.31
1053,65.98
1065,62.66
1077,57.88
1089,52.09
1101,45.78
1113,39.47
1125,33.84
1137,29.62
1149,27.53
1161,28.06
1173,31.31
1185,36.89
1196,43.86
1207,50.78
1219,55.95
1231,57.76
1243,55.07
1255,47.66
1267,36.35
1279,22.8
1291,8.98
1303,-3.43
1315,-13.5
1327,-21.21
1339,-27.11
1351,-31.86
1363,-35.83
1375,-39.0
1386,-41.06
1397,-41.76
1409,-41.02
1421,-39.04
1433,-36.15
1445,-32.7
1457,-28.99
1469,-25.18
1481,-21.33
1493,-17.27
1505,-12.53
1517,-6.22
1529,2.76
1541,15.49
1553,32.63
1565,54.12
1576,79.18
1587,106.46
1599,134.4
1611,161.64
1623,187.16
1635,210.44
1647,231.32
1659,249.97
1671,266.85
1683,282.48
1695,297.09
1707,310.27
1719,320.65
1731,326.1
1743,324.33
1755,313.88
1766,294.74
1777,268.56
1789,238.1
1801,206.25
1813,175.09
1825,145.47
1837,117.02
1849,88.73
1861,59.48
1873,28.42
1885,-4.79
1897,-39.89
1909,-75.9
1921,-111.1
1933,-143.22
1945,-169.95
1956,-189.6
1967,-201.65
1979,-206.96
1991,-207.48
2003,-205.59
2015,-203.4
2027,-202.24
2039,-202.59
2051,-204.38
2063,-207.39
2075,-211.62
2087,-217.46
2099,-225.47
2111,-235.94
2123,-248.52
2135,-262.01
2146,-274.54
2157,-284.11
2169,-289.22
2181,-289.41
2193,-285.37
2205,-278.59
2217,-270.74
2229,-262.88
2241,-255.08
2253,-246.4
2265,-235.38
2277,-220.73
2289,-201.86
2301,-179.23
2313,-154.11
2325,-128.13
2336,-102.77
2347,-79.03
2359,-57.41
2371,-38.16
2383,-21.65
2395,-8.44
2407,0.9
2419,6.18
2431,7.87
2443,7.16
2455,5.57
2467,4.39
2479,4.09
2491,4.18
2503,3.45
2515,0.61
2526,-4.97
2537,-12.85
2549,-21.6
2561,-29.43
2573,-35.05
2585,-38.2
2597,-39.59
2609,-40.36
2621,-41.13
2633,-41.53
2645,-40.34
2657,-36.28
2669,-28.84
2681,-18.82
2693,-8.02
2705,1.42
2716,7.9
2727,10.78
2739,10.33
2751,7.51
2763,3.67
2775,0.5
2787,-0.03
2799,3.97
2811,13.78
2823,29.52
2835,49.94
2847,72.96
2859,96.48
2871,119.25
2883,141.07
2895,162.33
2906,183.26
2917,203.26
2929,221.08
2941,235.41
2953,245.6
2965,251.81
2977,254.43
2989,253.27
3001,247.13
3013,234.17
3025,212.99
3037,183.78
3049,148.69
3061,111.15
3073,74.59
3085,41.1
3096,11.0
3107,-16.7
3119,-43.32
3131,-69.56
3143,-95.11
3155,-118.94
3167,-139.8
3179,-156.64
3191,-168.8
3203,-176.04
3215,-178.45
3227,-176.45
3239,-170.78
3251,-162.45
3263,-152.53
3275,-141.93
3286,-131.18
3297,-120.39
3309,-109.32
3321,-97.66
3333,-85.26
3345,-72.33
3357,-59.52
3369,-47.77
3381,-38.08
3393,-31.27
3405,-27.64
3417,-26.73
3429,-27.26
3441,-27.41
3453,-25.23
3465,-19.24
3476,-8.96
3487,4.98
3499,21.1
3511,37.56
3523,52.69
3535,65.41
3547,75.21
3559,82.08
3571,86.27
3583,88.04
3595,87.64
3607,85.34
3619,81.44
3631,76.35
3643,70.5
3655,64.35
3666,58.22
3677,52.34
3689,46.89
3701,42.07
3713,38.09
3725,35.16
3737,33.26
3749,32.05
3761,30.94
3773,29.26
3785,26.53
3797,22.68
3809,18.05
3821,13.18
3833,8.59
3845,4.52
3856,0.97
3867,-2.22
3879,-5.25
3891,-8.18
3903,-11.02
3915,-13.66
3927,-16.04
3939,-18.09
3951,-19.9
3963,-21.6
3975,-23.49
3987,-25.99
3999,-29.45
4011,-34.1
4023,-39.69
4035,-45.49
4046,-50.34
4057,-52.85
4069,-51.81
4081,-46.57
4093,-37.22
4105,-24.56
4117,-9.94
4129,5.17
4141,19.46
4153,31.97
4165,42.09
4177,49.54
4189,54.25
4201,56.36
4213,56.22
4225,54.36
4236,51.52
4247,48.44
4259,45.77
4271,44.02
4283,43.4
4295,43.9
4307,45.27
4319,47.09
4331,48.79
4343,49.74
4355,49.42
4367,47.45
4379,43.76
4391,38.53
4403,32.14
4415,24.98
4426,17.38
4437,9.44
4449,1.09
4461,-7.75
4473,-17.01
4485,-26.27
4497,-34.77
4509,-41.55
4521,-45.88
4533,-47.51
4545,-46.89
4557,-45.11
4569,-43.64
4581,-43.83
4593,-46.46
4605,-51.4
4616,-57.46
4627,-62.66
4639,-64.75
4651,-61.72
4663,-52.44
4675,-36.87
4687,-16.1
4699,8.05
4711,33.5
4723,58.46
4735,81.79
4747,103.04
4759,122.32
4771,140.04
4783,156.55
4795,172.03
4806,186.52
4817,200.07
4829,212.94
4841,225.54
4853,238.17
4865,250.63
4877,261.95
4889,270.51
4901,274.46
4913,272.34
4925,263.49
4937,248.16
4949,227.19
4961,201.7
4973,172.8
4985,141.52
4996,108.9
5007,76.05
5019,44.09
5031,13.89
5043,-14.05
5055,-39.67
5067,-63.18
5079,-84.82
5091,-104.77
5103,-123.22
5115,-140.43
5127,-156.69
5139,-172.21
5151,-186.87
5163,-200.16
5175,-211.31
5186,-219.69
5197,-225.18
5209,-228.32
5221,-230.22
5233,-232.0
5245,-234.31
5257,-236.76
5269,-237.86
5281,-235.29
5293,-226.65
5305,-210.23
5317,-185.72
5329,-154.38
5341,-118.66
5353,-81.48
5365,-45.31
5376,-11.74
5387,18.59
5399,45.63
5411,69.52
5423,90.39
5435,108.51
5447,124.45
5459,139.17
5471,153.8
5483,169.23
5495,185.78
5507,203.01
5519,219.94
5531,235.2
5543,247.34
5555,254.97
5566,256.99
5577,252.72
5589,242.03
5601,225.41
5613,203.79
5625,178.3
5637,150.17
5649,120.77
5661,91.77
5673,65.11
5685,42.67
5697,25.59
5709,13.69
5721,5.28
5733,-2.28
5745,-11.63
5756,-24.35
5767,-40.48
5779,-58.67
5791,-76.93
5803,-93.57
5815,-107.62
5827,-119.06
5839,-128.39
5851,-136.25
5863,-143.03
5875,-148.87
5887,-153.77
5899,-157.84
5911,-161.53
5923,-165.63
5935,-170.94
5946,-177.81
5957,-185.6
5969,-192.57
5981,-196.28
5993,-194.43
6005,-185.89
6017,-171.18
6029,-152.25
6041,-131.68
6053,-111.53
6065,-92.67
6077,-74.75
6089,-56.91
6101,-38.65
6113,-20.42
6125,-3.54
6136,10.42
6147,20.46
6159,26.67
6171,30.22
6183,32.82
6195,35.99
6207,40.47
6219,46.08
6231,52.09
6243,57.69
6255,62.46
6267,66.4
6279,69.65
6291,72.09
6303,73.28
6315,72.58
6326,69.59
6337,64.56
6349,58.35
6361,52.11
6373,46.77
6385,42.59
6397,39.01
6409,34.92
6421,29.12
6433,20.75
6445,9.6
6457,-3.9
6469,-18.91
6481,-34.5
6493,-49.95
6505,-64.91
6516,-79.37
6527,-93.5
6539,-107.51
6551,-121.5
6563,-135.51
6575,-149.46
6587,-163.02
6599,-175.49
6611,-185.65
6623,-191.8
6635,-192.24
6647,-185.89
6659,-172.78
6671,-154.26
6683,-132.55
6695,-110.0
6706,-88.33
6717,-68.35
6729,-50.09
6741,-33.35
6753,-18.22
6765,-5.2
6777,5.07
6789,12.26
6801,16.7
6813,19.35
6825,21.4
6837,23.9
6849,27.3
6861,31.42
6873,35.59
6885,38.96
6896,40.72
6907,40.3
6919,37.48
6931,32.36
6943,25.25
6955,16.59
6967,6.89
6979,-3.37
6991,-13.82
7003,-24.16
7015,-34.24
7027,-43.98
7039,-53.37
7051,-62.39
7063,-70.99
7075,-79.13
7086,-86.82
7097,-94.09
7109,-100.97
7121,-107.42
7133,-113.21
7145,-117.96
7157,-121.11
7169,-122.09
7181,-120.38
7193,-115.57
7205,-107.47
7217,-96.08
7229,-81.79
7241,-65.35
7253,-47.9
7265,-30.63
7276,-14.62
7287,-0.42
7299,11.88
7311,22.56
7323,31.9
7335,40.01
7347,46.74
7359,51.96
7371,55.72
7383,58.43
7395,60.68
7407,63.08
7419,65.93
7431,69.17
7443,72.5
7455,75.61
7466,78.27
7477,80.41
7489,82.02
7501,82.99
7513,83.12
7525,82.11
7537,79.77
7549,76.05
7561,71.17
7573,65.53
7585,59.6
7597,53.75
7609,48.13
7621,42.64
7633,36.93
7645,30.65
7656,23.62
7667,16.0
7679,8.16
7691,0.62
7703,-6.26
7715,-12.47
7727,-18.34
7739,-24.42
7751,-31.23
7763,-39.05
7775,-47.8
7787,-57.03
7799,-65.86
7811,-73.14
7823,-77.59
7835,-77.98
7846,-73.51
7857,-64.13
7869,-50.62
7881,-34.42
7893,-17.24
7905,-0.51
7917,14.88
7929,28.64
7941,40.74
7953,51.1
7965,59.44
7977,65.35
7989,68.64
8001,69.53
8013,68.76
8025,67.31
8036,66.11
8047,65.63
8059,65.89
8071,66.55
8083,67.18
8095,67.56
8107,67.71
8119,67.81
8131,68.03
8143,68.34
8155,68.56
8167,68.29
8179,67.19
8191,64.99
8203,61.69
8215,57.48
8226,52.71
8237,47.71
8249,42.68
8261,37.64
8273,32.42
8285,26.81
8297,20.67
8309,14.04
8321,7.22
8333,0.6
8345,-5.38
8357,-10.5
8369,-14.75
8381,-18.45
8393,-22.1
8405,-26.29
8416,-31.55
8427,-38.23
8439,-46.31
8451,-55.32
8463,-64.26
8475,-71.64
8487,-75.76
8499,-75.17
8511,-69.08
8523,-57.68
8535,-42.15
8547,-24.34
8559,-6.22
8571,10.58
8583,25.03
8595,36.72
8606,45.66
8617,52.08
8629,56.22
8641,58.39
8653,58.92
8665,58.26
8677,56.94
8689,55.46
8701,54.25
8713,53.58
8725,53.5
8737,53.91
8749,54.63
8761,55.49
8773,56.4
8785,57.27
8796,57.96
8807,58.21
8819,57.6
8831,55.7
8843,52.29
8855,47.48
8867,41.75
8879,35.77
8891,30.17
8903,25.26
8915,20.96
8927,16.9
8939,12.68
8951,8.12
8963,3.38
8975,-1.12
8986,-4.94
8997,-7.87
9009,-10.0
9021,-11.76
9033,-13.71
9045,-16.49
9057,-20.55
9069,-26.05
9081,-32.7
9093,-39.68
9105,-45.67
9117,-49.06
9129,-48.45
9141,-43.06
9153,-33.04
9165,-19.48
9176,-4.08
9187,11.39
9199,25.5
9211,37.37
9223,46.62
9235,53.25
9247,57.38
9259,59.14
9271,58.73
9283,56.48
9295,52.85
9307,48.49
9319,44.12
9331,40.38
9343,37.76
9355,36.41
9366,36.2
9377,36.75
9389,37.57
9401,38.16
9413,38.12
9425,37.14
9437,35.08
9449,31.93
9461,27.81
9473,22.96
9485,17.67
9497,12.18
9509,6.55
9521,0.7
9533,-5.5
9545,-12.15
9556,-19.14
9567,-26.17
9579,-32.8
9591,-38.73
9603,-43.87
9615,-48.47
9627,-52.91
9639,-57.62
9651,-62.87
9663,-68.64
9675,-74.53
9687,-79.8
9699,-83.41
9711,-84.26
9723,-81.47
9735,-74.67
9746,-64.31
9757,-51.62
9769,-38.28
9781,-25.99
9793,-15.97
9805,-8.61
9817,-3.58
9829,-0.13
9841,2.48
9853,4.69
9865,6.56
9877,7.95
9889,8.71
9901,8.98
9913,9.11
9925,9.55
9936,10.67
9947,12.55
9959,14.99
9971,17.67
9983,20.24
9995,22.41
10007,23.97
10019,24.77
10031,24.62
10043,23.35
10055,20.86
10067,17.24
10079,12.67
10091,7.42
10103,1.72
10115,-4.34
10126,-10.75
10137,-17.5
10149,-24.35
10161,-30.86
10173,-36.42
10185,-40.48
10197,-42.85
10209,-43.83
10221,-44.2
10233,-44.87
10245,-46.47
10257,-48.84
10269,-50.85
10281,-50.42
10293,-45.07
10305,-32.64
10316,-12.05
10327,16.03
10339,48.86
10351,81.95
10363,110.03
10375,128.45
10387,134.63
10399,129.0
10411,114.86
10423,97.22
10435,80.99
10447,69.45
10459,63.36
10471,61.33
10483,60.87
10495,59.76
10506,56.72
10517,51.64
10529,45.03
10541,37.51
10553,29.43
10565,20.91
10577,12.14
10589,3.58
10601,-3.91
10613,-9.19
10625,-11.05
10637,-8.51
10649,-1.0
10661,11.44
10673,28.15
10685,47.81
10696,68.55
10707,88.18
10719,104.53
10731,116.03
10743,122.33
10755,124.52
10767,125.09
10779,127.08
10791,133.15
10803,144.46
10815,160.1
10827,177.19
10839,191.57
10851,198.97
10863,196.02
10875,181.0
10886,154.14
10897,117.49
10909,74.43
10921,29.24
10933,-13.66
10945,-50.37
10957,-78.23
10969,-96.22
10981,-105.08
10993,-106.86
11005,-104.17
11017,-99.33
11029,-93.7
11041,-87.68
11053,-80.97
11065,-73.17
11076,-64.31
11087,-54.97
11099,-46.14
11111,-38.85
11123,-33.76
11135,-30.92
11147,-29.72
11159,-29.05
11171,-27.58
11183,-24.07
11195,-17.83
11207,-8.77
11219,2.44
11231,14.6
11243,26.31
11255,36.31
11266,43.73
11277,48.32
11289,50.55
11301,51.37
11313,51.92
11325,53.17
11337,55.53
11349,58.76
11361,62.12
11373,64.64
11385,65.39
11397,63.6
11409,58.67
11421,50.08
11433,37.42
11445,20.54
11456,-0.27
11467,-24.24
11479,-50.28
11491,-77.32
11503,-104.54
11515,-131.47
11527,-157.81
11539,-183.31
11551,-207.61
11563,-230.28
11575,-250.96
11587,-269.32
11599,-284.94
11611,-297.23
11623,-305.25
11635,-307.85
11646,-303.94
11657,-292.81
11669,-274.45
11681,-249.7
11693,-220.21
11705,-188.26
11717,-156.34
11729,-126.7
11741,-100.89
11753,-79.51
11765,-62.29
11777,-48.46
11789,-37.25
11801,-28.18
11813,-21.15
11825,-16.11
11836,-12.86
11847,-10.9
11859,-9.54
11871,-8.13
11883,-6.31
11895,-4.08
11907,-1.6
11919,1.07
11931,4.07
11943,7.81
11955,12.8
11967,19.4
11979,27.62
11991,37.17
12003,47.41
12015,57.63
12026,67.23
12037,75.84
12049,83.47
12061,90.47
12073,97.37
12085,104.79
12097,113.09
12109,122.24
12121,131.69
12133,140.54
12145,147.83
12157,152.95
12169,155.87
12181,157.07
12193,157.31
12205,157.16
12216,156.73
12227,155.58
12239,152.92
12251,147.9
12263,140.05
12275,129.43
12287,116.68
12299,102.87
12311,89.1
12323,76.23
12335,64.56
12347,53.75
12359,43.01
12371,31.38
12383,18.18
12395,3.32
12406,-12.53
12417,-28.09
12429,-41.77
12441,-52.07
12453,-57.88
12465,-58.66
12477,-54.51
12489,-46.05
12501,-34.3
12513,-20.5
12525,-5.91
12537,8.44
12549,21.87
12561,34.18
12573,45.39
12585,55.44
12596,63.75
12607,69.12
12619,70.01
12631,65.2
12643,54.4
12655,38.51
12667,19.35
12679,-1.05
12691,-21.15
12703,-40.23
12715,-58.12
12727,-74.7
12739,-89.45
12751,-101.37
12763,-109.33
12775,-112.57
12786,-111.18
12797,-106.09
12809,-98.69
12821,-90.38
12833,-82.25
12845,-74.73
12857,-67.76
12869,-61.06
12881,-54.33
12893,-47.54
12905,-40.95
12917,-35.04
12929,-30.26
12941,-26.81
12953,-24.48
12965,-22.71
12976,-20.78
12987,-18.12
12999,-14.58
13011,-10.6
13023,-7.14
13035,-5.43
13047,-6.54
13059,-11.01
13071,-18.62
13083,-28.41
13095,-38.89
13107,-48.57
13119,-56.27
13131,-61.53
13143,-64.57
13155,-66.06
13166,-66.75
13177,-67.22
13189,-67.67
13201,-67.98
13213,-67.99
13225,-67.67
13237,-67.28
13249,-67.29
13261,-68.25
13273,-70.58
13285,-74.39
13297,-79.44
13309,-85.25
13321,-91.07
13333,-96.02
13345,-99.12
13356,-99.4
13367,-96.15
13379,-89.13
13391,-78.8
13403,-66.25
13415,-52.96
13427,-40.39
13439,-29.62
13451,-21.12
13463,-14.8
13475,-10.3
13487,-7.32
13499,-5.79
13511,-5.82
13523,-7.54
13535,-10.66
13546,-14.34
13557,-17.22
13569,-17.87
13581,-15.3
13593,-9.42
13605,-1.14
13617,7.95
13629,16.17
13641,22.31
13653,25.83
13665,26.8
13677,25.62
13689,22.7
13701,18.32
13713,12.69
13725,6.07
13736,-1.15
13747,-8.5
13759,-15.5
13771,-21.87
13783,-27.56
13795,-32.69
13807,-37.47
13819,-41.97
13831,-46.09
13843,-49.49
13855,-51.74
13867,-52.55
13879,-51.94
13891,-50.32
13903,-48.44
13915,-47.18
13926,-47.31
13937,-49.28
13949,-53.16
13961,-58.47
13973,-64.27
13985,-69.21
13997,-71.8
14009,-70.69
14021,-65.1
14033,-55.08
14045,-41.57
14057,-26.09
14069,-10.33
14081,4.36
14093,17.25
14105,28.18
14116,37.32
14127,44.89
14139,50.98
14151,55.54
14163,58.56
14175,60.25
14187,61.05
14199,61.56
14211,62.31
14223,63.65
14235,65.58
14247,67.87
14259,70.18
14271,72.2
14283,73.71
14295,74.58
14306,74.76
14317,74.24
14329,73.07
14341,71.39
14353,69.46
14365,67.63
14377,66.14
14389,65.1
14401,64.31
14413,63.3
14425,61.46
14437,58.25
14449,53.39
14461,46.96
14473,39.4
14485,31.29
14496,23.18
14507,15.42
14519,8.16
14531,1.38
14543,-5.02
14555,-11.11
14567,-16.94
14579,-22.66
14591,-28.43
14603,-34.39
14615,-40.49
14627,-46.42
14639,-51.56
14651,-55.16
14663,-56.55
14675,-55.19
14686,-50.77
14697,-43.09
14709,-32.14
14721,-18.15
14733,-1.76
14745,16.07
14757,34.27
14769,52.03
14781,69.04
14793,85.52
14805,101.88
14817,118.31
14829,134.44
14841,149.41
14853,162.13
14865,171.79
14876,178.17
14887,181.55
14899,182.59
14911,181.92
14923,180.0
14935,177.08
14947,173.38
14959,169.19
14971,164.84
14983,160.68
14995,156.9
15007,153.51
15019,150.43
15031,147.57
15043,144.78
15055,141.81
15066,138.12
15077,132.78
15089,124.69
15101,112.98
15113,97.46
15125,78.85
15137,58.63
15149,38.61
15161,20.28
15173,4.5
15185,-8.66
15197,-19.62
15209,-28.96
15221,-37.14
15233,-44.43
15245,-50.87
15256,-56.4
15267,-60.95
15279,-64.49
15291,-67.08
15303,-68.9
15315,-70.23
15327,-71.37
15339,-72.47
15351,-73.35
15363,-73.37
15375,-71.38
15387,-66.09
15399,-56.39
15411,-41.86
15423,-23.17
15435,-1.99
15446,19.29
15457,38.2
15469,52.85
15481,62.31
15493,66.62
15505,66.46
15517,62.69
15529,56.01
15541,46.93
15553,35.94
15565,23.68
15577,10.94
15589,-1.44
15601,-12.86
15613,-23.18
15625,-32.6
15636,-41.54
15647,-50.24
15659,-58.68
15671,-66.52
15683,-73.18
15695,-78.03
15707,-80.58
15719,-80.58
15731,-78.11
15743,-73.58
15755,-67.63
15767,-60.9
15779,-53.78
15791,-46.34
15803,-38.35
15815,-29.61
15826,-20.25
15837,-10.92
15849,-2.71
15861,3.22
15873,6.09
15885,5.72
15897,2.44
15909,-3.18
15921,-10.59
15933,-19.43
15945,-29.35
15957,-39.8
15969,-49.88
15981,-58.43
15993,-64.39
16005,-67.17
16016,-66.98
16027,-64.74
16039,-61.73
16051,-59.18
16063,-57.87
16075,-57.96
16087,-59.2
16099,-61.13
16111,-63.37
16123,-65.72
16135,-68.06
16147,-70.16
16159,-71.59
16171,-71.81
16183,-70.38
16195,-67.25
16206,-62.97
16217,-58.48
16229,-54.77
16241,-52.56
16253,-51.95
16265,-52.54
16277,-53.66
16289,-54.83
16301,-55.88
16313,-57.04
16325,-58.73
16337,-61.28
16349,-64.79
16361,-69.03
16373,-73.62
16385,-78.11
16396,-82.17
16407,-85.75
16419,-89.07
16431,-92.59
16443,-96.84
16455,-102.25
16467,-108.95
16479,-116.63
16491,-124.54
16503,-131.53
16515,-136.3
16527,-137.6
16539,-134.64
16551,-127.29
16563,-116.09
16575,-102.05
16586,-86.29
16597,-69.68
16609,-52.7
16621,-35.66
16633,-18.96
16645,-3.36
16657,10.07
16669,20.24
16681,26.58
16693,29.35
16705,29.67
16717,29.23
16729,29.69
16741,32.27
16753,37.44
16765,45.08
16776,54.81
16787,66.34
16799,79.62
16811,94.62
16823,111.05
16835,128.06
16847,144.33
16859,158.53
16871,169.9
16883,178.58
16895,185.53
16907,192.12
16919,199.46
16931,208.11
16943,218.03
16955,228.83
16966,239.87
16977,250.22
16989,258.46
17001,262.75
17013,261.14
17025,252.24
17037,235.86
17049,213.1
17061,186.04
17073,156.98
17085,127.68
17097,99.05
17109,71.35
17121,44.74
17133,19.83
17145,-2.17
17156,-19.75
17167,-31.65
17179,-37.43
17191,-37.66
17203,-33.68
17215,-27.12
17227,-19.3
17239,-10.98
17251,-2.42
17263,6.27
17275,14.78
17287,22.51
17299,28.72
17311,32.95
17323,35.28
17335,36.33
17346,36.97
17357,38.05
17369,39.99
17381,42.82
17393,46.23
17405,49.71
17417,52.74
17429,54.81
17441,55.41
17453,54.0
17465,50.04
17477,43.11
17489,33.13
17501,20.5
17513,6.26
17525,-8.12
17536,-21.15
17547,-31.75
17559,-39.66
17571,-45.5
17583,-50.42
17595,-55.63
17607,-61.81
17619,-68.91
17631,-76.26
17643,-82.9
17655,-88.0
17667,-91.17
17679,-92.41
17691,-92.17
17703,-91.09
17715,-89.94
17726,-89.35
17737,-89.63
17749,-90.48
17761,-90.98
17773,-89.8
17785,-85.58
17797,-77.49
17809,-65.56
17821,-50.62
17833,-34.11
17845,-17.51
17857,-1.95
17869,11.97
17881,23.93
17893,33.92
17905,42.22
17916,49.13
17927,54.95
17939,59.96
17951,64.43
17963,68.51
17975,72.11
17987,74.59
17999,75.1
18011,72.83
18023,67.24
18035,58.22
18047,46.19
18059,32.03
18071,16.8
18083,1.5
18095,-13.63
18106,-28.54
18117,-43.04
18129,-56.81
18141,-69.54
18153,-81.02
18165,-91.05
18177,-99.74
18189,-107.49
18201,-116.44
18213,-128.23
18225,-143.22
18237,-160.46
18249,-178.32
18261,-195.03
18273,-208.83
18285,-218.86
18296,-225.32
18307,-232.44
18319,-243.93
18331,-261.32
18343,-283.61
18355,-308.42
18367,-332.53
18379,-351.86
18391,-362.86
18403,-362.67
18415,-354.46
18427,-341.29
18439,-324.91
18451,-306.53
18463,-289.07
18475,-277.09
18486,-274.09
18497,-281.52
18509,-296.55
18521,-318.69
18533,-343.46
18545,-363.44
18557,-371.59
18569,-365.74
18581,-348.87
18593,-325.72
18605,-301.56
18617,-244.24
18629,-145.38
18641,-22.76
18653,92.77
18665,180.84
18676,237.76
18687,266.64
18699,280.93
18711,288.37
18723,292.64
18735,289.62
18747,277.85
18759,258.78
18771,238.87
18783,224.74
18795,220.31
18807,226.66
18819,240.67
18831,257.81
18843,269.2
18855,269.78
18866,260.57
18877,247.58
18889,237.35
18901,234.29
18913,240.72
18925,256.21
18937,279.47
18949,305.93
18961,331.68
18973,354.13
18985,371.5
18997,381.32
19009,380.87
19021,368.86
19033,345.82
19045,314.7
19056,278.36
19067,240.08
19079,202.91
19091,169.27
19103,140.23
19115,115.73
19127,95.36
19139,78.3
19151,63.74
19163,50.4
19175,37.32
19187,24.2
19199,11.54
19211,0.06
19223,-9.73
19235,-17.75
19246,-24.6
19257,-31.16
19269,-38.26
19281,-46.37
19293,-55.36
19305,-64.52
19317,-72.79
19329,-79.09
19341,-82.55
19353,-82.78
19365,-80.03
19377,-75.26
19389,-70.01
19401,-66.0
19413,-64.71
19425,-66.64
19436,-71.17
19447,-76.58
19459,-80.7
19471,-81.61
19483,-78.33
19495,-71.0
19507,-60.62
19519,-48.46
19531,-35.51
19543,-22.15
19555,-8.31
19567,6.13
19579,20.98
19591,35.54
19603,48.83
19615,60.04
19626,68.87
19637,75.67
19649,81.17
19661,86.0
19673,90.33
19685,93.8
19697,95.75
19709,95.6
19721,93.05
19733,88.07
19745,80.66
19757,70.76
19769,58.3
19781,43.48
19793,27.05
19805,10.27
19816,-5.34
19827,-18.55
19839,-28.82
19851,-36.29
19863,-41.52
19875,-45.02
19887,-46.91
19899,-46.96
19911,-44.99
19923,-41.26
19935,-36.64
19947,-32.45
19959,-30.04
19971,-30.43
19983,-34.08
19995,-40.98
20006,-50.92
20017,-63.61
20029,-78.62
20041,-95.12
20053,-111.67
20065,-126.17
20077,-136.13
20089,-139.29
20101,-134.14
20113,-120.43
20125,-99.35
20137,-73.24
20149,-45.1
20161,-17.82
20173,6.36
20185,26.25
20196,41.56
20207,52.65
20219,60.12
20231,64.5
20243,66.16
20255,65.49
20267,62.94
20279,59.15
20291,54.88
20303,50.78
20315,47.29
20327,44.57
20339,42.52
20351,40.9
20363,39.37
20375,37.61
20386,35.33
20397,32.18
20409,27.81
20421,21.96
20433,14.57
20445,5.87
20457,-3.63
20469,-13.4
20481,-23.03
20493,-32.45
20505,-41.82
20517,-51.47
20529,-61.52
20541,-71.82
20553,-81.92
20565,-91.14
20576,-98.82
20587,-104.28
20599,-106.99
20611,-106.56
20623,-102.86
20635,-96.15
20647,-87.11
20659,-76.44
20671,-64.6
20683,-51.31
20695,-35.57
20707,-15.98
20719,8.64
20731,38.61
20743,73.13
20755,110.38
20766,148.06
20777,183.8
20789,215.53
20801,241.48
20813,260.15
20825,270.44
20837,271.83
20849,264.58
20861,249.86
20873,229.46
20885,205.4
20897,179.47
20909,152.94
20921,126.59
20933,100.92
20945,76.47
20956,54.06
20967,34.82
20979,19.94
20991,10.27
