seconds,BVP
4,-13.39
16,-10.06
28,-7.4
40,-5.03
52,-2.45
64,0.6
76,3.96
88,7.05
100,9.24
112,10.16
124,9.95
135,9.22
146,8.75
158,9.04
170,10.17
182,11.77
194,13.37
206,14.66
218,15.69
230,16.78
242,18.34
254,20.56
266,23.35
278,26.39
290,29.31
302,31.87
314,34.01
325,35.76
336,37.16
348,38.14
360,38.59
372,38.45
384,37.78
396,36.88
408,36.15
420,35.96
432,36.41
444,37.23
456,37.74
468,37.1
480,34.6
492,29.98
504,23.51
515,15.9
526,7.99
538,0.44
550,-6.46
562,-12.76
574,-18.63
586,-24.11
598,-29.01
610,-32.97
622,-35.67
634,-37.01
646,-37.16
658,-36.45
670,-35.2
682,-33.59
694,-31.65
705,-29.4
716,-26.91
728,-24.39
740,-22.1
752,-20.24
764,-18.86
776,-17.84
788,-16.95
800,-16.0
812,-14.95
824,-13.89
836,-13.07
848,-12.77
860,-13.24
872,-14.54
884,-16.55
895,-18.99
906,-21.53
918,-23.84
930,-25.68
942,-26.85
954,-27.14
966,-26.36
978,-24.34
990,-21.05
1002,-16.59
1014,-11.27
1026,-5.45
1038,0.57
1050,6.67
1062,12.86
1074,19.14
1085,25.29
1096,30.76
1108,34.74
1120,36.4
1132,35.22
1144,31.22
1156,24.9
1168,17.12
1180,8.8
1192,0.69
1204,-6.67
1216,-12.94
1228,-17.87
1240,-21.25
1252,-22.95
1264,-23.06
1275,-21.81
1286,-19.52
1298,-16.43
1310,-12.6
1322,-7.99
1334,-2.69
1346,2.95
1358,8.29
1370,12.57
1382,15.22
1394,16.12
1406,15.64
1418,14.41
1430,13.01
1442,11.66
1454,10.25
1465,8.55
1476,6.52
1488,4.42
1500,2.7
1512,1.68
1524,1.37
1536,1.52
1548,1.85
1560,2.4
1572,3.51
1584,5.62
1596,8.8
1608,12.62
1620,16.25
1632,18.95
1644,20.52
1655,21.62
1666,23.46
1678,27.36
1690,34.07
1702,43.42
1714,54.29
1726,65.0
1738,73.86
1750,79.71
1762,82.15
1774,81.36
1786,77.76
1798,71.39
1810,61.64
1822,47.34
1834,27.11
1845,-0.28
1856,-35.46
1868,-78.03
1880,-125.77
1892,-173.97
1904,-215.49
1916,-241.87
1928,-245.67
1940,-223.05
1952,-175.68
1964,-110.75
1976,-39.21
1988,27.35
2000,79.66
2012,112.64
2024,125.76
2035,122.01
2046,106.45
2058,84.61
2070,61.41
2082,40.54
2094,24.2
2106,13.19
2118,7.33
2130,5.77
2142,7.35
2154,10.67
2166,14.31
2178,17.22
2190,19.08
2202,20.51
2214,22.86
2225,27.59
2236,35.51
2248,46.18
2260,57.94
2272,68.36
2284,75.18
2296,77.09
2308,74.16
2320,67.73
2332,59.84
2344,52.53
2356,47.18
2368,44.17
2380,42.97
2392,42.43
2404,41.18
2415,37.96
2426,31.8
2438,22.05
2450,8.44
2462,-8.87
2474,-29.01
2486,-50.22
2498,-70.02
2510,-85.78
2522,-95.55
2534,-98.81
2546,-96.55
2558,-90.78
2570,-83.63
2582,-76.48
2594,-69.77
2605,-63.31
2616,-56.94
2628,-51.01
2640,-46.3
2652,-43.56
2664,-42.91
2676,-43.72
2688,-44.81
2700,-45.09
2712,-44.06
2724,-41.94
2736,-39.45
2748,-37.33
2760,-35.87
2772,-34.77
2784,-33.31
2795,-30.72
2806,-26.73
2818,-21.76
2830,-16.82
2842,-12.98
2854,-10.74
2866,-9.69
2878,-8.61
2890,-6.21
2902,-1.84
2914,4.12
2926,10.43
2938,15.71
2950,19.16
2962,20.8
2974,21.18
2985,20.69
2996,19.33
3008,16.79
3020,13.07
3032,8.98
3044,5.98
3056,5.57
3068,8.39
3080,13.86
3092,20.44
3104,26.41
3116,30.69
3128,33.08
3140,34.05
3152,34.15
3164,33.6
3175,32.33
3186,30.29
3198,27.8
3210,25.51
3222,24.1
3234,23.84
3246,24.44
3258,25.15
3270,25.19
3282,24.14
3294,22.07
3306,19.28
3318,15.99
3330,12.02
3342,6.87
3354,0.04
3365,-8.51
3376,-18.15
3388,-27.75
3400,-36.18
3412,-42.77
3424,-47.54
3436,-51.04
3448,-53.91
3460,-56.56
3472,-59.1
3484,-61.46
3496,-63.57
3508,-65.47
3520,-67.2
3532,-68.58
3544,-69.16
3555,-68.35
3566,-65.71
3578,-61.17
3590,-55.15
3602,-48.46
3614,-41.99
3626,-36.45
3638,-32.06
3650,-28.54
3662,-25.13
3674,-20.91
3686,-15.15
3698,-7.66
3710,1.14
3722,10.5
3734,19.63
3745,28.13
3756,35.95
3768,43.19
3780,49.75
3792,55.19
3804,58.89
3816,60.45
3828,60.0
3840,58.24
3852,56.11
3864,54.28
3876,52.9
3888,51.56
3900,49.61
3912,46.63
3924,42.67
3935,38.24
3946,33.95
3958,30.36
3970,27.7
3982,25.92
3994,24.9
4006,24.45
4018,24.41
4030,24.56
4042,24.7
4054,24.63
4066,24.25
4078,23.57
4090,22.59
4102,21.19
4114,19.09
4125,15.96
4136,11.81
4148,7.12
4160,2.83
4172,-0.05
4184,-0.93
4196,0.15
4208,2.57
4220,5.6
4232,8.79
4244,12.14
4256,15.77
4268,19.51
4280,22.67
4292,24.3
4304,23.75
4315,21.16
4326,17.48
4338,13.92
4350,11.25
4362,9.3
4374,7.14
4386,3.66
4398,-1.77
4410,-8.99
4422,-17.31
4434,-26.06
4446,-34.96
4458,-44.15
4470,-53.83
4482,-63.63
4494,-72.54
4505,-79.15
4516,-82.37
4528,-82.12
4540,-79.52
4552,-76.5
4564,-74.91
4576,-75.62
4588,-78.09
4600,-80.61
4612,-81.08
4624,-78.0
4636,-71.12
4648,-61.32
4660,-50.02
4672,-38.29
4684,-26.34
4695,-13.66
4706,0.35
4718,15.63
4730,31.22
4742,45.5
4754,56.91
4766,64.47
4778,68.0
4790,67.81
4802,64.32
4814,57.86
4826,48.77
4838,37.79
4850,26.11
4862,15.14
4874,6.09
4885,-0.43
4896,-4.46
4908,-6.42
4920,-6.77
4932,-5.87
4944,-4.09
4956,-1.92
4968,0.12
4980,1.79
4992,3.5
5004,6.31
5016,11.47
5028,19.57
5040,29.99
5052,40.95
5064,50.3
5075,56.61
5086,59.85
5098,61.19
5110,62.07
5122,63.11
5134,63.6
5146,61.98
5158,56.8
5170,47.56
5182,35.01
5194,20.61
5206,5.74
5218,-8.84
5230,-22.96
5242,-36.63
5254,-49.69
5265,-61.68
5276,-72.18
5288,-81.09
5300,-88.64
5312,-95.12
5324,-100.43
5336,-103.93
5348,-104.7
5360,-101.91
5372,-95.33
5384,-85.44
5396,-73.29
5408,-60.09
5420,-46.88
5432,-34.36
5444,-22.91
5455,-12.84
5466,-4.58
5478,1.3
5490,4.26
5502,4.13
5514,1.33
5526,-3.15
5538,-7.98
5550,-11.86
5562,-13.8
5574,-13.2
5586,-9.71
5598,-3.29
5610,5.81
5622,16.8
5634,28.35
5645,38.92
5656,47.28
5668,53.04
5680,56.84
5692,59.89
5704,63.32
5716,67.35
5728,71.14
5740,73.0
5752,71.26
5764,64.94
5776,54.25
5788,40.46
5800,25.41
5812,10.9
5824,-1.78
5835,-12.06
5846,-20.02
5858,-26.06
5870,-30.57
5882,-33.7
5894,-35.35
5906,-35.27
5918,-33.4
5930,-29.99
5942,-25.69
5954,-21.47
5966,-18.29
5978,-16.74
5990,-16.77
6002,-17.6
6014,-17.94
6025,-16.53
6036,-12.7
6048,-6.71
6060,0.35
6072,7.14
6084,12.76
6096,17.11
6108,20.84
6120,24.8
6132,29.33
6144,33.9
6156,37.31
6168,38.3
6180,36.19
6192,31.34
6204,24.9
6215,18.35
6226,12.77
6238,8.61
6250,5.72
6262,3.75
6274,2.44
6286,1.83
6298,2.12
6310,3.42
6322,5.65
6334,8.55
6346,11.83
6358,15.32
6370,19.02
6382,22.88
6394,26.69
6405,29.95
6416,31.93
6428,31.91
6440,29.39
6452,24.19
6464,16.5
6476,6.81
6488,-4.22
6500,-15.78
6512,-27.09
6524,-37.42
6536,-46.15
6548,-52.86
6560,-57.32
6572,-59.6
6584,-60.05
6595,-59.27
6606,-57.93
6618,-56.53
6630,-55.24
6642,-53.82
6654,-51.89
6666,-49.21
6678,-45.81
6690,-42.03
6702,-38.21
6714,-34.35
6726,-30.02
6738,-24.54
6750,-17.37
6762,-8.41
6774,1.83
6785,12.49
6796,22.68
6808,31.81
6820,39.68
6832,46.43
6844,52.38
6856,57.94
6868,63.42
6880,69.08
6892,74.97
6904,80.86
6916,86.19
6928,90.18
6940,92.01
6952,91.22
6964,87.85
6975,82.51
6986,76.14
6998,69.56
7010,63.24
7022,57.08
7034,50.56
7046,42.98
7058,33.77
7070,22.83
7082,10.59
7094,-2.0
7106,-13.83
7118,-23.97
7130,-31.97
7142,-37.86
7154,-42.0
7165,-44.66
7176,-45.96
7188,-45.84
7200,-44.35
7212,-41.85
7224,-39.1
7236,-36.92
7248,-35.83
7260,-35.79
7272,-36.22
7284,-36.4
7296,-35.84
7308,-34.57
7320,-33.03
7332,-31.76
7344,-31.01
7355,-30.66
7366,-30.24
7378,-29.24
7390,-27.26
7402,-24.1
7414,-19.72
7426,-14.15
7438,-7.48
7450,0.12
7462,8.25
7474,16.31
7486,23.55
7498,29.28
7510,33.1
7522,34.99
7534,35.29
7545,34.51
7556,33.08
7568,31.28
7580,29.22
7592,27.0
7604,24.87
7616,23.23
7628,22.51
7640,22.93
7652,24.39
7664,26.4
7676,28.4
7688,29.95
7700,30.98
7712,31.73
7724,32.55
7735,33.62
7746,34.88
7758,36.04
7770,36.78
7782,36.88
7794,36.25
7806,34.85
7818,32.54
7830,29.16
7842,24.51
7854,18.56
7866,11.42
7878,3.21
7890,-6.07
7902,-16.72
7914,-29.13
7925,-43.58
7936,-59.91
7948,-77.36
7960,-94.74
7972,-110.72
7984,-124.17
7996,-134.44
8008,-141.34
8020,-145.14
8032,-146.32
8044,-145.39
8056,-142.55
8068,-137.48
8080,-129.28
8092,-116.76
8104,-99.1
8115,-76.47
8126,-50.39
8138,-23.39
8150,1.87
8162,23.5
8174,40.93
8186,54.64
8198,65.35
8210,73.38
8222,78.36
8234,79.77
8246,77.68
8258,73.17
8270,68.1
8282,64.32
8294,62.84
8305,63.39
8316,64.81
8328,65.82
8340,65.73
8352,64.68
8364,63.18
8376,61.57
8388,59.52
8400,56.11
8412,50.4
8424,41.98
8436,31.29
8448,19.38
8460,7.47
8472,-3.59
8484,-13.46
8495,-22.22
8506,-30.02
8518,-36.89
8530,-42.72
8542,-47.44
8554,-51.13
8566,-53.98
8578,-56.12
8590,-57.45
8602,-57.71
8614,-56.66
8626,-54.29
8638,-51.0
8650,-47.43
8662,-44.23
8674,-41.68
8685,-39.6
8696,-37.38
8708,-34.34
8720,-30.08
8732,-24.67
8744,-18.57
8756,-12.35
8768,-6.36
8780,-0.59
8792,5.26
8804,11.52
8816,18.29
8828,25.51
8840,33.07
8852,41.08
8864,49.92
8875,59.95
8886,71.13
8898,82.71
8910,93.34
8922,101.45
8934,105.9
8946,106.23
8958,102.64
8970,95.6
8982,85.45
8994,72.33
9006,56.39
9018,38.26
9030,19.34
9042,1.59
9054,-13.0
9065,-23.13
9076,-28.62
9088,-30.38
9100,-29.86
9112,-28.42
9124,-26.86
9136,-25.33
9148,-23.62
9160,-21.58
9172,-19.36
9184,-17.34
9196,-15.88
9208,-15.01
9220,-14.28
9232,-12.98
9244,-10.56
9255,-7.05
9266,-3.27
9278,-0.61
9290,-0.52
9302,-3.83
9314,-10.34
9326,-18.91
9338,-27.79
9350,-35.39
9362,-40.65
9374,-43.27
9386,-43.42
9398,-41.45
9410,-37.68
9422,-32.4
9434,-26.02
9445,-19.21
9456,-12.68
9468,-7.05
9480,-2.55
9492,0.96
9504,3.85
9516,6.43
9528,8.88
9540,11.19
9552,13.3
9564,15.24
9576,17.14
9588,19.16
9600,21.38
9612,23.77
9624,26.22
9635,28.62
9646,30.85
9658,32.93
9670,34.91
9682,36.98
9694,39.39
9706,42.36
9718,45.97
9730,49.99
9742,53.91
9754,56.91
9766,58.16
9778,57.02
9790,53.3
9802,47.22
9814,39.43
9825,30.72
9836,21.88
9848,13.51
9860,5.98
9872,-0.61
9884,-6.35
9896,-11.48
9908,-16.29
9920,-21.03
9932,-25.89
9944,-30.94
9956,-36.13
9968,-41.3
9980,-46.16
9992,-50.39
10004,-53.63
10015,-55.62
10026,-56.33
10038,-55.96
10050,-54.8
10062,-53.01
10074,-50.42
10086,-46.48
10098,-40.49
10110,-31.9
10122,-20.64
10134,-7.22
10146,7.44
10158,22.11
10170,35.53
10182,46.42
10194,53.71
10205,56.68
10216,55.32
10228,50.49
10240,43.71
10252,36.77
10264,30.95
10276,26.53
10288,22.69
10300,17.88
10312,10.56
10324,-0.06
10336,-13.6
10348,-28.45
10360,-42.25
10372,-52.7
10384,-58.35
10395,-59.12
10406,-56.25
10418,-51.7
10430,-47.31
10442,-44.09
10454,-42.03
10466,-40.53
10478,-38.98
10490,-37.29
10502,-35.82
10514,-35.03
10526,-34.99
10538,-35.07
10550,-34.34
10562,-31.99
10574,-27.9
10585,-22.74
10596,-17.56
10608,-13.29
10620,-10.26
10632,-8.11
10644,-6.06
10656,-3.28
10668,0.66
10680,5.69
10692,11.21
10704,16.36
10716,20.4
10728,22.97
10740,24.27
10752,24.95
10764,25.8
10775,27.43
10786,29.98
10798,33.1
10810,36.21
10822,38.75
10834,40.53
10846,41.66
10858,42.42
10870,43.0
10882,43.37
10894,43.32
10906,42.54
10918,40.88
10930,38.27
10942,34.79
10954,30.58
10965,25.87
10976,20.93
10988,16.07
11000,11.49
11012,7.25
11024,3.29
11036,-0.46
11048,-4.08
11060,-7.52
11072,-10.76
11084,-13.77
11096,-16.57
11108,-19.17
11120,-21.44
11132,-23.07
11144,-23.71
11155,-23.12
11166,-21.44
11178,-19.1
11190,-16.68
11202,-14.63
11214,-13.09
11226,-11.85
11238,-10.56
11250,-8.85
11262,-6.51
11274,-3.47
11286,0.17
11298,4.19
11310,8.25
11322,11.98
11334,15.01
11345,17.14
11356,18.39
11368,19.04
11380,19.48
11392,19.98
11404,20.62
11416,21.29
11428,21.86
11440,22.24
11452,22.28
11464,21.61
11476,19.39
11488,14.53
11500,6.09
11512,-6.11
11524,-21.11
11535,-36.87
11546,-50.96
11558,-61.44
11570,-67.63
11582,-70.25
11594,-70.88
11606,-71.03
11618,-71.36
11630,-71.58
11642,-70.84
11654,-68.6
11666,-65.12
11678,-61.32
11690,-58.24
11702,-56.19
11714,-54.56
11725,-52.09
11736,-47.74
11748,-41.41
11760,-34.05
11772,-27.04
11784,-21.36
11796,-16.98
11808,-12.87
11820,-7.73
11832,-0.7
11844,8.11
11856,17.67
11868,26.54
11880,33.54
11892,38.22
11904,40.94
11915,42.66
11926,44.45
11938,47.04
11950,50.62
11962,54.76
11974,58.65
11986,61.5
11998,62.8
12010,62.4
12022,60.45
12034,57.18
12046,52.78
12058,47.46
12070,41.59
12082,35.78
12094,30.85
12105,27.56
12116,26.24
12128,26.69
12140,28.15
12152,29.67
12164,30.4
12176,29.9
12188,28.14
12200,25.3
12212,21.52
12224,16.75
12236,10.71
12248,3.21
12260,-5.7
12272,-15.47
12284,-25.14
12295,-33.64
12306,-40.13
12318,-44.36
12330,-46.62
12342,-47.62
12354,-48.03
12366,-48.13
12378,-47.77
12390,-46.44
12402,-43.69
12414,-39.39
12426,-33.96
12438,-28.1
12450,-22.55
12462,-17.64
12474,-13.26
12485,-8.91
12496,-4.02
12508,1.66
12520,7.92
12532,14.14
12544,19.56
12556,23.71
12568,26.59
12580,28.68
12592,30.61
12604,32.81
12616,35.27
12628,37.62
12640,39.4
12652,40.39
12664,40.76
12675,40.85
12686,40.93
12698,40.82
12710,39.92
12722,37.45
12734,32.91
12746,26.42
12758,18.75
12770,11.03
12782,4.31
12794,-0.93
12806,-4.9
12818,-8.32
12830,-12.11
12842,-16.95
12854,-23.09
12865,-30.3
12876,-38.16
12888,-46.14
12900,-53.76
12912,-60.52
12924,-65.83
12936,-69.03
12948,-69.66
12960,-67.65
12972,-63.31
12984,-57.14
12996,-49.51
13008,-40.45
13020,-29.77
13032,-17.53
13044,-4.38
13055,8.39
13066,19.31
13078,27.45
13090,32.82
13102,36.36
13114,39.33
13126,42.57
13138,46.12
13150,49.28
13162,51.23
13174,51.47
13186,49.97
13198,46.97
13210,42.79
13222,37.74
13234,32.35
13245,27.41
13256,23.71
13268,21.4
13280,19.53
13292,16.3
13304,10.08
13316,0.6
13328,-10.36
13340,-19.53
13352,-23.61
13364,-20.97
13376,-12.45
13388,-0.89
13400,10.43
13412,19.42
13424,25.95
13435,31.29
13446,36.96
13458,43.46
13470,49.98
13482,54.9
13494,56.8
13506,55.2
13518,50.7
13530,44.47
13542,37.33
13554,29.19
13566,19.07
13578,5.74
13590,-11.11
13602,-30.15
13614,-48.49
13625,-62.66
13636,-70.17
13648,-70.8
13660,-66.82
13672,-61.93
13684,-59.51
13696,-60.9
13708,-64.99
13720,-68.96
13732,-69.99
13744,-66.82
13756,-60.19
13768,-52.25
13780,-45.07
13792,-39.47
13804,-34.63
13815,-28.73
13826,-20.03
13838,-7.89
13850,6.86
13862,22.3
13874,36.26
13886,47.02
13898,53.79
13910,56.59
13922,55.92
13934,52.41
13946,46.51
13958,38.61
13970,29.13
13982,18.71
13994,8.17
14005,-1.55
14016,-9.64
14028,-15.59
14040,-19.33
14052,-21.17
14064,-21.74
14076,-21.81
14088,-22.02
14100,-22.59
14112,-23.27
14124,-23.47
14136,-22.57
14148,-20.26
14160,-16.76
14172,-12.7
14184,-8.84
14195,-5.73
14206,-3.56
14218,-2.13
14230,-1.09
14242,-0.1
14254,0.98
14266,2.18
14278,3.38
14290,4.41
14302,5.16
14314,5.58
14326,5.7
14338,5.65
14350,5.61
14362,5.73
14374,6.1
14385,6.7
14396,7.46
14408,8.31
14420,9.17
14432,10.02
14444,10.81
14456,11.4
14468,11.59
14480,11.15
14492,9.94
14504,8.0
14516,5.54
14528,2.87
14540,0.31
14552,-1.89
14564,-3.66
14575,-5.07
14586,-6.21
14598,-7.18
14610,-8.03
14622,-8.77
14634,-9.41
14646,-9.97
14658,-10.48
14670,-10.95
14682,-11.29
14694,-11.41
14706,-11.17
14718,-10.44
14730,-9.19
14742,-7.44
14754,-5.3
14765,-2.95
14776,-0.53
14788,1.82
14800,3.91
14812,5.6
14824,6.78
14836,7.45
14848,7.82
14860,8.17
14872,8.73
14884,9.53
14896,10.33
14908,10.79
14920,10.61
14932,9.87
14944,8.95
14955,8.46
14966,8.87
14978,10.34
14990,12.62
15002,15.16
15014,17.35
15026,18.79
15038,19.35
15050,19.2
15062,18.65
15074,18.0
15086,17.45
15098,17.05
15110,16.72
15122,16.36
15134,15.87
15145,15.21
15156,14.37
15168,13.37
15180,12.17
15192,10.72
15204,8.98
15216,6.93
15228,4.65
15240,2.27
15252,-0.03
15264,-2.06
15276,-3.71
15288,-4.98
15300,-5.97
15312,-6.84
15324,-7.73
15335,-8.64
15346,-9.53
15358,-10.26
15370,-10.76
15382,-11.08
15394,-11.34
15406,-11.71
15418,-12.27
15430,-13.0
15442,-13.78
15454,-14.51
15466,-15.14
15478,-15.65
15490,-16.0
15502,-16.08
15514,-15.71
15525,-14.74
15536,-13.16
15548,-11.17
15560,-9.05
15572,-7.06
15584,-5.27
15596,-3.57
15608,-1.76
15620,0.3
15632,2.6
15644,4.96
15656,7.15
15668,8.95
15680,10.27
15692,11.15
15704,11.69
15715,12.09
15726,12.48
15738,12.96
15750,13.51
15762,14.06
15774,14.49
15786,14.69
15798,14.58
15810,14.02
15822,12.76
15834,10.42
15846,6.66
15858,1.41
15870,-4.94
15882,-11.51
15894,-17.3
15905,-21.6
15916,-24.34
15928,-26.01
15940,-27.26
15952,-28.43
15964,-29.33
15976,-29.38
15988,-28.09
16000,-25.61
16012,-22.73
16024,-20.59
16036,-20.0
16048,-20.96
16060,-22.68
16072,-24.01
16084,-24.15
16095,-22.92
16106,-20.63
16118,-17.47
16130,-13.19
16142,-7.15
16154,1.03
16166,10.8
16178,20.53
16190,28.01
16202,31.47
16214,30.52
16226,26.3
16238,20.92
16250,16.3
16262,13.42
16274,12.08
16285,11.4
16296,10.58
16308,9.36
16320,8.05
16332,7.19
16344,7.16
16356,7.97
16368,9.43
16380,11.19
16392,12.99
16404,14.59
16416,15.77
16428,16.32
16440,16.09
16452,15.08
16464,13.47
16475,11.6
16486,9.82
16498,8.36
16510,7.21
16522,6.2
16534,5.0
16546,3.29
16558,0.89
16570,-2.18
16582,-5.71
16594,-9.29
16606,-12.4
16618,-14.53
16630,-15.34
16642,-14.83
16654,-13.34
16665,-11.44
16676,-9.68
16688,-8.32
16700,-7.2
16712,-5.91
16724,-4.02
16736,-1.46
16748,1.47
16760,4.21
16772,6.3
16784,7.59
16796,8.25
16808,8.45
16820,8.1
16832,6.76
16844,3.93
16855,-0.55
16866,-6.33
16878,-12.73
16890,-19.14
16902,-25.35
16914,-31.67
16926,-38.45
16938,-45.57
16950,-52.16
16962,-56.66
16974,-57.52
16986,-53.78
16998,-45.56
17010,-33.88
17022,-20.16
17034,-5.64
17045,8.82
17056,22.62
17068,35.1
17080,45.43
17092,52.7
17104,56.3
17116,56.26
17128,53.39
17140,49.02
17152,44.49
17164,40.65
17176,37.76
17188,35.54
17200,33.56
17212,31.41
17224,28.74
17235,25.15
17246,20.13
17258,13.28
17270,4.6
17282,-5.26
17294,-15.17
17306,-23.84
17318,-30.36
17330,-34.52
17342,-36.73
17354,-37.69
17366,-37.91
17378,-37.49
17390,-36.2
17402,-33.77
17414,-30.24
17425,-25.98
17436,-21.61
17448,-17.71
17460,-14.65
17472,-12.46
17484,-10.97
17496,-9.91
17508,-9.08
17520,-8.4
17532,-7.97
17544,-7.92
17556,-8.31
17568,-8.89
17580,-9.09
17592,-8.16
17604,-5.4
17615,-0.6
17626,5.81
17638,12.92
17650,19.69
17662,25.55
17674,30.58
17686,35.41
17698,40.9
17710,47.51
17722,55.12
17734,63.1
17746,70.75
17758,77.73
17770,84.13
17782,90.17
17794,95.68
17805,99.79
17816,101.04
17828,97.86
17840,89.19
17852,74.7
17864,54.72
17876,29.87
17888,1.06
17900,-30.4
17912,-62.27
17924,-91.48
17936,-114.64
17948,-129.28
17960,-134.84
17972,-133.06
17984,-127.01
17995,-119.63
18006,-112.33
18018,-104.69
18030,-95.15
18042,-82.42
18054,-66.46
18066,-48.64
18078,-31.04
18090,-15.48
18102,-2.83
18114,6.97
18126,14.47
18138,20.13
18150,24.08
18162,26.23
18174,26.62
18185,25.66
18196,24.11
18208,22.83
18220,22.36
18232,22.78
18244,23.65
18256,24.25
18268,23.98
18280,22.53
18292,20.12
18304,17.29
18316,14.69
18328,12.75
18340,11.51
18352,10.56
18364,9.29
18375,7.09
18386,3.68
18398,-0.68
18410,-5.2
18422,-8.78
18434,-10.36
18446,-9.4
18458,-6.11
18470,-1.4
18482,3.58
18494,7.84
18506,10.98
18518,13.11
18530,14.58
18542,15.66
18554,16.31
18565,16.33
18576,15.61
18588,14.37
18600,13.12
18612,12.52
18624,13.01
18636,14.65
18648,17.08
18660,19.71
18672,21.97
18684,23.51
18696,24.27
18708,24.41
18720,24.23
18732,24.02
18744,23.98
18755,24.2
18766,24.61
18778,25.03
18790,25.12
18802,24.43
18814,22.45
18826,18.8
18838,13.42
18850,6.66
18862,-0.74
18874,-7.96
18886,-14.38
18898,-19.79
18910,-24.4
18922,-28.54
18934,-32.38
18945,-35.72
18956,-38.13
18968,-39.26
18980,-39.05
18992,-37.89
19004,-36.38
19016,-35.05
19028,-34.12
19040,-33.44
19052,-32.68
19064,-31.54
19076,-29.91
19088,-27.88
19100,-25.65
19112,-23.41
19124,-21.34
19135,-19.57
19146,-18.1
19158,-16.81
19170,-15.35
19182,-13.23
19194,-9.96
19206,-5.19
19218,1.16
19230,8.81
19242,17.08
19254,25.05
19266,31.63
19278,35.9
19290,37.44
19302,36.6
19314,34.53
19325,32.84
19336,33.07
19348,36.09
19360,41.81
19372,49.18
19384,56.67
19396,62.65
19408,65.77
19420,65.15
19432,60.42
19444,51.77
19456,39.95
19468,26.12
19480,11.69
19492,-2.03
19504,-14.04
19515,-23.84
19526,-31.31
19538,-36.58
19550,-39.91
19562,-41.59
19574,-41.97
19586,-41.4
19598,-40.22
19610,-38.7
19622,-36.97
19634,-35.01
19646,-32.73
19658,-30.13
19670,-27.35
19682,-24.68
19694,-22.5
19705,-21.15
19716,-20.78
19728,-21.28
19740,-22.25
19752,-23.15
19764,-23.51
19776,-23.17
19788,-22.37
19800,-21.67
19812,-21.7
19824,-22.8
19836,-24.89
19848,-27.45
19860,-29.88
19872,-31.66
19884,-32.55
19895,-32.46
19906,-31.3
19918,-29.13
19930,-26.39
19942,-24.21
19954,-24.04
19966,-26.94
19978,-32.64
19990,-39.22
20002,-43.76
20014,-43.73
20026,-38.2
20038,-28.28
20050,-16.26
20062,-4.23
20074,7.01
20085,18.01
20096,29.79
20108,42.72
20120,56.07
20132,68.34
20144,78.21
20156,85.14
20168,89.49
20180,91.92
20192,92.72
20204,91.67
20216,88.16
20228,81.85
20240,72.97
20252,62.44
20264,51.53
20275,41.34
20286,32.52
20298,25.16
20310,18.97
20322,13.59
20334,8.78
20346,4.48
20358,0.69
20370,-2.75
20382,-6.17
20394,-9.94
20406,-14.19
20418,-18.64
20430,-22.59
20442,-25.2
20454,-25.95
20465,-24.97
20476,-23.07
20488,-21.45
20500,-21.08
20512,-22.22
20524,-24.3
20536,-26.21
20548,-26.89
20560,-25.95
20572,-23.75
20584,-21.17
20596,-19.01
20608,-17.6
20620,-16.64
20632,-15.55
20644,-14.03
20655,-12.32
20666,-11.16
20678,-11.24
20690,-12.8
20702,-15.36
20714,-17.94
20726,-19.57
20738,-19.78
20750,-18.7
20762,-16.89
20774,-14.81
20786,-12.44
20798,-9.22
20810,-4.51
20822,2.01
20834,9.82
20845,17.78
20856,24.52
20868,29.14
20880,31.61
20892,32.67
20904,33.34
20916,34.34
20928,35.75
20940,37.02
20952,37.49
20964,36.8
20976,35.15
20988,33.04
