seconds,BVP
0,-0.31
12,-1.79
24,-3.26
36,-4.74
48,-6.29
60,-7.96
72,-9.77
84,-11.59
96,-13.14
108,-14.04
120,-13.88
132,-12.4
144,-9.5
155,-5.39
166,-0.48
178,4.68
190,9.5
202,13.52
214,16.47
226,18.27
238,18.98
250,18.77
262,17.81
274,16.32
286,14.58
298,12.96
310,11.83
322,11.45
334,11.91
345,12.98
356,14.29
368,15.42
380,16.11
392,16.3
404,16.11
416,15.7
428,15.16
440,14.51
452,13.74
464,12.77
476,11.59
488,10.17
500,8.55
512,6.79
524,5.0
535,3.35
546,1.94
558,0.78
570,-0.3
582,-1.56
594,-3.24
606,-5.46
618,-8.12
630,-10.9
642,-13.35
654,-14.97
666,-15.35
678,-14.22
690,-11.58
702,-7.72
714,-3.1
725,1.64
736,5.91
748,9.25
760,11.36
772,12.17
784,11.78
796,10.44
808,8.57
820,6.58
832,4.91
844,3.81
856,3.33
868,3.34
880,3.6
892,3.96
904,4.3
915,4.61
926,4.85
938,4.95
950,4.8
962,4.31
974,3.44
986,2.26
998,0.85
1010,-0.71
1022,-2.37
1034,-4.08
1046,-5.76
1058,-7.3
1070,-8.6
1082,-9.63
1094,-10.54
1105,-11.5
1116,-12.75
1128,-14.38
1140,-16.32
1152,-18.34
1164,-20.05
1176,-21.03
1188,-20.86
1200,-19.21
1212,-15.99
1224,-11.39
1236,-5.89
1248,-0.15
1260,5.09
1272,9.26
1284,12.05
1295,13.44
1306,13.62
1318,12.9
1330,11.58
1342,9.93
1354,8.25
1366,6.83
1378,5.96
1390,5.78
1402,6.23
1414,7.07
1426,7.95
1438,8.56
1450,8.8
1462,8.72
1474,8.45
1485,8.07
1496,7.52
1508,6.66
1520,5.38
1532,3.71
1544,1.84
1556,-0.01
1568,-1.65
1580,-3.05
1592,-4.23
1604,-5.31
1616,-6.33
1628,-7.34
1640,-8.41
1652,-9.68
1664,-11.28
1675,-13.28
1686,-15.54
1698,-17.7
1710,-19.28
1722,-19.78
1734,-18.89
1746,-16.54
1758,-12.92
1770,-8.4
1782,-3.49
1794,1.28
1806,5.38
1818,8.45
1830,10.31
1842,11.0
1854,10.74
1865,9.87
1876,8.7
1888,7.46
1900,6.32
1912,5.39
1924,4.78
1936,4.6
1948,4.88
1960,5.54
1972,6.39
1984,7.21
1996,7.76
2008,7.95
2020,7.77
2032,7.31
2044,6.67
2055,5.94
2066,5.12
2078,4.22
2090,3.18
2102,1.99
2114,0.63
2126,-0.89
2138,-2.5
2150,-4.11
2162,-5.62
2174,-6.93
2186,-8.04
2198,-9.01
2210,-9.98
2222,-11.11
2234,-12.54
2245,-14.26
2256,-16.1
2268,-17.73
2280,-18.72
2292,-18.69
2304,-17.4
2316,-14.88
2328,-11.41
2340,-7.39
2352,-3.3
2364,0.48
2376,3.71
2388,6.23
2400,7.95
2412,8.83
2424,8.85
2435,8.13
2446,6.93
2458,5.6
2470,4.5
2482,3.87
2494,3.78
2506,4.17
2518,4.89
2530,5.74
2542,6.59
2554,7.27
2566,7.65
2578,7.6
2590,7.1
2602,6.24
2614,5.23
2625,4.3
2636,3.61
2648,3.16
2660,2.77
2672,2.27
2684,1.53
2696,0.6
2708,-0.36
2720,-1.17
2732,-1.74
2744,-2.13
2756,-2.51
2768,-3.07
2780,-3.94
2792,-5.11
2804,-6.49
2815,-7.92
2826,-9.28
2838,-10.43
2850,-11.18
2862,-11.33
2874,-10.64
2886,-8.95
2898,-6.29
2910,-2.9
2922,0.8
2934,4.3
2946,7.13
2958,8.96
2970,9.65
2982,9.23
2994,7.93
3005,6.1
3016,4.18
3028,2.6
3040,1.66
3052,1.45
3064,1.85
3076,2.6
3088,3.44
3100,4.16
3112,4.64
3124,4.89
3136,4.89
3148,4.66
3160,4.19
3172,3.51
3184,2.66
3195,1.71
3206,0.74
3218,-0.24
3230,-1.21
3242,-2.21
3254,-3.26
3266,-4.34
3278,-5.46
3290,-6.56
3302,-7.63
3314,-8.68
3326,-9.79
3338,-11.06
3350,-12.58
3362,-14.39
3374,-16.28
3385,-17.91
3396,-18.78
3408,-18.47
3420,-16.75
3432,-13.71
3444,-9.75
3456,-5.42
3468,-1.26
3480,2.32
3492,5.08
3504,6.91
3516,7.73
3528,7.55
3540,6.45
3552,4.7
3564,2.71
3575,0.96
3586,-0.19
3598,-0.58
3610,-0.3
3622,0.38
3634,1.17
3646,1.85
3658,2.35
3670,2.63
3682,2.7
3694,2.57
3706,2.21
3718,1.62
3730,0.84
3742,-0.08
3754,-1.12
3765,-2.25
3776,-3.44
3788,-4.6
3800,-5.63
3812,-6.46
3824,-7.09
3836,-7.63
3848,-8.28
3860,-9.22
3872,-10.54
3884,-12.18
3896,-13.89
3908,-15.34
3920,-16.21
3932,-16.19
3944,-15.13
3955,-12.99
3966,-9.87
3978,-6.04
3990,-1.89
4002,2.14
4014,5.58
4026,8.09
4038,9.53
4050,9.98
4062,9.68
4074,8.91
4086,7.9
4098,6.79
4110,5.68
4122,4.65
4134,3.83
4145,3.36
4156,3.28
4168,3.5
4180,3.8
4192,3.94
4204,3.8
4216,3.41
4228,2.94
4240,2.57
4252,2.29
4264,1.93
4276,1.2
4288,-0.09
4300,-1.93
4312,-4.04
4324,-6.02
4335,-7.52
4346,-8.41
4358,-8.79
4370,-8.93
4382,-9.11
4394,-9.51
4406,-10.21
4418,-11.21
4430,-12.46
4442,-13.88
4454,-15.27
4466,-16.34
4478,-16.66
4490,-15.9
4502,-13.89
4514,-10.74
4525,-6.82
4536,-2.61
4548,1.37
4560,4.73
4572,7.22
4584,8.72
4596,9.22
4608,8.84
4620,7.87
4632,6.65
4644,5.55
4656,4.87
4668,4.74
4680,5.11
4692,5.81
4704,6.59
4715,7.21
4726,7.53
4738,7.47
4750,7.06
4762,6.44
4774,5.75
4786,5.11
4798,4.55
4810,4.03
4822,3.41
4834,2.59
4846,1.51
4858,0.21
4870,-1.2
4882,-2.57
4894,-3.75
4905,-4.66
4916,-5.31
4928,-5.81
4940,-6.37
4952,-7.19
4964,-8.45
4976,-10.16
4988,-12.12
5000,-13.97
5012,-15.23
5024,-15.5
5036,-14.54
5048,-12.36
5060,-9.2
5072,-5.5
5084,-1.75
5095,1.58
5106,4.19
5118,5.89
5130,6.68
5142,6.65
5154,5.95
5166,4.8
5178,3.46
5190,2.22
5202,1.35
5214,1.0
5226,1.17
5238,1.7
5250,2.35
5262,2.89
5274,3.23
5285,3.37
5296,3.42
5308,3.48
5320,3.59
5332,3.68
5344,3.58
5356,3.16
5368,2.35
5380,1.2
5392,-0.15
5404,-1.51
5416,-2.72
5428,-3.73
5440,-4.58
5452,-5.36
5464,-6.15
5475,-7.0
5486,-7.93
5498,-8.94
5510,-10.04
5522,-11.21
5534,-12.28
5546,-12.94
5558,-12.82
5570,-11.61
5582,-9.24
5594,-5.98
5606,-2.31
5618,1.18
5630,4.05
5642,6.07
5654,7.24
5665,7.7
5676,7.59
5688,7.02
5700,6.08
5712,4.88
5724,3.62
5736,2.55
5748,1.93
5760,1.91
5772,2.49
5784,3.49
5796,4.64
5808,5.63
5820,6.28
5832,6.51
5844,6.4
5855,6.04
5866,5.52
5878,4.87
5890,4.05
5902,3.06
5914,1.94
5926,0.84
5938,-0.1
5950,-0.78
5962,-1.2
5974,-1.48
5986,-1.78
5998,-2.3
6010,-3.15
6022,-4.36
6034,-5.89
6045,-7.57
6056,-9.13
6068,-10.25
6080,-10.58
6092,-9.83
6104,-7.91
6116,-4.94
6128,-1.28
6140,2.55
6152,6.03
6164,8.79
6176,10.65
6188,11.6
6200,11.79
6212,11.34
6224,10.37
6235,8.97
6246,7.28
6258,5.54
6270,4.02
6282,3.0
6294,2.66
6306,3.09
6318,4.28
6330,6.1
6342,8.29
6354,10.33
6366,11.45
6378,10.8
6390,7.75
6402,2.26
6414,-4.99
6425,-12.73
6436,-19.51
6448,-24.22
6460,-26.38
6472,-26.23
6484,-24.45
6496,-21.88
6508,-19.24
6520,-16.99
6532,-15.39
6544,-14.53
6556,-14.3
6568,-14.47
6580,-14.62
6592,-14.27
6604,-13.02
6615,-10.64
6626,-7.22
6638,-3.1
6650,1.17
6662,5.0
6674,7.87
6686,9.5
6698,9.88
6710,9.24
6722,7.99
6734,6.56
6746,5.28
6758,4.31
6770,3.67
6782,3.29
6794,3.11
6805,3.11
6816,3.34
6828,3.86
6840,4.63
6852,5.52
6864,6.3
6876,6.74
6888,6.69
6900,6.12
6912,5.15
6924,3.96
6936,2.73
6948,1.56
6960,0.48
6972,-0.53
6984,-1.55
6995,-2.66
7006,-3.89
7018,-5.25
7030,-6.77
7042,-8.45
7054,-10.27
7066,-12.18
7078,-13.96
7090,-15.29
7102,-15.74
7114,-14.93
7126,-12.72
7138,-9.25
7150,-4.98
7162,-0.5
7174,3.59
7185,6.89
7196,9.2
7208,10.54
7220,10.99
7232,10.71
7244,9.85
7256,8.59
7268,7.19
7280,5.91
7292,4.98
7304,4.58
7316,4.73
7328,5.33
7340,6.21
7352,7.17
7364,8.02
7375,8.62
7386,8.87
7398,8.72
7410,8.15
7422,7.18
7434,5.87
7446,4.36
7458,2.78
7470,1.32
7482,0.08
7494,-0.93
7506,-1.79
7518,-2.68
7530,-3.7
7542,-4.93
7554,-6.33
7565,-7.85
7576,-9.43
7588,-11.05
7600,-12.65
7612,-14.12
7624,-15.17
7636,-15.41
7648,-14.47
7660,-12.17
7672,-8.7
7684,-4.53
7696,-0.29
7708,3.43
7720,6.3
7732,8.25
7744,9.37
7755,9.79
7766,9.61
7778,8.81
7790,7.47
7802,5.77
7814,4.1
7826,2.88
7838,2.47
7850,2.95
7862,4.13
7874,5.56
7886,6.77
7898,7.41
7910,7.42
7922,6.92
7934,6.17
7945,5.35
7956,4.53
7968,3.65
7980,2.61
7992,1.39
8004,0.02
8016,-1.38
8028,-2.74
8040,-4.01
8052,-5.17
8064,-6.22
8076,-7.16
8088,-8.01
8100,-8.85
8112,-9.83
8124,-11.09
8135,-12.69
8146,-14.42
8158,-15.86
8170,-16.5
8182,-15.91
8194,-13.92
8206,-10.69
8218,-6.63
8230,-2.28
8242,1.91
8254,5.57
8266,8.49
8278,10.53
8290,11.66
8302,11.86
8314,11.26
8325,10.1
8336,8.68
8348,7.34
8360,6.32
8372,5.71
8384,5.49
8396,5.57
8408,5.84
8420,6.25
8432,6.73
8444,7.24
8456,7.69
8468,7.97
8480,7.98
8492,7.63
8504,6.88
8515,5.74
8526,4.3
8538,2.68
8550,1.1
8562,-0.23
8574,-1.16
8586,-1.64
8598,-1.79
8610,-1.86
8622,-2.08
8634,-2.64
8646,-3.61
8658,-4.95
8670,-6.56
8682,-8.23
8694,-9.69
8705,-10.56
8716,-10.45
8728,-9.06
8740,-6.36
8752,-2.61
8764,1.68
8776,5.95
8788,9.72
8800,12.71
8812,14.83
8824,16.06
8836,16.42
8848,15.95
8860,14.74
8872,13.08
8884,11.37
8895,10.06
8906,9.45
8918,9.6
8930,10.35
8942,11.39
8954,12.44
8966,13.27
8978,13.79
8990,13.99
9002,13.83
9014,13.29
9026,12.34
9038,10.97
9050,9.23
9062,7.22
9074,5.09
9085,2.99
9096,1.05
9108,-0.65
9120,-2.16
9132,-3.63
9144,-5.28
9156,-7.31
9168,-9.81
9180,-12.65
9192,-15.45
9204,-17.68
9216,-18.79
9228,-18.39
9240,-16.4
9252,-13.05
9264,-8.9
9275,-4.59
9286,-0.73
9298,2.27
9310,4.25
9322,5.21
9334,5.3
9346,4.73
9358,3.7
9370,2.44
9382,1.17
9394,0.07
9406,-0.75
9418,-1.23
9430,-1.37
9442,-1.21
9454,-0.79
9465,-0.21
9476,0.44
9488,1.02
9500,1.38
9512,1.37
9524,0.86
9536,-0.17
9548,-1.62
9560,-3.33
9572,-5.06
9584,-6.64
9596,-7.95
9608,-9.0
9620,-9.88
9632,-10.73
9644,-11.7
9655,-12.91
9666,-14.39
9678,-16.07
9690,-17.73
9702,-19.05
9714,-19.61
9726,-19.07
9738,-17.21
9750,-14.11
9762,-10.08
9774,-5.58
9786,-1.11
9798,2.88
9810,6.08
9822,8.28
9834,9.43
9845,9.58
9856,8.9
9868,7.66
9880,6.18
9892,4.81
9904,3.82
9916,3.36
9928,3.45
9940,3.98
9952,4.73
9964,5.48
9976,6.01
9988,6.23
10000,6.12
10012,5.72
10024,5.13
10035,4.35
10046,3.38
10058,2.19
10070,0.75
10082,-0.86
10094,-2.56
10106,-4.2
10118,-5.7
10130,-7.05
10142,-8.3
10154,-9.59
10166,-11.02
10178,-12.71
10190,-14.64
10202,-16.69
10214,-18.56
10225,-19.81
10236,-19.95
10248,-18.63
10260,-15.88
10272,-12.06
10284,-7.76
10296,-3.64
10308,-0.21
10320,2.27
10332,3.78
10344,4.51
10356,4.64
10368,4.18
10380,3.13
10392,1.54
10404,-0.39
10415,-2.4
10426,-4.18
10438,-5.35
10450,-5.46
10462,-4.03
10474,-0.81
10486,4.32
10498,11.35
10510,20.07
10522,30.03
10534,40.68
10546,51.49
10558,62.03
10570,71.96
10582,80.46
10594,87.1
10605,92.16
10616,96.51
10628,101.03
10640,106.08
10652,111.25
10664,115.53
10676,117.8
10688,116.38
10700,111.2
10712,104.05
10724,97.77
10736,94.39
10748,93.91
10760,94.16
10772,91.6
10784,82.39
10795,61.82
10806,27.5
10818,-19.46
10830,-74.79
10842,-132.69
10854,-187.12
10866,-232.75
10878,-265.61
10890,-283.91
10902,-290.49
10914,-289.17
10926,-282.95
10938,-273.41
10950,-261.63
10962,-248.56
10974,-234.86
10985,-220.31
10996,-190.02
11008,-138.16
11020,-71.23
11032,-4.21
11044,50.14
11056,86.4
11068,105.45
11080,111.4
11092,109.44
11104,104.01
11116,95.51
11128,83.53
11140,68.59
11152,52.91
11164,38.91
11175,29.33
11186,25.95
11198,29.23
11210,38.14
11222,48.56
11234,56.39
11246,58.94
11258,55.33
11270,45.72
11282,31.1
11294,14.12
11306,-1.04
11318,-10.24
11330,-12.26
11342,-8.08
11354,-0.21
11365,8.55
11376,15.39
11388,20.18
11400,23.37
11412,25.74
11424,27.88
11436,29.29
11448,29.58
11460,28.72
11472,27.34
11484,26.13
11496,25.73
11508,26.11
11520,26.95
11532,27.84
11544,27.53
11555,25.86
11566,22.76
11578,18.99
11590,14.93
11602,10.43
11614,4.7
11626,-2.6
11638,-10.99
11650,-20.35
11662,-30.26
11674,-40.24
11686,-49.76
11698,-58.48
11710,-64.87
11722,-68.11
11734,-67.81
11745,-64.17
11756,-57.88
11768,-49.73
11780,-40.56
11792,-30.96
11804,-21.25
11816,-11.44
11828,-1.62
11840,8.0
11852,16.94
11864,24.46
11876,29.94
11888,33.01
11900,33.74
11912,32.56
11924,30.14
11935,27.08
11946,23.84
11958,20.62
11970,17.44
11982,14.38
11994,11.55
12006,9.09
12018,7.04
12030,5.32
12042,3.61
12054,1.59
12066,-0.96
12078,-4.04
12090,-7.19
12102,-9.79
12114,-11.25
12125,-11.26
12136,-9.95
12148,-7.83
12160,-5.69
12172,-4.3
12184,-4.22
12196,-5.36
12208,-7.2
12220,-8.93
12232,-9.68
12244,-8.65
12256,-5.09
12268,1.32
12280,10.11
12292,19.9
12304,29.02
12315,35.61
12326,38.17
12338,36.31
12350,30.85
12362,24.13
12374,18.64
12386,16.01
12398,16.53
12410,19.95
12422,25.28
12434,31.25
12446,36.84
12458,41.2
12470,44.56
12482,47.25
12494,49.33
12505,50.66
12516,51.85
12528,53.35
12540,55.07
12552,56.61
12564,57.16
12576,56.98
12588,56.55
12600,56.11
12612,50.22
12624,36.16
12636,15.04
12648,-9.26
12660,-29.53
12672,-45.75
12684,-58.86
12695,-69.66
12706,-79.21
12718,-87.62
12730,-93.84
12742,-96.61
12754,-95.9
12766,-92.04
12778,-86.31
12790,-79.36
12802,-71.93
12814,-64.86
12826,-58.85
12838,-53.66
12850,-48.46
12862,-43.67
12874,-39.48
12885,-36.57
12896,-34.84
12908,-33.96
12920,-33.6
12932,-33.38
12944,-32.69
12956,-30.52
12968,-27.61
12980,-24.23
12992,-20.77
13004,-17.06
13016,-12.76
13028,-7.74
13040,-2.08
13052,-0.15
13064,3.15
13075,6.89
13086,10.94
13098,15.1
13110,19.21
13122,22.96
13134,25.82
13146,27.28
13158,27.08
13170,25.91
13182,23.27
13194,19.49
13206,14.88
13218,9.81
13230,4.74
13242,0.2
13254,-3.06
13265,-4.15
13276,-1.73
13288,4.1
13300,13.22
13312,24.74
13324,37.19
13336,48.92
13348,58.55
13360,65.37
13372,69.37
13384,71.41
13396,71.83
13408,71.21
13420,69.86
13432,67.85
13444,65.16
13455,61.79
13466,57.87
13478,53.62
13490,49.44
13502,45.37
13514,41.52
13526,37.94
13538,34.61
13550,31.56
13562,28.84
13574,26.46
13586,24.36
13598,22.41
13610,20.3
13622,17.75
13634,14.69
13645,11.19
13656,7.51
13668,3.88
13680,0.45
13692,-2.86
13704,-6.24
13716,-9.82
13728,-13.56
13740,-17.13
13752,-20.0
13764,-21.62
13776,-21.65
13788,-20.05
13800,-17.11
13812,-13.37
13824,-9.49
13835,-6.06
13846,-3.55
13858,-2.13
13870,-1.72
13882,-2.05
13894,-2.66
13906,-3.11
13918,-3.03
13930,-2.29
13942,-0.92
13954,0.86
13966,2.76
13978,4.51
13990,5.91
14002,6.9
14014,7.47
14025,7.67
14036,7.52
14048,6.95
14060,5.91
14072,4.32
14084,2.24
14096,-0.19
14108,-2.76
14120,-5.28
14132,-7.64
14144,-9.88
14156,-12.07
14168,-14.33
14180,-16.71
14192,-19.23
14204,-21.86
14215,-24.5
14226,-26.98
14238,-28.98
14250,-30.13
14262,-30.04
14274,-28.52
14286,-25.67
14298,-21.88
14310,-17.71
14322,-13.71
14334,-10.23
14346,-7.44
14358,-5.36
14370,-4.02
14382,-3.45
14394,-3.69
14405,-4.7
14416,-6.27
14428,-8.05
14440,-9.66
14452,-10.79
14464,-11.27
14476,-11.07
14488,-10.33
14500,-9.21
14512,-7.95
14524,-6.78
14536,-5.89
14548,-5.39
14560,-5.25
14572,-5.36
14584,-5.56
14595,-5.74
14606,-5.93
14618,-6.22
14630,-6.73
14642,-7.49
14654,-8.47
14666,-9.61
14678,-10.86
14690,-12.3
14702,-14.08
14714,-16.32
14726,-19.05
14738,-22.05
14750,-24.89
14762,-27.02
14774,-27.86
14785,-26.94
14796,-24.07
14808,-19.4
14820,-13.41
14832,-6.75
14844,-0.14
14856,5.88
14868,11.02
14880,15.24
14892,18.61
14904,21.17
14916,22.89
14928,23.7
14940,23.55
14952,22.59
14964,21.1
14975,19.51
14986,18.26
14998,17.61
15010,17.59
15022,17.99
15034,18.42
15046,18.54
15058,18.17
15070,17.37
15082,16.36
15094,15.44
15106,14.74
15118,14.2
15130,13.61
15142,12.68
15154,11.26
15165,9.37
15176,7.17
15188,4.88
15200,2.69
15212,0.68
15224,-1.12
15236,-2.64
15248,-3.8
15260,-4.49
15272,-4.7
15284,-4.6
15296,-4.57
15308,-5.12
15320,-6.64
15332,-9.18
15344,-12.42
15355,-15.66
15366,-18.14
15378,-19.25
15390,-18.75
15402,-16.81
15414,-13.82
15426,-10.22
15438,-6.41
15450,-2.65
15462,0.85
15474,3.9
15486,6.32
15498,7.98
15510,8.83
15522,8.95
15534,8.52
15545,7.78
15556,6.95
15568,6.21
15580,5.7
15592,5.44
15604,5.41
15616,5.52
15628,5.67
15640,5.81
15652,5.9
15664,5.91
15676,5.77
15688,5.42
15700,4.79
15712,3.95
15724,3.04
15735,2.27
15746,1.77
15758,1.52
15770,1.34
15782,0.97
15794,0.17
15806,-1.13
15818,-2.84
15830,-4.74
15842,-6.63
15854,-8.37
15866,-9.91
15878,-11.25
15890,-12.42
15902,-13.44
15914,-14.41
15925,-15.47
15936,-16.8
15948,-18.58
15960,-20.85
15972,-23.5
15984,-26.24
15996,-28.63
16008,-30.17
16020,-30.47
16032,-29.33
16044,-26.73
16056,-22.94
16068,-18.36
16080,-13.47
16092,-8.71
16104,-4.38
16115,-0.66
16126,2.4
16138,4.76
16150,6.42
16162,7.38
16174,7.74
16186,7.61
16198,7.14
16210,6.51
16222,5.84
16234,5.25
16246,4.9
16258,4.96
16270,5.57
16282,6.73
16294,8.24
16305,9.72
16316,10.72
16328,10.93
16340,10.27
16352,8.91
16364,7.18
16376,5.38
16388,3.74
16400,2.31
16412,1.07
16424,-0.02
16436,-1.02
16448,-1.98
16460,-2.97
16472,-4.06
16484,-5.23
16495,-6.36
16506,-7.25
16518,-7.73
16530,-7.68
16542,-7.15
16554,-6.31
16566,-5.4
16578,-4.62
16590,-4.08
16602,-3.8
16614,-3.74
16626,-3.93
16638,-4.38
16650,-5.12
16662,-6.13
16674,-7.27
16685,-8.26
16696,-8.71
16708,-8.24
16720,-6.55
16732,-3.6
16744,0.41
16756,5.03
16768,9.72
16780,13.94
16792,17.32
16804,19.68
16816,21.04
16828,21.53
16840,21.33
16852,20.58
16864,19.42
16875,18.06
16886,16.7
16898,15.6
16910,14.92
16922,14.67
16934,14.71
16946,14.79
16958,14.7
16970,14.35
16982,13.78
16994,13.14
17006,12.55
17018,12.04
17030,11.56
17042,11.01
17054,10.28
17065,9.34
17076,8.19
17088,6.87
17100,5.44
17112,3.97
17124,2.58
17136,1.34
17148,0.26
17160,-0.72
17172,-1.7
17184,-2.82
17196,-4.12
17208,-5.56
17220,-7.0
17232,-8.28
17244,-9.31
17255,-10.11
17266,-10.84
17278,-11.67
17290,-12.7
17302,-13.94
17314,-15.3
17326,-16.59
17338,-17.59
17350,-18.06
17362,-17.72
17374,-16.29
17386,-13.62
17398,-9.71
17410,-4.83
17422,0.5
17434,5.69
17445,10.24
17456,13.83
17468,16.4
17480,18.08
17492,19.04
17504,19.41
17516,19.32
17528,18.86
17540,18.19
17552,17.52
17564,17.03
17576,16.77
17588,16.64
17600,16.45
17612,15.99
17624,15.18
17635,14.07
17646,12.83
17658,11.58
17670,10.37
17682,9.15
17694,7.85
17706,6.43
17718,4.97
17730,3.57
17742,2.32
17754,1.22
17766,0.19
17778,-0.82
17790,-1.87
17802,-2.92
17814,-3.88
17825,-4.7
17836,-5.4
17848,-6.06
17860,-6.81
17872,-7.71
17884,-8.8
17896,-9.97
17908,-11.11
17920,-12.12
17932,-12.97
17944,-13.76
17956,-14.61
17968,-15.64
17980,-16.83
17992,-17.97
18004,-18.72
18015,-18.72
18026,-17.71
18038,-15.64
18050,-12.68
18062,-9.12
18074,-5.37
18086,-1.82
18098,1.2
18110,3.48
18122,4.87
18134,5.35
18146,5.0
18158,3.99
18170,2.59
18182,1.09
18194,-0.23
18205,-1.17
18216,-1.66
18228,-1.73
18240,-1.45
18252,-0.92
18264,-0.24
18276,0.48
18288,1.14
18300,1.63
18312,1.83
18324,1.71
18336,1.27
18348,0.61
18360,-0.12
18372,-0.8
18384,-1.32
18395,-1.67
18406,-1.9
18418,-2.11
18430,-2.38
18442,-2.8
18454,-3.39
18466,-4.11
18478,-4.87
18490,-5.55
18502,-6.07
18514,-6.4
18526,-6.58
18538,-6.73
18550,-6.95
18562,-7.38
18574,-8.05
18585,-9.0
18596,-10.15
18608,-11.35
18620,-12.38
18632,-12.9
18644,-12.66
18656,-11.43
18668,-9.21
18680,-6.16
18692,-2.65
18704,0.92
18716,4.14
18728,6.69
18740,8.39
18752,9.16
18764,9.07
18775,8.24
18786,6.9
18798,5.31
18810,3.71
18822,2.36
18834,1.44
18846,1.09
18858,1.28
18870,1.89
18882,2.7
18894,3.46
18906,3.99
18918,4.22
18930,4.17
18942,3.91
18954,3.49
18965,2.91
18976,2.15
18988,1.24
19000,0.23
19012,-0.8
19024,-1.73
19036,-2.48
19048,-3.01
19060,-3.31
19072,-3.43
19084,-3.45
19096,-3.46
19108,-3.57
19120,-3.85
19132,-4.32
19144,-4.96
19155,-5.75
19166,-6.69
19178,-7.76
19190,-8.95
19202,-10.1
19214,-10.97
19226,-11.23
19238,-10.59
19250,-8.9
19262,-6.22
19274,-2.88
19286,0.66
19298,3.92
19310,6.56
19322,8.4
19334,9.48
19345,9.86
19356,9.68
19368,8.96
19380,7.79
19392,6.25
19404,4.56
19416,2.98
19428,1.79
19440,1.13
19452,1.03
19464,1.35
19476,1.91
19488,2.54
19500,3.2
19512,3.9
19524,4.66
19535,5.44
19546,6.08
19558,6.41
19570,6.35
19582,5.95
19594,5.39
19606,4.93
19618,4.7
19630,4.71
19642,4.84
19654,4.94
19666,4.9
19678,4.65
19690,4.17
19702,3.4
19714,2.31
19725,0.88
19736,-0.76
19748,-2.42
19760,-3.89
19772,-5.05
19784,-5.87
19796,-6.34
19808,-6.4
19820,-5.93
19832,-4.78
19844,-2.92
19856,-0.53
19868,2.02
19880,4.3
19892,5.91
19904,6.67
19915,6.56
19926,5.71
19938,4.32
19950,2.56
19962,0.62
19974,-1.31
19986,-3.05
19998,-4.4
20010,-5.24
20022,-5.54
20034,-5.37
20046,-4.9
20058,-4.36
20070,-3.96
20082,-3.82
20094,-4.02
20105,-4.55
20116,-5.34
20128,-6.33
20140,-7.48
20152,-8.71
20164,-9.96
20176,-11.16
20188,-12.25
20200,-13.22
20212,-14.14
20224,-15.1
20236,-16.19
20248,-17.42
20260,-18.7
20272,-19.9
20284,-20.9
20295,-21.64
20306,-22.14
20318,-22.36
20330,-22.25
20342,-21.66
20354,-20.41
20366,-18.35
20378,-15.48
20390,-11.92
20402,-7.94
20414,-3.88
20426,-0.08
20438,3.13
20450,5.51
20462,6.91
20474,7.34
20485,6.96
20496,6.06
20508,4.98
20520,4.06
20532,3.57
20544,3.71
20556,4.53
20568,5.96
20580,7.82
20592,9.84
20604,11.72
20616,13.25
20628,14.26
20640,14.71
20652,14.61
20664,13.99
20675,12.91
20686,11.48
20698,9.82
20710,8.13
20722,6.58
20734,5.25
20746,4.12
20758,3.06
20770,1.9
20782,0.54
20794,-1.06
20806,-2.81
20818,-4.57
20830,-6.13
20842,-7.26
20854,-7.7
20865,-7.24
20876,-5.76
20888,-3.36
20900,-0.29
20912,3.12
20924,6.48
20936,9.54
20948,12.1
20960,14.05
20972,15.28
20984,15.68
20996,15.22
