seconds,BVP
4,-92.86
16,-93.72
28,-94.07
40,-94.69
52,-96.19
64,-98.98
76,-102.86
88,-106.88
100,-109.52
112,-109.39
124,-105.98
136,-100.07
148,-93.58
160,-88.78
171,-87.42
182,-89.99
194,-95.56
206,-102.16
218,-107.42
230,-109.4
242,-107.15
254,-101.11
266,-92.92
278,-84.91
290,-79.24
302,-77.09
314,-78.19
326,-81.01
338,-83.48
350,-83.83
361,-81.19
372,-75.76
384,-68.35
396,-59.99
408,-51.51
420,-43.57
432,-36.67
444,-31.3
456,-27.82
468,-26.21
480,-25.95
492,-26.01
504,-25.19
516,-22.48
528,-17.48
540,-10.46
551,-2.33
562,5.75
574,12.61
586,17.4
598,19.76
610,19.84
622,18.27
634,15.97
646,13.82
658,12.37
670,11.7
682,11.37
694,10.74
706,9.28
718,6.85
730,3.68
741,0.23
752,-3.12
764,-6.28
776,-9.47
788,-13.09
800,-17.38
812,-22.19
824,-26.9
836,-30.62
848,-32.48
860,-32.04
872,-29.43
884,-25.3
896,-20.53
908,-15.85
920,-11.66
931,-7.98
942,-4.7
954,-1.77
966,0.67
978,2.38
990,3.18
1002,3.15
1014,2.58
1026,1.91
1038,1.43
1050,1.21
1062,1.04
1074,0.56
1086,-0.53
1098,-2.31
1110,-4.64
1121,-7.16
1132,-9.57
1144,-11.68
1156,-13.57
1168,-15.42
1180,-17.29
1192,-19.02
1204,-20.14
1216,-20.03
1228,-18.24
1240,-14.65
1252,-9.6
1264,-3.81
1276,1.91
1288,6.89
1300,10.73
1311,13.33
1322,14.79
1334,15.18
1346,14.59
1358,13.03
1370,10.59
1382,7.49
1394,4.12
1406,0.94
1418,-1.62
1430,-3.38
1442,-4.4
1454,-5.03
1466,-5.67
1478,-6.71
1490,-8.29
1501,-10.39
1512,-12.85
1524,-15.46
1536,-17.88
1548,-19.74
1560,-20.57
1572,-20.01
1584,-17.93
1596,-14.5
1608,-10.23
1620,-5.75
1632,-1.6
1644,1.89
1656,4.63
1668,6.7
1680,8.19
1691,9.13
1702,9.57
1714,9.53
1726,9.13
1738,8.5
1750,7.77
1762,7.02
1774,6.31
1786,5.65
1798,5.08
1810,4.57
1822,4.09
1834,3.54
1846,2.77
1858,1.61
1870,-0.1
1881,-2.43
1892,-5.24
1904,-8.24
1916,-10.89
1928,-12.56
1940,-12.77
1952,-11.34
1964,-8.46
1976,-4.7
1988,-0.76
2000,2.73
2012,5.43
2024,7.27
2036,8.38
2048,8.91
2060,8.96
2071,8.47
2082,7.37
2094,5.66
2106,3.52
2118,1.26
2130,-0.78
2142,-2.36
2154,-3.4
2166,-3.98
2178,-4.27
2190,-4.46
2202,-4.67
2214,-5.05
2226,-5.75
2238,-6.96
2250,-8.83
2261,-11.32
2272,-14.14
2284,-16.74
2296,-18.45
2308,-18.68
2320,-17.14
2332,-13.95
2344,-9.63
2356,-4.98
2368,-0.78
2380,2.39
2392,4.31
2404,5.12
2416,5.1
2428,4.57
2440,3.66
2451,2.37
2462,0.66
2474,-1.44
2486,-3.7
2498,-5.84
2510,-7.62
2522,-8.99
2534,-10.08
2546,-11.09
2558,-12.16
2570,-13.33
2582,-14.55
2594,-15.79
2606,-17.15
2618,-18.73
2630,-20.52
2641,-22.26
2652,-23.45
2664,-23.52
2676,-22.06
2688,-19.09
2700,-15.01
2712,-10.49
2724,-6.17
2736,-2.48
2748,0.47
2760,2.7
2772,4.27
2784,5.17
2796,5.39
2808,5.02
2820,4.31
2831,3.61
2842,3.24
2854,3.35
2866,3.87
2878,4.57
2890,5.14
2902,5.32
2914,4.98
2926,4.09
2938,2.78
2950,1.26
2962,-0.23
2974,-1.44
2986,-2.17
2998,-2.26
3010,-1.59
3021,-0.0
3032,2.64
3044,6.37
3056,11.06
3068,16.38
3080,21.83
3092,26.84
3104,30.94
3116,33.8
3128,35.29
3140,35.46
3152,34.47
3164,32.52
3176,29.8
3188,26.41
3200,22.35
3211,17.56
3222,11.97
3234,5.67
3246,-1.1
3258,-7.93
3270,-14.34
3282,-19.93
3294,-24.53
3306,-28.18
3318,-31.16
3330,-33.84
3342,-36.5
3354,-39.23
3366,-41.85
3378,-43.9
3390,-44.77
3401,-43.92
3412,-40.98
3424,-35.95
3436,-29.14
3448,-21.16
3460,-12.75
3472,-4.63
3484,2.57
3496,8.41
3508,12.62
3520,15.12
3532,15.99
3544,15.45
3556,13.84
3568,11.57
3580,9.09
3591,6.79
3602,4.94
3614,3.7
3626,3.03
3638,2.77
3650,2.66
3662,2.52
3674,2.21
3686,1.67
3698,0.83
3710,-0.5
3722,-2.53
3734,-5.36
3746,-8.87
3758,-12.51
3770,-15.5
3781,-17.01
3792,-16.53
3804,-14.08
3816,-10.22
3828,-5.84
3840,-1.79
3852,1.44
3864,3.73
3876,5.29
3888,6.4
3900,7.23
3912,7.77
3924,7.93
3936,7.68
3948,7.1
3960,6.42
3971,5.9
3982,5.7
3994,5.79
4006,6.0
4018,6.09
4030,5.88
4042,5.33
4054,4.5
4066,3.44
4078,2.13
4090,0.42
4102,-1.87
4114,-4.72
4126,-7.76
4138,-10.3
4150,-11.48
4161,-10.65
4172,-7.7
4184,-3.09
4196,2.3
4208,7.54
4220,12.05
4232,15.66
4244,18.54
4256,20.92
4268,22.87
4280,24.24
4292,24.83
4304,24.51
4316,23.36
4328,21.68
4340,19.82
4351,18.03
4362,16.39
4374,14.81
4386,13.11
4398,11.17
4410,9.0
4422,6.72
4434,4.5
4446,2.4
4458,0.3
4470,-2.06
4482,-4.9
4494,-8.22
4506,-11.65
4518,-14.52
4530,-16.09
4541,-15.87
4552,-13.81
4564,-10.34
4576,-6.17
4588,-2.0
4600,1.66
4612,4.57
4624,6.74
4636,8.24
4648,9.15
4660,9.47
4672,9.22
4684,8.46
4696,7.3
4708,5.94
4720,4.56
4731,3.34
4742,2.32
4754,1.49
4766,0.75
4778,-0.04
4790,-0.98
4802,-2.18
4814,-3.65
4826,-5.46
4838,-7.64
4850,-10.21
4862,-13.08
4874,-15.98
4886,-18.42
4898,-19.83
4910,-19.73
4921,-17.93
4932,-14.66
4944,-10.52
4956,-6.24
4968,-2.38
4980,0.74
4992,3.14
5004,4.97
5016,6.36
5028,7.24
5040,7.48
5052,6.92
5064,5.58
5076,3.73
5088,1.75
5100,0.01
5111,-1.25
5122,-2.01
5134,-2.42
5146,-2.68
5158,-3.01
5170,-3.54
5182,-4.41
5194,-5.77
5206,-7.77
5218,-10.45
5230,-13.66
5242,-16.91
5254,-19.52
5266,-20.75
5278,-20.11
5290,-17.5
5301,-13.32
5312,-8.26
5324,-3.13
5336,1.46
5348,5.17
5360,7.96
5372,9.91
5384,11.12
5396,11.66
5408,11.59
5420,11.06
5432,10.32
5444,9.61
5456,9.1
5468,8.8
5480,8.53
5491,8.06
5502,7.24
5514,6.14
5526,4.93
5538,3.85
5550,2.95
5562,2.04
5574,0.83
5586,-0.97
5598,-3.28
5610,-5.66
5622,-7.34
5634,-7.58
5646,-5.97
5658,-2.62
5670,1.86
5681,6.62
5692,10.86
5704,14.11
5716,16.25
5728,17.42
5740,17.81
5752,17.6
5764,16.87
5776,15.68
5788,14.11
5800,12.28
5812,10.31
5824,8.29
5836,6.29
5848,4.31
5860,2.38
5871,0.54
5882,-1.18
5894,-2.76
5906,-4.26
5918,-5.83
5930,-7.68
5942,-9.98
5954,-12.79
5966,-15.96
5978,-19.05
5990,-21.47
6002,-22.56
6014,-21.81
6026,-19.06
6038,-14.54
6050,-8.82
6061,-2.67
6072,3.14
6084,8.0
6096,11.6
6108,13.86
6120,14.88
6132,14.86
6144,13.98
6156,12.44
6168,10.4
6180,8.13
6192,5.91
6204,4.08
6216,2.87
6228,2.3
6240,2.18
6251,2.17
6262,1.98
6274,1.42
6286,0.49
6298,-0.76
6310,-2.33
6322,-4.26
6334,-6.6
6346,-9.25
6358,-11.83
6370,-13.81
6382,-14.59
6394,-13.74
6406,-11.23
6418,-7.34
6430,-2.66
6441,2.11
6452,6.34
6464,9.54
6476,11.47
6488,12.17
6500,11.87
6512,10.99
6524,9.9
6536,8.9
6548,8.07
6560,7.29
6572,6.39
6584,5.28
6596,3.99
6608,2.71
6620,1.61
6631,0.73
6642,-0.07
6654,-1.11
6666,-2.76
6678,-5.24
6690,-8.55
6702,-12.38
6714,-16.21
6726,-19.45
6738,-21.57
6750,-22.24
6762,-21.35
6774,-19.04
6786,-15.62
6798,-11.52
6810,-7.2
6821,-3.05
6832,0.66
6844,3.78
6856,6.28
6868,8.12
6880,9.21
6892,9.37
6904,8.41
6916,6.25
6928,3.06
6940,-0.65
6952,-4.2
6964,-6.91
6976,-8.46
6988,-9.01
7000,-9.09
7011,-9.41
7022,-10.46
7034,-12.36
7046,-14.8
7058,-17.27
7070,-19.29
7082,-20.56
7094,-20.99
7106,-20.5
7118,-18.9
7130,-15.85
7142,-11.01
7154,-4.19
7166,4.49
7178,14.59
7190,25.5
7201,36.63
7212,47.57
7224,58.1
7236,68.18
7248,77.99
7260,87.99
7272,99.06
7284,112.29
7296,128.52
7308,147.67
7320,168.33
7332,187.92
7344,203.63
7356,213.51
7368,217.51
7380,217.69
7391,217.51
7402,220.52
7414,228.88
7426,242.34
7438,258.11
7450,271.69
7462,278.21
7474,274.02
7486,257.74
7498,230.5
7510,195.4
7522,156.28
7534,116.62
7546,78.78
7558,43.95
7570,12.57
7581,-15.11
7592,-38.83
7604,-58.41
7616,-74.03
7628,-86.41
7640,-96.58
7652,-105.48
7664,-113.57
7676,-120.62
7688,-126.0
7700,-129.17
7712,-130.12
7724,-129.55
7736,-128.52
7748,-128.01
7760,-128.43
7771,-129.51
7782,-130.55
7794,-130.82
7806,-129.96
7818,-128.01
7830,-125.2
7842,-121.77
7854,-117.73
7866,-112.97
7878,-107.37
7890,-100.91
7902,-93.75
7914,-86.15
7926,-78.43
7938,-70.95
7950,-64.13
7961,-58.36
7972,-53.98
7984,-51.18
7996,-49.83
8008,-49.53
8020,-49.73
8032,-49.91
8044,-49.79
8056,-49.38
8068,-48.97
8080,-48.9
8092,-49.43
8104,-50.56
8116,-51.98
8128,-53.18
8140,-53.58
8151,-52.76
8162,-50.63
8174,-47.5
8186,-43.86
8198,-40.15
8210,-36.4
8222,-32.11
8234,-26.37
8246,-18.31
8258,-7.54
8270,5.6
8282,20.07
8294,34.53
8306,47.71
8318,58.77
8330,67.31
8341,73.35
8352,77.16
8364,79.17
8376,79.83
8388,79.6
8400,78.75
8412,77.48
8424,75.89
8436,74.01
8448,71.89
8460,69.44
8472,66.34
8484,61.97
8496,55.51
8508,46.13
8520,33.45
8531,17.86
8542,0.74
8554,-15.67
8566,-28.69
8578,-35.94
8590,-36.12
8602,-29.4
8614,-17.54
8626,-3.54
8638,8.95
8650,16.37
8662,15.97
8674,6.68
8686,-10.57
8698,-32.82
8710,-55.98
8721,-76.19
8732,-91.21
8744,-101.13
8756,-107.95
8768,-114.26
8780,-121.81
8792,-130.66
8804,-139.53
8816,-146.89
8828,-151.96
8840,-155.02
8852,-156.89
8864,-157.99
8876,-157.87
8888,-155.41
8900,-149.62
8911,-140.44
8922,-128.97
8934,-117.13
8946,-106.83
8958,-99.15
8970,-94.01
8982,-90.37
8994,-86.68
9006,-81.58
9018,-74.36
9030,-65.18
9042,-54.97
9054,-45.15
9066,-37.08
9078,-31.63
9090,-28.79
9101,-27.86
9112,-27.72
9124,-27.43
9136,-26.59
9148,-25.37
9160,-24.3
9172,-23.86
9184,-24.19
9196,-25.06
9208,-26.05
9220,-26.8
9232,-27.26
9244,-27.66
9256,-28.37
9268,-29.6
9280,-31.2
9291,-32.59
9302,-32.9
9314,-31.3
9326,-27.4
9338,-21.35
9350,-13.86
9362,-5.9
9374,1.68
9386,8.35
9398,14.0
9410,18.76
9422,22.78
9434,26.05
9446,28.39
9458,29.51
9470,29.26
9481,27.68
9492,25.18
9504,22.35
9516,19.86
9528,18.19
9540,17.5
9552,17.6
9564,17.98
9576,18.09
9588,17.42
9600,15.62
9612,12.55
9624,8.25
9636,3.04
9648,-2.5
9660,-7.51
9671,-11.09
9682,-12.62
9694,-11.96
9706,-9.54
9718,-6.14
9730,-2.54
9742,0.77
9754,3.68
9766,6.28
9778,8.58
9790,10.34
9802,11.13
9814,10.55
9826,8.45
9838,5.14
9850,1.29
9861,-2.19
9872,-4.39
9884,-4.56
9896,-2.35
9908,2.04
9920,7.86
9932,13.98
9944,19.24
9956,22.9
9968,24.97
9980,26.24
9992,27.98
10004,31.44
10016,37.36
10028,45.6
10040,55.27
10051,65.01
10062,73.44
10074,79.6
10086,83.05
10098,83.92
10110,82.67
10122,79.82
10134,75.84
10146,71.06
10158,65.68
10170,59.91
10182,54.02
10194,48.46
10206,43.97
10218,41.54
10230,42.29
10241,47.06
10252,55.99
10264,68.21
10276,82.0
10288,95.26
10300,106.16
10312,113.76
10324,118.19
10336,120.41
10348,121.73
10360,123.25
10372,125.55
10384,128.65
10396,132.19
10408,135.64
10420,138.46
10431,140.12
10442,140.12
10454,138.03
10466,133.64
10478,127.03
10490,118.6
10502,108.82
10514,98.18
10526,86.83
10538,74.69
10550,61.49
10562,47.03
10574,31.28
10586,14.34
10598,-3.73
10610,-23.0
10621,-43.64
10632,-65.65
10644,-88.51
10656,-111.07
10668,-131.69
10680,-148.64
10692,-160.56
10704,-166.65
10716,-166.85
10728,-161.52
10740,-151.35
10752,-137.14
10764,-119.86
10776,-100.61
10788,-80.75
10800,-61.76
10811,-45.06
10822,-31.75
10834,-22.45
10846,-17.22
10858,-15.66
10870,-17.22
10882,-21.44
10894,-28.22
10906,-37.7
10918,-50.22
10930,-65.94
10942,-84.55
10954,-104.97
10966,-125.31
10978,-143.18
10990,-156.2
11001,-162.6
11012,-161.66
11024,-153.69
11036,-139.74
11048,-121.11
11060,-99.13
11072,-75.07
11084,-50.23
11096,-25.87
11108,-2.96
11120,18.32
11132,38.68
11144,59.42
11156,81.59
11168,105.18
11180,128.73
11191,149.86
11202,166.24
11214,176.59
11226,180.95
11238,180.31
11250,175.78
11262,168.17
11274,157.87
11286,145.29
11298,131.06
11310,115.99
11322,100.58
11334,84.72
11346,67.9
11358,49.76
11370,30.87
11381,12.95
11392,-1.58
11404,-10.62
11416,-13.24
11428,-10.1
11440,-3.17
11452,5.08
11464,12.61
11476,18.43
11488,22.85
11500,27.17
11512,33.04
11524,41.72
11536,53.53
11548,67.66
11560,82.22
11571,94.65
11582,102.08
11594,101.81
11606,91.8
11618,71.06
11630,40.15
11642,1.49
11654,-40.62
11666,-80.66
11678,-113.14
11690,-134.12
11702,-142.36
11714,-139.54
11726,-129.28
11738,-115.56
11750,-101.14
11761,-86.73
11772,-71.38
11784,-53.65
11796,-32.9
11808,-9.99
11820,13.01
11832,33.66
11844,50.26
11856,62.29
11868,70.47
11880,76.2
11892,81.19
11904,86.92
11916,94.24
11928,103.11
11940,112.45
11951,120.28
11962,124.24
11974,122.43
11986,114.32
11998,101.16
12010,85.61
12022,70.78
12034,59.11
12046,51.72
12058,48.49
12070,48.53
12082,50.69
12094,53.63
12106,55.71
12118,55.09
12130,50.37
12141,41.5
12152,30.17
12164,19.23
12176,11.06
12188,6.07
12200,2.25
12212,-3.64
12224,-14.03
12236,-28.91
12248,-45.83
12260,-61.56
12272,-73.97
12284,-83.02
12296,-90.2
12308,-97.05
12320,-103.91
12331,-109.89
12342,-113.83
12354,-115.4
12366,-115.52
12378,-115.65
12390,-116.76
12402,-118.72
12414,-120.52
12426,-121.06
12438,-120.01
12450,-118.18
12462,-117.09
12474,-118.21
12486,-122.12
12498,-128.12
12510,-134.37
12521,-138.48
12532,-138.36
12544,-133.02
12556,-122.84
12568,-109.39
12580,-94.76
12592,-80.75
12604,-68.4
12616,-57.99
12628,-49.39
12640,-42.4
12652,-36.94
12664,-32.93
12676,-30.03
12688,-27.71
12700,-25.41
12711,-22.85
12722,-20.12
12734,-17.37
12746,-14.36
12758,-10.32
12770,-4.29
12782,3.97
12794,13.44
12806,21.83
12818,26.6
12830,26.36
12842,21.72
12854,14.99
12866,8.97
12878,5.25
12890,3.53
12901,1.93
12912,-1.64
12924,-8.29
12936,-17.7
12948,-28.81
12960,-40.74
12972,-53.22
12984,-66.21
12996,-78.98
13008,-89.61
13020,-95.36
13032,-93.95
13044,-84.76
13056,-69.23
13068,-50.38
13080,-31.53
13091,-15.17
13102,-2.49
13114,6.42
13126,12.15
13138,15.64
13150,18.09
13162,20.81
13174,24.89
13186,30.65
13198,37.29
13210,43.21
13222,46.77
13234,47.27
13246,45.45
13258,43.08
13270,41.98
13281,42.99
13292,45.43
13304,47.42
13316,46.85
13328,42.22
13340,33.32
13352,21.21
13364,7.94
13376,-4.14
13388,-12.85
13400,-16.51
13412,-14.22
13424,-5.99
13436,7.1
13448,22.98
13460,39.0
13471,52.55
13482,61.97
13494,67.07
13506,69.16
13518,70.25
13530,72.04
13542,74.95
13554,78.01
13566,79.49
13578,78.02
13590,73.37
13602,66.49
13614,58.84
13626,51.54
13638,44.81
13650,38.02
13661,30.17
13672,20.55
13684,9.17
13696,-3.02
13708,-14.42
13720,-23.27
13732,-28.31
13744,-29.32
13756,-27.4
13768,-24.6
13780,-23.26
13792,-25.13
13804,-30.74
13816,-39.37
13828,-49.35
13840,-58.47
13851,-64.24
13862,-64.06
13874,-55.68
13886,-37.97
13898,-11.75
13910,19.81
13922,51.96
13934,79.78
13946,99.97
13958,111.6
13970,115.76
13982,114.25
13994,108.41
14006,98.76
14018,85.48
14030,69.29
14041,51.81
14052,35.21
14064,21.31
14076,10.91
14088,3.57
14100,-2.03
14112,-7.5
14124,-14.33
14136,-23.61
14148,-35.86
14160,-50.72
14172,-66.87
14184,-82.07
14196,-93.67
14208,-99.53
14220,-98.74
14231,-91.96
14242,-80.99
14254,-67.99
14266,-54.71
14278,-42.29
14290,-31.36
14302,-22.49
14314,-16.36
14326,-13.63
14338,-14.42
14350,-17.87
14362,-22.21
14374,-25.41
14386,-26.06
14398,-24.14
14410,-21.09
14421,-19.11
14432,-20.12
14444,-24.85
14456,-32.6
14468,-41.64
14480,-49.98
14492,-56.11
14504,-59.45
14516,-60.35
14528,-59.77
14540,-58.77
14552,-58.16
14564,-58.18
14576,-58.62
14588,-59.02
14600,-59.06
14611,-58.8
14622,-58.66
14634,-59.22
14646,-60.81
14658,-63.25
14670,-65.81
14682,-67.41
14694,-67.02
14706,-63.95
14718,-58.09
14730,-49.77
14742,-39.66
14754,-28.49
14766,-17.02
14778,-5.99
14790,3.79
14801,11.53
14812,16.55
14824,18.55
14836,17.86
14848,15.46
14860,12.73
14872,11.07
14884,11.41
14896,13.94
14908,18.15
14920,23.04
14932,27.52
14944,30.69
14956,32.06
14968,31.63
14980,29.86
14991,27.53
15002,25.6
15014,24.96
15026,26.19
15038,29.43
15050,34.36
15062,40.37
15074,46.72
15086,52.71
15098,57.76
15110,61.38
15122,63.2
15134,63.02
15146,60.93
15158,57.41
15170,53.19
15181,49.12
15192,45.83
15204,43.59
15216,42.27
15228,41.45
15240,40.63
15252,39.4
15264,37.63
15276,35.52
15288,33.61
15300,32.66
15312,33.45
15324,36.54
15336,42.03
15348,49.45
15360,57.89
15371,66.28
15382,73.61
15394,79.24
15406,82.86
15418,84.46
15430,84.18
15442,82.23
15454,78.82
15466,74.24
15478,68.9
15490,63.32
15502,57.97
15514,53.13
15526,48.72
15538,44.3
15550,39.2
15561,32.84
15572,25.08
15584,16.49
15596,8.21
15608,1.68
15620,-1.9
15632,-1.99
15644,1.17
15656,6.71
15668,13.54
15680,20.61
15692,27.14
15704,32.54
15716,36.38
15728,38.35
15740,38.35
15751,36.6
15762,33.63
15774,30.11
15786,26.62
15798,23.41
15810,20.38
15822,17.24
15834,13.8
15846,10.11
15858,6.54
15870,3.61
15882,1.79
15894,1.35
15906,2.3
15918,4.46
15930,7.53
15941,11.31
15952,15.73
15964,20.92
15976,27.08
15988,34.36
16000,42.66
16012,51.54
16024,60.25
16036,67.85
16048,73.5
16060,76.71
16072,77.45
16084,76.16
16096,73.58
16108,70.54
16120,67.7
16131,65.45
16142,63.85
16154,62.71
16166,61.71
16178,60.59
16190,59.25
16202,57.95
16214,57.31
16226,58.21
16238,61.56
16250,67.99
16262,77.57
16274,89.79
16286,103.67
16298,118.11
16310,132.16
16321,145.19
16332,156.73
16344,166.38
16356,173.66
16368,178.21
16380,179.98
16392,179.52
16404,177.82
16416,175.95
16428,174.45
16440,173.03
16452,170.57
16464,165.53
16476,156.58
16488,142.89
16500,124.34
16511,101.3
16522,74.56
16534,45.32
16546,15.23
16558,-13.63
16570,-39.17
16582,-59.88
16594,-75.32
16606,-86.26
16618,-94.25
16630,-100.88
16642,-107.19
16654,-113.44
16666,-119.4
16678,-124.89
16690,-130.06
16701,-135.35
16712,-141.23
16724,-147.74
16736,-154.46
16748,-160.62
16760,-165.52
16772,-168.88
16784,-170.95
16796,-172.47
16808,-174.29
16820,-177.08
16832,-180.95
16844,-185.36
16856,-189.19
16868,-191.14
16880,-190.18
16891,-185.91
16902,-178.74
16914,-169.55
16926,-159.36
16938,-148.89
16950,-138.39
16962,-127.79
16974,-117.05
16986,-106.39
16998,-96.38
17010,-87.69
17022,-80.79
17034,-75.62
17046,-71.5
17058,-67.36
17070,-62.09
17081,-54.99
17092,-46.08
17104,-36.05
17116,-26.02
17128,-17.01
17140,-9.53
17152,-3.36
17164,2.47
17176,9.25
17188,18.35
17200,30.67
17212,46.32
17224,64.41
17236,82.98
17248,99.51
17260,111.62
17271,117.89
17282,118.37
17294,114.41
17306,107.95
17318,100.48
17330,92.48
17342,83.47
17354,72.52
17366,59.19
17378,43.93
17390,28.02
17402,13.06
17414,0.36
17426,-9.39
17438,-16.23
17450,-20.64
17461,-23.37
17472,-25.22
17484,-26.88
17496,-28.89
17508,-31.44
17520,-34.41
17532,-37.38
17544,-39.86
17556,-41.43
17568,-41.91
17580,-41.34
17592,-39.93
17604,-37.94
17616,-35.56
17628,-32.94
17640,-30.22
17651,-27.65
17662,-25.67
17674,-24.83
17686,-25.57
17698,-27.91
17710,-31.29
17722,-34.57
17734,-36.49
17746,-36.09
17758,-33.29
17770,-28.91
17782,-24.44
17794,-21.31
17806,-20.26
17818,-20.96
17830,-22.07
17841,-21.8
17852,-18.59
17864,-11.81
17876,-2.11
17888,8.71
17900,18.01
17912,23.04
17924,21.73
17936,13.42
17948,-0.73
17960,-18.03
17972,-35.05
17984,-48.72
17996,-57.15
18008,-59.97
18020,-57.87
18031,-52.01
18042,-43.41
18054,-32.86
18066,-21.07
18078,-8.85
18090,2.82
18102,13.08
18114,21.4
18126,27.68
18138,32.23
18150,35.6
18162,38.35
18174,40.85
18186,43.09
18198,44.6
18210,44.64
18221,42.74
18232,39.19
18244,35.26
18256,32.71
18268,32.94
18280,35.99
18292,40.3
18304,43.32
18316,42.55
18328,36.61
18340,25.67
18352,11.05
18364,-5.36
18376,-21.79
18388,-36.77
18400,-49.14
18411,-58.14
18422,-63.64
18434,-66.41
18446,-67.94
18458,-69.96
18470,-73.54
18482,-78.36
18494,-82.36
18506,-82.14
18518,-74.28
18530,-56.97
18542,-31.44
18554,-2.26
18566,23.87
18578,40.34
18590,43.03
18601,31.71
18612,9.65
18624,-18.0
18636,-46.16
18648,-71.1
18660,-90.49
18672,-102.79
18684,-106.64
18696,-100.97
18708,-85.79
18720,-62.93
18732,-35.93
18744,-8.86
18756,15.04
18768,34.58
18780,50.59
18791,64.99
18802,79.6
18814,95.29
18826,111.95
18838,129.08
18850,146.38
18862,163.81
18874,181.13
18886,197.26
18898,210.13
18910,217.19
18922,216.45
18934,207.34
18946,190.79
18958,168.55
18970,142.19
18981,112.64
18992,80.55
19004,47.18
19016,15.09
19028,-12.32
19040,-32.22
19052,-43.9
19064,-49.35
19076,-52.33
19088,-56.22
19100,-62.32
19112,-69.41
19124,-74.88
19136,-76.74
19148,-74.94
19160,-71.36
19171,-68.47
19182,-67.8
19194,-69.23
19206,-71.49
19218,-73.29
19230,-74.3
19242,-75.14
19254,-76.59
19266,-78.71
19278,-80.55
19290,-80.6
19302,-77.71
19314,-71.71
19326,-63.44
19338,-54.33
19350,-45.82
19361,-39.07
19372,-34.96
19384,-34.16
19396,-37.14
19408,-44.03
19420,-54.26
19432,-66.31
19444,-77.73
19456,-85.47
19468,-86.69
19480,-79.59
19492,-64.29
19504,-43.0
19516,-19.54
19528,1.66
19540,16.87
19551,24.03
19562,23.07
19574,15.43
19586,3.32
19598,-11.23
19610,-26.73
19622,-42.33
19634,-57.64
19646,-72.39
19658,-86.26
19670,-98.74
19682,-109.12
19694,-116.62
19706,-120.66
19718,-120.96
19730,-117.68
19741,-111.18
19752,-101.84
19764,-90.01
19776,-76.14
19788,-61.19
19800,-46.73
19812,-34.71
19824,-26.78
19836,-23.65
19848,-24.77
19860,-28.57
19872,-33.17
19884,-37.07
19896,-39.56
19908,-40.63
19920,-40.68
19931,-40.32
19942,-40.24
19954,-41.33
19966,-44.65
19978,-51.23
19990,-61.63
20002,-75.46
20014,-91.11
20026,-105.98
20038,-117.12
20050,-122.23
20062,-120.39
20074,-112.38
20086,-100.28
20098,-86.46
20110,-72.71
20121,-59.68
20132,-47.05
20144,-34.17
20156,-20.72
20168,-6.94
20180,6.54
20192,19.08
20204,30.23
20216,39.74
20228,47.36
20240,52.73
20252,55.54
20264,55.8
20276,54.03
20288,51.12
20300,48.07
20311,45.45
20322,43.23
20334,40.73
20346,37.02
20358,31.36
20370,23.62
20382,14.6
20394,5.94
20406,-0.16
20418,-1.63
20430,2.78
20442,13.0
20454,27.62
20466,44.29
20478,60.51
20490,74.48
20501,85.39
20512,93.31
20524,98.57
20536,101.3
20548,101.23
20560,98.15
20572,92.39
20584,85.08
20596,78.0
20608,72.84
20620,70.6
20632,71.22
20644,73.72
20656,76.52
20668,77.91
20680,76.31
20691,70.65
20702,60.6
20714,46.73
20726,30.54
20738,13.96
20750,-1.15
20762,-13.52
20774,-22.64
20786,-28.56
20798,-31.61
20810,-32.44
20822,-32.1
20834,-32.28
20846,-34.98
20858,-41.72
20870,-52.64
20881,-65.95
20892,-78.43
20904,-86.66
20916,-88.49
20928,-83.96
20940,-75.21
20952,-65.52
20964,-57.93
20976,-54.29
20988,-54.94
