seconds,BVP
1,54.97
12,61.7
23,67.19
35,71.98
47,76.74
59,81.85
71,87.18
83,92.24
95,96.47
107,99.52
119,101.54
131,102.98
143,104.4
155,106.07
167,108.0
179,109.93
191,111.62
202,112.92
213,113.6
225,113.26
237,111.08
249,106.23
261,98.31
273,87.84
285,76.32
297,65.77
309,57.91
321,53.55
333,52.17
345,52.24
357,51.91
369,49.62
381,44.61
392,36.88
403,26.95
415,15.59
427,3.62
439,-8.05
451,-18.54
463,-27.09
475,-33.23
487,-37.06
499,-39.21
511,-40.79
523,-43.02
535,-46.97
547,-53.53
559,-63.29
571,-76.6
582,-93.31
593,-112.52
605,-132.35
617,-150.2
629,-163.46
641,-170.41
653,-170.93
665,-166.45
677,-159.34
689,-151.92
701,-145.65
713,-140.93
725,-137.31
737,-134.13
749,-130.78
761,-126.87
772,-122.01
783,-115.72
795,-107.5
807,-97.1
819,-84.63
831,-70.6
843,-55.76
855,-40.86
867,-26.56
879,-13.3
891,-1.4
903,8.91
915,17.51
927,24.44
939,29.92
951,34.24
962,37.78
973,40.71
985,43.03
997,44.57
1009,45.06
1021,44.33
1033,42.45
1045,39.74
1057,36.69
1069,33.87
1081,31.6
1093,29.97
1105,28.74
1117,27.48
1129,25.89
1141,23.77
1152,21.2
1163,18.39
1175,15.71
1187,13.46
1199,11.79
1211,10.67
1223,9.86
1235,8.91
1247,7.17
1259,3.91
1271,-1.52
1283,-9.44
1295,-19.62
1307,-31.11
1319,-42.41
1331,-51.73
1342,-57.53
1353,-59.0
1365,-56.36
1377,-50.62
1389,-43.26
1401,-35.64
1413,-28.49
1425,-21.82
1437,-15.07
1449,-7.41
1461,1.79
1473,12.84
1485,25.63
1497,39.73
1509,54.57
1521,69.48
1532,83.78
1543,96.63
1555,107.01
1567,113.8
1579,115.96
1591,112.8
1603,104.17
1615,90.39
1627,72.17
1639,50.44
1651,26.28
1663,1.03
1675,-23.57
1687,-45.51
1699,-62.67
1711,-73.17
1722,-75.74
1733,-69.94
1745,-56.35
1757,-36.54
1769,-13.04
1781,10.87
1793,31.56
1805,45.81
1817,51.58
1829,48.51
1841,37.93
1853,22.36
1865,4.48
1877,-13.53
1889,-30.47
1901,-46.0
1912,-60.26
1923,-73.44
1935,-85.57
1947,-96.61
1959,-106.59
1971,-115.86
1983,-124.99
1995,-134.37
2007,-143.94
2019,-152.75
2031,-159.15
2043,-161.3
2055,-157.82
2067,-148.31
2079,-133.53
2091,-115.07
2102,-94.85
2113,-74.53
2125,-55.39
2137,-38.39
2149,-24.44
2161,-14.55
2173,-9.58
2185,-9.98
2197,-15.42
2209,-24.71
2221,-35.76
2233,-45.82
2245,-51.76
2257,-50.46
2269,-39.52
2281,-17.94
2292,13.39
2303,51.84
2315,93.68
2327,135.0
2339,172.43
2351,203.44
2363,226.23
2375,239.57
2387,242.75
2399,235.71
2411,219.14
2423,194.32
2435,162.79
2447,126.1
2459,86.01
2471,44.72
2482,5.01
2493,-30.11
2505,-58.27
2517,-78.53
2529,-91.71
2541,-99.73
2553,-104.8
2565,-108.41
2577,-111.05
2589,-112.51
2601,-112.51
2613,-111.07
2625,-108.58
2637,-105.45
2649,-101.79
2661,-97.3
2672,-91.42
2683,-83.76
2695,-74.35
2707,-63.74
2719,-52.77
2731,-42.24
2743,-32.48
2755,-23.3
2767,-14.04
2779,-4.11
2791,6.7
2803,17.99
2815,28.84
2827,38.32
2839,45.98
2851,52.21
2862,57.99
2873,64.58
2885,72.75
2897,82.55
2909,93.18
2921,103.41
2933,112.03
2945,118.22
2957,121.69
2969,122.57
2981,121.28
2993,118.3
3005,114.16
3017,109.25
3029,103.81
3041,97.76
3052,90.74
3063,82.2
3075,71.66
3087,59.03
3099,44.67
3111,29.4
3123,14.32
3135,0.47
3147,-11.42
3159,-21.14
3171,-28.96
3183,-35.52
3195,-41.54
3207,-47.61
3219,-53.96
3231,-60.38
3242,-66.27
3253,-70.77
3265,-73.08
3277,-72.65
3289,-69.49
3301,-64.12
3313,-57.44
3325,-50.42
3337,-43.77
3349,-37.77
3361,-32.33
3373,-27.15
3385,-21.92
3397,-16.57
3409,-11.26
3421,-6.3
3432,-2.02
3443,1.41
3455,3.95
3467,5.81
3479,7.25
3491,8.5
3503,9.68
3515,10.76
3527,11.7
3539,12.45
3551,13.17
3563,13.97
3575,14.91
3587,15.79
3599,16.2
3611,15.63
3622,13.81
3633,10.81
3645,7.04
3657,3.17
3669,-0.24
3681,-2.91
3693,-4.95
3705,-6.72
3717,-8.68
3729,-11.11
3741,-14.16
3753,-17.76
3765,-21.69
3777,-25.74
3789,-29.79
3801,-33.79
3812,-37.87
3823,-42.2
3835,-47.07
3847,-52.72
3859,-59.25
3871,-66.43
3883,-73.63
3895,-79.82
3907,-83.86
3919,-84.79
3931,-82.11
3943,-75.97
3955,-67.09
3967,-56.45
3979,-44.96
3991,-33.35
4002,-21.99
4013,-11.07
4025,-0.71
4037,8.96
4049,17.71
4061,25.3
4073,31.5
4085,36.26
4097,39.68
4109,42.05
4121,43.76
4133,45.13
4145,46.33
4157,47.32
4169,47.93
4181,47.98
4192,47.49
4203,46.63
4215,45.65
4227,44.69
4239,43.69
4251,42.37
4263,40.4
4275,37.63
4287,34.11
4299,30.21
4311,26.33
4323,22.82
4335,19.79
4347,17.05
4359,14.26
4371,11.0
4382,7.05
4393,2.43
4405,-2.57
4417,-7.55
4429,-12.08
4441,-15.89
4453,-18.97
4465,-21.48
4477,-23.8
4489,-26.31
4501,-29.39
4513,-33.35
4525,-38.32
4537,-44.12
4549,-50.19
4561,-55.7
4572,-59.5
4583,-60.6
4595,-58.39
4607,-52.9
4619,-44.79
4631,-35.15
4643,-25.06
4655,-15.25
4667,-6.1
4679,2.37
4691,10.23
4703,17.49
4715,23.97
4727,29.48
4739,33.91
4751,37.35
4762,40.09
4773,42.45
4785,44.6
4797,46.58
4809,48.25
4821,49.46
4833,50.12
4845,50.15
4857,49.56
4869,48.33
4881,46.48
4893,43.97
4905,40.84
4917,37.21
4929,33.23
4941,29.14
4952,25.08
4963,21.1
4975,17.25
4987,13.54
4999,10.01
5011,6.6
5023,3.26
5035,-0.1
5047,-3.52
5059,-6.94
5071,-10.31
5083,-13.53
5095,-16.67
5107,-19.91
5119,-23.53
5131,-27.79
5142,-32.67
5153,-37.76
5165,-42.3
5177,-45.35
5189,-46.13
5201,-44.32
5213,-40.1
5225,-34.13
5237,-27.14
5249,-19.79
5261,-12.41
5273,-5.08
5285,2.24
5297,9.52
5309,16.54
5321,22.99
5332,28.58
5343,33.09
5355,36.5
5367,38.86
5379,40.33
5391,41.05
5403,41.19
5415,40.91
5427,40.36
5439,39.67
5451,38.88
5463,38.05
5475,37.14
5487,36.12
5499,34.95
5511,33.61
5522,32.06
5533,30.27
5545,28.22
5557,25.86
5569,23.22
5581,20.32
5593,17.21
5605,13.92
5617,10.45
5629,6.7
5641,2.6
5653,-1.8
5665,-6.37
5677,-10.83
5689,-14.91
5701,-18.45
5712,-21.52
5723,-24.41
5735,-27.6
5747,-31.49
5759,-36.19
5771,-41.37
5783,-46.33
5795,-50.06
5807,-51.62
5819,-50.38
5831,-46.3
5843,-39.91
5855,-32.02
5867,-23.54
5879,-15.1
5891,-6.96
5902,0.86
5913,8.49
5925,15.87
5937,22.77
5949,28.84
5961,33.7
5973,37.2
5985,39.42
5997,40.68
6009,41.39
6021,41.86
6033,42.23
6045,42.47
6057,42.48
6069,42.16
6081,41.62
6092,41.0
6103,40.56
6115,40.4
6127,40.41
6139,40.21
6151,39.36
6163,37.53
6175,34.64
6187,30.97
6199,26.91
6211,22.88
6223,19.1
6235,15.6
6247,12.31
6259,9.15
6271,6.18
6282,3.38
6293,0.73
6305,-1.9
6317,-4.68
6329,-7.61
6341,-10.52
6353,-13.26
6365,-15.85
6377,-18.59
6389,-22.06
6401,-26.85
6413,-33.34
6425,-41.49
6437,-51.04
6449,-61.53
6461,-72.55
6472,-83.62
6483,-94.08
6495,-103.02
6507,-109.33
6519,-112.0
6531,-110.42
6543,-104.55
6555,-94.86
6567,-82.12
6579,-67.18
6591,-50.87
6603,-34.0
6615,-17.33
6627,-1.57
6639,12.72
6651,25.21
6662,35.74
6673,44.31
6685,50.95
6697,55.81
6709,59.11
6721,61.29
6733,62.83
6745,64.19
6757,65.6
6769,67.06
6781,68.25
6793,68.8
6805,68.43
6817,67.07
6829,64.91
6841,62.2
6852,59.13
6863,55.74
6875,52.0
6887,47.94
6899,43.7
6911,39.64
6923,36.07
6935,33.13
6947,30.61
6959,28.07
6971,25.02
6983,21.17
6995,16.6
7007,11.63
7019,6.69
7031,2.08
7042,-2.11
7053,-5.97
7065,-9.68
7077,-13.43
7089,-17.43
7101,-21.8
7113,-26.63
7125,-31.76
7137,-36.84
7149,-41.27
7161,-44.32
7173,-45.39
7185,-44.17
7197,-40.79
7209,-35.78
7221,-29.89
7232,-23.79
7243,-17.99
7255,-12.69
7267,-7.98
7279,-3.98
7291,-0.83
7303,1.26
7315,2.28
7327,2.39
7339,2.02
7351,1.61
7363,1.52
7375,1.8
7387,2.18
7399,2.32
7411,1.9
7422,0.88
7433,-0.46
7445,-1.62
7457,-2.09
7469,-1.53
7481,0.2
7493,2.92
7505,6.39
7517,10.42
7529,14.99
7541,20.24
7553,26.39
7565,33.68
7577,42.16
7589,51.68
7601,61.69
7612,71.47
7623,80.23
7635,87.45
7647,93.08
7659,97.68
7671,102.19
7683,107.64
7695,114.65
7707,123.05
7719,131.94
7731,139.88
7743,145.41
7755,147.46
7767,145.52
7779,139.78
7791,130.87
7802,119.63
7813,106.66
7825,92.25
7837,76.24
7849,58.3
7861,38.35
7873,16.72
7885,-5.72
7897,-27.8
7909,-48.41
7921,-66.96
7933,-83.38
7945,-98.0
7957,-111.16
7969,-122.89
7981,-132.77
7992,-140.26
8003,-144.93
8015,-146.72
8027,-145.99
8039,-143.23
8051,-138.93
8063,-133.32
8075,-126.42
8087,-118.22
8099,-108.79
8111,-98.35
8123,-87.25
8135,-75.82
8147,-64.33
8159,-52.97
8171,-41.93
8182,-31.37
8193,-21.56
8205,-12.81
8217,-5.48
8229,0.05
8241,3.41
8253,4.5
8265,3.38
8277,0.43
8289,-3.7
8301,-8.37
8313,-13.17
8325,-17.95
8337,-22.86
8349,-28.2
8361,-34.1
8372,-40.5
8383,-47.01
8395,-53.0
8407,-57.74
8419,-60.65
8431,-61.29
8443,-59.61
8455,-55.8
8467,-50.31
8479,-43.7
8491,-36.51
8503,-29.1
8515,-21.71
8527,-14.5
8539,-7.56
8551,-1.08
8562,4.76
8573,9.86
8585,14.22
8597,17.94
8609,21.2
8621,24.09
8633,26.63
8645,28.73
8657,30.28
8669,31.24
8681,31.76
8693,32.03
8705,32.26
8717,32.56
8729,32.87
8741,33.05
8752,32.88
8763,32.19
8775,30.8
8787,28.7
8799,25.9
8811,22.57
8823,18.96
8835,15.38
8847,12.11
8859,9.35
8871,7.09
8883,5.18
8895,3.4
8907,1.45
8919,-0.8
8931,-3.32
8942,-5.99
8953,-8.58
8965,-10.91
8977,-13.0
8989,-15.0
9001,-17.15
9013,-19.74
9025,-22.95
9037,-26.77
9049,-31.16
9061,-35.88
9073,-40.55
9085,-44.63
9097,-47.4
9109,-48.11
9121,-46.27
9132,-41.86
9143,-35.34
9155,-27.51
9167,-19.19
9179,-10.98
9191,-3.11
9203,4.41
9215,11.69
9227,18.7
9239,25.3
9251,31.19
9263,36.1
9275,39.9
9287,42.59
9299,44.29
9311,45.28
9322,45.81
9333,46.1
9345,46.24
9357,46.26
9369,46.08
9381,45.68
9393,45.15
9405,44.6
9417,44.06
9429,43.42
9441,42.43
9453,40.79
9465,38.33
9477,35.09
9489,31.31
9501,27.4
9512,23.71
9523,20.41
9535,17.5
9547,14.79
9559,12.07
9571,9.16
9583,5.98
9595,2.58
9607,-0.97
9619,-4.57
9631,-8.21
9643,-11.99
9655,-16.0
9667,-20.38
9679,-25.23
9691,-30.6
9702,-36.42
9713,-42.43
9725,-48.14
9737,-52.8
9749,-55.66
9761,-56.09
9773,-53.91
9785,-49.41
9797,-43.29
9809,-36.36
9821,-29.28
9833,-22.4
9845,-15.77
9857,-9.3
9869,-2.99
9881,3.09
9892,8.72
9903,13.67
9915,17.76
9927,20.91
9939,23.17
9951,24.65
9963,25.51
9975,25.9
9987,25.94
9999,25.75
10011,25.45
10023,25.13
10035,24.88
10047,24.74
10059,24.69
10071,24.59
10082,24.31
10093,23.63
10105,22.44
10117,20.65
10129,18.36
10141,15.71
10153,12.97
10165,10.43
10177,8.24
10189,6.45
10201,4.86
10213,3.19
10225,1.12
10237,-1.41
10249,-4.29
10261,-7.13
10272,-9.54
10283,-11.29
10295,-12.39
10307,-13.16
10319,-14.01
10331,-15.38
10343,-17.62
10355,-20.94
10367,-25.26
10379,-30.3
10391,-35.5
10403,-40.07
10415,-43.2
10427,-44.21
10439,-42.71
10451,-38.77
10462,-32.76
10473,-25.29
10485,-17.06
10497,-8.7
10509,-0.64
10521,6.96
10533,14.05
10545,20.66
10557,26.76
10569,32.2
10581,36.77
10593,40.38
10605,43.03
10617,44.91
10629,46.23
10641,47.18
10652,47.88
10663,48.33
10675,48.59
10687,48.7
10699,48.75
10711,48.74
10723,48.58
10735,48.06
10747,46.99
10759,45.27
10771,42.93
10783,40.15
10795,37.15
10807,34.16
10819,31.29
10831,28.63
10842,26.09
10853,23.57
10865,20.95
10877,18.12
10889,15.1
10901,11.94
10913,8.79
10925,5.84
10937,3.24
10949,1.02
10961,-0.92
10973,-2.82
10985,-5.0
10997,-7.63
11009,-10.69
11021,-13.92
11032,-16.88
11043,-19.17
11055,-20.58
11067,-21.2
11079,-21.34
11091,-21.52
11103,-22.15
11115,-23.49
11127,-25.37
11139,-27.25
11151,-28.32
11163,-27.71
11175,-24.86
11187,-19.7
11199,-12.72
11211,-4.78
11222,3.12
11233,10.31
11245,16.49
11257,21.77
11269,26.45
11281,30.77
11293,34.73
11305,38.1
11317,40.53
11329,41.68
11341,41.41
11353,39.79
11365,37.11
11377,33.83
11389,30.49
11401,27.59
11412,25.54
11423,24.6
11435,24.86
11447,26.22
11459,28.38
11471,30.97
11483,33.6
11495,35.95
11507,37.79
11519,38.97
11531,39.42
11543,39.1
11555,38.12
11567,36.66
11579,34.92
11591,33.08
11602,31.09
11613,28.82
11625,26.11
11637,22.89
11649,19.38
11661,15.97
11673,13.09
11685,10.94
11697,9.36
11709,7.91
11721,6.03
11733,3.27
11745,-0.53
11757,-5.27
11769,-10.59
11781,-16.05
11792,-21.23
11803,-25.94
11815,-30.25
11827,-34.44
11839,-39.0
11851,-44.37
11863,-50.82
11875,-58.32
11887,-66.52
11899,-74.84
11911,-82.63
11923,-89.38
11935,-94.74
11947,-98.59
11959,-100.99
11971,-102.09
11982,-102.09
11993,-101.14
12005,-99.33
12017,-96.72
12029,-93.41
12041,-89.59
12053,-85.56
12065,-81.55
12077,-77.72
12089,-73.95
12101,-69.95
12113,-65.27
12125,-59.51
12137,-52.43
12149,-44.08
12161,-34.75
12172,-24.97
12183,-15.37
12195,-6.64
12207,0.76
12219,6.58
12231,10.91
12243,14.06
12255,16.39
12267,18.23
12279,19.82
12291,21.29
12303,22.75
12315,24.24
12327,25.54
12339,26.22
12351,25.68
12362,23.41
12373,19.14
12385,13.15
12397,6.14
12409,-0.93
12421,-7.19
12433,-12.1
12445,-15.54
12457,-17.78
12469,-19.26
12481,-20.36
12493,-21.21
12505,-21.73
12517,-21.61
12529,-20.57
12541,-18.39
12552,-14.99
12563,-10.39
12575,-4.73
12587,1.86
12599,9.26
12611,17.27
12623,25.73
12635,34.45
12647,43.28
12659,52.08
12671,60.69
12683,68.71
12695,75.69
12707,81.09
12719,84.44
12731,85.61
12742,84.83
12753,82.65
12765,79.72
12777,76.62
12789,73.56
12801,70.52
12813,67.3
12825,63.7
12837,59.62
12849,55.04
12861,50.01
12873,44.51
12885,38.5
12897,31.9
12909,24.74
12921,17.19
12932,9.51
12943,2.02
12955,-5.02
12967,-11.39
12979,-16.9
12991,-21.43
13003,-25.03
13015,-27.88
13027,-30.34
13039,-32.84
13051,-35.67
13063,-38.91
13075,-42.4
13087,-45.85
13099,-48.92
13111,-51.55
13122,-53.86
13133,-56.18
13145,-58.86
13157,-62.1
13169,-65.95
13181,-70.21
13193,-74.51
13205,-78.26
13217,-80.83
13229,-81.63
13241,-80.32
13253,-77.03
13265,-72.21
13277,-66.55
13289,-60.63
13301,-54.68
13312,-48.53
13323,-41.96
13335,-34.85
13347,-27.51
13359,-20.62
13371,-14.9
13383,-10.88
13395,-8.65
13407,-7.92
13419,-8.23
13431,-9.12
13443,-10.29
13455,-11.48
13467,-12.5
13479,-13.14
13491,-13.32
13502,-13.06
13513,-12.48
13525,-11.63
13537,-10.49
13549,-8.87
13561,-6.58
13573,-3.49
13585,0.37
13597,4.81
13609,9.67
13621,14.83
13633,20.34
13645,26.22
13657,32.49
13669,38.95
13681,45.27
13692,51.05
13703,55.91
13715,59.59
13727,61.93
13739,62.88
13751,62.47
13763,60.86
13775,58.27
13787,54.97
13799,51.28
13811,47.42
13823,43.46
13835,39.35
13847,34.94
13859,30.08
13871,24.73
13882,19.02
13893,13.24
13905,7.81
13917,3.13
13929,-0.44
13941,-2.79
13953,-3.93
13965,-4.05
13977,-3.38
13989,-2.05
14001,-0.16
14013,2.3
14025,5.32
14037,8.77
14049,12.43
14061,15.99
14072,19.12
14083,21.54
14095,23.12
14107,23.8
14119,23.61
14131,22.69
14143,21.18
14155,19.31
14167,17.24
14179,15.16
14191,13.18
14203,11.33
14215,9.63
14227,8.07
14239,6.62
14251,5.31
14262,4.18
14273,3.34
14285,2.91
14297,3.02
14309,3.7
14321,4.87
14333,6.33
14345,7.83
14357,9.15
14369,10.17
14381,10.85
14393,11.21
14405,11.24
14417,10.93
14429,10.24
14441,9.18
14452,7.79
14463,6.07
14475,4.0
14487,1.54
14499,-1.36
14511,-4.68
14523,-8.34
14535,-12.22
14547,-16.15
14559,-19.92
14571,-23.29
14583,-25.96
14595,-27.57
14607,-27.9
14619,-26.91
14631,-24.75
14642,-21.78
14653,-18.4
14665,-14.94
14677,-11.66
14689,-8.71
14701,-6.18
14713,-4.14
14725,-2.6
14737,-1.54
14749,-0.89
14761,-0.55
14773,-0.39
14785,-0.31
14797,-0.23
14809,-0.09
14821,0.15
14832,0.46
14843,0.84
14855,1.18
14867,1.43
14879,1.55
14891,1.55
14903,1.38
14915,1.05
14927,0.55
14939,-0.1
14951,-0.8
14963,-1.53
14975,-2.32
14987,-3.24
14999,-4.51
15011,-6.25
15022,-8.48
15033,-11.04
15045,-13.63
15057,-15.95
15069,-17.88
15081,-19.52
15093,-21.12
15105,-23.06
15117,-25.63
15129,-28.92
15141,-32.83
15153,-37.08
15165,-41.29
15177,-45.08
15189,-48.05
15201,-49.8
15212,-50.07
15223,-48.76
15235,-45.97
15247,-42.0
15259,-37.28
15271,-32.12
15283,-26.8
15295,-21.4
15307,-15.9
15319,-10.35
15331,-4.86
15343,0.38
15355,5.09
15367,9.11
15379,12.37
15391,14.95
15402,17.02
15413,18.75
15425,20.27
15437,21.65
15449,22.93
15461,24.09
15473,25.14
15485,26.09
15497,26.93
15509,27.56
15521,27.91
15533,27.85
15545,27.36
15557,26.52
15569,25.48
15581,24.33
15592,23.07
15603,21.51
15615,19.42
15627,16.69
15639,13.34
15651,9.62
15663,5.82
15675,2.2
15687,-1.12
15699,-4.16
15711,-6.95
15723,-9.43
15735,-11.48
15747,-13.06
15759,-14.21
15771,-15.23
15782,-16.49
15793,-18.33
15805,-20.96
15817,-24.44
15829,-28.69
15841,-33.55
15853,-38.82
15865,-44.22
15877,-49.27
15889,-53.35
15901,-55.75
15913,-55.9
15925,-53.54
15937,-48.84
15949,-42.34
15961,-34.74
15972,-26.69
15983,-18.55
15995,-10.57
16007,-2.83
16019,4.5
16031,11.12
16043,16.66
16055,20.88
16067,23.76
16079,25.52
16091,26.57
16103,27.16
16115,27.44
16127,27.36
16139,26.91
16151,26.14
16162,25.38
16173,25.01
16185,25.36
16197,26.51
16209,28.2
16221,30.0
16233,31.43
16245,32.15
16257,32.03
16269,31.12
16281,29.58
16293,27.62
16305,25.37
16317,22.92
16329,20.36
16341,17.74
16352,15.11
16363,12.52
16375,9.95
16387,7.38
16399,4.77
16411,2.15
16423,-0.44
16435,-2.84
16447,-5.02
16459,-7.0
16471,-8.92
16483,-10.94
16495,-13.18
16507,-15.62
16519,-18.12
16531,-20.5
16542,-22.63
16553,-24.51
16565,-26.28
16577,-28.14
16589,-30.29
16601,-32.89
16613,-35.97
16625,-39.38
16637,-42.81
16649,-45.82
16661,-47.89
16673,-48.63
16685,-47.8
16697,-45.42
16709,-41.72
16721,-36.97
16732,-31.51
16743,-25.6
16755,-19.46
16767,-13.31
16779,-7.41
16791,-1.91
16803,3.03
16815,7.34
16827,11.08
16839,14.35
16851,17.25
16863,19.88
16875,22.31
16887,24.52
16899,26.52
16911,28.27
16922,29.69
16933,30.74
16945,31.39
16957,31.6
16969,31.43
16981,30.97
16993,30.35
17005,29.68
17017,29.06
17029,28.45
17041,27.79
17053,26.95
17065,25.76
17077,24.1
17089,21.91
17101,19.24
17112,16.23
17123,12.99
17135,9.64
17147,6.24
17159,2.76
17171,-0.77
17183,-4.37
17195,-7.96
17207,-11.41
17219,-14.61
17231,-17.46
17243,-19.92
17255,-22.0
17267,-23.77
17279,-25.37
17291,-27.0
17302,-28.92
17313,-31.38
17325,-34.52
17337,-38.31
17349,-42.48
17361,-46.59
17373,-50.05
17385,-52.35
17397,-53.11
17409,-52.22
17421,-49.79
17433,-46.07
17445,-41.39
17457,-35.94
17469,-29.78
17481,-22.84
17492,-15.09
17503,-6.54
17515,2.55
17527,11.7
17539,20.31
17551,27.88
17563,34.1
17575,39.05
17587,43.04
17599,46.56
17611,49.92
17623,53.17
17635,56.01
17647,57.87
17659,58.21
17671,56.65
17682,53.06
17693,47.49
17705,39.97
17717,30.37
17729,18.52
17741,4.37
17753,-11.69
17765,-28.79
17777,-45.57
17789,-60.63
17801,-72.78
17813,-81.3
17825,-86.1
17837,-87.45
17849,-85.9
17861,-82.02
17872,-76.31
17883,-69.26
17895,-61.32
17907,-53.06
17919,-45.04
17931,-37.85
17943,-31.92
17955,-27.48
17967,-24.58
17979,-23.05
17991,-22.66
18003,-23.0
18015,-23.59
18027,-23.74
18039,-22.71
18051,-19.81
18062,-14.7
18073,-7.44
18085,1.45
18097,11.21
18109,21.14
18121,30.73
18133,39.75
18145,48.18
18157,56.14
18169,63.57
18181,70.33
18193,76.09
18205,80.47
18217,83.19
18229,84.1
18241,83.33
18252,81.21
18263,78.15
18275,74.52
18287,70.62
18299,66.65
18311,62.75
18323,59.04
18335,55.59
18347,52.39
18359,49.32
18371,46.17
18383,42.74
18395,38.95
18407,34.89
18419,30.8
18431,26.97
18442,23.58
18453,20.65
18465,17.96
18477,15.33
18489,12.61
18501,9.88
18513,7.22
18525,4.72
18537,2.3
18549,-0.36
18561,-3.56
18573,-7.53
18585,-12.25
18597,-17.45
18609,-22.7
18621,-27.67
18632,-32.12
18643,-35.99
18655,-39.38
18667,-42.48
18679,-45.51
18691,-48.6
18703,-51.72
18715,-54.56
18727,-56.61
18739,-57.26
18751,-56.02
18763,-52.81
18775,-47.93
18787,-42.04
18799,-35.82
18811,-29.75
18822,-24.01
18833,-18.52
18845,-13.12
18857,-7.69
18869,-2.25
18881,3.09
18893,8.17
18905,12.94
18917,17.36
18929,21.42
18941,25.02
18953,28.05
18965,30.35
18977,31.87
18989,32.7
19001,33.01
19012,32.97
19023,32.7
19035,32.17
19047,31.27
19059,29.86
19071,27.84
19083,25.2
19095,22.09
19107,18.71
19119,15.31
19131,12.12
19143,9.28
19155,6.82
19167,4.67
19179,2.66
19191,0.55
19202,-1.75
19213,-4.34
19225,-7.17
19237,-10.18
19249,-13.33
19261,-16.73
19273,-20.62
19285,-25.35
19297,-31.16
19309,-38.06
19321,-45.79
19333,-53.77
19345,-61.35
19357,-67.96
19369,-73.29
19381,-77.37
19392,-80.55
19403,-83.33
19415,-86.17
19427,-89.28
19439,-92.31
19451,-94.36
19463,-94.06
19475,-89.91
19487,-80.83
19499,-66.53
19511,-47.81
19523,-26.3
19535,-4.03
19547,17.23
19559,36.31
19571,52.72
19582,66.51
19593,77.89
19605,87.01
19617,93.95
19629,98.75
19641,101.51
19653,102.41
19665,101.71
19677,99.56
19689,96.2
19701,91.81
19713,86.64
19725,81.05
19737,75.41
19749,70.03
19761,65.15
19772,60.85
19783,57.2
19795,54.27
19807,52.03
19819,50.29
19831,48.66
19843,46.49
19855,43.04
19867,37.64
19879,30.02
19891,20.39
19903,9.49
19915,-1.72
19927,-12.3
19939,-21.5
19951,-28.98
19962,-34.7
19973,-38.91
19985,-42.01
19997,-44.45
20009,-46.62
20021,-48.72
20033,-50.8
20045,-52.65
20057,-54.06
20069,-54.86
20081,-55.14
20093,-55.13
20105,-55.18
20117,-55.45
20129,-55.82
20141,-55.85
20152,-54.89
20163,-52.41
20175,-48.11
20187,-42.12
20199,-34.8
20211,-26.69
20223,-18.29
20235,-9.94
20247,-1.9
20259,5.58
20271,12.16
20283,17.55
20295,21.52
20307,24.01
20319,25.18
20331,25.37
20342,25.01
20353,24.5
20365,24.12
20377,23.95
20389,24.04
20401,24.33
20413,24.82
20425,25.45
20437,26.12
20449,26.7
20461,27.04
20473,26.98
20485,26.45
20497,25.45
20509,23.98
20521,22.1
20532,19.79
20543,17.11
20555,14.13
20567,10.96
20579,7.66
20591,4.23
20603,0.56
20615,-3.59
20627,-8.39
20639,-13.77
20651,-19.47
20663,-24.98
20675,-29.77
20687,-33.55
20699,-36.39
20711,-38.75
20722,-41.33
20733,-44.82
20745,-49.6
20757,-55.72
20769,-62.82
20781,-70.34
20793,-77.55
20805,-83.72
20817,-88.06
20829,-89.82
20841,-88.47
20853,-83.81
20865,-76.12
20877,-66.04
20889,-54.48
20901,-42.22
20912,-29.85
20923,-17.72
20935,-5.99
20947,5.1
20959,15.27
20971,24.16
20983,31.49
20995,37.09
