seconds,BVP
0,-120.3
12,-132.96
24,-141.4
36,-142.39
48,-133.78
60,-115.33
72,-88.89
84,-57.83
96,-25.91
107,3.65
118,28.82
130,48.81
142,63.66
154,73.8
166,79.72
178,81.94
190,80.98
202,77.51
214,72.29
226,66.15
238,59.92
250,54.27
262,49.75
274,46.69
286,45.29
297,45.58
308,47.46
320,50.67
332,54.73
344,59.02
356,62.78
368,65.31
380,66.11
392,65.03
404,62.21
416,58.0
428,52.87
440,47.22
452,41.34
464,35.39
476,29.38
487,23.29
498,17.03
510,10.56
522,4.0
534,-2.46
546,-8.47
558,-13.68
570,-17.87
582,-21.12
594,-23.86
606,-26.73
618,-30.45
630,-35.48
642,-41.85
654,-49.08
666,-56.37
677,-62.97
688,-68.4
700,-72.73
712,-76.5
724,-80.63
736,-86.13
748,-93.87
760,-104.21
772,-116.57
784,-129.27
796,-139.56
808,-144.18
820,-140.32
832,-126.58
844,-103.52
856,-73.63
867,-40.55
878,-8.09
890,20.74
902,44.11
914,61.4
926,72.8
938,78.85
950,80.24
962,77.7
974,72.04
986,64.22
998,55.32
1010,46.38
1022,38.27
1034,31.6
1046,26.7
1057,23.66
1068,22.5
1080,23.19
1092,25.62
1104,29.53
1116,34.35
1128,39.26
1140,43.28
1152,45.59
1164,45.7
1176,43.59
1188,39.66
1200,34.55
1212,28.9
1224,23.19
1236,17.59
1247,12.05
1258,6.45
1270,0.73
1282,-4.96
1294,-10.36
1306,-15.25
1318,-19.56
1330,-23.5
1342,-27.39
1354,-31.54
1366,-36.09
1378,-40.9
1390,-45.67
1402,-50.12
1414,-54.11
1426,-57.78
1437,-61.44
1448,-65.57
1460,-70.75
1472,-77.53
1484,-86.31
1496,-96.89
1508,-108.22
1520,-118.23
1532,-124.15
1544,-123.28
1556,-113.97
1568,-96.25
1580,-71.95
1592,-44.11
1604,-16.02
1616,9.62
1627,31.05
1638,47.5
1650,58.73
1662,64.78
1674,65.84
1686,62.32
1698,55.01
1710,45.12
1722,34.15
1734,23.65
1746,15.0
1758,9.22
1770,6.9
1782,8.18
1794,12.73
1806,19.8
1817,28.31
1828,37.07
1840,44.94
1852,51.04
1864,54.93
1876,56.56
1888,56.26
1900,54.5
1912,51.74
1924,48.31
1936,44.33
1948,39.79
1960,34.66
1972,28.84
1984,22.35
1996,15.36
2007,8.1
2018,0.91
2030,-5.97
2042,-12.39
2054,-18.4
2066,-24.15
2078,-29.76
2090,-35.31
2102,-40.73
2114,-45.95
2126,-50.98
2138,-56.0
2150,-61.37
2162,-67.59
2174,-75.18
2186,-84.5
2197,-95.49
2208,-107.28
2220,-118.09
2232,-125.37
2244,-126.4
2256,-119.16
2268,-103.03
2280,-79.16
2292,-50.11
2304,-19.09
2316,10.88
2328,37.57
2340,59.68
2352,76.59
2364,88.07
2376,94.09
2387,94.89
2398,91.07
2410,83.71
2422,74.22
2434,64.17
2446,55.0
2458,47.71
2470,42.84
2482,40.43
2494,40.23
2506,41.81
2518,44.71
2530,48.49
2542,52.72
2554,56.9
2566,60.47
2577,62.88
2588,63.61
2600,62.4
2612,59.29
2624,54.66
2636,49.11
2648,43.23
2660,37.43
2672,31.83
2684,26.23
2696,20.36
2708,14.05
2720,7.44
2732,0.96
2744,-4.82
2756,-9.45
2767,-12.93
2778,-15.72
2790,-18.69
2802,-22.7
2814,-28.3
2826,-35.4
2838,-43.38
2850,-51.3
2862,-58.33
2874,-64.03
2886,-68.56
2898,-72.6
2910,-77.2
2922,-83.53
2934,-92.52
2946,-104.41
2957,-118.27
2968,-131.78
2980,-141.52
2992,-143.89
3004,-136.26
3016,-117.94
3028,-90.56
3040,-57.49
3052,-22.79
3064,9.98
3076,38.44
3088,61.48
3100,78.93
3112,91.02
3124,98.09
3136,100.52
3147,98.83
3158,93.8
3170,86.44
3182,77.87
3194,69.2
3206,61.39
3218,55.18
3230,51.02
3242,49.09
3254,49.3
3266,51.4
3278,54.97
3290,59.42
3302,64.05
3314,68.08
3326,70.71
3337,71.31
3348,69.59
3360,65.67
3372,60.02
3384,53.36
3396,46.46
3408,39.88
3420,33.9
3432,28.43
3444,23.14
3456,17.54
3468,11.32
3480,4.44
3492,-2.72
3504,-9.49
3516,-15.15
3527,-19.26
3538,-21.9
3550,-23.71
3562,-25.67
3574,-28.69
3586,-33.28
3598,-39.34
3610,-46.23
3622,-53.1
3634,-59.26
3646,-64.45
3658,-68.93
3670,-73.42
3682,-78.85
3694,-86.11
3706,-95.85
3717,-108.04
3728,-121.66
3740,-134.54
3752,-143.53
3764,-145.23
3776,-137.11
3788,-118.38
3800,-90.48
3812,-56.69
3824,-21.14
3836,12.3
3848,40.87
3860,63.19
3872,78.99
3884,88.63
3896,92.71
3907,91.92
3918,87.1
3930,79.29
3942,69.69
3954,59.56
3966,50.01
3978,41.86
3990,35.63
4002,31.59
4014,29.84
4026,30.36
4038,33.04
4050,37.53
4062,43.18
4074,49.09
4086,54.18
4097,57.52
4108,58.46
4120,56.89
4132,53.17
4144,47.96
4156,41.99
4168,35.78
4180,29.56
4192,23.23
4204,16.57
4216,9.5
4228,2.16
4240,-5.06
4252,-11.71
4264,-17.51
4276,-22.48
4287,-26.92
4298,-31.26
4310,-35.81
4322,-40.69
4334,-45.74
4346,-50.73
4358,-55.49
4370,-60.0
4382,-64.47
4394,-69.21
4406,-74.65
4418,-81.31
4430,-89.64
4442,-99.79
4454,-111.18
4466,-122.2
4477,-130.25
4488,-132.3
4500,-125.81
4512,-109.75
4524,-85.05
4536,-54.4
4548,-21.46
4560,10.27
4572,38.21
4584,60.96
4596,78.03
4608,89.44
4620,95.37
4632,96.14
4644,92.33
4656,84.95
4667,75.36
4678,65.13
4690,55.64
4702,47.93
4714,42.52
4726,39.46
4738,38.54
4750,39.43
4762,41.79
4774,45.35
4786,49.79
4798,54.59
4810,59.05
4822,62.27
4834,63.42
4846,62.02
4857,58.11
4868,52.28
4880,45.51
4892,38.83
4904,32.82
4916,27.57
4928,22.65
4940,17.4
4952,11.39
4964,4.61
4976,-2.41
4988,-8.9
5000,-14.22
5012,-18.2
5024,-21.23
5036,-24.03
5047,-27.45
5058,-31.95
5070,-37.54
5082,-43.82
5094,-50.21
5106,-56.21
5118,-61.58
5130,-66.43
5142,-71.14
5154,-76.36
5166,-82.84
5178,-91.35
5190,-102.18
5202,-114.71
5214,-127.09
5226,-136.34
5237,-139.01
5248,-132.38
5260,-115.38
5272,-89.13
5284,-56.57
5296,-21.6
5308,12.12
5320,41.84
5332,66.07
5344,84.32
5356,96.68
5368,103.47
5380,105.13
5392,102.33
5404,96.01
5416,87.47
5427,78.09
5438,69.19
5450,61.7
5462,56.08
5474,52.36
5486,50.34
5498,49.77
5510,50.49
5522,52.44
5534,55.44
5546,59.07
5558,62.57
5570,65.01
5582,65.45
5594,63.24
5606,58.19
5617,50.71
5628,41.75
5640,32.59
5652,24.55
5664,18.66
5676,15.26
5688,13.97
5700,13.79
5712,13.56
5724,12.3
5736,9.6
5748,5.67
5760,1.12
5772,-3.29
5784,-7.07
5796,-10.05
5807,-12.55
5818,-15.17
5830,-18.6
5842,-23.3
5854,-29.39
5866,-36.53
5878,-44.14
5890,-51.64
5902,-58.73
5914,-65.57
5926,-72.74
5938,-81.16
5950,-91.72
5962,-104.93
5974,-120.42
5986,-136.68
5997,-150.91
6008,-159.53
6020,-159.1
6032,-147.47
6044,-124.67
6056,-93.09
6068,-56.79
6080,-20.35
6092,12.37
6104,38.98
6116,58.61
6128,71.4
6140,77.93
6152,78.84
6164,74.75
6176,66.46
6187,55.13
6198,42.25
6210,29.43
6222,18.12
6234,9.35
6246,3.6
6258,0.85
6270,0.77
6282,2.88
6294,6.63
6306,11.45
6318,16.71
6330,21.75
6342,25.91
6354,28.62
6366,29.55
6377,28.65
6388,26.05
6400,22.07
6412,17.02
6424,11.26
6436,5.11
6448,-1.13
6460,-7.21
6472,-13.06
6484,-18.72
6496,-24.4
6508,-30.25
6520,-36.31
6532,-42.4
6544,-48.29
6556,-53.78
6567,-58.93
6578,-64.04
6590,-69.59
6602,-76.1
6614,-83.96
6626,-93.47
6638,-104.82
6650,-117.9
6662,-132.04
6674,-145.81
6686,-156.97
6698,-162.92
6710,-161.51
6722,-151.78
6734,-134.44
6746,-111.59
6757,-86.0
6768,-60.25
6780,-36.16
6792,-14.66
6804,3.9
6816,19.32
6828,31.4
6840,39.9
6852,44.8
6864,46.47
6876,45.7
6888,43.46
6900,40.77
6912,38.48
6924,37.2
6936,37.35
6947,39.17
6958,42.71
6970,47.81
6982,54.06
6994,60.79
7006,67.23
7018,72.57
7030,76.15
7042,77.58
7054,76.8
7066,73.95
7078,69.41
7090,63.58
7102,56.89
7114,49.72
7126,42.38
7137,35.14
7148,28.18
7160,21.62
7172,15.46
7184,9.53
7196,3.56
7208,-2.77
7220,-9.68
7232,-17.24
7244,-25.29
7256,-33.54
7268,-41.69
7280,-49.55
7292,-57.17
7304,-64.87
7316,-73.23
7327,-83.01
7338,-94.95
7350,-109.46
7362,-126.11
7374,-143.33
7386,-158.44
7398,-168.05
7410,-169.02
7422,-159.39
7434,-139.11
7446,-110.02
7458,-75.4
7470,-38.93
7482,-3.94
7494,27.21
7506,53.22
7517,73.6
7528,88.39
7540,97.93
7552,102.71
7564,103.46
7576,101.18
7588,97.05
7600,92.36
7612,88.2
7624,85.34
7636,84.08
7648,84.35
7660,85.82
7672,88.2
7684,91.25
7696,94.84
7707,98.76
7718,102.58
7730,105.67
7742,107.25
7754,106.73
7766,103.89
7778,99.05
7790,92.98
7802,86.54
7814,80.42
7826,74.77
7838,69.27
7850,63.37
7862,56.58
7874,48.88
7886,40.72
7897,32.81
7908,25.84
7920,20.15
7932,15.61
7944,11.68
7956,7.69
7968,3.08
7980,-2.38
7992,-8.57
8004,-15.06
8016,-21.35
8028,-27.09
8040,-32.29
8052,-37.37
8064,-43.08
8076,-50.32
8087,-59.82
8098,-71.76
8110,-85.43
8122,-99.09
8134,-110.1
8146,-115.54
8158,-112.98
8170,-101.26
8182,-80.9
8194,-53.94
8206,-23.36
8218,7.77
8230,36.89
8242,62.26
8254,82.91
8266,98.46
8277,108.82
8288,114.26
8300,115.32
8312,112.84
8324,107.86
8336,101.47
8348,94.68
8360,88.31
8372,82.89
8384,78.75
8396,76.03
8408,74.77
8420,74.94
8432,76.51
8444,79.28
8456,82.89
8467,86.68
8478,89.79
8490,91.37
8502,90.79
8514,87.94
8526,83.14
8538,77.1
8550,70.56
8562,64.06
8574,57.76
8586,51.48
8598,44.9
8610,37.76
8622,30.0
8634,21.85
8646,13.7
8657,5.96
8668,-1.04
8680,-7.19
8692,-12.56
8704,-17.41
8716,-22.04
8728,-26.68
8740,-31.42
8752,-36.17
8764,-40.77
8776,-45.04
8788,-49.01
8800,-52.95
8812,-57.44
8824,-63.24
8836,-71.04
8847,-81.06
8858,-92.64
8870,-104.05
8882,-112.78
8894,-116.13
8906,-112.11
8918,-100.04
8930,-80.9
8942,-56.86
8954,-30.66
8966,-4.86
8978,18.66
8990,38.71
9002,54.65
9014,66.06
9026,72.78
9037,74.85
9048,72.78
9060,67.52
9072,60.35
9084,52.61
9096,45.43
9108,39.53
9120,35.25
9132,32.64
9144,31.63
9156,32.17
9168,34.16
9180,37.39
9192,41.46
9204,45.75
9216,49.52
9227,51.99
9238,52.6
9250,51.07
9262,47.52
9274,42.39
9286,36.34
9298,30.07
9310,23.99
9322,18.22
9334,12.51
9346,6.49
9358,-0.16
9370,-7.43
9382,-15.06
9394,-22.56
9406,-29.47
9417,-35.48
9428,-40.59
9440,-45.07
9452,-49.46
9464,-54.46
9476,-60.72
9488,-68.63
9500,-77.86
9512,-87.25
9524,-94.86
9536,-98.39
9548,-95.9
9560,-86.5
9572,-70.6
9584,-49.88
9596,-26.71
9607,-3.55
9618,17.67
9630,35.68
9642,49.91
9654,60.18
9666,66.5
9678,68.98
9690,67.85
9702,63.61
9714,57.05
9726,49.25
9738,41.36
9750,34.38
9762,28.98
9774,25.45
9786,23.75
9797,23.7
9808,25.06
9820,27.6
9832,31.05
9844,34.99
9856,38.89
9868,42.11
9880,44.0
9892,44.1
9904,42.23
9916,38.51
9928,33.38
9940,27.46
9952,21.41
9964,15.7
9976,10.48
9987,5.54
9998,0.42
10010,-5.32
10022,-11.86
10034,-19.01
10046,-26.22
10058,-32.86
10070,-38.46
10082,-42.94
10094,-46.64
10106,-50.25
10118,-54.61
10130,-60.48
10142,-68.31
10154,-77.88
10166,-88.15
10177,-97.2
10188,-102.6
10200,-102.06
10212,-94.2
10224,-79.0
10236,-57.88
10248,-33.26
10260,-7.81
10272,16.11
10284,36.96
10296,53.9
10308,66.68
10320,75.41
10332,80.39
10344,82.1
10356,81.13
10367,78.21
10378,74.1
10390,69.6
10402,65.4
10414,62.09
10426,60.09
10438,59.64
10450,60.83
10462,63.59
10474,67.79
10486,73.17
10498,79.33
10510,85.74
10522,91.64
10534,96.17
10546,98.47
10557,97.85
10568,93.94
10580,86.8
10592,76.87
10604,64.96
10616,51.97
10628,38.84
10640,26.27
10652,14.69
10664,4.24
10676,-5.29
10688,-14.33
10700,-23.37
10712,-32.74
10724,-42.4
10736,-51.96
10747,-60.71
10758,-67.95
10770,-73.22
10782,-76.59
10794,-78.6
10806,-80.22
10818,-82.63
10830,-86.91
10842,-93.66
10854,-102.6
10866,-112.34
10878,-120.45
10890,-123.99
10902,-120.4
10914,-108.41
10926,-88.59
10937,-63.19
10948,-35.51
10960,-8.81
10972,14.46
10984,33.01
10996,46.59
11008,55.54
11020,60.37
11032,61.53
11044,59.41
11056,54.48
11068,47.36
11080,38.84
11092,29.86
11104,21.33
11116,14.06
11127,8.61
11138,5.29
11150,4.19
11162,5.22
11174,8.13
11186,12.47
11198,17.53
11210,22.44
11222,26.22
11234,28.13
11246,27.76
11258,25.19
11270,20.87
11282,15.46
11294,9.64
11306,3.86
11317,-1.62
11328,-6.76
11340,-11.65
11352,-16.5
11364,-21.53
11376,-26.92
11388,-32.75
11400,-38.88
11412,-44.95
11424,-50.48
11436,-54.95
11448,-57.98
11460,-59.59
11472,-60.13
11484,-60.37
11496,-61.25
11507,-63.71
11518,-68.46
11530,-75.65
11542,-84.66
11554,-93.97
11566,-101.32
11578,-104.18
11590,-100.47
11602,-89.27
11614,-71.21
11626,-48.38
11638,-23.67
11650,0.01
11662,20.51
11674,36.72
11686,48.44
11697,55.96
11708,59.58
11720,59.47
11732,55.69
11744,48.51
11756,38.62
11768,27.17
11780,15.56
11792,5.12
11804,-3.2
11816,-8.95
11828,-12.14
11840,-12.99
11852,-11.79
11864,-8.88
11876,-4.73
11887,-0.05
11898,4.24
11910,7.16
11922,7.94
11934,6.26
11946,2.32
11958,-3.28
11970,-9.73
11982,-16.28
11994,-22.37
12006,-27.82
12018,-32.77
12030,-37.62
12042,-42.89
12054,-48.96
12066,-55.95
12077,-63.46
12088,-70.74
12100,-76.79
12112,-80.7
12124,-82.02
12136,-80.97
12148,-78.53
12160,-76.25
12172,-75.85
12184,-78.69
12196,-85.17
12208,-94.38
12220,-104.07
12232,-111.07
12244,-112.21
12256,-105.25
12267,-89.61
12278,-66.55
12290,-38.81
12302,-9.75
12314,17.53
12326,40.82
12338,59.02
12350,71.97
12362,80.12
12374,84.07
12386,84.45
12398,81.76
12410,76.49
12422,69.18
12434,60.5
12446,51.25
12457,42.31
12468,34.5
12480,28.46
12492,24.62
12504,23.11
12516,23.8
12528,26.33
12540,30.09
12552,34.31
12564,38.12
12576,40.69
12588,41.41
12600,40.0
12612,36.64
12624,31.85
12636,26.41
12647,21.11
12658,16.54
12670,12.89
12682,9.91
12694,7.0
12706,3.43
12718,-1.39
12730,-7.7
12742,-15.22
12754,-23.31
12766,-31.1
12778,-37.84
12790,-43.09
12802,-46.92
12814,-49.83
12826,-52.67
12837,-56.34
12848,-61.73
12860,-69.41
12872,-79.39
12884,-90.92
12896,-102.31
12908,-111.04
12920,-114.34
12932,-109.96
12944,-96.96
12956,-76.18
12968,-50.0
12980,-21.63
12992,5.81
13004,30.1
13016,50.11
13027,65.64
13038,76.92
13050,84.22
13062,87.69
13074,87.48
13086,83.91
13098,77.57
13110,69.38
13122,60.36
13134,51.61
13146,44.09
13158,38.54
13170,35.42
13182,34.86
13194,36.63
13206,40.2
13217,44.83
13228,49.66
13240,53.81
13252,56.52
13264,57.3
13276,56.03
13288,52.92
13300,48.48
13312,43.3
13324,37.79
13336,32.15
13348,26.36
13360,20.3
13372,13.91
13384,7.23
13396,0.4
13407,-6.43
13418,-13.14
13430,-19.67
13442,-25.98
13454,-31.99
13466,-37.61
13478,-42.74
13490,-47.34
13502,-51.46
13514,-55.25
13526,-58.98
13538,-63.03
13550,-67.9
13562,-74.14
13574,-82.24
13586,-92.25
13597,-103.43
13608,-114.05
13620,-121.62
13632,-123.46
13644,-117.56
13656,-103.32
13668,-81.78
13680,-55.32
13692,-26.9
13704,0.59
13716,24.95
13728,44.81
13740,59.48
13752,68.75
13764,72.72
13776,71.74
13787,66.4
13798,57.53
13810,46.24
13822,33.79
13834,21.54
13846,10.77
13858,2.53
13870,-2.55
13882,-4.33
13894,-3.13
13906,0.36
13918,5.23
13930,10.53
13942,15.39
13954,19.12
13966,21.35
13977,21.94
13988,21.03
14000,18.83
14012,15.61
14024,11.63
14036,7.24
14048,2.88
14060,-0.9
14072,-3.61
14084,-4.97
14096,-5.1
14108,-4.5
14120,-3.96
14132,-4.29
14144,-6.09
14156,-9.63
14167,-14.76
14178,-21.09
14190,-28.03
14202,-35.0
14214,-41.6
14226,-47.65
14238,-53.36
14250,-59.34
14262,-66.41
14274,-75.28
14286,-85.96
14298,-97.35
14310,-107.22
14322,-112.64
14334,-110.95
14346,-100.74
14357,-82.42
14368,-58.11
14380,-30.91
14392,-3.97
14404,20.34
14416,40.66
14428,56.43
14440,67.6
14452,74.2
14464,76.37
14476,74.44
14488,69.1
14500,61.49
14512,52.94
14524,44.83
14536,38.25
14547,33.83
14558,31.71
14570,31.6
14582,32.99
14594,35.36
14606,38.32
14618,41.59
14630,44.93
14642,48.02
14654,50.39
14666,51.55
14678,51.14
14690,49.0
14702,45.27
14714,40.3
14726,34.59
14737,28.55
14748,22.54
14760,16.68
14772,10.94
14784,5.18
14796,-0.85
14808,-7.36
14820,-14.45
14832,-22.04
14844,-29.87
14856,-37.55
14868,-44.71
14880,-51.1
14892,-56.71
14904,-61.79
14916,-66.89
14927,-72.77
14938,-80.33
14950,-90.15
14962,-102.19
14974,-115.35
14986,-127.34
14998,-135.13
15010,-135.76
15022,-127.34
15034,-109.74
15046,-84.67
15058,-55.02
15070,-24.08
15082,5.41
15094,31.6
15106,53.49
15117,70.7
15128,83.14
15140,90.9
15152,94.28
15164,93.83
15176,90.36
15188,84.83
15200,78.26
15212,71.6
15224,65.62
15236,60.89
15248,57.73
15260,56.2
15272,56.19
15284,57.46
15296,59.69
15307,62.47
15318,65.29
15330,67.56
15342,68.78
15354,68.59
15366,66.84
15378,63.62
15390,59.12
15402,53.56
15414,47.19
15426,40.27
15438,33.1
15450,26.03
15462,19.38
15474,13.31
15486,7.68
15497,2.13
15508,-3.75
15520,-10.26
15532,-17.35
15544,-24.66
15556,-31.65
15568,-37.92
15580,-43.43
15592,-48.53
15604,-53.9
15616,-60.34
15628,-68.54
15640,-78.87
15652,-91.14
15664,-104.36
15676,-116.67
15687,-125.56
15698,-128.41
15710,-123.28
15722,-109.56
15734,-88.26
15746,-61.72
15758,-32.91
15770,-4.66
15782,20.92
15794,42.58
15806,59.74
15818,72.3
15830,80.39
15842,84.38
15854,84.81
15866,82.41
15877,78.05
15888,72.63
15900,67.11
15912,62.32
15924,58.91
15936,57.21
15948,57.21
15960,58.56
15972,60.74
15984,63.24
15996,65.68
16008,67.81
16020,69.5
16032,70.51
16044,70.55
16056,69.28
16067,66.41
16078,61.84
16090,55.73
16102,48.46
16114,40.55
16126,32.51
16138,24.76
16150,17.53
16162,10.81
16174,4.5
16186,-1.6
16198,-7.61
16210,-13.58
16222,-19.45
16234,-25.11
16246,-30.45
16257,-35.45
16268,-40.16
16280,-44.78
16292,-49.7
16304,-55.45
16316,-62.62
16328,-71.55
16340,-82.01
16352,-92.92
16364,-102.36
16376,-107.91
16388,-107.36
16400,-99.39
16412,-84.05
16424,-62.79
16436,-37.99
16447,-12.34
16458,11.84
16470,32.94
16482,50.03
16494,62.72
16506,70.83
16518,74.39
16530,73.67
16542,69.31
16554,62.35
16566,54.09
16578,45.84
16590,38.73
16602,33.51
16614,30.42
16626,29.39
16637,30.1
16648,32.16
16660,35.16
16672,38.67
16684,42.22
16696,45.23
16708,47.09
16720,47.26
16732,45.39
16744,41.48
16756,35.88
16768,29.24
16780,22.26
16792,15.48
16804,9.18
16816,3.29
16827,-2.48
16838,-8.48
16850,-14.93
16862,-21.83
16874,-28.94
16886,-35.88
16898,-42.28
16910,-47.93
16922,-52.88
16934,-57.45
16946,-62.18
16958,-67.76
16970,-74.83
16982,-83.7
16994,-94.08
17006,-104.85
17017,-114.0
17028,-119.04
17040,-117.67
17052,-108.57
17064,-91.88
17076,-69.18
17088,-43.02
17100,-16.15
17112,9.21
17124,31.6
17136,50.24
17148,64.76
17160,74.94
17172,80.64
17184,82.0
17196,79.56
17207,74.32
17218,67.54
17230,60.52
17242,54.34
17254,49.67
17266,46.8
17278,45.7
17290,46.17
17302,47.89
17314,50.5
17326,53.65
17338,56.9
17350,59.78
17362,61.77
17374,62.43
17386,61.41
17397,58.62
17408,54.16
17420,48.36
17432,41.64
17444,34.46
17456,27.24
17468,20.31
17480,13.84
17492,7.86
17504,2.21
17516,-3.35
17528,-9.12
17540,-15.27
17552,-21.76
17564,-28.36
17576,-34.71
17587,-40.46
17598,-45.45
17610,-49.81
17622,-53.97
17634,-58.58
17646,-64.42
17658,-72.14
17670,-82.0
17682,-93.57
17694,-105.47
17706,-115.5
17718,-121.04
17730,-119.73
17742,-110.29
17754,-92.96
17766,-69.48
17777,-42.55
17788,-15.1
17800,10.4
17812,32.35
17824,49.99
17836,63.15
17848,71.95
17860,76.7
17872,77.87
17884,76.1
17896,72.26
17908,67.33
17920,62.33
17932,58.08
17944,55.13
17956,53.71
17967,53.78
17978,55.1
17990,57.43
18002,60.55
18014,64.25
18026,68.24
18038,72.05
18050,75.05
18062,76.58
18074,76.19
18086,73.82
18098,69.83
18110,64.89
18122,59.72
18134,54.82
18146,50.31
18157,45.98
18168,41.41
18180,36.28
18192,30.48
18204,24.24
18216,18.01
18228,12.23
18240,7.17
18252,2.72
18264,-1.48
18276,-5.93
18288,-10.98
18300,-16.68
18312,-22.74
18324,-28.73
18336,-34.29
18347,-39.37
18358,-44.24
18370,-49.48
18382,-55.76
18394,-63.69
18406,-73.55
18418,-85.04
18430,-97.09
18442,-107.83
18454,-114.89
18466,-115.98
18478,-109.56
18490,-95.47
18502,-74.94
18514,-50.27
18526,-24.19
18537,0.83
18548,23.0
18560,41.26
18572,55.1
18584,64.45
18596,69.43
18608,70.41
18620,68.03
18632,63.15
18644,56.82
18656,50.09
18668,43.89
18680,38.93
18692,35.62
18704,34.11
18716,34.26
18727,35.78
18738,38.27
18750,41.36
18762,44.64
18774,47.74
18786,50.3
18798,51.95
18810,52.4
18822,51.47
18834,49.15
18846,45.56
18858,40.96
18870,35.61
18882,29.73
18894,23.49
18906,17.06
18917,10.64
18928,4.52
18940,-1.06
18952,-5.95
18964,-10.26
18976,-14.21
18988,-18.1
19000,-22.08
19012,-26.15
19024,-30.15
19036,-33.88
19048,-37.3
19060,-40.5
19072,-43.7
19084,-47.23
19096,-51.42
19107,-56.66
19118,-63.17
19130,-70.86
19142,-78.98
19154,-86.03
19166,-89.98
19178,-88.85
19190,-81.42
19202,-67.71
19214,-49.09
19226,-27.78
19238,-6.23
19250,13.59
19262,30.38
19274,43.58
19286,53.0
19297,58.67
19308,60.67
19320,59.26
19332,54.98
19344,48.65
19356,41.38
19368,34.26
19380,28.26
19392,23.95
19404,21.54
19416,20.88
19428,21.64
19440,23.38
19452,25.7
19464,28.28
19476,30.76
19487,32.82
19498,34.13
19510,34.43
19522,33.58
19534,31.62
19546,28.67
19558,24.87
19570,20.42
19582,15.46
19594,10.18
19606,4.81
19618,-0.46
19630,-5.49
19642,-10.23
19654,-14.81
19666,-19.36
19677,-24.06
19688,-29.0
19700,-34.16
19712,-39.42
19724,-44.58
19736,-49.44
19748,-53.91
19760,-58.0
19772,-61.91
19784,-66.04
19796,-70.94
19808,-77.15
19820,-84.96
19832,-94.09
19844,-103.46
19856,-111.2
19867,-114.95
19878,-112.55
19890,-102.75
19902,-85.67
19914,-62.86
19926,-36.85
19938,-10.47
19950,13.87
19962,34.51
19974,50.68
19986,62.23
19998,69.46
20010,72.87
20022,73.07
20034,70.78
20046,66.79
20057,61.96
20068,57.09
20080,52.83
20092,49.55
20104,47.36
20116,46.16
20128,45.83
20140,46.32
20152,47.73
20164,50.1
20176,53.3
20188,56.83
20200,59.95
20212,61.79
20224,61.69
20236,59.36
20247,54.95
20258,49.01
20270,42.28
20282,35.56
20294,29.44
20306,24.18
20318,19.68
20330,15.58
20342,11.41
20354,6.88
20366,2.0
20378,-2.94
20390,-7.5
20402,-11.37
20414,-14.62
20426,-17.67
20437,-21.17
20448,-25.64
20460,-31.24
20472,-37.72
20484,-44.5
20496,-51.02
20508,-56.91
20520,-62.13
20532,-66.92
20544,-71.7
20556,-77.02
20568,-83.49
20580,-91.6
20592,-101.41
20604,-112.15
20616,-122.01
20627,-128.4
20638,-128.62
20650,-120.85
20662,-104.82
20674,-82.06
20686,-55.34
20698,-27.88
20710,-2.4
20722,19.32
20734,36.41
20746,48.71
20758,56.41
20770,59.92
20782,59.83
20794,56.94
20806,52.24
20817,46.74
20828,41.35
20840,36.71
20852,33.15
20864,30.79
20876,29.59
20888,29.5
20900,30.52
20912,32.67
20924,35.9
20936,40.0
20948,44.44
20960,48.42
20972,51.09
20984,51.73
20996,50.11
