seconds,BVP
1,34.33
13,35.18
25,35.36
37,33.9
49,30.25
61,24.68
73,18.18
85,12.19
97,8.0
109,6.21
121,6.53
133,7.96
145,9.36
157,9.87
168,9.3
179,7.9
191,6.05
203,3.92
215,1.4
227,-1.68
239,-5.19
251,-8.58
263,-10.95
275,-11.4
287,-9.53
299,-5.81
311,-1.54
323,1.44
335,1.54
347,-1.93
358,-8.34
369,-16.05
381,-23.14
393,-28.44
405,-31.99
417,-34.64
429,-37.19
441,-39.32
453,-39.53
465,-35.97
477,-27.74
489,-15.71
501,-2.28
513,9.86
525,19.21
537,26.02
548,31.79
559,37.93
571,44.79
583,51.35
595,56.2
607,58.52
619,58.57
631,57.39
643,55.85
655,54.05
667,51.34
679,47.12
691,41.57
703,35.98
715,32.07
727,31.02
738,32.64
749,35.29
761,36.73
773,35.15
785,30.17
797,22.83
809,15.03
821,8.58
833,4.43
845,2.59
857,2.32
869,2.76
881,3.15
893,3.05
905,2.22
917,0.65
928,-1.43
939,-3.51
951,-4.96
963,-5.44
975,-5.13
987,-4.75
999,-5.1
1011,-6.65
1023,-9.17
1035,-11.91
1047,-14.16
1059,-15.81
1071,-17.47
1083,-20.19
1095,-24.72
1107,-31.0
1118,-38.12
1129,-44.76
1141,-49.81
1153,-52.82
1165,-53.87
1177,-53.18
1189,-50.67
1201,-45.84
1213,-38.12
1225,-27.43
1237,-14.58
1249,-1.12
1261,11.14
1273,20.93
1285,27.88
1297,32.55
1308,35.91
1319,38.82
1331,41.74
1343,44.57
1355,46.9
1367,48.18
1379,47.97
1391,46.09
1403,42.75
1415,38.62
1427,34.71
1439,31.94
1451,30.79
1463,30.97
1475,31.62
1487,31.8
1498,30.92
1509,28.99
1521,26.34
1533,23.17
1545,19.35
1557,14.38
1569,7.9
1581,0.14
1593,-7.95
1605,-14.96
1617,-19.63
1629,-21.44
1641,-20.8
1653,-18.83
1665,-16.79
1677,-15.63
1688,-15.66
1699,-16.67
1711,-18.07
1723,-19.2
1735,-19.65
1747,-19.45
1759,-19.07
1771,-19.22
1783,-20.51
1795,-23.01
1807,-26.18
1819,-29.24
1831,-31.58
1843,-33.38
1855,-35.49
1867,-39.04
1878,-44.68
1889,-52.14
1901,-60.3
1913,-67.71
1925,-73.01
1937,-75.2
1949,-73.55
1961,-67.45
1973,-56.62
1985,-41.48
1997,-23.47
2009,-4.94
2021,11.61
2033,24.34
2045,32.75
2057,37.53
2068,40.0
2079,41.36
2091,42.29
2103,43.11
2115,44.03
2127,45.28
2139,46.82
2151,48.2
2163,48.45
2175,46.64
2187,42.59
2199,37.21
2211,32.22
2223,29.29
2235,29.1
2247,30.87
2258,32.86
2269,33.24
2281,31.08
2293,26.61
2305,20.91
2317,15.03
2329,9.54
2341,4.36
2353,-0.8
2365,-6.02
2377,-10.99
2389,-15.24
2401,-18.53
2413,-21.14
2425,-23.79
2437,-27.2
2448,-31.67
2459,-36.91
2471,-42.26
2483,-47.15
2495,-51.48
2507,-55.74
2519,-60.64
2531,-66.62
2543,-73.46
2555,-80.32
2567,-86.31
2579,-91.03
2591,-94.93
2603,-99.04
2615,-104.39
2627,-111.42
2638,-119.77
2649,-128.47
2661,-136.44
2673,-142.86
2685,-147.22
2697,-149.12
2709,-148.16
2721,-143.98
2733,-136.63
2745,-126.89
2757,-116.38
2769,-107.04
2781,-100.37
2793,-96.83
2805,-95.7
2817,-95.6
2828,-95.32
2839,-94.42
2851,-93.33
2863,-92.87
2875,-93.49
2887,-94.75
2899,-95.27
2911,-93.2
2923,-86.8
2935,-75.02
2947,-57.66
2959,-35.38
2971,-9.51
2983,18.27
2995,46.16
3007,72.56
3018,96.33
3029,116.83
3041,133.81
3053,147.14
3065,156.63
3077,162.25
3089,164.22
3101,163.22
3113,160.33
3125,156.64
3137,152.89
3149,149.34
3161,145.88
3173,142.3
3185,138.43
3197,134.14
3208,129.22
3219,123.4
3231,116.37
3243,108.17
3255,99.21
3267,90.35
3279,82.42
3291,75.93
3303,70.83
3315,66.64
3327,62.78
3339,58.83
3351,54.67
3363,50.26
3375,45.54
3387,40.29
3398,34.34
3409,27.76
3421,21.1
3433,15.38
3445,11.78
3457,11.38
3469,14.67
3481,21.37
3493,30.61
3505,41.15
3517,51.75
3529,61.43
3541,69.65
3553,76.22
3565,81.21
3577,84.84
3588,87.4
3599,89.21
3611,90.44
3623,91.05
3635,90.68
3647,88.76
3659,84.75
3671,78.57
3683,70.73
3695,62.21
3707,54.11
3719,47.11
3731,41.25
3743,36.04
3755,30.87
3767,25.33
3778,19.38
3789,13.08
3801,6.31
3813,-1.35
3825,-10.46
3837,-21.29
3849,-33.52
3861,-46.11
3873,-57.54
3885,-66.16
3897,-70.72
3909,-70.58
3921,-65.88
3933,-57.51
3945,-47.01
3957,-36.27
3968,-27.06
3979,-20.56
3991,-17.07
4003,-16.04
4015,-16.67
4027,-18.36
4039,-21.15
4051,-25.48
4063,-31.68
4075,-39.5
4087,-48.03
4099,-56.01
4111,-62.3
4123,-66.2
4135,-67.41
4147,-65.68
4158,-60.69
4169,-52.23
4181,-40.54
4193,-26.66
4205,-12.26
4217,0.87
4229,11.45
4241,19.06
4253,24.0
4265,26.89
4277,28.34
4289,28.82
4301,28.78
4313,28.73
4325,28.98
4337,29.41
4348,29.32
4359,27.67
4371,23.77
4383,17.87
4395,11.24
4407,5.7
4419,2.61
4431,2.14
4443,3.12
4455,3.77
4467,2.73
4479,-0.12
4491,-3.66
4503,-6.33
4515,-7.14
4527,-6.32
4538,-5.04
4549,-4.51
4561,-5.21
4573,-6.53
4585,-7.41
4597,-7.06
4609,-5.67
4621,-4.36
4633,-4.54
4645,-7.0
4657,-11.43
4669,-16.58
4681,-20.94
4693,-23.62
4705,-24.71
4717,-25.01
4728,-25.45
4739,-26.46
4751,-27.95
4763,-29.61
4775,-31.57
4787,-34.55
4799,-39.48
4811,-46.86
4823,-55.98
4835,-64.95
4847,-71.26
4859,-72.88
4871,-69.04
4883,-60.45
4895,-48.83
4907,-35.98
4918,-23.2
4929,-11.09
4941,0.21
4953,10.65
4965,19.92
4977,27.45
4989,32.61
5001,34.95
5013,34.53
5025,31.92
5037,28.3
5049,25.13
5061,23.78
5073,25.12
5085,29.17
5097,35.24
5108,42.18
5119,48.89
5131,54.66
5143,59.44
5155,63.67
5167,67.99
5179,72.81
5191,77.94
5203,82.66
5215,85.9
5227,87.0
5239,86.09
5251,84.28
5263,83.19
5275,84.1
5287,87.08
5298,90.65
5309,92.32
5321,89.74
5333,81.84
5345,69.58
5357,55.55
5369,43.13
5381,35.23
5393,33.35
5405,37.16
5417,44.58
5429,52.15
5441,55.76
5453,51.56
5465,37.09
5477,12.38
5488,-19.74
5499,-54.32
5511,-85.84
5523,-110.34
5535,-126.72
5547,-136.71
5559,-143.44
5571,-149.49
5583,-155.34
5595,-159.1
5607,-157.47
5619,-147.5
5631,-127.98
5643,-100.21
5655,-67.65
5667,-34.87
5678,-6.4
5689,14.46
5701,26.32
5713,29.7
5725,26.63
5737,19.78
5749,11.57
5761,3.6
5773,-3.32
5785,-9.01
5797,-13.38
5809,-16.3
5821,-17.63
5833,-17.33
5845,-15.72
5857,-13.3
5868,-10.63
5879,-8.14
5891,-5.89
5903,-3.74
5915,-1.37
5927,1.44
5939,4.68
5951,7.9
5963,10.1
5975,10.04
5987,6.75
5999,0.18
6011,-8.49
6023,-17.06
6035,-23.24
6047,-25.66
6058,-24.58
6069,-21.68
6081,-19.13
6093,-18.51
6105,-20.01
6117,-22.59
6129,-24.87
6141,-26.07
6153,-26.5
6165,-27.27
6177,-29.6
6189,-34.1
6201,-40.51
6213,-47.89
6225,-54.93
6237,-60.14
6248,-62.04
6259,-59.44
6271,-51.82
6283,-39.67
6295,-24.5
6307,-8.35
6319,6.93
6331,20.3
6343,31.63
6355,41.25
6367,49.3
6379,55.41
6391,58.87
6403,59.16
6415,56.45
6427,51.65
6438,46.06
6449,40.72
6461,36.18
6473,32.44
6485,29.47
6497,27.42
6509,26.73
6521,27.75
6533,30.33
6545,33.65
6557,36.45
6569,37.65
6581,36.84
6593,34.4
6605,31.01
6617,27.09
6628,22.39
6639,16.31
6651,8.47
6663,-0.53
6675,-9.08
6687,-15.22
6699,-17.66
6711,-16.58
6723,-13.66
6735,-11.2
6747,-10.99
6759,-13.6
6771,-18.31
6783,-23.83
6795,-28.96
6807,-32.99
6818,-35.88
6829,-37.83
6841,-39.23
6853,-40.58
6865,-42.51
6877,-45.6
6889,-50.12
6901,-55.59
6913,-60.75
6925,-63.89
6937,-63.48
6949,-58.8
6961,-50.18
6973,-38.82
6985,-26.18
6997,-13.5
7008,-1.45
7019,9.74
7031,20.01
7043,29.26
7055,37.18
7067,43.35
7079,47.38
7091,49.15
7103,48.9
7115,47.26
7127,45.09
7139,43.24
7151,42.37
7163,42.61
7175,43.62
7187,44.75
7198,45.31
7209,44.91
7221,43.53
7233,41.42
7245,38.78
7257,35.78
7269,32.34
7281,28.46
7293,24.36
7305,20.4
7317,17.0
7329,14.37
7341,12.36
7353,10.52
7365,8.43
7377,5.72
7388,2.34
7399,-1.6
7411,-5.89
7423,-10.12
7435,-13.76
7447,-16.19
7459,-17.04
7471,-16.54
7483,-15.82
7495,-16.56
7507,-20.3
7519,-27.57
7531,-37.38
7543,-47.54
7555,-55.77
7567,-60.68
7578,-62.45
7589,-62.36
7601,-61.73
7613,-60.93
7625,-59.13
7637,-54.89
7649,-47.31
7661,-36.64
7673,-24.19
7685,-11.53
7697,0.31
7709,11.13
7721,21.05
7733,29.81
7745,36.53
7757,40.06
7768,39.89
7779,36.7
7791,32.12
7803,27.89
7815,24.85
7827,22.48
7839,19.46
7851,14.67
7863,8.13
7875,1.05
7887,-4.75
7899,-7.9
7911,-8.19
7923,-6.51
7935,-4.29
7947,-2.67
7958,-2.14
7969,-2.66
7981,-3.96
7993,-5.87
8005,-8.47
8017,-11.76
8029,-15.6
8041,-19.61
8053,-23.22
8065,-25.86
8077,-27.07
8089,-26.58
8101,-24.52
8113,-21.52
8125,-18.74
8137,-17.52
8148,-18.99
8159,-23.43
8171,-30.11
8183,-37.45
8195,-43.74
8207,-47.93
8219,-50.03
8231,-51.03
8243,-52.21
8255,-54.55
8267,-58.19
8279,-62.5
8291,-66.38
8303,-68.71
8315,-68.55
8327,-65.18
8338,-58.08
8349,-47.07
8361,-32.54
8373,-15.69
8385,1.55
8397,16.96
8409,28.99
8421,37.35
8433,43.16
8445,48.28
8457,54.18
8469,61.14
8481,68.09
8493,73.31
8505,75.44
8517,74.22
8528,70.45
8539,65.34
8551,59.84
8563,54.29
8575,48.7
8587,43.27
8599,38.69
8611,35.93
8623,35.6
8635,37.29
8647,39.45
8659,40.1
8671,37.72
8683,32.09
8695,24.47
8707,16.97
8718,11.63
8729,9.51
8741,10.46
8753,13.44
8765,17.26
8777,21.04
8789,24.29
8801,26.65
8813,27.63
8825,26.61
8837,23.17
8849,17.63
8861,11.17
8873,5.41
8885,1.66
8897,0.3
8908,0.58
8919,1.07
8931,0.33
8943,-2.49
8955,-7.54
8967,-14.42
8979,-22.44
8991,-30.88
9003,-39.03
9015,-46.27
9027,-52.16
9039,-56.35
9051,-58.55
9063,-58.33
9075,-55.08
9087,-48.09
9098,-37.05
9109,-22.45
9121,-5.81
9133,10.63
9145,24.59
9157,34.68
9169,40.73
9181,43.64
9193,44.74
9205,45.07
9217,45.17
9229,45.16
9241,45.1
9253,45.19
9265,45.68
9277,46.62
9288,47.67
9299,48.21
9311,47.81
9323,46.56
9335,45.08
9347,44.2
9359,44.27
9371,44.98
9383,45.45
9395,44.81
9407,42.78
9419,39.96
9431,37.5
9443,36.41
9455,36.78
9467,37.55
9478,37.18
9489,34.4
9501,28.96
9513,21.81
9525,14.78
9537,9.89
9549,8.55
9561,10.85
9573,15.36
9585,20.15
9597,23.4
9609,23.87
9621,21.1
9633,15.22
9645,6.59
9657,-4.56
9668,-18.62
9679,-37.02
9691,-61.05
9703,-91.57
9715,-129.11
9727,-174.05
9739,-226.44
9751,-285.19
9763,-346.89
9775,-405.25
9787,-452.13
9799,-478.4
9811,-477.06
9823,-445.87
9835,-388.32
9847,-312.02
9858,-225.57
9869,-135.53
9881,-43.13
9893,47.05
9905,128.24
9917,193.42
9929,238.41
9941,263.34
9953,272.01
9965,270.02
9977,262.7
9989,253.51
10001,243.13
10013,231.2
10025,217.01
10037,200.57
10048,182.85
10059,165.62
10071,150.89
10083,140.08
10095,133.28
10107,128.72
10119,124.28
10131,118.39
10143,110.51
10155,101.28
10167,92.05
10179,84.25
10191,78.87
10203,76.34
10215,76.49
10227,79.01
10238,82.82
10249,85.27
10261,82.22
10273,69.29
10285,44.18
10297,8.53
10309,-32.02
10321,-69.86
10333,-98.26
10345,-113.98
10357,-118.06
10369,-114.31
10381,-106.96
10393,-98.55
10405,-89.66
10417,-80.03
10428,-70.09
10439,-61.3
10451,-55.24
10463,-52.08
10475,-49.63
10487,-44.08
10499,-31.73
10511,-11.2
10523,15.07
10535,41.51
10547,61.51
10559,69.96
10571,65.0
10583,48.32
10595,24.12
10607,-2.27
10618,-25.97
10629,-43.39
10641,-52.68
10653,-53.77
10665,-48.26
10677,-38.85
10689,-28.58
10701,-19.91
10713,-13.89
10725,-10.34
10737,-8.64
10749,-8.52
10761,-10.65
10773,-16.19
10785,-25.8
10797,-38.9
10808,-53.6
10819,-67.12
10831,-76.9
10843,-81.39
10855,-80.18
10867,-73.95
10879,-63.93
10891,-51.49
10903,-38.41
10915,-27.29
10927,-21.28
10939,-23.31
10951,-34.64
10963,-53.58
10975,-75.51
10987,-93.92
10998,-102.33
11009,-96.48
11021,-76.04
11033,-44.68
11045,-8.59
11057,25.66
11069,53.17
11081,71.86
11093,80.51
11105,79.6
11117,70.31
11129,53.07
11141,27.32
11153,-7.2
11165,-49.05
11177,-94.95
11188,-141.22
11199,-185.44
11211,-226.88
11223,-265.77
11235,-301.17
11247,-329.23
11259,-343.01
11271,-335.33
11283,-302.69
11295,-247.78
11307,-178.48
11319,-103.83
11331,-29.8
11343,41.8
11355,110.93
11367,177.57
11378,239.03
11389,289.47
11401,322.72
11413,335.57
11425,329.93
11437,312.73
11449,291.76
11461,270.93
11473,252.17
11485,235.95
11497,221.86
11509,209.85
11521,200.51
11533,194.52
11545,193.28
11557,196.45
11568,199.79
11579,200.77
11591,199.68
11603,197.57
11615,195.53
11627,194.24
11639,193.82
11651,196.24
11663,202.66
11675,210.15
11687,217.43
11699,225.05
11711,232.43
11723,237.87
11735,238.99
11747,220.14
11758,175.3
11769,126.75
11781,82.36
11793,38.02
11805,-6.97
11817,-52.77
11829,-98.76
11841,-143.45
11853,-184.67
11865,-218.44
11877,-242.74
11889,-261.31
11901,-277.12
11913,-290.79
11925,-302.21
11937,-309.94
11948,-311.77
11959,-305.62
11971,-288.91
11983,-261.57
11995,-228.24
12007,-192.86
12019,-157.45
12031,-123.63
12043,-92.52
12055,-65.09
12067,-42.02
12079,-22.47
12091,-5.13
12103,10.2
12115,24.76
12127,40.12
12138,55.92
12149,69.9
12161,78.79
12173,80.21
12185,74.56
12197,64.9
12209,55.22
12221,49.96
12233,52.65
12245,64.39
12257,84.2
12269,109.59
12281,137.19
12293,163.12
12305,182.71
12317,190.89
12328,183.54
12339,159.34
12351,120.31
12363,71.6
12375,19.72
12387,-29.69
12399,-73.65
12411,-112.42
12423,-148.77
12435,-186.66
12447,-229.46
12459,-278.3
12471,-330.99
12483,-381.81
12495,-422.36
12507,-443.87
12518,-440.11
12529,-409.52
12541,-355.97
12553,-287.46
12565,-213.69
12577,-143.41
12589,-82.66
12601,-34.32
12613,1.21
12625,25.04
12637,39.12
12649,45.79
12661,47.73
12673,47.82
12685,48.77
12697,52.86
12708,61.22
12719,73.15
12731,85.62
12743,93.91
12755,93.11
12767,80.34
12779,56.46
12791,26.24
12803,-3.4
12815,-26.02
12827,-38.12
12839,-39.94
12851,-34.18
12863,-24.11
12875,-11.84
12887,2.03
12898,17.17
12909,32.09
12921,43.75
12933,48.49
12945,43.99
12957,31.04
12969,13.58
12981,-2.71
12993,-12.7
13005,-13.62
13017,-5.87
13029,7.76
13041,23.35
13053,37.39
13065,47.69
13077,53.61
13088,55.77
13099,55.43
13111,54.09
13123,53.02
13135,53.15
13147,55.05
13159,58.99
13171,64.88
13183,71.96
13195,78.83
13207,83.44
13219,83.88
13231,79.11
13243,69.55
13255,57.11
13267,44.59
13278,34.82
13289,29.78
13301,30.27
13313,35.84
13325,45.27
13337,57.06
13349,69.72
13361,81.88
13373,92.02
13385,98.46
13397,99.58
13409,94.4
13421,82.9
13433,66.03
13445,45.19
13457,21.27
13468,-5.84
13479,-37.37
13491,-74.99
13503,-120.0
13515,-172.83
13527,-232.64
13539,-297.03
13551,-361.86
13563,-421.25
13575,-468.14
13587,-495.9
13599,-500.27
13611,-480.96
13623,-441.87
13635,-389.64
13647,-331.22
13658,-272.04
13669,-215.18
13681,-161.78
13693,-112.21
13705,-66.72
13717,-25.53
13729,11.68
13741,46.34
13753,80.79
13765,117.4
13777,157.14
13789,198.68
13801,238.27
13813,270.76
13825,291.7
13837,299.08
13848,294.26
13859,281.37
13871,265.42
13883,250.45
13895,238.04
13907,227.44
13919,216.6
13931,203.74
13943,188.1
13955,170.04
13967,150.54
13979,130.51
13991,110.9
14003,92.71
14015,77.06
14027,65.02
14038,57.22
14049,53.51
14061,52.84
14073,53.88
14085,55.52
14097,57.63
14109,61.06
14121,67.22
14133,77.23
14145,91.31
14157,108.46
14169,126.81
14181,144.21
14193,158.68
14205,169.27
14217,176.13
14228,180.6
14239,184.6
14251,189.86
14263,197.29
14275,206.52
14287,215.78
14299,221.68
14311,220.13
14323,207.42
14335,181.17
14347,141.35
14359,89.89
14371,29.98
14383,-34.4
14395,-99.94
14407,-165.03
14418,-229.81
14429,-295.1
14441,-360.9
14453,-424.84
14465,-481.87
14477,-524.94
14489,-545.71
14501,-538.59
14513,-503.38
14525,-445.62
14537,-374.23
14549,-297.77
14561,-221.68
14573,-148.0
14585,-76.58
14597,-4.49
14608,68.82
14619,139.35
14631,199.5
14643,241.9
14655,263.27
14667,265.54
14679,254.15
14691,235.44
14703,218.91
14715,210.22
14727,208.68
14739,208.16
14751,202.08
14763,188.52
14775,171.32
14787,157.6
14798,154.15
14809,170.79
14821,212.38
14833,276.47
14845,354.4
14857,436.79
14869,518.14
14881,596.1
14893,668.22
14905,691.01
14917,631.52
14929,486.17
14941,288.37
14953,85.87
14965,-85.64
14977,-210.66
14988,-290.25
14999,-335.21
15011,-359.7
15023,-369.7
15035,-366.89
15047,-351.98
15059,-327.51
15071,-298.04
15083,-266.44
15095,-234.87
15107,-205.69
15119,-181.97
15131,-162.1
15143,-143.92
15155,-126.67
15167,-111.93
15178,-101.97
15189,-97.51
15201,-97.99
15213,-102.39
15225,-109.64
15237,-115.27
15249,-114.72
15261,-105.88
15273,-90.24
15285,-71.78
15297,-54.74
15309,-42.6
15321,-37.34
15333,-38.58
15345,-41.98
15357,-41.51
15368,-32.01
15379,-11.64
15391,17.36
15403,49.78
15415,79.47
15427,101.78
15439,115.56
15451,123.66
15463,130.54
15475,139.68
15487,151.6
15499,164.16
15511,174.31
15523,179.78
15535,179.64
15547,173.69
15558,161.45
15569,142.01
15581,115.11
15593,82.5
15605,48.68
15617,19.8
15629,0.95
15641,-6.01
15653,-3.3
15665,4.12
15677,11.12
15689,14.81
15701,15.4
15713,15.29
15725,17.33
15737,22.72
15748,31.01
15759,40.32
15771,48.15
15783,51.78
15795,48.72
15807,37.1
15819,16.28
15831,-12.95
15843,-49.7
15855,-93.14
15867,-143.01
15879,-198.92
15891,-258.91
15903,-317.88
15915,-367.89
15927,-400.11
15938,-408.71
15949,-395.02
15961,-365.12
15973,-325.91
15985,-281.04
15997,-229.7
16009,-168.77
16021,-96.95
16033,-17.95
16045,59.36
16057,121.34
16069,158.76
16081,171.76
16093,169.06
16105,161.99
16117,157.91
16128,157.25
16139,154.87
16151,144.09
16163,115.81
16175,67.35
16187,4.05
16199,-63.62
16211,-125.98
16223,-178.16
16235,-219.83
16247,-252.84
16259,-278.91
16271,-305.01
16283,-335.16
16295,-368.69
16307,-401.51
16318,-430.39
16329,-456.07
16341,-482.17
16353,-512.79
16365,-509.98
16377,-453.07
16389,-348.38
16401,-225.07
16413,-111.46
16425,-20.57
16437,46.44
16449,93.4
16461,124.94
16473,145.36
16485,152.05
16497,144.05
16508,124.87
16519,101.53
16531,80.93
16543,65.78
16555,55.49
16567,48.01
16579,41.61
16591,30.04
16603,9.09
16615,-20.92
16627,-57.39
16639,-91.49
16651,-115.5
16663,-123.88
16675,-114.3
16687,-88.56
16698,-55.93
16709,-27.39
16721,-11.17
16733,-10.11
16745,-21.95
16757,-42.48
16769,-67.24
16781,-92.96
16793,-117.6
16805,-141.67
16817,-165.12
16829,-186.0
16841,-200.77
16853,-205.73
16865,-199.09
16877,-180.42
16888,-153.04
16899,-120.07
16911,-84.64
16923,-48.95
16935,-14.18
16947,19.04
16959,50.03
16971,77.22
16983,98.7
16995,112.86
17007,119.5
17019,119.65
17031,115.4
17043,109.26
17055,103.52
17067,99.76
17078,98.56
17089,99.84
17101,103.22
17113,108.82
17125,116.98
17137,128.09
17149,142.29
17161,159.18
17173,177.87
17185,197.13
17197,215.85
17209,233.33
17221,249.76
17233,265.89
17245,282.92
17257,302.27
17268,324.97
17279,350.92
17291,378.31
17303,403.37
17315,421.09
17327,426.79
17339,417.71
17351,394.17
17363,359.64
17375,319.5
17387,279.3
17399,243.13
17411,212.93
17423,188.7
17435,169.4
17447,153.78
17458,140.69
17469,129.21
17481,118.35
17493,107.07
17505,94.45
17517,80.06
17529,64.16
17541,47.69
17553,32.04
17565,18.5
17577,7.88
17589,0.32
17601,-4.61
17613,-7.54
17625,-9.04
17637,-9.48
17648,-9.0
17659,-7.84
17671,-6.3
17683,-4.87
17695,-3.99
17707,-4.0
17719,-4.98
17731,-6.75
17743,-8.99
17755,-11.22
17767,-12.96
17779,-13.84
17791,-13.71
17803,-12.7
17815,-11.21
17827,-9.66
17838,-8.33
17849,-7.24
17861,-6.23
17873,-5.16
17885,-4.13
17897,-3.46
17909,-3.57
17921,-4.87
17933,-7.48
17945,-11.3
17957,-16.09
17969,-21.57
17981,-27.55
17993,-33.89
18005,-40.53
18017,-47.45
18028,-54.74
18039,-62.51
18051,-70.85
18063,-79.65
18075,-88.46
18087,-96.56
18099,-103.18
18111,-107.79
18123,-110.28
18135,-110.99
18147,-110.42
18159,-109.01
18171,-106.94
18183,-104.07
18195,-100.07
18207,-94.62
18218,-87.63
18229,-79.3
18241,-70.08
18253,-60.55
18265,-51.26
18277,-42.62
18289,-34.84
18301,-27.91
18313,-21.76
18325,-16.4
18337,-11.99
18349,-8.83
18361,-7.17
18373,-7.03
18385,-8.17
18397,-10.09
18408,-12.21
18419,-14.03
18431,-15.23
18443,-15.67
18455,-15.36
18467,-14.41
18479,-13.01
18491,-11.41
18503,-9.84
18515,-8.44
18527,-7.21
18539,-6.06
18551,-4.94
18563,-3.93
18575,-3.23
18587,-2.97
18598,-3.18
18609,-3.68
18621,-4.15
18633,-4.34
18645,-4.15
18657,-3.72
18669,-3.33
18681,-3.25
18693,-3.56
18705,-4.23
18717,-5.14
18729,-6.24
18741,-7.63
18753,-9.45
18765,-11.84
18777,-14.81
18788,-18.24
18799,-21.74
18811,-24.79
18823,-26.72
18835,-26.88
18847,-24.78
18859,-20.28
18871,-13.7
18883,-5.81
18895,2.39
18907,9.9
18919,16.0
18931,20.4
18943,23.25
18955,24.95
18967,25.94
18978,26.52
18989,26.78
19001,26.65
19013,26.05
19025,24.95
19037,23.43
19049,21.54
19061,19.27
19073,16.55
19085,13.29
19097,9.57
19109,5.7
19121,2.25
19133,-0.19
19145,-1.24
19157,-0.9
19168,0.44
19179,2.18
19191,3.67
19203,4.46
19215,4.26
19227,3.0
19239,0.77
19251,-2.13
19263,-5.28
19275,-8.18
19287,-10.46
19299,-11.99
19311,-12.99
19323,-13.88
19335,-15.07
19347,-16.81
19358,-19.04
19369,-21.52
19381,-23.92
19393,-25.88
19405,-27.17
19417,-27.66
19429,-27.45
19441,-26.82
19453,-26.28
19465,-26.41
19477,-27.6
19489,-29.83
19501,-32.51
19513,-34.66
19525,-35.21
19537,-33.36
19548,-28.87
19559,-22.19
19571,-14.18
19583,-5.9
19595,1.72
19607,8.08
19619,13.0
19631,16.63
19643,19.29
19655,21.27
19667,22.73
19679,23.71
19691,24.22
19703,24.31
19715,24.17
19727,24.06
19738,24.24
19749,24.86
19761,25.84
19773,26.98
19785,28.01
19797,28.78
19809,29.32
19821,29.85
19833,30.62
19845,31.79
19857,33.29
19869,34.84
19881,36.1
19893,36.79
19905,36.84
19917,36.4
19928,35.71
19939,34.97
19951,34.22
19963,33.4
19975,32.39
19987,31.06
19999,29.27
20011,26.86
20023,23.58
20035,19.14
20047,13.33
20059,6.17
20071,-2.05
20083,-10.74
20095,-19.25
20107,-27.06
20118,-33.99
20129,-40.19
20141,-46.01
20153,-51.74
20165,-57.28
20177,-62.08
20189,-65.24
20201,-65.85
20213,-63.42
20225,-58.11
20237,-50.71
20249,-42.32
20261,-34.04
20273,-26.54
20285,-20.11
20297,-14.69
20308,-10.11
20319,-6.27
20331,-3.14
20343,-0.78
20355,0.79
20367,1.58
20379,1.75
20391,1.44
20403,0.91
20415,0.39
20427,0.08
20439,0.1
20451,0.42
20463,0.87
20475,1.27
20487,1.49
20498,1.55
20509,1.58
20521,1.74
20533,2.11
20545,2.63
20557,3.1
20569,3.26
20581,2.94
20593,2.09
20605,0.76
20617,-0.97
20629,-2.95
20641,-5.09
20653,-7.26
20665,-9.44
20677,-11.58
20688,-13.76
20699,-16.06
20711,-18.57
20723,-21.26
20735,-23.96
20747,-26.43
20759,-28.46
20771,-29.96
20783,-30.99
20795,-31.72
20807,-32.35
20819,-33.06
20831,-33.96
20843,-35.18
20855,-36.73
20867,-38.42
20878,-39.76
20889,-40.0
20901,-38.33
20913,-34.24
20925,-27.74
20937,-19.45
20949,-10.37
20961,-1.62
20973,5.95
20985,11.93
20997,16.32
