seconds,BVP
2,-33.51
14,-30.63
26,-30.78
38,-34.64
50,-41.03
62,-47.77
74,-53.15
86,-56.6
98,-56.01
110,-51.21
122,-44.56
134,-39.68
146,-38.59
158,-40.48
170,-42.55
181,-41.63
192,-34.85
204,-20.57
216,-0.13
228,22.91
240,43.99
252,59.25
264,66.67
276,67.5
288,63.05
300,53.83
312,42.05
324,28.52
336,13.45
348,-2.36
360,-16.94
371,-27.85
382,-33.27
394,-33.13
406,-28.73
418,-22.23
430,-16.4
442,-13.09
454,-12.46
466,-13.19
478,-13.41
490,-11.81
502,-8.36
514,-3.81
526,0.93
538,4.93
550,8.07
561,10.89
572,14.17
584,18.26
596,22.71
608,26.5
620,28.59
632,28.5
644,26.16
656,22.05
668,16.8
680,11.11
692,5.57
704,0.57
716,-3.59
728,-6.63
740,-8.25
751,-8.39
762,-7.04
774,-4.23
786,0.04
798,5.53
810,11.66
822,17.48
834,21.86
846,23.96
858,23.37
870,20.51
882,16.39
894,12.23
906,8.98
918,7.1
930,6.75
941,8.06
952,11.47
964,17.29
976,25.56
988,35.81
1000,47.01
1012,58.05
1024,68.14
1036,76.99
1048,84.59
1060,90.85
1072,94.79
1084,95.03
1096,90.36
1108,80.36
1120,65.95
1131,49.14
1142,31.89
1154,14.88
1166,0.07
1178,-11.96
1190,-21.51
1202,-29.17
1214,-35.84
1226,-41.64
1238,-46.12
1250,-49.03
1262,-50.79
1274,-52.2
1286,-54.4
1298,-58.14
1310,-63.49
1321,-70.62
1332,-78.31
1344,-84.39
1356,-87.43
1368,-87.55
1380,-86.05
1392,-84.88
1404,-85.61
1416,-88.84
1428,-95.57
1440,-104.58
1452,-113.27
1464,-119.84
1476,-124.39
1488,-128.07
1500,-132.19
1511,-137.37
1522,-143.54
1534,-151.75
1546,-160.57
1558,-166.38
1570,-165.56
1582,-155.97
1594,-136.69
1606,-107.71
1618,-69.96
1630,-14.79
1642,50.33
1654,108.41
1666,147.77
1678,168.38
1690,176.35
1701,177.78
1712,176.21
1724,172.36
1736,165.07
1748,151.02
1760,130.01
1772,105.38
1784,81.54
1796,61.73
1808,47.38
1820,38.24
1832,32.85
1844,29.27
1856,24.61
1868,18.51
1880,12.83
1891,9.33
1902,8.19
1914,8.16
1926,7.58
1938,5.28
1950,1.05
1962,-5.23
1974,-12.12
1986,-17.25
1998,-19.22
2010,-17.94
2022,-14.62
2034,-10.91
2046,-8.11
2058,-6.77
2070,-7.06
2081,-8.12
2092,-8.65
2104,-7.86
2116,-5.94
2128,-3.85
2140,-2.64
2152,-2.94
2164,-4.61
2176,-7.15
2188,-9.7
2200,-11.47
2212,-12.19
2224,-12.15
2236,-11.9
2248,-11.88
2260,-12.26
2271,-12.8
2282,-13.24
2294,-13.44
2306,-13.44
2318,-13.35
2330,-13.25
2342,-13.06
2354,-12.51
2366,-12.1
2378,-12.03
2390,-12.46
2402,-13.56
2414,-15.46
2426,-18.13
2438,-21.41
2450,-24.98
2461,-28.45
2472,-31.34
2484,-33.02
2496,-32.96
2508,-30.87
2520,-26.74
2532,-20.91
2544,-14.02
2556,-6.8
2568,-0.0
2580,5.82
2592,10.43
2604,13.84
2616,16.2
2628,17.76
2640,18.79
2651,19.5
2662,20.01
2674,20.34
2686,20.4
2698,20.12
2710,19.43
2722,18.33
2734,16.92
2746,15.35
2758,13.76
2770,12.25
2782,10.85
2794,9.51
2806,8.2
2818,6.88
2830,5.51
2841,4.1
2852,2.66
2864,1.18
2876,-0.31
2888,-1.84
2900,-3.42
2912,-5.07
2924,-6.83
2936,-8.74
2948,-10.79
2960,-12.87
2972,-14.76
2984,-16.09
2996,-16.42
3008,-15.44
3020,-13.0
3031,-9.24
3042,-4.56
3054,0.56
3066,5.62
3078,10.31
3090,14.46
3102,18.08
3114,21.19
3126,23.83
3138,25.98
3150,27.65
3162,28.86
3174,29.68
3186,30.26
3198,30.71
3210,31.1
3221,31.41
3232,31.56
3244,31.45
3256,31.02
3268,30.29
3280,29.34
3292,28.24
3304,27.03
3316,25.68
3328,24.15
3340,22.4
3352,20.44
3364,18.31
3376,16.04
3388,13.67
3400,11.22
3411,8.75
3422,6.35
3434,4.13
3446,2.15
3458,0.41
3470,-1.2
3482,-2.78
3494,-4.43
3506,-6.23
3518,-8.21
3530,-10.37
3542,-12.67
3554,-14.96
3566,-16.98
3578,-18.34
3590,-18.63
3601,-17.59
3612,-15.17
3624,-11.59
3636,-7.32
3648,-2.86
3660,1.31
3672,4.91
3684,7.9
3696,10.39
3708,12.55
3720,14.48
3732,16.15
3744,17.4
3756,18.08
3768,18.13
3780,17.7
3791,17.06
3802,16.48
3814,16.12
3826,15.91
3838,15.71
3850,15.33
3862,14.74
3874,14.02
3886,13.3
3898,12.63
3910,11.95
3922,11.13
3934,10.07
3946,8.79
3958,7.42
3970,6.11
3981,4.93
3992,3.8
4004,2.6
4016,1.19
4028,-0.41
4040,-2.1
4052,-3.76
4064,-5.29
4076,-6.68
4088,-8.03
4100,-9.41
4112,-10.92
4124,-12.59
4136,-14.46
4148,-16.52
4160,-18.64
4171,-20.57
4182,-21.89
4194,-22.15
4206,-21.03
4218,-18.48
4230,-14.77
4242,-10.43
4254,-6.03
4266,-2.02
4278,1.41
4290,4.31
4302,6.91
4314,9.38
4326,11.79
4338,14.03
4350,15.88
4361,17.16
4372,17.78
4384,17.81
4396,17.46
4408,16.93
4420,16.4
4432,15.98
4444,15.64
4456,15.34
4468,14.98
4480,14.5
4492,13.9
4504,13.21
4516,12.48
4528,11.71
4540,10.87
4551,9.89
4562,8.75
4574,7.5
4586,6.28
4598,5.22
4610,4.35
4622,3.56
4634,2.63
4646,1.4
4658,-0.18
4670,-1.94
4682,-3.6
4694,-4.93
4706,-5.84
4718,-6.42
4730,-6.88
4741,-7.38
4752,-7.99
4764,-8.69
4776,-9.45
4788,-10.25
4800,-11.12
4812,-12.09
4824,-13.17
4836,-14.37
4848,-15.73
4860,-17.29
4872,-19.07
4884,-20.99
4896,-22.8
4908,-24.08
4920,-24.37
4931,-23.27
4942,-20.55
4954,-16.23
4966,-10.59
4978,-4.14
4990,2.42
5002,8.39
5014,13.23
5026,16.67
5038,18.78
5050,19.89
5062,20.39
5074,20.6
5086,20.64
5098,20.49
5110,20.08
5121,19.37
5132,18.4
5144,17.21
5156,15.89
5168,14.46
5180,12.95
5192,11.4
5204,9.85
5216,8.33
5228,6.9
5240,5.55
5252,4.33
5264,3.26
5276,2.35
5288,1.6
5300,1.0
5311,0.54
5322,0.24
5334,0.15
5346,0.26
5358,0.5
5370,0.76
5382,0.86
5394,0.7
5406,0.26
5418,-0.39
5430,-1.14
5442,-1.95
5454,-2.82
5466,-3.81
5478,-4.99
5490,-6.32
5501,-7.71
5512,-9.0
5524,-10.06
5536,-10.83
5548,-11.35
5560,-11.69
5572,-11.96
5584,-12.23
5596,-12.57
5608,-13.02
5620,-13.63
5632,-14.42
5644,-15.33
5656,-16.24
5668,-16.91
5680,-17.09
5691,-16.54
5702,-15.18
5714,-13.09
5726,-10.51
5738,-7.77
5750,-5.2
5762,-3.05
5774,-1.45
5786,-0.39
5798,0.22
5810,0.52
5822,0.7
5834,0.95
5846,1.44
5858,2.26
5870,3.5
5881,5.12
5892,7.02
5904,9.02
5916,10.89
5928,12.46
5940,13.6
5952,14.31
5964,14.67
5976,14.8
5988,14.72
6000,14.42
6012,13.81
6024,12.81
6036,11.45
6048,9.8
6060,8.0
6071,6.21
6082,4.51
6094,2.98
6106,1.64
6118,0.5
6130,-0.48
6142,-1.33
6154,-2.16
6166,-3.07
6178,-4.11
6190,-5.25
6202,-6.35
6214,-7.25
6226,-7.84
6238,-8.15
6250,-8.32
6261,-8.57
6272,-9.06
6284,-9.86
6296,-10.9
6308,-12.0
6320,-12.97
6332,-13.62
6344,-13.8
6356,-13.41
6368,-12.39
6380,-10.77
6392,-8.67
6404,-6.32
6416,-3.99
6428,-1.91
6440,-0.2
6451,1.11
6462,2.1
6474,2.83
6486,3.38
6498,3.77
6510,4.03
6522,4.2
6534,4.33
6546,4.48
6558,4.66
6570,4.79
6582,4.77
6594,4.55
6606,4.12
6618,3.59
6630,3.08
6641,2.69
6652,2.42
6664,2.17
6676,1.81
6688,1.23
6700,0.4
6712,-0.6
6724,-1.66
6736,-2.62
6748,-3.39
6760,-3.88
6772,-4.07
6784,-4.0
6796,-3.76
6808,-3.53
6820,-3.48
6831,-3.76
6842,-4.43
6854,-5.48
6866,-6.77
6878,-8.08
6890,-9.18
6902,-9.82
6914,-9.84
6926,-9.15
6938,-7.85
6950,-6.12
6962,-4.22
6974,-2.39
6986,-0.83
6998,0.37
7010,1.21
7021,1.77
7032,2.14
7044,2.43
7056,2.69
7068,2.95
7080,3.18
7092,3.36
7104,3.48
7116,3.51
7128,3.46
7140,3.31
7152,3.04
7164,2.66
7176,2.2
7188,1.72
7200,1.29
7211,0.91
7222,0.53
7234,0.05
7246,-0.6
7258,-1.44
7270,-2.41
7282,-3.38
7294,-4.25
7306,-4.95
7318,-5.5
7330,-5.99
7342,-6.54
7354,-7.2
7366,-8.02
7378,-8.92
7390,-9.78
7401,-10.41
7412,-10.63
7424,-10.29
7436,-9.35
7448,-7.87
7460,-6.03
7472,-4.04
7484,-2.14
7496,-0.49
7508,0.85
7520,1.93
7532,2.84
7544,3.69
7556,4.55
7568,5.37
7580,6.06
7591,6.48
7602,6.52
7614,6.2
7626,5.67
7638,5.08
7650,4.61
7662,4.31
7674,4.14
7686,4.0
7698,3.82
7710,3.52
7722,3.11
7734,2.56
7746,1.87
7758,1.0
7770,-0.03
7781,-1.17
7792,-2.32
7804,-3.37
7816,-4.27
7828,-5.09
7840,-5.92
7852,-6.89
7864,-8.02
7876,-9.2
7888,-10.16
7900,-10.6
7912,-10.31
7924,-9.23
7936,-7.49
7948,-5.35
7960,-3.09
7971,-0.92
7982,1.03
7994,2.72
8006,4.15
8018,5.34
8030,6.26
8042,6.9
8054,7.23
8066,7.29
8078,7.12
8090,6.86
8102,6.61
8114,6.5
8126,6.53
8138,6.63
8150,6.63
8161,6.39
8172,5.87
8184,5.14
8196,4.4
8208,3.79
8220,3.36
8232,3.01
8244,2.59
8256,1.96
8268,1.1
8280,0.11
8292,-0.89
8304,-1.78
8316,-2.54
8328,-3.21
8340,-3.87
8351,-4.59
8362,-5.4
8374,-6.29
8386,-7.25
8398,-8.25
8410,-9.25
8422,-10.16
8434,-10.88
8446,-11.24
8458,-11.1
8470,-10.35
8482,-8.96
8494,-7.03
8506,-4.73
8518,-2.29
8530,0.1
8541,2.29
8552,4.2
8564,5.81
8576,7.09
8588,8.05
8600,8.67
8612,9.01
8624,9.14
8636,9.2
8648,9.28
8660,9.45
8672,9.68
8684,9.86
8696,9.84
8708,9.51
8720,8.85
8731,7.96
8742,7.06
8754,6.37
8766,6.01
8778,5.93
8790,5.97
8802,5.88
8814,5.5
8826,4.84
8838,4.05
8850,3.35
8862,2.87
8874,2.64
8886,2.51
8898,2.33
8910,1.98
8921,1.48
8932,0.88
8944,0.24
8956,-0.46
8968,-1.28
8980,-2.26
8992,-3.36
9004,-4.45
9016,-5.39
9028,-6.15
9040,-6.83
9052,-7.63
9064,-8.69
9076,-9.99
9088,-11.3
9100,-12.28
9111,-12.58
9122,-12.06
9134,-10.78
9146,-8.98
9158,-6.96
9170,-4.95
9182,-3.04
9194,-1.23
9206,0.47
9218,2.06
9230,3.48
9242,4.67
9254,5.6
9266,6.26
9278,6.7
9290,6.95
9301,7.04
9312,6.96
9324,6.7
9336,6.26
9348,5.67
9360,5.03
9372,4.43
9384,3.95
9396,3.61
9408,3.36
9420,3.08
9432,2.63
9444,1.9
9456,0.92
9468,-0.19
9480,-1.22
9491,-1.99
9502,-2.39
9514,-2.46
9526,-2.36
9538,-2.28
9550,-2.41
9562,-2.83
9574,-3.51
9586,-4.28
9598,-4.98
9610,-5.46
9622,-5.7
9634,-5.77
9646,-5.89
9658,-6.23
9670,-6.94
9681,-7.98
9692,-9.18
9704,-10.25
9716,-10.87
9728,-10.82
9740,-10.02
9752,-8.57
9764,-6.68
9776,-4.64
9788,-2.66
9800,-0.9
9812,0.6
9824,1.85
9836,2.94
9848,3.98
9860,5.05
9871,6.13
9882,7.18
9894,8.08
9906,8.72
9918,9.03
9930,9.04
9942,8.8
9954,8.38
9966,7.85
9978,7.23
9990,6.56
10002,5.89
10014,5.26
10026,4.7
10038,4.2
10050,3.75
10061,3.38
10072,3.12
10084,2.99
10096,2.98
10108,3.03
10120,3.04
10132,2.9
10144,2.56
10156,2.04
10168,1.37
10180,0.62
10192,-0.19
10204,-1.06
10216,-1.99
10228,-2.93
10240,-3.82
10251,-4.61
10262,-5.25
10274,-5.76
10286,-6.17
10298,-6.54
10310,-6.93
10322,-7.34
10334,-7.77
10346,-8.18
10358,-8.56
10370,-8.91
10382,-9.22
10394,-9.45
10406,-9.47
10418,-9.15
10430,-8.37
10441,-7.13
10452,-5.56
10464,-3.89
10476,-2.35
10488,-1.09
10500,-0.12
10512,0.73
10524,1.64
10536,2.77
10548,4.09
10560,5.44
10572,6.59
10584,7.34
10596,7.61
10608,7.49
10620,7.13
10631,6.68
10642,6.21
10654,5.76
10666,5.31
10678,4.91
10690,4.64
10702,4.55
10714,4.62
10726,4.79
10738,4.93
10750,4.93
10762,4.8
10774,4.55
10786,4.24
10798,3.83
10810,3.27
10821,2.53
10832,1.63
10844,0.69
10856,-0.12
10868,-0.7
10880,-1.02
10892,-1.14
10904,-1.19
10916,-1.27
10928,-1.47
10940,-1.8
10952,-2.29
10964,-2.93
10976,-3.71
10988,-4.55
11000,-5.33
11011,-5.94
11022,-6.28
11034,-6.37
11046,-6.35
11058,-6.4
11070,-6.72
11082,-7.37
11094,-8.36
11106,-9.54
11118,-10.7
11130,-11.61
11142,-12.04
11154,-11.81
11166,-10.88
11178,-9.32
11190,-7.35
11201,-5.22
11212,-3.23
11224,-1.57
11236,-0.3
11248,0.65
11260,1.42
11272,2.21
11284,3.11
11296,4.11
11308,5.08
11320,5.86
11332,6.34
11344,6.55
11356,6.59
11368,6.64
11380,6.76
11391,6.96
11402,7.12
11414,7.13
11426,6.96
11438,6.67
11450,6.33
11462,6.01
11474,5.66
11486,5.23
11498,4.64
11510,3.91
11522,3.09
11534,2.25
11546,1.46
11558,0.72
11570,-0.0
11581,-0.76
11592,-1.58
11604,-2.47
11616,-3.37
11628,-4.24
11640,-4.97
11652,-5.51
11664,-5.83
11676,-6.01
11688,-6.18
11700,-6.5
11712,-7.09
11724,-7.97
11736,-9.01
11748,-10.02
11760,-10.77
11771,-11.15
11782,-11.07
11794,-10.53
11806,-9.57
11818,-8.24
11830,-6.62
11842,-4.84
11854,-3.08
11866,-1.5
11878,-0.2
11890,0.81
11902,1.64
11914,2.44
11926,3.32
11938,4.28
11950,5.21
11961,5.91
11972,6.24
11984,6.17
11996,5.82
12008,5.37
12020,5.0
12032,4.79
12044,4.76
12056,4.82
12068,4.94
12080,5.05
12092,5.18
12104,5.3
12116,5.35
12128,5.28
12140,5.06
12151,4.69
12162,4.25
12174,3.83
12186,3.47
12198,3.13
12210,2.73
12222,2.16
12234,1.44
12246,0.6
12258,-0.24
12270,-0.99
12282,-1.63
12294,-2.22
12306,-2.86
12318,-3.61
12330,-4.48
12341,-5.43
12352,-6.37
12364,-7.23
12376,-7.95
12388,-8.43
12400,-8.54
12412,-8.16
12424,-7.19
12436,-5.7
12448,-3.89
12460,-2.09
12472,-0.61
12484,0.39
12496,0.98
12508,1.34
12520,1.69
12531,2.16
12542,2.68
12554,3.12
12566,3.33
12578,3.3
12590,3.14
12602,3.0
12614,3.01
12626,3.18
12638,3.4
12650,3.5
12662,3.38
12674,3.05
12686,2.62
12698,2.25
12710,2.02
12721,1.94
12732,1.88
12744,1.73
12756,1.43
12768,1.04
12780,0.65
12792,0.39
12804,0.27
12816,0.22
12828,0.09
12840,-0.23
12852,-0.74
12864,-1.34
12876,-1.89
12888,-2.32
12900,-2.68
12911,-3.06
12922,-3.53
12934,-4.12
12946,-4.75
12958,-5.32
12970,-5.78
12982,-6.1
12994,-6.24
13006,-6.14
13018,-5.7
13030,-4.8
13042,-3.46
13054,-1.81
13066,-0.11
13078,1.41
13090,2.58
13101,3.42
13112,4.07
13124,4.66
13136,5.28
13148,5.88
13160,6.32
13172,6.47
13184,6.29
13196,5.84
13208,5.29
13220,4.81
13232,4.5
13244,4.35
13256,4.31
13268,4.29
13280,4.24
13291,4.15
13302,4.05
13314,3.92
13326,3.72
13338,3.39
13350,2.93
13362,2.37
13374,1.8
13386,1.28
13398,0.83
13410,0.39
13422,-0.08
13434,-0.63
13446,-1.2
13458,-1.72
13470,-2.14
13481,-2.46
13492,-2.75
13504,-3.11
13516,-3.59
13528,-4.18
13540,-4.84
13552,-5.51
13564,-6.17
13576,-6.77
13588,-7.26
13600,-7.51
13612,-7.42
13624,-6.88
13636,-5.9
13648,-4.61
13660,-3.17
13671,-1.78
13682,-0.52
13694,0.56
13706,1.49
13718,2.26
13730,2.85
13742,3.24
13754,3.43
13766,3.48
13778,3.46
13790,3.44
13802,3.42
13814,3.38
13826,3.28
13838,3.14
13850,2.98
13861,2.85
13872,2.76
13884,2.63
13896,2.42
13908,2.08
13920,1.63
13932,1.18
13944,0.81
13956,0.57
13968,0.42
13980,0.29
13992,0.08
14004,-0.25
14016,-0.69
14028,-1.19
14040,-1.71
14051,-2.19
14062,-2.63
14074,-3.03
14086,-3.42
14098,-3.87
14110,-4.47
14122,-5.28
14134,-6.28
14146,-7.34
14158,-8.22
14170,-8.65
14182,-8.44
14194,-7.57
14206,-6.22
14218,-4.65
14230,-3.13
14241,-1.85
14252,-0.83
14264,-0.01
14276,0.73
14288,1.5
14300,2.34
14312,3.19
14324,3.94
14336,4.47
14348,4.67
14360,4.52
14372,4.11
14384,3.59
14396,3.15
14408,2.92
14420,2.97
14431,3.24
14442,3.65
14454,4.06
14466,4.37
14478,4.5
14490,4.4
14502,4.07
14514,3.54
14526,2.89
14538,2.25
14550,1.71
14562,1.35
14574,1.19
14586,1.19
14598,1.22
14610,1.15
14621,0.87
14632,0.34
14644,-0.42
14656,-1.31
14668,-2.24
14680,-3.13
14692,-3.97
14704,-4.77
14716,-5.51
14728,-6.14
14740,-6.53
14752,-6.55
14764,-6.12
14776,-5.27
14788,-4.13
14800,-2.9
14811,-1.76
14822,-0.84
14834,-0.12
14846,0.49
14858,1.12
14870,1.84
14882,2.65
14894,3.45
14906,4.11
14918,4.52
14930,4.66
14942,4.61
14954,4.49
14966,4.42
14978,4.49
14990,4.69
15001,4.96
15012,5.23
15024,5.4
15036,5.39
15048,5.16
15060,4.72
15072,4.1
15084,3.37
15096,2.64
15108,2.0
15120,1.5
15132,1.15
15144,0.88
15156,0.61
15168,0.26
15180,-0.21
15191,-0.81
15202,-1.46
15214,-2.12
15226,-2.71
15238,-3.2
15250,-3.6
15262,-3.98
15274,-4.39
15286,-4.9
15298,-5.5
15310,-6.1
15322,-6.55
15334,-6.65
15346,-6.25
15358,-5.32
15370,-3.98
15381,-2.46
15392,-1.0
15404,0.2
15416,1.06
15428,1.58
15440,1.83
15452,1.88
15464,1.79
15476,1.67
15488,1.56
15500,1.54
15512,1.6
15524,1.72
15536,1.86
15548,2.03
15560,2.26
15571,2.55
15582,2.87
15594,3.11
15606,3.17
15618,3.0
15630,2.66
15642,2.28
15654,2.03
15666,1.94
15678,1.94
15690,1.89
15702,1.63
15714,1.14
15726,0.51
15738,-0.09
15750,-0.52
15761,-0.72
15772,-0.76
15784,-0.79
15796,-0.98
15808,-1.42
15820,-2.11
15832,-2.96
15844,-3.83
15856,-4.56
15868,-5.02
15880,-5.11
15892,-4.77
15904,-3.98
15916,-2.8
15928,-1.38
15940,0.08
15951,1.36
15962,2.31
15974,2.86
15986,3.08
15998,3.06
16010,2.92
16022,2.75
16034,2.6
16046,2.53
16058,2.58
16070,2.74
16082,2.99
16094,3.24
16106,3.41
16118,3.45
16130,3.36
16141,3.15
16152,2.8
16164,2.33
16176,1.72
16188,1.02
16200,0.35
16212,-0.15
16224,-0.43
16236,-0.54
16248,-0.66
16260,-0.98
16272,-1.57
16284,-2.31
16296,-2.97
16308,-3.36
16320,-3.43
16331,-3.33
16342,-3.31
16354,-3.55
16366,-4.06
16378,-4.7
16390,-5.22
16402,-5.44
16414,-5.29
16426,-4.84
16438,-4.2
16450,-3.44
16462,-2.6
16474,-1.69
16486,-0.73
16498,0.2
16510,1.01
16521,1.64
16532,2.09
16544,2.41
16556,2.68
16568,2.96
16580,3.25
16592,3.51
16604,3.68
16616,3.74
16628,3.75
16640,3.78
16652,3.84
16664,3.9
16676,3.86
16688,3.64
16700,3.22
16711,2.7
16722,2.26
16734,1.99
16746,1.92
16758,1.92
16770,1.8
16782,1.42
16794,0.77
16806,-0.04
16818,-0.81
16830,-1.43
16842,-1.85
16854,-2.12
16866,-2.32
16878,-2.5
16890,-2.73
16901,-3.08
16912,-3.62
16924,-4.4
16936,-5.38
16948,-6.38
16960,-7.07
16972,-7.15
16984,-6.37
16996,-4.75
17008,-2.5
17020,-0.0
17032,2.33
17044,4.17
17056,5.34
17068,5.82
17080,5.71
17091,5.2
17102,4.5
17114,3.8
17126,3.21
17138,2.81
17150,2.56
17162,2.43
17174,2.37
17186,2.33
17198,2.29
17210,2.23
17222,2.12
17234,1.94
17246,1.67
17258,1.29
17270,0.81
17281,0.25
17292,-0.34
17304,-0.87
17316,-1.24
17328,-1.37
17340,-1.23
17352,-0.86
17364,-0.36
17376,0.17
17388,0.64
17400,0.98
17412,1.14
17424,1.03
17436,0.49
17448,-0.56
17460,-2.12
17471,-3.99
17482,-5.88
17494,-7.51
17506,-8.7
17518,-9.44
17530,-9.8
17542,-9.85
17554,-9.58
17566,-8.94
17578,-7.89
17590,-6.5
17602,-4.99
17614,-3.6
17626,-2.49
17638,-1.7
17650,-1.14
17661,-0.69
17672,-0.24
17684,0.22
17696,0.69
17708,1.1
17720,1.45
17732,1.71
17744,1.86
17756,1.88
17768,1.75
17780,1.49
17792,1.14
17804,0.76
17816,0.4
17828,0.09
17840,-0.18
17851,-0.41
17862,-0.61
17874,-0.76
17886,-0.88
17898,-0.99
17910,-1.18
17922,-1.54
17934,-2.16
17946,-3.02
17958,-4.01
17970,-4.87
17982,-5.32
17994,-5.11
18006,-4.2
18018,-2.73
18030,-1.03
18041,0.53
18052,1.67
18064,2.33
18076,2.61
18088,2.7
18100,2.8
18112,2.97
18124,3.16
18136,3.26
18148,3.19
18160,2.98
18172,2.73
18184,2.58
18196,2.6
18208,2.75
18220,2.93
18231,3.04
18242,3.05
18254,2.97
18266,2.83
18278,2.64
18290,2.34
18302,1.9
18314,1.33
18326,0.73
18338,0.24
18350,-0.06
18362,-0.19
18374,-0.29
18386,-0.55
18398,-1.06
18410,-1.82
18421,-2.71
18432,-3.57
18444,-4.27
18456,-4.72
18468,-4.88
18480,-4.71
18492,-4.21
18504,-3.42
18516,-2.41
18528,-1.33
18540,-0.33
18552,0.46
18564,1.0
18576,1.32
18588,1.52
18600,1.7
18611,1.96
18622,2.32
18634,2.75
18646,3.14
18658,3.36
18670,3.36
18682,3.17
18694,2.91
18706,2.73
18718,2.68
18730,2.71
18742,2.71
18754,2.52
18766,2.1
18778,1.52
18790,0.92
18801,0.43
18812,0.13
18824,-0.01
18836,-0.07
18848,-0.17
18860,-0.41
18872,-0.84
18884,-1.49
18896,-2.31
18908,-3.19
18920,-3.98
18932,-4.51
18944,-4.63
18956,-4.24
18968,-3.36
18980,-2.13
18991,-0.76
19002,0.48
19014,1.41
19026,1.94
19038,2.16
19050,2.26
19062,2.42
19074,2.77
19086,3.27
19098,3.8
19110,4.22
19122,4.44
19134,4.46
19146,4.34
19158,4.14
19170,3.92
19181,3.67
19192,3.39
19204,3.06
19216,2.7
19228,2.28
19240,1.8
19252,1.24
19264,0.65
19276,0.11
19288,-0.28
19300,-0.5
19312,-0.63
19324,-0.81
19336,-1.19
19348,-1.84
19360,-2.74
19371,-3.74
19382,-4.69
19394,-5.42
19406,-5.8
19418,-5.72
19430,-5.12
19442,-4.0
19454,-2.5
19466,-0.87
19478,0.61
19490,1.71
19502,2.38
19514,2.74
19526,2.97
19538,3.24
19550,3.54
19561,3.76
19572,3.79
19584,3.58
19596,3.23
19608,2.9
19620,2.75
19632,2.84
19644,3.06
19656,3.27
19668,3.3
19680,3.08
19692,2.61
19704,1.96
19716,1.2
19728,0.4
19740,-0.43
19751,-1.22
19762,-1.91
19774,-2.44
19786,-2.78
19798,-2.99
19810,-3.2
19822,-3.51
19834,-3.97
19846,-4.49
19858,-4.9
19870,-5.0
19882,-4.65
19894,-3.88
19906,-2.81
19918,-1.64
19930,-0.5
19941,0.55
19952,1.5
19964,2.4
19976,3.23
19988,3.93
20000,4.41
20012,4.61
20024,4.54
20036,4.3
20048,4.0
20060,3.74
20072,3.6
20084,3.55
20096,3.54
20108,3.53
20120,3.46
20131,3.25
20142,2.91
20154,2.43
20166,1.84
20178,1.24
20190,0.68
20202,0.23
20214,-0.12
20226,-0.44
20238,-0.82
20250,-1.32
20262,-1.92
20274,-2.56
20286,-3.17
20298,-3.7
20310,-4.17
20321,-4.56
20332,-4.82
20344,-4.87
20356,-4.59
20368,-3.97
20380,-3.03
20392,-1.9
20404,-0.71
20416,0.46
20428,1.53
20440,2.47
20452,3.26
20464,3.87
20476,4.31
20488,4.6
20500,4.77
20511,4.89
20522,5.01
20534,5.12
20546,5.2
20558,5.23
20570,5.14
20582,4.92
20594,4.59
20606,4.24
20618,3.99
20630,3.96
20642,4.21
20654,4.63
20666,5.06
20678,5.26
20690,5.08
20701,4.51
20712,3.71
20724,2.93
20736,2.37
20748,2.13
20760,2.14
20772,2.25
20784,2.27
20796,2.06
20808,1.58
20820,0.89
20832,0.07
20844,-0.81
20856,-1.75
20868,-2.76
20880,-3.89
20891,-5.17
20902,-6.63
20914,-8.3
20926,-10.19
20938,-12.24
20950,-14.23
20962,-15.78
20974,-16.52
20986,-16.24
20998,-15.04
