seconds,BVP
10,45.38
21,47.77
32,51.46
44,56.25
56,61.46
68,66.11
80,69.23
92,70.19
104,68.91
116,65.78
128,61.4
140,56.28
152,50.72
164,44.81
176,38.6
188,32.25
200,26.0
211,20.14
222,14.83
234,10.09
246,5.87
258,2.04
270,-1.54
282,-4.98
294,-8.38
306,-11.8
318,-15.12
330,-18.06
342,-20.23
354,-21.27
366,-21.08
378,-19.84
390,-18.06
401,-16.35
412,-15.2
424,-14.85
436,-15.24
448,-16.13
460,-17.25
472,-18.42
484,-19.57
496,-20.69
508,-21.75
520,-22.64
532,-23.17
544,-23.16
556,-22.51
568,-21.25
580,-19.62
591,-17.92
602,-16.46
614,-15.44
626,-14.91
638,-14.78
650,-14.92
662,-15.31
674,-16.03
686,-17.28
698,-19.34
710,-22.37
722,-26.37
734,-31.09
746,-36.05
758,-40.75
770,-44.69
781,-47.64
792,-49.71
804,-51.26
816,-52.9
828,-55.15
840,-58.34
852,-62.42
864,-66.96
876,-71.39
888,-75.18
900,-78.1
912,-80.33
924,-82.38
936,-84.94
948,-88.64
960,-93.88
971,-100.72
982,-108.81
994,-117.4
1006,-125.43
1018,-131.74
1030,-135.26
1042,-135.36
1054,-131.94
1066,-125.49
1078,-116.86
1090,-106.94
1102,-96.35
1114,-85.33
1126,-73.85
1138,-61.79
1150,-49.18
1161,-36.16
1172,-22.91
1184,-9.39
1196,4.67
1208,19.69
1220,35.92
1232,53.25
1244,71.11
1256,88.65
1268,104.96
1280,119.28
1292,131.05
1304,139.78
1316,145.09
1328,146.68
1340,144.62
1351,139.49
1362,132.35
1374,124.59
1386,117.44
1398,111.77
1410,107.97
1422,106.12
1434,106.14
1446,107.91
1458,111.09
1470,114.98
1482,118.47
1494,120.34
1506,119.63
1518,116.03
1530,109.87
1541,101.85
1552,92.64
1564,82.53
1576,71.47
1588,59.34
1600,46.27
1612,32.68
1624,19.04
1636,5.66
1648,-7.55
1660,-20.85
1672,-34.31
1684,-47.45
1696,-59.19
1708,-68.18
1720,-73.4
1731,-74.67
1742,-72.79
1754,-69.29
1766,-65.83
1778,-63.73
1790,-63.57
1802,-65.32
1814,-68.49
1826,-72.46
1838,-76.68
1850,-80.81
1862,-84.66
1874,-88.16
1886,-91.12
1898,-93.19
1910,-93.84
1921,-92.47
1932,-88.59
1944,-82.12
1956,-73.6
1968,-64.13
1980,-55.08
1992,-47.75
2004,-42.9
2016,-40.61
2028,-40.03
2040,-39.47
2052,-36.75
2064,-29.81
2076,-17.43
2088,0.24
2100,21.47
2111,43.34
2122,62.31
2134,75.44
2146,81.26
2158,79.89
2170,72.57
2182,61.01
2194,46.92
2206,31.82
2218,17.17
2230,4.2
2242,-5.47
2254,-10.06
2266,-8.36
2278,-0.63
2290,11.14
2301,23.81
2312,34.09
2324,39.52
2336,38.41
2348,30.84
2360,18.48
2372,3.79
2384,-10.95
2396,-24.21
2408,-35.13
2420,-43.36
2432,-48.98
2444,-53.3
2456,-57.38
2468,-61.35
2480,-64.38
2491,-65.24
2502,-62.83
2514,-56.28
2526,-45.26
2538,-25.28
2550,2.97
2562,33.42
2574,58.03
2586,72.11
2598,75.85
2610,72.39
2622,65.82
2634,58.66
2646,52.08
2658,45.5
2670,38.28
2681,30.26
2692,21.7
2704,13.29
2716,5.06
2728,-3.11
2740,-11.26
2752,-19.3
2764,-27.71
2776,-36.69
2788,-45.74
2800,-53.76
2812,-59.52
2824,-62.16
2836,-61.36
2848,-57.53
2860,-51.64
2871,-45.42
2882,-40.18
2894,-36.31
2906,-33.31
2918,-30.53
2930,-27.73
2942,-25.18
2954,-23.31
2966,-22.24
2978,-21.6
2990,-20.31
3002,-16.94
3014,-10.45
3026,-0.86
3038,10.63
3050,22.15
3061,32.0
3072,39.17
3084,43.53
3096,45.6
3108,46.27
3120,46.27
3132,46.07
3144,45.8
3156,45.45
3168,45.05
3180,44.7
3192,44.61
3204,44.94
3216,45.77
3228,46.99
3240,48.33
3251,49.44
3262,50.08
3274,50.32
3286,50.6
3298,51.66
3310,54.28
3322,58.91
3334,65.38
3346,72.82
3358,79.93
3370,85.31
3382,87.88
3394,87.09
3406,82.97
3418,75.91
3430,66.45
3441,55.11
3452,42.38
3464,28.7
3476,14.67
3488,1.12
3500,-10.98
3512,-20.66
3524,-27.26
3536,-30.77
3548,-31.83
3560,-31.59
3572,-31.17
3584,-31.23
3596,-31.83
3608,-32.56
3620,-32.95
3631,-32.87
3642,-32.57
3654,-32.5
3666,-32.91
3678,-33.6
3690,-34.02
3702,-33.5
3714,-31.53
3726,-27.97
3738,-22.9
3750,-16.61
3762,-9.44
3774,-1.95
3786,4.98
3798,10.18
3810,12.44
3821,11.07
3832,6.35
3844,-0.15
3856,-5.93
3868,-8.32
3880,-5.52
3892,2.65
3904,14.57
3916,27.4
3928,38.18
3940,44.83
3952,46.64
3964,44.16
3976,38.59
3988,31.17
4000,22.88
4011,14.48
4022,6.67
4034,0.18
4046,-4.38
4058,-6.85
4070,-7.63
4082,-7.64
4094,-7.91
4106,-9.19
4118,-11.62
4130,-14.83
4142,-18.22
4154,-21.37
4166,-24.23
4178,-27.16
4190,-30.71
4201,-35.27
4212,-40.85
4224,-46.98
4236,-52.93
4248,-58.05
4260,-62.07
4272,-65.18
4284,-67.9
4296,-70.77
4308,-74.06
4320,-77.63
4332,-80.88
4344,-83.07
4356,-83.58
4368,-82.15
4380,-78.87
4391,-74.14
4402,-68.68
4414,-63.29
4426,-58.73
4438,-55.27
4450,-52.56
4462,-49.66
4474,-45.35
4486,-38.47
4498,-28.59
4510,-16.33
4522,-3.3
4534,8.53
4546,17.7
4558,23.77
4570,27.25
4581,29.14
4592,30.69
4604,32.69
4616,35.32
4628,38.25
4640,41.16
4652,44.19
4664,47.79
4676,52.26
4688,57.19
4700,61.83
4712,65.2
4724,66.51
4736,65.48
4748,61.46
4760,54.73
4771,46.54
4782,39.5
4794,34.08
4806,29.87
4818,26.08
4830,22.44
4842,18.92
4854,15.53
4866,12.42
4878,9.64
4890,7.08
4902,4.41
4914,1.59
4926,-1.32
4938,-4.27
4950,-7.32
4961,-10.62
4972,-14.14
4984,-17.8
4996,-21.48
5008,-25.1
5020,-28.2
5032,-30.05
5044,-29.85
5056,-27.03
5068,-21.47
5080,-13.51
5092,-4.0
5104,5.91
5116,14.96
5128,22.27
5140,27.39
5151,30.23
5162,30.91
5174,29.63
5186,26.68
5198,22.35
5210,17.0
5222,11.16
5234,5.57
5246,0.94
5258,-2.19
5270,-3.73
5282,-4.01
5294,-3.61
5306,-3.14
5318,-2.99
5330,-3.2
5341,-3.61
5352,-4.07
5364,-4.4
5376,-4.27
5388,-2.97
5400,0.39
5412,6.45
5424,15.15
5436,25.57
5448,35.96
5460,44.37
5472,49.27
5484,50.18
5496,47.73
5508,43.33
5520,38.35
5531,34.01
5542,31.17
5554,30.34
5566,31.65
5578,34.96
5590,40.0
5602,46.39
5614,53.61
5626,60.61
5638,64.95
5650,64.46
5662,58.46
5674,48.5
5686,37.43
5698,28.02
5710,22.11
5721,20.38
5732,21.2
5744,23.15
5756,25.09
5768,26.21
5780,26.0
5792,24.1
5804,20.15
5816,13.48
5828,5.05
5840,-4.77
5852,-15.28
5864,-25.51
5876,-34.51
5888,-41.71
5900,-47.15
5911,-51.33
5922,-54.79
5934,-57.69
5946,-59.93
5958,-61.0
5970,-60.46
5982,-58.33
5994,-55.18
6006,-51.78
6018,-48.74
6030,-46.08
6042,-43.4
6054,-40.4
6066,-37.06
6078,-34.01
6090,-32.42
6101,-33.72
6112,-39.03
6124,-48.51
6136,-60.98
6148,-73.86
6160,-83.78
6172,-87.3
6184,-82.03
6196,-67.27
6208,-44.21
6220,-15.46
6232,15.77
6244,46.38
6256,73.74
6268,95.68
6280,110.49
6291,116.89
6302,114.28
6314,103.01
6326,84.4
6338,60.38
6350,32.92
6362,3.48
6374,-27.12
6386,-58.4
6398,-89.86
6410,-120.7
6422,-149.99
6434,-177.08
6446,-202.07
6458,-225.71
6470,-248.94
6481,-272.12
6492,-294.45
6504,-314.04
6516,-328.54
6528,-335.97
6540,-335.26
6552,-326.24
6564,-309.16
6576,-284.22
6588,-251.46
6600,-211.22
6612,-164.81
6624,-114.85
6636,-65.0
6648,-18.97
6660,20.58
6671,52.86
6682,78.85
6694,100.65
6706,120.29
6718,138.94
6730,156.62
6742,172.52
6754,185.64
6766,195.32
6778,201.51
6790,204.62
6802,205.38
6814,204.58
6826,203.0
6838,201.31
6850,199.94
6861,198.87
6872,197.52
6884,194.86
6896,189.74
6908,181.37
6920,169.68
6932,155.33
6944,139.46
6956,123.39
6968,108.26
6980,94.96
6992,84.14
7004,76.24
7016,71.53
7028,69.98
7040,71.15
7051,74.19
7062,77.92
7074,81.12
7086,82.7
7098,81.92
7110,78.4
7122,72.16
7134,63.48
7146,52.91
7158,41.25
7170,29.49
7182,18.73
7194,9.98
7206,3.93
7218,0.7
7230,-0.16
7241,0.45
7252,1.48
7264,2.12
7276,1.99
7288,1.19
7300,0.13
7312,-0.7
7324,-1.0
7336,-0.75
7348,-0.19
7360,0.34
7372,0.51
7384,0.11
7396,-0.92
7408,-2.58
7420,-4.84
7431,-7.67
7442,-11.03
7454,-14.85
7466,-19.04
7478,-23.52
7490,-28.24
7502,-33.19
7514,-38.36
7526,-43.7
7538,-49.09
7550,-54.34
7562,-59.19
7574,-63.34
7586,-66.52
7598,-68.55
7610,-69.39
7621,-69.21
7632,-68.32
7644,-67.12
7656,-65.96
7668,-65.12
7680,-64.76
7692,-64.98
7704,-65.7
7716,-66.75
7728,-67.75
7740,-68.22
7752,-67.76
7764,-66.22
7776,-63.78
7788,-60.95
7800,-58.35
7811,-56.46
7822,-55.47
7834,-55.23
7846,-55.32
7858,-55.19
7870,-54.2
7882,-51.72
7894,-47.19
7906,-40.31
7918,-31.17
7930,-20.24
7942,-8.29
7954,3.77
7966,15.13
7978,25.15
7990,33.41
8001,39.67
8012,43.98
8024,46.69
8036,48.55
8048,50.58
8060,53.91
8072,59.44
8084,67.62
8096,78.23
8108,90.46
8120,102.97
8132,114.15
8144,122.43
8156,126.59
8168,126.0
8180,120.76
8191,111.61
8202,99.72
8214,86.41
8226,72.79
8238,59.71
8250,47.62
8262,36.67
8274,26.81
8286,17.88
8298,9.67
8310,2.05
8322,-5.05
8334,-11.59
8346,-17.47
8358,-22.6
8370,-26.95
8381,-30.56
8392,-33.58
8404,-36.24
8416,-38.76
8428,-41.35
8440,-44.12
8452,-47.07
8464,-50.01
8476,-52.69
8488,-54.83
8500,-56.22
8512,-56.82
8524,-56.83
8536,-56.61
8548,-56.52
8560,-56.72
8571,-57.01
8582,-56.86
8594,-55.55
8606,-52.44
8618,-47.23
8630,-40.06
8642,-31.44
8654,-22.06
8666,-12.66
8678,-3.81
8690,4.03
8702,10.62
8714,15.83
8726,19.68
8738,22.29
8750,23.84
8761,24.56
8772,24.64
8784,24.25
8796,23.52
8808,22.59
8820,21.62
8832,20.74
8844,20.02
8856,19.47
8868,19.04
8880,18.72
8892,18.5
8904,18.4
8916,18.39
8928,18.37
8940,18.16
8951,17.59
8962,16.57
8974,15.12
8986,13.41
8998,11.65
9010,10.0
9022,8.52
9034,7.14
9046,5.68
9058,3.97
9070,1.94
9082,-0.4
9094,-2.85
9106,-5.19
9118,-7.23
9130,-8.89
9141,-10.26
9152,-11.55
9164,-12.99
9176,-14.78
9188,-16.95
9200,-19.38
9212,-21.71
9224,-23.47
9236,-24.11
9248,-23.13
9260,-20.22
9272,-15.4
9284,-9.04
9296,-1.82
9308,5.53
9320,12.3
9331,18.02
9342,22.48
9354,25.67
9366,27.67
9378,28.6
9390,28.5
9402,27.43
9414,25.5
9426,22.91
9438,19.99
9450,17.13
9462,14.72
9474,13.01
9486,12.04
9498,11.62
9510,11.42
9521,11.18
9532,10.76
9544,10.25
9556,9.87
9568,9.81
9580,10.11
9592,10.57
9604,10.87
9616,10.69
9628,9.88
9640,8.54
9652,6.98
9664,5.55
9676,4.46
9688,3.73
9700,3.15
9711,2.47
9722,1.5
9734,0.23
9746,-1.2
9758,-2.57
9770,-3.72
9782,-4.63
9794,-5.41
9806,-6.19
9818,-7.14
9830,-8.31
9842,-9.77
9854,-11.53
9866,-13.57
9878,-15.77
9890,-17.79
9901,-19.13
9912,-19.19
9924,-17.56
9936,-14.16
9948,-9.37
9960,-3.84
9972,1.69
9984,6.68
9996,10.88
10008,14.33
10020,17.14
10032,19.4
10044,21.04
10056,21.96
10068,22.15
10080,21.8
10091,21.28
10102,21.01
10114,21.26
10126,22.03
10138,23.1
10150,24.15
10162,24.94
10174,25.37
10186,25.48
10198,25.37
10210,25.14
10222,24.84
10234,24.42
10246,23.77
10258,22.72
10270,21.02
10281,18.49
10292,15.11
10304,11.02
10316,6.6
10328,2.21
10340,-1.82
10352,-5.39
10364,-8.55
10376,-11.37
10388,-13.84
10400,-15.82
10412,-17.15
10424,-17.73
10436,-17.69
10448,-17.36
10460,-17.08
10471,-17.2
10482,-17.92
10494,-19.34
10506,-21.51
10518,-24.49
10530,-28.22
10542,-32.39
10554,-36.42
10566,-39.47
10578,-40.76
10590,-39.85
10602,-36.87
10614,-32.48
10626,-27.65
10638,-23.31
10650,-20.12
10661,-18.4
10672,-18.21
10684,-19.51
10696,-22.18
10708,-26.07
10720,-30.81
10732,-35.86
10744,-40.52
10756,-44.1
10768,-46.11
10780,-46.39
10792,-45.12
10804,-42.79
10816,-39.96
10828,-37.13
10840,-34.55
10851,-32.08
10862,-29.31
10874,-25.68
10886,-20.8
10898,-14.72
10910,-8.02
10922,-1.68
10934,3.28
10946,6.19
10958,7.03
10970,6.39
10982,5.2
10994,4.31
11006,4.2
11018,4.88
11030,6.06
11041,7.52
11052,9.23
11064,11.46
11076,14.54
11088,18.58
11100,23.32
11112,28.17
11124,32.43
11136,35.65
11148,37.82
11160,39.44
11172,41.29
11184,44.07
11196,48.15
11208,53.42
11220,59.35
11231,65.32
11242,70.84
11254,75.72
11266,79.99
11278,83.75
11290,86.95
11302,89.36
11314,90.68
11326,90.72
11338,89.54
11350,87.5
11362,85.06
11374,82.57
11386,80.12
11398,77.55
11410,74.59
11421,71.03
11432,66.78
11444,61.97
11456,56.79
11468,51.46
11480,46.12
11492,40.82
11504,35.51
11516,30.09
11528,24.41
11540,18.44
11552,12.22
11564,5.93
11576,-0.19
11588,-5.96
11600,-11.32
11611,-16.38
11622,-21.35
11634,-26.41
11646,-31.59
11658,-36.75
11670,-41.61
11682,-45.92
11694,-49.56
11706,-52.61
11718,-55.39
11730,-58.31
11742,-61.73
11754,-65.84
11766,-70.59
11778,-75.66
11790,-80.41
11801,-84.01
11812,-85.55
11824,-84.36
11836,-80.18
11848,-73.33
11860,-64.65
11872,-55.21
11884,-46.05
11896,-37.89
11908,-31.03
11920,-25.51
11932,-21.24
11944,-18.15
11956,-16.18
11968,-15.21
11980,-14.98
11991,-15.12
12002,-15.25
12014,-15.13
12026,-14.65
12038,-13.87
12050,-12.9
12062,-11.8
12074,-10.59
12086,-9.24
12098,-7.76
12110,-6.22
12122,-4.76
12134,-3.56
12146,-2.72
12158,-2.3
12170,-2.26
12181,-2.53
12192,-2.97
12204,-3.48
12216,-3.96
12228,-4.36
12240,-4.69
12252,-5.06
12264,-5.6
12276,-6.44
12288,-7.65
12300,-9.17
12312,-10.83
12324,-12.4
12336,-13.72
12348,-14.74
12360,-15.56
12371,-16.34
12382,-17.3
12394,-18.65
12406,-20.58
12418,-23.17
12430,-26.32
12442,-29.64
12454,-32.44
12466,-33.91
12478,-33.29
12490,-30.21
12502,-24.82
12514,-17.79
12526,-10.03
12538,-2.49
12550,4.15
12561,9.5
12572,13.46
12584,16.03
12596,17.29
12608,17.32
12620,16.3
12632,14.49
12644,12.29
12656,10.13
12668,8.41
12680,7.42
12692,7.2
12704,7.61
12716,8.32
12728,8.97
12740,9.3
12751,9.25
12762,8.95
12774,8.65
12786,8.51
12798,8.51
12810,8.47
12822,8.09
12834,7.2
12846,5.83
12858,4.22
12870,2.65
12882,1.27
12894,-0.01
12906,-1.42
12918,-3.23
12930,-5.49
12941,-8.04
12952,-10.58
12964,-12.77
12976,-14.41
12988,-15.48
13000,-16.14
13012,-16.6
13024,-17.09
13036,-17.8
13048,-18.88
13060,-20.46
13072,-22.56
13084,-24.97
13096,-27.19
13108,-28.48
13120,-28.02
13131,-25.28
13142,-20.2
13154,-13.29
13166,-5.54
13178,2.0
13190,8.42
13202,13.26
13214,16.42
13226,18.12
13238,18.63
13250,18.24
13262,17.17
13274,15.62
13286,13.83
13298,12.06
13310,10.61
13321,9.73
13332,9.56
13344,10.11
13356,11.2
13368,12.58
13380,13.94
13392,15.04
13404,15.74
13416,16.01
13428,15.9
13440,15.45
13452,14.73
13464,13.77
13476,12.61
13488,11.27
13500,9.82
13511,8.29
13522,6.72
13534,5.13
13546,3.45
13558,1.63
13570,-0.42
13582,-2.72
13594,-5.18
13606,-7.69
13618,-10.08
13630,-12.27
13642,-14.32
13654,-16.44
13666,-18.85
13678,-21.76
13690,-25.14
13701,-28.7
13712,-31.82
13724,-33.71
13736,-33.64
13748,-31.12
13760,-26.15
13772,-19.21
13784,-11.18
13796,-3.05
13808,4.3
13820,10.36
13832,14.95
13844,18.18
13856,20.26
13868,21.37
13880,21.61
13891,21.05
13902,19.85
13914,18.27
13926,16.65
13938,15.33
13950,14.49
13962,14.13
13974,14.14
13986,14.35
13998,14.71
14010,15.24
14022,15.99
14034,16.91
14046,17.77
14058,18.27
14070,18.1
14081,17.13
14092,15.5
14104,13.47
14116,11.38
14128,9.48
14140,7.87
14152,6.46
14164,5.14
14176,3.77
14188,2.32
14200,0.85
14212,-0.55
14224,-1.79
14236,-2.88
14248,-3.93
14260,-5.15
14271,-6.8
14282,-9.09
14294,-12.14
14306,-15.89
14318,-20.15
14330,-24.53
14342,-28.42
14354,-31.13
14366,-31.94
14378,-30.37
14390,-26.31
14402,-20.11
14414,-12.56
14426,-4.66
14438,2.65
14450,8.75
14461,13.39
14472,16.68
14484,18.89
14496,20.27
14508,20.97
14520,21.06
14532,20.6
14544,19.72
14556,18.67
14568,17.67
14580,16.9
14592,16.43
14604,16.21
14616,16.14
14628,16.16
14640,16.27
14651,16.48
14662,16.79
14674,17.13
14686,17.34
14698,17.23
14710,16.6
14722,15.37
14734,13.57
14746,11.4
14758,9.14
14770,7.03
14782,5.22
14794,3.7
14806,2.29
14818,0.8
14830,-0.93
14841,-2.9
14852,-5.04
14864,-7.23
14876,-9.33
14888,-11.26
14900,-12.98
14912,-14.52
14924,-15.98
14936,-17.57
14948,-19.58
14960,-22.18
14972,-25.36
14984,-28.68
14996,-31.37
15008,-32.47
15020,-31.19
15031,-27.22
15042,-20.85
15054,-12.95
15066,-4.61
15078,3.23
15090,10.01
15102,15.68
15114,20.47
15126,24.66
15138,28.34
15150,31.4
15162,33.59
15174,34.71
15186,34.76
15198,33.96
15210,32.61
15221,31.0
15232,29.28
15244,27.5
15256,25.65
15268,23.77
15280,21.94
15292,20.24
15304,18.7
15316,17.28
15328,15.83
15340,14.21
15352,12.32
15364,10.16
15376,7.76
15388,5.2
15400,2.56
15411,-0.09
15422,-2.64
15434,-4.95
15446,-6.89
15458,-8.37
15470,-9.39
15482,-10.01
15494,-10.35
15506,-10.53
15518,-10.68
15530,-10.93
15542,-11.42
15554,-12.22
15566,-13.27
15578,-14.25
15590,-14.68
15601,-14.14
15612,-12.46
15624,-9.95
15636,-7.26
15648,-5.16
15660,-4.18
15672,-4.43
15684,-5.65
15696,-7.48
15708,-9.74
15720,-12.46
15732,-15.76
15744,-19.5
15756,-23.15
15768,-25.81
15780,-26.51
15791,-24.6
15802,-19.93
15814,-12.94
15826,-4.41
15838,4.76
15850,13.74
15862,22.02
15874,29.38
15886,36.02
15898,42.47
15910,49.47
15922,57.7
15934,67.56
15946,78.87
15958,90.86
15970,102.26
15981,111.54
15992,117.32
16004,118.7
16016,115.38
16028,107.75
16040,96.69
16052,83.25
16064,68.44
16076,53.08
16088,37.74
16100,22.88
16112,8.92
16124,-3.77
16136,-14.94
16148,-24.55
16160,-32.74
16171,-39.75
16182,-45.74
16194,-50.78
16206,-54.84
16218,-57.96
16230,-60.35
16242,-62.43
16254,-64.69
16266,-67.48
16278,-70.83
16290,-74.32
16302,-77.19
16314,-78.52
16326,-77.57
16338,-74.01
16350,-68.19
16361,-60.94
16372,-53.41
16384,-46.68
16396,-41.48
16408,-38.09
16420,-36.41
16432,-36.14
16444,-36.96
16456,-38.59
16468,-40.78
16480,-43.22
16492,-45.54
16504,-47.3
16516,-48.1
16528,-47.61
16540,-45.71
16551,-42.43
16562,-37.99
16574,-32.75
16586,-27.11
16598,-21.44
16610,-16.04
16622,-11.08
16634,-6.7
16646,-2.99
16658,-0.04
16670,2.11
16682,3.51
16694,4.29
16706,4.63
16718,4.71
16730,4.57
16741,4.15
16752,3.25
16764,1.72
16776,-0.56
16788,-3.51
16800,-6.9
16812,-10.32
16824,-13.35
16836,-15.63
16848,-17.11
16860,-18.0
16872,-18.83
16884,-20.15
16896,-22.35
16908,-25.36
16920,-28.61
16931,-31.18
16942,-32.11
16954,-30.76
16966,-26.99
16978,-21.23
16990,-14.24
17002,-6.84
17014,0.26
17026,6.62
17038,11.98
17050,16.21
17062,19.25
17074,21.08
17086,21.83
17098,21.79
17110,21.31
17121,20.74
17132,20.29
17144,20.01
17156,19.81
17168,19.59
17180,19.31
17192,19.04
17204,18.88
17216,18.91
17228,19.12
17240,19.39
17252,19.56
17264,19.48
17276,19.07
17288,18.32
17300,17.28
17311,16.02
17322,14.59
17334,13.01
17346,11.29
17358,9.42
17370,7.41
17382,5.25
17394,3.0
17406,0.71
17418,-1.56
17430,-3.71
17442,-5.74
17454,-7.65
17466,-9.52
17478,-11.46
17490,-13.65
17501,-16.25
17512,-19.3
17524,-22.66
17536,-25.88
17548,-28.29
17560,-29.09
17572,-27.66
17584,-23.83
17596,-17.91
17608,-10.71
17620,-3.22
17632,3.63
17644,9.25
17656,13.41
17668,16.16
17680,17.67
17691,18.18
17702,17.91
17714,17.05
17726,15.84
17738,14.51
17750,13.26
17762,12.25
17774,11.56
17786,11.24
17798,11.24
17810,11.47
17822,11.82
17834,12.16
17846,12.39
17858,12.47
17870,12.39
17881,12.12
17892,11.67
17904,11.0
17916,10.1
17928,8.97
17940,7.61
17952,6.02
17964,4.2
17976,2.16
17988,-0.04
18000,-2.25
18012,-4.3
18024,-6.02
18036,-7.41
18048,-8.59
18060,-9.8
18071,-11.32
18082,-13.35
18094,-15.92
18106,-18.86
18118,-21.83
18130,-24.3
18142,-25.71
18154,-25.53
18166,-23.45
18178,-19.45
18190,-13.91
18202,-7.48
18214,-0.94
18226,5.0
18238,9.85
18250,13.39
18261,15.67
18272,16.87
18284,17.21
18296,16.88
18308,16.01
18320,14.76
18332,13.27
18344,11.78
18356,10.54
18368,9.74
18380,9.45
18392,9.6
18404,10.0
18416,10.44
18428,10.74
18440,10.86
18451,10.8
18462,10.62
18474,10.32
18486,9.87
18498,9.22
18510,8.31
18522,7.12
18534,5.67
18546,4.03
18558,2.26
18570,0.4
18582,-1.48
18594,-3.3
18606,-5.02
18618,-6.59
18630,-8.0
18641,-9.3
18652,-10.6
18664,-12.07
18676,-13.91
18688,-16.26
18700,-19.05
18712,-21.96
18724,-24.37
18736,-25.57
18748,-24.89
18760,-22.03
18772,-17.16
18784,-10.87
18796,-4.06
18808,2.43
18820,7.98
18831,12.27
18842,15.33
18854,17.29
18866,18.33
18878,18.58
18890,18.13
18902,17.08
18914,15.62
18926,13.98
18938,12.46
18950,11.31
18962,10.68
18974,10.52
18986,10.68
18998,10.98
19010,11.3
19021,11.6
19032,11.91
19044,12.25
19056,12.52
19068,12.57
19080,12.18
19092,11.27
19104,9.89
19116,8.26
19128,6.66
19140,5.3
19152,4.26
19164,3.44
19176,2.63
19188,1.66
19200,0.43
19211,-1.0
19222,-2.5
19234,-3.9
19246,-5.09
19258,-6.07
19270,-6.96
19282,-7.92
19294,-9.11
19306,-10.64
19318,-12.5
19330,-14.55
19342,-16.53
19354,-18.01
19366,-18.56
19378,-17.77
19390,-15.41
19401,-11.56
19412,-6.54
19424,-0.94
19436,4.6
19448,9.49
19460,13.34
19472,15.93
19484,17.26
19496,17.47
19508,16.85
19520,15.72
19532,14.43
19544,13.23
19556,12.26
19568,11.58
19580,11.2
19591,11.17
19602,11.54
19614,12.34
19626,13.49
19638,14.79
19650,16.02
19662,16.96
19674,17.57
19686,17.88
19698,18.07
19710,18.25
19722,18.52
19734,18.86
19746,19.26
19758,19.72
19770,20.2
19781,20.67
19792,20.99
19804,20.97
19816,20.4
19828,19.17
19840,17.32
19852,15.05
19864,12.65
19876,10.35
19888,8.21
19900,6.12
19912,3.84
19924,1.13
19936,-2.14
19948,-5.86
19960,-9.61
19971,-12.78
19982,-14.59
19994,-14.4
20006,-11.83
20018,-6.97
20030,-0.39
20042,7.05
20054,14.37
20066,20.76
20078,25.7
20090,28.9
20102,30.28
20114,29.88
20126,27.86
20138,24.56
20150,20.5
20161,16.33
20172,12.59
20184,9.69
20196,7.75
20208,6.68
20220,6.25
20232,6.24
20244,6.43
20256,6.67
20268,6.83
20280,6.76
20292,6.32
20304,5.39
20316,3.94
20328,2.02
20340,-0.2
20351,-2.49
20362,-4.61
20374,-6.39
20386,-7.81
20398,-8.99
20410,-10.14
20422,-11.45
20434,-13.04
20446,-14.89
20458,-16.9
20470,-18.91
20482,-20.83
20494,-22.65
20506,-24.41
20518,-26.26
20530,-28.28
20541,-30.5
20552,-32.79
20564,-34.83
20576,-36.13
20588,-36.18
20600,-34.61
20612,-31.29
20624,-26.44
20636,-20.52
20648,-14.12
20660,-7.84
20672,-2.12
20684,2.7
20696,6.42
20708,8.94
20720,10.26
20731,10.53
20742,10.01
20754,9.02
20766,7.84
20778,6.67
20790,5.59
20802,4.65
20814,3.9
20826,3.41
20838,3.25
20850,3.48
20862,4.04
20874,4.82
20886,5.63
20898,6.28
20910,6.6
20921,6.47
20932,5.84
20944,4.73
20956,3.2
20968,1.38
20980,-0.55
20992,-2.45
