seconds,BVP
2,-95.37
14,-95.07
26,-94.61
38,-93.78
50,-92.48
62,-90.73
74,-88.62
86,-86.25
97,-83.67
108,-80.87
120,-77.81
132,-74.58
144,-71.34
156,-68.38
168,-65.96
180,-64.18
192,-62.93
204,-61.93
216,-60.85
228,-59.46
240,-57.65
252,-55.45
264,-52.95
276,-50.29
287,-47.68
298,-45.45
310,-44.0
322,-43.69
334,-44.71
346,-47.02
358,-50.37
370,-54.46
382,-59.12
394,-64.35
406,-70.25
418,-76.84
430,-83.95
442,-91.21
454,-98.19
466,-104.52
477,-110.04
488,-114.72
500,-118.6
512,-121.65
524,-123.82
536,-125.14
548,-125.75
560,-125.99
572,-126.21
584,-126.68
596,-127.39
608,-128.04
620,-128.22
632,-127.57
644,-126.03
656,-123.78
667,-121.15
678,-118.42
690,-115.59
702,-112.36
714,-108.18
726,-102.5
738,-94.95
750,-85.49
762,-74.44
774,-62.34
786,-49.84
798,-37.48
810,-25.62
822,-14.46
834,-4.12
846,5.31
857,13.7
868,20.95
880,26.95
892,31.68
904,35.18
916,37.54
928,38.9
940,39.44
952,39.42
964,39.13
976,38.8
988,38.59
1000,38.49
1012,38.38
1024,38.12
1036,37.63
1047,36.91
1058,36.02
1070,35.01
1082,33.9
1094,32.66
1106,31.26
1118,29.7
1130,28.06
1142,26.42
1154,24.88
1166,23.49
1178,22.33
1190,21.54
1202,21.35
1214,22.05
1226,23.89
1237,26.97
1248,31.19
1260,36.23
1272,41.7
1284,47.17
1296,52.38
1308,57.18
1320,61.47
1332,65.18
1344,68.2
1356,70.44
1368,71.92
1380,72.81
1392,73.35
1404,73.82
1416,74.41
1427,75.12
1438,75.87
1450,76.53
1462,77.04
1474,77.5
1486,78.06
1498,78.92
1510,80.16
1522,81.72
1534,83.35
1546,84.76
1558,85.66
1570,86.0
1582,85.96
1594,85.93
1606,86.37
1617,87.61
1628,89.8
1640,92.78
1652,96.08
1664,98.96
1676,100.53
1688,99.94
1700,96.74
1712,91.07
1724,83.77
1736,76.2
1748,69.8
1760,65.63
1772,64.02
1784,64.57
1796,66.42
1807,68.67
1818,70.64
1830,72.02
1842,72.7
1854,72.67
1866,71.92
1878,70.49
1890,68.56
1902,66.52
1914,64.86
1926,63.99
1938,64.13
1950,65.23
1962,67.05
1974,69.38
1986,72.1
1997,75.2
2008,78.71
2020,82.52
2032,86.35
2044,89.8
2056,92.49
2068,94.2
2080,94.96
2092,94.99
2104,94.71
2116,94.56
2128,94.95
2140,96.16
2152,98.29
2164,101.29
2176,104.91
2187,108.79
2198,112.63
2210,116.16
2222,119.29
2234,121.97
2246,124.01
2258,125.03
2270,124.42
2282,121.51
2294,115.87
2306,107.44
2318,96.6
2330,84.0
2342,70.24
2354,55.72
2366,40.57
2377,24.84
2388,8.71
2400,-7.33
2412,-22.64
2424,-36.67
2436,-49.19
2448,-60.36
2460,-70.69
2472,-80.64
2484,-90.55
2496,-100.43
2508,-110.16
2520,-119.6
2532,-128.66
2544,-137.3
2556,-145.4
2567,-152.69
2578,-158.82
2590,-163.57
2602,-166.93
2614,-169.16
2626,-170.65
2638,-171.71
2650,-172.39
2662,-172.49
2674,-171.64
2686,-169.5
2698,-165.88
2710,-160.79
2722,-154.45
2734,-147.22
2746,-139.55
2757,-131.91
2768,-124.66
2780,-118.02
2792,-112.02
2804,-106.59
2816,-101.58
2828,-96.93
2840,-92.66
2852,-89.01
2864,-86.44
2876,-85.61
2888,-87.4
2900,-92.61
2912,-101.76
2924,-114.72
2936,-130.65
2947,-147.99
2958,-164.81
2970,-179.12
2982,-189.27
2994,-194.14
3006,-193.26
3018,-186.92
3030,-176.1
3042,-162.39
3054,-147.7
3066,-133.82
3078,-122.03
3090,-112.9
3102,-106.34
3114,-101.85
3126,-98.87
3137,-96.89
3148,-95.45
3160,-93.94
3172,-91.62
3184,-87.7
3196,-81.66
3208,-73.46
3220,-63.64
3232,-53.07
3244,-42.68
3256,-33.05
3268,-24.36
3280,-16.5
3292,-9.24
3304,-2.43
3316,3.96
3327,9.94
3338,15.49
3350,20.63
3362,25.31
3374,29.35
3386,32.44
3398,34.16
3410,34.12
3422,32.14
3434,28.27
3446,22.8
3458,16.14
3470,8.75
3482,0.98
3494,-6.86
3506,-14.59
3517,-22.09
3528,-29.23
3540,-35.87
3552,-41.84
3564,-47.04
3576,-51.45
3588,-55.22
3600,-58.58
3612,-61.72
3624,-64.69
3636,-67.25
3648,-68.9
3660,-69.12
3672,-67.51
3684,-64.03
3696,-58.98
3707,-52.91
3718,-46.34
3730,-39.56
3742,-32.56
3754,-25.05
3766,-16.68
3778,-7.25
3790,3.19
3802,14.3
3814,25.57
3826,36.49
3838,46.69
3850,56.01
3862,64.46
3874,72.18
3886,79.28
3897,85.77
3908,91.51
3920,96.27
3932,99.75
3944,101.73
3956,102.08
3968,100.73
3980,97.7
3992,93.04
4004,86.88
4016,79.5
4028,71.44
4040,63.39
4052,56.04
4064,49.92
4076,45.18
4087,41.61
4098,38.85
4110,36.59
4122,34.82
4134,33.77
4146,33.77
4158,35.01
4170,37.31
4182,40.22
4194,43.18
4206,45.73
4218,47.68
4230,49.08
4242,50.08
4254,50.74
4266,51.1
4277,51.11
4288,50.85
4300,50.56
4312,50.6
4324,51.32
4336,52.85
4348,55.05
4360,57.51
4372,59.72
4384,61.26
4396,61.96
4408,61.9
4420,61.29
4432,60.32
4444,59.1
4456,57.61
4467,55.75
4478,53.47
4490,50.77
4502,47.7
4514,44.3
4526,40.61
4538,36.62
4550,32.34
4562,27.91
4574,23.61
4586,19.91
4598,17.29
4610,16.2
4622,16.85
4634,19.13
4646,22.61
4657,26.68
4668,30.75
4680,34.41
4692,37.5
4704,40.1
4716,42.4
4728,44.55
4740,46.6
4752,48.56
4764,50.44
4776,52.34
4788,54.38
4800,56.65
4812,59.16
4824,61.75
4836,64.22
4847,66.38
4858,68.16
4870,69.62
4882,70.9
4894,72.16
4906,73.46
4918,74.77
4930,76.0
4942,77.06
4954,77.92
4966,78.6
4978,79.21
4990,79.89
5002,80.86
5014,82.29
5026,84.31
5037,86.88
5048,89.79
5060,92.72
5072,95.29
5084,97.28
5096,98.63
5108,99.49
5120,100.14
5132,100.89
5144,102.0
5156,103.63
5168,105.8
5180,108.37
5192,110.97
5204,113.12
5216,114.3
5227,114.05
5238,112.12
5250,108.41
5262,102.99
5274,95.98
5286,87.51
5298,77.74
5310,66.86
5322,55.09
5334,42.69
5346,29.9
5358,16.92
5370,3.88
5382,-9.05
5394,-21.69
5406,-33.8
5417,-45.15
5428,-55.61
5440,-65.2
5452,-74.11
5464,-82.64
5476,-91.05
5488,-99.49
5500,-107.88
5512,-115.91
5524,-123.11
5536,-129.01
5548,-133.19
5560,-135.51
5572,-136.06
5584,-135.2
5596,-133.4
5607,-131.19
5618,-128.94
5630,-126.79
5642,-124.61
5654,-121.99
5666,-118.48
5678,-113.77
5690,-107.92
5702,-101.32
5714,-94.63
5726,-88.48
5738,-83.36
5750,-79.52
5762,-77.02
5774,-75.83
5786,-75.91
5797,-77.18
5808,-79.52
5820,-82.73
5832,-86.52
5844,-90.53
5856,-94.29
5868,-97.24
5880,-98.7
5892,-97.93
5904,-94.28
5916,-87.31
5928,-76.97
5940,-63.68
5952,-48.28
5964,-31.87
5976,-15.64
5987,-0.62
5998,12.52
6010,23.48
6022,32.31
6034,39.24
6046,44.54
6058,48.47
6070,51.26
6082,53.15
6094,54.27
6106,54.64
6118,54.09
6130,52.38
6142,49.34
6154,45.05
6166,39.76
6177,33.88
6188,27.71
6200,21.47
6212,15.29
6224,9.42
6236,4.23
6248,0.09
6260,-2.76
6272,-4.49
6284,-5.56
6296,-6.59
6308,-8.05
6320,-10.07
6332,-12.49
6344,-15.04
6356,-17.63
6367,-20.35
6378,-23.48
6390,-27.22
6402,-31.55
6414,-36.16
6426,-40.51
6438,-43.99
6450,-46.06
6462,-46.34
6474,-44.68
6486,-41.11
6498,-35.86
6510,-29.26
6522,-21.75
6534,-13.77
6546,-5.7
6557,2.19
6568,9.87
6580,17.45
6592,25.19
6604,33.27
6616,41.59
6628,49.67
6640,56.62
6652,61.48
6664,63.49
6676,62.43
6688,58.7
6700,53.14
6712,46.69
6724,40.06
6736,33.61
6747,27.39
6758,21.3
6770,15.31
6782,9.45
6794,3.8
6806,-1.64
6818,-6.96
6830,-12.3
6842,-17.72
6854,-23.09
6866,-28.09
6878,-32.28
6890,-35.3
6902,-37.0
6914,-37.5
6926,-37.18
6937,-36.52
6948,-36.0
6960,-35.98
6972,-36.62
6984,-37.9
6996,-39.7
7008,-41.93
7020,-44.55
7032,-47.57
7044,-51.0
7056,-54.76
7068,-58.64
7080,-62.35
7092,-65.59
7104,-68.15
7116,-70.02
7127,-71.34
7138,-72.3
7150,-73.04
7162,-73.46
7174,-73.23
7186,-71.85
7198,-68.81
7210,-63.82
7222,-56.95
7234,-48.58
7246,-39.24
7258,-29.47
7270,-19.59
7282,-9.76
7294,-0.02
7306,9.58
7317,18.92
7328,27.84
7340,36.23
7352,44.13
7364,51.63
7376,58.86
7388,65.8
7400,72.32
7412,78.14
7424,83.0
7436,86.81
7448,89.7
7460,92.01
7472,94.17
7484,96.54
7496,99.24
7507,102.09
7518,104.64
7530,106.37
7542,106.88
7554,106.03
7566,104.03
7578,101.32
7590,98.45
7602,95.86
7614,93.91
7626,92.79
7638,92.69
7650,93.77
7662,96.12
7674,99.66
7686,103.9
7697,107.9
7708,110.36
7720,109.82
7732,105.05
7744,95.19
7756,79.96
7768,59.63
7780,35.19
7792,8.35
7804,-18.43
7816,-42.34
7828,-60.92
7840,-72.73
7852,-77.89
7864,-77.95
7876,-75.11
7887,-71.44
7898,-68.06
7910,-65.11
7922,-62.13
7934,-58.63
7946,-54.47
7958,-49.84
7970,-44.96
7982,-39.83
7994,-34.23
8006,-27.86
8018,-20.63
8030,-12.72
8042,-4.46
8054,3.8
8066,11.91
8077,19.91
8088,27.97
8100,36.25
8112,44.84
8124,53.74
8136,62.89
8148,72.21
8160,81.65
8172,91.17
8184,100.75
8196,110.23
8208,119.3
8220,127.4
8232,133.83
8244,137.99
8256,139.65
8267,139.26
8278,137.96
8290,137.25
8302,138.54
8314,142.52
8326,148.92
8338,156.53
8350,163.76
8362,169.06
8374,171.31
8386,169.9
8398,164.55
8410,155.21
8422,142.03
8434,125.55
8446,106.88
8457,87.81
8468,70.46
8480,56.8
8492,48.02
8504,44.17
8516,44.11
8528,45.89
8540,47.42
8552,47.03
8564,43.78
8576,37.54
8588,28.69
8600,17.83
8612,5.54
8624,-7.77
8636,-21.85
8647,-36.74
8658,-52.77
8670,-70.64
8682,-91.19
8694,-115.05
8706,-142.07
8718,-171.17
8730,-200.5
8742,-228.07
8754,-252.5
8766,-273.56
8778,-292.04
8790,-309.05
8802,-325.23
8814,-339.97
8826,-351.29
8837,-356.35
8848,-352.44
8860,-337.98
8872,-313.2
8884,-280.1
8896,-241.95
8908,-202.32
8920,-164.23
8932,-129.72
8944,-99.73
8956,-74.41
8968,-53.49
8980,-36.47
8992,-22.64
9004,-11.11
9016,-0.92
9027,8.74
9038,18.28
9050,27.59
9062,36.12
9074,42.93
9086,47.47
9098,50.19
9110,51.7
9122,52.6
9134,53.54
9146,54.97
9158,56.91
9170,59.04
9182,60.48
9194,60.58
9206,59.46
9217,57.2
9228,53.73
9240,48.94
9252,42.71
9264,34.88
9276,25.52
9288,14.21
9300,1.19
9312,-11.84
9324,-24.02
9336,-35.47
9348,-46.41
9360,-57.05
9372,-67.35
9384,-77.1
9396,-87.93
9407,-100.35
9418,-110.91
9430,-118.12
9442,-122.46
9454,-124.21
9466,-123.42
9478,-120.1
9490,-114.48
9502,-111.18
9514,-112.8
9526,-114.13
9538,-113.91
9550,-114.74
9562,-118.25
9574,-125.08
9586,-134.95
9597,-147.13
9608,-167.28
9620,-197.6
9632,-227.81
9644,-254.04
9656,-278.83
9668,-303.59
9680,-328.57
9692,-353.17
9704,-376.45
9716,-405.75
9728,-443.33
9740,-474.42
9752,-491.8
9764,-496.5
9776,-489.08
9787,-470.33
9798,-442.36
9810,-354.52
9822,-196.19
9834,-57.41
9846,39.73
9858,116.65
9870,179.57
9882,231.68
9894,274.54
9906,308.14
9918,331.07
9930,335.19
9942,319.42
9954,300.51
9966,287.5
9977,280.6
9988,280.03
10000,286.78
10012,300.93
10024,319.58
10036,333.42
10048,337.36
10060,338.85
10072,339.81
10084,337.16
10096,330.28
10108,321.86
10120,314.85
10132,308.98
10144,300.4
10156,288.01
10167,277.34
10178,268.89
10190,258.25
10202,232.31
10214,185.75
10226,135.55
10238,89.84
10250,48.3
10262,14.42
10274,-5.88
10286,-11.11
10298,-4.06
10310,11.59
10322,34.08
10334,61.96
10346,91.15
10357,117.94
10368,139.79
10380,155.0
10392,161.73
10404,159.06
10416,148.25
10428,133.35
10440,118.29
10452,103.71
10464,89.76
10476,76.44
10488,62.99
10500,48.92
10512,34.59
10524,21.28
10536,11.3
10547,6.17
10558,4.52
10570,4.07
10582,2.06
10594,-4.69
10606,-18.8
10618,-41.58
10630,-72.58
10642,-109.13
10654,-147.0
10666,-181.47
10678,-207.3
10690,-220.02
10702,-217.62
10714,-201.26
10726,-174.86
10737,-143.79
10748,-112.95
10760,-85.47
10772,-62.51
10784,-43.27
10796,-26.01
10808,-9.17
10820,8.01
10832,25.44
10844,42.42
10856,58.0
10868,71.26
10880,81.59
10892,88.75
10904,92.74
10916,93.53
10927,90.86
10938,84.17
10950,72.85
10962,56.47
10974,34.95
10986,8.29
10998,-23.59
11010,-60.79
11022,-102.7
11034,-147.2
11046,-190.16
11058,-226.14
11070,-250.02
11082,-259.03
11094,-254.04
11106,-239.3
11117,-220.75
11128,-203.76
11140,-191.34
11152,-183.73
11164,-179.31
11176,-176.05
11188,-172.63
11200,-168.81
11212,-165.0
11224,-161.6
11236,-158.57
11248,-155.49
11260,-151.88
11272,-147.47
11284,-142.31
11296,-136.58
11307,-130.2
11318,-122.71
11330,-113.29
11342,-101.27
11354,-86.42
11366,-69.34
11378,-51.22
11390,-33.5
11402,-17.29
11414,-3.0
11426,9.74
11438,21.86
11450,34.32
11462,47.72
11474,62.02
11486,76.54
11497,90.17
11508,101.78
11520,110.49
11532,116.0
11544,118.61
11556,119.21
11568,119.07
11580,119.57
11592,121.86
11604,126.48
11616,133.24
11628,141.18
11640,148.96
11652,155.22
11664,159.01
11676,160.04
11687,158.6
11698,155.34
11710,151.0
11722,146.23
11734,141.46
11746,136.93
11758,132.72
11770,128.79
11782,125.06
11794,121.43
11806,117.79
11818,114.02
11830,109.96
11842,105.44
11854,100.31
11866,94.55
11877,88.37
11888,82.2
11900,76.55
11912,71.71
11924,67.59
11936,63.69
11948,59.2
11960,53.46
11972,46.21
11984,37.81
11996,29.12
12008,21.13
12020,14.51
12032,9.35
12044,5.12
12056,1.0
12067,-3.84
12078,-9.79
12090,-16.83
12102,-24.51
12114,-32.14
12126,-38.92
12138,-44.0
12150,-46.53
12162,-45.82
12174,-41.35
12186,-32.95
12198,-20.86
12210,-5.7
12222,11.56
12234,29.76
12246,47.63
12257,64.11
12268,78.34
12280,89.87
12292,98.65
12304,104.82
12316,108.61
12328,110.18
12340,109.57
12352,106.76
12364,101.72
12376,94.48
12388,85.09
12400,73.7
12412,60.67
12424,46.63
12436,32.48
12447,19.27
12458,7.89
12470,-1.23
12482,-8.29
12494,-14.04
12506,-19.5
12518,-25.53
12530,-32.51
12542,-40.28
12554,-48.28
12566,-55.93
12578,-62.9
12590,-69.27
12602,-75.39
12614,-81.56
12626,-87.84
12637,-93.89
12648,-99.21
12660,-103.38
12672,-106.29
12684,-108.22
12696,-109.64
12708,-111.01
12720,-112.54
12732,-114.16
12744,-115.54
12756,-116.23
12768,-115.8
12780,-113.97
12792,-110.62
12804,-105.89
12816,-100.06
12827,-93.55
12838,-86.78
12850,-80.16
12862,-73.97
12874,-68.37
12886,-63.42
12898,-59.04
12910,-54.92
12922,-50.64
12934,-45.61
12946,-39.34
12958,-31.56
12970,-22.34
12982,-12.08
12994,-1.38
13006,9.1
13017,18.79
13028,27.27
13040,34.28
13052,39.74
13064,43.75
13076,46.64
13088,48.88
13100,50.99
13112,53.36
13124,56.05
13136,58.8
13148,61.06
13160,62.22
13172,61.82
13184,59.72
13196,56.11
13207,51.38
13218,45.95
13230,40.12
13242,34.02
13254,27.66
13266,20.97
13278,13.89
13290,6.39
13302,-1.44
13314,-9.37
13326,-17.05
13338,-23.98
13350,-29.59
13362,-33.4
13374,-35.09
13386,-34.69
13397,-32.49
13408,-29.03
13420,-25.0
13432,-21.04
13444,-17.71
13456,-15.42
13468,-14.35
13480,-14.49
13492,-15.56
13504,-17.15
13516,-18.76
13528,-20.0
13540,-20.65
13552,-20.67
13564,-20.21
13576,-19.51
13587,-18.79
13598,-18.25
13610,-17.95
13622,-17.89
13634,-17.99
13646,-18.11
13658,-18.17
13670,-18.08
13682,-17.87
13694,-17.58
13706,-17.31
13718,-17.14
13730,-17.11
13742,-17.24
13754,-17.42
13766,-17.47
13777,-17.07
13788,-15.84
13800,-13.47
13812,-9.85
13824,-5.23
13836,-0.1
13848,4.91
13860,9.32
13872,12.89
13884,15.7
13896,17.93
13908,19.75
13920,21.2
13932,22.19
13944,22.64
13956,22.55
13967,22.0
13978,21.13
13990,20.07
14002,18.87
14014,17.61
14026,16.34
14038,15.12
14050,13.98
14062,12.85
14074,11.62
14086,10.18
14098,8.52
14110,6.74
14122,4.99
14134,3.39
14146,1.91
14157,0.42
14168,-1.3
14180,-3.39
14192,-5.87
14204,-8.66
14216,-11.55
14228,-14.3
14240,-16.62
14252,-18.22
14264,-18.82
14276,-18.26
14288,-16.55
14300,-13.96
14312,-10.94
14324,-8.02
14336,-5.64
14347,-4.0
14358,-3.04
14370,-2.56
14382,-2.34
14394,-2.27
14406,-2.42
14418,-2.92
14430,-3.83
14442,-5.09
14454,-6.5
14466,-7.81
14478,-8.86
14490,-9.62
14502,-10.26
14514,-10.98
14526,-11.93
14537,-13.15
14548,-14.53
14560,-15.81
14572,-16.69
14584,-16.9
14596,-16.31
14608,-14.97
14620,-13.11
14632,-11.05
14644,-9.06
14656,-7.34
14668,-5.94
14680,-4.85
14692,-3.91
14704,-2.85
14716,-1.22
14727,1.54
14738,5.96
14750,12.34
14762,20.52
14774,29.96
14786,39.9
14798,49.64
14810,58.8
14822,67.34
14834,75.42
14846,83.2
14858,90.71
14870,97.78
14882,104.16
14894,109.68
14906,114.26
14917,118.03
14928,121.21
14940,124.08
14952,126.82
14964,129.51
14976,131.98
14988,133.85
15000,134.6
15012,133.7
15024,130.77
15036,125.73
15048,118.72
15060,110.09
15072,100.25
15084,89.56
15096,78.26
15107,66.41
15118,53.95
15130,40.73
15142,26.59
15154,11.45
15166,-4.58
15178,-21.21
15190,-37.92
15202,-54.04
15214,-68.8
15226,-81.43
15238,-91.21
15250,-97.71
15262,-100.81
15274,-100.81
15286,-98.4
15297,-94.44
15308,-89.78
15320,-85.02
15332,-80.42
15344,-75.97
15356,-71.51
15368,-66.91
15380,-62.14
15392,-57.26
15404,-52.41
15416,-47.68
15428,-43.15
15440,-38.86
15452,-34.84
15464,-31.06
15476,-27.43
15487,-23.9
15498,-20.43
15510,-17.1
15522,-14.08
15534,-11.56
15546,-9.66
15558,-8.36
15570,-7.52
15582,-6.89
15594,-6.26
15606,-5.52
15618,-4.67
15630,-3.81
15642,-3.07
15654,-2.53
15666,-2.27
15677,-2.32
15688,-2.7
15700,-3.39
15712,-4.28
15724,-5.14
15736,-5.64
15748,-5.42
15760,-4.16
15772,-1.67
15784,2.05
15796,6.83
15808,12.41
15820,18.45
15832,24.57
15844,30.47
15856,35.87
15867,40.66
15878,44.81
15890,48.42
15902,51.61
15914,54.44
15926,56.97
15938,59.2
15950,61.15
15962,62.93
15974,64.58
15986,66.09
15998,67.24
16010,67.65
16022,66.94
16034,64.81
16046,61.28
16057,56.6
16068,51.24
16080,45.66
16092,40.19
16104,34.97
16116,29.94
16128,24.98
16140,19.91
16152,14.57
16164,8.77
16176,2.39
16188,-4.68
16200,-12.45
16212,-20.74
16224,-29.22
16236,-37.37
16247,-44.63
16258,-50.47
16270,-54.57
16282,-56.86
16294,-57.55
16306,-57.01
16318,-55.66
16330,-53.79
16342,-51.5
16354,-48.7
16366,-45.22
16378,-41.01
16390,-36.23
16402,-31.31
16414,-26.76
16426,-23.05
16437,-20.36
16448,-18.53
16460,-17.14
16472,-15.74
16484,-14.09
16496,-12.26
16508,-10.59
16520,-9.42
16532,-8.94
16544,-9.09
16556,-9.58
16568,-10.11
16580,-10.49
16592,-10.75
16604,-10.97
16616,-11.23
16627,-11.49
16638,-11.63
16650,-11.52
16662,-11.18
16674,-10.86
16686,-10.91
16698,-11.73
16710,-13.54
16722,-16.26
16734,-19.47
16746,-22.51
16758,-24.68
16770,-25.51
16782,-24.95
16794,-23.32
16806,-21.23
16817,-19.24
16828,-17.69
16840,-16.59
16852,-15.76
16864,-14.99
16876,-14.23
16888,-13.6
16900,-13.24
16912,-13.16
16924,-13.15
16936,-12.84
16948,-11.85
16960,-10.01
16972,-7.42
16984,-4.49
16996,-1.75
17007,0.26
17018,1.23
17030,1.06
17042,0.01
17054,-1.5
17066,-2.93
17078,-3.84
17090,-3.97
17102,-3.28
17114,-1.91
17126,-0.1
17138,1.91
17150,3.93
17162,5.77
17174,7.29
17186,8.44
17197,9.26
17208,9.91
17220,10.65
17232,11.74
17244,13.36
17256,15.51
17268,18.01
17280,20.52
17292,22.6
17304,23.84
17316,23.95
17328,22.84
17340,20.58
17352,17.41
17364,13.61
17376,9.52
17387,5.46
17398,1.76
17410,-1.36
17422,-3.82
17434,-5.72
17446,-7.34
17458,-9.0
17470,-10.88
17482,-12.95
17494,-14.92
17506,-16.43
17518,-17.18
17530,-17.09
17542,-16.31
17554,-15.1
17566,-13.73
17577,-12.39
17588,-11.16
17600,-10.01
17612,-8.85
17624,-7.52
17636,-5.81
17648,-3.45
17660,-0.14
17672,4.34
17684,10.04
17696,16.8
17708,24.26
17720,31.97
17732,39.56
17744,46.76
17756,53.53
17767,59.88
17778,65.83
17790,71.31
17802,76.14
17814,80.09
17826,83.03
17838,85.03
17850,86.39
17862,87.53
17874,88.86
17886,90.6
17898,92.7
17910,94.85
17922,96.64
17934,97.8
17946,98.36
17957,98.59
17968,98.93
17980,99.73
17992,101.07
18004,102.73
18016,104.33
18028,105.39
18040,105.5
18052,104.42
18064,102.09
18076,98.64
18088,94.42
18100,89.92
18112,85.68
18124,82.05
18136,79.1
18147,76.53
18158,73.79
18170,70.26
18182,65.46
18194,59.05
18206,50.86
18218,40.77
18230,28.76
18242,14.97
18254,-0.25
18266,-16.35
18278,-32.68
18290,-48.68
18302,-63.95
18314,-78.26
18326,-91.37
18337,-102.99
18348,-112.76
18360,-120.45
18372,-126.03
18384,-129.74
18396,-131.94
18408,-132.96
18420,-133.0
18432,-132.2
18444,-130.83
18456,-129.4
18468,-128.71
18480,-129.65
18492,-132.9
18504,-138.68
18516,-146.7
18527,-156.21
18538,-166.28
18550,-175.99
18562,-184.57
18574,-191.38
18586,-195.99
18598,-198.13
18610,-197.8
18622,-195.23
18634,-190.79
18646,-184.86
18658,-177.62
18670,-169.04
18682,-158.84
18694,-146.69
18706,-132.47
18717,-116.36
18728,-98.88
18740,-80.76
18752,-62.75
18764,-45.45
18776,-29.28
18788,-14.49
18800,-1.34
18812,9.94
18824,19.07
18836,25.91
18848,30.51
18860,33.13
18872,34.22
18884,34.16
18896,33.19
18907,31.27
18918,28.26
18930,24.02
18942,18.62
18954,12.43
18966,6.05
18978,0.2
18990,-4.5
19002,-7.61
19014,-8.98
19026,-8.65
19038,-6.85
19050,-3.87
19062,-0.01
19074,4.46
19086,9.25
19097,14.06
19108,18.57
19120,22.47
19132,25.52
19144,27.61
19156,28.88
19168,29.72
19180,30.6
19192,32.05
19204,34.39
19216,37.59
19228,41.19
19240,44.33
19252,45.92
19264,44.97
19276,40.82
19287,33.43
19298,23.46
19310,12.07
19322,0.68
19334,-9.41
19346,-17.35
19358,-22.82
19370,-26.0
19382,-27.38
19394,-27.56
19406,-27.05
19418,-26.21
19430,-25.19
19442,-23.91
19454,-22.16
19466,-19.64
19477,-16.16
19488,-11.77
19500,-6.76
19512,-1.69
19524,2.83
19536,6.27
19548,8.34
19560,8.99
19572,8.42
19584,6.97
19596,5.13
19608,3.42
19620,2.32
19632,2.17
19644,3.0
19656,4.6
19667,6.5
19678,8.21
19690,9.41
19702,10.03
19714,10.27
19726,10.43
19738,10.79
19750,11.48
19762,12.47
19774,13.62
19786,14.74
19798,15.63
19810,16.17
19822,16.29
19834,16.04
19846,15.56
19857,15.15
19868,15.18
19880,16.01
19892,17.86
19904,20.75
19916,24.44
19928,28.5
19940,32.43
19952,35.79
19964,38.35
19976,40.13
19988,41.37
20000,42.37
20012,43.4
20024,44.53
20036,45.67
20047,46.64
20058,47.34
20070,47.81
20082,48.16
20094,48.56
20106,49.07
20118,49.67
20130,50.26
20142,50.77
20154,51.22
20166,51.69
20178,52.23
20190,52.8
20202,53.29
20214,53.48
20226,53.21
20237,52.42
20248,51.14
20260,49.47
20272,47.5
20284,45.26
20296,42.75
20308,39.94
20320,36.86
20332,33.6
20344,30.4
20356,27.6
20368,25.52
20380,24.39
20392,24.21
20404,24.8
20416,25.81
20427,26.85
20438,27.64
20450,28.05
20462,28.09
20474,27.79
20486,27.15
20498,26.1
20510,24.6
20522,22.68
20534,20.56
20546,18.63
20558,17.25
20570,16.66
20582,16.79
20594,17.36
20606,17.93
20617,18.17
20628,17.97
20640,17.45
20652,16.88
20664,16.53
20676,16.61
20688,17.2
20700,18.29
20712,19.78
20724,21.54
20736,23.33
20748,24.86
20760,25.84
20772,26.12
20784,25.82
20796,25.41
20807,25.58
20818,26.96
20830,29.89
20842,34.2
20854,39.27
20866,44.22
20878,48.33
20890,51.2
20902,52.89
20914,53.72
20926,54.05
20938,53.99
20950,53.37
20962,51.82
20974,48.98
20986,44.72
20997,39.21
