seconds,BVP
6,-3.39
18,-5.27
30,-7.09
42,-8.55
54,-9.42
66,-9.58
78,-9.08
90,-8.08
101,-6.8
112,-5.5
124,-4.36
136,-3.42
148,-2.65
160,-1.94
172,-1.21
184,-0.37
196,0.58
208,1.64
220,2.83
232,4.1
244,5.42
256,6.65
268,7.66
280,8.34
291,8.66
302,8.69
314,8.52
326,8.25
338,7.94
350,7.61
362,7.27
374,6.95
386,6.68
398,6.5
410,6.43
422,6.44
434,6.49
446,6.57
458,6.67
470,6.84
481,7.08
492,7.31
504,7.38
516,7.13
528,6.45
540,5.36
552,4.04
564,2.75
576,1.71
588,1.01
600,0.56
612,0.18
624,-0.36
636,-1.18
648,-2.25
660,-3.45
671,-4.6
682,-5.62
694,-6.51
706,-7.39
718,-8.38
730,-9.57
742,-10.92
754,-12.38
766,-13.86
778,-15.3
790,-16.65
802,-17.84
814,-18.72
826,-19.06
838,-18.66
850,-17.42
861,-15.42
872,-12.88
884,-10.15
896,-7.51
908,-5.2
920,-3.29
932,-1.75
944,-0.54
956,0.41
968,1.15
980,1.72
992,2.2
1004,2.73
1016,3.46
1028,4.52
1040,5.94
1051,7.6
1062,9.27
1074,10.69
1086,11.61
1098,11.9
1110,11.6
1122,10.9
1134,10.02
1146,9.15
1158,8.38
1170,7.7
1182,7.03
1194,6.29
1206,5.44
1218,4.54
1230,3.71
1241,3.05
1252,2.59
1264,2.25
1276,1.9
1288,1.39
1300,0.68
1312,-0.13
1324,-0.92
1336,-1.54
1348,-1.96
1360,-2.25
1372,-2.53
1384,-2.95
1396,-3.57
1408,-4.45
1420,-5.59
1431,-7.0
1442,-8.72
1454,-10.66
1466,-12.65
1478,-14.42
1490,-15.64
1502,-16.09
1514,-15.7
1526,-14.61
1538,-13.12
1550,-11.54
1562,-10.1
1574,-8.87
1586,-7.79
1598,-6.79
1610,-5.81
1621,-4.87
1632,-4.02
1644,-3.24
1656,-2.48
1668,-1.63
1680,-0.59
1692,0.63
1704,1.94
1716,3.2
1728,4.33
1740,5.32
1752,6.22
1764,7.14
1776,8.09
1788,8.98
1800,9.64
1811,9.9
1822,9.73
1834,9.19
1846,8.45
1858,7.72
1870,7.15
1882,6.79
1894,6.57
1906,6.4
1918,6.17
1930,5.76
1942,5.14
1954,4.34
1966,3.42
1978,2.44
1990,1.43
2001,0.45
2012,-0.49
2024,-1.33
2036,-2.04
2048,-2.58
2060,-2.97
2072,-3.32
2084,-3.77
2096,-4.45
2108,-5.41
2120,-6.6
2132,-7.91
2144,-9.19
2156,-10.29
2168,-11.09
2180,-11.46
2191,-11.24
2202,-10.34
2214,-8.71
2226,-6.49
2238,-3.94
2250,-1.39
2262,0.88
2274,2.71
2286,4.04
2298,4.98
2310,5.6
2322,5.99
2334,6.18
2346,6.22
2358,6.17
2370,6.12
2381,6.14
2392,6.3
2404,6.58
2416,6.95
2428,7.37
2440,7.82
2452,8.31
2464,8.84
2476,9.38
2488,9.88
2500,10.26
2512,10.48
2524,10.56
2536,10.57
2548,10.56
2560,10.59
2571,10.66
2582,10.75
2594,10.8
2606,10.76
2618,10.54
2630,10.09
2642,9.39
2654,8.49
2666,7.47
2678,6.48
2690,5.59
2702,4.85
2714,4.22
2726,3.68
2738,3.21
2750,2.83
2761,2.54
2772,2.32
2784,2.09
2796,1.76
2808,1.28
2820,0.67
2832,0.0
2844,-0.64
2856,-1.29
2868,-2.02
2880,-2.98
2892,-4.31
2904,-6.02
2916,-8.03
2928,-10.1
2940,-11.92
2951,-13.17
2962,-13.61
2974,-13.11
2986,-11.75
2998,-9.73
3010,-7.37
3022,-4.98
3034,-2.84
3046,-1.17
3058,-0.03
3070,0.58
3082,0.77
3094,0.68
3106,0.44
3118,0.15
3130,-0.15
3141,-0.41
3152,-0.59
3164,-0.58
3176,-0.28
3188,0.34
3200,1.24
3212,2.26
3224,3.24
3236,4.05
3248,4.62
3260,4.99
3272,5.22
3284,5.35
3296,5.42
3308,5.45
3320,5.46
3331,5.5
3342,5.57
3354,5.62
3366,5.59
3378,5.41
3390,5.09
3402,4.68
3414,4.34
3426,4.15
3438,4.13
3450,4.18
3462,4.12
3474,3.78
3486,3.13
3498,2.28
3510,1.44
3521,0.83
3532,0.49
3544,0.32
3556,0.09
3568,-0.42
3580,-1.29
3592,-2.42
3604,-3.57
3616,-4.49
3628,-5.01
3640,-5.14
3652,-5.0
3664,-4.75
3676,-4.55
3688,-4.51
3700,-4.7
3711,-5.15
3722,-5.81
3734,-6.55
3746,-7.08
3758,-7.06
3770,-6.22
3782,-4.45
3794,-1.87
3806,1.19
3818,4.28
3830,7.03
3842,9.15
3854,10.58
3866,11.4
3878,11.77
3890,11.91
3901,11.94
3912,11.89
3924,11.67
3936,11.16
3948,10.25
3960,8.95
3972,7.41
3984,5.86
3996,4.51
4008,3.52
4020,2.92
4032,2.67
4044,2.77
4056,3.14
4068,3.71
4080,4.31
4091,4.72
4102,4.75
4114,4.34
4126,3.61
4138,2.87
4150,2.5
4162,2.8
4174,3.89
4186,5.64
4198,7.78
4210,9.98
4222,11.97
4234,13.57
4246,14.74
4258,15.53
4270,16.03
4281,16.34
4292,16.54
4304,16.65
4316,16.65
4328,16.43
4340,15.86
4352,14.74
4364,12.95
4376,10.41
4388,7.15
4400,3.34
4412,-0.79
4424,-4.97
4436,-8.95
4448,-12.55
4460,-15.73
4471,-18.52
4482,-20.99
4494,-23.24
4506,-25.31
4518,-27.17
4530,-28.7
4542,-29.68
4554,-29.87
4566,-29.01
4578,-27.03
4590,-24.02
4602,-20.32
4614,-16.44
4626,-12.89
4638,-10.04
4650,-8.03
4661,-6.81
4672,-6.25
4684,-6.27
4696,-6.9
4708,-8.17
4720,-10.01
4732,-12.17
4744,-14.19
4756,-15.62
4768,-16.15
4780,-15.74
4792,-14.61
4804,-13.13
4816,-11.6
4828,-10.14
4840,-8.69
4851,-7.08
4862,-5.2
4874,-3.02
4886,-0.63
4898,1.86
4910,4.3
4922,6.64
4934,8.8
4946,10.75
4958,12.39
4970,13.62
4982,14.38
4994,14.68
5006,14.62
5018,14.4
5030,14.21
5041,14.19
5052,14.39
5064,14.74
5076,15.09
5088,15.22
5100,14.93
5112,14.07
5124,12.56
5136,10.49
5148,8.03
5160,5.4
5172,2.88
5184,0.62
5196,-1.3
5208,-2.92
5220,-4.35
5231,-5.66
5242,-6.92
5254,-8.11
5266,-9.23
5278,-10.22
5290,-10.99
5302,-11.42
5314,-11.36
5326,-10.71
5338,-9.41
5350,-7.55
5362,-5.33
5374,-3.04
5386,-0.97
5398,0.67
5410,1.75
5421,2.27
5432,2.31
5444,2.03
5456,1.67
5468,1.47
5480,1.66
5492,2.35
5504,3.49
5516,4.91
5528,6.38
5540,7.71
5552,8.76
5564,9.51
5576,10.02
5588,10.34
5600,10.56
5611,10.71
5622,10.86
5634,11.05
5646,11.29
5658,11.55
5670,11.75
5682,11.75
5694,11.4
5706,10.66
5718,9.54
5730,8.17
5742,6.73
5754,5.33
5766,4.0
5778,2.69
5790,1.3
5801,-0.19
5812,-1.74
5824,-3.26
5836,-4.62
5848,-5.76
5860,-6.72
5872,-7.63
5884,-8.59
5896,-9.69
5908,-10.92
5920,-12.26
5932,-13.67
5944,-15.11
5956,-16.48
5968,-17.62
5980,-18.3
5991,-18.3
6002,-17.49
6014,-15.95
6026,-13.96
6038,-11.94
6050,-10.28
6062,-9.19
6074,-8.62
6086,-8.35
6098,-8.12
6110,-7.78
6122,-7.36
6134,-7.02
6146,-6.96
6158,-7.21
6170,-7.66
6181,-8.01
6192,-7.92
6204,-7.15
6216,-5.64
6228,-3.53
6240,-1.06
6252,1.46
6264,3.77
6276,5.69
6288,7.17
6300,8.33
6312,9.33
6324,10.41
6336,11.72
6348,13.28
6360,14.94
6371,16.41
6382,17.35
6394,17.48
6406,16.67
6418,15.02
6430,12.86
6442,10.66
6454,9.0
6466,8.27
6478,8.69
6490,10.18
6502,12.42
6514,14.97
6526,17.33
6538,19.05
6550,19.69
6561,18.95
6572,16.63
6584,12.84
6596,8.02
6608,2.89
6620,-1.69
6632,-5.05
6644,-6.87
6656,-7.37
6668,-7.15
6680,-6.97
6692,-7.5
6704,-9.11
6716,-11.73
6728,-15.05
6740,-18.59
6751,-22.01
6762,-25.23
6774,-28.5
6786,-32.2
6798,-36.72
6810,-42.26
6822,-48.7
6834,-55.54
6846,-62.02
6858,-67.19
6870,-70.02
6882,-69.61
6894,-65.34
6906,-57.17
6918,-45.65
6930,-31.93
6941,-17.48
6952,-3.73
6964,8.29
6976,18.08
6988,25.59
7000,31.01
7012,34.57
7024,36.45
7036,36.85
7048,36.05
7060,34.47
7072,32.54
7084,30.57
7096,28.67
7108,26.7
7120,24.48
7131,21.84
7142,18.79
7154,15.41
7166,11.79
7178,8.06
7190,4.33
7202,0.8
7214,-2.28
7226,-4.58
7238,-5.86
7250,-6.02
7262,-5.18
7274,-3.62
7286,-1.71
7298,0.2
7310,1.81
7321,2.91
7332,3.38
7344,3.16
7356,2.33
7368,1.04
7380,-0.46
7392,-1.86
7404,-2.95
7416,-3.6
7428,-3.84
7440,-3.8
7452,-3.66
7464,-3.54
7476,-3.47
7488,-3.45
7500,-3.46
7511,-3.5
7522,-3.63
7534,-3.89
7546,-4.27
7558,-4.7
7570,-5.14
7582,-5.54
7594,-5.9
7606,-6.22
7618,-6.54
7630,-6.84
7642,-7.09
7654,-7.25
7666,-7.29
7678,-7.2
7690,-6.97
7701,-6.63
7712,-6.24
7724,-5.95
7736,-5.97
7748,-6.48
7760,-7.54
7772,-9.03
7784,-10.68
7796,-12.1
7808,-12.91
7820,-12.81
7832,-11.69
7844,-9.59
7856,-6.74
7868,-3.47
7880,-0.14
7891,2.89
7902,5.39
7914,7.29
7926,8.63
7938,9.52
7950,10.1
7962,10.41
7974,10.49
7986,10.41
7998,10.22
8010,10.06
8022,10.05
8034,10.28
8046,10.73
8058,11.36
8070,12.07
8081,12.75
8092,13.28
8104,13.56
8116,13.53
8128,13.23
8140,12.74
8152,12.2
8164,11.68
8176,11.15
8188,10.47
8200,9.45
8212,7.95
8224,5.97
8236,3.6
8248,1.01
8260,-1.62
8271,-4.13
8282,-6.34
8294,-8.03
8306,-8.97
8318,-9.05
8330,-8.43
8342,-7.57
8354,-7.09
8366,-7.52
8378,-8.98
8390,-11.15
8402,-13.39
8414,-15.01
8426,-15.59
8438,-15.07
8450,-13.68
8461,-11.76
8472,-9.54
8484,-7.19
8496,-4.79
8508,-2.47
8520,-0.37
8532,1.35
8544,2.61
8556,3.46
8568,4.01
8580,4.46
8592,4.98
8604,5.71
8616,6.72
8628,7.97
8640,9.35
8651,10.7
8662,11.84
8674,12.69
8686,13.27
8698,13.67
8710,13.96
8722,14.14
8734,14.11
8746,13.71
8758,12.86
8770,11.58
8782,10.0
8794,8.36
8806,6.84
8818,5.55
8830,4.51
8841,3.6
8852,2.7
8864,1.7
8876,0.57
8888,-0.68
8900,-2.01
8912,-3.38
8924,-4.86
8936,-6.48
8948,-8.3
8960,-10.21
8972,-11.97
8984,-13.23
8996,-13.62
9008,-12.93
9020,-11.2
9031,-8.73
9042,-5.9
9054,-3.13
9066,-0.66
9078,1.43
9090,3.2
9102,4.74
9114,6.08
9126,7.18
9138,7.93
9150,8.28
9162,8.23
9174,7.91
9186,7.52
9198,7.28
9210,7.36
9221,7.8
9232,8.59
9244,9.6
9256,10.7
9268,11.74
9280,12.66
9292,13.41
9304,13.94
9316,14.22
9328,14.2
9340,13.89
9352,13.31
9364,12.55
9376,11.65
9388,10.67
9400,9.6
9411,8.39
9422,7.02
9434,5.51
9446,3.91
9458,2.33
9470,0.89
9482,-0.36
9494,-1.41
9506,-2.34
9518,-3.27
9530,-4.32
9542,-5.59
9554,-7.14
9566,-8.91
9578,-10.77
9590,-12.44
9601,-13.62
9612,-14.0
9624,-13.39
9636,-11.79
9648,-9.36
9660,-6.42
9672,-3.32
9684,-0.39
9696,2.19
9708,4.3
9720,5.97
9732,7.21
9744,8.1
9756,8.61
9768,8.74
9780,8.49
9791,7.94
9802,7.28
9814,6.79
9826,6.69
9838,7.06
9850,7.8
9862,8.68
9874,9.45
9886,9.96
9898,10.22
9910,10.36
9922,10.54
9934,10.83
9946,11.19
9958,11.51
9970,11.69
9981,11.64
9992,11.36
10004,10.87
10016,10.22
10028,9.47
10040,8.71
10052,8.03
10064,7.51
10076,7.18
10088,7.03
10100,6.96
10112,6.85
10124,6.54
10136,5.94
10148,5.01
10160,3.83
10171,2.52
10182,1.22
10194,0.05
10206,-0.95
10218,-1.79
10230,-2.55
10242,-3.3
10254,-4.09
10266,-4.94
10278,-5.84
10290,-6.74
10302,-7.62
10314,-8.47
10326,-9.34
10338,-10.27
10350,-11.31
10361,-12.49
10372,-13.74
10384,-14.9
10396,-15.68
10408,-15.81
10420,-15.09
10432,-13.48
10444,-11.19
10456,-8.5
10468,-5.77
10480,-3.25
10492,-1.07
10504,0.74
10516,2.17
10528,3.19
10540,3.74
10551,3.82
10562,3.5
10574,3.0
10586,2.6
10598,2.54
10610,2.96
10622,3.8
10634,4.89
10646,6.03
10658,7.03
10670,7.81
10682,8.37
10694,8.71
10706,8.88
10718,8.85
10730,8.6
10741,8.09
10752,7.31
10764,6.31
10776,5.25
10788,4.27
10800,3.5
10812,2.97
10824,2.59
10836,2.27
10848,1.92
10860,1.53
10872,1.17
10884,0.92
10896,0.83
10908,0.82
10920,0.81
10931,0.69
10942,0.4
10954,-0.03
10966,-0.54
10978,-1.08
10990,-1.65
11002,-2.25
11014,-2.91
11026,-3.65
11038,-4.48
11050,-5.44
11062,-6.56
11074,-7.86
11086,-9.37
11098,-10.99
11110,-12.56
11121,-13.82
11132,-14.49
11144,-14.39
11156,-13.48
11168,-11.89
11180,-9.92
11192,-7.89
11204,-6.05
11216,-4.52
11228,-3.32
11240,-2.39
11252,-1.72
11264,-1.33
11276,-1.23
11288,-1.42
11300,-1.76
11311,-2.05
11322,-2.06
11334,-1.61
11346,-0.65
11358,0.73
11370,2.31
11382,3.83
11394,5.08
11406,5.94
11418,6.46
11430,6.76
11442,6.97
11454,7.19
11466,7.46
11478,7.73
11490,7.93
11501,7.96
11512,7.77
11524,7.36
11536,6.77
11548,6.15
11560,5.65
11572,5.35
11584,5.24
11596,5.18
11608,4.94
11620,4.39
11632,3.49
11644,2.35
11656,1.12
11668,-0.06
11680,-1.16
11691,-2.25
11702,-3.41
11714,-4.7
11726,-6.12
11738,-7.54
11750,-8.86
11762,-10.0
11774,-10.98
11786,-11.91
11798,-13.0
11810,-14.44
11822,-16.37
11834,-18.79
11846,-21.5
11858,-24.21
11870,-26.53
11881,-28.12
11892,-28.77
11904,-28.52
11916,-27.58
11928,-26.34
11940,-25.2
11952,-24.48
11964,-24.34
11976,-24.72
11988,-25.41
12000,-26.18
12012,-26.86
12024,-27.45
12036,-28.07
12048,-28.98
12060,-30.5
12071,-32.87
12082,-36.1
12094,-39.78
12106,-43.08
12118,-44.87
12130,-44.02
12142,-39.88
12154,-32.44
12166,-22.46
12178,-11.13
12190,0.23
12202,10.62
12214,19.43
12226,26.44
12238,31.61
12250,34.92
12261,36.35
12272,35.96
12284,33.96
12296,30.66
12308,26.45
12320,21.61
12332,16.25
12344,10.33
12356,3.75
12368,-3.52
12380,-11.27
12392,-19.04
12404,-26.19
12416,-31.99
12428,-35.83
12440,-37.34
12451,-36.51
12462,-33.65
12474,-29.27
12486,-23.94
12498,-18.13
12510,-12.11
12522,-6.04
12534,-0.01
12546,5.87
12558,11.49
12570,16.76
12582,21.73
12594,26.64
12606,31.86
12618,37.71
12630,44.33
12641,51.59
12652,59.11
12664,66.41
12676,73.12
12688,78.96
12700,83.79
12712,87.45
12724,89.69
12736,90.21
12748,88.7
12760,85.06
12772,79.44
12784,72.29
12796,64.25
12808,56.04
12820,48.26
12831,41.34
12842,35.39
12854,30.37
12866,26.07
12878,22.3
12890,18.9
12902,15.8
12914,13.02
12926,10.6
12938,8.56
12950,6.87
12962,5.38
12974,3.9
12986,2.2
12998,0.16
13010,-2.2
13021,-4.69
13032,-7.04
13044,-8.96
13056,-10.34
13068,-11.24
13080,-11.81
13092,-12.18
13104,-12.4
13116,-12.45
13128,-12.36
13140,-12.21
13152,-12.17
13164,-12.36
13176,-12.85
13188,-13.54
13200,-14.32
13211,-15.07
13222,-15.78
13234,-16.52
13246,-17.36
13258,-18.29
13270,-19.21
13282,-19.89
13294,-20.09
13306,-19.63
13318,-18.42
13330,-16.54
13342,-14.22
13354,-11.76
13366,-9.48
13378,-7.58
13390,-6.15
13401,-5.16
13412,-4.55
13424,-4.25
13436,-4.21
13448,-4.4
13460,-4.75
13472,-5.16
13484,-5.48
13496,-5.64
13508,-5.56
13520,-5.32
13532,-5.03
13544,-4.8
13556,-4.7
13568,-4.69
13580,-4.66
13591,-4.5
13602,-4.14
13614,-3.64
13626,-3.13
13638,-2.74
13650,-2.51
13662,-2.34
13674,-2.07
13686,-1.55
13698,-0.78
13710,0.06
13722,0.72
13734,1.01
13746,0.91
13758,0.55
13770,0.11
13781,-0.28
13792,-0.6
13804,-0.86
13816,-0.97
13828,-0.69
13840,0.27
13852,2.09
13864,4.66
13876,7.6
13888,10.39
13900,12.65
13912,14.27
13924,15.48
13936,16.6
13948,17.9
13960,19.35
13971,20.74
13982,21.74
13994,22.11
14006,21.79
14018,20.88
14030,19.54
14042,17.83
14054,15.73
14066,13.13
14078,10.01
14090,6.49
14102,2.86
14114,-0.55
14126,-3.47
14138,-5.8
14150,-7.67
14161,-9.31
14172,-10.92
14184,-12.59
14196,-14.22
14208,-15.62
14220,-16.65
14232,-17.26
14244,-17.53
14256,-17.57
14268,-17.45
14280,-17.18
14292,-16.7
14304,-15.98
14316,-15.03
14328,-13.95
14340,-12.88
14351,-11.93
14362,-11.15
14374,-10.52
14386,-9.96
14398,-9.46
14410,-8.99
14422,-8.63
14434,-8.43
14446,-8.43
14458,-8.58
14470,-8.78
14482,-8.9
14494,-8.84
14506,-8.57
14518,-8.19
14530,-7.84
14541,-7.7
14552,-7.84
14564,-8.25
14576,-8.91
14588,-9.76
14600,-10.82
14612,-12.07
14624,-13.38
14636,-14.49
14648,-15.11
14660,-14.95
14672,-13.96
14684,-12.32
14696,-10.37
14708,-8.46
14720,-6.79
14731,-5.38
14742,-4.14
14754,-2.99
14766,-1.95
14778,-1.11
14790,-0.56
14802,-0.3
14814,-0.22
14826,-0.16
14838,0.06
14850,0.51
14862,1.19
14874,2.02
14886,2.87
14898,3.67
14910,4.38
14921,4.98
14932,5.47
14944,5.85
14956,6.09
14968,6.17
14980,6.07
14992,5.79
15004,5.33
15016,4.73
15028,4.02
15040,3.26
15052,2.51
15064,1.86
15076,1.37
15088,1.04
15100,0.77
15111,0.39
15122,-0.26
15134,-1.29
15146,-2.71
15158,-4.39
15170,-6.17
15182,-7.88
15194,-9.42
15206,-10.82
15218,-12.12
15230,-13.43
15242,-14.83
15254,-16.3
15266,-17.79
15278,-19.12
15290,-20.07
15301,-20.45
15312,-20.12
15324,-19.05
15336,-17.31
15348,-15.06
15360,-12.48
15372,-9.79
15384,-7.19
15396,-4.86
15408,-2.93
15420,-1.46
15432,-0.41
15444,0.33
15456,0.91
15468,1.45
15480,2.03
15491,2.7
15502,3.51
15514,4.48
15526,5.57
15538,6.72
15550,7.78
15562,8.57
15574,9.04
15586,9.2
15598,9.21
15610,9.26
15622,9.45
15634,9.83
15646,10.29
15658,10.7
15670,10.91
15681,10.82
15692,10.44
15704,9.84
15716,9.16
15728,8.48
15740,7.86
15752,7.23
15764,6.51
15776,5.64
15788,4.58
15800,3.39
15812,2.12
15824,0.83
15836,-0.46
15848,-1.73
15860,-2.95
15871,-4.09
15882,-5.09
15894,-5.97
15906,-6.85
15918,-7.86
15930,-9.11
15942,-10.55
15954,-11.98
15966,-13.06
15978,-13.44
15990,-12.92
16002,-11.5
16014,-9.39
16026,-6.93
16038,-4.48
16050,-2.29
16061,-0.47
16072,0.99
16084,2.14
16096,3.07
16108,3.82
16120,4.4
16132,4.82
16144,5.13
16156,5.39
16168,5.68
16180,6.04
16192,6.52
16204,7.11
16216,7.8
16228,8.57
16240,9.43
16251,10.31
16262,11.11
16274,11.73
16286,12.07
16298,12.07
16310,11.71
16322,11.06
16334,10.17
16346,9.15
16358,8.05
16370,6.94
16382,5.89
16394,4.95
16406,4.15
16418,3.49
16430,2.91
16441,2.36
16452,1.81
16464,1.29
16476,0.86
16488,0.57
16500,0.39
16512,0.2
16524,-0.17
16536,-0.92
16548,-2.13
16560,-3.75
16572,-5.69
16584,-7.79
16596,-9.94
16608,-12.08
16620,-14.16
16631,-16.12
16642,-17.81
16654,-19.02
16666,-19.54
16678,-19.18
16690,-17.88
16702,-15.72
16714,-12.94
16726,-9.86
16738,-6.82
16750,-4.11
16762,-1.9
16774,-0.21
16786,1.0
16798,1.79
16810,2.24
16821,2.41
16832,2.37
16844,2.24
16856,2.09
16868,2.01
16880,2.0
16892,2.05
16904,2.15
16916,2.32
16928,2.64
16940,3.16
16952,3.88
16964,4.71
16976,5.5
16988,6.14
17000,6.55
17011,6.76
17022,6.82
17034,6.77
17046,6.58
17058,6.23
17070,5.67
17082,4.95
17094,4.16
17106,3.43
17118,2.87
17130,2.48
17142,2.18
17154,1.87
17166,1.48
17178,0.99
17190,0.45
17201,-0.08
17212,-0.61
17224,-1.25
17236,-2.09
17248,-3.24
17260,-4.66
17272,-6.23
17284,-7.79
17296,-9.25
17308,-10.54
17320,-11.68
17332,-12.57
17344,-13.06
17356,-12.91
17368,-11.89
17380,-9.94
17391,-7.23
17402,-4.14
17414,-1.12
17426,1.46
17438,3.4
17450,4.69
17462,5.48
17474,5.92
17486,6.11
17498,6.11
17510,5.93
17522,5.59
17534,5.17
17546,4.81
17558,4.63
17570,4.74
17581,5.12
17592,5.68
17604,6.27
17616,6.77
17628,7.1
17640,7.28
17652,7.38
17664,7.45
17676,7.51
17688,7.5
17700,7.36
17712,7.02
17724,6.44
17736,5.65
17748,4.68
17760,3.62
17771,2.53
17782,1.5
17794,0.55
17806,-0.29
17818,-1.03
17830,-1.76
17842,-2.54
17854,-3.43
17866,-4.44
17878,-5.51
17890,-6.58
17902,-7.61
17914,-8.58
17926,-9.51
17938,-10.44
17950,-11.37
17961,-12.3
17972,-13.19
17984,-13.98
17996,-14.54
18008,-14.67
18020,-14.12
18032,-12.71
18044,-10.41
18056,-7.41
18068,-4.07
18080,-0.86
18092,1.86
18104,3.92
18116,5.34
18128,6.3
18140,6.99
18151,7.52
18162,7.91
18174,8.12
18186,8.07
18198,7.74
18210,7.2
18222,6.58
18234,6.11
18246,5.96
18258,6.18
18270,6.65
18282,7.17
18294,7.57
18306,7.83
18318,8.08
18330,8.49
18341,9.15
18352,9.91
18364,10.48
18376,10.53
18388,9.98
18400,8.97
18412,7.85
18424,6.93
18436,6.37
18448,6.07
18460,5.85
18472,5.56
18484,5.14
18496,4.64
18508,4.13
18520,3.65
18531,3.12
18542,2.47
18554,1.63
18566,0.61
18578,-0.55
18590,-1.77
18602,-3.0
18614,-4.18
18626,-5.3
18638,-6.35
18650,-7.34
18662,-8.29
18674,-9.28
18686,-10.37
18698,-11.66
18710,-13.13
18721,-14.64
18732,-15.9
18744,-16.51
18756,-16.14
18768,-14.61
18780,-12.05
18792,-8.85
18804,-5.56
18816,-2.65
18828,-0.41
18840,1.12
18852,2.15
18864,2.94
18876,3.66
18888,4.38
18900,5.02
18911,5.48
18922,5.68
18934,5.66
18946,5.55
18958,5.55
18970,5.78
18982,6.21
18994,6.74
19006,7.19
19018,7.42
19030,7.44
19042,7.37
19054,7.33
19066,7.39
19078,7.47
19090,7.4
19101,7.02
19112,6.24
19124,5.15
19136,3.94
19148,2.85
19160,2.02
19172,1.51
19184,1.23
19196,1.07
19208,0.88
19220,0.59
19232,0.18
19244,-0.3
19256,-0.76
19268,-1.14
19280,-1.46
19291,-1.74
19302,-2.11
19314,-2.66
19326,-3.49
19338,-4.61
19350,-5.95
19362,-7.34
19374,-8.59
19386,-9.51
19398,-9.99
19410,-10.06
19422,-9.84
19434,-9.54
19446,-9.39
19458,-9.53
19470,-10.0
19481,-10.71
19492,-11.47
19504,-12.03
19516,-12.14
19528,-11.62
19540,-10.39
19552,-8.52
19564,-6.2
19576,-3.68
19588,-1.22
19600,0.97
19612,2.75
19624,4.06
19636,4.89
19648,5.3
19660,5.39
19671,5.29
19682,5.15
19694,5.06
19706,5.07
19718,5.16
19730,5.26
19742,5.34
19754,5.44
19766,5.62
19778,5.97
19790,6.51
19802,7.23
19814,8.02
19826,8.78
19838,9.38
19850,9.76
19861,9.89
19872,9.79
19884,9.52
19896,9.1
19908,8.61
19920,8.1
19932,7.59
19944,7.12
19956,6.66
19968,6.21
19980,5.71
19992,5.16
20004,4.55
20016,3.93
20028,3.35
20040,2.86
20051,2.38
20062,1.81
20074,1.02
20086,-0.03
20098,-1.27
20110,-2.49
20122,-3.47
20134,-4.11
20146,-4.45
20158,-4.65
20170,-4.97
20182,-5.63
20194,-6.7
20206,-8.12
20218,-9.69
20230,-11.09
20241,-11.97
20252,-12.05
20264,-11.2
20276,-9.48
20288,-7.19
20300,-4.72
20312,-2.44
20324,-0.57
20336,0.82
20348,1.78
20360,2.41
20372,2.77
20384,2.91
20396,2.92
20408,2.88
20420,2.92
20431,3.11
20442,3.44
20454,3.86
20466,4.29
20478,4.67
20490,5.03
20502,5.4
20514,5.81
20526,6.22
20538,6.58
20550,6.83
20562,6.97
20574,6.99
20586,6.9
20598,6.67
20610,6.3
20621,5.84
20632,5.38
20644,5.05
20656,4.97
20668,5.09
20680,5.27
20692,5.27
20704,4.89
20716,4.05
20728,2.82
20740,1.43
20752,0.18
20764,-0.69
20776,-1.09
20788,-1.08
20800,-0.88
20811,-0.76
20822,-0.95
20834,-1.54
20846,-2.46
20858,-3.55
20870,-4.56
20882,-5.35
20894,-5.89
20906,-6.29
20918,-6.72
20930,-7.33
20942,-8.2
20954,-9.26
20966,-10.45
20978,-11.65
20990,-12.77
