seconds,BVP
4,9.05
16,9.38
27,10.34
38,11.33
50,11.79
62,11.45
74,10.28
86,8.47
98,6.29
110,5.58
122,7.58
134,12.04
146,17.35
158,21.75
170,24.14
182,24.18
194,22.14
206,18.77
217,18.04
228,22.91
240,33.3
252,46.47
264,59.28
276,69.83
288,77.39
300,81.95
312,84.02
324,89.12
336,101.26
348,120.12
360,141.54
372,161.14
384,176.64
396,187.68
407,195.01
418,200.13
430,211.04
442,233.73
454,268.23
466,309.05
478,349.86
490,386.3
502,415.83
514,436.73
526,409.77
538,317.37
550,176.3
562,27.34
574,-96.05
586,-181.97
597,-233.78
608,-260.83
620,-272.97
632,-279.09
644,-278.21
656,-267.6
668,-247.99
680,-223.84
692,-199.66
704,-178.02
716,-160.54
728,-149.22
740,-142.82
752,-137.26
764,-129.76
776,-120.57
787,-111.97
798,-105.11
810,-98.59
822,-89.92
834,-77.12
846,-59.53
858,-35.27
870,-4.22
882,30.77
894,64.94
906,94.28
918,117.01
930,133.14
942,143.58
954,149.66
966,154.03
977,159.06
988,165.7
1000,173.23
1012,180.05
1024,184.26
1036,183.94
1048,177.54
1060,164.31
1072,144.95
1084,121.04
1096,94.17
1108,65.39
1120,35.18
1132,3.81
1144,-28.51
1156,-61.37
1167,-94.08
1178,-125.95
1190,-156.3
1202,-184.76
1214,-211.25
1226,-235.98
1238,-259.28
1250,-281.53
1262,-303.17
1274,-324.6
1286,-346.2
1298,-368.29
1310,-391.22
1322,-415.52
1334,-441.81
1346,-470.34
1357,-500.29
1368,-529.26
1380,-553.34
1392,-567.95
1404,-569.14
1416,-554.77
1428,-524.84
1440,-480.96
1452,-425.45
1464,-360.65
1476,-289.03
1488,-213.66
1500,-138.56
1512,-68.21
1524,-6.38
1536,45.2
1547,87.34
1558,122.7
1570,154.11
1582,183.04
1594,208.83
1606,229.14
1618,241.13
1630,242.75
1642,233.49
1654,214.31
1666,187.2
1678,154.63
1690,119.21
1702,83.44
1714,49.64
1726,19.66
1737,-5.25
1748,-24.54
1760,-38.27
1772,-46.89
1784,-51.09
1796,-51.73
1808,-49.87
1820,-46.72
1832,-43.59
1844,-41.49
1856,-41.03
1868,-42.18
1880,-44.39
1892,-46.8
1904,-48.55
1916,-49.05
1927,-48.02
1938,-45.42
1950,-41.3
1962,-35.54
1974,-27.82
1986,-17.78
1998,-5.25
2010,9.36
2022,24.89
2034,39.54
2046,51.37
2058,59.0
2070,62.12
2082,61.7
2094,59.64
2106,58.11
2117,58.77
2128,62.35
2140,68.57
2152,76.44
2164,84.74
2176,92.34
2188,98.42
2200,102.52
2212,104.51
2224,104.56
2236,103.11
2248,100.72
2260,97.97
2272,95.22
2284,92.59
2296,89.99
2307,87.3
2318,84.56
2330,81.96
2342,79.68
2354,77.76
2366,75.94
2378,73.8
2390,70.86
2402,66.89
2414,61.9
2426,56.15
2438,49.89
2450,43.31
2462,36.44
2474,29.35
2486,22.18
2497,15.28
2508,9.13
2520,4.16
2532,0.65
2544,-1.31
2556,-1.8
2568,-0.92
2580,1.21
2592,4.43
2604,8.51
2616,13.07
2628,17.57
2640,21.54
2652,24.7
2664,27.1
2676,29.05
2687,30.99
2698,33.19
2710,35.69
2722,38.24
2734,40.51
2746,42.21
2758,43.25
2770,43.66
2782,43.6
2794,43.26
2806,42.8
2818,42.36
2830,41.99
2842,41.72
2854,41.53
2866,41.29
2877,40.82
2888,39.77
2900,37.69
2912,34.04
2924,28.41
2936,20.7
2948,11.28
2960,0.92
2972,-9.39
2984,-18.82
2996,-26.91
3008,-33.71
3020,-39.61
3032,-45.03
3044,-50.22
3056,-55.06
3067,-59.12
3078,-61.95
3090,-63.26
3102,-63.15
3114,-62.12
3126,-60.93
3138,-60.35
3150,-60.9
3162,-62.63
3174,-65.08
3186,-67.39
3198,-68.57
3210,-67.72
3222,-64.3
3234,-58.28
3246,-50.11
3257,-40.68
3268,-31.09
3280,-22.39
3292,-15.41
3304,-10.51
3316,-7.55
3328,-5.99
3340,-5.06
3352,-4.02
3364,-2.38
3376,-0.03
3388,2.81
3400,5.69
3412,8.14
3424,9.81
3436,10.53
3447,10.34
3458,9.45
3470,8.11
3482,6.61
3494,5.2
3506,4.1
3518,3.49
3530,3.51
3542,4.27
3554,5.77
3566,7.96
3578,10.67
3590,13.69
3602,16.8
3614,19.88
3626,22.83
3637,25.63
3648,28.26
3660,30.65
3672,32.65
3684,34.09
3696,34.79
3708,34.65
3720,33.62
3732,31.74
3744,29.1
3756,25.82
3768,22.02
3780,17.77
3792,13.12
3804,8.12
3816,2.85
3827,-2.56
3838,-7.93
3850,-12.97
3862,-17.38
3874,-20.83
3886,-23.0
3898,-23.67
3910,-22.77
3922,-20.36
3934,-16.66
3946,-11.99
3958,-6.64
3970,-0.88
3982,5.06
3994,10.93
4006,16.43
4017,21.2
4028,24.9
4040,27.25
4052,28.21
4064,27.97
4076,26.92
4088,25.64
4100,24.75
4112,24.71
4124,25.72
4136,27.62
4148,29.92
4160,31.98
4172,33.34
4184,33.87
4196,33.87
4207,33.8
4218,34.03
4230,34.59
4242,35.13
4254,35.08
4266,33.96
4278,31.63
4290,28.32
4302,24.55
4314,20.82
4326,17.46
4338,14.51
4350,11.8
4362,9.12
4374,6.37
4386,3.58
4397,0.85
4408,-1.76
4420,-4.28
4432,-6.86
4444,-9.61
4456,-12.58
4468,-15.71
4480,-18.91
4492,-22.14
4504,-25.42
4516,-28.74
4528,-31.92
4540,-34.54
4552,-36.01
4564,-35.78
4576,-33.59
4587,-29.6
4598,-24.37
4610,-18.59
4622,-12.87
4634,-7.55
4646,-2.72
4658,1.64
4670,5.57
4682,8.98
4694,11.75
4706,13.74
4718,14.94
4730,15.45
4742,15.48
4754,15.24
4766,14.9
4777,14.53
4788,14.09
4800,13.49
4812,12.7
4824,11.76
4836,10.78
4848,9.9
4860,9.18
4872,8.59
4884,7.99
4896,7.25
4908,6.3
4920,5.19
4932,4.03
4944,2.91
4956,1.85
4967,0.75
4978,-0.48
4990,-1.87
5002,-3.4
5014,-5.01
5026,-6.66
5038,-8.37
5050,-10.17
5062,-12.01
5074,-13.8
5086,-15.44
5098,-16.98
5110,-18.68
5122,-20.87
5134,-23.77
5146,-27.24
5157,-30.64
5168,-33.03
5180,-33.45
5192,-31.41
5204,-27.02
5216,-20.99
5228,-14.29
5240,-7.78
5252,-2.01
5264,2.87
5276,6.98
5288,10.53
5300,13.69
5312,16.53
5324,19.04
5336,21.21
5347,23.04
5358,24.56
5370,25.79
5382,26.74
5394,27.33
5406,27.46
5418,27.07
5430,26.17
5442,24.91
5454,23.56
5466,22.42
5478,21.66
5490,21.21
5502,20.7
5514,19.66
5526,17.72
5537,14.85
5548,11.35
5560,7.75
5572,4.53
5584,1.93
5596,-0.17
5608,-2.08
5620,-4.15
5632,-6.56
5644,-9.26
5656,-12.08
5668,-14.85
5680,-17.46
5692,-19.86
5704,-22.01
5716,-23.81
5727,-25.22
5738,-26.33
5750,-27.39
5762,-28.74
5774,-30.58
5786,-32.75
5798,-34.6
5810,-35.25
5822,-33.91
5834,-30.28
5846,-24.66
5858,-17.88
5870,-10.91
5882,-4.5
5894,0.99
5906,5.6
5917,9.47
5928,12.63
5940,14.99
5952,16.44
5964,17.01
5976,17.01
5988,16.86
6000,16.98
6012,17.56
6024,18.55
6036,19.71
6048,20.78
6060,21.59
6072,22.04
6084,22.09
6096,21.71
6107,20.85
6118,19.47
6130,17.61
6142,15.33
6154,12.77
6166,10.04
6178,7.3
6190,4.63
6202,2.12
6214,-0.23
6226,-2.46
6238,-4.69
6250,-6.96
6262,-9.25
6274,-11.45
6286,-13.45
6297,-15.13
6308,-16.52
6320,-17.67
6332,-18.73
6344,-19.83
6356,-21.19
6368,-23.0
6380,-25.42
6392,-28.39
6404,-31.5
6416,-34.04
6428,-35.12
6440,-34.04
6452,-30.57
6464,-25.06
6476,-18.32
6487,-11.31
6498,-4.8
6510,0.79
6522,5.43
6534,9.27
6546,12.49
6558,15.2
6570,17.39
6582,19.04
6594,20.15
6606,20.77
6618,21.01
6630,20.97
6642,20.71
6654,20.26
6666,19.66
6677,18.87
6688,17.87
6700,16.68
6712,15.33
6724,13.85
6736,12.26
6748,10.58
6760,8.75
6772,6.73
6784,4.44
6796,1.79
6808,-1.28
6820,-4.83
6832,-8.76
6844,-12.88
6856,-16.87
6867,-20.38
6878,-23.24
6890,-25.55
6902,-27.61
6914,-29.77
6926,-32.3
6938,-35.23
6950,-38.45
6962,-41.78
6974,-45.02
6986,-47.89
6998,-49.98
7010,-50.65
7022,-49.31
7034,-45.66
7046,-39.89
7057,-32.77
7068,-25.29
7080,-18.34
7092,-12.41
7104,-7.52
7116,-3.42
7128,0.17
7140,3.3
7152,5.87
7164,7.72
7176,8.82
7188,9.32
7200,9.47
7212,9.47
7224,9.37
7236,9.09
7247,8.5
7258,7.58
7270,6.44
7282,5.35
7294,4.6
7306,4.38
7318,4.67
7330,5.3
7342,5.97
7354,6.44
7366,6.51
7378,6.07
7390,5.09
7402,3.58
7414,1.58
7426,-0.85
7437,-3.59
7448,-6.52
7460,-9.49
7472,-12.35
7484,-15.02
7496,-17.52
7508,-20.02
7520,-22.74
7532,-25.81
7544,-29.09
7556,-32.13
7568,-34.25
7580,-34.74
7592,-33.22
7604,-29.74
7616,-24.86
7627,-19.4
7638,-14.14
7650,-9.57
7662,-5.81
7674,-2.72
7686,-0.08
7698,2.25
7710,4.27
7722,5.91
7734,7.14
7746,8.01
7758,8.65
7770,9.13
7782,9.42
7794,9.37
7806,8.72
7817,7.3
7828,5.09
7840,2.31
7852,-0.63
7864,-3.32
7876,-5.49
7888,-7.12
7900,-8.39
7912,-9.59
7924,-10.88
7936,-12.29
7948,-13.64
7960,-14.69
7972,-15.22
7984,-15.14
7996,-14.49
8007,-13.4
8018,-12.07
8030,-10.76
8042,-9.79
8054,-9.48
8066,-10.0
8078,-11.21
8090,-12.51
8102,-13.03
8114,-11.84
8126,-8.39
8138,-2.69
8150,4.58
8162,12.43
8174,19.81
8186,26.05
8197,30.94
8208,34.62
8220,37.4
8232,39.57
8244,41.21
8256,42.28
8268,42.7
8280,42.37
8292,41.31
8304,39.58
8316,37.36
8328,34.9
8340,32.51
8352,30.51
8364,29.17
8376,28.54
8387,28.43
8398,28.46
8410,28.16
8422,27.14
8434,25.31
8446,22.82
8458,20.03
8470,17.31
8482,14.91
8494,12.87
8506,11.07
8518,9.28
8530,7.26
8542,4.87
8554,2.09
8566,-0.87
8577,-3.59
8588,-5.48
8600,-5.95
8612,-4.61
8624,-1.36
8636,3.46
8648,9.21
8660,15.13
8672,20.51
8684,24.89
8696,28.08
8708,30.06
8720,30.96
8732,30.9
8744,30.01
8756,28.48
8767,26.48
8778,24.27
8790,22.1
8802,20.14
8814,18.49
8826,17.12
8838,15.93
8850,14.74
8862,13.4
8874,11.75
8886,9.74
8898,7.41
8910,4.9
8922,2.41
8934,0.12
8946,-1.91
8957,-3.71
8968,-5.4
8980,-7.14
8992,-9.06
9004,-11.22
9016,-13.66
9028,-16.35
9040,-19.16
9052,-21.8
9064,-23.81
9076,-24.57
9088,-23.55
9100,-20.48
9112,-15.51
9124,-9.21
9136,-2.38
9147,4.21
9158,10.06
9170,14.99
9182,19.14
9194,22.7
9206,25.73
9218,28.12
9230,29.61
9242,29.98
9254,29.22
9266,27.58
9278,25.46
9290,23.32
9302,21.46
9314,20.02
9326,19.0
9337,18.3
9348,17.9
9360,17.69
9372,17.58
9384,17.3
9396,16.49
9408,14.82
9420,12.13
9432,8.47
9444,4.18
9456,-0.38
9468,-4.88
9480,-9.17
9492,-13.29
9504,-17.37
9516,-21.53
9527,-25.8
9538,-30.07
9550,-34.07
9562,-37.33
9574,-39.31
9586,-39.49
9598,-37.58
9610,-33.61
9622,-28.04
9634,-21.58
9646,-15.02
9658,-9.01
9670,-3.89
9682,0.24
9694,3.51
9706,6.09
9717,8.12
9728,9.73
9740,11.0
9752,12.07
9764,13.04
9776,14.09
9788,15.29
9800,16.61
9812,17.9
9824,18.95
9836,19.48
9848,19.35
9860,18.61
9872,17.48
9884,16.3
9896,15.39
9907,14.98
9918,15.04
9930,15.37
9942,15.68
9954,15.69
9966,15.23
9978,14.34
9990,13.16
10002,11.88
10014,10.67
10026,9.58
10038,8.55
10050,7.36
10062,5.69
10074,3.22
10086,-0.33
10097,-4.94
10108,-10.31
10120,-15.82
10132,-20.72
10144,-24.4
10156,-26.58
10168,-27.38
10180,-27.19
10192,-26.52
10204,-25.75
10216,-25.12
10228,-24.72
10240,-24.61
10252,-24.77
10264,-25.14
10276,-25.46
10287,-25.4
10298,-24.58
10310,-22.8
10322,-20.11
10334,-16.83
10346,-13.46
10358,-10.49
10370,-8.28
10382,-6.96
10394,-6.44
10406,-6.48
10418,-6.79
10430,-7.12
10442,-7.37
10454,-7.56
10466,-7.82
10477,-8.3
10488,-9.06
10500,-10.14
10512,-11.53
10524,-13.19
10536,-15.09
10548,-17.19
10560,-19.42
10572,-21.7
10584,-24.05
10596,-26.5
10608,-29.18
10620,-32.21
10632,-35.67
10644,-39.59
10656,-43.95
10667,-48.67
10678,-53.51
10690,-58.08
10702,-61.79
10714,-64.08
10726,-64.64
10738,-63.6
10750,-61.57
10762,-59.38
10774,-57.77
10786,-57.06
10798,-57.09
10810,-57.34
10822,-57.16
10834,-56.01
10846,-53.55
10857,-49.69
10868,-44.55
10880,-38.46
10892,-31.95
10904,-25.72
10916,-20.47
10928,-16.54
10940,-13.71
10952,-11.0
10964,-6.93
10976,-0.18
10988,9.8
11000,22.3
11012,35.53
11024,47.43
11036,56.64
11047,63.21
11058,68.51
11070,74.45
11082,82.39
11094,92.53
11106,103.89
11118,115.0
11130,124.77
11142,132.85
11154,139.47
11166,144.95
11178,149.15
11190,151.46
11202,151.01
11214,147.2
11226,139.88
11237,129.22
11248,115.46
11260,98.57
11272,78.36
11284,54.84
11296,28.71
11308,1.69
11320,-23.57
11332,-44.11
11344,-57.41
11356,-62.21
11368,-58.89
11380,-49.32
11392,-36.3
11404,-22.69
11416,-10.8
11427,-2.0
11438,3.32
11450,5.42
11462,4.97
11474,2.74
11486,-0.55
11498,-4.37
11510,-8.34
11522,-12.28
11534,-16.18
11546,-20.19
11558,-24.57
11570,-29.54
11582,-35.14
11594,-41.07
11606,-46.73
11617,-51.4
11628,-54.44
11640,-55.64
11652,-55.29
11664,-54.07
11676,-52.86
11688,-52.38
11700,-52.99
11712,-54.59
11724,-56.78
11736,-58.99
11748,-60.73
11760,-61.82
11772,-62.25
11784,-62.24
11796,-61.92
11807,-61.27
11818,-60.01
11830,-57.66
11842,-53.81
11854,-48.3
11866,-41.41
11878,-33.87
11890,-26.64
11902,-20.65
11914,-16.66
11926,-15.1
11938,-16.07
11950,-19.41
11962,-24.8
11974,-31.78
11986,-39.85
11997,-48.45
12008,-57.02
12020,-65.11
12032,-72.37
12044,-78.61
12056,-83.86
12068,-88.25
12080,-91.99
12092,-95.15
12104,-97.58
12116,-98.72
12128,-97.74
12140,-93.67
12152,-85.78
12164,-73.86
12176,-58.35
12187,-40.16
12198,-20.35
12210,0.28
12222,21.41
12234,43.05
12246,65.24
12258,87.72
12270,109.7
12282,130.03
12294,147.49
12306,161.19
12318,170.8
12330,176.56
12342,179.08
12354,179.08
12366,177.11
12377,173.41
12388,167.89
12400,160.27
12412,150.23
12424,137.65
12436,122.83
12448,106.48
12460,89.6
12472,73.2
12484,57.98
12496,44.19
12508,31.67
12520,20.0
12532,8.76
12544,-2.34
12556,-13.34
12567,-24.12
12578,-34.47
12590,-44.12
12602,-52.76
12614,-60.03
12626,-65.55
12638,-69.08
12650,-70.57
12662,-70.25
12674,-68.65
12686,-66.44
12698,-64.29
12710,-62.69
12722,-61.9
12734,-61.91
12746,-62.52
12757,-63.46
12768,-64.48
12780,-65.4
12792,-66.09
12804,-66.39
12816,-66.16
12828,-65.16
12840,-63.14
12852,-59.86
12864,-55.18
12876,-49.12
12888,-41.95
12900,-34.12
12912,-26.2
12924,-18.72
12936,-12.01
12947,-6.1
12958,-0.85
12970,4.0
12982,8.67
12994,13.19
13006,17.44
13018,21.31
13030,24.72
13042,27.77
13054,30.65
13066,33.55
13078,36.55
13090,39.57
13102,42.43
13114,44.9
13126,46.88
13137,48.35
13148,49.44
13160,50.32
13172,51.14
13184,51.99
13196,52.85
13208,53.62
13220,54.21
13232,54.56
13244,54.75
13256,54.91
13268,55.19
13280,55.7
13292,56.53
13304,57.74
13316,59.49
13327,61.97
13338,65.38
13350,69.75
13362,74.86
13374,80.24
13386,85.37
13398,89.85
13410,93.58
13422,96.77
13434,99.79
13446,103.02
13458,106.66
13470,110.75
13482,115.18
13494,119.9
13506,124.97
13517,130.6
13528,137.01
13540,144.32
13552,152.36
13564,160.76
13576,169.06
13588,176.93
13600,184.43
13612,192.0
13624,200.4
13636,210.42
13648,222.57
13660,236.8
13672,252.21
13684,267.02
13696,278.72
13707,284.63
13718,282.56
13730,271.55
13742,252.09
13754,225.89
13766,195.16
13778,161.9
13790,127.46
13802,92.59
13814,57.62
13826,22.74
13838,-11.99
13850,-46.72
13862,-81.95
13874,-118.37
13886,-156.58
13897,-196.65
13908,-237.96
13920,-279.18
13932,-318.65
13944,-354.97
13956,-387.45
13968,-416.28
13980,-442.07
13992,-464.82
14004,-483.0
14016,-493.21
14028,-490.89
14040,-471.86
14052,-433.91
14064,-377.58
14076,-305.6
14087,-221.62
14098,-129.49
14110,-33.57
14122,60.31
14134,144.25
14146,209.29
14158,247.82
14170,256.54
14182,238.1
14194,200.14
14206,152.43
14218,103.18
14230,56.49
14242,11.87
14254,-33.83
14266,-83.12
14277,-135.05
14288,-184.07
14300,-221.34
14312,-237.83
14324,-227.82
14336,-190.75
14348,-130.87
14360,-55.2
14372,28.88
14384,114.48
14396,194.58
14408,261.37
14420,306.61
14432,323.94
14444,311.81
14456,275.09
14467,224.3
14478,172.48
14490,131.19
14502,107.55
14514,103.12
14526,114.53
14538,134.74
14550,154.99
14562,166.83
14574,164.03
14586,144.02
14598,108.2
14610,61.08
14622,8.67
14634,-43.19
14646,-89.4
14657,-125.91
14668,-149.81
14680,-159.79
14692,-156.68
14704,-143.6
14716,-125.13
14728,-105.89
14740,-89.12
14752,-76.11
14764,-66.66
14776,-60.04
14788,-55.75
14800,-53.84
14812,-54.76
14824,-58.93
14836,-66.57
14847,-77.69
14858,-92.18
14870,-109.88
14882,-130.67
14894,-154.35
14906,-180.23
14918,-206.79
14930,-231.56
14942,-251.5
14954,-264.04
14966,-268.11
14978,-264.76
14990,-256.87
15002,-247.95
15014,-240.86
15026,-236.81
15037,-235.31
15048,-234.82
15060,-233.67
15072,-230.68
15084,-225.41
15096,-217.92
15108,-208.59
15120,-197.94
15132,-186.75
15144,-176.03
15156,-166.87
15168,-160.2
15180,-156.44
15192,-155.31
15204,-155.86
15216,-156.54
15227,-155.51
15238,-150.9
15250,-141.13
15262,-125.27
15274,-103.21
15286,-75.79
15298,-44.77
15310,-12.62
15322,17.88
15334,44.25
15346,64.84
15358,79.31
15370,88.78
15382,95.55
15394,102.48
15406,112.02
15417,125.42
15428,142.29
15440,160.69
15452,177.69
15464,190.3
15476,196.35
15488,194.96
15500,186.68
15512,173.02
15524,155.94
15536,137.25
15548,118.37
15560,100.17
15572,83.18
15584,67.71
15596,53.98
15607,42.08
15618,31.95
15630,23.3
15642,15.69
15654,8.64
15666,1.88
15678,-4.53
15690,-10.22
15702,-14.7
15714,-17.63
15726,-19.08
15738,-19.55
15750,-19.75
15762,-20.29
15774,-21.37
15786,-22.65
15797,-23.44
15808,-22.97
15820,-20.77
15832,-16.8
15844,-11.6
15856,-6.04
15868,-1.09
15880,2.43
15892,4.04
15904,3.73
15916,1.9
15928,-0.84
15940,-3.84
15952,-6.65
15964,-9.11
15976,-11.45
15987,-14.21
15998,-18.2
16010,-24.32
16022,-33.31
16034,-45.37
16046,-59.74
16058,-74.53
16070,-86.91
16082,-93.71
16094,-92.41
16106,-81.83
16118,-62.6
16130,-36.74
16142,-6.96
16154,24.17
16166,54.84
16177,84.04
16188,111.35
16200,136.44
16212,158.93
16224,178.33
16236,194.34
16248,207.05
16260,217.1
16272,225.34
16284,232.53
16296,238.83
16308,243.56
16320,245.38
16332,242.65
16344,234.09
16356,219.27
16367,198.79
16378,174.14
16390,147.26
16402,120.12
16414,94.34
16426,71.11
16438,51.19
16450,34.94
16462,22.33
16474,12.99
16486,6.28
16498,1.39
16510,-2.42
16522,-5.71
16534,-8.75
16546,-11.58
16557,-14.03
16568,-15.84
16580,-16.82
16592,-16.88
16604,-16.11
16616,-14.81
16628,-13.32
16640,-12.0
16652,-11.0
16664,-10.27
16676,-9.48
16688,-8.25
16700,-6.29
16712,-3.56
16724,-0.25
16736,3.38
16747,7.16
16758,11.25
16770,16.16
16782,22.59
16794,31.16
16806,42.12
16818,55.21
16830,69.66
16842,84.37
16854,98.18
16866,110.08
16878,119.36
16890,125.61
16902,128.74
16914,128.85
16926,126.21
16937,121.18
16948,114.17
16960,105.54
16972,95.57
16984,84.37
16996,71.93
17008,58.09
17020,42.71
17032,25.77
17044,7.39
17056,-12.12
17068,-32.43
17080,-53.2
17092,-74.24
17104,-95.4
17116,-116.45
17127,-137.03
17138,-156.67
17150,-174.89
17162,-191.47
17174,-206.46
17186,-220.18
17198,-233.0
17210,-244.95
17222,-255.53
17234,-263.6
17246,-267.57
17258,-265.67
17270,-256.39
17282,-238.87
17294,-213.26
17306,-180.85
17317,-143.99
17328,-105.72
17340,-69.17
17352,-36.82
17364,-10.1
17376,10.84
17388,26.85
17400,39.21
17412,49.2
17424,57.67
17436,65.1
17448,71.79
17460,78.07
17472,84.42
17484,91.38
17496,99.3
17507,108.11
17518,117.31
17530,126.05
17542,133.39
17554,138.7
17566,141.95
17578,143.84
17590,145.74
17602,149.37
17614,156.22
17626,166.75
17638,179.65
17650,191.77
17662,198.69
17674,196.05
17686,181.15
17697,154.05
17708,117.56
17720,75.95
17732,33.46
17744,-7.2
17756,-45.24
17768,-81.04
17780,-115.36
17792,-148.77
17804,-181.99
17816,-216.17
17828,-252.5
17840,-290.73
17852,-327.75
17864,-357.06
17876,-370.32
17887,-360.41
17898,-324.46
17910,-265.0
17922,-188.72
17934,-103.74
17946,-17.15
17958,65.4
17970,138.79
17982,197.46
17994,235.93
18006,250.99
18018,244.12
18030,222.13
18042,195.18
18054,172.85
18066,160.56
18077,158.26
18088,161.8
18100,165.36
18112,164.2
18124,155.89
18136,140.26
18148,118.62
18160,92.97
18172,65.35
18184,37.45
18196,10.25
18208,-16.1
18220,-41.82
18232,-66.86
18244,-90.57
18256,-111.65
18267,-128.9
18278,-141.91
18290,-151.37
18302,-158.63
18314,-164.84
18326,-170.15
18338,-173.72
18350,-174.26
18362,-170.9
18374,-163.58
18386,-153.03
18398,-140.34
18410,-126.36
18422,-111.41
18434,-95.31
18446,-77.77
18457,-58.76
18468,-38.81
18480,-18.94
18492,-0.48
18504,15.33
18516,27.56
18528,35.89
18540,40.67
18552,42.94
18564,44.18
18576,45.85
18588,48.73
18600,52.58
18612,56.03
18624,56.99
18636,53.24
18647,42.84
18658,24.53
18670,-2.05
18682,-35.98
18694,-74.62
18706,-113.69
18718,-148.18
18730,-174.05
18742,-189.89
18754,-197.44
18766,-200.47
18778,-202.31
18790,-203.59
18802,-201.53
18814,-191.22
18826,-168.24
18837,-130.93
18848,-81.08
18860,-23.12
18872,37.41
18884,95.09
18896,145.14
18908,183.46
18920,206.91
18932,214.04
18944,206.0
18956,186.93
18968,163.2
18980,141.67
18992,127.56
19004,122.87
19016,126.05
19027,133.0
19038,139.02
19050,140.75
19062,137.37
19074,130.52
19086,123.07
19098,117.53
19110,114.8
19122,113.99
19134,113.19
19146,110.8
19158,106.41
19170,100.88
19182,95.72
19194,92.08
19206,90.21
19217,89.34
19228,88.26
19240,85.92
19252,81.79
19264,75.9
19276,68.55
19288,59.91
19300,49.91
19312,38.39
19324,25.46
19336,11.74
19348,-1.69
19360,-13.67
19372,-23.54
19384,-31.45
19396,-38.36
19407,-45.48
19418,-53.63
19430,-62.74
19442,-71.79
19454,-79.22
19466,-83.58
19478,-84.08
19490,-80.83
19502,-74.58
19514,-66.35
19526,-57.04
19538,-47.26
19550,-37.38
19562,-27.76
19574,-18.76
19586,-10.8
19597,-4.2
19608,0.88
19620,4.44
19632,6.56
19644,7.32
19656,6.91
19668,5.69
19680,4.36
19692,3.87
19704,5.27
19716,9.28
19728,16.08
19740,25.1
19752,35.18
19764,44.88
19776,52.81
19787,57.91
19798,59.55
19810,57.53
19822,51.98
19834,43.36
19846,32.43
19858,20.24
19870,7.93
19882,-3.45
19894,-13.18
19906,-20.96
19918,-26.83
19930,-31.0
19942,-33.64
19954,-34.87
19966,-34.78
19977,-33.58
19988,-31.58
20000,-29.18
20012,-26.72
20024,-24.41
20036,-22.33
20048,-20.5
20060,-18.91
20072,-17.5
20084,-16.17
20096,-14.78
20108,-13.22
20120,-11.53
20132,-9.88
20144,-8.52
20156,-7.64
20167,-7.24
20178,-7.22
20190,-7.45
20202,-7.93
20214,-8.79
20226,-10.23
20238,-12.37
20250,-15.12
20262,-18.23
20274,-21.37
20286,-24.32
20298,-27.05
20310,-29.73
20322,-32.62
20334,-35.87
20346,-39.47
20357,-43.21
20368,-46.71
20380,-49.63
20392,-51.72
20404,-52.9
20416,-53.28
20428,-53.02
20440,-52.33
20452,-51.41
20464,-50.47
20476,-49.74
20488,-49.46
20500,-49.73
20512,-50.41
20524,-51.06
20536,-51.14
20547,-50.19
20558,-48.02
20570,-44.89
20582,-41.4
20594,-38.26
20606,-36.14
20618,-35.44
20630,-36.36
20642,-38.88
20654,-42.83
20666,-47.9
20678,-53.51
20690,-58.81
20702,-62.74
20714,-64.25
20726,-62.61
20737,-57.69
20748,-49.95
20760,-40.32
20772,-29.84
20784,-19.31
20796,-9.11
20808,0.81
20820,10.58
20832,20.25
20844,29.57
20856,38.1
20868,45.4
20880,51.23
20892,55.74
20904,59.35
20916,62.57
20927,65.74
20938,68.89
20950,71.74
20962,73.81
20974,74.64
20986,73.97
20998,71.82
