seconds,BVP
4,13.16
16,11.28
28,9.82
40,8.84
52,8.23
64,7.79
76,7.28
88,6.56
100,5.6
112,4.51
124,3.41
136,2.44
147,1.63
158,1.02
170,0.6
182,0.36
194,0.25
206,0.19
218,0.1
230,-0.01
242,0.05
254,0.65
266,2.24
278,5.13
290,9.39
302,14.71
314,20.5
326,26.1
337,30.98
348,34.93
360,38.01
372,40.44
384,42.4
396,43.88
408,44.64
420,44.33
432,42.65
444,39.47
456,34.88
468,29.14
480,22.59
492,15.57
504,8.43
516,1.48
527,-4.95
538,-10.56
550,-15.23
562,-18.94
574,-21.89
586,-24.32
598,-26.43
610,-28.31
622,-29.92
634,-31.11
646,-31.66
658,-31.44
670,-30.44
682,-28.82
694,-26.88
706,-24.98
717,-23.39
728,-22.23
740,-21.44
752,-20.79
764,-20.03
776,-18.98
788,-17.63
800,-16.15
812,-14.87
824,-14.12
836,-14.13
848,-14.85
860,-15.92
872,-16.71
884,-16.48
896,-14.66
907,-11.03
918,-5.78
930,0.5
942,7.08
954,13.29
966,18.67
978,23.06
990,26.5
1002,29.13
1014,31.04
1026,32.27
1038,32.78
1050,32.58
1062,31.76
1074,30.57
1086,29.31
1097,28.26
1108,27.61
1120,27.27
1132,26.96
1144,26.29
1156,24.88
1168,22.56
1180,19.42
1192,15.82
1204,12.22
1216,9.01
1228,6.41
1240,4.39
1252,2.8
1264,1.47
1276,0.3
1287,-0.74
1298,-1.64
1310,-2.45
1322,-3.24
1334,-4.07
1346,-4.95
1358,-5.77
1370,-6.38
1382,-6.64
1394,-6.51
1406,-6.09
1418,-5.57
1430,-5.09
1442,-4.68
1454,-4.16
1466,-3.16
1477,-1.33
1488,1.58
1500,5.51
1512,10.08
1524,14.73
1536,18.89
1548,22.14
1560,24.33
1572,25.57
1584,26.09
1596,26.11
1608,25.75
1620,25.02
1632,23.84
1644,22.12
1656,19.83
1667,17.05
1678,14.03
1690,11.07
1702,8.48
1714,6.43
1726,4.86
1738,3.57
1750,2.26
1762,0.75
1774,-1.03
1786,-2.96
1798,-4.91
1810,-6.82
1822,-8.76
1834,-10.89
1846,-13.36
1857,-16.21
1868,-19.33
1880,-22.54
1892,-25.68
1904,-28.68
1916,-31.51
1928,-34.14
1940,-36.44
1952,-38.26
1964,-39.52
1976,-40.27
1988,-40.83
2000,-41.56
2012,-42.69
2024,-44.15
2036,-45.46
2047,-45.92
2058,-44.84
2070,-41.8
2082,-36.87
2094,-30.54
2106,-23.61
2118,-16.89
2130,-11.01
2142,-6.25
2154,-2.56
2166,0.35
2178,2.75
2190,4.85
2202,6.67
2214,8.12
2226,9.11
2237,9.68
2248,9.98
2260,10.23
2272,10.61
2284,11.15
2296,11.7
2308,12.04
2320,11.99
2332,11.5
2344,10.69
2356,9.77
2368,8.92
2380,8.2
2392,7.55
2404,6.79
2416,5.78
2427,4.48
2438,2.96
2450,1.38
2462,-0.17
2474,-1.65
2486,-3.09
2498,-4.53
2510,-6.0
2522,-7.48
2534,-8.99
2546,-10.57
2558,-12.34
2570,-14.35
2582,-16.5
2594,-18.46
2606,-19.73
2617,-19.85
2628,-18.55
2640,-15.93
2652,-12.38
2664,-8.43
2676,-4.57
2688,-1.07
2700,1.99
2712,4.64
2724,6.88
2736,8.69
2748,10.02
2760,10.93
2772,11.6
2784,12.29
2796,13.24
2807,14.53
2818,16.07
2830,17.63
2842,19.01
2854,20.06
2866,20.77
2878,21.21
2890,21.45
2902,21.59
2914,21.66
2926,21.65
2938,21.5
2950,21.08
2962,20.24
2974,18.8
2986,16.7
2997,14.0
3008,10.91
3020,7.7
3032,4.58
3044,1.63
3056,-1.2
3068,-4.09
3080,-7.23
3092,-10.75
3104,-14.6
3116,-18.6
3128,-22.37
3140,-25.46
3152,-27.42
3164,-27.95
3176,-26.99
3187,-24.74
3198,-21.59
3210,-18.04
3222,-14.58
3234,-11.53
3246,-9.1
3258,-7.28
3270,-6.03
3282,-5.23
3294,-4.81
3306,-4.66
3318,-4.7
3330,-4.8
3342,-4.83
3354,-4.77
3366,-4.65
3377,-4.62
3388,-4.82
3400,-5.3
3412,-5.92
3424,-6.43
3436,-6.6
3448,-6.31
3460,-5.68
3472,-4.94
3484,-4.29
3496,-3.84
3508,-3.54
3520,-3.33
3532,-3.25
3544,-3.39
3556,-3.94
3567,-5.01
3578,-6.58
3590,-8.52
3602,-10.63
3614,-12.69
3626,-14.43
3638,-15.6
3650,-15.92
3662,-15.18
3674,-13.34
3686,-10.55
3698,-7.17
3710,-3.6
3722,-0.25
3734,2.66
3746,5.01
3757,6.74
3768,7.81
3780,8.15
3792,7.75
3804,6.65
3816,5.04
3828,3.15
3840,1.27
3852,-0.33
3864,-1.47
3876,-2.09
3888,-2.24
3900,-2.12
3912,-1.97
3924,-2.03
3936,-2.44
3947,-3.23
3958,-4.32
3970,-5.56
3982,-6.85
3994,-8.16
4006,-9.53
4018,-10.98
4030,-12.54
4042,-14.17
4054,-15.83
4066,-17.49
4078,-19.13
4090,-20.67
4102,-21.93
4114,-22.62
4126,-22.45
4137,-21.21
4148,-18.92
4160,-15.84
4172,-12.39
4184,-9.06
4196,-6.19
4208,-3.92
4220,-2.23
4232,-1.03
4244,-0.23
4256,0.13
4268,0.08
4280,-0.36
4292,-1.03
4304,-1.75
4316,-2.31
4327,-2.63
4338,-2.74
4350,-2.81
4362,-3.05
4374,-3.62
4386,-4.61
4398,-5.93
4410,-7.4
4422,-8.8
4434,-9.89
4446,-10.58
4458,-10.94
4470,-11.16
4482,-11.54
4494,-12.33
4506,-13.7
4517,-15.62
4528,-17.95
4540,-20.36
4552,-22.44
4564,-23.67
4576,-23.54
4588,-21.69
4600,-17.99
4612,-12.73
4624,-6.48
4636,-0.03
4648,5.92
4660,10.92
4672,14.85
4684,17.86
4696,20.18
4707,21.97
4718,23.3
4730,24.18
4742,24.62
4754,24.75
4766,24.71
4778,24.64
4790,24.64
4802,24.75
4814,24.93
4826,25.1
4838,25.14
4850,24.92
4862,24.34
4874,23.34
4886,21.96
4897,20.28
4908,18.38
4920,16.32
4932,14.09
4944,11.66
4956,9.0
4968,6.08
4980,2.89
4992,-0.56
5004,-4.17
5016,-7.64
5028,-10.48
5040,-12.08
5052,-11.98
5064,-9.98
5076,-6.34
5087,-1.62
5098,3.4
5110,8.05
5122,11.87
5134,14.66
5146,16.43
5158,17.36
5170,17.64
5182,17.48
5194,17.06
5206,16.56
5218,16.04
5230,15.58
5242,15.19
5254,14.87
5266,14.64
5277,14.52
5288,14.5
5300,14.55
5312,14.59
5324,14.49
5336,14.12
5348,13.36
5360,12.23
5372,10.77
5384,9.11
5396,7.3
5408,5.3
5420,3.04
5432,0.46
5444,-2.44
5456,-5.62
5467,-9.06
5478,-12.71
5490,-16.45
5502,-19.97
5514,-22.67
5526,-23.87
5538,-22.97
5550,-19.79
5562,-14.72
5574,-8.6
5586,-2.42
5598,3.0
5610,7.27
5622,10.42
5634,12.68
5646,14.3
5657,15.41
5668,16.03
5680,16.19
5692,15.96
5704,15.51
5716,15.03
5728,14.6
5740,14.25
5752,13.9
5764,13.51
5776,13.1
5788,12.76
5800,12.59
5812,12.61
5824,12.71
5836,12.66
5847,12.23
5858,11.28
5870,9.82
5882,8.05
5894,6.21
5906,4.57
5918,3.27
5930,2.3
5942,1.56
5954,0.82
5966,-0.11
5978,-1.34
5990,-2.72
6002,-3.91
6014,-4.38
6026,-3.66
6037,-1.48
6048,2.06
6060,6.52
6072,11.23
6084,15.54
6096,19.01
6108,21.47
6120,22.99
6132,23.79
6144,24.06
6156,23.91
6168,23.38
6180,22.47
6192,21.18
6204,19.6
6216,17.9
6227,16.28
6238,15.01
6250,14.3
6262,14.28
6274,15.0
6286,16.35
6298,18.14
6310,20.13
6322,22.08
6334,23.8
6346,25.17
6358,26.2
6370,26.98
6382,27.72
6394,28.68
6406,30.06
6417,31.98
6428,34.34
6440,36.78
6452,38.67
6464,39.25
6476,37.75
6488,33.65
6500,26.85
6512,17.81
6524,7.47
6536,-2.91
6548,-12.06
6560,-18.98
6572,-23.22
6584,-24.86
6596,-24.49
6607,-22.91
6618,-20.92
6630,-19.08
6642,-17.64
6654,-16.6
6666,-15.83
6678,-15.18
6690,-14.53
6702,-13.79
6714,-12.8
6726,-11.4
6738,-9.43
6750,-6.9
6762,-3.96
6774,-0.93
6786,1.95
6797,4.59
6808,7.16
6820,9.93
6832,13.06
6844,16.44
6856,19.67
6868,22.21
6880,23.63
6892,23.88
6904,23.32
6916,22.64
6928,22.56
6940,23.5
6952,25.31
6964,27.13
6976,27.5
6987,24.78
6998,17.67
7010,5.73
7022,-10.31
7034,-28.53
7046,-46.21
7058,-60.48
7070,-69.11
7082,-71.18
7094,-67.32
7106,-59.47
7118,-50.24
7130,-42.02
7142,-36.21
7154,-32.91
7166,-31.14
7177,-29.48
7188,-26.79
7200,-22.71
7212,-17.63
7224,-12.35
7236,-7.6
7248,-3.78
7260,-0.92
7272,1.04
7284,2.12
7296,2.2
7308,1.16
7320,-0.94
7332,-3.71
7344,-6.44
7356,-8.28
7367,-8.44
7378,-6.31
7390,-1.54
7402,5.9
7414,15.64
7426,26.76
7438,37.8
7450,46.91
7462,52.3
7474,52.83
7486,48.47
7498,40.38
7510,30.49
7522,20.72
7534,12.24
7546,5.07
7557,-1.76
7568,-9.52
7580,-18.97
7592,-29.7
7604,-40.17
7616,-48.25
7628,-52.1
7640,-51.01
7652,-45.73
7664,-38.21
7676,-30.98
7688,-26.25
7700,-25.3
7712,-28.07
7724,-33.09
7736,-37.71
7747,-38.7
7758,-33.11
7770,-19.55
7782,0.83
7794,24.05
7806,44.06
7818,54.63
7830,51.55
7842,34.16
7854,5.54
7866,-28.85
7878,-63.17
7890,-93.1
7902,-116.72
7914,-134.33
7926,-147.56
7937,-158.62
7948,-169.63
7960,-182.46
7972,-198.37
7984,-217.59
7996,-238.8
8008,-259.03
8020,-274.03
8032,-279.43
8044,-272.18
8056,-251.69
8068,-220.29
8080,-182.63
8092,-144.31
8104,-110.23
8116,-83.33
8127,-64.08
8138,-50.93
8150,-41.36
8162,-32.93
8174,-23.98
8186,-13.64
8198,-1.6
8210,12.29
8222,27.98
8234,45.05
8246,62.34
8258,78.07
8270,90.31
8282,97.61
8294,99.53
8306,96.7
8317,90.43
8328,82.07
8340,72.56
8352,62.24
8364,51.09
8376,39.12
8388,26.67
8400,14.57
8412,4.02
8424,-3.7
8436,-7.57
8448,-7.09
8460,-2.36
8472,6.05
8484,17.33
8496,30.69
8507,45.48
8518,61.12
8530,76.96
8542,92.16
8554,105.81
8566,117.11
8578,125.54
8590,130.91
8602,133.26
8614,132.69
8626,129.36
8638,123.59
8650,116.02
8662,107.69
8674,99.82
8686,93.52
8697,89.43
8708,87.58
8720,87.46
8732,88.26
8744,89.04
8756,88.9
8768,87.14
8780,83.36
8792,77.66
8804,70.67
8816,63.52
8828,57.53
8840,53.97
8852,53.6
8864,56.47
8876,61.71
8887,67.57
8898,71.69
8910,71.62
8922,65.48
8934,52.57
8946,33.7
8958,10.94
8970,-13.01
8982,-35.58
8994,-54.93
9006,-70.1
9018,-80.75
9030,-86.82
9042,-88.28
9054,-85.24
9066,-78.24
9077,-68.41
9088,-57.43
9100,-47.07
9112,-38.71
9124,-33.01
9136,-29.84
9148,-28.51
9160,-28.16
9172,-28.08
9184,-27.82
9196,-27.18
9208,-26.07
9220,-24.5
9232,-22.52
9244,-20.35
9256,-18.25
9267,-16.49
9278,-15.11
9290,-13.87
9302,-12.27
9314,-9.72
9326,-5.88
9338,-0.85
9350,4.69
9362,9.65
9374,12.82
9386,13.24
9398,10.43
9410,4.52
9422,-3.85
9434,-13.61
9446,-23.47
9457,-32.15
9468,-38.5
9480,-41.78
9492,-41.75
9504,-38.68
9516,-33.2
9528,-26.11
9540,-18.25
9552,-10.27
9564,-2.71
9576,4.09
9588,9.95
9600,14.94
9612,19.28
9624,23.28
9636,27.15
9647,30.77
9658,33.67
9670,35.13
9682,34.51
9694,31.62
9706,26.92
9718,21.6
9730,17.26
9742,15.48
9754,17.42
9766,23.47
9778,33.19
9790,45.5
9802,59.04
9814,72.61
9826,85.58
9837,98.14
9848,111.26
9860,126.44
9872,145.15
9884,167.95
9896,193.85
9908,219.85
9920,241.33
9932,253.32
9944,252.06
9956,236.54
9968,208.91
9980,173.88
9992,137.04
10004,103.18
10016,75.24
10027,54.15
10038,39.53
10050,30.45
10062,25.72
10074,23.83
10086,22.72
10098,19.97
10110,13.44
10122,2.17
10134,-13.16
10146,-30.52
10158,-47.33
10170,-61.62
10182,-72.69
10194,-81.07
10206,-87.88
10217,-93.99
10228,-99.49
10240,-103.71
10252,-105.67
10264,-104.69
10276,-100.81
10288,-94.74
10300,-87.63
10312,-80.47
10324,-73.87
10336,-67.94
10348,-62.5
10360,-57.38
10372,-52.61
10384,-48.35
10396,-44.84
10407,-42.13
10418,-40.06
10430,-38.33
10442,-36.66
10454,-34.95
10466,-33.25
10478,-31.62
10490,-30.05
10502,-28.28
10514,-25.87
10526,-22.42
10538,-17.73
10550,-11.97
10562,-5.65
10574,0.55
10586,5.91
10597,9.92
10608,12.31
10620,13.08
10632,12.36
10644,10.37
10656,7.3
10668,3.32
10680,-1.43
10692,-6.79
10704,-12.56
10716,-18.42
10728,-23.98
10740,-28.83
10752,-32.6
10764,-35.12
10776,-36.46
10787,-36.98
10798,-37.23
10810,-37.71
10822,-38.77
10834,-40.47
10846,-42.68
10858,-45.11
10870,-47.42
10882,-49.27
10894,-50.23
10906,-49.83
10918,-47.6
10930,-43.27
10942,-36.84
10954,-28.72
10966,-19.65
10977,-10.51
10988,-2.15
11000,4.72
11012,9.68
11024,12.66
11036,13.82
11048,13.54
11060,12.2
11072,10.07
11084,7.29
11096,3.96
11108,0.15
11120,-3.96
11132,-8.15
11144,-12.27
11156,-16.37
11167,-20.62
11178,-25.22
11190,-30.07
11202,-34.64
11214,-38.01
11226,-39.17
11238,-37.43
11250,-32.77
11262,-25.92
11274,-18.1
11286,-10.64
11298,-4.53
11310,-0.17
11322,2.56
11334,4.16
11346,5.13
11357,5.81
11368,6.31
11380,6.6
11392,6.62
11404,6.44
11416,6.23
11428,6.27
11440,6.83
11452,8.06
11464,9.92
11476,12.19
11488,14.52
11500,16.49
11512,17.72
11524,17.93
11536,16.98
11547,14.9
11558,11.91
11570,8.38
11582,4.72
11594,1.3
11606,-1.73
11618,-4.39
11630,-6.91
11642,-9.52
11654,-12.37
11666,-15.38
11678,-18.22
11690,-20.38
11702,-21.3
11714,-20.6
11726,-18.14
11737,-14.14
11748,-9.14
11760,-3.88
11772,0.88
11784,4.52
11796,6.74
11808,7.54
11820,7.24
11832,6.31
11844,5.28
11856,4.54
11868,4.25
11880,4.39
11892,4.76
11904,5.16
11916,5.46
11927,5.67
11938,5.83
11950,5.99
11962,6.12
11974,6.16
11986,6.03
11998,5.66
12010,5.04
12022,4.15
12034,2.94
12046,1.4
12058,-0.47
12070,-2.57
12082,-4.74
12094,-6.85
12106,-8.93
12117,-11.18
12128,-13.88
12140,-17.23
12152,-21.15
12164,-25.2
12176,-28.68
12188,-30.82
12200,-31.11
12212,-29.4
12224,-25.99
12236,-21.49
12248,-16.64
12260,-12.09
12272,-8.27
12284,-5.43
12296,-3.59
12307,-2.69
12318,-2.55
12330,-2.97
12342,-3.69
12354,-4.49
12366,-5.22
12378,-5.81
12390,-6.27
12402,-6.63
12414,-6.87
12426,-6.88
12438,-6.5
12450,-5.65
12462,-4.44
12474,-3.14
12486,-2.18
12497,-1.95
12508,-2.68
12520,-4.32
12532,-6.59
12544,-9.08
12556,-11.37
12568,-13.18
12580,-14.4
12592,-15.05
12604,-15.29
12616,-15.35
12628,-15.51
12640,-15.98
12652,-16.85
12664,-17.98
12676,-18.91
12687,-19.02
12698,-17.66
12710,-14.5
12722,-9.62
12734,-3.55
12746,2.93
12758,9.11
12770,14.51
12782,18.96
12794,22.49
12806,25.25
12818,27.37
12830,29.06
12842,30.57
12854,32.23
12866,34.37
12877,37.13
12888,40.4
12900,43.85
12912,47.1
12924,49.91
12936,52.29
12948,54.48
12960,56.75
12972,59.29
12984,62.07
12996,64.93
13008,67.67
13020,70.23
13032,72.64
13044,75.04
13056,77.45
13067,79.81
13078,81.95
13090,83.67
13102,84.73
13114,84.81
13126,83.41
13138,79.83
13150,73.35
13162,63.56
13174,50.62
13186,35.4
13198,19.23
13210,3.44
13222,-11.14
13234,-24.41
13246,-36.88
13257,-49.29
13268,-62.19
13280,-75.68
13292,-89.33
13304,-102.36
13316,-113.85
13328,-122.95
13340,-129.02
13352,-131.78
13364,-131.37
13376,-128.26
13388,-123.17
13400,-116.78
13412,-109.55
13424,-101.64
13436,-93.03
13447,-83.73
13458,-74.03
13470,-64.52
13482,-56.1
13494,-49.68
13506,-45.91
13518,-44.79
13530,-45.42
13542,-46.11
13554,-44.78
13566,-39.6
13578,-29.75
13590,-15.84
13602,0.23
13614,15.85
13626,28.5
13637,36.56
13648,39.57
13660,38.09
13672,33.31
13684,26.59
13696,19.2
13708,12.21
13720,6.54
13732,2.88
13744,1.62
13756,2.65
13768,5.43
13780,9.1
13792,12.74
13804,15.72
13816,17.86
13827,19.36
13838,20.69
13850,22.26
13862,24.26
13874,26.6
13886,28.96
13898,30.95
13910,32.16
13922,32.36
13934,31.5
13946,29.68
13958,27.08
13970,23.95
13982,20.46
13994,16.73
14006,12.82
14017,8.86
14028,5.05
14040,1.71
14052,-0.79
14064,-2.09
14076,-1.97
14088,-0.36
14100,2.68
14112,6.98
14124,12.3
14136,18.29
14148,24.52
14160,30.52
14172,35.86
14184,40.24
14196,43.63
14207,46.17
14218,48.16
14230,49.92
14242,51.63
14254,53.38
14266,55.12
14278,56.75
14290,58.23
14302,59.53
14314,60.66
14326,61.58
14338,62.18
14350,62.31
14362,61.82
14374,60.65
14386,58.85
14397,56.55
14408,53.89
14420,50.91
14432,47.52
14444,43.55
14456,38.94
14468,33.85
14480,28.72
14492,24.16
14504,20.71
14516,18.63
14528,17.85
14540,17.99
14552,18.53
14564,18.96
14576,18.9
14587,18.09
14598,16.37
14610,13.65
14622,9.96
14634,5.41
14646,0.22
14658,-5.32
14670,-10.9
14682,-16.22
14694,-21.06
14706,-25.19
14718,-28.49
14730,-30.93
14742,-32.62
14754,-33.8
14766,-34.78
14777,-35.88
14788,-37.33
14800,-39.22
14812,-41.52
14824,-44.07
14836,-46.62
14848,-48.85
14860,-50.45
14872,-51.22
14884,-51.19
14896,-50.62
14908,-49.9
14920,-49.49
14932,-49.69
14944,-50.57
14956,-51.96
14967,-53.52
14978,-54.77
14990,-55.2
15002,-54.32
15014,-51.75
15026,-47.38
15038,-41.37
15050,-34.24
15062,-26.69
15074,-19.49
15086,-13.22
15098,-8.23
15110,-4.59
15122,-2.15
15134,-0.66
15146,0.22
15157,0.84
15168,1.54
15180,2.59
15192,4.14
15204,6.18
15216,8.61
15228,11.15
15240,13.44
15252,15.04
15264,15.53
15276,14.67
15288,12.45
15300,9.07
15312,4.85
15324,0.08
15336,-5.06
15347,-10.45
15358,-15.97
15370,-21.45
15382,-26.65
15394,-31.29
15406,-35.17
15418,-38.19
15430,-40.36
15442,-41.76
15454,-42.57
15466,-43.02
15478,-43.35
15490,-43.72
15502,-44.12
15514,-44.25
15526,-43.64
15537,-41.8
15548,-38.48
15560,-33.81
15572,-28.3
15584,-22.6
15596,-17.32
15608,-12.86
15620,-9.36
15632,-6.77
15644,-5.03
15656,-4.04
15668,-3.75
15680,-3.99
15692,-4.48
15704,-4.8
15716,-4.55
15727,-3.45
15738,-1.49
15750,1.11
15762,3.94
15774,6.6
15786,8.87
15798,10.81
15810,12.68
15822,14.78
15834,17.28
15846,20.13
15858,23.0
15870,25.49
15882,27.28
15894,28.26
15906,28.49
15917,28.16
15928,27.46
15940,26.51
15952,25.35
15964,23.99
15976,22.43
15988,20.7
16000,18.79
16012,16.67
16024,14.3
16036,11.77
16048,9.3
16060,7.26
16072,6.08
16084,6.08
16096,7.37
16107,9.79
16118,12.96
16130,16.39
16142,19.62
16154,22.32
16166,24.37
16178,25.74
16190,26.51
16202,26.75
16214,26.54
16226,25.96
16238,25.07
16250,23.99
16262,22.8
16274,21.62
16286,20.54
16297,19.63
16308,18.91
16320,18.36
16332,17.96
16344,17.68
16356,17.48
16368,17.27
16380,16.98
16392,16.52
16404,15.88
16416,15.08
16428,14.26
16440,13.56
16452,13.05
16464,12.68
16476,12.33
16487,11.87
16498,11.28
16510,10.65
16522,10.13
16534,9.84
16546,9.74
16558,9.73
16570,9.7
16582,9.76
16594,10.27
16606,11.79
16618,14.81
16630,19.57
16642,25.88
16654,33.21
16666,40.85
16677,48.17
16688,54.76
16700,60.4
16712,65.08
16724,68.83
16736,71.74
16748,73.89
16760,75.31
16772,75.95
16784,75.65
16796,74.12
16808,71.06
16820,66.22
16832,59.57
16844,51.28
16856,41.76
16867,31.54
16878,21.23
16890,11.47
16902,2.77
16914,-4.51
16926,-10.27
16938,-14.73
16950,-18.38
16962,-21.86
16974,-25.8
16986,-30.62
16998,-36.39
17010,-42.77
17022,-49.04
17034,-54.25
17046,-57.59
17057,-58.62
17068,-57.61
17080,-55.47
17092,-53.58
17104,-53.26
17116,-55.24
17128,-59.26
17140,-64.06
17152,-67.82
17164,-68.74
17176,-65.83
17188,-59.18
17200,-49.96
17212,-39.92
17224,-30.84
17236,-23.96
17247,-19.83
17258,-18.26
17270,-18.61
17282,-19.97
17294,-21.35
17306,-21.89
17318,-20.96
17330,-18.31
17342,-14.17
17354,-9.13
17366,-4.04
17378,0.34
17390,3.46
17402,5.12
17414,5.49
17426,4.9
17437,3.76
17448,2.4
17460,1.01
17472,-0.32
17484,-1.58
17496,-2.72
17508,-3.57
17520,-3.89
17532,-3.44
17544,-2.22
17556,-0.7
17568,0.15
17580,-0.94
17592,-5.02
17604,-12.2
17616,-21.22
17627,-29.47
17638,-33.71
17650,-31.2
17662,-20.76
17674,-3.2
17686,19.02
17698,42.7
17710,65.03
17722,84.11
17734,99.05
17746,109.58
17758,115.74
17770,117.72
17782,115.93
17794,110.95
17806,103.43
17817,93.68
17828,81.62
17840,66.88
17852,49.17
17864,28.81
17876,6.78
17888,-15.36
17900,-36.02
17912,-53.93
17924,-68.33
17936,-78.95
17948,-85.89
17960,-89.52
17972,-90.43
17984,-89.46
17996,-87.52
18007,-85.43
18018,-83.74
18030,-82.65
18042,-82.07
18054,-81.67
18066,-81.03
18078,-79.73
18090,-77.43
18102,-73.99
18114,-69.48
18126,-64.19
18138,-58.5
18150,-52.76
18162,-47.14
18174,-41.66
18186,-36.2
18197,-30.72
18208,-25.33
18220,-20.31
18232,-16.0
18244,-12.7
18256,-10.47
18268,-9.17
18280,-8.55
18292,-8.28
18304,-8.11
18316,-7.84
18328,-7.42
18340,-6.84
18352,-6.18
18364,-5.58
18376,-5.23
18387,-5.33
18398,-6.01
18410,-7.23
18422,-8.85
18434,-10.62
18446,-12.32
18458,-13.88
18470,-15.38
18482,-17.04
18494,-18.99
18506,-21.32
18518,-23.9
18530,-26.51
18542,-28.83
18554,-30.49
18566,-31.07
18577,-30.19
18588,-27.58
18600,-23.27
18612,-17.63
18624,-11.37
18636,-5.32
18648,-0.17
18660,3.71
18672,6.26
18684,7.68
18696,8.19
18708,7.99
18720,7.23
18732,6.03
18744,4.55
18756,3.0
18767,1.52
18778,0.23
18790,-0.86
18802,-1.73
18814,-2.37
18826,-2.77
18838,-2.91
18850,-2.86
18862,-2.69
18874,-2.48
18886,-2.16
18898,-1.48
18910,0.07
18922,3.14
18934,8.33
18946,15.97
18957,25.97
18968,37.77
18980,50.49
18992,63.15
19004,74.91
19016,85.18
19028,93.69
19040,100.45
19052,105.69
19064,109.74
19076,112.97
19088,115.67
19100,118.01
19112,119.98
19124,121.44
19136,122.31
19147,122.61
19158,122.58
19170,122.59
19182,123.03
19194,124.2
19206,126.26
19218,129.26
19230,133.09
19242,137.37
19254,141.27
19266,143.42
19278,142.13
19290,135.87
19302,123.79
19314,106.2
19326,84.46
19337,60.62
19348,36.64
19360,13.96
19372,-6.67
19384,-24.97
19396,-40.77
19408,-53.82
19420,-63.86
19432,-70.93
19444,-75.45
19456,-78.3
19468,-80.4
19480,-82.32
19492,-84.0
19504,-84.9
19516,-84.28
19527,-81.72
19538,-77.33
19550,-71.78
19562,-65.94
19574,-60.57
19586,-56.04
19598,-52.35
19610,-49.31
19622,-46.77
19634,-44.78
19646,-43.43
19658,-42.75
19670,-42.54
19682,-42.29
19694,-41.39
19706,-39.29
19717,-35.73
19728,-30.81
19740,-25.0
19752,-18.99
19764,-13.49
19776,-9.06
19788,-6.01
19800,-4.41
19812,-4.13
19824,-5.02
19836,-6.98
19848,-9.98
19860,-14.05
19872,-19.11
19884,-24.91
19896,-31.0
19907,-36.87
19918,-42.08
19930,-46.4
19942,-49.93
19954,-52.99
19966,-56.01
19978,-59.31
19990,-62.94
20002,-66.58
20014,-69.61
20026,-71.29
20038,-71.0
20050,-68.47
20062,-63.85
20074,-57.72
20086,-50.89
20097,-44.15
20108,-38.05
20120,-32.85
20132,-28.54
20144,-24.99
20156,-22.06
20168,-19.74
20180,-18.12
20192,-17.29
20204,-17.19
20216,-17.56
20228,-18.06
20240,-18.33
20252,-18.2
20264,-17.83
20276,-17.65
20287,-18.17
20298,-19.71
20310,-22.2
20322,-25.13
20334,-27.8
20346,-29.63
20358,-30.52
20370,-30.94
20382,-31.73
20394,-33.64
20406,-36.99
20418,-41.42
20430,-46.11
20442,-50.21
20454,-53.29
20466,-55.51
20477,-57.57
20488,-60.29
20500,-64.27
20512,-69.64
20524,-76.1
20536,-83.04
20548,-89.63
20560,-94.76
20572,-97.02
20584,-94.92
20596,-87.35
20608,-74.33
20620,-57.26
20632,-38.53
20644,-20.57
20656,-4.68
20667,9.49
20678,23.58
20690,39.38
20702,57.72
20714,77.87
20726,97.91
20738,115.58
20750,129.2
20762,138.03
20774,142.07
20786,141.63
20798,137.02
20810,128.66
20822,117.26
20834,103.96
20846,90.21
20857,77.41
20868,66.55
20880,57.95
20892,51.37
20904,46.18
20916,41.72
20928,37.56
20940,33.6
20952,30.04
20964,27.22
20976,25.42
20988,24.75
