seconds,BVP
6,-27.41
18,-19.77
30,-12.21
42,-5.43
54,0.11
66,4.23
78,6.96
89,8.45
100,8.91
112,8.59
124,7.79
136,6.84
148,6.11
160,5.9
172,6.4
184,7.66
196,9.56
208,11.88
220,14.36
232,16.72
244,18.71
256,20.19
268,21.1
279,21.46
290,21.36
302,20.88
314,20.1
326,19.14
338,18.07
350,16.99
362,15.96
374,14.94
386,13.82
398,12.43
410,10.7
422,8.65
434,6.43
446,4.2
458,2.05
469,-0.05
480,-2.16
492,-4.37
504,-6.66
516,-8.94
528,-11.14
540,-13.3
552,-15.59
564,-18.25
576,-21.5
588,-25.44
600,-29.99
612,-34.92
624,-39.82
636,-44.18
648,-47.38
659,-48.85
670,-48.2
682,-45.36
694,-40.63
706,-34.63
718,-28.12
730,-21.85
742,-16.45
754,-12.38
766,-9.98
778,-9.42
790,-10.66
802,-13.44
814,-17.29
826,-21.63
838,-25.96
849,-30.0
860,-33.76
872,-37.38
884,-41.04
896,-44.68
908,-47.94
920,-50.16
932,-50.52
944,-48.21
956,-42.69
968,-33.91
980,-22.49
992,-9.77
1004,2.36
1016,11.86
1028,17.02
1039,17.1
1050,12.53
1062,4.85
1074,-3.75
1086,-11.09
1098,-15.66
1110,-16.92
1122,-15.23
1134,-11.45
1146,-6.5
1158,-0.98
1170,4.85
1182,10.93
1194,17.08
1206,22.9
1218,27.87
1229,31.59
1240,34.07
1252,35.84
1264,37.79
1276,40.75
1288,45.13
1300,50.69
1312,56.66
1324,62.0
1336,65.85
1348,67.82
1360,68.15
1372,67.55
1384,67.01
1396,67.41
1408,69.21
1419,72.37
1430,76.43
1442,80.85
1454,85.34
1466,89.99
1478,95.07
1490,100.71
1502,106.63
1514,112.13
1526,116.41
1538,119.03
1550,120.22
1562,120.73
1574,121.39
1586,122.54
1598,123.7
1609,123.66
1620,121.01
1632,114.69
1644,104.46
1656,90.97
1668,75.48
1680,59.5
1692,44.32
1704,30.81
1716,19.32
1728,9.81
1740,1.96
1752,-4.6
1764,-10.25
1776,-15.29
1788,-20.01
1799,-24.58
1810,-29.13
1822,-33.63
1834,-37.95
1846,-41.89
1858,-45.25
1870,-47.96
1882,-50.12
1894,-51.9
1906,-53.48
1918,-54.95
1930,-56.26
1942,-57.3
1954,-58.0
1966,-58.35
1978,-58.33
1989,-57.8
2000,-56.4
2012,-53.58
2024,-48.83
2036,-41.92
2048,-33.06
2060,-22.94
2072,-12.45
2084,-2.41
2096,6.65
2108,14.59
2120,21.46
2132,27.36
2144,32.19
2156,35.69
2168,37.53
2179,37.51
2190,35.67
2202,32.36
2214,28.13
2226,23.56
2238,19.15
2250,15.14
2262,11.55
2274,8.24
2286,5.02
2298,1.79
2310,-1.44
2322,-4.56
2334,-7.53
2346,-10.34
2358,-13.11
2369,-15.99
2380,-19.08
2392,-22.34
2404,-25.62
2416,-28.74
2428,-31.54
2440,-33.99
2452,-36.16
2464,-38.18
2476,-40.15
2488,-42.14
2500,-44.13
2512,-46.1
2524,-48.01
2536,-49.87
2548,-51.69
2559,-53.47
2570,-55.21
2582,-56.92
2594,-58.7
2606,-60.75
2618,-63.36
2630,-66.81
2642,-71.23
2654,-76.51
2666,-82.22
2678,-87.69
2690,-92.15
2702,-94.89
2714,-95.43
2726,-93.65
2738,-89.8
2749,-84.4
2760,-78.05
2772,-71.3
2784,-64.47
2796,-57.68
2808,-50.94
2820,-44.32
2832,-38.04
2844,-32.47
2856,-27.95
2868,-24.69
2880,-22.68
2892,-21.75
2904,-21.7
2916,-22.38
2928,-23.73
2939,-25.59
2950,-27.61
2962,-29.19
2974,-29.66
2986,-28.49
2998,-25.58
3010,-21.26
3022,-16.19
3034,-11.09
3046,-6.48
3058,-2.57
3070,0.66
3082,3.41
3094,5.83
3106,7.98
3118,9.88
3129,11.5
3140,12.88
3152,14.1
3164,15.26
3176,16.36
3188,17.28
3200,17.81
3212,17.71
3224,16.89
3236,15.5
3248,13.84
3260,12.29
3272,11.1
3284,10.28
3296,9.65
3308,8.9
3319,7.78
3330,6.17
3342,4.13
3354,1.84
3366,-0.5
3378,-2.77
3390,-4.9
3402,-6.96
3414,-9.09
3426,-11.48
3438,-14.34
3450,-17.8
3462,-21.83
3474,-26.06
3486,-29.87
3498,-32.38
3509,-32.72
3520,-30.38
3532,-25.39
3544,-18.33
3556,-10.19
3568,-2.03
3580,5.36
3592,11.52
3604,16.38
3616,20.04
3628,22.66
3640,24.4
3652,25.4
3664,25.88
3676,26.04
3688,26.1
3699,26.18
3710,26.3
3722,26.46
3734,26.66
3746,26.94
3758,27.37
3770,27.96
3782,28.68
3794,29.43
3806,30.09
3818,30.6
3830,30.95
3842,31.13
3854,31.14
3866,30.95
3878,30.52
3889,29.88
3900,29.12
3912,28.34
3924,27.59
3936,26.81
3948,25.88
3960,24.7
3972,23.3
3984,21.83
3996,20.51
4008,19.48
4020,18.69
4032,17.95
4044,17.01
4056,15.68
4068,13.97
4079,12.07
4090,10.19
4102,8.47
4114,6.92
4126,5.34
4138,3.55
4150,1.4
4162,-1.1
4174,-3.8
4186,-6.46
4198,-8.89
4210,-11.0
4222,-12.88
4234,-14.74
4246,-16.79
4258,-19.26
4269,-22.25
4280,-25.69
4292,-29.29
4304,-32.52
4316,-34.69
4328,-35.07
4340,-33.19
4352,-28.95
4364,-22.74
4376,-15.32
4388,-7.58
4400,-0.32
4412,5.95
4424,11.02
4436,14.92
4448,17.75
4459,19.63
4470,20.68
4482,21.01
4494,20.79
4506,20.2
4518,19.51
4530,18.93
4542,18.64
4554,18.71
4566,19.12
4578,19.8
4590,20.63
4602,21.51
4614,22.36
4626,23.13
4638,23.79
4649,24.22
4660,24.26
4672,23.77
4684,22.68
4696,21.09
4708,19.27
4720,17.52
4732,16.06
4744,14.88
4756,13.79
4768,12.55
4780,11.01
4792,9.21
4804,7.41
4816,5.83
4828,4.59
4839,3.59
4850,2.58
4862,1.31
4874,-0.3
4886,-2.15
4898,-4.08
4910,-5.92
4922,-7.66
4934,-9.36
4946,-11.19
4958,-13.3
4970,-15.78
4982,-18.67
4994,-21.87
5006,-25.13
5018,-27.99
5029,-29.9
5040,-30.27
5052,-28.72
5064,-25.2
5076,-20.01
5088,-13.76
5100,-7.13
5112,-0.76
5124,4.91
5136,9.56
5148,13.08
5160,15.42
5172,16.63
5184,16.86
5196,16.31
5208,15.28
5219,14.08
5230,13.05
5242,12.4
5254,12.21
5266,12.43
5278,12.82
5290,13.16
5302,13.3
5314,13.22
5326,13.01
5338,12.79
5350,12.6
5362,12.43
5374,12.25
5386,12.06
5398,11.91
5409,11.85
5420,11.92
5432,12.01
5444,11.99
5456,11.73
5468,11.19
5480,10.45
5492,9.64
5504,8.91
5516,8.29
5528,7.73
5540,7.07
5552,6.18
5564,4.93
5576,3.31
5588,1.41
5599,-0.64
5610,-2.75
5622,-4.84
5634,-6.94
5646,-9.12
5658,-11.5
5670,-14.22
5682,-17.41
5694,-21.12
5706,-25.25
5718,-29.45
5730,-33.13
5742,-35.56
5754,-36.06
5766,-34.26
5778,-30.2
5789,-24.43
5800,-17.74
5812,-11.01
5824,-4.91
5836,0.2
5848,4.27
5860,7.44
5872,9.88
5884,11.7
5896,12.93
5908,13.61
5920,13.8
5932,13.69
5944,13.49
5956,13.45
5968,13.66
5979,14.1
5990,14.65
6002,15.21
6014,15.72
6026,16.2
6038,16.75
6050,17.39
6062,18.13
6074,18.89
6086,19.55
6098,19.99
6110,20.1
6122,19.84
6134,19.26
6146,18.44
6158,17.52
6169,16.53
6180,15.46
6192,14.2
6204,12.67
6216,10.89
6228,9.03
6240,7.34
6252,6.03
6264,5.13
6276,4.41
6288,3.54
6300,2.18
6312,0.23
6324,-2.17
6336,-4.7
6348,-7.04
6359,-9.03
6370,-10.7
6382,-12.24
6394,-13.87
6406,-15.78
6418,-18.08
6430,-20.83
6442,-24.01
6454,-27.42
6466,-30.68
6478,-33.16
6490,-34.13
6502,-33.0
6514,-29.54
6526,-24.02
6538,-17.15
6549,-9.85
6560,-3.0
6572,2.84
6584,7.45
6596,10.96
6608,13.6
6620,15.61
6632,17.12
6644,18.13
6656,18.62
6668,18.62
6680,18.24
6692,17.71
6704,17.26
6716,17.05
6728,17.13
6739,17.44
6750,17.89
6762,18.42
6774,19.02
6786,19.68
6798,20.36
6810,20.92
6822,21.18
6834,20.95
6846,20.17
6858,18.9
6870,17.34
6882,15.72
6894,14.25
6906,13.05
6918,12.09
6929,11.24
6940,10.31
6952,9.14
6964,7.7
6976,6.04
6988,4.32
7000,2.71
7012,1.29
7024,0.07
7036,-0.99
7048,-1.99
7060,-3.04
7072,-4.2
7084,-5.54
7096,-7.07
7108,-8.77
7119,-10.56
7130,-12.34
7142,-14.0
7154,-15.48
7166,-16.78
7178,-17.98
7190,-19.22
7202,-20.68
7214,-22.53
7226,-24.89
7238,-27.73
7250,-30.79
7262,-33.54
7274,-35.32
7286,-35.42
7298,-33.43
7309,-29.35
7320,-23.63
7332,-17.03
7344,-10.38
7356,-4.31
7368,0.79
7380,4.84
7392,7.89
7404,10.03
7416,11.35
7428,11.91
7440,11.84
7452,11.31
7464,10.54
7476,9.79
7488,9.23
7499,8.96
7510,9.02
7522,9.34
7534,9.87
7546,10.55
7558,11.31
7570,12.07
7582,12.77
7594,13.3
7606,13.63
7618,13.76
7630,13.71
7642,13.46
7654,12.94
7666,12.06
7678,10.75
7689,9.06
7700,7.21
7712,5.42
7724,3.93
7736,2.77
7748,1.81
7760,0.81
7772,-0.43
7784,-1.96
7796,-3.7
7808,-5.46
7820,-7.1
7832,-8.54
7844,-9.81
7856,-11.06
7868,-12.42
7879,-14.03
7890,-15.99
7902,-18.36
7914,-21.09
7926,-24.02
7938,-26.8
7950,-28.91
7962,-29.77
7974,-28.9
7986,-26.1
7998,-21.5
8010,-15.61
8022,-9.09
8034,-2.66
8046,3.08
8058,7.77
8069,11.27
8080,13.64
8092,15.08
8104,15.82
8116,16.03
8128,15.84
8140,15.31
8152,14.5
8164,13.51
8176,12.52
8188,11.77
8200,11.39
8212,11.44
8224,11.87
8236,12.55
8248,13.34
8259,14.13
8270,14.83
8282,15.32
8294,15.51
8306,15.3
8318,14.66
8330,13.61
8342,12.25
8354,10.71
8366,9.15
8378,7.68
8390,6.33
8402,5.06
8414,3.75
8426,2.29
8438,0.69
8449,-0.92
8460,-2.33
8472,-3.32
8484,-3.86
8496,-4.13
8508,-4.47
8520,-5.22
8532,-6.54
8544,-8.33
8556,-10.28
8568,-12.06
8580,-13.46
8592,-14.56
8604,-15.58
8616,-16.83
8628,-18.58
8639,-20.98
8650,-24.02
8662,-27.57
8674,-31.3
8686,-34.72
8698,-37.13
8710,-37.86
8722,-36.41
8734,-32.69
8746,-27.11
8758,-20.47
8770,-13.63
8782,-7.34
8794,-1.97
8806,2.4
8818,5.88
8829,8.59
8840,10.62
8852,12.01
8864,12.84
8876,13.24
8888,13.43
8900,13.63
8912,14.01
8924,14.66
8936,15.61
8948,16.79
8960,18.13
8972,19.52
8984,20.9
8996,22.18
9008,23.27
9019,24.1
9030,24.55
9042,24.53
9054,23.99
9066,22.94
9078,21.49
9090,19.77
9102,17.88
9114,15.91
9126,13.9
9138,11.84
9150,9.75
9162,7.63
9174,5.47
9186,3.26
9198,0.99
9209,-1.31
9220,-3.53
9232,-5.51
9244,-7.07
9256,-8.16
9268,-8.89
9280,-9.49
9292,-10.25
9304,-11.29
9316,-12.54
9328,-13.77
9340,-14.78
9352,-15.52
9364,-16.2
9376,-17.18
9388,-18.83
9399,-21.34
9410,-24.63
9422,-28.36
9434,-31.97
9446,-34.81
9458,-36.25
9470,-35.76
9482,-33.13
9494,-28.5
9506,-22.39
9518,-15.53
9530,-8.74
9542,-2.64
9554,2.33
9566,6.03
9578,8.47
9589,9.82
9600,10.31
9612,10.2
9624,9.73
9636,9.07
9648,8.33
9660,7.56
9672,6.84
9684,6.32
9696,6.13
9708,6.35
9720,6.98
9732,7.86
9744,8.82
9756,9.7
9768,10.46
9779,11.11
9790,11.73
9802,12.35
9814,12.95
9826,13.5
9838,14.0
9850,14.46
9862,14.95
9874,15.46
9886,15.89
9898,16.08
9910,15.83
9922,14.99
9934,13.53
9946,11.51
9958,9.11
9969,6.56
9980,4.12
9992,2.09
10004,0.76
10016,0.36
10028,0.98
10040,2.45
10052,4.37
10064,6.23
10076,7.56
10088,8.07
10100,7.74
10112,6.66
10124,4.98
10136,2.74
10148,-0.15
10159,-3.77
10170,-8.11
10182,-12.94
10194,-17.75
10206,-21.86
10218,-24.54
10230,-25.25
10242,-23.75
10254,-20.18
10266,-14.99
10278,-8.84
10290,-2.42
10302,3.67
10314,8.99
10326,13.19
10338,16.01
10349,17.29
10360,16.98
10372,15.18
10384,12.18
10396,8.36
10408,4.17
10420,0.01
10432,-3.74
10444,-6.78
10456,-8.93
10468,-10.11
10480,-10.39
10492,-9.99
10504,-9.2
10516,-8.31
10528,-7.56
10539,-7.08
10550,-6.93
10562,-7.12
10574,-7.64
10586,-8.42
10598,-9.31
10610,-10.07
10622,-10.48
10634,-10.43
10646,-9.93
10658,-9.15
10670,-8.35
10682,-7.81
10694,-7.71
10706,-8.15
10718,-9.05
10729,-10.2
10740,-11.37
10752,-12.37
10764,-13.09
10776,-13.58
10788,-13.96
10800,-14.36
10812,-14.9
10824,-15.67
10836,-16.66
10848,-17.82
10860,-18.93
10872,-19.64
10884,-19.45
10896,-17.88
10908,-14.66
10919,-9.84
10930,-3.86
10942,2.61
10954,8.84
10966,14.27
10978,18.57
10990,21.71
11002,23.85
11014,25.22
11026,26.02
11038,26.41
11050,26.44
11062,26.14
11074,25.54
11086,24.71
11098,23.71
11109,22.57
11120,21.3
11132,19.87
11144,18.28
11156,16.58
11168,14.82
11180,13.06
11192,11.3
11204,9.48
11216,7.55
11228,5.56
11240,3.64
11252,1.97
11264,0.76
11276,0.03
11288,-0.36
11299,-0.71
11310,-1.29
11322,-2.24
11334,-3.52
11346,-4.89
11358,-6.1
11370,-6.97
11382,-7.48
11394,-7.83
11406,-8.29
11418,-9.1
11430,-10.4
11442,-12.12
11454,-14.09
11466,-16.05
11478,-17.75
11489,-19.03
11500,-19.84
11512,-20.31
11524,-20.7
11536,-21.36
11548,-22.62
11560,-24.6
11572,-27.18
11584,-29.85
11596,-31.88
11608,-32.47
11620,-31.08
11632,-27.59
11644,-22.39
11656,-16.17
11668,-9.74
11679,-3.75
11690,1.42
11702,5.64
11714,8.95
11726,11.42
11738,13.09
11750,14.0
11762,14.21
11774,13.82
11786,13.01
11798,12.02
11810,11.08
11822,10.37
11834,10.02
11846,10.02
11858,10.28
11869,10.67
11880,11.09
11892,11.49
11904,11.9
11916,12.37
11928,12.92
11940,13.43
11952,13.74
11964,13.68
11976,13.15
11988,12.22
12000,11.03
12012,9.78
12024,8.57
12036,7.44
12048,6.33
12059,5.22
12070,4.09
12082,2.99
12094,2.0
12106,1.12
12118,0.36
12130,-0.33
12142,-0.94
12154,-1.47
12166,-1.91
12178,-2.27
12190,-2.7
12202,-3.36
12214,-4.39
12226,-5.83
12238,-7.61
12249,-9.54
12260,-11.41
12272,-13.08
12284,-14.46
12296,-15.57
12308,-16.48
12320,-17.32
12332,-18.2
12344,-19.34
12356,-20.92
12368,-23.12
12380,-25.9
12392,-28.97
12404,-31.68
12416,-33.25
12428,-32.94
12439,-30.41
12450,-25.78
12462,-19.65
12474,-12.85
12486,-6.17
12498,-0.16
12510,4.9
12522,8.96
12534,12.07
12546,14.3
12558,15.72
12570,16.43
12582,16.55
12594,16.24
12606,15.68
12618,15.0
12629,14.35
12640,13.88
12652,13.66
12664,13.71
12676,13.99
12688,14.39
12700,14.84
12712,15.25
12724,15.57
12736,15.77
12748,15.78
12760,15.55
12772,15.02
12784,14.19
12796,13.11
12808,11.89
12819,10.7
12830,9.66
12842,8.88
12854,8.35
12866,7.95
12878,7.48
12890,6.75
12902,5.67
12914,4.31
12926,2.84
12938,1.47
12950,0.34
12962,-0.5
12974,-1.13
12986,-1.67
12998,-2.25
13009,-2.98
13020,-3.94
13032,-5.19
13044,-6.68
13056,-8.33
13068,-9.95
13080,-11.4
13092,-12.61
13104,-13.66
13116,-14.73
13128,-16.09
13140,-17.98
13152,-20.51
13164,-23.6
13176,-26.93
13188,-29.99
13199,-32.12
13210,-32.66
13222,-31.16
13234,-27.47
13246,-21.87
13258,-15.0
13270,-7.71
13282,-0.85
13294,4.91
13306,9.25
13318,12.17
13330,13.88
13342,14.72
13354,14.99
13366,14.85
13378,14.41
13389,13.72
13400,12.9
13412,12.13
13424,11.63
13436,11.56
13448,11.95
13460,12.7
13472,13.58
13484,14.38
13496,14.93
13508,15.19
13520,15.19
13532,14.99
13544,14.64
13556,14.1
13568,13.33
13579,12.29
13590,11.04
13602,9.68
13614,8.29
13626,6.96
13638,5.64
13650,4.28
13662,2.8
13674,1.22
13686,-0.38
13698,-1.83
13710,-3.06
13722,-4.07
13734,-4.98
13746,-5.94
13758,-7.04
13769,-8.25
13780,-9.49
13792,-10.65
13804,-11.71
13816,-12.79
13828,-14.07
13840,-15.73
13852,-17.86
13864,-20.33
13876,-22.87
13888,-25.02
13900,-26.26
13912,-26.11
13924,-24.28
13936,-20.73
13948,-15.74
13959,-9.82
13970,-3.61
13982,2.25
13994,7.23
14006,11.06
14018,13.65
14030,15.08
14042,15.56
14054,15.31
14066,14.57
14078,13.58
14090,12.55
14102,11.63
14114,10.97
14126,10.61
14138,10.55
14149,10.73
14160,11.04
14172,11.39
14184,11.71
14196,11.98
14208,12.19
14220,12.33
14232,12.36
14244,12.21
14256,11.83
14268,11.24
14280,10.5
14292,9.72
14304,8.96
14316,8.19
14328,7.27
14339,6.08
14350,4.54
14362,2.74
14374,0.86
14386,-0.92
14398,-2.48
14410,-3.82
14422,-5.08
14434,-6.38
14446,-7.79
14458,-9.33
14470,-10.91
14482,-12.46
14494,-13.92
14506,-15.3
14518,-16.59
14529,-17.83
14540,-19.09
14552,-20.46
14564,-22.13
14576,-24.3
14588,-27.06
14600,-30.29
14612,-33.56
14624,-36.15
14636,-37.22
14648,-36.08
14660,-32.5
14672,-26.77
14684,-19.7
14696,-12.26
14708,-5.33
14719,0.56
14730,5.27
14742,8.91
14754,11.65
14766,13.63
14778,14.87
14790,15.38
14802,15.22
14814,14.56
14826,13.63
14838,12.69
14850,11.9
14862,11.4
14874,11.26
14886,11.5
14898,12.07
14909,12.88
14920,13.74
14932,14.51
14944,15.08
14956,15.43
14968,15.58
14980,15.53
14992,15.23
15004,14.6
15016,13.57
15028,12.13
15040,10.34
15052,8.29
15064,6.09
15076,3.92
15088,2.09
15099,0.98
15110,1.01
15122,2.47
15134,5.36
15146,9.3
15158,13.69
15170,17.83
15182,21.17
15194,23.4
15206,24.4
15218,24.23
15230,22.99
15242,20.84
15254,18.03
15266,14.9
15278,11.81
15289,9.06
15300,6.79
15312,4.91
15324,3.19
15336,1.33
15348,-0.96
15360,-3.75
15372,-6.92
15384,-10.09
15396,-12.7
15408,-14.13
15420,-13.89
15432,-11.77
15444,-7.97
15456,-3.08
15468,2.1
15479,6.73
15490,10.19
15502,12.19
15514,12.75
15526,12.08
15538,10.47
15550,8.15
15562,5.33
15574,2.16
15586,-1.18
15598,-4.48
15610,-7.49
15622,-9.94
15634,-11.6
15646,-12.35
15658,-12.23
15669,-11.45
15680,-10.32
15692,-9.19
15704,-8.3
15716,-7.71
15728,-7.35
15740,-7.06
15752,-6.69
15764,-6.18
15776,-5.49
15788,-4.63
15800,-3.59
15812,-2.44
15824,-1.33
15836,-0.51
15848,-0.22
15859,-0.56
15870,-1.43
15882,-2.54
15894,-3.58
15906,-4.33
15918,-4.74
15930,-4.92
15942,-4.98
15954,-4.98
15966,-4.95
15978,-4.88
15990,-4.89
16002,-5.18
16014,-6.05
16026,-7.75
16038,-10.4
16049,-13.92
16060,-18.04
16072,-22.34
16084,-26.29
16096,-29.34
16108,-30.95
16120,-30.73
16132,-28.51
16144,-24.45
16156,-19.01
16168,-12.83
16180,-6.64
16192,-1.05
16204,3.55
16216,7.0
16228,9.34
16239,10.75
16250,11.43
16262,11.58
16274,11.36
16286,11.0
16298,10.69
16310,10.69
16322,11.15
16334,12.12
16346,13.5
16358,15.06
16370,16.59
16382,17.96
16394,19.18
16406,20.34
16418,21.47
16429,22.5
16440,23.19
16452,23.27
16464,22.6
16476,21.22
16488,19.34
16500,17.22
16512,15.07
16524,13.0
16536,10.95
16548,8.85
16560,6.63
16572,4.35
16584,2.11
16596,0.07
16608,-1.68
16619,-3.16
16630,-4.52
16642,-5.96
16654,-7.63
16666,-9.59
16678,-11.72
16690,-13.84
16702,-15.75
16714,-17.35
16726,-18.69
16738,-20.0
16750,-21.58
16762,-23.72
16774,-26.56
16786,-29.97
16798,-33.53
16809,-36.51
16820,-38.08
16832,-37.51
16844,-34.48
16856,-29.21
16868,-22.41
16880,-15.02
16892,-7.96
16904,-1.83
16916,3.17
16928,7.11
16940,10.17
16952,12.46
16964,14.01
16976,14.79
16988,14.81
16999,14.24
17010,13.34
17022,12.4
17034,11.66
17046,11.27
17058,11.29
17070,11.68
17082,12.43
17094,13.45
17106,14.65
17118,15.9
17130,17.06
17142,17.97
17154,18.52
17166,18.64
17178,18.28
17189,17.47
17200,16.21
17212,14.59
17224,12.72
17236,10.79
17248,8.97
17260,7.37
17272,6.02
17284,4.86
17296,3.77
17308,2.66
17320,1.43
17332,0.07
17344,-1.42
17356,-3.04
17368,-4.75
17379,-6.54
17390,-8.35
17402,-10.15
17414,-11.86
17426,-13.43
17438,-14.79
17450,-15.86
17462,-16.58
17474,-16.88
17486,-16.72
17498,-16.09
17510,-15.02
17522,-13.57
17534,-11.92
17546,-10.28
17558,-8.84
17569,-7.56
17580,-6.03
17592,-3.43
17604,1.26
17616,8.91
17628,19.83
17640,33.55
17652,48.88
17664,64.36
17676,78.65
17688,91.03
17700,101.45
17712,110.39
17724,118.54
17736,126.43
17748,134.25
17759,141.79
17770,148.44
17782,153.21
17794,154.81
17806,151.9
17818,143.46
17830,129.28
17842,110.2
17854,88.03
17866,65.08
17878,43.51
17890,24.71
17902,9.2
17914,-3.19
17926,-12.93
17938,-20.46
17949,-26.14
17960,-30.31
17972,-33.45
17984,-36.13
17996,-38.8
18008,-41.61
18020,-44.35
18032,-46.54
18044,-47.66
18056,-47.42
18068,-45.8
18080,-43.13
18092,-39.94
18104,-36.9
18116,-34.66
18128,-33.8
18139,-34.63
18150,-37.15
18162,-41.05
18174,-45.81
18186,-50.87
18198,-55.8
18210,-60.36
18222,-64.5
18234,-68.25
18246,-71.62
18258,-74.54
18270,-76.89
18282,-78.53
18294,-79.41
18306,-79.58
18318,-79.22
18329,-78.6
18340,-78.03
18352,-77.73
18364,-77.77
18376,-78.09
18388,-78.51
18400,-78.72
18412,-78.4
18424,-77.15
18436,-74.61
18448,-70.51
18460,-64.77
18472,-57.56
18484,-49.33
18496,-40.76
18508,-32.54
18519,-25.32
18530,-19.53
18542,-15.39
18554,-12.9
18566,-11.89
18578,-12.07
18590,-13.04
18602,-14.35
18614,-15.53
18626,-16.13
18638,-15.73
18650,-14.0
18662,-10.76
18674,-6.08
18686,-0.3
18698,6.03
18709,12.33
18720,18.17
18732,23.38
18744,28.04
18756,32.31
18768,36.29
18780,39.93
18792,43.1
18804,45.74
18816,47.96
18828,50.03
18840,52.27
18852,54.89
18864,57.95
18876,61.35
18888,64.97
18899,68.69
18910,72.38
18922,75.9
18934,78.96
18946,81.27
18958,82.59
18970,82.89
18982,82.35
18994,81.33
19006,80.08
19018,78.47
19030,75.73
19042,70.47
19054,60.98
19066,45.77
19078,24.13
19089,-3.31
19100,-34.5
19112,-66.27
19124,-94.99
19136,-117.43
19148,-131.44
19160,-136.38
19172,-133.1
19184,-123.62
19196,-110.53
19208,-96.42
19220,-83.42
19232,-72.85
19244,-65.15
19256,-59.99
19268,-56.56
19279,-53.9
19290,-51.17
19302,-47.86
19314,-43.77
19326,-38.92
19338,-33.47
19350,-27.64
19362,-21.66
19374,-15.8
19386,-10.29
19398,-5.33
19410,-1.0
19422,2.7
19434,5.88
19446,8.67
19458,11.14
19469,13.28
19480,15.0
19492,16.14
19504,16.58
19516,16.3
19528,15.46
19540,14.32
19552,13.18
19564,12.16
19576,11.16
19588,9.93
19600,8.14
19612,5.7
19624,2.74
19636,-0.39
19648,-3.32
19659,-5.8
19670,-7.8
19682,-9.47
19694,-11.01
19706,-12.54
19718,-14.1
19730,-15.6
19742,-16.97
19754,-18.14
19766,-19.17
19778,-20.14
19790,-21.16
19802,-22.33
19814,-23.71
19826,-25.33
19838,-27.15
19849,-28.99
19860,-30.54
19872,-31.38
19884,-31.03
19896,-29.13
19908,-25.54
19920,-20.41
19932,-14.22
19944,-7.61
19956,-1.25
19968,4.38
19980,8.99
19992,12.59
20004,15.33
20016,17.44
20028,19.08
20039,20.33
20050,21.16
20062,21.55
20074,21.55
20086,21.3
20098,21.04
20110,20.93
20122,21.03
20134,21.24
20146,21.36
20158,21.21
20170,20.66
20182,19.7
20194,18.38
20206,16.71
20218,14.69
20229,12.3
20240,9.59
20252,6.66
20264,3.68
20276,0.77
20288,-2.07
20300,-4.99
20312,-8.22
20324,-11.96
20336,-16.26
20348,-21.04
20360,-26.06
20372,-31.07
20384,-35.86
20396,-40.34
20408,-44.59
20419,-48.84
20430,-53.36
20442,-58.43
20454,-64.17
20466,-70.51
20478,-77.13
20490,-83.61
20502,-89.58
20514,-94.81
20526,-99.23
20538,-102.91
20550,-105.9
20562,-108.27
20574,-110.05
20586,-111.2
20598,-111.53
20609,-110.59
20620,-107.71
20632,-102.12
20644,-93.34
20656,-81.42
20668,-67.09
20680,-51.61
20692,-36.36
20704,-22.38
20716,-10.14
20728,0.44
20740,9.63
20752,17.63
20764,24.33
20776,29.49
20788,32.93
20799,34.82
20810,35.7
20822,36.33
20834,37.44
20846,39.47
20858,42.47
20870,46.22
20882,50.37
20894,54.65
20906,58.84
20918,62.8
20930,66.41
20942,69.56
20954,72.14
20966,74.07
20978,75.34
20989,75.96
