seconds,BVP
0,13.26
12,13.18
24,12.54
36,11.31
48,9.59
60,7.58
71,5.52
82,3.6
94,1.91
106,0.33
118,-1.31
130,-3.22
142,-5.48
154,-8.06
166,-10.8
178,-13.53
190,-16.07
202,-18.38
214,-20.49
226,-22.51
238,-24.62
250,-26.97
261,-29.6
272,-32.4
284,-35.02
296,-36.91
308,-37.48
320,-36.25
332,-33.04
344,-28.0
356,-21.59
368,-14.49
380,-7.35
392,-0.76
404,4.85
416,9.22
428,12.25
440,14.01
451,14.66
462,14.51
474,13.88
486,13.05
498,12.24
510,11.6
522,11.18
534,11.02
546,11.14
558,11.48
570,11.97
582,12.5
594,12.97
606,13.27
618,13.37
630,13.25
641,12.91
652,12.35
664,11.55
676,10.44
688,8.97
700,7.07
712,4.73
724,2.03
736,-0.83
748,-3.66
760,-6.29
772,-8.66
784,-10.92
796,-13.28
808,-16.02
820,-19.27
831,-23.0
842,-26.98
854,-30.84
866,-34.1
878,-36.26
890,-36.86
902,-35.58
914,-32.33
926,-27.33
938,-21.07
950,-14.22
962,-7.42
974,-1.26
986,3.93
998,7.99
1010,10.92
1021,12.81
1032,13.76
1044,13.9
1056,13.43
1068,12.58
1080,11.59
1092,10.72
1104,10.15
1116,9.97
1128,10.19
1140,10.74
1152,11.53
1164,12.41
1176,13.25
1188,13.92
1200,14.28
1211,14.28
1222,13.86
1234,13.06
1246,11.96
1258,10.65
1270,9.13
1282,7.36
1294,5.28
1306,2.85
1318,0.15
1330,-2.68
1342,-5.46
1354,-8.08
1366,-10.54
1378,-12.96
1390,-15.53
1401,-18.43
1412,-21.74
1424,-25.38
1436,-29.15
1448,-32.68
1460,-35.53
1472,-37.17
1484,-37.15
1496,-35.14
1508,-31.12
1520,-25.39
1532,-18.53
1544,-11.3
1556,-4.43
1568,1.55
1580,6.32
1591,9.8
1602,12.08
1614,13.34
1626,13.78
1638,13.62
1650,13.06
1662,12.35
1674,11.67
1686,11.21
1698,11.04
1710,11.19
1722,11.58
1734,12.15
1746,12.83
1758,13.57
1770,14.3
1781,14.94
1792,15.39
1804,15.57
1816,15.4
1828,14.86
1840,13.95
1852,12.62
1864,10.86
1876,8.65
1888,6.06
1900,3.22
1912,0.34
1924,-2.39
1936,-4.87
1948,-7.14
1960,-9.37
1971,-11.78
1982,-14.59
1994,-17.88
2006,-21.61
2018,-25.51
2030,-29.18
2042,-32.08
2054,-33.71
2066,-33.67
2078,-31.74
2090,-28.0
2102,-22.73
2114,-16.42
2126,-9.67
2138,-3.1
2150,2.78
2161,7.6
2172,11.2
2184,13.61
2196,14.95
2208,15.42
2220,15.19
2232,14.42
2244,13.28
2256,12.0
2268,10.84
2280,10.09
2292,9.93
2304,10.41
2316,11.39
2328,12.58
2340,13.67
2351,14.41
2362,14.68
2374,14.48
2386,13.91
2398,13.03
2410,11.9
2422,10.51
2434,8.83
2446,6.83
2458,4.54
2470,2.02
2482,-0.65
2494,-3.38
2506,-6.11
2518,-8.82
2530,-11.55
2541,-14.39
2552,-17.46
2564,-20.82
2576,-24.47
2588,-28.2
2600,-31.66
2612,-34.35
2624,-35.73
2636,-35.38
2648,-33.11
2660,-29.02
2672,-23.48
2684,-17.02
2696,-10.21
2708,-3.56
2720,2.52
2731,7.72
2742,11.77
2754,14.51
2766,15.91
2778,16.08
2790,15.35
2802,14.15
2814,12.9
2826,11.9
2838,11.26
2850,10.98
2862,10.94
2874,11.05
2886,11.27
2898,11.59
2910,11.97
2921,12.36
2932,12.7
2944,12.91
2956,12.86
2968,12.42
2980,11.43
2992,9.79
3004,7.54
3016,4.89
3028,2.18
3040,-0.3
3052,-2.43
3064,-4.35
3076,-6.43
3088,-9.03
3100,-12.38
3111,-16.4
3122,-20.75
3134,-24.88
3146,-28.24
3158,-30.29
3170,-30.66
3182,-29.15
3194,-25.75
3206,-20.71
3218,-14.48
3230,-7.71
3242,-1.07
3254,4.85
3266,9.71
3278,13.41
3290,16.04
3301,17.76
3312,18.7
3324,18.92
3336,18.49
3348,17.51
3360,16.2
3372,14.83
3384,13.62
3396,12.74
3408,12.22
3420,11.98
3432,11.94
3444,12.0
3456,12.07
3468,12.07
3480,11.89
3491,11.43
3502,10.56
3514,9.23
3526,7.39
3538,5.14
3550,2.62
3562,0.01
3574,-2.51
3586,-4.89
3598,-7.17
3610,-9.55
3622,-12.21
3634,-15.31
3646,-18.87
3658,-22.76
3670,-26.68
3681,-30.22
3692,-32.86
3704,-34.03
3716,-33.31
3728,-30.48
3740,-25.69
3752,-19.45
3764,-12.49
3776,-5.54
3788,0.8
3800,6.15
3812,10.34
3824,13.35
3836,15.19
3848,16.01
3860,16.03
3871,15.54
3882,14.88
3894,14.34
3906,14.06
3918,14.08
3930,14.35
3942,14.78
3954,15.3
3966,15.85
3978,16.36
3990,16.76
4002,16.93
4014,16.83
4026,16.44
4038,15.78
4050,14.87
4061,13.7
4072,12.23
4084,10.37
4096,8.14
4108,5.63
4120,3.0
4132,0.36
4144,-2.28
4156,-5.01
4168,-7.99
4180,-11.32
4192,-15.04
4204,-19.07
4216,-23.26
4228,-27.44
4240,-31.31
4251,-34.45
4262,-36.36
4274,-36.6
4286,-34.91
4298,-31.4
4310,-26.57
4322,-21.09
4334,-15.66
4346,-10.78
4358,-6.66
4370,-3.36
4382,-0.77
4394,1.23
4406,2.72
4418,3.76
4430,4.4
4441,4.69
4452,4.7
4464,4.55
4476,4.39
4488,4.35
4500,4.56
4512,5.02
4524,5.69
4536,6.46
4548,7.2
4560,7.8
4572,8.19
4584,8.33
4596,8.21
4608,7.84
4620,7.26
4631,6.48
4642,5.56
4654,4.53
4666,3.43
4678,2.28
4690,1.06
4702,-0.3
4714,-1.9
4726,-3.83
4738,-6.14
4750,-8.74
4762,-11.51
4774,-14.31
4786,-17.12
4798,-19.99
4810,-23.04
4821,-26.22
4832,-29.25
4844,-31.56
4856,-32.43
4868,-31.29
4880,-27.88
4892,-22.41
4904,-15.51
4916,-8.0
4928,-0.74
4940,5.65
4952,10.81
4964,14.69
4976,17.39
4988,19.06
5000,19.87
5011,19.95
5022,19.47
5034,18.65
5046,17.79
5058,17.19
5070,17.01
5082,17.29
5094,17.89
5106,18.59
5118,19.23
5130,19.75
5142,20.24
5154,20.84
5166,21.67
5178,22.72
5190,23.85
5201,24.79
5212,25.26
5224,25.03
5236,24.07
5248,22.51
5260,20.62
5272,18.72
5284,17.01
5296,15.52
5308,14.13
5320,12.59
5332,10.75
5344,8.52
5356,5.91
5368,2.95
5380,-0.29
5391,-3.66
5402,-6.82
5414,-9.22
5426,-10.13
5438,-8.88
5450,-5.03
5462,1.41
5474,9.97
5486,19.88
5498,30.23
5510,40.31
5522,49.65
5534,58.11
5546,65.74
5558,72.63
5570,78.81
5581,84.22
5592,88.77
5604,92.56
5616,95.9
5628,99.27
5640,103.16
5652,107.87
5664,113.39
5676,119.46
5688,125.87
5700,132.62
5712,140.12
5724,149.05
5736,160.13
5748,173.81
5760,190.12
5771,208.72
5782,228.99
5794,250.12
5806,271.01
5818,290.1
5830,305.36
5842,314.5
5854,315.53
5866,307.49
5878,290.76
5890,267.14
5902,239.3
5914,209.99
5926,181.38
5938,154.64
5950,129.9
5961,106.46
5972,83.16
5984,58.72
5996,32.1
6008,2.78
6020,-29.14
6032,-63.05
6044,-98.04
6056,-133.37
6068,-168.69
6080,-204.19
6092,-240.59
6104,-279.09
6116,-321.08
6128,-367.67
6140,-418.67
6151,-471.68
6162,-521.75
6174,-562.2
6186,-586.49
6198,-590.54
6210,-574.25
6222,-541.44
6234,-498.29
6246,-450.99
6258,-403.9
6270,-358.99
6282,-316.53
6294,-276.42
6306,-238.96
6318,-205.03
6330,-175.36
6341,-150.03
6352,-128.22
6364,-108.7
6376,-90.47
6388,-73.16
6400,-57.14
6412,-43.18
6424,-31.93
6436,-23.61
6448,-17.81
6460,-13.73
6472,-10.45
6484,-7.31
6496,-4.11
6508,-1.05
6520,1.49
6531,3.36
6542,4.82
6554,6.62
6566,9.77
6578,15.12
6590,22.96
6602,32.89
6614,43.84
6626,54.51
6638,63.71
6650,70.7
6662,75.3
6674,77.79
6686,78.65
6698,78.43
6710,77.55
6721,76.3
6732,74.9
6744,73.5
6756,72.18
6768,70.9
6780,69.47
6792,67.58
6804,64.94
6816,61.41
6828,57.07
6840,52.24
6852,47.29
6864,42.55
6876,38.17
6888,34.09
6900,30.1
6911,25.98
6922,21.55
6934,16.75
6946,11.62
6958,6.27
6970,0.86
6982,-4.46
6994,-9.53
7006,-14.18
7018,-18.25
7030,-21.56
7042,-23.92
7054,-25.17
7066,-25.25
7078,-24.24
7090,-22.29
7101,-19.7
7112,-16.75
7124,-13.74
7136,-10.92
7148,-8.5
7160,-6.65
7172,-5.55
7184,-5.33
7196,-6.09
7208,-7.77
7220,-10.15
7232,-12.9
7244,-15.62
7256,-18.05
7268,-20.09
7280,-21.78
7291,-23.24
7302,-24.47
7314,-25.34
7326,-25.66
7338,-25.26
7350,-24.23
7362,-22.88
7374,-21.65
7386,-20.92
7398,-20.87
7410,-21.43
7422,-22.43
7434,-23.73
7446,-25.36
7458,-27.48
7470,-30.24
7481,-33.62
7492,-37.29
7504,-40.64
7516,-42.93
7528,-43.42
7540,-41.6
7552,-37.27
7564,-30.52
7576,-21.77
7588,-11.64
7600,-0.86
7612,9.79
7624,19.58
7636,27.94
7648,34.45
7660,38.87
7671,41.18
7682,41.56
7694,40.4
7706,38.21
7718,35.49
7730,32.65
7742,29.85
7754,27.1
7766,24.28
7778,21.26
7790,18.0
7802,14.56
7814,10.96
7826,7.18
7838,3.08
7850,-1.46
7861,-6.5
7872,-11.97
7884,-17.71
7896,-23.56
7908,-29.44
7920,-35.35
7932,-41.38
7944,-47.62
7956,-53.99
7968,-60.27
7980,-65.92
7992,-70.16
8004,-71.97
8016,-70.37
8028,-64.62
8040,-54.43
8051,-40.09
8062,-22.28
8074,-1.8
8086,20.72
8098,44.96
8110,70.84
8122,98.21
8134,126.59
8146,155.03
8158,182.07
8170,205.98
8182,225.02
8194,237.84
8206,243.75
8218,242.93
8230,236.33
8241,225.47
8252,212.04
8264,197.47
8276,182.62
8288,167.71
8300,152.48
8312,136.42
8324,119.03
8336,100.06
8348,79.54
8360,57.86
8372,35.63
8384,13.61
8396,-7.56
8408,-27.51
8420,-46.24
8431,-64.12
8442,-81.63
8454,-99.17
8466,-116.72
8478,-133.73
8490,-149.12
8502,-161.38
8514,-168.97
8526,-170.65
8538,-165.83
8550,-154.74
8562,-138.42
8574,-118.51
8586,-96.9
8598,-75.38
8610,-55.35
8621,-37.69
8632,-22.74
8644,-10.44
8656,-0.47
8668,7.58
8680,14.1
8692,19.43
8704,23.84
8716,27.52
8728,30.6
8740,33.16
8752,35.2
8764,36.71
8776,37.63
8788,37.88
8800,37.43
8811,36.23
8822,34.32
8834,31.73
8846,28.6
8858,25.03
8870,21.13
8882,16.95
8894,12.43
8906,7.41
8918,1.7
8930,-4.85
8942,-12.2
8954,-20.0
8966,-27.55
8978,-33.79
8990,-37.56
9001,-37.83
9012,-33.99
9024,-26.12
9036,-14.89
9048,-1.46
9060,12.86
9072,26.91
9084,39.8
9096,50.99
9108,60.1
9120,66.94
9132,71.36
9144,73.35
9156,73.03
9168,70.65
9180,66.59
9191,61.31
9202,55.26
9214,48.89
9226,42.6
9238,36.7
9250,31.41
9262,26.76
9274,22.64
9286,18.76
9298,14.79
9310,10.42
9322,5.43
9334,-0.24
9346,-6.44
9358,-12.92
9370,-19.36
9381,-25.53
9392,-31.44
9404,-37.31
9416,-43.6
9428,-50.74
9440,-58.88
9452,-67.68
9464,-76.16
9476,-82.85
9488,-86.13
9500,-84.61
9512,-77.64
9524,-65.45
9536,-49.13
9548,-30.38
9560,-11.0
9571,7.44
9582,23.83
9594,37.57
9606,48.41
9618,56.38
9630,61.64
9642,64.51
9654,65.48
9666,65.1
9678,63.95
9690,62.46
9702,60.82
9714,59.01
9726,56.88
9738,54.28
9750,51.15
9761,47.58
9772,43.77
9784,39.87
9796,35.91
9808,31.74
9820,27.08
9832,21.63
9844,15.22
9856,7.91
9868,0.02
9880,-7.96
9892,-15.58
9904,-22.61
9916,-29.18
9928,-35.76
9940,-43.0
9951,-51.44
9962,-61.25
9974,-71.98
9986,-82.51
9998,-91.16
10010,-96.03
10022,-95.44
10034,-88.47
10046,-75.26
10058,-57.08
10070,-35.99
10082,-14.21
10094,6.38
10106,24.56
10118,39.8
10130,52.0
10141,61.22
10152,67.55
10164,71.16
10176,72.38
10188,71.81
10200,70.15
10212,68.07
10224,66.0
10236,64.14
10248,62.45
10260,60.85
10272,59.25
10284,57.58
10296,55.72
10308,53.54
10320,50.89
10331,47.67
10342,43.93
10354,39.74
10366,35.23
10378,30.42
10390,25.22
10402,19.52
10414,13.24
10426,6.43
10438,-0.73
10450,-7.95
10462,-14.95
10474,-21.57
10486,-27.75
10498,-33.6
10510,-39.35
10521,-45.34
10532,-51.98
10544,-59.59
10556,-68.19
10568,-77.3
10580,-85.76
10592,-91.85
10604,-93.68
10616,-89.78
10628,-79.63
10640,-63.92
10652,-44.41
10664,-23.38
10676,-2.99
10688,15.21
10700,30.49
10711,42.75
10722,52.17
10734,59.0
10746,63.41
10758,65.65
10770,66.1
10782,65.36
10794,64.12
10806,62.9
10818,61.99
10830,61.33
10842,60.67
10854,59.67
10866,58.16
10878,56.15
10890,53.84
10901,51.5
10912,49.27
10924,47.13
10936,44.82
10948,42.02
10960,38.45
10972,34.09
10984,29.13
10996,23.96
11008,18.98
11020,14.38
11032,10.12
11044,5.91
11056,1.36
11068,-3.78
11080,-9.53
11091,-15.64
11102,-21.7
11114,-27.37
11126,-32.45
11138,-37.02
11150,-41.36
11162,-45.88
11174,-50.99
11186,-57.0
11198,-63.99
11210,-71.62
11222,-79.09
11234,-85.11
11246,-88.17
11258,-86.88
11270,-80.46
11281,-68.97
11292,-53.38
11304,-35.27
11316,-16.49
11328,1.28
11340,16.79
11352,29.34
11364,38.71
11376,45.04
11388,48.71
11400,50.21
11412,50.11
11424,48.97
11436,47.31
11448,45.64
11460,44.28
11471,43.38
11482,42.89
11494,42.57
11506,42.16
11518,41.48
11530,40.52
11542,39.36
11554,38.12
11566,36.74
11578,35.06
11590,32.82
11602,29.86
11614,26.19
11626,22.03
11638,17.71
11650,13.52
11661,9.59
11672,5.84
11684,2.05
11696,-2.01
11708,-6.48
11720,-11.31
11732,-16.24
11744,-20.97
11756,-25.23
11768,-28.97
11780,-32.35
11792,-35.74
11804,-39.54
11816,-44.07
11828,-49.4
11840,-55.23
11851,-60.94
11862,-65.54
11874,-67.93
11886,-67.06
11898,-62.25
11910,-53.45
11922,-41.29
11934,-27.02
11946,-12.13
11958,1.95
11970,14.18
11982,23.97
11994,31.2
12006,36.01
12018,38.71
12030,39.69
12041,39.41
12052,38.33
12064,36.88
12076,35.37
12088,33.98
12100,32.76
12112,31.67
12124,30.63
12136,29.58
12148,28.46
12160,27.22
12172,25.83
12184,24.26
12196,22.5
12208,20.52
12220,18.29
12231,15.78
12242,12.98
12254,9.88
12266,6.49
12278,2.87
12290,-0.93
12302,-4.81
12314,-8.71
12326,-12.56
12338,-16.36
12350,-20.1
12362,-23.81
12374,-27.51
12386,-31.24
12398,-35.09
12410,-39.27
12421,-43.97
12432,-49.28
12444,-54.96
12456,-60.41
12468,-64.62
12480,-66.48
12492,-65.04
12504,-59.82
12516,-51.03
12528,-39.46
12540,-26.34
12552,-12.98
12564,-0.54
12576,10.18
12588,18.79
12600,25.23
12611,29.65
12622,32.26
12634,33.37
12646,33.33
12658,32.54
12670,31.41
12682,30.31
12694,29.44
12706,28.85
12718,28.45
12730,28.09
12742,27.65
12754,26.99
12766,26.05
12778,24.75
12790,23.08
12801,21.06
12812,18.83
12824,16.51
12836,14.15
12848,11.7
12860,9.01
12872,5.91
12884,2.34
12896,-1.6
12908,-5.71
12920,-9.73
12932,-13.54
12944,-17.13
12956,-20.59
12968,-24.06
12980,-27.65
12991,-31.46
13002,-35.62
13014,-40.19
13026,-45.17
13038,-50.28
13050,-54.92
13062,-58.19
13074,-59.12
13086,-56.93
13098,-51.31
13110,-42.62
13122,-31.75
13134,-19.9
13146,-8.22
13158,2.38
13170,11.4
13181,18.68
13192,24.23
13204,28.14
13216,30.5
13228,31.48
13240,31.3
13252,30.33
13264,29.0
13276,27.66
13288,26.53
13300,25.67
13312,24.99
13324,24.38
13336,23.75
13348,23.01
13360,22.08
13371,20.85
13382,19.24
13394,17.2
13406,14.82
13418,12.23
13430,9.56
13442,6.91
13454,4.25
13466,1.48
13478,-1.53
13490,-4.86
13502,-8.52
13514,-12.42
13526,-16.38
13538,-20.22
13550,-23.79
13561,-27.12
13572,-30.35
13584,-33.76
13596,-37.55
13608,-41.71
13620,-45.88
13632,-49.36
13644,-51.26
13656,-50.77
13668,-47.44
13680,-41.28
13692,-32.74
13704,-22.64
13716,-11.87
13728,-1.34
13740,8.22
13751,16.23
13762,22.31
13774,26.31
13786,28.33
13798,28.68
13810,27.82
13822,26.34
13834,24.72
13846,23.34
13858,22.37
13870,21.78
13882,21.4
13894,21.0
13906,20.37
13918,19.43
13930,18.21
13941,16.82
13952,15.37
13964,13.87
13976,12.2
13988,10.18
14000,7.61
14012,4.42
14024,0.72
14036,-3.25
14048,-7.21
14060,-10.92
14072,-14.26
14084,-17.23
14096,-19.99
14108,-22.75
14120,-25.79
14131,-29.33
14142,-33.48
14154,-38.06
14166,-42.62
14178,-46.43
14190,-48.64
14202,-48.51
14214,-45.59
14226,-39.9
14238,-31.95
14250,-22.53
14262,-12.57
14274,-2.93
14286,5.74
14298,12.99
14310,18.52
14321,22.24
14332,24.15
14344,24.45
14356,23.49
14368,21.73
14380,19.65
14392,17.69
14404,16.13
14416,15.06
14428,14.43
14440,14.04
14452,13.69
14464,13.2
14476,12.46
14488,11.46
14500,10.21
14511,8.72
14522,6.92
14534,4.69
14546,1.9
14558,-1.51
14570,-5.43
14582,-9.58
14594,-13.66
14606,-17.41
14618,-20.78
14630,-23.97
14642,-27.34
14654,-31.23
14666,-35.86
14678,-41.15
14690,-46.7
14701,-51.82
14712,-55.62
14724,-57.18
14736,-55.75
14748,-51.0
14760,-43.11
14772,-32.81
14784,-21.21
14796,-9.48
14808,1.38
14820,10.7
14832,18.15
14844,23.67
14856,27.27
14868,29.1
14880,29.39
14891,28.53
14902,27.03
14914,25.41
14926,24.06
14938,23.16
14950,22.67
14962,22.36
14974,21.91
14986,21.06
14998,19.69
15010,17.84
15022,15.7
15034,13.43
15046,11.14
15058,8.71
15070,5.94
15081,2.61
15092,-1.35
15104,-5.77
15116,-10.33
15128,-14.69
15140,-18.69
15152,-22.47
15164,-26.32
15176,-30.63
15188,-35.66
15200,-41.41
15212,-47.57
15224,-53.52
15236,-58.42
15248,-61.27
15260,-61.14
15271,-57.41
15282,-49.98
15294,-39.39
15306,-26.71
15318,-13.31
15330,-0.47
15342,10.83
15354,20.1
15366,27.21
15378,32.23
15390,35.33
15402,36.71
15414,36.65
15426,35.57
15438,33.96
15450,32.3
15461,30.91
15472,29.88
15484,29.08
15496,28.26
15508,27.24
15520,25.93
15532,24.38
15544,22.7
15556,20.94
15568,19.06
15580,16.87
15592,14.16
15604,10.75
15616,6.6
15628,1.86
15640,-3.16
15651,-8.14
15662,-12.78
15674,-17.01
15686,-20.98
15698,-25.05
15710,-29.63
15722,-35.06
15734,-41.41
15746,-48.37
15758,-55.23
15770,-60.92
15782,-64.26
15794,-64.2
15806,-60.14
15818,-52.1
15830,-40.8
15841,-27.44
15852,-13.5
15864,-0.27
15876,11.29
15888,20.72
15900,27.89
15912,32.9
15924,35.93
15936,37.14
15948,36.8
15960,35.33
15972,33.25
15984,31.15
15996,29.48
16008,28.4
16020,27.78
16031,27.23
16042,26.37
16054,25.03
16066,23.31
16078,21.51
16090,20.02
16102,19.07
16114,18.64
16126,18.45
16138,18.07
16150,17.16
16162,15.53
16174,13.24
16186,10.47
16198,7.43
16210,4.2
16221,0.72
16232,-3.18
16244,-7.7
16256,-12.99
16268,-19.06
16280,-25.78
16292,-32.82
16304,-39.62
16316,-45.41
16328,-49.28
16340,-50.31
16352,-47.86
16364,-41.8
16376,-32.59
16388,-21.22
16400,-8.93
16411,3.03
16422,13.71
16434,22.48
16446,29.07
16458,33.45
16470,35.74
16482,36.26
16494,35.43
16506,33.82
16518,31.99
16530,30.4
16542,29.25
16554,28.52
16566,28.0
16578,27.45
16590,26.68
16601,25.62
16612,24.27
16624,22.68
16636,20.86
16648,18.77
16660,16.33
16672,13.41
16684,9.95
16696,5.93
16708,1.45
16720,-3.31
16732,-8.13
16744,-12.83
16756,-17.35
16768,-21.78
16780,-26.33
16791,-31.25
16802,-36.73
16814,-42.84
16826,-49.37
16838,-55.76
16850,-61.18
16862,-64.54
16874,-64.83
16886,-61.37
16898,-54.08
16910,-43.53
16922,-30.79
16934,-17.16
16946,-3.84
16958,8.24
16970,18.51
16981,26.62
16992,32.42
17004,35.93
17016,37.32
17028,36.98
17040,35.49
17052,33.52
17064,31.69
17076,30.43
17088,29.88
17100,29.92
17112,30.2
17124,30.33
17136,29.97
17148,28.97
17160,27.33
17171,25.19
17182,22.73
17194,20.1
17206,17.34
17218,14.37
17230,11.08
17242,7.31
17254,3.01
17266,-1.74
17278,-6.76
17290,-11.83
17302,-16.78
17314,-21.64
17326,-26.61
17338,-32.03
17350,-38.24
17361,-45.39
17372,-53.31
17384,-61.45
17396,-68.86
17408,-74.37
17420,-76.8
17432,-75.25
17444,-69.39
17456,-59.53
17468,-46.63
17480,-32.04
17492,-17.18
17504,-3.24
17516,8.99
17528,19.09
17540,26.96
17551,32.65
17562,36.27
17574,38.08
17586,38.47
17598,37.97
17610,37.18
17622,36.57
17634,36.35
17646,36.48
17658,36.73
17670,36.82
17682,36.6
17694,36.06
17706,35.23
17718,34.19
17730,32.94
17741,31.45
17752,29.64
17764,27.43
17776,24.7
17788,21.37
17800,17.36
17812,12.69
17824,7.53
17836,2.13
17848,-3.13
17860,-8.04
17872,-12.54
17884,-16.8
17896,-21.18
17908,-26.09
17920,-31.79
17931,-38.35
17942,-45.47
17954,-52.47
17966,-58.36
17978,-61.94
17990,-62.13
18002,-58.15
18014,-49.9
18026,-37.92
18038,-23.39
18050,-7.79
18062,7.44
18074,21.18
18086,32.78
18098,42.04
18110,49.04
18121,54.03
18132,57.3
18144,59.16
18156,59.97
18168,60.11
18180,59.97
18192,59.82
18204,59.8
18216,59.82
18228,59.64
18240,58.98
18252,57.66
18264,55.72
18276,53.35
18288,50.81
18300,48.25
18311,45.67
18322,42.88
18334,39.7
18346,36.05
18358,32.04
18370,27.92
18382,23.93
18394,20.16
18406,16.56
18418,12.97
18430,9.21
18442,5.23
18454,1.06
18466,-3.18
18478,-7.39
18490,-11.57
18501,-15.8
18512,-20.15
18524,-24.59
18536,-28.89
18548,-32.59
18560,-35.15
18572,-35.98
18584,-34.7
18596,-31.17
18608,-25.55
18620,-18.26
18632,-9.87
18644,-1.05
18656,7.55
18668,15.38
18680,22.01
18691,27.22
18702,30.97
18714,33.41
18726,34.78
18738,35.35
18750,35.39
18762,35.14
18774,34.8
18786,34.55
18798,34.48
18810,34.6
18822,34.82
18834,34.97
18846,34.89
18858,34.45
18870,33.58
18881,32.29
18892,30.62
18904,28.65
18916,26.45
18928,24.06
18940,21.51
18952,18.84
18964,16.1
18976,13.41
18988,10.88
19000,8.65
19012,6.78
19024,5.21
19036,3.79
19048,2.3
19060,0.54
19071,-1.58
19082,-4.1
19094,-6.96
19106,-10.03
19118,-13.18
19130,-16.17
19142,-18.66
19154,-20.27
19166,-20.68
19178,-19.71
19190,-17.48
19202,-14.4
19214,-11.0
19226,-7.86
19238,-5.36
19250,-3.7
19261,-2.87
19272,-2.7
19284,-3.03
19296,-3.7
19308,-4.63
19320,-5.75
19332,-7.07
19344,-8.55
19356,-10.18
19368,-11.95
19380,-13.87
19392,-15.98
19404,-18.3
19416,-20.79
19428,-23.35
19440,-25.81
19451,-28.06
19462,-30.09
19474,-32.02
19486,-34.08
19498,-36.53
19510,-39.46
19522,-42.84
19534,-46.48
19546,-50.17
19558,-53.75
19570,-57.13
19582,-60.29
19594,-63.28
19606,-66.12
19618,-68.85
19630,-71.45
19641,-73.89
19652,-76.04
19664,-77.66
19676,-78.46
19688,-78.16
19700,-76.63
19712,-73.9
19724,-70.18
19736,-65.75
19748,-60.89
19760,-55.79
19772,-50.6
19784,-45.37
19796,-40.14
19808,-34.82
19820,-29.2
19831,-22.92
19842,-15.54
19854,-6.71
19866,3.69
19878,15.52
19890,28.36
19902,41.68
19914,54.87
19926,67.41
19938,78.79
19950,88.59
19962,96.42
19974,102.04
19986,105.33
19998,106.33
20010,105.22
20021,102.25
20032,97.67
20044,91.72
20056,84.64
20068,76.7
20080,68.14
20092,59.22
20104,50.15
20116,41.06
20128,31.93
20140,22.63
20152,13.01
20164,3.04
20176,-7.14
20188,-17.14
20200,-26.45
20211,-34.57
20222,-41.14
20234,-46.05
20246,-49.46
20258,-51.63
20270,-52.87
20282,-53.43
20294,-53.41
20306,-52.78
20318,-51.48
20330,-49.41
20342,-46.52
20354,-42.82
20366,-38.47
20378,-33.74
20390,-29.03
20401,-24.69
20412,-21.02
20424,-18.12
20436,-15.9
20448,-14.09
20460,-12.38
20472,-10.59
20484,-8.62
20496,-6.54
20508,-4.48
20520,-2.59
20532,-1.0
20544,0.13
20556,0.63
20568,0.38
20580,-0.67
20591,-2.43
20602,-4.71
20614,-7.22
20626,-9.72
20638,-12.03
20650,-14.07
20662,-15.84
20674,-17.44
20686,-19.03
20698,-20.75
20710,-22.64
20722,-24.58
20734,-26.2
20746,-27.05
20758,-26.67
20770,-24.83
20781,-21.6
20792,-17.35
20804,-12.61
20816,-7.9
20828,-3.62
20840,0.02
20852,2.98
20864,5.35
20876,7.25
20888,8.8
20900,10.02
20912,10.87
20924,11.25
20936,11.1
20948,10.46
20960,9.47
20971,8.34
20982,7.33
20994,6.63
