seconds,BVP
6,2.33
18,-0.01
30,-2.15
42,-4.24
54,-6.52
66,-9.23
78,-12.5
90,-16.23
102,-20.16
114,-23.95
126,-27.36
137,-30.37
148,-33.11
160,-35.89
172,-39.03
184,-42.8
196,-47.37
208,-52.75
220,-58.59
232,-64.06
244,-67.92
256,-68.77
268,-65.67
280,-58.39
292,-47.74
304,-35.23
316,-22.57
327,-11.19
338,-1.81
350,5.45
362,10.87
374,14.83
386,17.67
398,19.64
410,20.98
422,21.95
434,22.79
446,23.59
458,24.31
470,24.8
482,24.91
494,24.7
506,24.33
517,24.08
528,24.22
540,24.82
552,25.74
564,26.69
576,27.32
588,27.32
600,26.53
612,24.9
624,22.52
636,19.61
648,16.45
660,13.37
672,10.6
684,8.2
696,6.09
707,4.01
718,1.78
730,-0.66
742,-3.23
754,-5.8
766,-8.29
778,-10.77
790,-13.42
802,-16.41
814,-19.76
826,-23.35
838,-26.96
850,-30.41
862,-33.66
874,-36.79
886,-39.97
897,-43.44
908,-47.42
920,-52.1
932,-57.47
944,-63.21
956,-68.56
968,-72.3
980,-73.15
992,-70.0
1004,-62.56
1016,-51.45
1028,-38.13
1040,-24.49
1052,-12.21
1064,-2.34
1076,4.87
1087,9.75
1098,12.97
1110,15.11
1122,16.6
1134,17.68
1146,18.53
1158,19.32
1170,20.28
1182,21.56
1194,23.17
1206,24.97
1218,26.7
1230,28.13
1242,29.13
1254,29.7
1266,29.98
1277,30.12
1288,30.24
1300,30.35
1312,30.4
1324,30.19
1336,29.54
1348,28.33
1360,26.53
1372,24.21
1384,21.49
1396,18.52
1408,15.41
1420,12.24
1432,9.08
1444,6.02
1456,3.17
1467,0.52
1478,-2.0
1490,-4.65
1502,-7.72
1514,-11.37
1526,-15.56
1538,-20.01
1550,-24.33
1562,-28.16
1574,-31.38
1586,-34.06
1598,-36.54
1610,-39.19
1622,-42.44
1634,-46.65
1646,-51.93
1657,-57.96
1668,-63.86
1680,-68.25
1692,-69.5
1704,-66.4
1716,-58.56
1728,-46.77
1740,-32.78
1752,-18.71
1764,-6.41
1776,3.09
1788,9.67
1800,13.84
1812,16.34
1824,17.78
1836,18.54
1847,18.84
1858,18.85
1870,18.73
1882,18.67
1894,18.76
1906,19.01
1918,19.33
1930,19.59
1942,19.76
1954,19.84
1966,19.87
1978,19.85
1990,19.72
2002,19.38
2014,18.78
2026,17.9
2037,16.74
2048,15.27
2060,13.42
2072,11.03
2084,7.95
2096,4.15
2108,-0.24
2120,-4.95
2132,-9.65
2144,-14.08
2156,-18.16
2168,-21.93
2180,-25.6
2192,-29.47
2204,-33.88
2216,-39.08
2227,-45.17
2238,-51.81
2250,-58.24
2262,-63.23
2274,-65.45
2286,-63.8
2298,-57.88
2310,-48.13
2322,-35.73
2334,-22.28
2346,-9.31
2358,2.04
2370,11.13
2382,17.85
2394,22.41
2406,25.2
2417,26.59
2428,26.94
2440,26.54
2452,25.68
2464,24.63
2476,23.66
2488,22.95
2500,22.5
2512,22.22
2524,21.88
2536,21.25
2548,20.22
2560,18.84
2572,17.32
2584,15.89
2596,14.7
2607,13.74
2618,12.79
2630,11.47
2642,9.4
2654,6.31
2666,2.2
2678,-2.7
2690,-7.95
2702,-13.05
2714,-17.59
2726,-21.4
2738,-24.54
2750,-27.39
2762,-30.47
2774,-34.36
2786,-39.45
2797,-45.79
2808,-52.85
2820,-59.59
2832,-64.59
2844,-66.46
2856,-64.19
2868,-57.54
2880,-47.21
2892,-34.55
2904,-21.25
2916,-8.79
2928,1.84
2940,10.29
2952,16.75
2964,21.66
2976,25.43
2987,28.35
2998,30.57
3010,32.19
3022,33.41
3034,34.44
3046,35.49
3058,36.64
3070,37.83
3082,38.88
3094,39.63
3106,39.99
3118,40.04
3130,39.93
3142,39.87
3154,39.9
3166,39.96
3177,39.75
3188,38.92
3200,37.2
3212,34.49
3224,30.96
3236,26.98
3248,22.98
3260,19.24
3272,15.8
3284,12.53
3296,9.11
3308,5.29
3320,0.96
3332,-3.83
3344,-8.87
3356,-13.84
3367,-18.46
3378,-22.59
3390,-26.3
3402,-29.96
3414,-34.13
3426,-39.36
3438,-45.84
3450,-53.19
3462,-60.31
3474,-65.63
3486,-67.54
3498,-64.9
3510,-57.49
3522,-46.11
3534,-32.35
3546,-18.08
3557,-4.96
3568,6.01
3580,14.5
3592,20.79
3604,25.42
3616,28.93
3628,31.73
3640,34.02
3652,35.91
3664,37.56
3676,39.13
3688,40.83
3700,42.72
3712,44.68
3724,46.41
3736,47.53
3747,47.76
3758,47.09
3770,45.76
3782,44.2
3794,42.82
3806,41.77
3818,40.95
3830,40.03
3842,38.65
3854,36.57
3866,33.78
3878,30.51
3890,27.13
3902,23.94
3914,21.0
3926,18.12
3937,14.9
3948,10.95
3960,6.11
3972,0.56
3984,-5.2
3996,-10.62
4008,-15.28
4020,-19.18
4032,-22.65
4044,-26.23
4056,-30.43
4068,-35.49
4080,-41.34
4092,-47.57
4104,-53.48
4116,-58.1
4127,-60.35
4138,-59.25
4150,-54.25
4162,-45.52
4174,-34.06
4186,-21.51
4198,-9.61
4210,0.28
4222,7.62
4234,12.68
4246,16.24
4258,19.14
4270,21.8
4282,24.22
4294,26.1
4306,27.19
4317,27.48
4328,27.2
4340,26.76
4352,26.47
4364,26.49
4376,26.78
4388,27.21
4400,27.58
4412,27.74
4424,27.53
4436,26.88
4448,25.78
4460,24.32
4472,22.6
4484,20.6
4496,18.21
4507,15.23
4518,11.52
4530,7.19
4542,2.59
4554,-1.82
4566,-5.68
4578,-8.92
4590,-11.8
4602,-14.72
4614,-18.02
4626,-21.93
4638,-26.48
4650,-31.67
4662,-37.45
4674,-43.65
4686,-49.82
4697,-55.1
4708,-58.31
4720,-58.33
4732,-54.46
4744,-46.82
4756,-36.39
4768,-24.67
4780,-13.21
4792,-3.1
4804,5.22
4816,11.94
4828,17.53
4840,22.45
4852,26.86
4864,30.7
4876,33.77
4887,35.9
4898,37.08
4910,37.5
4922,37.43
4934,37.17
4946,36.94
4958,36.84
4970,36.84
4982,36.85
4994,36.78
5006,36.54
5018,36.13
5030,35.57
5042,34.89
5054,34.09
5066,33.13
5077,31.95
5088,30.44
5100,28.58
5112,26.28
5124,23.54
5136,20.37
5148,16.83
5160,13.05
5172,9.22
5184,5.57
5196,2.26
5208,-0.74
5220,-3.63
5232,-6.75
5244,-10.39
5256,-14.66
5267,-19.43
5278,-24.34
5290,-29.07
5302,-33.39
5314,-37.3
5326,-41.04
5338,-44.95
5350,-49.42
5362,-54.68
5374,-60.65
5386,-66.8
5398,-72.1
5410,-75.21
5422,-74.83
5434,-70.17
5446,-61.33
5457,-49.36
5468,-35.94
5480,-22.83
5492,-11.32
5504,-1.97
5516,5.28
5528,10.89
5540,15.37
5552,19.06
5564,22.09
5576,24.58
5588,26.59
5600,28.27
5612,29.72
5624,30.96
5636,31.93
5647,32.49
5658,32.59
5670,32.26
5682,31.62
5694,30.93
5706,30.4
5718,30.21
5730,30.33
5742,30.57
5754,30.53
5766,29.83
5778,28.19
5790,25.67
5802,22.56
5814,19.33
5826,16.39
5837,13.93
5848,11.82
5860,9.74
5872,7.31
5884,4.31
5896,0.73
5908,-3.27
5920,-7.43
5932,-11.53
5944,-15.41
5956,-18.99
5968,-22.39
5980,-25.87
5992,-29.86
6004,-34.73
6016,-40.58
6027,-46.97
6038,-52.93
6050,-57.1
6062,-58.04
6074,-54.8
6086,-47.36
6098,-36.67
6110,-24.38
6122,-12.48
6134,-2.6
6146,4.4
6158,8.53
6170,10.78
6182,12.49
6194,14.62
6206,17.52
6217,20.7
6228,23.09
6240,23.75
6252,22.21
6264,18.68
6276,14.46
6288,11.02
6300,9.16
6312,8.82
6324,9.16
6336,8.62
6348,5.86
6360,-0.35
6372,-11.02
6384,-25.4
6396,-41.64
6407,-57.02
6418,-68.17
6430,-72.01
6442,-66.99
6454,-54.71
6466,-39.79
6478,-29.33
6490,-27.51
6502,-33.73
6514,-43.75
6526,-52.38
6538,-54.28
6550,-49.99
6562,-41.88
6574,-32.66
6586,-23.87
6597,-12.92
6608,5.18
6620,32.86
6632,71.24
6644,119.09
6656,173.63
6668,232.38
6680,293.66
6692,343.86
6704,370.9
6716,366.65
6728,330.22
6740,267.68
6752,189.4
6764,108.13
6776,36.93
6787,-14.57
6798,-43.42
6810,-51.75
6822,-46.09
6834,-33.46
6846,-18.68
6858,-4.25
6870,8.42
6882,17.54
6894,20.05
6906,12.31
6918,-6.41
6930,-33.96
6942,-65.86
6954,-96.95
6966,-123.52
6977,-141.76
6988,-150.12
7000,-149.5
7012,-142.71
7024,-132.22
7036,-119.91
7048,-106.85
7060,-93.6
7072,-80.68
7084,-68.78
7096,-59.24
7108,-53.67
7120,-53.3
7132,-57.86
7144,-65.68
7156,-74.11
7167,-80.34
7178,-82.22
7190,-78.63
7202,-69.97
7214,-57.73
7226,-43.93
7238,-30.28
7250,-17.82
7262,-6.91
7274,2.63
7286,11.24
7298,19.25
7310,26.65
7322,33.15
7334,38.42
7346,42.31
7357,45.0
7368,47.03
7380,49.08
7392,51.71
7404,55.2
7416,59.34
7428,63.56
7440,67.15
7452,69.44
7464,69.97
7476,68.57
7488,65.28
7500,60.2
7512,53.4
7524,44.81
7536,34.31
7547,21.9
7558,7.83
7570,-7.29
7582,-22.57
7594,-37.05
7606,-50.04
7618,-61.26
7630,-70.81
7642,-79.09
7654,-86.45
7666,-92.99
7678,-98.46
7690,-102.27
7702,-103.72
7714,-102.07
7726,-96.88
7737,-88.12
7748,-76.24
7760,-62.16
7772,-47.11
7784,-32.38
7796,-19.2
7808,-8.41
7820,-0.41
7832,4.84
7844,7.8
7856,9.17
7868,9.68
7880,9.98
7892,10.39
7904,11.01
7916,11.77
7927,12.65
7938,13.7
7950,14.97
7962,16.47
7974,18.0
7986,19.28
7998,20.04
8010,20.25
8022,20.09
8034,19.86
8046,19.73
8058,19.56
8070,18.96
8082,17.43
8094,14.67
8106,10.72
8117,6.0
8128,1.1
8140,-3.41
8152,-7.24
8164,-10.41
8176,-13.27
8188,-16.33
8200,-20.09
8212,-24.83
8224,-30.42
8236,-36.21
8248,-41.1
8260,-43.74
8272,-42.91
8284,-37.98
8296,-29.14
8307,-17.43
8318,-4.41
8330,8.3
8342,19.53
8354,28.83
8366,36.35
8378,42.65
8390,48.23
8402,53.39
8414,58.12
8426,62.24
8438,65.63
8450,68.26
8462,70.35
8474,72.21
8486,74.12
8497,76.16
8508,78.21
8520,79.95
8532,80.9
8544,80.48
8556,78.1
8568,73.28
8580,65.78
8592,55.76
8604,43.87
8616,31.15
8628,18.75
8640,7.56
8652,-2.08
8664,-10.45
8676,-18.23
8687,-26.12
8698,-34.51
8710,-43.24
8722,-51.78
8734,-59.45
8746,-65.76
8758,-70.6
8770,-74.23
8782,-77.16
8794,-79.94
8806,-83.02
8818,-86.6
8830,-90.53
8842,-94.25
8854,-96.81
8866,-97.1
8877,-94.14
8888,-87.48
8900,-77.49
8912,-65.36
8924,-52.83
8936,-41.67
8948,-33.13
8960,-27.56
8972,-24.49
8984,-22.89
8996,-21.63
9008,-19.89
9020,-17.32
9032,-14.02
9044,-10.3
9056,-6.47
9067,-2.68
9078,1.1
9090,5.07
9102,9.43
9114,14.36
9126,19.94
9138,26.16
9150,32.86
9162,39.78
9174,46.6
9186,52.94
9198,58.45
9210,62.81
9222,65.82
9234,67.37
9246,67.47
9257,66.34
9268,64.36
9280,62.07
9292,59.97
9304,58.41
9316,57.42
9328,56.79
9340,56.2
9352,55.45
9364,54.48
9376,53.43
9388,52.45
9400,51.58
9412,50.83
9424,50.24
9436,49.92
9447,49.99
9458,50.38
9470,50.71
9482,50.31
9494,48.42
9506,44.61
9518,38.83
9530,31.48
9542,23.17
9554,14.62
9566,6.53
9578,-0.34
9590,-5.21
9602,-7.38
9614,-6.52
9626,-2.85
9637,2.69
9648,8.71
9660,13.74
9672,16.63
9684,16.81
9696,14.3
9708,9.58
9720,3.36
9732,-3.59
9744,-10.57
9756,-16.91
9768,-22.11
9780,-25.78
9792,-27.75
9804,-28.07
9816,-27.08
9827,-25.31
9838,-23.4
9850,-22.04
9862,-21.78
9874,-23.0
9886,-25.8
9898,-29.97
9910,-35.08
9922,-40.49
9934,-45.72
9946,-50.44
9958,-54.61
9970,-58.39
9982,-62.02
9994,-65.62
10006,-69.03
10017,-71.82
10028,-73.35
10040,-73.0
10052,-70.27
10064,-65.02
10076,-57.5
10088,-48.29
10100,-38.19
10112,-28.0
10124,-18.38
10136,-9.74
10148,-2.33
10160,3.76
10172,8.49
10184,11.92
10196,14.21
10207,15.67
10218,16.71
10230,17.63
10242,18.56
10254,19.33
10266,19.55
10278,18.75
10290,16.6
10302,13.13
10314,8.89
10326,4.84
10338,2.18
10350,1.95
10362,4.71
10374,10.39
10386,18.28
10397,27.28
10408,36.24
10420,44.21
10432,50.62
10444,55.33
10456,58.46
10468,60.4
10480,61.59
10492,62.48
10504,63.39
10516,64.45
10528,65.51
10540,66.31
10552,66.48
10564,65.76
10576,63.97
10587,61.07
10598,57.11
10610,52.15
10622,46.36
10634,39.96
10646,33.28
10658,26.69
10670,20.51
10682,14.85
10694,9.55
10706,4.34
10718,-1.08
10730,-6.83
10742,-12.76
10754,-18.56
10766,-23.9
10777,-28.53
10788,-32.37
10800,-35.44
10812,-37.8
10824,-39.45
10836,-40.36
10848,-40.52
10860,-40.03
10872,-39.04
10884,-37.77
10896,-36.38
10908,-35.04
10920,-33.84
10932,-32.89
10944,-32.32
10956,-32.24
10967,-32.72
10978,-33.58
10990,-34.42
11002,-34.6
11014,-33.33
11026,-29.92
11038,-23.96
11050,-15.39
11062,-4.63
11074,7.51
11086,19.99
11098,31.74
11110,41.86
11122,49.86
11134,55.69
11146,59.73
11157,62.63
11168,65.11
11180,67.79
11192,71.16
11204,75.51
11216,80.82
11228,86.58
11240,91.72
11252,94.69
11264,93.88
11276,88.29
11288,77.85
11300,63.62
11312,47.31
11324,30.65
11336,14.82
11347,0.21
11358,-13.27
11370,-25.72
11382,-36.95
11394,-46.33
11406,-53.2
11418,-57.12
11430,-58.13
11442,-56.7
11454,-53.51
11466,-49.35
11478,-45.06
11490,-41.49
11502,-39.5
11514,-39.91
11526,-43.25
11537,-49.66
11548,-58.84
11560,-70.16
11572,-82.69
11584,-95.4
11596,-107.17
11608,-116.83
11620,-123.34
11632,-125.93
11644,-124.49
11656,-119.58
11668,-112.33
11680,-104.14
11692,-96.2
11704,-89.24
11716,-83.42
11727,-78.37
11738,-73.56
11750,-68.42
11762,-62.61
11774,-56.03
11786,-48.84
11798,-41.37
11810,-34.06
11822,-27.32
11834,-21.42
11846,-16.44
11858,-12.3
11870,-8.83
11882,-5.82
11894,-3.07
11906,-0.41
11917,2.31
11928,5.14
11940,7.97
11952,10.54
11964,12.46
11976,13.39
11988,13.17
12000,11.9
12012,9.99
12024,7.93
12036,6.08
12048,4.64
12060,3.46
12072,2.2
12084,0.51
12096,-1.86
12107,-4.91
12118,-8.4
12130,-12.01
12142,-15.43
12154,-18.55
12166,-21.5
12178,-24.61
12190,-28.31
12202,-32.85
12214,-38.17
12226,-43.66
12238,-48.27
12250,-50.75
12262,-50.02
12274,-45.61
12286,-37.78
12297,-27.57
12308,-16.37
12320,-5.59
12332,3.74
12344,11.12
12356,16.5
12368,20.22
12380,22.74
12392,24.62
12404,26.34
12416,28.27
12428,30.54
12440,33.08
12452,35.66
12464,37.99
12476,39.83
12487,41.07
12498,41.71
12510,41.87
12522,41.7
12534,41.42
12546,41.16
12558,41.02
12570,40.94
12582,40.76
12594,40.23
12606,39.18
12618,37.53
12630,35.34
12642,32.74
12654,29.81
12666,26.63
12677,23.15
12688,19.42
12700,15.57
12712,11.82
12724,8.37
12736,5.3
12748,2.47
12760,-0.41
12772,-3.64
12784,-7.45
12796,-11.79
12808,-16.44
12820,-21.05
12832,-25.31
12844,-29.1
12856,-32.48
12867,-35.73
12878,-39.23
12890,-43.3
12902,-48.04
12914,-53.22
12926,-58.16
12938,-61.82
12950,-63.03
12962,-60.8
12974,-54.72
12986,-45.13
12998,-33.09
13010,-20.11
13022,-7.68
13034,3.09
13046,11.71
13057,18.25
13068,23.13
13080,26.85
13092,29.84
13104,32.35
13116,34.59
13128,36.69
13140,38.78
13152,40.9
13164,42.97
13176,44.76
13188,45.98
13200,46.4
13212,46.0
13224,44.98
13236,43.74
13247,42.7
13258,42.17
13270,42.17
13282,42.47
13294,42.67
13306,42.43
13318,41.51
13330,39.96
13342,37.97
13354,35.8
13366,33.62
13378,31.47
13390,29.24
13402,26.78
13414,23.98
13426,20.83
13437,17.44
13448,13.98
13460,10.68
13472,7.67
13484,4.96
13496,2.41
13508,-0.21
13520,-3.13
13532,-6.56
13544,-10.46
13556,-14.64
13568,-18.77
13580,-22.51
13592,-25.71
13604,-28.45
13616,-31.11
13627,-34.19
13638,-38.1
13650,-42.98
13662,-48.59
13674,-54.24
13686,-58.89
13698,-61.41
13710,-60.82
13722,-56.56
13734,-48.76
13746,-38.21
13758,-26.23
13770,-14.3
13782,-3.65
13794,5.01
13806,11.56
13817,16.36
13828,19.87
13840,22.55
13852,24.66
13864,26.39
13876,27.89
13888,29.31
13900,30.87
13912,32.63
13924,34.51
13936,36.3
13948,37.7
13960,38.5
13972,38.61
13984,38.12
13996,37.28
14007,36.43
14018,35.82
14030,35.59
14042,35.6
14054,35.54
14066,35.04
14078,33.86
14090,31.95
14102,29.46
14114,26.7
14126,23.97
14138,21.56
14150,19.66
14162,18.29
14174,17.37
14186,16.67
14197,15.89
14208,14.74
14220,13.08
14232,10.9
14244,8.3
14256,5.41
14268,2.23
14280,-1.21
14292,-4.88
14304,-8.6
14316,-12.08
14328,-15.05
14340,-17.44
14352,-19.48
14364,-21.68
14376,-24.64
14387,-28.8
14398,-34.26
14410,-40.58
14422,-46.8
14434,-51.61
14446,-53.72
14458,-52.26
14470,-47.04
14482,-38.71
14494,-28.47
14506,-17.78
14518,-7.83
14530,0.67
14542,7.56
14554,13.03
14566,17.35
14577,20.74
14588,23.31
14600,25.14
14612,26.45
14624,27.57
14636,28.8
14648,30.34
14660,32.06
14672,33.67
14684,34.82
14696,35.32
14708,35.25
14720,34.9
14732,34.66
14744,34.77
14756,35.24
14767,35.89
14778,36.38
14790,36.43
14802,35.82
14814,34.48
14826,32.5
14838,30.03
14850,27.27
14862,24.41
14874,21.56
14886,18.78
14898,16.02
14910,13.24
14922,10.47
14934,7.81
14946,5.28
14957,2.88
14968,0.52
14980,-1.88
14992,-4.37
15004,-6.88
15016,-9.26
15028,-11.39
15040,-13.21
15052,-14.8
15064,-16.37
15076,-18.18
15088,-20.53
15100,-23.69
15112,-27.8
15124,-32.77
15136,-38.18
15147,-43.23
15158,-46.89
15170,-48.09
15182,-46.08
15194,-40.68
15206,-32.37
15218,-22.2
15230,-11.52
15242,-1.66
15254,6.39
15266,12.18
15278,15.86
15290,17.92
15302,18.97
15314,19.55
15326,19.94
15337,20.28
15348,20.6
15360,20.98
15372,21.45
15384,22.03
15396,22.57
15408,22.9
15420,22.88
15432,22.54
15444,22.12
15456,21.93
15468,22.2
15480,22.9
15492,23.73
15504,24.25
15516,24.04
15527,22.88
15538,20.76
15550,17.94
15562,14.72
15574,11.44
15586,8.35
15598,5.54
15610,2.95
15622,0.4
15634,-2.32
15646,-5.34
15658,-8.61
15670,-11.9
15682,-14.92
15694,-17.48
15706,-19.62
15717,-21.63
15728,-24.0
15740,-27.18
15752,-31.42
15764,-36.62
15776,-42.29
15788,-47.55
15800,-51.36
15812,-52.69
15824,-50.85
15836,-45.76
15848,-37.96
15860,-28.49
15872,-18.56
15884,-9.28
15896,-1.31
15907,5.09
15918,9.99
15930,13.64
15942,16.34
15954,18.34
15966,19.81
15978,20.87
15990,21.57
16002,22.02
16014,22.33
16026,22.63
16038,23.0
16050,23.42
16062,23.77
16074,23.85
16086,23.6
16097,23.08
16108,22.57
16120,22.34
16132,22.53
16144,23.01
16156,23.37
16168,23.17
16180,22.05
16192,19.95
16204,17.13
16216,14.0
16228,11.01
16240,8.41
16252,6.18
16264,4.03
16276,1.62
16287,-1.35
16298,-4.86
16310,-8.69
16322,-12.5
16334,-16.01
16346,-19.1
16358,-21.93
16370,-24.81
16382,-28.11
16394,-32.17
16406,-37.11
16418,-42.76
16430,-48.59
16442,-53.68
16454,-56.93
16466,-57.26
16477,-54.0
16488,-47.11
16500,-37.3
16512,-25.82
16524,-14.15
16536,-3.61
16548,4.93
16560,11.17
16572,15.33
16584,17.97
16596,19.76
16608,21.27
16620,22.83
16632,24.52
16644,26.24
16656,27.78
16667,28.94
16678,29.63
16690,29.85
16702,29.67
16714,29.21
16726,28.7
16738,28.31
16750,28.18
16762,28.36
16774,28.75
16786,29.12
16798,29.18
16810,28.67
16822,27.46
16834,25.6
16846,23.24
16857,20.59
16868,17.8
16880,15.0
16892,12.25
16904,9.66
16916,7.26
16928,5.02
16940,2.87
16952,0.62
16964,-1.84
16976,-4.54
16988,-7.44
17000,-10.46
17012,-13.57
17024,-16.74
17036,-19.95
17047,-23.11
17058,-26.11
17070,-28.94
17082,-31.75
17094,-34.96
17106,-39.01
17118,-44.07
17130,-49.73
17142,-54.99
17154,-58.38
17166,-58.58
17178,-54.8
17190,-47.24
17202,-36.9
17214,-25.38
17226,-14.25
17237,-4.68
17248,2.8
17260,8.24
17272,11.99
17284,14.53
17296,16.22
17308,17.31
17320,17.98
17332,18.43
17344,18.85
17356,19.43
17368,20.25
17380,21.31
17392,22.56
17404,23.97
17416,25.56
17427,27.42
17438,29.62
17450,32.09
17462,34.62
17474,36.89
17486,38.49
17498,39.16
17510,38.8
17522,37.5
17534,35.48
17546,32.98
17558,30.23
17570,27.41
17582,24.66
17594,22.05
17606,19.57
17617,17.11
17628,14.5
17640,11.65
17652,8.58
17664,5.46
17676,2.52
17688,-0.02
17700,-2.16
17712,-4.07
17724,-6.05
17736,-8.38
17748,-11.24
17760,-14.61
17772,-18.3
17784,-22.05
17796,-25.61
17807,-28.86
17818,-31.77
17830,-34.48
17842,-37.27
17854,-40.47
17866,-44.4
17878,-49.09
17890,-54.19
17902,-58.84
17914,-61.78
17926,-61.76
17938,-57.94
17950,-50.26
17962,-39.54
17974,-27.23
17986,-14.98
17997,-4.21
18008,4.22
18020,10.07
18032,13.63
18044,15.51
18056,16.41
18068,16.94
18080,17.55
18092,18.44
18104,19.57
18116,20.8
18128,21.96
18140,22.93
18152,23.66
18164,24.14
18176,24.4
18187,24.45
18198,24.39
18210,24.35
18222,24.45
18234,24.74
18246,25.09
18258,25.26
18270,25.04
18282,24.32
18294,23.18
18306,21.86
18318,20.57
18330,19.45
18342,18.49
18354,17.54
18366,16.45
18377,15.14
18388,13.56
18400,11.74
18412,9.72
18424,7.56
18436,5.34
18448,3.18
18460,1.17
18472,-0.64
18484,-2.33
18496,-4.04
18508,-5.96
18520,-8.23
18532,-10.9
18544,-13.9
18556,-17.11
18567,-20.37
18578,-23.46
18590,-26.24
18602,-28.6
18614,-30.59
18626,-32.48
18638,-34.72
18650,-37.73
18662,-41.69
18674,-46.25
18686,-50.55
18698,-53.36
18710,-53.51
18722,-50.28
18734,-43.66
18746,-34.3
18757,-23.33
18768,-12.08
18780,-1.73
18792,6.81
18804,13.03
18816,16.87
18828,18.66
18840,19.01
18852,18.69
18864,18.32
18876,18.32
18888,18.8
18900,19.6
18912,20.48
18924,21.2
18936,21.65
18947,21.84
18958,21.9
18970,22.06
18982,22.5
18994,23.39
19006,24.72
19018,26.35
19030,27.91
19042,29.01
19054,29.32
19066,28.73
19078,27.33
19090,25.36
19102,23.09
19114,20.64
19126,17.99
19137,15.0
19148,11.55
19160,7.71
19172,3.68
19184,-0.24
19196,-3.76
19208,-6.79
19220,-9.45
19232,-12.01
19244,-14.73
19256,-17.72
19268,-20.85
19280,-23.82
19292,-26.36
19304,-28.35
19316,-29.92
19327,-31.46
19338,-33.49
19350,-36.48
19362,-40.61
19374,-45.71
19386,-51.14
19398,-55.96
19410,-59.01
19422,-59.3
19434,-56.19
19446,-49.67
19458,-40.36
19470,-29.36
19482,-18.05
19494,-7.64
19506,0.96
19517,7.35
19528,11.54
19540,13.87
19552,14.88
19564,15.12
19576,15.04
19588,14.87
19600,14.71
19612,14.5
19624,14.18
19636,13.74
19648,13.2
19660,12.72
19672,12.47
19684,12.59
19696,13.13
19707,14.01
19718,15.01
19730,15.86
19742,16.3
19754,16.16
19766,15.39
19778,14.07
19790,12.31
19802,10.22
19814,7.87
19826,5.28
19838,2.48
19850,-0.48
19862,-3.54
19874,-6.64
19886,-9.76
19897,-12.9
19908,-16.03
19920,-19.09
19932,-21.98
19944,-24.74
19956,-27.56
19968,-30.85
19980,-35.01
19992,-40.29
20004,-46.45
20016,-52.68
20028,-57.72
20040,-60.2
20052,-59.09
20064,-54.09
20076,-45.7
20087,-35.12
20098,-23.79
20110,-13.07
20122,-3.86
20134,3.39
20146,8.7
20158,12.28
20170,14.47
20182,15.63
20194,16.17
20206,16.47
20218,16.91
20230,17.7
20242,18.82
20254,20.13
20266,21.34
20277,22.22
20288,22.67
20300,22.71
20312,22.47
20324,22.15
20336,21.87
20348,21.68
20360,21.53
20372,21.27
20384,20.68
20396,19.58
20408,17.87
20420,15.58
20432,12.91
20444,10.11
20456,7.47
20467,5.14
20478,3.07
20490,1.03
20502,-1.3
20514,-4.27
20526,-8.0
20538,-12.36
20550,-17.04
20562,-21.59
20574,-25.69
20586,-29.29
20598,-32.63
20610,-36.15
20622,-40.33
20634,-45.44
20646,-51.4
20657,-57.75
20668,-63.54
20680,-67.57
20692,-68.61
20704,-65.79
20716,-58.9
20728,-48.61
20740,-36.24
20752,-23.45
20764,-11.69
20776,-1.87
20788,5.84
20800,11.77
20812,16.47
20824,20.45
20836,24.03
20847,27.35
20858,30.44
20870,33.23
20882,35.62
20894,37.51
20906,38.79
20918,39.48
20930,39.68
20942,39.6
20954,39.46
20966,39.37
20978,39.37
20990,39.42
