seconds,BVP
4,-27.87
16,-23.4
28,-13.58
40,-0.26
52,14.26
64,27.97
76,39.61
88,48.73
100,55.5
112,60.41
124,64.1
136,67.34
148,71.0
160,75.87
172,82.53
183,91.03
194,100.86
206,111.14
218,120.96
230,129.76
242,137.43
254,144.11
266,149.66
278,153.15
290,152.77
302,146.28
314,131.97
326,109.71
338,81.36
350,50.45
362,20.96
373,-4.03
384,-23.33
396,-37.66
408,-48.85
420,-58.69
432,-68.06
444,-76.81
456,-84.22
468,-89.77
480,-93.57
492,-96.32
504,-98.93
516,-101.99
528,-105.61
540,-109.56
552,-113.58
563,-117.63
574,-121.89
586,-126.52
598,-131.26
610,-135.25
622,-137.12
634,-135.4
646,-129.16
658,-118.47
670,-104.54
682,-89.41
694,-75.29
706,-63.81
718,-55.69
730,-50.62
742,-47.68
753,-45.83
764,-44.28
776,-42.53
788,-40.28
800,-37.13
812,-32.48
824,-25.71
836,-16.44
848,-4.83
860,8.37
872,22.04
884,35.07
896,46.71
908,56.56
920,64.53
932,70.52
943,74.32
954,75.64
966,74.36
978,70.74
990,65.48
1002,59.62
1014,54.21
1026,50.19
1038,48.2
1050,48.66
1062,51.81
1074,57.63
1086,65.58
1098,74.4
1110,82.07
1122,86.21
1133,84.76
1144,76.65
1156,62.28
1168,43.55
1180,23.38
1192,4.89
1204,-9.29
1216,-17.64
1228,-19.92
1240,-17.05
1252,-10.73
1264,-2.98
1276,4.39
1288,10.2
1300,14.04
1312,16.21
1323,17.27
1334,17.74
1346,17.74
1358,17.14
1370,15.81
1382,13.92
1394,12.02
1406,10.74
1418,10.49
1430,11.14
1442,12.04
1454,12.31
1466,11.31
1478,8.96
1490,5.72
1502,2.36
1513,-0.44
1524,-2.34
1536,-3.45
1548,-4.15
1560,-4.88
1572,-5.92
1584,-7.3
1596,-8.9
1608,-10.58
1620,-12.33
1632,-14.26
1644,-16.54
1656,-19.25
1668,-22.33
1680,-25.65
1692,-29.14
1703,-32.83
1714,-36.76
1726,-40.79
1738,-44.35
1750,-46.51
1762,-46.17
1774,-42.5
1786,-35.28
1798,-25.08
1810,-13.08
1822,-0.72
1834,10.66
1846,20.13
1858,27.25
1870,32.02
1882,34.7
1893,35.66
1904,35.25
1916,33.78
1928,31.58
1940,28.99
1952,26.38
1964,24.11
1976,22.37
1988,21.1
2000,20.02
2012,18.76
2024,17.02
2036,14.81
2048,12.4
2060,10.25
2072,8.75
2083,8.05
2094,7.93
2106,7.88
2118,7.29
2130,5.74
2142,3.08
2154,-0.43
2166,-4.32
2178,-8.1
2190,-11.43
2202,-14.22
2214,-16.62
2226,-18.87
2238,-21.22
2250,-23.9
2262,-27.11
2273,-31.08
2284,-36.03
2296,-42.05
2308,-48.87
2320,-55.8
2332,-61.69
2344,-65.17
2356,-65.12
2368,-60.99
2380,-53.06
2392,-42.39
2404,-30.42
2416,-18.66
2428,-8.23
2440,0.23
2452,6.53
2463,10.74
2474,13.06
2486,13.71
2498,12.98
2510,11.3
2522,9.27
2534,7.56
2546,6.75
2558,7.18
2570,8.84
2582,11.39
2594,14.31
2606,17.11
2618,19.48
2630,21.32
2642,22.73
2653,23.81
2664,24.61
2676,25.03
2688,24.94
2700,24.24
2712,23.03
2724,21.55
2736,20.08
2748,18.86
2760,17.97
2772,17.31
2784,16.65
2796,15.74
2808,14.43
2820,12.7
2832,10.65
2843,8.46
2854,6.3
2866,4.22
2878,2.19
2890,0.09
2902,-2.27
2914,-5.09
2926,-8.55
2938,-12.71
2950,-17.41
2962,-22.08
2974,-25.72
2986,-27.13
2998,-25.23
3010,-19.52
3022,-10.36
3033,1.13
3044,13.37
3056,24.94
3068,34.92
3080,43.01
3092,49.45
3104,54.64
3116,58.93
3128,62.49
3140,65.29
3152,67.18
3164,68.0
3176,67.57
3188,65.79
3200,62.64
3212,58.31
3223,53.11
3234,47.48
3246,41.86
3258,36.6
3270,31.88
3282,27.77
3294,24.18
3306,21.0
3318,18.12
3330,15.49
3342,13.18
3354,11.36
3366,10.25
3378,10.05
3390,10.77
3402,12.25
3413,14.05
3424,15.61
3436,16.43
3448,16.16
3460,14.79
3472,12.53
3484,9.71
3496,6.6
3508,3.33
3520,-0.16
3532,-4.01
3544,-8.29
3556,-12.95
3568,-17.78
3580,-22.45
3592,-26.59
3603,-29.9
3614,-32.16
3626,-33.42
3638,-33.92
3650,-34.18
3662,-34.82
3674,-36.3
3686,-38.67
3698,-41.39
3710,-43.39
3722,-43.38
3734,-40.41
3746,-34.22
3758,-25.37
3770,-15.02
3782,-4.5
3793,5.09
3804,13.05
3816,19.1
3828,23.11
3840,25.02
3852,24.78
3864,22.51
3876,18.53
3888,13.46
3900,7.95
3912,2.55
3924,-2.51
3936,-7.24
3948,-11.77
3960,-16.2
3972,-20.45
3983,-24.31
3994,-27.53
4006,-29.97
4018,-31.52
4030,-32.22
4042,-32.09
4054,-31.21
4066,-29.67
4078,-27.67
4090,-25.43
4102,-23.16
4114,-21.04
4126,-19.15
4138,-17.53
4150,-16.19
4162,-15.18
4173,-14.53
4184,-14.28
4196,-14.45
4208,-15.04
4220,-16.11
4232,-17.84
4244,-20.44
4256,-24.15
4268,-29.14
4280,-35.36
4292,-42.6
4304,-50.46
4316,-58.53
4328,-66.39
4340,-73.85
4352,-80.93
4363,-87.87
4374,-95.08
4386,-102.96
4398,-111.69
4410,-120.98
4422,-129.91
4434,-136.96
4446,-140.31
4458,-138.24
4470,-129.74
4482,-114.84
4494,-94.66
4506,-71.05
4518,-46.18
4530,-21.95
4542,0.11
4553,18.95
4564,33.77
4576,43.97
4588,49.32
4600,50.05
4612,47.03
4624,41.63
4636,35.41
4648,29.74
4660,25.67
4672,23.82
4684,24.59
4696,28.23
4708,34.83
4720,44.22
4732,55.87
4743,68.89
4754,82.18
4766,94.63
4778,105.33
4790,113.6
4802,119.26
4814,122.57
4826,124.36
4838,125.79
4850,128.06
4862,131.98
4874,137.64
4886,144.29
4898,150.57
4910,154.83
4922,155.65
4933,152.08
4944,143.79
4956,131.05
4968,114.68
4980,95.87
4992,76.02
5004,56.3
5016,37.32
5028,18.81
5040,-0.28
5052,-21.24
5064,-44.89
5076,-70.93
5088,-97.75
5100,-122.9
5112,-143.92
5123,-159.17
5134,-168.25
5146,-171.9
5158,-171.39
5170,-167.94
5182,-162.39
5194,-155.31
5206,-147.16
5218,-138.46
5230,-129.68
5242,-121.05
5254,-112.39
5266,-103.08
5278,-92.26
5290,-79.08
5302,-62.95
5313,-43.68
5324,-21.61
5336,2.43
5348,27.31
5360,51.78
5372,74.85
5384,95.97
5396,115.12
5408,132.7
5420,149.34
5432,165.61
5444,181.95
5456,198.65
5468,215.75
5480,232.85
5492,248.77
5503,261.32
5514,267.59
5526,264.62
5538,250.51
5550,225.21
5562,190.88
5574,151.33
5586,110.98
5598,73.64
5610,41.76
5622,16.19
5634,-3.45
5646,-18.24
5658,-29.5
5670,-38.57
5682,-46.77
5693,-55.23
5704,-64.72
5716,-75.38
5728,-86.69
5740,-97.56
5752,-106.61
5764,-112.6
5776,-114.69
5788,-112.64
5800,-106.82
5812,-98.05
5824,-87.39
5836,-75.94
5848,-64.71
5860,-54.5
5872,-45.97
5883,-39.57
5894,-35.64
5906,-34.31
5918,-35.38
5930,-38.29
5942,-42.13
5954,-45.86
5966,-48.57
5978,-49.67
5990,-49.03
6002,-46.93
6014,-43.82
6026,-40.28
6038,-36.79
6050,-33.74
6062,-31.45
6073,-30.12
6084,-29.87
6096,-30.69
6108,-32.43
6120,-34.84
6132,-37.63
6144,-40.48
6156,-43.21
6168,-45.75
6180,-48.25
6192,-51.0
6204,-54.33
6216,-58.53
6228,-63.67
6240,-69.53
6252,-75.66
6263,-81.42
6274,-86.18
6286,-89.46
6298,-91.0
6310,-90.8
6322,-89.11
6334,-86.29
6346,-82.71
6358,-78.53
6370,-73.56
6382,-67.21
6394,-58.72
6406,-47.54
6418,-33.65
6430,-17.75
6442,-1.1
6453,14.8
6464,28.72
6476,39.97
6488,48.35
6500,54.07
6512,57.39
6524,58.57
6536,57.82
6548,55.42
6560,51.79
6572,47.5
6584,43.15
6596,39.29
6608,36.33
6620,34.54
6632,33.98
6643,34.58
6654,36.07
6666,38.11
6678,40.29
6690,42.23
6702,43.65
6714,44.33
6726,44.15
6738,43.1
6750,41.29
6762,38.98
6774,36.46
6786,34.03
6798,31.82
6810,29.85
6822,27.93
6833,25.83
6844,23.46
6856,20.94
6868,18.67
6880,17.13
6892,16.69
6904,17.36
6916,18.64
6928,19.65
6940,19.26
6952,16.53
6964,10.96
6976,2.78
6988,-7.08
7000,-17.18
7012,-25.86
7023,-31.73
7034,-33.95
7046,-32.38
7058,-27.61
7070,-20.65
7082,-12.66
7094,-4.67
7106,2.64
7118,8.98
7130,14.27
7142,18.58
7154,21.87
7166,24.0
7178,24.69
7190,23.69
7202,20.86
7213,16.31
7224,10.46
7236,3.91
7248,-2.62
7260,-8.53
7272,-13.41
7284,-17.06
7296,-19.46
7308,-20.66
7320,-20.77
7332,-19.92
7344,-18.27
7356,-16.15
7368,-14.01
7380,-12.32
7392,-11.49
7403,-11.64
7414,-12.66
7426,-14.17
7438,-15.82
7450,-17.35
7462,-18.75
7474,-20.16
7486,-21.74
7498,-23.5
7510,-25.28
7522,-26.82
7534,-27.89
7546,-28.47
7558,-28.75
7570,-29.13
7582,-30.05
7593,-31.74
7604,-34.05
7616,-36.33
7628,-37.58
7640,-36.69
7652,-32.87
7664,-25.93
7676,-16.31
7688,-5.02
7700,6.71
7712,17.75
7724,27.24
7736,34.7
7748,39.96
7760,43.16
7772,44.59
7783,44.75
7794,44.13
7806,43.12
7818,41.86
7830,40.19
7842,37.75
7854,34.16
7866,29.2
7878,22.95
7890,15.82
7902,8.4
7914,1.33
7926,-4.9
7938,-10.08
7950,-14.37
7962,-18.35
7973,-22.9
7984,-28.89
7996,-36.68
8008,-45.64
8020,-54.05
8032,-59.43
8044,-59.39
8056,-52.59
8068,-39.38
8080,-21.79
8092,-2.96
8104,13.77
8116,25.73
8128,31.33
8140,30.11
8152,22.59
8163,10.06
8174,-5.64
8186,-22.17
8198,-36.95
8210,-47.55
8222,-52.23
8234,-50.35
8246,-42.63
8258,-30.89
8270,-17.45
8282,-4.37
8294,7.26
8306,17.43
8318,26.89
8330,36.42
8342,46.17
8353,55.49
8364,63.18
8376,68.11
8388,69.74
8400,68.33
8412,64.63
8424,59.48
8436,53.55
8448,47.31
8460,41.13
8472,35.43
8484,30.52
8496,26.41
8508,22.6
8520,18.12
8532,11.84
8543,2.91
8554,-8.88
8566,-23.01
8578,-38.29
8590,-53.2
8602,-66.25
8614,-76.3
8626,-82.9
8638,-86.32
8650,-87.5
8662,-87.73
8674,-88.3
8686,-90.04
8698,-93.03
8710,-96.57
8722,-99.18
8733,-98.99
8744,-94.28
8756,-83.99
8768,-68.29
8780,-48.59
8792,-27.28
8804,-7.02
8816,10.06
8828,22.89
8840,31.49
8852,36.59
8864,39.14
8876,39.88
8888,39.27
8900,37.69
8912,35.64
8923,33.72
8934,32.53
8946,32.32
8958,32.95
8970,33.95
8982,34.77
8994,35.1
9006,34.92
9018,34.45
9030,33.96
9042,33.53
9054,33.03
9066,32.21
9078,30.82
9090,28.72
9102,25.95
9113,22.7
9124,19.26
9136,15.97
9148,13.21
9160,11.23
9172,10.07
9184,9.43
9196,8.72
9208,7.19
9220,4.28
9232,-0.14
9244,-5.57
9256,-10.93
9268,-14.88
9280,-16.17
9292,-14.1
9303,-8.78
9314,-1.13
9326,7.44
9338,15.44
9350,21.81
9362,26.12
9374,28.56
9386,29.59
9398,29.66
9410,28.97
9422,27.48
9434,25.1
9446,21.95
9458,18.48
9470,15.36
9482,13.24
9493,12.44
9504,12.92
9516,14.21
9528,15.75
9540,17.07
9552,17.94
9564,18.42
9576,18.66
9588,18.74
9600,18.53
9612,17.79
9624,16.24
9636,13.75
9648,10.46
9660,6.65
9672,2.72
9683,-1.03
9694,-4.39
9706,-7.33
9718,-9.84
9730,-12.0
9742,-13.96
9754,-15.98
9766,-18.43
9778,-21.74
9790,-26.2
9802,-31.72
9814,-37.73
9826,-43.14
9838,-46.64
9850,-47.0
9862,-43.51
9873,-36.17
9884,-25.7
9896,-13.34
9908,-0.52
9920,11.48
9932,21.72
9944,29.65
9956,35.07
9968,38.07
9980,38.9
9992,38.03
10004,36.02
10016,33.44
10028,30.78
10040,28.37
10052,26.34
10063,24.76
10074,23.63
10086,22.98
10098,22.79
10110,22.93
10122,23.17
10134,23.15
10146,22.53
10158,21.07
10170,18.76
10182,15.79
10194,12.52
10206,9.33
10218,6.54
10230,4.26
10242,2.4
10253,0.72
10264,-1.05
10276,-3.06
10288,-5.31
10300,-7.64
10312,-9.87
10324,-11.89
10336,-13.74
10348,-15.56
10360,-17.57
10372,-19.98
10384,-22.95
10396,-26.6
10408,-30.84
10420,-35.23
10432,-38.97
10443,-40.93
10454,-40.05
10466,-35.66
10478,-27.85
10490,-17.47
10502,-5.93
10514,5.29
10526,15.02
10538,22.62
10550,27.98
10562,31.31
10574,32.96
10586,33.23
10598,32.4
10610,30.7
10622,28.44
10633,26.01
10644,23.8
10656,22.17
10668,21.29
10680,21.14
10692,21.54
10704,22.23
10716,22.98
10728,23.6
10740,23.99
10752,24.01
10764,23.56
10776,22.52
10788,20.84
10800,18.6
10812,15.99
10823,13.21
10834,10.45
10846,7.75
10858,5.07
10870,2.34
10882,-0.43
10894,-3.17
10906,-5.72
10918,-7.94
10930,-9.8
10942,-11.49
10954,-13.32
10966,-15.68
10978,-18.91
10990,-23.03
11002,-27.75
11013,-32.34
11024,-35.84
11036,-37.24
11048,-35.8
11060,-31.28
11072,-23.98
11084,-14.73
11096,-4.57
11108,5.41
11120,14.31
11132,21.47
11144,26.55
11156,29.44
11168,30.28
11180,29.39
11192,27.19
11203,24.19
11214,20.86
11226,17.67
11238,15.01
11250,13.2
11262,12.39
11274,12.54
11286,13.43
11298,14.66
11310,15.8
11322,16.58
11334,16.89
11346,16.82
11358,16.51
11370,16.01
11382,15.21
11393,13.93
11404,12.06
11416,9.66
11428,7.04
11440,4.61
11452,2.73
11464,1.57
11476,0.99
11488,0.7
11500,0.33
11512,-0.35
11524,-1.4
11536,-2.69
11548,-4.0
11560,-5.14
11572,-6.0
11583,-6.66
11594,-7.3
11606,-8.22
11618,-9.74
11630,-12.17
11642,-15.72
11654,-20.34
11666,-25.65
11678,-30.9
11690,-35.0
11702,-36.89
11714,-35.7
11726,-31.17
11738,-23.64
11750,-14.06
11762,-3.67
11773,6.27
11784,14.77
11796,21.26
11808,25.57
11820,27.87
11832,28.49
11844,27.78
11856,26.07
11868,23.68
11880,20.99
11892,18.46
11904,16.57
11916,15.71
11928,15.99
11940,17.23
11952,19.01
11963,20.84
11974,22.37
11986,23.42
11998,23.99
12010,24.11
12022,23.77
12034,22.86
12046,21.29
12058,19.05
12070,16.35
12082,13.55
12094,11.05
12106,9.18
12118,7.99
12130,7.3
12142,6.75
12153,5.95
12164,4.58
12176,2.61
12188,0.21
12200,-2.29
12212,-4.52
12224,-6.27
12236,-7.49
12248,-8.34
12260,-9.15
12272,-10.31
12284,-12.15
12296,-14.92
12308,-18.6
12320,-22.85
12332,-26.97
12343,-30.02
12354,-31.0
12366,-29.24
12378,-24.55
12390,-17.38
12402,-8.63
12414,0.55
12426,9.12
12438,16.31
12450,21.65
12462,24.95
12474,26.17
12486,25.45
12498,23.1
12510,19.56
12522,15.47
12533,11.49
12544,8.25
12556,6.16
12568,5.37
12580,5.72
12592,6.85
12604,8.3
12616,9.67
12628,10.71
12640,11.38
12652,11.68
12664,11.64
12676,11.18
12688,10.21
12700,8.66
12712,6.63
12723,4.34
12734,2.05
12746,-0.07
12758,-2.04
12770,-4.02
12782,-6.18
12794,-8.61
12806,-11.25
12818,-13.94
12830,-16.47
12842,-18.72
12854,-20.64
12866,-22.28
12878,-23.8
12890,-25.48
12902,-27.67
12913,-30.65
12924,-34.36
12936,-38.26
12948,-41.38
12960,-42.56
12972,-40.86
12984,-35.96
12996,-28.22
13008,-18.62
13020,-8.4
13032,1.3
13044,9.65
13056,16.23
13068,20.89
13080,23.71
13092,24.84
13103,24.48
13114,22.88
13126,20.39
13138,17.45
13150,14.51
13162,12.02
13174,10.24
13186,9.25
13198,8.96
13210,9.17
13222,9.75
13234,10.58
13246,11.59
13258,12.65
13270,13.55
13282,14.02
13293,13.8
13304,12.76
13316,10.98
13328,8.65
13340,6.08
13352,3.53
13364,1.15
13376,-1.07
13388,-3.27
13400,-5.63
13412,-8.3
13424,-11.29
13436,-14.4
13448,-17.34
13460,-19.81
13472,-21.69
13483,-23.08
13494,-24.33
13506,-25.86
13518,-28.1
13530,-31.26
13542,-35.27
13554,-39.66
13566,-43.56
13578,-45.87
13590,-45.57
13602,-41.98
13614,-35.1
13626,-25.66
13638,-14.88
13650,-4.17
13662,5.33
13673,12.89
13684,18.32
13696,21.76
13708,23.46
13720,23.68
13732,22.65
13744,20.63
13756,18.0
13768,15.24
13780,12.82
13792,11.12
13804,10.3
13816,10.26
13828,10.73
13840,11.43
13852,12.2
13863,13.03
13874,13.96
13886,15.02
13898,16.07
13910,16.8
13922,16.86
13934,15.98
13946,14.11
13958,11.48
13970,8.51
13982,5.64
13994,3.22
14006,1.32
14018,-0.26
14030,-1.87
14042,-3.86
14053,-6.4
14064,-9.39
14076,-12.51
14088,-15.37
14100,-17.67
14112,-19.35
14124,-20.69
14136,-22.09
14148,-24.03
14160,-26.86
14172,-30.68
14184,-35.23
14196,-39.94
14208,-43.94
14220,-46.26
14232,-46.06
14243,-42.82
14254,-36.56
14266,-27.8
14278,-17.42
14290,-6.51
14302,3.91
14314,13.01
14326,20.2
14338,25.18
14350,27.89
14362,28.48
14374,27.3
14386,24.8
14398,21.5
14410,17.92
14422,14.58
14433,11.95
14444,10.35
14456,9.87
14468,10.4
14480,11.6
14492,13.07
14504,14.51
14516,15.68
14528,16.53
14540,17.04
14552,17.16
14564,16.81
14576,15.86
14588,14.25
14600,12.06
14612,9.5
14623,6.85
14634,4.39
14646,2.26
14658,0.41
14670,-1.32
14682,-3.2
14694,-5.38
14706,-7.91
14718,-10.65
14730,-13.37
14742,-15.82
14754,-17.85
14766,-19.48
14778,-20.88
14790,-22.38
14802,-24.33
14813,-27.07
14824,-30.75
14836,-35.22
14848,-39.96
14860,-44.12
14872,-46.67
14884,-46.63
14896,-43.36
14908,-36.79
14920,-27.45
14932,-16.38
14944,-4.85
14956,5.95
14968,15.09
14980,22.08
14992,26.76
15003,29.26
15014,29.86
15026,28.89
15038,26.75
15050,23.86
15062,20.72
15074,17.82
15086,15.56
15098,14.22
15110,13.88
15122,14.39
15134,15.49
15146,16.87
15158,18.27
15170,19.5
15182,20.46
15193,21.02
15204,21.07
15216,20.46
15228,19.1
15240,17.03
15252,14.42
15264,11.62
15276,8.99
15288,6.78
15300,5.04
15312,3.61
15324,2.18
15336,0.41
15348,-1.82
15360,-4.46
15372,-7.24
15383,-9.84
15394,-12.0
15406,-13.68
15418,-15.03
15430,-16.31
15442,-17.88
15454,-20.02
15466,-22.93
15478,-26.6
15490,-30.73
15502,-34.72
15514,-37.66
15526,-38.52
15538,-36.54
15550,-31.38
15562,-23.41
15573,-13.58
15584,-3.13
15596,6.72
15608,15.1
15620,21.6
15632,26.15
15644,28.85
15656,29.78
15668,29.03
15680,26.73
15692,23.24
15704,19.13
15716,15.12
15728,11.88
15740,9.81
15752,8.98
15763,9.14
15774,9.95
15786,11.06
15798,12.25
15810,13.41
15822,14.42
15834,15.11
15846,15.27
15858,14.69
15870,13.32
15882,11.23
15894,8.69
15906,6.0
15918,3.4
15930,1.01
15942,-1.18
15953,-3.26
15964,-5.36
15976,-7.54
15988,-9.78
16000,-12.01
16012,-14.14
16024,-16.14
16036,-18.06
16048,-20.03
16060,-22.22
16072,-24.77
16084,-27.66
16096,-30.63
16108,-33.14
16120,-34.49
16132,-33.92
16143,-30.98
16154,-25.58
16166,-18.16
16178,-9.52
16190,-0.65
16202,7.54
16214,14.37
16226,19.42
16238,22.49
16250,23.49
16262,22.48
16274,19.66
16286,15.49
16298,10.64
16310,5.87
16322,1.9
16333,-0.81
16344,-2.13
16356,-2.22
16368,-1.44
16380,-0.19
16392,1.2
16404,2.53
16416,3.76
16428,4.9
16440,5.91
16452,6.65
16464,6.85
16476,6.2
16488,4.51
16500,1.82
16512,-1.56
16523,-5.16
16534,-8.49
16546,-11.28
16558,-13.52
16570,-15.43
16582,-17.35
16594,-19.64
16606,-22.53
16618,-26.05
16630,-30.05
16642,-34.05
16654,-37.41
16666,-39.32
16678,-39.03
16690,-36.09
16702,-30.43
16713,-22.47
16724,-12.98
16736,-2.96
16748,6.65
16760,15.02
16772,21.6
16784,26.06
16796,28.24
16808,28.19
16820,26.12
16832,22.48
16844,17.87
16856,13.04
16868,8.7
16880,5.41
16892,3.5
16903,2.98
16914,3.64
16926,5.07
16938,6.81
16950,8.45
16962,9.71
16974,10.47
16986,10.76
16998,10.64
17010,10.12
17022,9.11
17034,7.43
17046,4.95
17058,1.71
17070,-2.03
17082,-5.84
17093,-9.34
17104,-12.31
17116,-14.79
17128,-17.08
17140,-19.53
17152,-22.49
17164,-26.14
17176,-30.46
17188,-35.13
17200,-39.53
17212,-42.79
17224,-43.94
17236,-42.14
17248,-37.01
17260,-28.8
17272,-18.39
17283,-7.05
17294,3.89
17306,13.4
17318,20.86
17330,26.04
17342,29.02
17354,29.97
17366,29.12
17378,26.83
17390,23.56
17402,19.89
17414,16.47
17426,13.84
17438,12.33
17450,12.0
17462,12.67
17473,14.0
17484,15.63
17496,17.22
17508,18.54
17520,19.46
17532,19.93
17544,19.91
17556,19.35
17568,18.16
17580,16.25
17592,13.54
17604,10.1
17616,6.19
17628,2.21
17640,-1.46
17652,-4.57
17663,-7.11
17674,-9.33
17686,-11.59
17698,-14.2
17710,-17.38
17722,-21.26
17734,-25.82
17746,-30.95
17758,-36.22
17770,-40.88
17782,-43.85
17794,-44.0
17806,-40.53
17818,-33.33
17830,-23.13
17842,-11.28
17853,0.59
17864,11.1
17876,19.38
17888,25.12
17900,28.49
17912,29.87
17924,29.74
17936,28.47
17948,26.41
17960,23.87
17972,21.17
17984,18.69
17996,16.75
18008,15.62
18020,15.41
18032,16.02
18043,17.23
18054,18.7
18066,20.09
18078,21.11
18090,21.54
18102,21.25
18114,20.22
18126,18.49
18138,16.24
18150,13.65
18162,10.94
18174,8.3
18186,5.75
18198,3.25
18210,0.64
18222,-2.19
18233,-5.25
18244,-8.39
18256,-11.35
18268,-13.91
18280,-15.94
18292,-17.58
18304,-19.11
18316,-20.96
18328,-23.53
18340,-27.03
18352,-31.41
18364,-36.19
18376,-40.53
18388,-43.29
18400,-43.35
18412,-39.93
18423,-32.92
18434,-22.97
18446,-11.36
18458,0.4
18470,10.94
18482,19.39
18494,25.4
18506,28.99
18518,30.44
18530,30.07
18542,28.25
18554,25.44
18566,22.2
18578,19.14
18590,16.74
18602,15.32
18613,14.94
18624,15.42
18636,16.48
18648,17.82
18660,19.2
18672,20.45
18684,21.47
18696,22.17
18708,22.49
18720,22.32
18732,21.56
18744,20.1
18756,17.96
18768,15.28
18780,12.4
18792,9.71
18803,7.54
18814,5.96
18826,4.77
18838,3.61
18850,2.06
18862,-0.06
18874,-2.73
18886,-5.71
18898,-8.66
18910,-11.37
18922,-13.76
18934,-15.9
18946,-17.98
18958,-20.22
18970,-22.86
18982,-26.1
18993,-29.94
19004,-34.08
19016,-37.88
19028,-40.39
19040,-40.63
19052,-37.87
19064,-31.93
19076,-23.21
19088,-12.66
19100,-1.49
19112,9.16
19124,18.36
19136,25.54
19148,30.45
19160,33.09
19172,33.59
19183,32.24
19194,29.43
19206,25.68
19218,21.61
19230,17.83
19242,14.87
19254,13.03
19266,12.35
19278,12.69
19290,13.71
19302,15.05
19314,16.35
19326,17.38
19338,17.95
19350,17.98
19362,17.43
19373,16.3
19384,14.61
19396,12.49
19408,10.08
19420,7.57
19432,5.17
19444,3.01
19456,1.14
19468,-0.49
19480,-2.01
19492,-3.53
19504,-5.15
19516,-6.89
19528,-8.72
19540,-10.6
19552,-12.44
19563,-14.2
19574,-15.91
19586,-17.67
19598,-19.71
19610,-22.26
19622,-25.48
19634,-29.27
19646,-33.17
19658,-36.43
19670,-38.09
19682,-37.31
19694,-33.65
19706,-27.14
19718,-18.43
19730,-8.5
19742,1.48
19753,10.45
19764,17.66
19776,22.66
19788,25.38
19800,25.92
19812,24.61
19824,21.85
19836,18.15
19848,14.1
19860,10.31
19872,7.33
19884,5.57
19896,5.13
19908,5.89
19920,7.51
19932,9.56
19943,11.63
19954,13.38
19966,14.58
19978,15.11
19990,14.9
20002,13.99
20014,12.45
20026,10.43
20038,8.09
20050,5.58
20062,3.06
20074,0.62
20086,-1.7
20098,-3.92
20110,-6.1
20122,-8.35
20133,-10.69
20144,-13.09
20156,-15.42
20168,-17.51
20180,-19.31
20192,-20.92
20204,-22.61
20216,-24.77
20228,-27.68
20240,-31.38
20252,-35.5
20264,-39.28
20276,-41.74
20288,-41.94
20300,-39.22
20312,-33.48
20323,-25.23
20334,-15.4
20346,-5.13
20358,4.58
20370,12.97
20382,19.63
20394,24.4
20406,27.27
20418,28.32
20430,27.7
20442,25.73
20454,22.85
20466,19.65
20478,16.68
20490,14.38
20502,12.97
20513,12.44
20524,12.65
20536,13.36
20548,14.37
20560,15.49
20572,16.59
20584,17.54
20596,18.23
20608,18.51
20620,18.2
20632,17.19
20644,15.49
20656,13.2
20668,10.54
20680,7.77
20692,5.09
20703,2.58
20714,0.15
20726,-2.37
20738,-5.15
20750,-8.21
20762,-11.42
20774,-14.49
20786,-17.09
20798,-19.04
20810,-20.39
20822,-21.39
20834,-22.48
20846,-24.16
20858,-26.8
20870,-30.52
20882,-35.04
20893,-39.67
20904,-43.34
20916,-44.91
20928,-43.45
20940,-38.57
20952,-30.61
20964,-20.47
20976,-9.38
20988,1.45
