seconds,BVP
6,-72.5
18,-76.87
30,-82.76
41,-90.34
52,-99.26
64,-108.68
76,-117.36
88,-123.94
100,-127.18
112,-126.39
124,-121.59
136,-113.6
148,-103.83
160,-93.9
172,-85.19
184,-78.46
196,-73.76
208,-70.49
220,-67.58
231,-63.76
242,-57.78
254,-48.79
266,-36.5
278,-21.5
290,-5.12
302,10.88
314,24.87
326,35.97
338,44.19
350,50.25
362,55.04
374,58.99
386,61.93
398,63.2
410,62.28
421,59.19
432,54.59
444,49.35
456,44.12
468,38.98
480,33.61
492,27.71
504,21.46
516,15.62
528,11.16
540,8.72
552,8.18
564,8.74
576,9.3
588,9.04
600,7.8
611,6.06
622,4.57
634,3.91
646,4.24
658,5.24
670,6.34
682,7.01
694,6.91
706,6.04
718,4.62
730,2.98
742,1.42
754,0.06
766,-1.12
778,-2.26
790,-3.56
801,-5.16
812,-7.15
824,-9.52
836,-12.16
848,-14.86
860,-17.38
872,-19.48
884,-21.09
896,-22.32
908,-23.52
920,-25.1
932,-27.47
944,-30.76
956,-34.79
968,-39.05
980,-42.76
991,-45.1
1002,-45.41
1014,-43.35
1026,-38.92
1038,-32.5
1050,-24.73
1062,-16.38
1074,-8.22
1086,-0.89
1098,5.14
1110,9.65
1122,12.64
1134,14.26
1146,14.74
1158,14.3
1170,13.29
1181,12.18
1192,11.61
1204,12.33
1216,14.89
1228,19.41
1240,25.45
1252,32.09
1264,38.39
1276,43.82
1288,48.52
1300,53.21
1312,58.76
1324,65.73
1336,73.94
1348,82.45
1360,89.82
1371,94.5
1382,95.27
1394,91.5
1406,83.25
1418,71.3
1430,57.03
1442,42.21
1454,28.69
1466,17.91
1478,10.53
1490,6.23
1502,3.93
1514,2.2
1526,-0.16
1538,-3.87
1550,-9.05
1561,-15.45
1572,-22.67
1584,-30.31
1596,-37.94
1608,-45.09
1620,-51.23
1632,-55.93
1644,-59.05
1656,-60.83
1668,-61.76
1680,-62.48
1692,-63.46
1704,-64.89
1716,-66.64
1728,-68.41
1740,-69.87
1751,-70.85
1762,-71.48
1774,-72.11
1786,-73.12
1798,-74.65
1810,-76.36
1822,-77.4
1834,-76.69
1846,-73.27
1858,-66.77
1870,-57.57
1882,-46.66
1894,-35.31
1906,-24.64
1918,-15.36
1930,-7.69
1941,-1.52
1952,3.43
1964,7.45
1976,10.81
1988,13.69
2000,16.28
2012,18.74
2024,21.17
2036,23.58
2048,25.9
2060,27.98
2072,29.64
2084,30.77
2096,31.42
2108,31.72
2120,31.89
2131,32.14
2142,32.55
2154,33.06
2166,33.49
2178,33.65
2190,33.37
2202,32.6
2214,31.42
2226,29.93
2238,28.28
2250,26.58
2262,24.92
2274,23.33
2286,21.79
2298,20.25
2310,18.67
2321,17.03
2332,15.38
2344,13.86
2356,12.63
2368,11.81
2380,11.39
2392,11.23
2404,11.09
2416,10.75
2428,10.08
2440,9.09
2452,7.88
2464,6.59
2476,5.3
2488,4.04
2500,2.75
2511,1.4
2522,-0.06
2534,-1.62
2546,-3.24
2558,-4.88
2570,-6.51
2582,-8.13
2594,-9.77
2606,-11.44
2618,-13.18
2630,-15.02
2642,-16.98
2654,-19.06
2666,-21.2
2678,-23.35
2690,-25.43
2701,-27.41
2712,-29.33
2724,-31.43
2736,-34.0
2748,-37.34
2760,-41.55
2772,-46.38
2784,-51.14
2796,-54.91
2808,-56.77
2820,-56.12
2832,-52.89
2844,-47.51
2856,-40.8
2868,-33.7
2880,-27.08
2891,-21.57
2902,-17.52
2914,-14.98
2926,-13.71
2938,-13.31
2950,-13.28
2962,-13.23
2974,-12.89
2986,-12.18
2998,-11.13
3010,-9.81
3022,-8.34
3034,-6.84
3046,-5.36
3058,-3.91
3070,-2.26
3081,-0.03
3092,3.3
3104,8.13
3116,14.62
3128,22.53
3140,31.31
3152,40.26
3164,48.73
3176,56.26
3188,62.61
3200,67.73
3212,71.75
3224,74.91
3236,77.48
3248,79.7
3260,81.66
3271,83.35
3282,84.73
3294,85.83
3306,86.85
3318,88.06
3330,89.69
3342,91.66
3354,93.52
3366,94.49
3378,93.73
3390,90.61
3402,84.9
3414,76.74
3426,66.55
3438,54.89
3450,42.34
3461,29.51
3472,17.1
3484,5.82
3496,-3.65
3508,-10.89
3520,-15.84
3532,-18.85
3544,-20.56
3556,-21.66
3568,-22.66
3580,-23.79
3592,-25.02
3604,-26.25
3616,-27.41
3628,-28.56
3640,-29.9
3651,-31.6
3662,-33.75
3674,-36.32
3686,-39.22
3698,-42.34
3710,-45.66
3722,-49.16
3734,-52.88
3746,-56.82
3758,-60.95
3770,-65.18
3782,-69.28
3794,-72.79
3806,-75.02
3818,-75.17
3830,-72.6
3841,-67.1
3852,-59.07
3864,-49.39
3876,-39.22
3888,-29.62
3900,-21.29
3912,-14.55
3924,-9.39
3936,-5.62
3948,-2.97
3960,-1.14
3972,0.19
3984,1.36
3996,2.61
4008,4.05
4020,5.7
4031,7.44
4042,9.14
4054,10.71
4066,12.1
4078,13.4
4090,14.71
4102,16.15
4114,17.73
4126,19.31
4138,20.66
4150,21.51
4162,21.68
4174,21.13
4186,20.03
4198,18.6
4210,17.09
4221,15.66
4232,14.41
4244,13.36
4256,12.52
4268,11.85
4280,11.25
4292,10.61
4304,9.77
4316,8.67
4328,7.39
4340,6.11
4352,5.03
4364,4.3
4376,3.91
4388,3.73
4400,3.57
4411,3.24
4422,2.63
4434,1.7
4446,0.49
4458,-0.93
4470,-2.42
4482,-3.88
4494,-5.19
4506,-6.34
4518,-7.43
4530,-8.62
4542,-10.07
4554,-11.86
4566,-13.94
4578,-16.13
4590,-18.22
4601,-20.08
4612,-21.68
4624,-23.14
4636,-24.66
4648,-26.52
4660,-28.96
4672,-32.03
4684,-35.51
4696,-38.84
4708,-41.15
4720,-41.55
4732,-39.38
4744,-34.53
4756,-27.51
4768,-19.25
4780,-10.86
4791,-3.26
4802,2.99
4814,7.67
4826,10.83
4838,12.65
4850,13.37
4862,13.3
4874,12.83
4886,12.35
4898,12.15
4910,12.37
4922,12.94
4934,13.64
4946,14.28
4958,14.76
4970,15.12
4981,15.49
4992,16.03
5004,16.81
5016,17.79
5028,18.85
5040,19.83
5052,20.6
5064,21.11
5076,21.34
5088,21.29
5100,20.96
5112,20.33
5124,19.39
5136,18.14
5148,16.68
5160,15.13
5171,13.63
5182,12.32
5194,11.22
5206,10.29
5218,9.45
5230,8.61
5242,7.73
5254,6.79
5266,5.83
5278,4.86
5290,3.89
5302,2.91
5314,1.92
5326,0.96
5338,0.06
5350,-0.72
5361,-1.39
5372,-2.02
5384,-2.76
5396,-3.75
5408,-5.03
5420,-6.56
5432,-8.19
5444,-9.72
5456,-11.03
5468,-12.09
5480,-13.02
5492,-13.97
5504,-15.12
5516,-16.56
5528,-18.24
5540,-20.02
5551,-21.71
5562,-23.19
5574,-24.46
5586,-25.65
5598,-27.0
5610,-28.76
5622,-31.15
5634,-34.23
5646,-37.81
5658,-41.43
5670,-44.37
5682,-45.77
5694,-44.9
5706,-41.33
5718,-35.18
5730,-27.07
5741,-18.01
5752,-9.09
5764,-1.24
5776,4.92
5788,9.22
5800,11.76
5812,12.92
5824,13.17
5836,13.0
5848,12.78
5860,12.75
5872,12.97
5884,13.42
5896,14.03
5908,14.73
5920,15.47
5931,16.23
5942,16.98
5954,17.74
5966,18.56
5978,19.5
5990,20.55
6002,21.62
6014,22.52
6026,23.03
6038,23.01
6050,22.38
6062,21.22
6074,19.68
6086,17.95
6098,16.2
6110,14.61
6121,13.27
6132,12.22
6144,11.43
6156,10.79
6168,10.16
6180,9.47
6192,8.74
6204,8.03
6216,7.39
6228,6.79
6240,6.19
6252,5.54
6264,4.88
6276,4.31
6288,3.91
6300,3.69
6311,3.55
6322,3.32
6334,2.83
6346,1.97
6358,0.71
6370,-0.9
6382,-2.71
6394,-4.54
6406,-6.14
6418,-7.29
6430,-7.93
6442,-8.16
6454,-8.31
6466,-8.75
6478,-9.78
6490,-11.39
6501,-13.33
6512,-15.2
6524,-16.6
6536,-17.35
6548,-17.5
6560,-17.38
6572,-17.47
6584,-18.29
6596,-20.15
6608,-22.98
6620,-26.13
6632,-28.51
6644,-28.8
6656,-25.97
6668,-19.69
6680,-10.52
6691,0.18
6702,10.74
6714,19.7
6726,26.2
6738,30.08
6750,31.68
6762,31.54
6774,30.16
6786,27.99
6798,25.43
6810,22.86
6822,20.63
6834,18.93
6846,17.73
6858,16.83
6870,16.01
6881,15.17
6892,14.44
6904,14.06
6916,14.26
6928,15.11
6940,16.42
6952,17.89
6964,19.19
6976,20.13
6988,20.66
7000,20.83
7012,20.73
7024,20.41
7036,19.83
7048,18.99
7060,17.92
7071,16.72
7082,15.56
7094,14.56
7106,13.74
7118,12.99
7130,12.1
7142,10.9
7154,9.34
7166,7.44
7178,5.26
7190,2.81
7202,0.06
7214,-3.01
7226,-6.32
7238,-9.63
7250,-12.63
7261,-15.03
7272,-16.67
7284,-17.61
7296,-18.01
7308,-18.08
7320,-18.0
7332,-17.89
7344,-17.85
7356,-18.01
7368,-18.46
7380,-19.28
7392,-20.47
7404,-21.96
7416,-23.68
7428,-25.51
7440,-27.32
7451,-29.04
7462,-30.62
7474,-32.08
7486,-33.48
7498,-34.99
7510,-36.79
7522,-39.12
7534,-42.23
7546,-46.17
7558,-50.68
7570,-55.08
7582,-58.33
7594,-59.31
7606,-57.19
7618,-51.8
7630,-43.71
7641,-34.05
7652,-24.15
7664,-15.16
7676,-7.79
7688,-2.29
7700,1.44
7712,3.63
7724,4.63
7736,4.82
7748,4.62
7760,4.43
7772,4.58
7784,5.2
7796,6.25
7808,7.51
7820,8.76
7831,9.84
7842,10.72
7854,11.53
7866,12.44
7878,13.63
7890,15.12
7902,16.81
7914,18.49
7926,19.9
7938,20.83
7950,21.18
7962,21.0
7974,20.43
7986,19.64
7998,18.76
8010,17.84
8021,16.86
8032,15.77
8044,14.57
8056,13.29
8068,12.03
8080,10.85
8092,9.81
8104,8.92
8116,8.15
8128,7.48
8140,6.84
8152,6.14
8164,5.28
8176,4.18
8188,2.8
8200,1.15
8211,-0.74
8222,-2.86
8234,-5.25
8246,-8.0
8258,-11.1
8270,-14.44
8282,-17.77
8294,-20.79
8306,-23.29
8318,-25.22
8330,-26.79
8342,-28.44
8354,-30.67
8366,-33.83
8378,-37.86
8390,-42.23
8401,-45.97
8412,-47.9
8424,-47.1
8436,-43.17
8448,-36.4
8460,-27.69
8472,-18.24
8484,-9.16
8496,-1.26
8508,5.04
8520,9.69
8532,12.82
8544,14.73
8556,15.78
8568,16.37
8580,16.86
8591,17.49
8602,18.3
8614,19.22
8626,20.12
8638,20.88
8650,21.5
8662,22.05
8674,22.62
8686,23.25
8698,23.94
8710,24.65
8722,25.36
8734,26.06
8746,26.73
8758,27.28
8770,27.63
8781,27.68
8792,27.42
8804,26.93
8816,26.32
8828,25.71
8840,25.14
8852,24.58
8864,23.92
8876,23.01
8888,21.73
8900,20.02
8912,17.92
8924,15.58
8936,13.27
8948,11.27
8960,9.78
8971,8.83
8982,8.22
8994,7.65
9006,6.8
9018,5.47
9030,3.64
9042,1.47
9054,-0.79
9066,-2.92
9078,-4.82
9090,-6.52
9102,-8.18
9114,-9.94
9126,-11.93
9138,-14.12
9150,-16.38
9161,-18.55
9172,-20.52
9184,-22.29
9196,-23.96
9208,-25.73
9220,-27.82
9232,-30.44
9244,-33.73
9256,-37.65
9268,-41.86
9280,-45.61
9292,-47.92
9304,-47.73
9316,-44.37
9328,-37.83
9340,-28.86
9351,-18.74
9362,-8.91
9374,-0.51
9386,5.87
9398,10.2
9410,12.82
9422,14.19
9434,14.75
9446,14.89
9458,14.94
9470,15.2
9482,15.89
9494,17.07
9506,18.62
9518,20.28
9530,21.7
9541,22.63
9552,22.97
9564,22.85
9576,22.55
9588,22.37
9600,22.56
9612,23.2
9624,24.16
9636,25.18
9648,25.96
9660,26.25
9672,25.98
9684,25.22
9696,24.16
9708,23.0
9720,21.87
9731,20.79
9742,19.7
9754,18.51
9766,17.14
9778,15.65
9790,14.13
9802,12.77
9814,11.66
9826,10.84
9838,10.22
9850,9.67
9862,9.04
9874,8.28
9886,7.42
9898,6.53
9910,5.63
9921,4.66
9932,3.51
9944,2.09
9956,0.37
9968,-1.54
9980,-3.46
9992,-5.22
10004,-6.74
10016,-8.08
10028,-9.37
10040,-10.78
10052,-12.39
10064,-14.21
10076,-16.19
10088,-18.23
10100,-20.31
10111,-22.43
10122,-24.56
10134,-26.68
10146,-28.73
10158,-30.69
10170,-32.68
10182,-34.93
10194,-37.7
10206,-41.02
10218,-44.57
10230,-47.56
10242,-48.91
10254,-47.66
10266,-43.34
10278,-36.2
10290,-27.17
10301,-17.52
10312,-8.47
10324,-0.86
10336,4.93
10348,8.89
10360,11.24
10372,12.27
10384,12.31
10396,11.82
10408,11.28
10420,11.11
10432,11.56
10444,12.62
10456,14.03
10468,15.42
10480,16.51
10491,17.21
10502,17.6
10514,17.91
10526,18.33
10538,18.91
10550,19.58
10562,20.19
10574,20.57
10586,20.66
10598,20.44
10610,19.95
10622,19.19
10634,18.16
10646,16.84
10658,15.3
10670,13.66
10681,12.09
10692,10.72
10704,9.59
10716,8.65
10728,7.8
10740,6.96
10752,6.12
10764,5.3
10776,4.54
10788,3.84
10800,3.1
10812,2.25
10824,1.22
10836,0.06
10848,-1.11
10860,-2.14
10871,-2.95
10882,-3.59
10894,-4.23
10906,-5.12
10918,-6.43
10930,-8.21
10942,-10.31
10954,-12.43
10966,-14.29
10978,-15.7
10990,-16.69
11002,-17.47
11014,-18.34
11026,-19.65
11038,-21.67
11050,-24.57
11061,-28.3
11072,-32.51
11084,-36.47
11096,-39.21
11108,-39.77
11120,-37.5
11132,-32.4
11144,-25.15
11156,-16.89
11168,-8.89
11180,-2.1
11192,2.98
11204,6.31
11216,8.15
11228,8.9
11240,8.99
11251,8.83
11262,8.79
11274,9.13
11286,9.89
11298,10.85
11310,11.69
11322,12.07
11334,11.8
11346,10.9
11358,9.58
11370,8.09
11382,6.65
11394,5.43
11406,4.52
11418,3.95
11430,3.7
11441,3.68
11452,3.76
11464,3.81
11476,3.72
11488,3.51
11500,3.27
11512,3.16
11524,3.33
11536,3.84
11548,4.6
11560,5.47
11572,6.26
11584,6.85
11596,7.15
11608,7.17
11620,6.97
11631,6.68
11642,6.4
11654,6.23
11666,6.22
11678,6.32
11690,6.44
11702,6.44
11714,6.25
11726,5.87
11738,5.39
11750,4.92
11762,4.48
11774,3.94
11786,3.1
11798,1.73
11810,-0.26
11821,-2.75
11832,-5.47
11844,-8.12
11856,-10.49
11868,-12.52
11880,-14.31
11892,-16.0
11904,-17.68
11916,-19.43
11928,-21.32
11940,-23.43
11952,-25.82
11964,-28.37
11976,-30.67
11988,-32.09
12000,-31.98
12011,-29.92
12022,-25.94
12034,-20.52
12046,-14.45
12058,-8.58
12070,-3.53
12082,0.38
12094,3.06
12106,4.57
12118,4.99
12130,4.44
12142,3.15
12154,1.4
12166,-0.41
12178,-1.9
12190,-2.73
12201,-2.75
12212,-1.98
12224,-0.55
12236,1.42
12248,3.86
12260,6.69
12272,9.75
12284,12.77
12296,15.52
12308,17.68
12320,18.92
12332,19.06
12344,18.16
12356,16.5
12368,14.41
12380,12.19
12391,10.06
12402,8.41
12414,7.45
12426,7.1
12438,7.2
12450,7.72
12462,8.76
12474,10.39
12486,12.64
12498,15.43
12510,19.03
12522,23.36
12534,27.94
12546,32.21
12558,35.82
12570,38.74
12581,41.09
12592,42.98
12604,44.49
12616,46.1
12628,47.86
12640,49.17
12652,49.26
12664,47.63
12676,44.17
12688,39.14
12700,32.92
12712,22.8
12724,9.14
12736,-5.14
12748,-16.94
12760,-25.21
12771,-30.68
12782,-34.57
12794,-37.71
12806,-40.43
12818,-42.63
12830,-43.55
12842,-42.89
12854,-41.0
12866,-38.49
12878,-35.73
12890,-33.03
12902,-30.08
12914,-26.81
12926,-23.43
12938,-19.96
12950,-16.74
12961,-14.31
12972,-13.04
12984,-12.81
12996,-13.19
13008,-13.63
13020,-13.78
13032,-13.48
13044,-12.43
13056,-10.55
13068,-8.27
13080,-6.01
13092,-4.08
13104,-2.64
13116,-1.68
13128,-1.18
13140,-1.03
13151,-0.93
13162,-0.58
13174,0.21
13186,1.54
13198,3.41
13210,5.64
13222,7.89
13234,9.74
13246,10.91
13258,11.35
13270,11.24
13282,10.83
13294,10.31
13306,9.77
13318,9.2
13330,8.57
13341,7.92
13352,7.37
13364,7.14
13376,7.42
13388,8.28
13400,9.59
13412,11.07
13424,12.26
13436,12.72
13448,12.02
13460,9.97
13472,6.68
13484,2.57
13496,-1.71
13508,-5.49
13520,-8.28
13531,-9.94
13542,-10.68
13554,-10.95
13566,-11.19
13578,-11.63
13590,-12.3
13602,-13.11
13614,-14.03
13626,-15.19
13638,-16.86
13650,-19.25
13662,-22.32
13674,-25.7
13686,-28.78
13698,-31.0
13710,-32.06
13721,-32.01
13732,-31.13
13744,-29.68
13756,-27.69
13768,-24.95
13780,-21.13
13792,-16.11
13804,-10.12
13816,-3.76
13828,2.18
13840,7.03
13852,10.41
13864,12.36
13876,13.24
13888,13.57
13900,13.85
13911,14.54
13922,15.98
13934,18.4
13946,21.88
13958,26.34
13970,31.49
13982,36.83
13994,41.76
14006,45.65
14018,47.98
14030,48.48
14042,47.23
14054,44.52
14066,40.85
14078,36.7
14090,32.47
14101,28.39
14112,24.54
14124,20.99
14136,17.77
14148,14.96
14160,12.56
14172,10.48
14184,8.57
14196,6.61
14208,4.46
14220,2.04
14232,-0.64
14244,-3.49
14256,-6.4
14268,-9.28
14280,-12.08
14291,-14.76
14302,-17.34
14314,-19.88
14326,-22.42
14338,-25.03
14350,-27.69
14362,-30.28
14374,-32.54
14386,-34.04
14398,-34.36
14410,-33.2
14422,-30.48
14434,-26.43
14446,-21.49
14458,-16.25
14470,-11.2
14481,-6.71
14492,-2.97
14504,-0.01
14516,2.17
14528,3.69
14540,4.69
14552,5.41
14564,6.13
14576,7.05
14588,8.23
14600,9.58
14612,10.93
14624,12.06
14636,12.88
14648,13.37
14660,13.67
14671,13.96
14682,14.39
14694,15.04
14706,15.83
14718,16.54
14730,16.91
14742,16.72
14754,15.96
14766,14.81
14778,13.57
14790,12.54
14802,11.84
14814,11.37
14826,10.89
14838,10.13
14850,8.96
14861,7.37
14872,5.49
14884,3.53
14896,1.72
14908,0.24
14920,-0.84
14932,-1.56
14944,-2.15
14956,-2.86
14968,-3.94
14980,-5.47
14992,-7.34
15004,-9.3
15016,-11.09
15028,-12.55
15040,-13.69
15051,-14.66
15062,-15.64
15074,-16.81
15086,-18.3
15098,-20.13
15110,-22.21
15122,-24.24
15134,-25.73
15146,-26.12
15158,-24.93
15170,-22.03
15182,-17.7
15194,-12.52
15206,-7.25
15218,-2.5
15230,1.36
15241,4.22
15252,6.18
15264,7.38
15276,8.02
15288,8.33
15300,8.59
15312,9.06
15324,9.91
15336,11.1
15348,12.39
15360,13.5
15372,14.18
15384,14.35
15396,14.09
15408,13.6
15420,13.07
15431,12.63
15442,12.33
15454,12.18
15466,12.15
15478,12.18
15490,12.21
15502,12.15
15514,11.95
15526,11.55
15538,10.97
15550,10.24
15562,9.36
15574,8.36
15586,7.27
15598,6.15
15610,5.08
15621,4.12
15632,3.33
15644,2.66
15656,2.06
15668,1.43
15680,0.73
15692,-0.07
15704,-0.95
15716,-1.91
15728,-2.92
15740,-3.98
15752,-5.1
15764,-6.29
15776,-7.59
15788,-8.99
15800,-10.45
15811,-11.83
15822,-12.95
15834,-13.71
15846,-14.12
15858,-14.39
15870,-14.85
15882,-15.79
15894,-17.36
15906,-19.47
15918,-21.8
15930,-23.89
15942,-25.3
15954,-25.64
15966,-24.69
15978,-22.45
15990,-19.06
16001,-14.85
16012,-10.24
16024,-5.66
16036,-1.48
16048,2.1
16060,4.95
16072,7.1
16084,8.62
16096,9.62
16108,10.26
16120,10.69
16132,11.07
16144,11.49
16156,11.98
16168,12.47
16180,12.88
16191,13.13
16202,13.16
16214,13.0
16226,12.73
16238,12.44
16250,12.24
16262,12.2
16274,12.34
16286,12.62
16298,12.93
16310,13.16
16322,13.21
16334,13.03
16346,12.63
16358,12.02
16370,11.24
16381,10.27
16392,9.1
16404,7.74
16416,6.23
16428,4.66
16440,3.15
16452,1.81
16464,0.7
16476,-0.16
16488,-0.82
16500,-1.35
16512,-1.84
16524,-2.38
16536,-3.01
16548,-3.79
16560,-4.74
16571,-5.83
16582,-6.98
16594,-8.09
16606,-9.07
16618,-9.89
16630,-10.6
16642,-11.28
16654,-12.04
16666,-12.95
16678,-14.04
16690,-15.34
16702,-16.87
16714,-18.62
16726,-20.49
16738,-22.24
16750,-23.45
16761,-23.67
16772,-22.56
16784,-20.0
16796,-16.17
16808,-11.49
16820,-6.47
16832,-1.63
16844,2.6
16856,5.93
16868,8.23
16880,9.52
16892,9.98
16904,9.88
16916,9.54
16928,9.23
16940,9.11
16951,9.23
16962,9.53
16974,9.9
16986,10.26
16998,10.52
17010,10.68
17022,10.76
17034,10.82
17046,10.93
17058,11.17
17070,11.55
17082,12.01
17094,12.41
17106,12.57
17118,12.35
17130,11.68
17141,10.63
17152,9.34
17164,7.97
17176,6.66
17188,5.43
17200,4.27
17212,3.11
17224,1.91
17236,0.67
17248,-0.57
17260,-1.79
17272,-2.96
17284,-4.08
17296,-5.17
17308,-6.27
17320,-7.38
17331,-8.54
17342,-9.74
17354,-10.97
17366,-12.18
17378,-13.35
17390,-14.49
17402,-15.64
17414,-16.94
17426,-18.51
17438,-20.37
17450,-22.37
17462,-24.2
17474,-25.4
17486,-25.54
17498,-24.33
17510,-21.68
17521,-17.79
17532,-13.07
17544,-8.03
17556,-3.19
17568,1.05
17580,4.45
17592,6.97
17604,8.7
17616,9.84
17628,10.61
17640,11.19
17652,11.73
17664,12.35
17676,13.08
17688,13.89
17700,14.63
17711,15.15
17722,15.33
17734,15.17
17746,14.79
17758,14.41
17770,14.18
17782,14.2
17794,14.43
17806,14.75
17818,15.0
17830,15.07
17842,14.88
17854,14.38
17866,13.61
17878,12.63
17890,11.53
17901,10.41
17912,9.35
17924,8.36
17936,7.45
17948,6.59
17960,5.81
17972,5.11
17984,4.48
17996,3.87
18008,3.19
18020,2.38
18032,1.47
18044,0.49
18056,-0.45
18068,-1.33
18080,-2.14
18091,-2.93
18102,-3.72
18114,-4.48
18126,-5.16
18138,-5.76
18150,-6.33
18162,-7.02
18174,-7.95
18186,-9.17
18198,-10.66
18210,-12.28
18222,-13.89
18234,-15.38
18246,-16.69
18258,-17.83
18270,-18.89
18281,-20.01
18292,-21.35
18304,-23.03
18316,-25.03
18328,-27.1
18340,-28.81
18352,-29.57
18364,-28.89
18376,-26.53
18388,-22.57
18400,-17.46
18412,-11.82
18424,-6.29
18436,-1.34
18448,2.77
18460,5.97
18471,8.37
18482,10.07
18494,11.2
18506,11.85
18518,12.09
18530,12.04
18542,11.89
18554,11.8
18566,11.95
18578,12.35
18590,12.92
18602,13.48
18614,13.83
18626,13.92
18638,13.78
18650,13.61
18661,13.59
18672,13.84
18684,14.35
18696,14.95
18708,15.43
18720,15.61
18732,15.41
18744,14.85
18756,14.02
18768,13.0
18780,11.87
18792,10.69
18804,9.51
18816,8.41
18828,7.48
18840,6.77
18851,6.26
18862,5.84
18874,5.36
18886,4.7
18898,3.85
18910,2.91
18922,2.04
18934,1.4
18946,1.02
18958,0.82
18970,0.65
18982,0.32
18994,-0.27
19006,-1.17
19018,-2.33
19030,-3.64
19041,-4.98
19052,-6.21
19064,-7.21
19076,-7.96
19088,-8.53
19100,-9.07
19112,-9.76
19124,-10.75
19136,-12.06
19148,-13.61
19160,-15.21
19172,-16.7
19184,-17.97
19196,-19.0
19208,-19.92
19220,-20.87
19231,-22.01
19242,-23.39
19254,-24.92
19266,-26.31
19278,-27.15
19290,-26.98
19302,-25.45
19314,-22.44
19326,-18.15
19338,-12.99
19350,-7.55
19362,-2.36
19374,2.19
19386,5.89
19398,8.64
19410,10.48
19421,11.47
19432,11.75
19444,11.51
19456,11.02
19468,10.55
19480,10.27
19492,10.22
19504,10.31
19516,10.44
19528,10.53
19540,10.57
19552,10.65
19564,10.82
19576,11.12
19588,11.56
19600,12.11
19611,12.71
19622,13.31
19634,13.82
19646,14.14
19658,14.18
19670,13.9
19682,13.32
19694,12.53
19706,11.64
19718,10.69
19730,9.67
19742,8.56
19754,7.42
19766,6.31
19778,5.35
19790,4.56
19801,3.87
19812,3.16
19824,2.29
19836,1.2
19848,-0.05
19860,-1.33
19872,-2.46
19884,-3.34
19896,-3.98
19908,-4.48
19920,-5.0
19932,-5.71
19944,-6.66
19956,-7.84
19968,-9.2
19980,-10.62
19991,-12.05
20002,-13.46
20014,-14.82
20026,-16.12
20038,-17.36
20050,-18.58
20062,-19.91
20074,-21.45
20086,-23.2
20098,-24.93
20110,-26.23
20122,-26.55
20134,-25.47
20146,-22.83
20158,-18.86
20170,-14.01
20181,-8.85
20192,-3.87
20204,0.64
20216,4.52
20228,7.72
20240,10.2
20252,11.92
20264,12.87
20276,13.11
20288,12.84
20300,12.32
20312,11.83
20324,11.57
20336,11.61
20348,11.88
20360,12.23
20371,12.47
20382,12.5
20394,12.35
20406,12.13
20418,12.02
20430,12.16
20442,12.57
20454,13.16
20466,13.73
20478,14.07
20490,14.06
20502,13.64
20514,12.86
20526,11.83
20538,10.66
20550,9.48
20561,8.4
20572,7.51
20584,6.82
20596,6.27
20608,5.75
20620,5.17
20632,4.46
20644,3.62
20656,2.69
20668,1.7
20680,0.68
20692,-0.36
20704,-1.39
20716,-2.34
20728,-3.16
20740,-3.82
20751,-4.32
20762,-4.75
20774,-5.22
20786,-5.87
20798,-6.79
20810,-8.02
20822,-9.51
20834,-11.12
20846,-12.69
20858,-14.1
20870,-15.31
20882,-16.4
20894,-17.52
20906,-18.82
20918,-20.4
20930,-22.26
20941,-24.3
20952,-26.26
20964,-27.8
20976,-28.5
20988,-27.98
