seconds,BVP
9,17.5
21,16.88
33,15.98
45,14.73
57,13.27
69,11.88
80,10.88
91,10.46
103,10.61
115,11.09
127,11.58
139,11.83
151,11.73
163,11.28
175,10.48
187,9.32
199,7.73
211,5.67
223,3.24
235,0.63
247,-1.86
259,-4.07
270,-5.98
281,-7.76
293,-9.63
305,-11.7
317,-13.82
329,-15.66
341,-16.72
353,-16.58
365,-15.01
377,-12.05
389,-7.98
401,-3.2
413,1.81
425,6.67
437,11.06
449,14.77
460,17.64
471,19.57
483,20.5
495,20.44
507,19.54
519,18.07
531,16.33
543,14.63
555,13.13
567,11.89
579,10.87
591,10.03
603,9.39
615,8.97
627,8.76
639,8.65
650,8.49
661,8.17
673,7.61
685,6.88
697,6.03
709,5.08
721,3.97
733,2.63
745,1.05
757,-0.68
769,-2.37
781,-3.94
793,-5.41
805,-6.96
817,-8.77
829,-10.9
840,-13.19
851,-15.24
863,-16.58
875,-16.81
887,-15.77
899,-13.56
911,-10.44
923,-6.73
935,-2.74
947,1.28
959,5.13
971,8.55
983,11.3
995,13.15
1007,13.99
1019,13.83
1030,12.84
1041,11.3
1053,9.52
1065,7.78
1077,6.27
1089,5.12
1101,4.34
1113,3.88
1125,3.63
1137,3.47
1149,3.31
1161,3.11
1173,2.89
1185,2.69
1197,2.52
1209,2.34
1220,1.99
1231,1.33
1243,0.22
1255,-1.3
1267,-3.07
1279,-4.87
1291,-6.46
1303,-7.78
1315,-8.87
1327,-9.9
1339,-11.01
1351,-12.3
1363,-13.8
1375,-15.46
1387,-17.2
1399,-18.87
1410,-20.25
1421,-21.0
1433,-20.76
1445,-19.26
1457,-16.47
1469,-12.56
1481,-7.91
1493,-3.01
1505,1.73
1517,5.93
1529,9.36
1541,11.88
1553,13.43
1565,14.08
1577,13.95
1589,13.26
1600,12.22
1611,11.01
1623,9.77
1635,8.61
1647,7.63
1659,6.92
1671,6.57
1683,6.57
1695,6.9
1707,7.42
1719,8.0
1731,8.43
1743,8.53
1755,8.17
1767,7.31
1779,6.01
1790,4.43
1801,2.74
1813,1.09
1825,-0.4
1837,-1.7
1849,-2.8
1861,-3.73
1873,-4.53
1885,-5.27
1897,-6.02
1909,-6.84
1921,-7.74
1933,-8.64
1945,-9.47
1957,-10.14
1969,-10.69
1980,-11.21
1991,-11.9
2003,-12.98
2015,-14.57
2027,-16.64
2039,-18.89
2051,-20.82
2063,-21.8
2075,-21.31
2087,-19.12
2099,-15.39
2111,-10.64
2123,-5.56
2135,-0.79
2147,3.27
2159,6.48
2170,8.91
2181,10.65
2193,11.81
2205,12.44
2217,12.64
2229,12.52
2241,12.2
2253,11.8
2265,11.36
2277,10.87
2289,10.33
2301,9.78
2313,9.34
2325,9.11
2337,9.12
2349,9.31
2360,9.53
2371,9.63
2383,9.5
2395,9.14
2407,8.6
2419,7.94
2431,7.21
2443,6.4
2455,5.51
2467,4.54
2479,3.51
2491,2.53
2503,1.67
2515,1.01
2527,0.53
2539,0.16
2550,-0.21
2561,-0.68
2573,-1.23
2585,-1.8
2597,-2.26
2609,-2.57
2621,-2.79
2633,-3.13
2645,-3.77
2657,-4.84
2669,-6.29
2681,-7.92
2693,-9.55
2705,-11.04
2717,-12.36
2729,-13.61
2740,-14.87
2751,-16.21
2763,-17.62
2775,-19.06
2787,-20.4
2799,-21.49
2811,-22.08
2823,-21.91
2835,-20.75
2847,-18.48
2859,-15.16
2871,-10.97
2883,-6.27
2895,-1.45
2907,3.08
2919,6.95
2930,9.95
2941,11.98
2953,13.15
2965,13.67
2977,13.78
2989,13.69
3001,13.52
3013,13.37
3025,13.23
3037,13.08
3049,12.85
3061,12.46
3073,11.82
3085,10.93
3097,9.92
3109,9.02
3120,8.46
3131,8.4
3143,8.8
3155,9.49
3167,10.15
3179,10.49
3191,10.3
3203,9.54
3215,8.28
3227,6.68
3239,4.94
3251,3.21
3263,1.6
3275,0.18
3287,-1.01
3299,-1.91
3310,-2.51
3321,-2.84
3333,-3.02
3345,-3.25
3357,-3.74
3369,-4.65
3381,-6.0
3393,-7.66
3405,-9.48
3417,-11.23
3429,-12.75
3441,-13.86
3453,-14.41
3465,-14.24
3477,-13.22
3489,-11.33
3500,-8.68
3511,-5.51
3523,-2.16
3535,1.03
3547,3.84
3559,6.17
3571,8.07
3583,9.62
3595,10.84
3607,11.65
3619,11.93
3631,11.65
3643,10.88
3655,9.83
3667,8.73
3679,7.77
3690,7.02
3701,6.46
3713,6.08
3725,5.9
3737,5.96
3749,6.22
3761,6.53
3773,6.67
3785,6.45
3797,5.78
3809,4.76
3821,3.53
3833,2.23
3845,0.86
3857,-0.6
3869,-2.19
3880,-3.84
3891,-5.45
3903,-6.89
3915,-8.18
3927,-9.42
3939,-10.74
3951,-12.2
3963,-13.73
3975,-15.16
3987,-16.35
3999,-17.32
4011,-18.23
4023,-19.31
4035,-20.71
4047,-22.42
4059,-24.19
4070,-25.63
4081,-26.33
4093,-25.97
4105,-24.43
4117,-21.77
4129,-18.24
4141,-14.21
4153,-10.08
4165,-6.19
4177,-2.82
4189,-0.09
4201,2.01
4213,3.52
4225,4.51
4237,5.07
4249,5.22
4260,5.03
4271,4.61
4283,4.09
4295,3.62
4307,3.26
4319,3.03
4331,2.81
4343,2.49
4355,2.01
4367,1.4
4379,0.77
4391,0.26
4403,-0.08
4415,-0.29
4427,-0.45
4439,-0.67
4450,-1.03
4461,-1.54
4473,-2.18
4485,-2.9
4497,-3.67
4509,-4.42
4521,-5.07
4533,-5.57
4545,-5.89
4557,-6.09
4569,-6.27
4581,-6.52
4593,-6.91
4605,-7.39
4617,-7.88
4629,-8.29
4640,-8.6
4651,-8.87
4663,-9.23
4675,-9.85
4687,-10.83
4699,-12.23
4711,-14.02
4723,-16.02
4735,-17.96
4747,-19.41
4759,-19.93
4771,-19.09
4783,-16.66
4795,-12.7
4807,-7.57
4819,-1.9
4830,3.64
4841,8.42
4853,12.09
4865,14.54
4877,15.84
4889,16.17
4901,15.75
4913,14.79
4925,13.52
4937,12.19
4949,11.0
4961,10.11
4973,9.54
4985,9.28
4997,9.27
5009,9.5
5020,9.94
5031,10.58
5043,11.34
5055,12.04
5067,12.5
5079,12.57
5091,12.24
5103,11.6
5115,10.79
5127,9.94
5139,9.04
5151,8.05
5163,6.9
5175,5.54
5187,4.02
5199,2.46
5210,0.98
5221,-0.39
5233,-1.67
5245,-2.95
5257,-4.26
5269,-5.54
5281,-6.7
5293,-7.64
5305,-8.34
5317,-8.87
5329,-9.45
5341,-10.35
5353,-11.75
5365,-13.6
5377,-15.69
5389,-17.76
5400,-19.68
5411,-21.31
5423,-22.62
5435,-23.58
5447,-24.09
5459,-23.95
5471,-22.85
5483,-20.54
5495,-17.03
5507,-12.6
5519,-7.49
5531,-1.89
5543,4.09
5555,10.32
5567,16.6
5579,22.67
5590,28.26
5601,33.2
5613,36.59
5625,37.92
5637,37.53
5649,36.5
5661,35.77
5673,35.49
5685,35.23
5697,34.52
5709,33.26
5721,31.65
5733,30.18
5745,29.12
5757,28.37
5769,27.6
5780,26.53
5791,25.2
5803,23.91
5815,22.97
5827,22.48
5839,22.63
5851,23.0
5863,23.03
5875,22.3
5887,20.58
5899,17.99
5911,14.88
5923,11.71
5935,8.88
5947,6.81
5959,5.68
5970,5.37
5981,5.51
5993,5.64
6005,5.37
6017,4.54
6029,3.27
6041,1.8
6053,0.3
6065,-0.32
6077,0.14
6089,1.5
6101,3.3
6113,5.03
6125,6.27
6137,6.8
6149,6.5
6160,5.38
6171,3.51
6183,0.99
6195,-1.96
6207,-5.01
6219,-7.89
6231,-10.45
6243,-12.69
6255,-14.71
6267,-16.53
6279,-18.06
6291,-19.26
6303,-20.17
6315,-20.96
6327,-21.93
6339,-23.31
6350,-25.12
6361,-27.03
6373,-28.58
6385,-29.41
6397,-29.51
6409,-29.25
6421,-29.15
6433,-29.63
6445,-30.75
6457,-32.2
6469,-33.51
6481,-34.31
6493,-34.5
6505,-34.37
6517,-34.29
6529,-34.57
6540,-35.29
6551,-36.3
6563,-37.31
6575,-38.04
6587,-38.22
6599,-37.63
6611,-36.15
6623,-33.71
6635,-30.39
6647,-26.38
6659,-21.92
6671,-17.25
6683,-12.55
6695,-7.88
6707,-3.33
6719,0.95
6730,4.76
6741,7.87
6753,10.17
6765,11.71
6777,12.7
6789,13.39
6801,14.02
6813,14.74
6825,15.59
6837,16.54
6849,17.52
6861,18.45
6873,19.35
6885,20.37
6897,21.74
6909,23.67
6920,26.2
6931,29.07
6943,31.79
6955,33.8
6967,34.73
6979,34.47
6991,33.2
7003,31.2
7015,28.69
7027,25.72
7039,22.19
7051,18.02
7063,13.21
7075,7.88
7087,2.13
7099,-4.01
7110,-10.6
7121,-17.63
7133,-24.88
7145,-31.86
7157,-37.89
7169,-42.38
7181,-44.97
7193,-45.76
7205,-45.22
7217,-43.99
7229,-42.66
7241,-41.52
7253,-40.58
7265,-39.5
7277,-37.72
7289,-34.62
7300,-29.71
7311,-22.91
7323,-14.64
7335,-5.64
7347,3.18
7359,11.03
7371,17.48
7383,22.56
7395,26.62
7407,30.12
7419,33.39
7431,36.3
7443,38.59
7455,40.07
7467,40.51
7479,39.7
7490,37.53
7501,34.28
7513,30.71
7525,27.72
7537,25.88
7549,24.97
7561,23.95
7573,21.32
7585,16.09
7597,8.32
7609,-0.73
7621,-9.22
7633,-15.6
7645,-19.37
7657,-21.02
7669,-21.51
7680,-21.64
7691,-21.47
7703,-20.48
7715,-18.15
7727,-14.37
7739,-9.71
7751,-5.03
7763,-0.92
7775,2.66
7787,6.18
7799,10.18
7811,14.66
7823,19.13
7835,23.06
7847,26.48
7859,30.38
7870,35.81
7881,43.78
7893,53.19
7905,60.75
7917,62.02
7929,53.7
7941,35.5
7953,10.64
7965,-15.25
7977,-36.45
7989,-49.35
8001,-53.9
8013,-51.84
8025,-45.8
8037,-37.99
8049,-29.56
8060,-20.84
8071,-12.03
8083,-3.66
8095,3.29
8107,7.86
8119,9.87
8131,9.96
8143,9.25
8155,8.92
8167,9.58
8179,11.12
8191,12.99
8203,14.43
8215,14.94
8227,14.57
8239,13.38
8250,11.03
8261,7.12
8273,0.92
8285,-8.07
8297,-19.52
8309,-32.32
8321,-44.44
8333,-53.32
8345,-56.74
8357,-53.58
8369,-44.17
8381,-30.4
8393,-15.38
8405,-1.08
8417,10.58
8429,18.58
8440,22.9
8451,24.16
8463,23.09
8475,20.5
8487,17.27
8499,14.14
8511,12.69
8523,13.9
8535,17.93
8547,24.06
8559,30.61
8571,35.51
8583,37.08
8595,34.59
8607,28.56
8619,20.46
8630,12.05
8641,4.05
8653,-2.94
8665,-8.64
8677,-12.94
8689,-15.86
8701,-17.37
8713,-17.38
8725,-15.78
8737,-12.86
8749,-9.33
8761,-6.1
8773,-4.32
8785,-5.31
8797,-10.11
8809,-18.92
8820,-30.61
8831,-42.19
8843,-50.3
8855,-53.87
8867,-52.5
8879,-46.88
8891,-38.33
8903,-27.99
8915,-16.29
8927,-2.79
8939,13.13
8951,31.42
8963,51.15
8975,68.16
8987,78.34
8999,79.53
9010,72.37
9021,59.53
9033,44.32
9045,29.51
9057,16.66
9069,6.2
9081,-1.81
9093,-8.01
9105,-12.54
9117,-15.39
9129,-16.69
9141,-16.81
9153,-16.28
9165,-15.76
9177,-15.88
9189,-17.04
9200,-18.76
9211,-20.28
9223,-20.88
9235,-20.14
9247,-18.06
9259,-15.05
9271,-11.85
9283,-9.39
9295,-8.36
9307,-9.02
9319,-11.1
9331,-14.02
9343,-17.05
9355,-19.52
9367,-20.99
9379,-21.39
9390,-21.06
9401,-20.49
9413,-20.26
9425,-20.86
9437,-22.51
9449,-24.86
9461,-26.96
9473,-27.55
9485,-25.52
9497,-20.36
9509,-12.2
9521,-2.08
9533,8.37
9545,17.57
9557,24.53
9569,29.07
9580,31.58
9591,32.68
9603,32.95
9615,33.19
9627,33.86
9639,35.05
9651,36.63
9663,38.47
9675,40.47
9687,42.36
9699,43.79
9711,44.49
9723,44.85
9735,45.26
9747,45.84
9759,46.44
9770,46.81
9781,46.51
9793,44.94
9805,41.49
9817,32.93
9829,18.96
9841,2.23
9853,-13.61
9865,-26.5
9877,-36.21
9889,-43.14
9901,-47.38
9913,-48.61
9925,-46.56
9937,-41.14
9949,-33.35
9960,-25.04
9971,-17.98
9983,-12.92
9995,-9.46
10007,-6.78
10019,-4.37
10031,-2.2
10043,-0.23
10055,1.24
10067,1.87
10079,1.54
10091,0.67
10103,0.01
10115,0.31
10127,1.94
10139,4.85
10150,8.72
10161,12.87
10173,15.82
10185,16.45
10197,14.37
10209,10.18
10221,5.05
10233,0.31
10245,-2.94
10257,-4.02
10269,-2.84
10281,0.2
10293,4.66
10305,10.03
10317,15.56
10329,19.99
10340,21.77
10351,19.73
10363,13.64
10375,4.42
10387,-6.1
10399,-15.54
10411,-21.75
10423,-23.67
10435,-21.71
10447,-17.33
10459,-12.06
10471,-6.87
10483,-2.08
10495,2.46
10507,7.27
10519,12.77
10530,18.88
10541,24.71
10553,28.9
10565,30.24
10577,27.91
10589,21.21
10601,9.38
10613,-8.08
10625,-29.86
10637,-51.67
10649,-68.8
10661,-79.16
10673,-83.23
10685,-82.02
10697,-76.11
10709,-66.14
10720,-53.05
10731,-38.54
10743,-24.78
10755,-14.15
10767,-8.31
10779,-7.36
10791,-9.75
10803,-12.7
10815,-14.13
10827,-11.34
10839,-2.84
10851,11.39
10863,29.8
10875,49.85
10887,69.09
10899,85.78
10910,99.27
10921,109.37
10933,116.18
10945,119.59
10957,119.24
10969,114.78
10981,106.46
10993,95.8
11005,84.08
11017,74.83
11029,71.45
11041,76.16
11053,89.02
11065,107.81
11077,128.48
11089,146.12
11100,156.29
11111,155.99
11123,144.6
11135,123.39
11147,95.35
11159,64.32
11171,34.17
11183,8.03
11195,-12.23
11207,-26.19
11219,-34.73
11231,-39.65
11243,-43.41
11255,-48.43
11267,-56.39
11279,-67.72
11290,-81.61
11301,-96.33
11313,-109.96
11325,-121.01
11337,-128.77
11349,-133.49
11361,-136.06
11373,-137.52
11385,-138.74
11397,-140.08
11409,-141.46
11421,-142.3
11433,-141.66
11445,-138.35
11457,-131.23
11469,-119.52
11480,-103.06
11491,-82.61
11503,-59.74
11515,-36.52
11527,-15.01
11539,3.22
11551,17.48
11563,27.87
11575,35.01
11587,39.68
11599,42.51
11611,43.88
11623,43.96
11635,42.75
11647,40.26
11659,36.45
11670,31.33
11681,24.91
11693,17.29
11705,8.73
11717,-0.36
11729,-9.45
11741,-18.03
11753,-25.77
11765,-32.58
11777,-38.67
11789,-44.45
11801,-50.41
11813,-56.89
11825,-63.96
11837,-71.13
11849,-77.38
11860,-81.19
11871,-81.02
11883,-75.73
11895,-65.15
11907,-50.27
11919,-33.01
11931,-15.58
11943,0.41
11955,14.44
11967,27.24
11979,40.24
11991,54.72
12003,71.05
12015,88.43
12027,105.27
12039,119.9
12050,131.43
12061,140.15
12073,147.32
12085,154.55
12097,163.18
12109,173.9
12121,186.71
12133,200.96
12145,215.29
12157,227.45
12169,234.46
12181,233.03
12193,220.41
12205,195.39
12217,158.99
12229,114.46
12240,66.34
12251,19.14
12263,-23.94
12275,-61.29
12287,-92.58
12299,-118.21
12311,-138.75
12323,-154.72
12335,-166.68
12347,-175.41
12359,-181.9
12371,-187.42
12383,-192.65
12395,-197.43
12407,-201.08
12419,-202.97
12430,-203.12
12441,-202.28
12453,-201.76
12465,-202.88
12477,-207.04
12489,-213.94
12501,-221.41
12513,-226.31
12525,-225.47
12537,-216.73
12549,-199.01
12561,-172.75
12573,-140.01
12585,-105.73
12597,-74.31
12609,-48.51
12620,-29.55
12631,-17.46
12643,-11.71
12655,-10.64
12667,-11.91
12679,-13.23
12691,-15.13
12703,-17.01
12715,-17.22
12727,-14.93
12739,-11.35
12751,-10.3
12763,-15.28
12775,-28.16
12787,-48.42
12799,-76.26
12810,-107.83
12821,-136.09
12833,-154.25
12845,-158.44
12857,-149.59
12869,-130.77
12881,-106.35
12893,-62.32
12905,-2.97
12917,53.94
12929,93.32
12941,110.01
12953,114.64
12965,114.36
12977,113.0
12989,112.56
13000,114.36
13011,115.61
13023,114.92
13035,113.23
13047,112.48
13059,114.01
13071,116.97
13083,120.61
13095,124.47
13107,129.77
13119,134.64
13131,137.68
13143,139.03
13155,139.88
13167,141.6
13179,144.15
13190,147.73
13201,152.49
13213,160.37
13225,170.3
13237,180.09
13249,187.88
13261,192.84
13273,194.96
13285,193.83
13297,189.59
13309,169.67
13321,132.1
13333,85.71
13345,43.5
13357,12.85
13369,-6.14
13380,-17.43
13391,-26.17
13403,-36.03
13415,-48.11
13427,-58.8
13439,-64.57
13451,-63.97
13463,-58.53
13475,-51.03
13487,-44.46
13499,-41.3
13511,-42.45
13523,-47.02
13535,-51.37
13547,-53.02
13559,-51.65
13570,-49.0
13581,-46.55
13593,-43.87
13605,-39.12
13617,-30.87
13629,-19.91
13641,-8.72
13653,-1.5
13665,-1.89
13677,-10.65
13689,-24.67
13701,-38.79
13713,-48.77
13725,-53.18
13737,-53.41
13749,-51.59
13760,-49.71
13771,-48.68
13783,-48.34
13795,-47.71
13807,-45.66
13819,-41.58
13831,-35.51
13843,-28.0
13855,-19.7
13867,-11.27
13879,-3.42
13891,3.51
13903,8.94
13915,12.19
13927,12.56
13939,9.58
13950,3.27
13961,-5.64
13973,-15.76
13985,-25.14
13997,-31.76
14009,-33.82
14021,-30.0
14033,-19.95
14045,-4.61
14057,13.67
14069,31.28
14081,44.58
14093,51.64
14105,52.66
14117,49.48
14129,44.56
14140,39.78
14151,35.9
14163,32.77
14175,29.95
14187,27.38
14199,25.42
14211,24.5
14223,24.66
14235,25.51
14247,26.42
14259,26.8
14271,26.42
14283,25.53
14295,24.85
14307,25.14
14319,26.72
14330,29.07
14341,30.85
14353,30.36
14365,26.25
14377,18.3
14389,7.62
14401,-3.74
14413,-13.67
14425,-20.91
14437,-25.45
14449,-28.21
14461,-30.43
14473,-32.86
14485,-35.55
14497,-37.96
14509,-39.47
14520,-39.76
14531,-38.88
14543,-37.3
14555,-35.14
14567,-32.45
14579,-29.18
14591,-25.18
14603,-20.46
14615,-15.24
14627,-9.93
14639,-4.99
14651,-0.8
14663,2.51
14675,4.97
14687,6.84
14699,8.4
14710,9.83
14721,11.16
14733,12.21
14745,12.76
14757,12.57
14769,11.61
14781,9.97
14793,7.94
14805,5.96
14817,4.46
14829,3.82
14841,4.14
14853,5.34
14865,7.09
14877,9.01
14889,10.73
14900,11.98
14911,12.61
14923,12.5
14935,11.54
14947,9.64
14959,6.79
14971,3.09
14983,-1.16
14995,-5.56
15007,-9.67
15019,-13.01
15031,-15.27
15043,-16.29
15055,-16.17
15067,-15.21
15079,-13.82
15090,-12.41
15101,-11.19
15113,-10.19
15125,-9.25
15137,-8.26
15149,-7.15
15161,-6.08
15173,-5.3
15185,-5.04
15197,-5.39
15209,-6.41
15221,-7.88
15233,-9.39
15245,-10.55
15257,-11.07
15269,-10.92
15280,-10.4
15291,-10.06
15303,-10.58
15315,-12.46
15327,-15.84
15339,-20.35
15351,-25.23
15363,-29.45
15375,-32.02
15387,-32.2
15399,-29.62
15411,-24.38
15423,-17.02
15435,-8.34
15447,0.7
15459,9.16
15470,16.3
15481,21.63
15493,24.97
15505,26.38
15517,26.12
15529,24.5
15541,21.86
15553,18.5
15565,14.7
15577,10.7
15589,6.76
15601,3.18
15613,0.2
15625,-2.01
15637,-3.42
15649,-4.14
15660,-4.34
15671,-4.2
15683,-3.78
15695,-3.09
15707,-2.17
15719,-1.14
15731,-0.26
15743,0.2
15755,0.03
15767,-0.74
15779,-1.93
15791,-3.25
15803,-4.48
15815,-5.54
15827,-6.46
15839,-7.38
15850,-8.45
15861,-9.82
15873,-11.65
15885,-14.06
15897,-17.04
15909,-20.3
15921,-23.23
15933,-25.03
15945,-24.85
15957,-22.15
15969,-16.89
15981,-9.52
15993,-0.92
16005,7.96
16017,16.26
16029,23.34
16040,28.82
16051,32.49
16063,34.26
16075,34.19
16087,32.49
16099,29.54
16111,25.87
16123,22.07
16135,18.7
16147,16.17
16159,14.74
16171,14.45
16183,15.17
16195,16.63
16207,18.47
16219,20.31
16230,21.78
16241,22.64
16253,22.76
16265,22.15
16277,20.92
16289,19.24
16301,17.3
16313,15.26
16325,13.27
16337,11.39
16349,9.61
16361,7.86
16373,6.04
16385,4.04
16397,1.83
16409,-0.63
16420,-3.28
16431,-6.08
16443,-8.95
16455,-11.88
16467,-14.87
16479,-18.04
16491,-21.5
16503,-25.29
16515,-29.31
16527,-33.14
16539,-36.17
16551,-37.71
16563,-37.16
16575,-34.3
16587,-29.3
16599,-22.73
16610,-15.33
16621,-7.87
16633,-0.94
16645,5.08
16657,10.0
16669,13.74
16681,16.27
16693,17.57
16705,17.69
16717,16.8
16729,15.24
16741,13.46
16753,11.93
16765,10.95
16777,10.64
16789,10.86
16800,11.35
16811,11.91
16823,12.43
16835,12.94
16847,13.47
16859,13.99
16871,14.36
16883,14.39
16895,13.91
16907,12.86
16919,11.27
16931,9.3
16943,7.14
16955,5.02
16967,3.14
16979,1.6
16990,0.37
17001,-0.66
17013,-1.63
17025,-2.65
17037,-3.8
17049,-5.11
17061,-6.66
17073,-8.56
17085,-10.91
17097,-13.62
17109,-16.38
17121,-18.6
17133,-19.6
17145,-18.84
17157,-16.13
17169,-11.69
17180,-6.05
17191,0.08
17203,6.07
17215,11.45
17227,15.97
17239,19.53
17251,22.12
17263,23.73
17275,24.33
17287,23.94
17299,22.67
17311,20.76
17323,18.57
17335,16.49
17347,14.8
17359,13.64
17370,12.97
17381,12.66
17393,12.53
17405,12.42
17417,12.24
17429,11.94
17441,11.52
17453,10.99
17465,10.37
17477,9.69
17489,8.94
17501,8.07
17513,6.98
17525,5.61
17537,3.96
17549,2.12
17560,0.27
17571,-1.46
17583,-2.96
17595,-4.23
17607,-5.32
17619,-6.28
17631,-7.15
17643,-7.95
17655,-8.71
17667,-9.48
17679,-10.37
17691,-11.44
17703,-12.69
17715,-14.04
17727,-15.41
17739,-16.77
17750,-18.16
17761,-19.75
17773,-21.67
17785,-24.01
17797,-26.65
17809,-29.23
17821,-31.19
17833,-31.89
17845,-30.78
17857,-27.58
17869,-22.46
17881,-15.93
17893,-8.75
17905,-1.7
17917,4.61
17929,9.81
17940,13.73
17951,16.39
17963,17.9
17975,18.47
17987,18.37
17999,17.89
18011,17.27
18023,16.67
18035,16.16
18047,15.73
18059,15.4
18071,15.22
18083,15.29
18095,15.66
18107,16.3
18119,17.12
18130,17.98
18141,18.74
18153,19.32
18165,19.68
18177,19.75
18189,19.5
18201,18.9
18213,17.93
18225,16.61
18237,14.95
18249,12.95
18261,10.68
18273,8.26
18285,5.92
18297,3.93
18309,2.45
18320,1.5
18331,0.86
18343,0.27
18355,-0.49
18367,-1.43
18379,-2.4
18391,-3.22
18403,-3.83
18415,-4.36
18427,-5.06
18439,-6.16
18451,-7.7
18463,-9.48
18475,-11.25
18487,-12.83
18499,-14.25
18510,-15.63
18521,-17.13
18533,-18.75
18545,-20.34
18557,-21.77
18569,-23.0
18581,-24.2
18593,-25.67
18605,-27.58
18617,-29.86
18629,-32.02
18641,-33.38
18653,-33.23
18665,-31.19
18677,-27.33
18689,-22.14
18700,-16.31
18711,-10.51
18723,-5.18
18735,-0.53
18747,3.41
18759,6.67
18771,9.19
18783,10.88
18795,11.61
18807,11.42
18819,10.48
18831,9.16
18843,7.83
18855,6.8
18867,6.25
18879,6.17
18890,6.42
18901,6.84
18913,7.28
18925,7.64
18937,7.87
18949,7.96
18961,7.9
18973,7.69
18985,7.34
18997,6.85
19009,6.24
19021,5.54
19033,4.83
19045,4.21
19057,3.78
19069,3.59
19080,3.55
19091,3.5
19103,3.24
19115,2.67
19127,1.8
19139,0.78
19151,-0.21
19163,-1.08
19175,-1.85
19187,-2.64
19199,-3.54
19211,-4.57
19223,-5.64
19235,-6.62
19247,-7.43
19259,-8.08
19270,-8.71
19281,-9.43
19293,-10.35
19305,-11.47
19317,-12.74
19329,-14.06
19341,-15.33
19353,-16.5
19365,-17.54
19377,-18.46
19389,-19.32
19401,-20.24
19413,-21.36
19425,-22.78
19437,-24.47
19449,-26.13
19460,-27.28
19471,-27.29
19483,-25.65
19495,-22.14
19507,-16.96
19519,-10.72
19531,-4.16
19543,1.99
19555,7.26
19567,11.42
19579,14.46
19591,16.47
19603,17.57
19615,17.93
19627,17.77
19639,17.32
19650,16.76
19661,16.2
19673,15.61
19685,14.95
19697,14.22
19709,13.57
19721,13.2
19733,13.28
19745,13.81
19757,14.61
19769,15.42
19781,16.0
19793,16.23
19805,16.13
19817,15.77
19829,15.19
19840,14.38
19851,13.32
19863,12.0
19875,10.54
19887,9.06
19899,7.64
19911,6.33
19923,5.08
19935,3.82
19947,2.52
19959,1.18
19971,-0.15
19983,-1.43
19995,-2.61
20007,-3.69
20019,-4.61
20030,-5.39
20041,-6.02
20053,-6.58
20065,-7.18
20077,-7.95
20089,-8.96
20101,-10.23
20113,-11.71
20125,-13.33
20137,-15.05
20149,-16.8
20161,-18.48
20173,-19.89
20185,-20.69
20197,-20.49
20209,-18.94
20220,-15.89
20231,-11.47
20243,-6.1
20255,-0.34
20267,5.26
20279,10.3
20291,14.53
20303,17.86
20315,20.22
20327,21.58
20339,21.89
20351,21.22
20363,19.8
20375,17.95
20387,16.1
20399,14.54
20410,13.48
20421,12.87
20433,12.6
20445,12.49
20457,12.42
20469,12.32
20481,12.17
20493,11.97
20505,11.71
20517,11.38
20529,10.98
20541,10.48
20553,9.87
20565,9.1
20577,8.14
20589,6.94
20600,5.54
20611,3.98
20623,2.39
20635,0.86
20647,-0.58
20659,-1.92
20671,-3.21
20683,-4.54
20695,-5.95
20707,-7.45
20719,-9.05
20731,-10.68
20743,-12.29
20755,-13.78
20767,-15.04
20779,-16.05
20790,-16.85
20801,-17.58
20813,-18.48
20825,-19.78
20837,-21.58
20849,-23.77
20861,-26.01
20873,-27.71
20885,-28.29
20897,-27.25
20909,-24.39
20921,-19.84
20933,-14.03
20945,-7.57
20957,-1.12
20969,4.78
20980,9.74
20991,13.58
