seconds,BVP
4,25.83
16,22.6
28,18.86
40,14.61
52,9.99
64,5.22
76,0.93
88,-2.35
100,-4.31
112,-4.93
124,-4.27
136,-2.43
148,0.52
160,4.41
171,9.01
182,14.53
194,20.77
206,27.02
218,32.25
230,35.68
242,37.16
254,37.11
266,36.17
278,34.91
290,34.3
302,34.69
314,35.73
326,36.64
338,36.79
350,36.1
361,34.92
372,33.58
384,27.74
396,15.23
408,-2.9
420,-22.8
432,-40.52
444,-53.83
456,-61.91
468,-65.03
480,-64.38
492,-61.68
504,-57.88
516,-53.47
528,-48.56
540,-43.06
551,-37.24
562,-31.64
574,-27.13
586,-24.44
598,-23.57
610,-22.93
622,-20.64
634,-15.47
646,-7.16
658,3.09
670,13.7
682,23.2
694,30.54
706,35.23
718,37.49
730,37.53
741,34.27
752,28.26
764,19.92
776,9.91
788,-0.82
800,-11.16
812,-20.01
824,-26.35
836,-29.84
848,-30.87
860,-30.27
872,-29.28
884,-28.73
896,-28.77
908,-28.94
920,-28.91
931,-28.05
942,-26.37
954,-24.23
966,-21.92
978,-19.64
990,-17.22
1002,-14.3
1014,-10.63
1026,-6.31
1038,-1.73
1050,2.55
1062,6.13
1074,8.92
1086,10.89
1098,12.1
1110,12.64
1121,12.57
1132,12.0
1144,11.06
1156,9.91
1168,8.73
1180,7.77
1192,7.13
1204,6.82
1216,6.81
1228,7.03
1240,7.41
1252,7.78
1264,7.95
1276,7.92
1288,7.72
1300,7.36
1311,6.79
1322,5.92
1334,4.73
1346,3.35
1358,1.88
1370,0.59
1382,-0.08
1394,0.26
1406,1.69
1418,3.88
1430,6.17
1442,7.75
1454,7.95
1466,6.1
1478,1.97
1490,-4.12
1501,-11.43
1512,-19.05
1524,-26.19
1536,-32.35
1548,-37.66
1560,-41.02
1572,-42.42
1584,-42.93
1596,-43.64
1608,-44.27
1620,-43.09
1632,-38.18
1644,-28.75
1656,-15.7
1668,-1.17
1680,12.31
1691,23.08
1702,30.96
1714,36.51
1726,40.08
1738,41.71
1750,41.41
1762,39.44
1774,36.52
1786,33.35
1798,30.34
1810,27.22
1822,23.13
1834,17.38
1846,9.58
1858,0.88
1870,-6.77
1881,-11.46
1892,-12.45
1904,-10.41
1916,-7.19
1928,-4.74
1940,-3.98
1952,-4.59
1964,-5.5
1976,-5.68
1988,-4.43
2000,-1.41
2012,3.46
2024,9.57
2036,15.56
2048,19.59
2060,19.73
2071,14.44
2082,3.21
2094,-12.91
2106,-30.87
2118,-44.9
2130,-50.08
2142,-45.85
2154,-35.45
2166,-22.69
2178,-10.07
2190,1.43
2202,11.7
2214,20.95
2226,29.2
2238,36.01
2250,41.35
2261,45.25
2272,48.23
2284,50.79
2296,52.98
2308,54.39
2320,54.52
2332,53.12
2344,50.13
2356,45.86
2368,40.86
2380,35.81
2392,30.63
2404,25.28
2416,19.69
2428,13.98
2440,8.42
2451,3.03
2462,-2.61
2474,-9.04
2486,-16.49
2498,-24.55
2510,-32.11
2522,-37.88
2534,-41.02
2546,-41.82
2558,-41.73
2570,-42.51
2582,-45.0
2594,-48.36
2606,-50.51
2618,-49.25
2630,-43.57
2641,-34.29
2652,-23.62
2664,-14.04
2676,-7.21
2688,-3.42
2700,-1.92
2712,-1.8
2724,-2.53
2736,-4.1
2748,-6.62
2760,-9.91
2772,-13.37
2784,-16.29
2796,-18.2
2808,-19.07
2820,-19.19
2831,-18.85
2842,-18.17
2854,-17.12
2866,-15.67
2878,-13.92
2890,-12.23
2902,-11.11
2914,-11.07
2926,-12.47
2938,-15.41
2950,-19.61
2962,-24.38
2974,-28.55
2986,-30.8
2998,-30.12
3010,-26.19
3021,-19.65
3032,-11.9
3044,-4.54
3056,1.2
3068,4.84
3080,6.76
3092,7.76
3104,8.71
3116,10.12
3128,12.1
3140,14.47
3152,16.96
3164,19.37
3176,21.65
3188,23.76
3200,25.69
3211,27.32
3222,28.37
3234,28.47
3246,27.19
3258,24.33
3270,20.12
3282,15.23
3294,10.57
3306,6.89
3318,4.49
3330,3.01
3342,1.73
3354,-0.09
3366,-2.72
3378,-5.89
3390,-8.9
3401,-11.01
3412,-11.8
3424,-11.32
3436,-10.02
3448,-8.41
3460,-6.89
3472,-5.5
3484,-4.07
3496,-2.36
3508,-0.21
3520,2.28
3532,4.84
3544,7.11
3556,8.8
3568,9.78
3580,10.12
3591,10.01
3602,9.64
3614,9.15
3626,8.57
3638,7.81
3650,6.79
3662,5.49
3674,4.02
3686,2.56
3698,1.25
3710,0.16
3722,-0.74
3734,-1.44
3746,-1.8
3758,-1.55
3770,-0.44
3781,1.51
3792,3.89
3804,6.11
3816,7.63
3828,8.37
3840,8.7
3852,9.18
3864,10.09
3876,11.13
3888,11.43
3900,10.01
3912,6.35
3924,0.81
3936,-5.39
3948,-10.6
3960,-13.34
3971,-12.83
3982,-9.16
3994,-3.11
4006,4.25
4018,12.0
4030,19.6
4042,26.82
4054,33.54
4066,39.58
4078,44.51
4090,47.82
4102,49.07
4114,48.09
4126,45.11
4138,40.65
4150,35.27
4161,29.43
4172,23.36
4184,17.08
4196,10.57
4208,3.95
4220,-2.48
4232,-8.23
4244,-12.79
4256,-15.87
4268,-17.54
4280,-18.19
4292,-18.41
4304,-18.72
4316,-19.34
4328,-20.2
4340,-21.08
4351,-21.79
4362,-22.32
4374,-22.83
4386,-23.53
4398,-24.49
4410,-25.57
4422,-26.51
4434,-27.07
4446,-27.14
4458,-26.82
4470,-26.28
4482,-25.67
4494,-25.01
4506,-24.19
4518,-23.04
4530,-21.47
4541,-19.51
4552,-17.33
4564,-15.2
4576,-13.38
4588,-12.06
4600,-11.31
4612,-11.15
4624,-11.54
4636,-12.37
4648,-13.45
4660,-14.41
4672,-14.77
4684,-14.05
4696,-11.94
4708,-8.43
4720,-3.91
4731,0.96
4742,5.49
4754,9.14
4766,11.65
4778,13.0
4790,13.37
4802,12.98
4814,12.03
4826,10.73
4838,9.26
4850,7.88
4862,6.89
4874,6.53
4886,6.95
4898,8.14
4910,9.87
4921,11.79
4932,13.47
4944,14.56
4956,14.85
4968,14.35
4980,13.23
4992,11.7
5004,9.99
5016,8.22
5028,6.44
5040,4.67
5052,2.91
5064,1.22
5076,-0.3
5088,-1.55
5100,-2.5
5111,-3.19
5122,-3.74
5134,-4.29
5146,-4.96
5158,-5.86
5170,-7.07
5182,-8.6
5194,-10.47
5206,-12.57
5218,-14.73
5230,-16.68
5242,-18.08
5254,-18.64
5266,-18.17
5278,-16.65
5290,-14.23
5301,-11.22
5312,-7.94
5324,-4.71
5336,-1.73
5348,0.9
5360,3.2
5372,5.17
5384,6.84
5396,8.17
5408,9.1
5420,9.65
5432,9.92
5444,10.06
5456,10.17
5468,10.26
5480,10.19
5491,9.78
5502,8.94
5514,7.73
5526,6.34
5538,5.03
5550,3.96
5562,3.16
5574,2.52
5586,1.88
5598,1.13
5610,0.25
5622,-0.69
5634,-1.6
5646,-2.35
5658,-2.88
5670,-3.19
5681,-3.36
5692,-3.55
5704,-3.89
5716,-4.45
5728,-5.15
5740,-5.84
5752,-6.38
5764,-6.72
5776,-6.97
5788,-7.33
5800,-7.94
5812,-8.79
5824,-9.66
5836,-10.24
5848,-10.25
5860,-9.52
5871,-8.07
5882,-6.07
5894,-3.78
5906,-1.45
5918,0.72
5930,2.61
5942,4.16
5954,5.39
5966,6.34
5978,7.06
5990,7.61
6002,8.05
6014,8.38
6026,8.62
6038,8.71
6050,8.64
6061,8.41
6072,8.09
6084,7.77
6096,7.58
6108,7.57
6120,7.71
6132,7.87
6144,7.92
6156,7.74
6168,7.31
6180,6.62
6192,5.73
6204,4.7
6216,3.61
6228,2.55
6240,1.61
6251,0.84
6262,0.23
6274,-0.3
6286,-0.85
6298,-1.52
6310,-2.32
6322,-3.21
6334,-4.1
6346,-4.95
6358,-5.78
6370,-6.63
6382,-7.62
6394,-8.8
6406,-10.17
6418,-11.61
6430,-12.9
6441,-13.74
6452,-13.84
6464,-13.03
6476,-11.29
6488,-8.76
6500,-5.71
6512,-2.42
6524,0.88
6536,4.06
6548,7.08
6560,9.92
6572,12.56
6584,14.88
6596,16.71
6608,17.89
6620,18.3
6631,17.96
6642,17.02
6654,15.67
6666,14.07
6678,12.33
6690,10.51
6702,8.68
6714,6.99
6726,5.59
6738,4.62
6750,4.07
6762,3.77
6774,3.45
6786,2.93
6798,2.19
6810,1.37
6821,0.76
6832,0.53
6844,0.72
6856,1.09
6868,1.3
6880,1.0
6892,0.05
6904,-1.48
6916,-3.29
6928,-5.02
6940,-6.38
6952,-7.3
6964,-7.86
6976,-8.27
6988,-8.76
7000,-9.46
7011,-10.43
7022,-11.62
7034,-12.83
7046,-13.79
7058,-14.14
7070,-13.56
7082,-11.92
7094,-9.34
7106,-6.23
7118,-3.16
7130,-0.63
7142,1.04
7154,1.88
7166,2.08
7178,1.94
7190,1.68
7201,1.35
7212,0.94
7224,0.37
7236,-0.34
7248,-1.08
7260,-1.7
7272,-2.07
7284,-2.2
7296,-2.16
7308,-2.12
7320,-2.24
7332,-2.62
7344,-3.26
7356,-4.04
7368,-4.74
7380,-5.08
7391,-4.82
7402,-3.87
7414,-2.3
7426,-0.32
7438,1.78
7450,3.77
7462,5.52
7474,7.06
7486,8.49
7498,9.88
7510,11.19
7522,12.21
7534,12.65
7546,12.24
7558,10.85
7570,8.55
7581,5.68
7592,2.72
7604,0.19
7616,-1.48
7628,-2.14
7640,-1.85
7652,-0.95
7664,0.12
7676,0.92
7688,1.15
7700,0.69
7712,-0.34
7724,-1.65
7736,-2.89
7748,-3.79
7760,-4.24
7771,-4.31
7782,-4.14
7794,-3.89
7806,-3.63
7818,-3.29
7830,-2.78
7842,-2.06
7854,-1.25
7866,-0.53
7878,-0.13
7890,-0.16
7902,-0.57
7914,-1.17
7926,-1.74
7938,-2.12
7950,-2.31
7961,-2.38
7972,-2.47
7984,-2.66
7996,-2.98
8008,-3.41
8020,-3.92
8032,-4.48
8044,-5.03
8056,-5.44
8068,-5.52
8080,-5.04
8092,-3.89
8104,-2.11
8116,0.08
8128,2.36
8140,4.42
8151,6.08
8162,7.32
8174,8.23
8186,8.9
8198,9.37
8210,9.6
8222,9.52
8234,9.13
8246,8.54
8258,7.92
8270,7.45
8282,7.25
8294,7.31
8306,7.52
8318,7.72
8330,7.79
8341,7.71
8352,7.59
8364,7.57
8376,7.74
8388,8.06
8400,8.34
8412,8.36
8424,7.91
8436,6.86
8448,5.13
8460,2.71
8472,-0.4
8484,-4.17
8496,-8.4
8508,-12.74
8520,-16.72
8531,-19.83
8542,-21.73
8554,-22.34
8566,-21.87
8578,-20.71
8590,-19.27
8602,-17.83
8614,-16.5
8626,-15.23
8638,-13.89
8650,-12.38
8662,-10.66
8674,-8.77
8686,-6.8
8698,-4.86
8710,-3.05
8721,-1.39
8732,0.1
8744,1.41
8756,2.54
8768,3.43
8780,4.02
8792,4.28
8804,4.25
8816,4.02
8828,3.75
8840,3.51
8852,3.33
8864,3.11
8876,2.76
8888,2.16
8900,1.3
8911,0.17
8922,-1.16
8934,-2.61
8946,-4.05
8958,-5.29
8970,-6.07
8982,-6.16
8994,-5.43
9006,-3.91
9018,-1.76
9030,0.72
9042,3.25
9054,5.61
9066,7.68
9078,9.43
9090,10.91
9101,12.15
9112,13.18
9124,13.99
9136,14.56
9148,14.89
9160,15.08
9172,15.24
9184,15.45
9196,15.68
9208,15.79
9220,15.56
9232,14.85
9244,13.66
9256,12.15
9268,10.54
9280,8.98
9291,7.51
9302,6.01
9314,4.35
9326,2.44
9338,0.3
9350,-1.96
9362,-4.14
9374,-6.11
9386,-7.76
9398,-9.12
9410,-10.28
9422,-11.37
9434,-12.5
9446,-13.71
9458,-14.97
9470,-16.15
9481,-17.05
9492,-17.43
9504,-17.09
9516,-15.89
9528,-13.87
9540,-11.16
9552,-8.03
9564,-4.76
9576,-1.56
9588,1.41
9600,4.09
9612,6.47
9624,8.58
9636,10.43
9648,12.02
9660,13.36
9671,14.43
9682,15.23
9694,15.8
9706,16.22
9718,16.6
9730,17.01
9742,17.46
9754,17.89
9766,18.19
9778,18.29
9790,18.18
9802,17.89
9814,17.5
9826,16.99
9838,16.3
9850,15.37
9861,14.19
9872,12.86
9884,11.58
9896,10.6
9908,10.06
9920,10.01
9932,10.3
9944,10.73
9956,11.04
9968,11.09
9980,10.81
9992,10.27
10004,9.58
10016,8.82
10028,8.04
10040,7.23
10051,6.36
10062,5.42
10074,4.4
10086,3.33
10098,2.2
10110,0.97
10122,-0.39
10134,-1.89
10146,-3.48
10158,-5.04
10170,-6.45
10182,-7.64
10194,-8.61
10206,-9.51
10218,-10.49
10230,-11.72
10241,-13.24
10252,-14.98
10264,-16.76
10276,-18.4
10288,-19.73
10300,-20.64
10312,-21.04
10324,-20.89
10336,-20.24
10348,-19.25
10360,-18.15
10372,-17.22
10384,-16.61
10396,-16.28
10408,-16.01
10420,-15.53
10431,-14.67
10442,-13.47
10454,-12.22
10466,-11.26
10478,-10.87
10490,-11.11
10502,-11.82
10514,-12.73
10526,-13.57
10538,-14.15
10550,-14.44
10562,-14.5
10574,-14.49
10586,-14.55
10598,-14.79
10610,-15.23
10621,-15.8
10632,-16.39
10644,-16.89
10656,-17.26
10668,-17.51
10680,-17.71
10692,-17.89
10704,-18.01
10716,-17.92
10728,-17.41
10740,-16.35
10752,-14.73
10764,-12.7
10776,-10.52
10788,-8.42
10800,-6.54
10811,-4.87
10822,-3.37
10834,-1.98
10846,-0.69
10858,0.46
10870,1.47
10882,2.38
10894,3.29
10906,4.21
10918,5.08
10930,5.67
10942,5.72
10954,5.04
10966,3.67
10978,1.87
10990,0.12
11001,-1.09
11012,-1.43
11024,-0.83
11036,0.49
11048,2.14
11060,3.74
11072,5.05
11084,6.05
11096,6.86
11108,7.71
11120,8.74
11132,10.01
11144,11.49
11156,13.07
11168,14.66
11180,16.2
11191,17.64
11202,18.94
11214,20.07
11226,21.02
11238,21.8
11250,22.41
11262,22.88
11274,23.19
11286,23.33
11298,23.26
11310,22.93
11322,22.31
11334,21.33
11346,19.98
11358,18.27
11370,16.25
11381,14.0
11392,11.61
11404,9.09
11416,6.42
11428,3.58
11440,0.66
11452,-2.11
11464,-4.4
11476,-5.93
11488,-6.56
11500,-6.41
11512,-5.81
11524,-5.17
11536,-4.8
11548,-4.84
11560,-5.25
11571,-5.89
11582,-6.64
11594,-7.5
11606,-8.54
11618,-9.84
11630,-11.41
11642,-13.18
11654,-15.02
11666,-16.85
11678,-18.6
11690,-20.17
11702,-21.42
11714,-22.15
11726,-22.12
11738,-21.18
11750,-19.33
11761,-16.74
11772,-13.65
11784,-10.35
11796,-7.09
11808,-4.05
11820,-1.37
11832,0.93
11844,2.85
11856,4.47
11868,5.92
11880,7.27
11892,8.55
11904,9.67
11916,10.53
11928,11.04
11940,11.17
11951,10.94
11962,10.4
11974,9.63
11986,8.75
11998,7.86
12010,7.08
12022,6.48
12034,6.03
12046,5.64
12058,5.17
12070,4.48
12082,3.55
12094,2.46
12106,1.4
12118,0.53
12130,-0.08
12141,-0.47
12152,-0.81
12164,-1.26
12176,-1.93
12188,-2.77
12200,-3.67
12212,-4.45
12224,-5.0
12236,-5.28
12248,-5.3
12260,-5.19
12272,-5.08
12284,-5.15
12296,-5.55
12308,-6.37
12320,-7.55
12331,-8.87
12342,-9.96
12354,-10.42
12366,-9.98
12378,-8.6
12390,-6.51
12402,-4.07
12414,-1.7
12426,0.37
12438,2.02
12450,3.32
12462,4.32
12474,5.08
12486,5.64
12498,6.01
12510,6.27
12521,6.51
12532,6.8
12544,7.15
12556,7.52
12568,7.81
12580,7.95
12592,7.91
12604,7.7
12616,7.33
12628,6.86
12640,6.36
12652,5.88
12664,5.45
12676,5.07
12688,4.64
12700,4.08
12711,3.31
12722,2.35
12734,1.3
12746,0.3
12758,-0.56
12770,-1.23
12782,-1.73
12794,-2.13
12806,-2.47
12818,-2.81
12830,-3.2
12842,-3.67
12854,-4.21
12866,-4.82
12878,-5.44
12890,-6.09
12901,-6.83
12912,-7.76
12924,-8.91
12936,-10.2
12948,-11.43
12960,-12.29
12972,-12.51
12984,-11.96
12996,-10.68
13008,-8.86
13020,-6.79
13032,-4.71
13044,-2.82
13056,-1.2
13068,0.17
13080,1.37
13091,2.46
13102,3.5
13114,4.47
13126,5.33
13138,6.03
13150,6.58
13162,7.01
13174,7.36
13186,7.65
13198,7.87
13210,7.95
13222,7.86
13234,7.63
13246,7.32
13258,7.01
13270,6.74
13281,6.54
13292,6.4
13304,6.27
13316,6.11
13328,5.86
13340,5.48
13352,4.92
13364,4.19
13376,3.37
13388,2.55
13400,1.83
13412,1.22
13424,0.67
13436,0.1
13448,-0.52
13460,-1.21
13471,-1.9
13482,-2.54
13494,-3.11
13506,-3.61
13518,-4.12
13530,-4.69
13542,-5.39
13554,-6.25
13566,-7.23
13578,-8.21
13590,-8.95
13602,-9.18
13614,-8.67
13626,-7.37
13638,-5.43
13650,-3.16
13661,-0.94
13672,0.93
13684,2.35
13696,3.36
13708,4.07
13720,4.67
13732,5.27
13744,5.92
13756,6.57
13768,7.15
13780,7.56
13792,7.77
13804,7.79
13816,7.71
13828,7.6
13840,7.5
13851,7.41
13862,7.36
13874,7.35
13886,7.45
13898,7.69
13910,8.05
13922,8.39
13934,8.53
13946,8.32
13958,7.69
13970,6.74
13982,5.63
13994,4.52
14006,3.53
14018,2.68
14030,1.91
14041,1.17
14052,0.39
14064,-0.44
14076,-1.33
14088,-2.29
14100,-3.31
14112,-4.39
14124,-5.49
14136,-6.56
14148,-7.51
14160,-8.28
14172,-8.89
14184,-9.39
14196,-9.91
14208,-10.53
14220,-11.28
14231,-12.08
14242,-12.7
14254,-12.92
14266,-12.52
14278,-11.39
14290,-9.58
14302,-7.28
14314,-4.78
14326,-2.38
14338,-0.28
14350,1.43
14362,2.79
14374,3.87
14386,4.7
14398,5.27
14410,5.57
14421,5.58
14432,5.41
14444,5.18
14456,5.06
14468,5.16
14480,5.48
14492,5.94
14504,6.41
14516,6.75
14528,6.85
14540,6.71
14552,6.37
14564,5.94
14576,5.54
14588,5.27
14600,5.14
14611,5.07
14622,5.0
14634,4.87
14646,4.64
14658,4.35
14670,3.98
14682,3.56
14694,3.07
14706,2.53
14718,2.01
14730,1.57
14742,1.26
14754,1.05
14766,0.88
14778,0.62
14790,0.22
14801,-0.35
14812,-1.03
14824,-1.74
14836,-2.39
14848,-2.97
14860,-3.46
14872,-3.9
14884,-4.35
14896,-4.85
14908,-5.45
14920,-6.16
14932,-6.98
14944,-7.81
14956,-8.55
14968,-9.04
14980,-9.17
14991,-8.81
15002,-7.94
15014,-6.59
15026,-4.86
15038,-2.96
15050,-1.13
15062,0.42
15074,1.54
15086,2.21
15098,2.52
15110,2.63
15122,2.71
15134,2.82
15146,2.98
15158,3.11
15170,3.17
15181,3.16
15192,3.11
15204,3.06
15216,3.03
15228,3.01
15240,2.95
15252,2.86
15264,2.78
15276,2.76
15288,2.82
15300,2.91
15312,2.9
15324,2.65
15336,2.04
15348,1.1
15360,0.01
15371,-0.95
15382,-1.54
15394,-1.65
15406,-1.44
15418,-1.21
15430,-1.29
15442,-1.87
15454,-2.88
15466,-4.02
15478,-4.93
15490,-5.41
15502,-5.51
15514,-5.53
15526,-5.82
15538,-6.59
15550,-7.81
15561,-9.26
15572,-10.72
15584,-12.07
15596,-13.31
15608,-14.51
15620,-15.68
15632,-16.83
15644,-18.01
15656,-19.44
15668,-21.42
15680,-24.18
15692,-27.61
15704,-31.13
15716,-33.89
15728,-35.06
15740,-34.22
15751,-31.5
15762,-27.43
15774,-22.7
15786,-17.89
15798,-13.5
15810,-9.98
15822,-7.77
15834,-7.28
15846,-8.62
15858,-11.39
15870,-14.69
15882,-17.27
15894,-18.0
15906,-16.25
15918,-12.09
15930,-6.12
15941,0.81
15952,7.85
15964,14.36
15976,20.04
15988,25.01
16000,29.86
16012,35.35
16024,41.98
16036,49.46
16048,56.52
16060,61.19
16072,61.64
16084,56.97
16096,47.8
16108,35.99
16120,23.85
16131,13.19
16142,4.78
16154,-1.47
16166,-5.92
16178,-8.6
16190,-9.12
16202,-7.0
16214,-2.16
16226,4.76
16238,12.62
16250,20.1
16262,26.21
16274,30.44
16286,32.83
16298,33.63
16310,33.13
16321,31.53
16332,29.0
16344,25.79
16356,22.3
16368,18.96
16380,16.12
16392,13.97
16404,12.46
16416,11.43
16428,10.68
16440,10.07
16452,9.44
16464,8.63
16476,7.45
16488,5.75
16500,3.6
16511,1.25
16522,-0.91
16534,-2.52
16546,-3.47
16558,-3.91
16570,-4.17
16582,-4.57
16594,-5.24
16606,-6.09
16618,-6.9
16630,-7.45
16642,-7.61
16654,-7.42
16666,-7.03
16678,-6.57
16690,-6.13
16701,-5.72
16712,-5.28
16724,-4.73
16736,-3.99
16748,-3.01
16760,-1.78
16772,-0.38
16784,1.03
16796,2.24
16808,3.05
16820,3.31
16832,2.98
16844,2.15
16856,1.04
16868,-0.04
16880,-0.79
16891,-0.98
16902,-0.55
16914,0.32
16926,1.27
16938,1.89
16950,1.87
16962,1.18
16974,0.02
16986,-1.26
16998,-2.36
17010,-3.08
17022,-3.49
17034,-3.75
17046,-4.15
17058,-4.98
17070,-6.54
17081,-9.04
17092,-12.44
17104,-16.31
17116,-19.79
17128,-21.82
17140,-21.57
17152,-18.83
17164,-14.25
17176,-9.09
17188,-4.74
17200,-2.15
17212,-1.54
17224,-2.42
17236,-3.99
17248,-5.54
17260,-6.78
17271,-7.82
17282,-8.91
17294,-10.2
17306,-11.65
17318,-12.98
17330,-13.86
17342,-14.05
17354,-13.46
17366,-12.15
17378,-10.25
17390,-7.92
17402,-5.3
17414,-2.64
17426,-0.4
17438,0.87
17450,0.62
17461,-1.33
17472,-4.55
17484,-8.04
17496,-10.47
17508,-10.79
17520,-8.73
17532,-5.01
17544,-0.99
17556,1.87
17568,2.64
17580,1.27
17592,-1.58
17604,-4.93
17616,-7.92
17628,-10.06
17640,-11.11
17651,-10.97
17662,-9.54
17674,-6.74
17686,-2.71
17698,2.05
17710,6.75
17722,10.58
17734,12.99
17746,13.93
17758,13.76
17770,13.06
17782,12.28
17794,11.57
17806,10.86
17818,10.02
17830,9.06
17841,8.17
17852,7.68
17864,7.84
17876,8.72
17888,10.14
17900,11.72
17912,13.05
17924,13.9
17936,14.31
17948,14.6
17960,15.21
17972,16.44
17984,18.14
17996,19.66
18008,20.08
18020,18.6
18031,14.98
18042,9.56
18054,2.96
18066,-4.33
18078,-12.0
18090,-19.57
18102,-25.83
18114,-28.78
18126,-26.23
18138,-16.96
18150,-1.68
18162,16.85
18174,34.66
18186,48.2
18198,55.56
18210,56.89
18221,53.76
18232,48.04
18244,41.03
18256,33.29
18268,24.94
18280,16.08
18292,7.03
18304,-1.68
18316,-9.46
18328,-15.7
18340,-19.82
18352,-21.35
18364,-19.95
18376,-15.73
18388,-9.46
18400,-2.6
18411,3.1
18422,6.07
18434,5.45
18446,1.38
18458,-5.11
18470,-12.09
18482,-17.48
18494,-19.92
18506,-19.16
18518,-15.85
18530,-11.02
18542,-5.51
18554,0.11
18566,5.22
18578,9.46
18590,12.28
18601,12.83
18612,10.26
18624,4.38
18636,-4.12
18648,-13.98
18660,-24.08
18672,-34.03
18684,-43.2
18696,-50.58
18708,-54.92
18720,-55.03
18732,-50.26
18744,-41.17
18756,-29.97
18768,-18.75
18780,-11.94
18791,-12.83
18802,-20.4
18814,-29.59
18826,-34.97
18838,-33.79
18850,-26.81
18862,-17.1
18874,-8.06
18886,-2.01
18898,1.4
18910,4.65
18922,9.91
18934,18.21
18946,29.73
18958,44.05
18970,60.17
18981,76.36
18992,87.17
19004,88.62
19016,79.34
19028,61.19
19040,38.09
19052,14.55
19064,-5.99
19076,-22.14
19088,-34.23
19100,-43.33
19112,-49.37
19124,-52.37
19136,-51.03
19148,-45.28
19160,-36.46
19171,-26.84
19182,-18.72
19194,-13.75
19206,-12.38
19218,-13.41
19230,-15.08
19242,-15.78
19254,-14.9
19266,-12.74
19278,-10.16
19290,-7.66
19302,-5.68
19314,-4.32
19326,-3.1
19338,-1.47
19350,0.93
19361,3.88
19372,6.79
19384,9.0
19396,10.02
19408,9.67
19420,8.23
19432,6.39
19444,4.86
19456,4.14
19468,4.22
19480,4.76
19492,5.32
19504,5.61
19516,5.56
19528,5.29
19540,5.03
19551,4.97
19562,5.18
19574,5.61
19586,6.16
19598,6.74
19610,7.28
19622,7.59
19634,7.49
19646,6.86
19658,5.74
19670,4.37
19682,3.11
19694,2.26
19706,1.95
19718,2.05
19730,2.28
19741,2.39
19752,2.26
19764,1.99
19776,1.79
19788,1.82
19800,2.09
19812,2.43
19824,2.61
19836,2.43
19848,1.81
19860,0.76
19872,-0.63
19884,-2.26
19896,-3.99
19908,-5.58
19920,-6.77
19931,-7.26
19942,-6.87
19954,-5.55
19966,-3.44
19978,-0.78
19990,2.12
20002,5.01
20014,7.69
20026,10.02
20038,11.94
20050,13.44
20062,14.59
20074,15.49
20086,16.26
20098,17.04
20110,17.94
20121,19.06
20132,20.39
20144,21.83
20156,23.1
20168,23.82
20180,23.56
20192,22.07
20204,19.37
20216,15.76
20228,11.68
20240,7.56
20252,3.64
20264,-0.09
20276,-3.73
20288,-7.39
20300,-11.01
20311,-14.39
20322,-17.27
20334,-19.45
20346,-20.99
20358,-22.1
20370,-23.12
20382,-24.27
20394,-25.61
20406,-26.94
20418,-27.97
20430,-28.41
20442,-28.16
20454,-27.33
20466,-26.16
20478,-24.91
20490,-23.69
20501,-22.49
20512,-21.22
20524,-19.86
20536,-18.44
20548,-17.12
20560,-16.1
20572,-15.48
20584,-15.23
20596,-15.17
20608,-15.0
20620,-14.46
20632,-13.37
20644,-11.73
20656,-9.67
20668,-7.41
20680,-5.15
20691,-3.0
20702,-1.01
20714,0.83
20726,2.48
20738,3.91
20750,5.05
20762,5.93
20774,6.67
20786,7.42
20798,8.32
20810,9.42
20822,10.63
20834,11.79
20846,12.77
20858,13.48
20870,13.98
20881,14.32
20892,14.51
20904,14.44
20916,13.97
20928,12.95
20940,11.38
20952,9.45
20964,7.45
20976,5.67
20988,4.19
