seconds,BVP
5,-3.62
17,-4.22
29,-4.78
41,-5.25
53,-5.48
65,-5.28
77,-4.49
89,-3.13
100,-1.36
111,0.49
123,2.09
135,3.19
147,3.74
159,3.84
171,3.69
183,3.5
195,3.35
207,3.25
219,3.15
231,3.0
243,2.82
255,2.64
267,2.53
279,2.49
290,2.48
301,2.47
313,2.43
325,2.35
337,2.24
349,2.05
361,1.69
373,1.08
385,0.19
397,-0.87
409,-1.85
421,-2.43
433,-2.38
445,-1.62
457,-0.3
469,1.27
480,2.74
491,3.79
503,4.25
515,4.12
527,3.5
539,2.59
551,1.59
563,0.64
575,-0.13
587,-0.69
599,-1.05
611,-1.26
623,-1.38
635,-1.45
647,-1.52
659,-1.62
670,-1.79
681,-2.07
693,-2.46
705,-2.97
717,-3.57
729,-4.21
741,-4.82
753,-5.27
765,-5.41
777,-5.07
789,-4.14
801,-2.66
813,-0.8
825,1.12
837,2.8
849,4.05
860,4.82
871,5.19
883,5.27
895,5.1
907,4.68
919,3.97
931,3.02
943,1.99
955,1.11
967,0.55
979,0.35
991,0.41
1003,0.53
1015,0.54
1027,0.36
1039,0.02
1050,-0.45
1061,-1.09
1073,-1.95
1085,-3.03
1097,-4.21
1109,-5.22
1121,-5.73
1133,-5.51
1145,-4.54
1157,-3.02
1169,-1.32
1181,0.19
1193,1.25
1205,1.76
1217,1.76
1229,1.36
1240,0.71
1251,-0.04
1263,-0.76
1275,-1.36
1287,-1.77
1299,-2.03
1311,-2.2
1323,-2.36
1335,-2.56
1347,-2.78
1359,-2.98
1371,-3.13
1383,-3.22
1395,-3.34
1407,-3.57
1419,-3.99
1430,-4.56
1441,-5.14
1453,-5.46
1465,-5.27
1477,-4.44
1489,-2.99
1501,-1.13
1513,0.86
1525,2.67
1537,4.13
1549,5.16
1561,5.81
1573,6.17
1585,6.31
1597,6.22
1609,5.87
1620,5.25
1631,4.42
1643,3.54
1655,2.78
1667,2.32
1679,2.21
1691,2.38
1703,2.66
1715,2.85
1727,2.8
1739,2.48
1751,1.92
1763,1.17
1775,0.31
1787,-0.59
1799,-1.41
1810,-1.98
1821,-2.14
1833,-1.76
1845,-0.84
1857,0.47
1869,1.91
1881,3.25
1893,4.29
1905,4.97
1917,5.33
1929,5.45
1941,5.36
1953,5.06
1965,4.51
1977,3.77
1989,2.94
2000,2.17
2011,1.63
2023,1.4
2035,1.44
2047,1.67
2059,1.92
2071,2.05
2083,1.95
2095,1.55
2107,0.83
2119,-0.2
2131,-1.42
2143,-2.62
2155,-3.53
2167,-3.9
2179,-3.61
2190,-2.68
2201,-1.36
2213,0.08
2225,1.37
2237,2.33
2249,2.93
2261,3.19
2273,3.2
2285,3.02
2297,2.73
2309,2.37
2321,2.01
2333,1.65
2345,1.27
2357,0.84
2369,0.34
2380,-0.22
2391,-0.75
2403,-1.15
2415,-1.33
2427,-1.3
2439,-1.15
2451,-1.05
2463,-1.15
2475,-1.55
2487,-2.23
2499,-3.04
2511,-3.77
2523,-4.17
2535,-4.08
2547,-3.43
2559,-2.25
2570,-0.71
2581,0.98
2593,2.52
2605,3.69
2617,4.31
2629,4.35
2641,3.91
2653,3.18
2665,2.34
2677,1.52
2689,0.76
2701,0.06
2713,-0.53
2725,-0.95
2737,-1.12
2749,-1.03
2760,-0.73
2771,-0.4
2783,-0.25
2795,-0.46
2807,-1.06
2819,-2.0
2831,-3.08
2843,-4.07
2855,-4.72
2867,-4.81
2879,-4.24
2891,-3.02
2903,-1.31
2915,0.59
2927,2.36
2939,3.71
2950,4.49
2961,4.69
2973,4.44
2985,3.94
2997,3.36
3009,2.81
3021,2.34
3033,1.99
3045,1.78
3057,1.75
3069,1.91
3081,2.2
3093,2.53
3105,2.73
3117,2.69
3129,2.36
3140,1.81
3151,1.17
3163,0.56
3175,0.04
3187,-0.4
3199,-0.8
3211,-1.19
3223,-1.48
3235,-1.5
3247,-1.09
3259,-0.15
3271,1.23
3283,2.84
3295,4.39
3307,5.64
3319,6.46
3330,6.79
3341,6.65
3353,6.08
3365,5.15
3377,3.91
3389,2.49
3401,1.03
3413,-0.34
3425,-1.51
3437,-2.42
3449,-3.09
3461,-3.58
3473,-3.97
3485,-4.34
3497,-4.73
3509,-5.17
3520,-5.67
3531,-6.25
3543,-6.92
3555,-7.66
3567,-8.35
3579,-8.82
3591,-8.88
3603,-8.41
3615,-7.4
3627,-6.01
3639,-4.49
3651,-3.12
3663,-2.11
3675,-1.59
3687,-1.57
3699,-1.99
3710,-2.7
3721,-3.55
3733,-4.32
3745,-4.88
3757,-5.11
3769,-5.0
3781,-4.6
3793,-4.0
3805,-3.33
3817,-2.71
3829,-2.3
3841,-2.15
3853,-2.27
3865,-2.58
3877,-2.93
3889,-3.23
3900,-3.45
3911,-3.61
3923,-3.67
3935,-3.56
3947,-3.07
3959,-2.0
3971,-0.3
3983,1.85
3995,4.12
4007,6.09
4019,7.46
4031,8.16
4043,8.28
4055,8.04
4067,7.59
4079,7.02
4090,6.37
4101,5.66
4113,4.95
4125,4.36
4137,3.97
4149,3.78
4161,3.72
4173,3.67
4185,3.51
4197,3.18
4209,2.68
4221,2.06
4233,1.36
4245,0.58
4257,-0.25
4269,-1.06
4280,-1.72
4291,-2.09
4303,-2.08
4315,-1.72
4327,-1.16
4339,-0.63
4351,-0.24
4363,-0.03
4375,0.1
4387,0.25
4399,0.48
4411,0.7
4423,0.77
4435,0.55
4447,0.03
4459,-0.67
4470,-1.33
4481,-1.76
4493,-1.86
4505,-1.69
4517,-1.39
4529,-1.13
4541,-1.04
4553,-1.2
4565,-1.65
4577,-2.37
4589,-3.34
4601,-4.42
4613,-5.39
4625,-5.94
4637,-5.8
4649,-4.87
4660,-3.31
4671,-1.47
4683,0.22
4695,1.49
4707,2.26
4719,2.64
4731,2.79
4743,2.78
4755,2.58
4767,2.05
4779,1.16
4791,-0.02
4803,-1.24
4815,-2.24
4827,-2.87
4839,-3.15
4850,-3.26
4861,-3.45
4873,-3.85
4885,-4.53
4897,-5.43
4909,-6.46
4921,-7.53
4933,-8.52
4945,-9.25
4957,-9.51
4969,-9.11
4981,-7.98
4993,-6.23
5005,-4.18
5017,-2.16
5029,-0.48
5040,0.75
5051,1.52
5063,1.95
5075,2.12
5087,2.11
5099,1.93
5111,1.63
5123,1.27
5135,0.91
5147,0.64
5159,0.49
5171,0.44
5183,0.41
5195,0.31
5207,0.04
5219,-0.42
5230,-1.02
5241,-1.71
5253,-2.41
5265,-3.03
5277,-3.55
5289,-3.91
5301,-4.03
5313,-3.76
5325,-3.0
5337,-1.74
5349,-0.12
5361,1.61
5373,3.14
5385,4.22
5397,4.81
5409,4.95
5420,4.79
5431,4.42
5443,3.88
5455,3.13
5467,2.18
5479,1.13
5491,0.13
5503,-0.64
5515,-1.04
5527,-1.08
5539,-0.89
5551,-0.64
5563,-0.54
5575,-0.74
5587,-1.31
5599,-2.25
5610,-3.42
5621,-4.58
5633,-5.42
5645,-5.66
5657,-5.13
5669,-3.92
5681,-2.26
5693,-0.49
5705,1.08
5717,2.29
5729,3.09
5741,3.52
5753,3.58
5765,3.27
5777,2.6
5789,1.63
5800,0.56
5811,-0.4
5823,-1.07
5835,-1.35
5847,-1.3
5859,-1.04
5871,-0.75
5883,-0.6
5895,-0.7
5907,-1.07
5919,-1.68
5931,-2.42
5943,-3.18
5955,-3.84
5967,-4.33
5979,-4.61
5990,-4.61
6001,-4.23
6013,-3.39
6025,-2.05
6037,-0.31
6049,1.59
6061,3.36
6073,4.75
6085,5.64
6097,6.06
6109,6.16
6121,6.05
6133,5.75
6145,5.25
6157,4.56
6169,3.75
6180,3.02
6191,2.56
6203,2.51
6215,2.84
6227,3.4
6239,3.99
6251,4.42
6263,4.57
6275,4.39
6287,3.85
6299,2.99
6311,1.88
6323,0.71
6335,-0.22
6347,-0.63
6359,-0.35
6370,0.62
6381,2.06
6393,3.62
6405,4.99
6417,5.93
6429,6.4
6441,6.45
6453,6.19
6465,5.72
6477,5.1
6489,4.43
6501,3.81
6513,3.35
6525,3.11
6537,3.03
6549,2.96
6560,2.73
6571,2.26
6583,1.59
6595,0.88
6607,0.27
6619,-0.18
6631,-0.56
6643,-1.0
6655,-1.58
6667,-2.19
6679,-2.65
6691,-2.7
6703,-2.24
6715,-1.32
6727,-0.16
6739,0.98
6750,1.89
6761,2.46
6773,2.71
6785,2.72
6797,2.58
6809,2.38
6821,2.13
6833,1.81
6845,1.34
6857,0.69
6869,-0.1
6881,-0.91
6893,-1.55
6905,-1.9
6917,-1.98
6929,-2.0
6940,-2.2
6951,-2.77
6963,-3.66
6975,-4.66
6987,-5.49
6999,-5.98
7011,-6.15
7023,-6.16
7035,-6.16
7047,-6.2
7059,-6.17
7071,-5.91
7083,-5.33
7095,-4.48
7107,-3.5
7119,-2.6
7130,-1.94
7141,-1.61
7153,-1.61
7165,-1.9
7177,-2.38
7189,-2.96
7201,-3.55
7213,-4.06
7225,-4.47
7237,-4.8
7249,-5.11
7261,-5.45
7273,-5.82
7285,-6.16
7297,-6.35
7309,-6.32
7320,-6.04
7331,-5.64
7343,-5.32
7355,-5.27
7367,-5.51
7379,-5.87
7391,-6.02
7403,-5.64
7415,-4.58
7427,-2.96
7439,-1.12
7451,0.55
7463,1.77
7475,2.43
7487,2.57
7499,2.33
7510,1.81
7521,1.06
7533,0.13
7545,-0.87
7557,-1.78
7569,-2.41
7581,-2.66
7593,-2.54
7605,-2.19
7617,-1.83
7629,-1.63
7641,-1.68
7653,-1.98
7665,-2.44
7677,-2.95
7689,-3.42
7700,-3.76
7711,-3.88
7723,-3.69
7735,-3.16
7747,-2.31
7759,-1.23
7771,-0.06
7783,1.1
7795,2.19
7807,3.21
7819,4.12
7831,4.87
7843,5.37
7855,5.54
7867,5.37
7879,4.93
7890,4.32
7901,3.66
7913,3.02
7925,2.45
7937,1.98
7949,1.66
7961,1.51
7973,1.5
7985,1.53
7997,1.44
8009,1.07
8021,0.37
8033,-0.61
8045,-1.65
8057,-2.49
8069,-2.87
8080,-2.63
8091,-1.75
8103,-0.36
8115,1.32
8127,2.97
8139,4.31
8151,5.12
8163,5.33
8175,5.02
8187,4.41
8199,3.76
8211,3.27
8223,3.0
8235,2.89
8247,2.8
8259,2.57
8270,2.16
8281,1.63
8293,1.11
8305,0.73
8317,0.54
8329,0.46
8341,0.3
8353,-0.1
8365,-0.83
8377,-1.81
8389,-2.77
8401,-3.37
8413,-3.32
8425,-2.48
8437,-0.95
8449,0.95
8460,2.82
8471,4.27
8483,5.12
8495,5.37
8507,5.2
8519,4.8
8531,4.33
8543,3.82
8555,3.21
8567,2.45
8579,1.61
8591,0.78
8603,0.1
8615,-0.37
8627,-0.71
8639,-1.04
8650,-1.45
8661,-1.95
8673,-2.48
8685,-3.0
8697,-3.54
8709,-4.18
8721,-4.98
8733,-5.86
8745,-6.59
8757,-6.84
8769,-6.39
8781,-5.21
8793,-3.52
8805,-1.71
8817,-0.15
8829,0.91
8840,1.41
8851,1.45
8863,1.16
8875,0.71
8887,0.18
8899,-0.37
8911,-0.9
8923,-1.39
8935,-1.78
8947,-1.97
8959,-1.89
8971,-1.51
8983,-0.96
8995,-0.44
9007,-0.19
9019,-0.43
9030,-1.17
9041,-2.26
9053,-3.39
9065,-4.18
9077,-4.34
9089,-3.78
9101,-2.58
9113,-1.04
9125,0.55
9137,1.97
9149,3.17
9161,4.2
9173,5.14
9185,6.03
9197,6.78
9209,7.27
9220,7.4
9231,7.17
9243,6.7
9255,6.16
9267,5.7
9279,5.39
9291,5.19
9303,5.04
9315,4.88
9327,4.67
9339,4.4
9351,4.03
9363,3.51
9375,2.77
9387,1.81
9399,0.69
9410,-0.45
9421,-1.37
9433,-1.82
9445,-1.6
9457,-0.62
9469,1.02
9481,3.08
9493,5.21
9505,7.08
9517,8.45
9529,9.21
9541,9.38
9553,9.05
9565,8.33
9577,7.36
9589,6.3
9600,5.3
9611,4.48
9623,3.89
9635,3.49
9647,3.16
9659,2.81
9671,2.36
9683,1.79
9695,1.07
9707,0.19
9719,-0.88
9731,-2.12
9743,-3.41
9755,-4.56
9767,-5.37
9779,-5.67
9790,-5.4
9801,-4.6
9813,-3.38
9825,-1.87
9837,-0.22
9849,1.39
9861,2.78
9873,3.8
9885,4.32
9897,4.33
9909,3.94
9921,3.34
9933,2.69
9945,2.16
9957,1.77
9969,1.49
9980,1.26
9991,1.04
10003,0.84
10015,0.68
10027,0.61
10039,0.57
10051,0.5
10063,0.25
10075,-0.29
10087,-1.16
10099,-2.3
10111,-3.52
10123,-4.57
10135,-5.21
10147,-5.26
10159,-4.64
10170,-3.39
10181,-1.68
10193,0.25
10205,2.11
10217,3.62
10229,4.59
10241,4.92
10253,4.64
10265,3.88
10277,2.84
10289,1.75
10301,0.81
10313,0.1
10325,-0.36
10337,-0.64
10349,-0.84
10360,-1.03
10371,-1.25
10383,-1.48
10395,-1.7
10407,-1.9
10419,-2.15
10431,-2.52
10443,-3.12
10455,-3.93
10467,-4.83
10479,-5.58
10491,-5.92
10503,-5.66
10515,-4.77
10527,-3.38
10539,-1.74
10550,-0.15
10561,1.13
10573,1.94
10585,2.22
10597,2.04
10609,1.5
10621,0.74
10633,-0.08
10645,-0.86
10657,-1.49
10669,-1.91
10681,-2.12
10693,-2.15
10705,-2.09
10717,-2.04
10729,-2.08
10740,-2.23
10751,-2.48
10763,-2.8
10775,-3.17
10787,-3.61
10799,-4.14
10811,-4.71
10823,-5.21
10835,-5.46
10847,-5.3
10859,-4.68
10871,-3.66
10883,-2.39
10895,-1.05
10907,0.22
10919,1.33
10930,2.24
10941,2.94
10953,3.44
10965,3.74
10977,3.79
10989,3.55
11001,2.95
11013,2.02
11025,0.89
11037,-0.2
11049,-0.98
11061,-1.33
11073,-1.3
11085,-1.08
11097,-0.92
11109,-0.95
11120,-1.19
11131,-1.54
11143,-1.92
11155,-2.34
11167,-2.87
11179,-3.53
11191,-4.15
11203,-4.46
11215,-4.09
11227,-2.87
11239,-0.89
11251,1.48
11263,3.71
11275,5.35
11287,6.15
11299,6.13
11310,5.51
11321,4.57
11333,3.52
11345,2.47
11357,1.52
11369,0.74
11381,0.27
11393,0.22
11405,0.59
11417,1.23
11429,1.84
11441,2.09
11453,1.79
11465,0.96
11477,-0.18
11489,-1.32
11500,-2.2
11511,-2.71
11523,-2.85
11535,-2.7
11547,-2.27
11559,-1.55
11571,-0.5
11583,0.86
11595,2.4
11607,3.92
11619,5.17
11631,5.99
11643,6.32
11655,6.2
11667,5.75
11679,5.1
11690,4.32
11701,3.49
11713,2.64
11725,1.83
11737,1.1
11749,0.52
11761,0.14
11773,-0.03
11785,-0.05
11797,-0.02
11809,-0.07
11821,-0.31
11833,-0.82
11845,-1.62
11857,-2.66
11869,-3.79
11880,-4.83
11891,-5.54
11903,-5.68
11915,-5.11
11927,-3.85
11939,-2.05
11951,-0.02
11963,1.91
11975,3.46
11987,4.47
11999,4.9
12011,4.8
12023,4.29
12035,3.52
12047,2.66
12059,1.89
12070,1.3
12081,0.96
12093,0.84
12105,0.83
12117,0.8
12129,0.68
12141,0.41
12153,0.05
12165,-0.36
12177,-0.74
12189,-1.08
12201,-1.42
12213,-1.84
12225,-2.34
12237,-2.86
12249,-3.25
12260,-3.28
12271,-2.8
12283,-1.76
12295,-0.26
12307,1.48
12319,3.2
12331,4.68
12343,5.78
12355,6.43
12367,6.61
12379,6.38
12391,5.81
12403,5.01
12415,4.11
12427,3.23
12439,2.51
12450,2.06
12461,1.93
12473,2.06
12485,2.32
12497,2.54
12509,2.56
12521,2.3
12533,1.77
12545,1.07
12557,0.26
12569,-0.58
12581,-1.44
12593,-2.24
12605,-2.86
12617,-3.1
12629,-2.78
12640,-1.82
12651,-0.3
12663,1.52
12675,3.29
12687,4.7
12699,5.56
12711,5.84
12723,5.67
12735,5.22
12747,4.66
12759,4.1
12771,3.59
12783,3.12
12795,2.64
12807,2.1
12819,1.5
12830,0.86
12841,0.27
12853,-0.16
12865,-0.39
12877,-0.43
12889,-0.38
12901,-0.38
12913,-0.57
12925,-1.03
12937,-1.79
12949,-2.79
12961,-3.86
12973,-4.8
12985,-5.35
12997,-5.32
13009,-4.6
13020,-3.27
13031,-1.57
13043,0.16
13055,1.6
13067,2.5
13079,2.75
13091,2.4
13103,1.6
13115,0.57
13127,-0.43
13139,-1.21
13151,-1.71
13163,-1.96
13175,-2.07
13187,-2.15
13199,-2.29
13210,-2.51
13221,-2.8
13233,-3.11
13245,-3.44
13257,-3.75
13269,-4.01
13281,-4.21
13293,-4.38
13305,-4.59
13317,-4.92
13329,-5.34
13341,-5.74
13353,-5.89
13365,-5.58
13377,-4.75
13389,-3.5
13400,-2.11
13411,-0.86
13423,0.04
13435,0.54
13447,0.68
13459,0.56
13471,0.25
13483,-0.22
13495,-0.81
13507,-1.46
13519,-2.04
13531,-2.43
13543,-2.57
13555,-2.49
13567,-2.29
13579,-2.14
13590,-2.11
13601,-2.23
13613,-2.44
13625,-2.66
13637,-2.84
13649,-2.97
13661,-3.1
13673,-3.27
13685,-3.41
13697,-3.42
13709,-3.15
13721,-2.51
13733,-1.55
13745,-0.41
13757,0.73
13769,1.72
13780,2.5
13791,3.08
13803,3.53
13815,3.85
13827,4.0
13839,3.92
13851,3.58
13863,2.99
13875,2.25
13887,1.46
13899,0.79
13911,0.33
13923,0.15
13935,0.21
13947,0.38
13959,0.51
13970,0.45
13981,0.12
13993,-0.48
14005,-1.27
14017,-2.11
14029,-2.85
14041,-3.35
14053,-3.46
14065,-3.07
14077,-2.18
14089,-0.89
14101,0.61
14113,2.06
14125,3.24
14137,4.01
14149,4.37
14160,4.39
14171,4.18
14183,3.81
14195,3.3
14207,2.66
14219,1.9
14231,1.04
14243,0.19
14255,-0.54
14267,-1.04
14279,-1.25
14291,-1.21
14303,-1.04
14315,-0.89
14327,-0.91
14339,-1.18
14350,-1.75
14361,-2.55
14373,-3.43
14385,-4.19
14397,-4.6
14409,-4.5
14421,-3.83
14433,-2.69
14445,-1.3
14457,0.11
14469,1.35
14481,2.26
14493,2.8
14505,2.95
14517,2.74
14529,2.27
14540,1.66
14551,1.07
14563,0.6
14575,0.25
14587,-0.07
14599,-0.46
14611,-0.97
14623,-1.5
14635,-1.89
14647,-2.05
14659,-1.98
14671,-1.87
14683,-1.98
14695,-2.48
14707,-3.4
14719,-4.54
14730,-5.59
14741,-6.23
14753,-6.26
14765,-5.62
14777,-4.39
14789,-2.78
14801,-1.03
14813,0.56
14825,1.75
14837,2.39
14849,2.48
14861,2.18
14873,1.74
14885,1.34
14897,1.08
14909,0.93
14920,0.77
14931,0.53
14943,0.22
14955,-0.06
14967,-0.18
14979,-0.12
14991,0.04
15003,0.14
15015,0.02
15027,-0.36
15039,-0.95
15051,-1.61
15063,-2.24
15075,-2.78
15087,-3.19
15099,-3.35
15110,-3.15
15121,-2.44
15133,-1.15
15145,0.61
15157,2.59
15169,4.43
15181,5.84
15193,6.66
15205,6.93
15217,6.76
15229,6.31
15241,5.72
15253,5.04
15265,4.35
15277,3.72
15289,3.18
15300,2.74
15311,2.4
15323,2.08
15335,1.72
15347,1.28
15359,0.73
15371,0.13
15383,-0.53
15395,-1.24
15407,-2.01
15419,-2.81
15431,-3.53
15443,-3.99
15455,-4.02
15467,-3.53
15479,-2.59
15490,-1.39
15501,-0.18
15513,0.86
15525,1.62
15537,2.12
15549,2.43
15561,2.59
15573,2.62
15585,2.49
15597,2.14
15609,1.55
15621,0.74
15633,-0.22
15645,-1.18
15657,-1.98
15669,-2.48
15680,-2.59
15691,-2.35
15703,-1.86
15715,-1.29
15727,-0.79
15739,-0.51
15751,-0.53
15763,-0.92
15775,-1.64
15787,-2.56
15799,-3.4
15811,-3.82
15823,-3.56
15835,-2.56
15847,-1.02
15859,0.72
15870,2.31
15881,3.52
15893,4.32
15905,4.78
15917,5.0
15929,4.98
15941,4.69
15953,4.07
15965,3.16
15977,2.1
15989,1.09
16001,0.31
16013,-0.16
16025,-0.36
16037,-0.4
16049,-0.39
16060,-0.44
16071,-0.62
16083,-0.93
16095,-1.36
16107,-1.9
16119,-2.54
16131,-3.28
16143,-4.02
16155,-4.61
16167,-4.84
16179,-4.53
16191,-3.6
16203,-2.14
16215,-0.44
16227,1.2
16239,2.49
16250,3.29
16261,3.59
16273,3.49
16285,3.13
16297,2.61
16309,1.99
16321,1.32
16333,0.66
16345,0.13
16357,-0.15
16369,-0.12
16381,0.19
16393,0.63
16405,0.99
16417,1.08
16429,0.8
16440,0.15
16451,-0.8
16463,-1.87
16475,-2.89
16487,-3.65
16499,-3.99
16511,-3.79
16523,-3.05
16535,-1.87
16547,-0.42
16559,1.08
16571,2.45
16583,3.56
16595,4.31
16607,4.62
16619,4.46
16630,3.87
16641,2.98
16653,2.01
16665,1.2
16677,0.69
16689,0.48
16701,0.45
16713,0.43
16725,0.32
16737,0.1
16749,-0.2
16761,-0.52
16773,-0.91
16785,-1.42
16797,-2.09
16809,-2.92
16820,-3.77
16831,-4.43
16843,-4.67
16855,-4.31
16867,-3.3
16879,-1.69
16891,0.3
16903,2.42
16915,4.36
16927,5.89
16939,6.81
16951,7.04
16963,6.67
16975,5.85
16987,4.82
16999,3.82
17010,3.02
17021,2.47
17033,2.16
17045,1.97
17057,1.81
17069,1.63
17081,1.38
17093,1.05
17105,0.58
17117,-0.1
17129,-1.06
17141,-2.26
17153,-3.55
17165,-4.71
17177,-5.46
17189,-5.62
17200,-5.15
17211,-4.16
17223,-2.83
17235,-1.39
17247,-0.01
17259,1.21
17271,2.19
17283,2.87
17295,3.17
17307,3.06
17319,2.58
17331,1.83
17343,1.02
17355,0.34
17367,-0.1
17379,-0.34
17390,-0.48
17401,-0.62
17413,-0.82
17425,-1.02
17437,-1.11
17449,-1.08
17461,-1.01
17473,-1.09
17485,-1.52
17497,-2.37
17509,-3.57
17521,-4.87
17533,-5.98
17545,-6.63
17557,-6.64
17569,-5.92
17580,-4.5
17591,-2.52
17603,-0.31
17615,1.76
17627,3.28
17639,4.0
17651,3.87
17663,3.12
17675,2.12
17687,1.22
17699,0.65
17711,0.44
17723,0.46
17735,0.6
17747,0.73
17759,0.8
17770,0.83
17781,0.8
17793,0.72
17805,0.59
17817,0.39
17829,0.12
17841,-0.29
17853,-0.88
17865,-1.71
17877,-2.71
17889,-3.71
17901,-4.43
17913,-4.61
17925,-4.08
17937,-2.84
17949,-1.1
17960,0.86
17971,2.73
17983,4.3
17995,5.45
18007,6.15
18019,6.4
18031,6.24
18043,5.75
18055,5.03
18067,4.25
18079,3.53
18091,2.92
18103,2.42
18115,1.96
18127,1.51
18139,1.11
18150,0.81
18161,0.68
18173,0.68
18185,0.71
18197,0.57
18209,0.13
18221,-0.63
18233,-1.6
18245,-2.57
18257,-3.3
18269,-3.57
18281,-3.26
18293,-2.35
18305,-0.96
18317,0.69
18329,2.31
18340,3.62
18351,4.44
18363,4.72
18375,4.56
18387,4.13
18399,3.56
18411,2.97
18423,2.39
18435,1.82
18447,1.27
18459,0.78
18471,0.36
18483,0.05
18495,-0.16
18507,-0.3
18519,-0.43
18530,-0.62
18541,-0.97
18553,-1.53
18565,-2.34
18577,-3.31
18589,-4.26
18601,-4.95
18613,-5.13
18625,-4.65
18637,-3.53
18649,-1.93
18661,-0.16
18673,1.44
18685,2.61
18697,3.23
18709,3.4
18720,3.28
18731,3.04
18743,2.75
18755,2.35
18767,1.75
18779,0.96
18791,0.07
18803,-0.71
18815,-1.22
18827,-1.41
18839,-1.39
18851,-1.36
18863,-1.46
18875,-1.72
18887,-2.1
18899,-2.48
18910,-2.84
18921,-3.24
18933,-3.75
18945,-4.37
18957,-5.0
18969,-5.41
18981,-5.35
18993,-4.68
19005,-3.4
19017,-1.67
19029,0.24
19041,2.01
19053,3.4
19065,4.29
19077,4.72
19089,4.8
19100,4.65
19111,4.33
19123,3.85
19135,3.18
19147,2.37
19159,1.58
19171,0.98
19183,0.72
19195,0.78
19207,1.02
19219,1.18
19231,1.11
19243,0.74
19255,0.14
19267,-0.58
19279,-1.31
19290,-2.0
19301,-2.56
19313,-2.85
19325,-2.72
19337,-2.07
19349,-0.94
19361,0.45
19373,1.83
19385,2.98
19397,3.8
19409,4.31
19421,4.54
19433,4.51
19445,4.24
19457,3.72
19469,3.03
19480,2.31
19491,1.72
19503,1.34
19515,1.17
19527,1.11
19539,1.06
19551,0.94
19563,0.75
19575,0.53
19587,0.3
19599,0.05
19611,-0.25
19623,-0.66
19635,-1.21
19647,-1.89
19659,-2.62
19670,-3.27
19681,-3.64
19693,-3.52
19705,-2.81
19717,-1.52
19729,0.19
19741,2.02
19753,3.68
19765,4.87
19777,5.45
19789,5.41
19801,4.87
19813,4.04
19825,3.13
19837,2.3
19849,1.65
19860,1.21
19871,0.93
19883,0.75
19895,0.59
19907,0.4
19919,0.12
19931,-0.23
19943,-0.65
19955,-1.11
19967,-1.61
19979,-2.14
19991,-2.7
20003,-3.25
20015,-3.69
20027,-3.9
20039,-3.75
20050,-3.16
20061,-2.15
20073,-0.87
20085,0.48
20097,1.67
20109,2.54
20121,3.02
20133,3.17
20145,3.07
20157,2.83
20169,2.52
20181,2.14
20193,1.7
20205,1.15
20217,0.53
20229,-0.14
20240,-0.77
20251,-1.28
20263,-1.61
20275,-1.74
20287,-1.72
20299,-1.64
20311,-1.64
20323,-1.85
20335,-2.36
20347,-3.12
20359,-3.97
20371,-4.65
20383,-4.87
20395,-4.47
20407,-3.44
20419,-2.0
20430,-0.43
20441,0.97
20453,2.0
20465,2.67
20477,3.05
20489,3.23
20501,3.23
20513,3.04
20525,2.6
20537,1.91
20549,1.05
20561,0.18
20573,-0.52
20585,-0.96
20597,-1.15
20609,-1.19
20620,-1.22
20631,-1.39
20643,-1.75
20655,-2.28
20667,-2.88
20679,-3.43
20691,-3.85
20703,-4.06
20715,-4.04
20727,-3.79
20739,-3.3
20751,-2.57
20763,-1.66
20775,-0.64
20787,0.35
20799,1.15
20810,1.67
20821,1.9
20833,1.9
20845,1.84
20857,1.85
20869,2.01
20881,2.3
20893,2.63
20905,2.93
20917,3.12
20929,3.18
20941,3.09
20953,2.83
20965,2.4
20977,1.83
20989,1.18
