seconds,BVP
8,-10.02
20,-15.2
32,-20.52
44,-25.49
56,-29.77
68,-33.25
80,-36.15
92,-38.89
104,-42.0
116,-45.93
127,-50.88
138,-56.65
150,-62.52
162,-67.31
174,-69.6
186,-68.14
198,-62.28
210,-52.21
222,-38.95
234,-24.02
246,-9.06
258,4.66
270,16.35
282,25.79
294,33.09
306,38.47
317,42.16
328,44.27
340,44.94
352,44.35
364,42.84
376,40.76
388,38.52
400,36.37
412,34.38
424,32.51
436,30.68
448,28.87
460,27.18
472,25.74
484,24.62
496,23.72
507,22.78
518,21.49
530,19.63
542,17.18
554,14.28
566,11.11
578,7.77
590,4.23
602,0.39
614,-3.86
626,-8.52
638,-13.42
650,-18.33
662,-22.96
674,-27.12
686,-30.77
697,-34.03
708,-37.18
720,-40.55
732,-44.48
744,-49.2
756,-54.67
768,-60.51
780,-65.89
792,-69.6
804,-70.37
816,-67.16
828,-59.6
840,-48.13
852,-33.94
864,-18.67
876,-3.88
887,9.29
898,20.31
910,29.1
922,35.87
934,40.9
946,44.43
958,46.72
970,47.97
982,48.43
994,48.32
1006,47.75
1018,46.82
1030,45.52
1042,43.87
1054,41.94
1066,39.82
1077,37.68
1088,35.69
1100,33.98
1112,32.63
1124,31.55
1136,30.49
1148,29.09
1160,27.02
1172,24.1
1184,20.44
1196,16.35
1208,12.25
1220,8.46
1232,5.09
1244,1.97
1256,-1.23
1267,-4.81
1278,-8.91
1290,-13.47
1302,-18.25
1314,-22.94
1326,-27.33
1338,-31.36
1350,-35.09
1362,-38.72
1374,-42.53
1386,-46.78
1398,-51.62
1410,-56.92
1422,-62.11
1434,-66.15
1446,-67.74
1457,-65.67
1468,-59.27
1480,-48.73
1492,-35.08
1504,-19.95
1516,-5.05
1528,8.28
1540,19.3
1552,27.86
1564,34.22
1576,38.79
1588,41.94
1600,43.97
1612,45.05
1624,45.33
1636,44.96
1647,44.08
1658,42.8
1670,41.19
1682,39.29
1694,37.12
1706,34.79
1718,32.42
1730,30.25
1742,28.53
1754,27.4
1766,26.81
1778,26.47
1790,25.99
1802,24.92
1814,22.99
1826,20.21
1837,16.84
1848,13.25
1860,9.74
1872,6.37
1884,2.98
1896,-0.72
1908,-4.93
1920,-9.67
1932,-14.7
1944,-19.65
1956,-24.18
1968,-28.11
1980,-31.43
1992,-34.29
2004,-36.92
2016,-39.61
2027,-42.69
2038,-46.44
2050,-51.0
2062,-56.13
2074,-61.11
2086,-64.79
2098,-65.81
2110,-63.05
2122,-56.02
2134,-45.09
2146,-31.43
2158,-16.64
2170,-2.32
2182,10.35
2194,20.8
2206,28.98
2217,35.16
2228,39.7
2240,42.86
2252,44.79
2264,45.62
2276,45.49
2288,44.65
2300,43.34
2312,41.8
2324,40.18
2336,38.54
2348,36.9
2360,35.25
2372,33.59
2384,31.98
2396,30.5
2407,29.24
2418,28.19
2430,27.22
2442,26.12
2454,24.59
2466,22.41
2478,19.49
2490,15.93
2502,11.99
2514,8.0
2526,4.25
2538,0.84
2550,-2.31
2562,-5.42
2574,-8.79
2586,-12.58
2597,-16.81
2608,-21.25
2620,-25.54
2632,-29.34
2644,-32.46
2656,-34.93
2668,-37.05
2680,-39.25
2692,-41.98
2704,-45.55
2716,-50.01
2728,-55.13
2740,-60.32
2752,-64.71
2764,-67.25
2776,-66.85
2787,-62.76
2798,-54.8
2810,-43.48
2822,-29.93
2834,-15.67
2846,-2.13
2858,9.62
2870,19.06
2882,26.18
2894,31.27
2906,34.7
2918,36.82
2930,37.89
2942,38.14
2954,37.78
2966,36.98
2977,35.83
2988,34.35
3000,32.55
3012,30.48
3024,28.34
3036,26.36
3048,24.78
3060,23.69
3072,23.02
3084,22.55
3096,22.0
3108,21.17
3120,19.9
3132,18.2
3144,16.14
3156,13.83
3167,11.33
3178,8.65
3190,5.72
3202,2.47
3214,-1.17
3226,-5.23
3238,-9.62
3250,-14.2
3262,-18.79
3274,-23.18
3286,-27.25
3298,-31.01
3310,-34.63
3322,-38.44
3334,-42.79
3346,-47.81
3357,-53.17
3368,-58.0
3380,-61.05
3392,-61.04
3404,-57.15
3416,-49.29
3428,-38.23
3440,-25.28
3452,-11.89
3464,0.73
3476,11.82
3488,21.08
3500,28.5
3512,34.18
3524,38.24
3536,40.82
3547,42.1
3558,42.27
3570,41.57
3582,40.18
3594,38.27
3606,35.97
3618,33.41
3630,30.79
3642,28.34
3654,26.28
3666,24.75
3678,23.78
3690,23.27
3702,22.99
3714,22.62
3726,21.84
3737,20.46
3748,18.44
3760,15.91
3772,13.14
3784,10.37
3796,7.72
3808,5.14
3820,2.41
3832,-0.69
3844,-4.31
3856,-8.4
3868,-12.8
3880,-17.23
3892,-21.45
3904,-25.33
3916,-28.91
3927,-32.39
3938,-36.09
3950,-40.39
3962,-45.5
3974,-51.32
3986,-57.27
3998,-62.27
4010,-64.99
4022,-64.17
4034,-59.07
4046,-49.79
4058,-37.28
4070,-23.1
4082,-8.91
4094,3.94
4106,14.74
4117,23.35
4128,30.01
4140,35.06
4152,38.76
4164,41.23
4176,42.54
4188,42.77
4200,42.13
4212,40.89
4224,39.33
4236,37.65
4248,35.93
4260,34.12
4272,32.2
4284,30.23
4296,28.33
4307,26.71
4318,25.52
4330,24.75
4342,24.21
4354,23.6
4366,22.59
4378,20.94
4390,18.58
4402,15.63
4414,12.31
4426,8.9
4438,5.61
4450,2.54
4462,-0.4
4474,-3.44
4486,-6.88
4497,-10.9
4508,-15.46
4520,-20.3
4532,-25.01
4544,-29.24
4556,-32.81
4568,-35.79
4580,-38.42
4592,-41.08
4604,-44.16
4616,-48.02
4628,-52.75
4640,-58.1
4652,-63.25
4664,-66.95
4676,-67.79
4687,-64.69
4698,-57.27
4710,-46.04
4722,-32.27
4734,-17.52
4746,-3.26
4758,9.49
4770,20.16
4782,28.56
4794,34.75
4806,38.89
4818,41.29
4830,42.33
4842,42.46
4854,42.12
4866,41.59
4877,40.98
4888,40.25
4900,39.28
4912,37.98
4924,36.36
4936,34.5
4948,32.62
4960,30.91
4972,29.56
4984,28.62
4996,28.04
5008,27.61
5020,27.06
5032,26.12
5044,24.59
5056,22.4
5067,19.58
5078,16.26
5090,12.62
5102,8.85
5114,5.11
5126,1.54
5138,-1.8
5150,-4.89
5162,-7.82
5174,-10.74
5186,-13.81
5198,-17.16
5210,-20.78
5222,-24.54
5234,-28.17
5246,-31.42
5257,-34.18
5268,-36.51
5280,-38.71
5292,-41.19
5304,-44.36
5316,-48.46
5328,-53.43
5340,-58.84
5352,-63.8
5364,-67.12
5376,-67.52
5388,-64.04
5400,-56.3
5412,-44.76
5424,-30.55
5436,-15.31
5447,-0.66
5458,12.11
5470,22.29
5482,29.76
5494,34.84
5506,38.04
5518,39.9
5530,40.82
5542,41.07
5554,40.79
5566,40.04
5578,38.88
5590,37.39
5602,35.64
5614,33.73
5626,31.76
5637,29.86
5648,28.15
5660,26.8
5672,25.92
5684,25.53
5696,25.47
5708,25.4
5720,24.92
5732,23.67
5744,21.48
5756,18.46
5768,14.92
5780,11.29
5792,7.91
5804,4.93
5816,2.23
5827,-0.49
5838,-3.59
5850,-7.29
5862,-11.62
5874,-16.38
5886,-21.24
5898,-25.82
5910,-29.85
5922,-33.29
5934,-36.25
5946,-39.02
5958,-42.03
5970,-45.7
5982,-50.32
5994,-55.74
6006,-61.29
6017,-65.78
6028,-67.76
6040,-65.95
6052,-59.77
6064,-49.52
6076,-36.36
6088,-21.91
6100,-7.81
6112,4.7
6124,14.95
6136,22.79
6148,28.39
6160,32.11
6172,34.33
6184,35.45
6196,35.81
6207,35.68
6218,35.22
6230,34.46
6242,33.39
6254,31.99
6266,30.27
6278,28.37
6290,26.51
6302,24.94
6314,23.83
6326,23.21
6338,22.94
6350,22.74
6362,22.29
6374,21.3
6386,19.63
6397,17.28
6408,14.37
6420,11.08
6432,7.59
6444,4.01
6456,0.39
6468,-3.33
6480,-7.23
6492,-11.36
6504,-15.69
6516,-20.1
6528,-24.44
6540,-28.53
6552,-32.28
6564,-35.73
6576,-39.1
6587,-42.7
6598,-46.93
6610,-51.98
6622,-57.71
6634,-63.38
6646,-67.79
6658,-69.49
6670,-67.25
6682,-60.56
6694,-49.82
6706,-36.28
6718,-21.59
6730,-7.34
6742,5.34
6754,15.91
6766,24.32
6777,30.79
6788,35.63
6800,39.11
6812,41.43
6824,42.75
6836,43.24
6848,43.1
6860,42.53
6872,41.69
6884,40.67
6896,39.46
6908,38.0
6920,36.27
6932,34.4
6944,32.61
6956,31.21
6967,30.4
6978,30.08
6990,29.89
7002,29.29
7014,27.82
7026,25.24
7038,21.69
7050,17.56
7062,13.34
7074,9.4
7086,5.87
7098,2.61
7110,-0.69
7122,-4.38
7134,-8.65
7146,-13.44
7157,-18.43
7168,-23.21
7180,-27.42
7192,-30.9
7204,-33.82
7216,-36.61
7228,-39.84
7240,-44.0
7252,-49.32
7264,-55.61
7276,-62.15
7288,-67.73
7300,-70.95
7312,-70.46
7324,-65.5
7336,-56.08
7347,-43.07
7358,-28.01
7370,-12.65
7382,1.55
7394,13.63
7406,23.3
7418,30.7
7430,36.19
7442,40.09
7454,42.67
7466,44.08
7478,44.49
7490,44.14
7502,43.27
7514,42.16
7526,41.0
7537,39.88
7548,38.78
7560,37.66
7572,36.46
7584,35.2
7596,33.98
7608,32.94
7620,32.17
7632,31.63
7644,31.12
7656,30.32
7668,28.87
7680,26.56
7692,23.39
7704,19.59
7716,15.52
7727,11.56
7738,7.92
7750,4.63
7762,1.57
7774,-1.49
7786,-4.82
7798,-8.55
7810,-12.71
7822,-17.21
7834,-21.79
7846,-26.18
7858,-30.17
7870,-33.7
7882,-36.89
7894,-40.04
7906,-43.61
7917,-48.03
7928,-53.47
7940,-59.68
7952,-65.84
7964,-70.63
7976,-72.5
7988,-70.19
8000,-63.11
8012,-51.62
8024,-36.92
8036,-20.72
8048,-4.73
8060,9.68
8072,21.71
8084,31.07
8096,37.87
8107,42.44
8118,45.23
8130,46.72
8142,47.29
8154,47.23
8166,46.67
8178,45.66
8190,44.21
8202,42.43
8214,40.51
8226,38.65
8238,37.05
8250,35.81
8262,34.95
8274,34.41
8286,34.1
8297,33.88
8308,33.59
8320,33.08
8332,32.18
8344,30.76
8356,28.77
8368,26.25
8380,23.29
8392,20.01
8404,16.52
8416,12.91
8428,9.24
8440,5.6
8452,2.06
8464,-1.38
8476,-4.8
8487,-8.35
8498,-12.19
8510,-16.39
8522,-20.91
8534,-25.55
8546,-30.05
8558,-34.19
8570,-37.92
8582,-41.31
8594,-44.57
8606,-47.96
8618,-51.74
8630,-56.05
8642,-60.77
8654,-65.38
8666,-68.93
8677,-70.14
8688,-67.8
8700,-61.13
8712,-50.2
8724,-35.92
8736,-19.85
8748,-3.78
8760,10.8
8772,22.93
8784,32.28
8796,38.97
8808,43.43
8820,46.16
8832,47.6
8844,48.08
8856,47.81
8867,46.88
8878,45.37
8890,43.42
8902,41.19
8914,38.89
8926,36.72
8938,34.81
8950,33.17
8962,31.77
8974,30.58
8986,29.61
8998,28.9
9010,28.41
9022,27.96
9034,27.23
9046,25.81
9057,23.4
9068,19.93
9080,15.64
9092,11.01
9104,6.57
9116,2.65
9128,-0.69
9140,-3.69
9152,-6.7
9164,-9.99
9176,-13.62
9188,-17.43
9200,-21.17
9212,-24.58
9224,-27.57
9236,-30.17
9247,-32.6
9258,-35.13
9270,-38.07
9282,-41.69
9294,-46.16
9306,-51.47
9318,-57.27
9330,-62.77
9342,-66.8
9354,-68.05
9366,-65.39
9378,-58.34
9390,-47.27
9402,-33.36
9414,-18.26
9426,-3.66
9437,9.19
9448,19.63
9460,27.56
9472,33.24
9484,37.03
9496,39.28
9508,40.28
9520,40.3
9532,39.62
9544,38.46
9556,37.04
9568,35.48
9580,33.82
9592,32.12
9604,30.44
9616,28.87
9627,27.49
9638,26.37
9650,25.49
9662,24.77
9674,24.04
9686,23.11
9698,21.79
9710,19.95
9722,17.54
9734,14.63
9746,11.38
9758,8.02
9770,4.74
9782,1.57
9794,-1.59
9806,-4.98
9817,-8.79
9828,-13.05
9840,-17.53
9852,-21.84
9864,-25.61
9876,-28.65
9888,-31.08
9900,-33.27
9912,-35.67
9924,-38.74
9936,-42.77
9948,-47.78
9960,-53.47
9972,-59.07
9984,-63.41
9996,-65.14
10007,-63.12
10018,-56.79
10030,-46.48
10042,-33.34
10054,-18.95
10066,-4.92
10078,7.62
10090,18.08
10102,26.32
10114,32.47
10126,36.73
10138,39.31
10150,40.47
10162,40.53
10174,39.85
10186,38.77
10197,37.49
10208,36.09
10220,34.54
10232,32.83
10244,30.96
10256,29.02
10268,27.16
10280,25.5
10292,24.21
10304,23.35
10316,22.89
10328,22.65
10340,22.26
10352,21.35
10364,19.54
10376,16.73
10387,13.08
10398,8.97
10410,4.88
10422,1.15
10434,-2.15
10446,-5.19
10458,-8.27
10470,-11.66
10482,-15.48
10494,-19.63
10506,-23.88
10518,-27.95
10530,-31.64
10542,-34.86
10554,-37.73
10566,-40.45
10577,-43.35
10588,-46.74
10600,-50.86
10612,-55.65
10624,-60.64
10636,-64.93
10648,-67.3
10660,-66.57
10672,-61.9
10684,-53.17
10696,-41.02
10708,-26.74
10720,-11.93
10732,1.93
10744,13.83
10756,23.33
10767,30.46
10778,35.59
10790,39.13
10802,41.41
10814,42.63
10826,42.9
10838,42.39
10850,41.29
10862,39.85
10874,38.23
10886,36.52
10898,34.71
10910,32.8
10922,30.87
10934,29.14
10946,27.85
10957,27.18
10968,27.06
10980,27.17
10992,27.03
11004,26.17
11016,24.31
11028,21.44
11040,17.81
11052,13.8
11064,9.76
11076,5.9
11088,2.28
11100,-1.19
11112,-4.66
11124,-8.27
11136,-12.12
11147,-16.23
11158,-20.51
11170,-24.72
11182,-28.63
11194,-32.01
11206,-34.8
11218,-37.16
11230,-39.5
11242,-42.31
11254,-46.11
11266,-51.14
11278,-57.26
11290,-63.83
11302,-69.8
11314,-73.87
11326,-74.82
11337,-71.79
11348,-64.54
11360,-53.53
11372,-39.81
11384,-24.83
11396,-10.03
11408,3.38
11420,14.63
11432,23.37
11444,29.63
11456,33.7
11468,35.97
11480,36.87
11492,36.85
11504,36.3
11516,35.58
11527,34.94
11538,34.49
11550,34.22
11562,34.05
11574,33.87
11586,33.62
11598,33.32
11610,32.98
11622,32.65
11634,32.31
11646,31.84
11658,31.04
11670,29.7
11682,27.67
11694,24.9
11706,21.53
11717,17.85
11728,14.2
11740,10.81
11752,7.75
11764,4.82
11776,1.72
11788,-1.84
11800,-5.94
11812,-10.42
11824,-14.91
11836,-19.02
11848,-22.5
11860,-25.38
11872,-27.89
11884,-30.43
11896,-33.4
11907,-37.13
11918,-41.71
11930,-46.92
11942,-52.16
11954,-56.39
11966,-58.34
11978,-56.84
11990,-51.26
12002,-41.74
12014,-29.3
12026,-15.45
12038,-1.79
12050,10.44
12062,20.58
12074,28.53
12086,34.49
12097,38.78
12108,41.67
12120,43.4
12132,44.16
12144,44.16
12156,43.59
12168,42.55
12180,41.1
12192,39.26
12204,37.07
12216,34.64
12228,32.23
12240,30.13
12252,28.56
12264,27.64
12276,27.2
12287,26.92
12298,26.43
12310,25.36
12322,23.58
12334,21.13
12346,18.23
12358,15.12
12370,11.97
12382,8.81
12394,5.58
12406,2.16
12418,-1.54
12430,-5.53
12442,-9.75
12454,-14.09
12466,-18.35
12477,-22.38
12488,-26.06
12500,-29.44
12512,-32.67
12524,-36.09
12536,-40.07
12548,-44.89
12560,-50.49
12572,-56.34
12584,-61.39
12596,-64.3
12608,-63.79
12620,-59.06
12632,-50.16
12644,-37.97
12656,-24.02
12667,-10.01
12678,2.67
12690,13.2
12702,21.37
12714,27.42
12726,31.8
12738,34.9
12750,37.02
12762,38.34
12774,39.02
12786,39.23
12798,39.1
12810,38.75
12822,38.14
12834,37.23
12846,35.93
12857,34.27
12868,32.43
12880,30.62
12892,29.08
12904,27.92
12916,27.1
12928,26.44
12940,25.73
12952,24.76
12964,23.39
12976,21.53
12988,19.17
13000,16.35
13012,13.2
13024,9.93
13036,6.7
13047,3.63
13058,0.66
13070,-2.35
13082,-5.63
13094,-9.29
13106,-13.31
13118,-17.49
13130,-21.54
13142,-25.22
13154,-28.37
13166,-31.04
13178,-33.44
13190,-35.95
13202,-38.97
13214,-42.86
13226,-47.78
13237,-53.49
13248,-59.26
13260,-63.99
13272,-66.32
13284,-65.12
13296,-59.79
13308,-50.51
13320,-38.24
13332,-24.45
13344,-10.65
13356,1.93
13368,12.57
13380,21.06
13392,27.54
13404,32.3
13416,35.63
13427,37.8
13438,39.05
13450,39.62
13462,39.72
13474,39.49
13486,38.97
13498,38.13
13510,36.94
13522,35.42
13534,33.7
13546,31.94
13558,30.32
13570,28.95
13582,27.85
13594,26.97
13606,26.21
13617,25.45
13628,24.56
13640,23.33
13652,21.61
13664,19.28
13676,16.35
13688,12.97
13700,9.41
13712,5.98
13724,2.89
13736,0.18
13748,-2.28
13760,-4.74
13772,-7.49
13784,-10.7
13796,-14.38
13807,-18.38
13818,-22.42
13830,-26.24
13842,-29.66
13854,-32.65
13866,-35.35
13878,-38.07
13890,-41.17
13902,-44.99
13914,-49.67
13926,-55.09
13938,-60.64
13950,-65.3
13962,-67.77
13974,-66.85
13986,-61.81
13997,-52.69
14008,-40.37
14020,-26.31
14032,-12.14
14044,0.82
14056,11.76
14068,20.42
14080,26.94
14092,31.61
14104,34.72
14116,36.53
14128,37.27
14140,37.2
14152,36.54
14164,35.47
14176,34.13
14187,32.54
14198,30.74
14210,28.77
14222,26.79
14234,24.99
14246,23.57
14258,22.65
14270,22.2
14282,22.03
14294,21.87
14306,21.41
14318,20.38
14330,18.66
14342,16.22
14354,13.22
14366,9.88
14377,6.46
14388,3.13
14400,-0.09
14412,-3.33
14424,-6.81
14436,-10.63
14448,-14.79
14460,-19.04
14472,-23.04
14484,-26.47
14496,-29.23
14508,-31.47
14520,-33.59
14532,-36.08
14544,-39.4
14556,-43.81
14567,-49.18
14578,-54.94
14590,-60.07
14602,-63.23
14614,-63.13
14626,-58.92
14638,-50.54
14650,-38.8
14662,-25.13
14674,-11.16
14686,1.75
14698,12.77
14710,21.61
14722,28.37
14734,33.27
14746,36.56
14757,38.46
14768,39.24
14780,39.2
14792,38.65
14804,37.8
14816,36.74
14828,35.51
14840,34.04
14852,32.28
14864,30.24
14876,27.99
14888,25.67
14900,23.45
14912,21.53
14924,20.04
14936,18.98
14947,18.17
14958,17.29
14970,15.97
14982,13.99
14994,11.3
15006,8.11
15018,4.76
15030,1.59
15042,-1.21
15054,-3.66
15066,-6.0
15078,-8.52
15090,-11.52
15102,-15.14
15114,-19.3
15126,-23.69
15137,-27.94
15148,-31.67
15160,-34.7
15172,-37.17
15184,-39.55
15196,-42.54
15208,-46.75
15220,-52.4
15232,-59.03
15244,-65.41
15256,-69.87
15268,-70.78
15280,-67.16
15292,-58.97
15304,-47.17
15316,-33.28
15327,-18.93
15338,-5.43
15350,6.45
15362,16.34
15374,24.17
15386,30.01
15398,34.05
15410,36.59
15422,38.06
15434,38.91
15446,39.48
15458,39.92
15470,40.15
15482,39.96
15494,39.17
15506,37.79
15517,36.02
15528,34.18
15540,32.62
15552,31.53
15564,30.95
15576,30.72
15588,30.6
15600,30.3
15612,29.63
15624,28.37
15636,26.43
15648,23.75
15660,20.41
15672,16.65
15684,12.83
15696,9.25
15707,6.06
15718,3.19
15730,0.32
15742,-2.85
15754,-6.54
15766,-10.7
15778,-15.08
15790,-19.37
15802,-23.28
15814,-26.69
15826,-29.66
15838,-32.34
15850,-34.97
15862,-37.79
15874,-41.1
15886,-45.2
15897,-50.25
15908,-56.1
15920,-62.09
15932,-67.1
15944,-69.69
15956,-68.58
15968,-63.04
15980,-53.27
15992,-40.29
16004,-25.71
16016,-11.19
16028,2.0
16040,13.13
16052,22.01
16064,28.78
16076,33.74
16087,37.19
16098,39.44
16110,40.8
16122,41.55
16134,41.94
16146,42.08
16158,42.01
16170,41.64
16182,40.89
16194,39.73
16206,38.21
16218,36.51
16230,34.86
16242,33.48
16254,32.54
16266,32.05
16277,31.88
16288,31.75
16300,31.35
16312,30.41
16324,28.78
16336,26.45
16348,23.53
16360,20.17
16372,16.58
16384,12.93
16396,9.35
16408,5.87
16420,2.4
16432,-1.22
16444,-5.16
16456,-9.51
16467,-14.2
16478,-19.0
16490,-23.59
16502,-27.72
16514,-31.34
16526,-34.56
16538,-37.71
16550,-41.16
16562,-45.27
16574,-50.24
16586,-55.97
16598,-61.95
16610,-67.22
16622,-70.46
16634,-70.32
16646,-65.89
16657,-57.0
16668,-44.42
16680,-29.67
16692,-14.59
16704,-0.79
16716,10.71
16728,19.6
16740,26.11
16752,30.78
16764,34.13
16776,36.54
16788,38.2
16800,39.21
16812,39.62
16824,39.5
16836,38.89
16847,37.82
16858,36.32
16870,34.43
16882,32.3
16894,30.2
16906,28.43
16918,27.23
16930,26.7
16942,26.68
16954,26.87
16966,26.85
16978,26.25
16990,24.81
17002,22.49
17014,19.39
17026,15.73
17037,11.75
17048,7.63
17060,3.44
17072,-0.87
17084,-5.4
17096,-10.18
17108,-15.14
17120,-20.06
17132,-24.65
17144,-28.77
17156,-32.41
17168,-35.88
17180,-39.65
17192,-44.16
17204,-49.57
17216,-55.58
17227,-61.26
17238,-65.27
17250,-66.26
17262,-63.28
17274,-56.12
17286,-45.45
17298,-32.54
17310,-18.86
17322,-5.72
17334,6.01
17346,15.88
17358,23.8
17370,29.85
17382,34.23
17394,37.15
17406,38.87
17417,39.66
17428,39.74
17440,39.32
17452,38.53
17464,37.46
17476,36.14
17488,34.61
17500,32.89
17512,31.12
17524,29.45
17536,28.09
17548,27.17
17560,26.6
17572,26.11
17584,25.29
17596,23.77
17607,21.37
17618,18.2
17630,14.6
17642,10.91
17654,7.36
17666,3.9
17678,0.3
17690,-3.69
17702,-8.2
17714,-13.09
17726,-17.99
17738,-22.53
17750,-26.49
17762,-29.93
17774,-33.22
17786,-36.84
17797,-41.26
17808,-46.69
17820,-52.96
17832,-59.49
17844,-65.33
17856,-69.31
17868,-70.22
17880,-67.18
17892,-59.88
17904,-48.78
17916,-35.03
17928,-20.23
17940,-5.97
17952,6.51
17964,16.61
17976,24.35
17987,30.1
17998,34.33
18010,37.39
18022,39.43
18034,40.52
18046,40.81
18058,40.52
18070,39.93
18082,39.25
18094,38.49
18106,37.55
18118,36.32
18130,34.78
18142,33.13
18154,31.63
18166,30.51
18177,29.77
18188,29.19
18200,28.42
18212,27.15
18224,25.2
18236,22.58
18248,19.42
18260,15.92
18272,12.3
18284,8.73
18296,5.35
18308,2.14
18320,-1.0
18332,-4.3
18344,-7.92
18356,-11.91
18367,-16.11
18378,-20.21
18390,-23.93
18402,-27.18
18414,-30.13
18426,-33.24
18438,-37.07
18450,-42.06
18462,-48.35
18474,-55.59
18486,-62.91
18498,-68.97
18510,-72.27
18522,-71.52
18534,-66.09
18546,-56.25
18557,-43.16
18568,-28.52
18580,-14.13
18592,-1.35
18604,9.11
18616,17.22
18628,23.36
18640,28.09
18652,31.88
18664,34.97
18676,37.43
18688,39.21
18700,40.3
18712,40.72
18724,40.58
18736,40.04
18747,39.28
18758,38.41
18770,37.5
18782,36.6
18794,35.74
18806,34.96
18818,34.3
18830,33.71
18842,33.14
18854,32.43
18866,31.4
18878,29.9
18890,27.81
18902,25.14
18914,21.98
18926,18.54
18937,15.06
18948,11.73
18960,8.63
18972,5.66
18984,2.59
18996,-0.8
19008,-4.62
19020,-8.79
19032,-13.08
19044,-17.19
19056,-20.9
19068,-24.18
19080,-27.19
19092,-30.24
19104,-33.72
19116,-38.02
19127,-43.34
19138,-49.67
19150,-56.53
19162,-62.96
19174,-67.56
19186,-68.81
19198,-65.57
19210,-57.52
19222,-45.37
19234,-30.71
19246,-15.48
19258,-1.41
19270,10.42
19282,19.72
19294,26.78
19306,32.11
19317,36.15
19328,39.19
19340,41.35
19352,42.74
19364,43.55
19376,43.92
19388,43.98
19400,43.71
19412,43.0
19424,41.72
19436,39.87
19448,37.66
19460,35.48
19472,33.78
19484,32.86
19496,32.66
19507,32.77
19518,32.56
19530,31.42
19542,29.01
19554,25.39
19566,21.0
19578,16.38
19590,12.06
19602,8.29
19614,5.04
19626,2.02
19638,-1.13
19650,-4.72
19662,-8.88
19674,-13.48
19686,-18.18
19697,-22.6
19708,-26.43
19720,-29.63
19732,-32.45
19744,-35.35
19756,-38.86
19768,-43.38
19780,-48.97
19792,-55.19
19804,-61.1
19816,-65.32
19828,-66.47
19840,-63.51
19852,-56.15
19864,-45.04
19876,-31.56
19887,-17.4
19898,-4.07
19910,7.44
19922,16.78
19934,24.05
19946,29.57
19958,33.62
19970,36.46
19982,38.25
19994,39.2
20006,39.52
20018,39.39
20030,38.94
20042,38.21
20054,37.2
20066,35.9
20077,34.4
20088,32.89
20100,31.61
20112,30.71
20124,30.2
20136,29.88
20148,29.42
20160,28.46
20172,26.8
20184,24.38
20196,21.38
20208,18.03
20220,14.58
20232,11.2
20244,7.96
20256,4.77
20267,1.46
20278,-2.19
20290,-6.36
20302,-11.05
20314,-16.08
20326,-21.07
20338,-25.64
20350,-29.48
20362,-32.58
20374,-35.23
20386,-37.95
20398,-41.37
20410,-45.94
20422,-51.72
20434,-58.23
20446,-64.36
20457,-68.65
20468,-69.61
20480,-66.18
20492,-58.15
20504,-46.29
20516,-32.1
20528,-17.38
20540,-3.71
20552,7.93
20564,17.23
20576,24.34
20588,29.65
20600,33.49
20612,36.12
20624,37.72
20636,38.52
20647,38.78
20658,38.74
20670,38.5
20682,38.03
20694,37.18
20706,35.83
20718,34.03
20730,31.98
20742,30.04
20754,28.49
20766,27.52
20778,27.1
20790,27.02
20802,26.97
20814,26.6
20826,25.63
20837,23.84
20848,21.18
20860,17.74
20872,13.81
20884,9.74
20896,5.87
20908,2.36
20920,-0.87
20932,-4.06
20944,-7.48
20956,-11.35
20968,-15.69
20980,-20.38
20992,-25.17
