seconds,BVP
8,63.08
20,62.76
32,61.02
44,57.03
56,50.29
68,40.99
80,30.15
92,19.26
104,9.83
116,2.93
127,-0.96
138,-1.81
150,0.23
162,4.99
174,12.33
186,22.01
198,33.53
210,46.11
222,58.85
234,70.88
246,81.45
258,89.96
270,95.9
282,98.74
294,98.12
306,93.96
317,86.67
328,77.23
340,66.87
352,56.81
364,47.87
376,40.36
388,34.18
400,29.08
412,25.0
424,22.11
436,20.61
448,20.48
460,21.23
472,21.92
484,21.37
496,18.51
507,12.75
518,4.15
530,-6.32
542,-16.59
554,-23.45
566,-22.92
578,-11.15
590,14.1
602,52.17
614,99.02
626,148.01
638,191.82
650,224.63
662,243.71
674,249.67
686,245.54
697,235.27
708,222.54
720,210.07
732,199.73
744,192.67
756,189.27
768,188.97
780,190.03
792,189.71
804,184.89
816,173.04
828,153.16
840,126.29
852,95.43
864,64.81
876,38.79
887,20.88
898,13.19
910,16.38
922,30.09
934,53.27
946,84.46
958,121.64
970,162.09
982,202.41
994,238.96
1006,268.48
1018,288.65
1030,298.36
1042,297.61
1054,287.17
1066,268.27
1077,242.46
1088,211.46
1100,177.08
1112,140.96
1124,104.4
1136,68.19
1148,32.75
1160,-1.73
1172,-35.06
1184,-67.0
1196,-97.36
1208,-126.23
1220,-154.0
1232,-181.27
1244,-208.61
1256,-236.31
1267,-264.27
1278,-292.09
1290,-319.32
1302,-345.73
1314,-371.42
1326,-396.87
1338,-422.77
1350,-450.06
1362,-479.7
1374,-512.42
1386,-548.16
1398,-585.53
1410,-621.56
1422,-652.11
1434,-672.9
1446,-680.77
1457,-674.53
1468,-654.93
1480,-623.83
1492,-583.16
1504,-534.19
1516,-477.65
1528,-414.49
1540,-346.71
1552,-277.52
1564,-210.85
1576,-150.25
1588,-97.85
1600,-53.98
1612,-17.53
1624,13.25
1636,39.96
1647,63.61
1658,84.61
1670,103.1
1682,119.21
1694,133.07
1706,144.71
1718,153.98
1730,160.75
1742,165.24
1754,168.17
1766,170.62
1778,173.49
1790,176.89
1802,179.92
1814,180.86
1826,177.98
1837,170.17
1848,157.31
1860,140.02
1872,119.09
1884,95.03
1896,67.97
1908,38.02
1920,5.75
1932,-27.55
1944,-59.81
1956,-88.37
1968,-110.39
1980,-123.24
1992,-124.86
2004,-114.2
2016,-91.46
2027,-58.34
2038,-17.96
2050,25.62
2062,68.23
2074,106.37
2086,137.82
2098,161.72
2110,178.1
2122,187.36
2134,189.81
2146,185.65
2158,175.35
2170,159.95
2182,141.23
2194,121.39
2206,102.51
2217,85.97
2228,72.28
2240,61.22
2252,52.27
2264,44.89
2276,38.63
2288,33.11
2300,27.9
2312,22.66
2324,17.13
2336,11.42
2348,5.88
2360,1.02
2372,-2.71
2384,-5.13
2396,-6.35
2407,-6.71
2418,-6.62
2430,-6.39
2442,-6.15
2454,-5.87
2466,-5.57
2478,-5.44
2490,-5.86
2502,-7.29
2514,-10.02
2526,-13.92
2538,-18.38
2550,-22.4
2562,-24.97
2574,-25.3
2586,-23.18
2597,-18.93
2608,-13.28
2620,-7.12
2632,-1.14
2644,4.24
2656,8.95
2668,13.06
2680,16.68
2692,19.76
2704,22.07
2716,23.35
2728,23.49
2740,22.57
2752,20.96
2764,19.11
2776,17.36
2787,15.83
2798,14.35
2810,12.61
2822,10.31
2834,7.34
2846,3.83
2858,0.05
2870,-3.63
2882,-7.0
2894,-9.94
2906,-12.57
2918,-15.02
2930,-17.44
2942,-19.92
2954,-22.52
2966,-25.24
2977,-28.04
2988,-30.73
3000,-33.0
3012,-34.39
3024,-34.43
3036,-32.85
3048,-29.65
3060,-25.13
3072,-19.79
3084,-14.19
3096,-8.78
3108,-3.75
3120,0.88
3132,5.32
3144,9.72
3156,14.1
3167,18.21
3178,21.66
3190,24.0
3202,25.04
3214,24.94
3226,24.11
3238,23.04
3250,22.02
3262,21.11
3274,20.27
3286,19.57
3298,19.38
3310,20.23
3322,22.56
3334,26.4
3346,31.31
3357,36.54
3368,41.43
3380,45.6
3392,49.07
3404,52.05
3416,54.73
3428,57.1
3440,58.99
3452,60.22
3464,60.79
3476,60.91
3488,60.96
3500,61.21
3512,61.73
3524,62.29
3536,62.49
3547,61.93
3558,60.42
3570,58.01
3582,55.01
3594,51.85
3606,48.89
3618,46.32
3630,44.05
3642,41.86
3654,39.4
3666,36.62
3678,33.79
3690,31.6
3702,30.96
3714,32.54
3726,36.42
3737,41.79
3748,47.3
3760,51.49
3772,53.56
3784,53.75
3796,53.25
3808,53.76
3820,56.62
3832,62.27
3844,70.01
3856,78.27
3868,85.22
3880,89.5
3892,90.54
3904,88.64
3916,84.68
3927,79.55
3938,73.78
3950,67.25
3962,59.16
3974,48.16
3986,32.56
3998,10.69
4010,-18.32
4022,-53.52
4034,-91.12
4046,-124.38
4058,-145.1
4070,-146.49
4082,-126.44
4094,-89.44
4106,-45.8
4117,-8.26
4128,12.63
4140,11.92
4152,-8.85
4164,-43.7
4176,-85.58
4188,-129.07
4200,-171.31
4212,-211.07
4224,-247.3
4236,-278.37
4248,-302.55
4260,-319.14
4272,-329.23
4284,-335.51
4296,-341.14
4307,-348.24
4318,-357.06
4330,-366.19
4342,-373.7
4354,-378.56
4366,-381.61
4378,-385.32
4390,-392.44
4402,-404.03
4414,-418.09
4426,-429.48
4438,-431.4
4450,-417.81
4462,-385.61
4474,-335.48
4486,-271.29
4497,-198.62
4508,-123.43
4520,-51.42
4532,11.8
4544,60.58
4556,89.67
4568,95.37
4580,76.94
4592,37.32
4604,-17.25
4616,-78.51
4628,-137.88
4640,-187.94
4652,-223.34
4664,-241.14
4676,-240.75
4687,-223.62
4698,-192.62
4710,-151.27
4722,-102.91
4734,-50.14
4746,5.23
4758,61.93
4770,118.85
4782,174.79
4794,228.49
4806,278.82
4818,324.88
4830,366.07
4842,401.93
4854,432.04
4866,456.19
4877,474.71
4888,488.62
4900,499.48
4912,508.75
4924,517.08
4936,523.77
4948,527.03
4960,524.8
4972,515.93
4984,500.95
4996,482.08
5008,462.44
5020,444.84
5032,430.84
5044,420.51
5056,412.81
5067,406.18
5078,399.02
5090,389.59
5102,375.79
5114,355.2
5126,325.72
5138,286.62
5150,239.34
5162,187.49
5174,135.89
5186,88.76
5198,48.27
5210,14.17
5222,-15.32
5234,-41.74
5246,-65.21
5257,-84.33
5268,-97.26
5280,-103.25
5292,-103.57
5304,-101.25
5316,-99.9
5328,-102.33
5340,-109.73
5352,-121.66
5364,-136.74
5376,-153.17
5388,-169.29
5400,-183.65
5412,-195.13
5424,-203.18
5436,-208.1
5447,-211.18
5458,-214.25
5470,-219.04
5482,-226.32
5494,-235.59
5506,-245.18
5518,-252.84
5530,-256.58
5542,-255.29
5554,-248.99
5566,-238.78
5578,-226.62
5590,-214.92
5602,-206.1
5614,-201.88
5626,-202.52
5637,-206.4
5648,-210.12
5660,-209.55
5672,-201.21
5684,-183.59
5696,-157.58
5708,-125.86
5720,-91.58
5732,-56.99
5744,-23.21
5756,9.21
5768,39.08
5780,63.92
5792,80.52
5804,86.36
5816,81.28
5827,68.11
5838,51.8
5850,37.45
5862,28.26
5874,24.53
5886,24.02
5898,23.71
5910,21.47
5922,17.07
5934,11.89
5946,7.7
5958,5.32
5970,3.99
5982,1.62
5994,-4.18
6006,-14.97
6017,-30.71
6028,-49.66
6040,-69.09
6052,-86.15
6064,-98.8
6076,-106.27
6088,-109.09
6100,-108.58
6112,-106.3
6124,-103.52
6136,-100.89
6148,-98.61
6160,-96.53
6172,-94.52
6184,-92.57
6196,-90.7
6207,-88.78
6218,-86.42
6230,-82.95
6242,-77.63
6254,-70.01
6266,-60.11
6278,-48.5
6290,-36.22
6302,-24.48
6314,-14.32
6326,-6.34
6338,-0.46
6350,4.03
6362,8.22
6374,13.28
6386,20.03
6397,28.78
6408,39.29
6420,50.99
6432,63.27
6444,75.56
6456,87.35
6468,98.15
6480,107.47
6492,114.83
6504,120.04
6516,123.28
6528,125.15
6540,126.48
6552,128.06
6564,130.31
6576,133.13
6587,135.97
6598,138.1
6610,139.0
6622,138.52
6634,136.92
6646,134.6
6658,131.85
6670,128.7
6682,125.04
6694,120.93
6706,116.68
6718,112.82
6730,109.78
6742,107.55
6754,105.58
6766,103.04
6777,99.25
6788,94.02
6800,87.74
6812,81.1
6824,74.74
6836,68.9
6848,63.5
6860,58.32
6872,53.26
6884,48.37
6896,43.82
6908,39.83
6920,36.67
6932,34.77
6944,34.75
6956,37.23
6967,42.54
6978,50.26
6990,59.2
7002,67.65
7014,73.99
7026,77.38
7038,78.14
7050,77.68
7062,77.86
7074,80.2
7086,85.14
7098,91.88
7110,98.59
7122,103.09
7134,103.56
7146,99.07
7157,89.96
7168,78.03
7180,66.57
7192,59.96
7204,62.46
7216,76.61
7228,101.59
7240,132.76
7252,162.83
7264,184.43
7276,192.94
7288,188.08
7300,173.45
7312,154.42
7324,135.52
7336,118.83
7347,104.16
7358,90.42
7370,77.08
7382,64.78
7394,54.65
7406,47.17
7418,41.43
7430,35.42
7442,27.12
7454,15.71
7466,1.94
7478,-12.33
7490,-25.35
7502,-36.35
7514,-45.72
7526,-54.36
7537,-62.77
7548,-70.51
7560,-76.38
7572,-79.12
7584,-78.18
7596,-74.03
7608,-67.92
7620,-61.3
7632,-55.39
7644,-51.0
7656,-48.64
7668,-48.64
7680,-51.08
7692,-55.68
7704,-61.71
7716,-68.19
7727,-74.11
7738,-78.77
7750,-81.89
7762,-83.57
7774,-84.12
7786,-83.96
7798,-83.54
7810,-83.25
7822,-83.37
7834,-83.93
7846,-84.66
7858,-85.0
7870,-84.35
7882,-82.26
7894,-78.64
7906,-73.73
7917,-68.02
7928,-62.08
7940,-56.55
7952,-52.1
7964,-49.49
7976,-49.31
7988,-51.82
8000,-56.71
8012,-62.86
8024,-68.79
8036,-73.21
8048,-75.0
8060,-73.38
8072,-68.12
8084,-59.42
8096,-47.94
8107,-34.7
8118,-20.92
8130,-8.13
8142,2.0
8154,8.39
8166,10.9
8178,10.2
8190,7.57
8202,4.39
8214,1.75
8226,0.5
8238,0.86
8250,2.12
8262,3.8
8274,5.95
8286,8.66
8297,11.92
8308,15.45
8320,18.67
8332,21.8
8344,24.91
8356,26.64
8368,26.69
8380,25.91
8392,24.96
8404,24.16
8416,23.51
8428,22.75
8440,23.56
8452,27.05
8464,30.74
8476,33.6
8487,36.42
8498,39.65
8510,43.51
8522,48.19
8534,54.0
8546,64.17
8558,80.5
8570,97.92
8582,112.5
8594,122.56
8606,126.13
8618,122.23
8630,111.62
8642,96.9
8654,85.47
8666,82.95
8677,85.75
8688,91.62
8700,101.3
8712,114.75
8724,131.53
8736,150.45
8748,145.32
8760,102.45
8772,56.67
8784,18.24
8796,-21.68
8808,-62.28
8820,-100.26
8832,-132.15
8844,-156.21
8856,-173.14
8867,-181.59
8878,-182.0
8890,-181.68
8902,-183.53
8914,-185.4
8926,-185.39
8938,-182.69
8950,-177.73
8962,-171.79
8974,-163.24
8986,-150.88
8998,-138.8
9010,-128.46
9022,-118.42
9034,-108.17
9046,-98.05
9057,-88.93
9068,-81.64
9080,-74.73
9092,-66.83
9104,-59.96
9116,-54.74
9128,-50.23
9140,-46.12
9152,-42.47
9164,-39.39
9176,-36.66
9188,-32.83
9200,-26.61
9212,-18.78
9224,-9.94
9236,-0.27
9247,9.66
9258,19.25
9270,28.03
9282,35.87
9294,43.13
9306,50.18
9318,56.73
9330,62.69
9342,68.35
9354,73.99
9366,79.93
9378,86.4
9390,93.61
9402,101.69
9414,110.65
9426,120.2
9437,129.74
9448,138.41
9460,145.44
9472,150.48
9484,153.79
9496,156.19
9508,158.46
9520,160.75
9532,162.28
9544,161.44
9556,156.55
9568,146.58
9580,131.63
9592,112.6
9604,90.6
9616,66.17
9627,39.18
9638,9.34
9650,-23.07
9662,-56.59
9674,-88.8
9686,-117.0
9698,-139.16
9710,-154.62
9722,-164.04
9734,-168.88
9746,-170.63
9758,-170.28
9770,-168.16
9782,-164.23
9794,-158.27
9806,-150.36
9817,-140.88
9828,-130.49
9840,-119.92
9852,-109.76
9864,-100.31
9876,-91.53
9888,-83.21
9900,-75.1
9912,-67.11
9924,-59.27
9936,-51.73
9948,-44.62
9960,-37.99
9972,-31.87
9984,-26.27
9996,-21.2
10007,-16.66
10018,-12.65
10030,-9.31
10042,-6.92
10054,-5.96
10066,-6.82
10078,-9.54
10090,-13.56
10102,-17.91
10114,-21.49
10126,-23.6
10138,-24.05
10150,-23.02
10162,-20.63
10174,-16.71
10186,-11.03
10197,-3.73
10208,4.37
10220,11.91
10232,17.37
10244,19.6
10256,17.84
10268,11.59
10280,0.34
10292,-16.32
10304,-38.15
10316,-63.71
10328,-90.24
10340,-114.17
10352,-132.28
10364,-142.66
10376,-145.11
10387,-140.8
10398,-131.46
10410,-118.67
10422,-103.64
10434,-87.34
10446,-70.8
10458,-55.17
10470,-41.49
10482,-30.42
10494,-22.01
10506,-15.72
10518,-10.66
10530,-6.02
10542,-1.36
10554,3.22
10566,7.11
10577,9.5
10588,9.78
10600,7.92
10612,4.58
10624,0.99
10636,-1.49
10648,-1.87
10660,0.14
10672,4.09
10684,9.09
10696,14.17
10708,18.6
10720,21.98
10732,24.09
10744,24.92
10756,24.61
10767,23.61
10778,22.76
10790,23.03
10802,25.17
10814,29.33
10826,34.87
10838,40.63
10850,45.35
10862,48.21
10874,49.0
10886,47.98
10898,45.52
10910,41.85
10922,37.08
10934,31.35
10946,25.05
10957,18.87
10968,13.55
10980,9.6
10992,7.14
11004,5.8
11016,5.06
11028,4.35
11040,3.29
11052,1.69
11064,-0.45
11076,-2.86
11088,-5.05
11100,-6.35
11112,-6.13
11124,-4.08
11136,-0.45
11147,4.06
11158,8.56
11170,12.28
11182,14.89
11194,16.38
11206,16.88
11218,16.43
11230,14.98
11242,12.49
11254,9.24
11266,5.92
11278,3.57
11290,3.24
11302,5.73
11314,11.37
11326,19.97
11337,30.95
11348,43.54
11360,56.9
11372,70.42
11384,83.72
11396,96.77
11408,109.63
11420,122.23
11432,134.16
11444,144.49
11456,151.97
11468,155.25
11480,153.25
11492,145.33
11504,131.43
11516,111.89
11527,87.53
11538,59.67
11550,30.33
11562,2.19
11574,-21.72
11586,-38.93
11598,-48.25
11610,-50.28
11622,-47.23
11634,-42.03
11646,-37.22
11658,-34.09
11670,-32.48
11682,-31.27
11694,-29.16
11706,-25.39
11717,-19.98
11728,-13.46
11740,-6.45
11752,0.74
11764,8.2
11776,16.25
11788,25.13
11800,34.79
11812,44.74
11824,54.28
11836,62.79
11848,69.99
11860,76.05
11872,81.42
11884,86.57
11896,91.54
11907,95.85
11918,98.52
11930,98.48
11942,94.87
11954,87.32
11966,75.88
11978,60.9
11990,42.85
12002,22.21
12014,-0.66
12026,-25.6
12038,-52.73
12050,-82.18
12062,-113.7
12074,-146.1
12086,-177.07
12097,-203.39
12108,-221.57
12120,-228.55
12132,-222.41
12144,-202.81
12156,-171.31
12168,-131.35
12180,-87.98
12192,-47.16
12204,-14.67
12216,4.95
12228,9.12
12240,-2.61
12252,-28.91
12264,-67.07
12276,-113.29
12287,-162.83
12298,-210.24
12310,-250.15
12322,-278.21
12334,-291.88
12346,-290.45
12358,-274.42
12370,-244.63
12382,-201.9
12394,-147.41
12406,-83.61
12418,-14.96
12430,52.19
12442,110.82
12454,154.98
12466,181.48
12477,190.66
12488,186.09
12500,173.26
12512,157.85
12524,144.3
12536,134.98
12548,130.22
12560,129.02
12572,129.84
12584,131.4
12596,133.0
12608,134.57
12620,136.38
12632,138.71
12644,141.66
12656,144.95
12667,147.92
12678,149.8
12690,149.89
12702,147.91
12714,144.13
12726,139.35
12738,134.65
12750,131.15
12762,129.7
12774,130.69
12786,133.91
12798,138.54
12810,143.31
12822,146.74
12834,147.74
12846,146.12
12857,143.01
12868,140.73
12880,141.86
12892,147.91
12904,158.04
12916,168.7
12928,174.59
12940,170.55
12952,153.75
12964,124.75
12976,87.33
12988,46.9
13000,8.58
13012,-24.24
13024,-50.19
13036,-69.8
13047,-84.95
13058,-98.39
13070,-112.75
13082,-129.29
13094,-146.81
13106,-161.66
13118,-169.17
13130,-166.07
13142,-152.45
13154,-132.01
13166,-110.26
13178,-91.67
13190,-77.66
13202,-66.58
13214,-55.55
13226,-42.78
13237,-28.88
13248,-16.08
13260,-6.51
13272,-0.7
13284,2.59
13296,5.15
13308,7.78
13320,9.66
13332,8.78
13344,3.16
13356,-7.96
13368,-23.65
13380,-41.73
13392,-59.8
13404,-76.13
13416,-90.16
13427,-102.2
13438,-112.94
13450,-122.74
13462,-131.28
13474,-137.57
13486,-140.3
13498,-138.32
13510,-131.22
13522,-119.66
13534,-105.53
13546,-91.71
13558,-81.4
13570,-77.21
13582,-80.23
13594,-89.58
13606,-102.6
13617,-115.78
13628,-126.06
13640,-131.82
13652,-133.33
13664,-132.45
13676,-131.51
13688,-132.18
13700,-134.49
13712,-136.5
13724,-134.66
13736,-124.82
13748,-103.45
13760,-68.85
13772,-21.84
13784,34.15
13796,93.72
13807,150.69
13818,199.38
13830,235.72
13842,257.77
13854,265.72
13866,261.25
13878,247.01
13890,226.01
13902,201.42
13914,176.41
13926,153.91
13938,136.32
13950,125.1
13962,120.62
13974,122.17
13986,128.36
13997,137.42
14008,147.27
14020,155.44
14032,159.31
14044,156.89
14056,147.9
14068,134.31
14080,119.74
14092,107.71
14104,99.55
14116,93.47
14128,85.28
14140,70.71
14152,47.91
14164,18.67
14176,-12.37
14187,-39.97
14198,-60.56
14210,-73.3
14222,-79.53
14234,-81.25
14246,-79.75
14258,-75.26
14270,-67.57
14282,-56.81
14294,-43.86
14306,-30.18
14318,-17.17
14330,-5.32
14342,5.96
14354,17.85
14366,31.11
14377,44.98
14388,56.8
14400,62.68
14412,59.02
14424,44.15
14436,19.21
14448,-12.23
14460,-45.61
14472,-76.93
14484,-103.79
14496,-125.3
14508,-141.35
14520,-151.79
14532,-156.15
14544,-153.93
14556,-145.15
14567,-130.72
14578,-112.11
14590,-90.84
14602,-68.04
14614,-44.42
14626,-20.72
14638,1.85
14650,21.44
14662,35.92
14674,43.54
14686,43.62
14698,36.76
14710,24.56
14722,8.98
14734,-8.31
14746,-26.4
14757,-45.04
14768,-64.27
14780,-84.03
14792,-103.8
14804,-122.76
14816,-140.03
14828,-154.96
14840,-167.31
14852,-177.12
14864,-184.45
14876,-189.22
14888,-191.18
14900,-190.1
14912,-185.84
14924,-178.21
14936,-166.55
14947,-149.55
14958,-125.65
14970,-94.02
14982,-55.81
14994,-14.65
15006,23.95
15018,54.46
15030,73.6
15042,81.6
15054,82.0
15066,79.78
15078,79.08
15090,81.63
15102,86.62
15114,91.89
15126,95.52
15137,96.83
15148,96.33
15160,94.8
15172,92.29
15184,87.78
15196,79.67
15208,66.86
15220,49.68
15232,30.14
15244,11.14
15256,-4.68
15268,-16.1
15280,-23.7
15292,-29.35
15304,-35.14
15316,-42.37
15327,-51.11
15338,-60.43
15350,-69.15
15362,-76.41
15374,-82.09
15386,-86.61
15398,-90.65
15410,-94.64
15422,-98.61
15434,-102.01
15446,-103.83
15458,-102.83
15470,-98.03
15482,-88.99
15494,-76.11
15506,-60.45
15517,-43.24
15528,-25.51
15540,-7.91
15552,8.75
15564,23.15
15576,33.61
15588,39.0
15600,39.9
15612,39.13
15624,40.81
15636,48.14
15648,61.37
15660,76.95
15672,88.94
15684,91.77
15696,82.77
15707,63.27
15718,37.48
15730,10.27
15742,-15.01
15754,-37.07
15766,-56.08
15778,-72.34
15790,-85.37
15802,-94.06
15814,-97.32
15826,-94.91
15838,-87.76
15850,-77.76
15862,-67.08
15874,-57.42
15886,-49.57
15897,-43.24
15908,-37.43
15920,-31.1
15932,-23.73
15944,-15.62
15956,-7.74
15968,-1.1
15980,3.82
15992,7.43
16004,10.91
16016,15.56
16028,22.24
16040,31.02
16052,41.21
16064,51.76
16076,61.77
16087,70.72
16098,78.5
16110,85.18
16122,90.7
16134,94.68
16146,96.48
16158,95.4
16170,90.9
16182,82.83
16194,71.55
16206,57.75
16218,42.31
16230,26.08
16242,9.74
16254,-6.06
16266,-20.61
16277,-33.1
16288,-42.76
16300,-49.08
16312,-52.19
16324,-52.74
16336,-51.83
16348,-50.46
16360,-49.19
16372,-48.02
16384,-46.47
16396,-44.06
16408,-40.59
16420,-36.28
16432,-31.64
16444,-27.21
16456,-23.37
16467,-20.18
16478,-17.51
16490,-15.1
16502,-12.82
16514,-10.67
16526,-8.88
16538,-7.74
16550,-7.48
16562,-8.11
16574,-9.43
16586,-11.04
16598,-12.55
16610,-13.7
16622,-14.37
16634,-14.63
16646,-14.58
16657,-14.3
16668,-13.89
16680,-13.44
16692,-13.24
16704,-13.64
16716,-14.97
16728,-17.3
16740,-20.23
16752,-22.93
16764,-24.35
16776,-23.6
16788,-20.28
16800,-14.66
16812,-7.51
16824,0.14
16836,7.41
16847,13.76
16858,19.08
16870,23.49
16882,27.21
16894,30.43
16906,33.21
16918,35.53
16930,37.3
16942,38.41
16954,38.8
16966,38.49
16978,37.58
16990,36.21
17002,34.48
17014,32.45
17026,30.06
17037,27.26
17048,24.01
17060,20.38
17072,16.48
17084,12.5
17096,8.58
17108,4.85
17120,1.31
17132,-2.15
17144,-5.8
17156,-10.03
17168,-15.28
17180,-21.91
17192,-30.04
17204,-39.38
17216,-49.15
17227,-58.17
17238,-65.07
17250,-68.7
17262,-68.48
17274,-64.72
17286,-58.6
17298,-51.82
17310,-46.02
17322,-42.2
17334,-40.34
17346,-39.63
17358,-39.02
17370,-37.9
17382,-36.64
17394,-36.52
17406,-39.25
17417,-46.28
17428,-58.17
17440,-74.41
17452,-93.55
17464,-113.52
17476,-132.05
17488,-146.98
17500,-156.55
17512,-159.78
17524,-156.61
17536,-147.81
17548,-134.69
17560,-118.62
17572,-100.64
17584,-81.46
17596,-61.7
17607,-42.23
17618,-24.33
17630,-9.48
17642,1.01
17654,6.52
17666,7.12
17678,3.59
17690,-2.94
17702,-11.15
17714,-19.62
17726,-27.05
17738,-32.43
17750,-35.34
17762,-36.05
17774,-35.5
17786,-34.98
17797,-35.74
17808,-38.57
17820,-43.73
17832,-50.85
17844,-58.99
17856,-66.79
17868,-72.54
17880,-74.43
17892,-70.88
17904,-61.05
17916,-45.11
17928,-24.38
17940,-0.96
17952,22.79
17964,44.85
17976,63.96
17987,79.73
17998,92.47
18010,102.78
18022,111.29
18034,118.48
18046,124.63
18058,129.92
18070,134.44
18082,138.14
18094,140.64
18106,141.28
18118,139.21
18130,133.85
18142,125.27
18154,114.42
18166,102.98
18177,92.89
18188,85.7
18200,82.13
18212,81.96
18224,84.24
18236,87.73
18248,91.3
18260,94.15
18272,95.82
18284,96.13
18296,95.0
18308,92.46
18320,88.63
18332,83.78
18344,78.34
18356,72.86
18367,67.87
18378,63.78
18390,60.76
18402,58.72
18414,57.32
18426,56.17
18438,54.91
18450,53.36
18462,51.52
18474,49.48
18486,47.42
18498,45.44
18510,43.54
18522,41.62
18534,39.51
18546,37.09
18557,34.29
18568,31.13
18580,27.67
18592,24.01
18604,20.26
18616,16.58
18628,13.35
18640,11.09
18652,10.33
18664,11.46
18676,14.54
18688,19.22
18700,24.87
18712,30.78
18724,36.35
18736,41.21
18747,45.16
18758,48.15
18770,50.13
18782,51.07
18794,51.04
18806,50.23
18818,48.96
18830,47.58
18842,46.35
18854,45.29
18866,44.22
18878,42.85
18890,40.97
18902,38.56
18914,35.81
18926,33.03
18937,30.46
18948,28.21
18960,26.17
18972,24.12
18984,21.82
18996,19.08
19008,15.87
19020,12.33
19032,8.69
19044,5.28
19056,2.38
19068,0.1
19080,-1.64
19092,-3.19
19104,-4.94
19116,-7.23
19127,-10.12
19138,-13.32
19150,-16.23
19162,-18.1
19174,-18.29
19186,-16.43
19198,-12.55
19210,-7.08
19222,-0.69
19234,5.91
19246,12.11
19258,17.53
19270,22.01
19282,25.56
19294,28.25
19306,30.17
19317,31.39
19328,32.02
19340,32.22
19352,32.2
19364,32.15
19376,32.21
19388,32.39
19400,32.64
19412,32.8
19424,32.75
19436,32.43
19448,31.84
19460,31.03
19472,30.04
19484,28.88
19496,27.5
19507,25.88
19518,24.02
19530,22.02
19542,20.04
19554,18.24
19566,16.71
19578,15.42
19590,14.25
19602,13.03
19614,11.63
19626,10.06
19638,8.45
19650,7.01
19662,5.88
19674,5.11
19686,4.62
19697,4.23
19708,3.8
19720,3.25
19732,2.59
19744,1.9
19756,1.22
19768,0.6
19780,0.09
19792,-0.24
19804,-0.35
19816,-0.26
19828,-0.06
19840,0.12
19852,0.15
19864,-0.07
19876,-0.54
19887,-1.27
19898,-2.23
19910,-3.37
19922,-4.65
19934,-5.95
19946,-7.13
19958,-8.08
19970,-8.78
19982,-9.32
19994,-9.83
20006,-10.43
20018,-11.12
20030,-11.84
20042,-12.49
20054,-13.04
20066,-13.56
20077,-14.15
20088,-14.89
20100,-15.77
20112,-16.72
20124,-17.63
20136,-18.47
20148,-19.3
20160,-20.26
20172,-21.51
20184,-23.16
20196,-25.2
20208,-27.52
20220,-29.83
20232,-31.78
20244,-32.9
20256,-32.74
20267,-30.97
20278,-27.46
20290,-22.49
20302,-16.61
20314,-10.6
20326,-5.18
20338,-0.8
20350,2.44
20362,4.76
20374,6.57
20386,8.2
20398,9.84
20410,11.43
20422,12.8
20434,13.76
20446,14.21
20457,14.19
20468,13.84
20480,13.33
20492,12.82
20504,12.4
20516,12.1
20528,11.92
20540,11.78
20552,11.6
20564,11.31
20576,10.87
20588,10.27
20600,9.56
20612,8.79
20624,7.97
20636,7.07
20647,6.0
20658,4.69
20670,3.1
20682,1.23
20694,-0.9
20706,-3.21
20718,-5.6
20730,-7.84
20742,-9.57
20754,-10.38
20766,-9.96
20778,-8.23
20790,-5.22
20802,-1.33
20814,2.81
20826,6.5
20837,9.33
20848,11.25
20860,12.45
20872,13.13
20884,13.44
20896,13.61
20908,13.76
20920,13.84
20932,13.68
20944,13.19
20956,12.41
20968,11.48
20980,10.49
20992,9.51
