seconds,BVP
8,15.25
20,33.1
32,46.55
44,55.62
56,60.62
68,61.94
80,60.07
92,55.63
104,49.39
116,42.19
127,34.92
138,28.33
150,23.04
162,19.4
174,17.58
186,17.6
198,19.29
210,22.36
222,26.32
234,30.49
246,34.06
258,36.3
270,36.67
282,35.07
294,31.82
306,27.5
317,22.72
328,17.94
340,13.29
352,8.66
364,3.82
376,-1.36
388,-6.73
400,-11.94
412,-16.56
424,-20.26
436,-23.04
448,-25.2
460,-27.22
472,-29.54
484,-32.38
496,-35.71
507,-39.3
518,-42.92
530,-46.53
542,-50.29
554,-54.56
566,-59.85
578,-66.71
590,-75.54
602,-86.39
614,-98.6
626,-110.64
638,-120.19
650,-124.61
662,-121.75
674,-110.66
686,-91.98
697,-67.82
708,-41.07
720,-14.66
732,9.15
744,29.01
756,44.4
768,55.34
780,62.13
792,65.13
804,64.82
816,61.79
828,56.84
840,50.83
852,44.67
864,39.12
876,34.7
887,31.7
898,30.24
910,30.32
922,31.96
934,35.09
946,39.55
958,44.89
970,50.41
982,55.26
994,58.61
1006,59.92
1018,59.11
1030,56.47
1042,52.54
1054,47.95
1066,43.14
1077,38.31
1088,33.45
1100,28.42
1112,23.04
1124,17.27
1136,11.19
1148,5.05
1160,-0.79
1172,-6.05
1184,-10.55
1196,-14.45
1208,-18.14
1220,-22.13
1232,-26.79
1244,-32.22
1256,-38.14
1267,-44.05
1278,-49.47
1290,-54.19
1302,-58.39
1314,-62.64
1326,-67.74
1338,-74.55
1350,-83.62
1362,-94.81
1374,-106.99
1386,-118.0
1398,-125.0
1410,-125.24
1422,-117.02
1434,-100.23
1446,-76.51
1457,-48.71
1468,-20.02
1480,6.87
1492,30.13
1504,48.86
1516,62.77
1528,71.95
1540,76.72
1552,77.64
1564,75.49
1576,71.27
1588,66.01
1600,60.58
1612,55.6
1624,51.45
1636,48.28
1647,46.22
1658,45.38
1670,45.91
1682,47.93
1694,51.41
1706,56.06
1718,61.34
1730,66.43
1742,70.49
1754,72.79
1766,72.97
1778,71.02
1790,67.39
1802,62.64
1814,57.4
1826,52.11
1837,46.92
1848,41.72
1860,36.29
1872,30.43
1884,24.11
1896,17.57
1908,11.21
1920,5.47
1932,0.64
1944,-3.28
1956,-6.59
1968,-9.87
1980,-13.71
1992,-18.51
2004,-24.32
2016,-30.86
2027,-37.57
2038,-43.91
2050,-49.52
2062,-54.39
2074,-58.92
2086,-63.85
2098,-70.05
2110,-78.22
2122,-88.55
2134,-100.26
2146,-111.6
2158,-120.05
2170,-122.94
2182,-118.31
2194,-105.51
2206,-85.55
2217,-60.74
2228,-34.06
2240,-8.36
2252,14.29
2264,32.69
2276,46.47
2288,55.69
2300,60.67
2312,61.79
2324,59.56
2336,54.64
2348,47.89
2360,40.3
2372,32.82
2384,26.3
2396,21.29
2407,18.17
2418,17.09
2430,18.02
2442,20.79
2454,24.99
2466,30.05
2478,35.22
2490,39.76
2502,43.05
2514,44.68
2526,44.52
2538,42.65
2550,39.3
2562,34.72
2574,29.25
2586,23.18
2597,16.88
2608,10.65
2620,4.72
2632,-0.81
2644,-5.98
2656,-10.97
2668,-16.01
2680,-21.29
2692,-26.91
2704,-32.8
2716,-38.73
2728,-44.41
2740,-49.54
2752,-54.03
2764,-58.03
2776,-61.97
2787,-66.53
2798,-72.44
2810,-80.29
2822,-90.16
2834,-101.24
2846,-111.71
2858,-119.03
2870,-120.53
2882,-114.31
2894,-99.93
2906,-78.59
2918,-52.81
2930,-25.58
2942,0.37
2954,23.14
2966,41.69
2977,55.68
2988,65.15
3000,70.38
3012,71.85
3024,70.21
3036,66.27
3048,60.87
3060,54.78
3072,48.65
3084,43.1
3096,38.63
3108,35.69
3120,34.55
3132,35.26
3144,37.61
3156,41.18
3167,45.41
3178,49.67
3190,53.37
3202,55.92
3214,56.95
3226,56.34
3238,54.25
3250,51.03
3262,47.13
3274,42.84
3286,38.3
3298,33.44
3310,28.15
3322,22.41
3334,16.37
3346,10.3
3357,4.51
3368,-0.88
3380,-5.95
3392,-10.98
3404,-16.34
3416,-22.28
3428,-28.79
3440,-35.62
3452,-42.37
3464,-48.63
3476,-54.23
3488,-59.22
3500,-63.96
3512,-69.05
3524,-75.19
3536,-83.01
3547,-92.72
3558,-103.76
3570,-114.54
3582,-122.62
3594,-125.2
3606,-120.09
3618,-106.47
3630,-85.33
3642,-59.1
3654,-30.96
3666,-3.86
3678,20.08
3690,39.8
3702,55.01
3714,65.86
3726,72.6
3737,75.57
3748,75.22
3760,72.21
3772,67.42
3784,61.81
3796,56.29
3808,51.6
3820,48.2
3832,46.3
3844,45.95
3856,47.04
3868,49.41
3880,52.82
3892,56.98
3904,61.5
3916,65.94
3927,69.81
3938,72.62
3950,73.99
3962,73.74
3974,71.91
3986,68.76
3998,64.71
4010,60.22
4022,55.7
4034,51.38
4046,47.37
4058,43.66
4070,40.18
4082,36.86
4094,33.67
4106,30.63
4117,27.88
4128,25.61
4140,24.02
4152,23.16
4164,22.85
4176,22.68
4188,22.14
4200,20.89
4212,18.86
4224,16.23
4236,13.28
4248,10.16
4260,6.77
4272,2.75
4284,-2.34
4296,-8.91
4307,-17.25
4318,-27.5
4330,-39.55
4342,-52.77
4354,-65.8
4366,-76.46
4378,-82.21
4390,-80.8
4402,-71.11
4414,-53.71
4426,-30.76
4438,-5.47
4450,18.92
4462,39.85
4474,55.93
4486,66.79
4497,72.69
4508,74.18
4520,71.79
4532,66.03
4544,57.51
4556,47.0
4568,35.48
4580,23.95
4592,13.31
4604,4.24
4616,-2.89
4628,-7.96
4640,-11.04
4652,-12.27
4664,-11.86
4676,-10.03
4687,-7.15
4698,-3.72
4710,-0.35
4722,2.45
4734,4.47
4746,5.92
4758,7.39
4770,9.63
4782,13.19
4794,18.14
4806,23.86
4818,29.09
4830,32.24
4842,31.79
4854,26.8
4866,17.2
4877,3.95
4888,-11.19
4900,-26.11
4912,-38.89
4924,-48.38
4936,-54.41
4948,-57.7
4960,-59.51
4972,-61.15
4984,-63.52
4996,-66.97
5008,-71.29
5020,-75.95
5032,-80.36
5044,-84.06
5056,-86.94
5067,-89.22
5078,-91.45
5090,-94.41
5102,-98.83
5114,-105.07
5126,-112.66
5138,-120.11
5150,-125.08
5162,-125.03
5174,-117.98
5186,-103.35
5198,-82.18
5210,-56.88
5222,-30.49
5234,-5.87
5246,14.92
5257,30.82
5268,41.62
5280,47.62
5292,49.35
5304,47.39
5316,42.41
5328,35.24
5340,26.89
5352,18.51
5364,11.17
5376,5.79
5388,2.87
5400,2.49
5412,4.38
5424,8.08
5436,13.09
5447,18.99
5458,25.42
5470,31.98
5482,38.14
5494,43.22
5506,46.47
5518,47.35
5530,45.65
5542,41.64
5554,35.94
5566,29.36
5578,22.63
5590,16.22
5602,10.21
5614,4.42
5626,-1.52
5637,-7.91
5648,-14.89
5660,-22.32
5672,-29.76
5684,-36.68
5696,-42.55
5708,-47.1
5720,-50.47
5732,-53.2
5744,-56.2
5756,-60.47
5768,-66.79
5780,-75.42
5792,-85.74
5804,-96.18
5816,-104.4
5827,-107.91
5838,-104.7
5850,-93.97
5862,-76.41
5874,-54.02
5886,-29.48
5898,-5.42
5910,16.16
5922,34.13
5934,48.12
5946,58.18
5958,64.5
5970,67.36
5982,67.11
5994,64.26
6006,59.52
6017,53.73
6028,47.81
6040,42.54
6052,38.52
6064,36.11
6076,35.42
6088,36.36
6100,38.75
6112,42.3
6124,46.56
6136,50.98
6148,54.86
6160,57.48
6172,58.27
6184,56.91
6196,53.46
6207,48.24
6218,41.72
6230,34.35
6242,26.56
6254,18.7
6266,11.14
6278,4.23
6290,-1.81
6302,-7.04
6314,-11.76
6326,-16.48
6338,-21.61
6350,-27.24
6362,-33.07
6374,-38.63
6386,-43.47
6397,-47.44
6408,-50.82
6420,-54.17
6432,-58.2
6444,-63.58
6456,-70.81
6468,-80.02
6480,-90.75
6492,-101.72
6504,-110.82
6516,-115.51
6528,-113.46
6540,-103.43
6552,-85.67
6564,-62.02
6576,-35.23
6587,-8.22
6598,16.67
6610,38.01
6622,55.14
6634,67.91
6646,76.41
6658,80.8
6670,81.46
6682,79.01
6694,74.33
6706,68.49
6718,62.49
6730,57.15
6742,53.01
6754,50.38
6766,49.38
6777,50.07
6788,52.41
6800,56.24
6812,61.19
6824,66.72
6836,72.06
6848,76.44
6860,79.23
6872,80.07
6884,78.96
6896,76.19
6908,72.19
6920,67.39
6932,62.06
6944,56.35
6956,50.25
6967,43.82
6978,37.28
6990,30.98
7002,25.33
7014,20.5
7026,16.31
7038,12.05
7050,6.65
7062,-0.91
7074,-11.28
7086,-24.45
7098,-39.76
7110,-56.11
7122,-72.33
7134,-87.47
7146,-100.95
7157,-112.59
7168,-122.56
7180,-131.28
7192,-139.16
7204,-146.25
7216,-151.93
7228,-154.88
7240,-153.21
7252,-145.21
7264,-130.01
7276,-108.02
7288,-81.01
7300,-51.59
7312,-22.53
7324,3.91
7336,26.3
7347,43.95
7358,56.8
7370,65.06
7382,69.16
7394,69.6
7406,67.05
7418,62.35
7430,56.46
7442,50.43
7454,45.23
7466,41.59
7478,39.86
7490,40.02
7502,41.76
7514,44.65
7526,48.25
7537,52.14
7548,55.91
7560,59.1
7572,61.25
7584,61.96
7596,61.04
7608,58.46
7620,54.42
7632,49.19
7644,43.08
7656,36.39
7668,29.48
7680,22.66
7692,16.2
7704,10.23
7716,4.74
7727,-0.48
7738,-5.7
7750,-11.12
7762,-16.85
7774,-22.8
7786,-28.75
7798,-34.42
7810,-39.56
7822,-44.05
7834,-48.01
7846,-51.83
7858,-56.13
7870,-61.65
7882,-68.98
7894,-78.15
7906,-88.34
7917,-97.72
7928,-103.79
7940,-104.05
7952,-96.8
7964,-81.76
7976,-60.23
7988,-34.63
8000,-7.82
8012,17.72
8024,40.27
8036,58.95
8048,73.46
8060,83.83
8072,90.2
8084,92.84
8096,92.19
8107,88.94
8118,83.95
8130,78.18
8142,72.52
8154,67.69
8166,64.19
8178,62.25
8190,61.89
8202,62.9
8214,64.96
8226,67.67
8238,70.54
8250,73.08
8262,74.84
8274,75.4
8286,74.51
8297,72.03
8308,68.02
8320,62.65
8332,56.17
8344,48.89
8356,41.13
8368,33.23
8380,25.55
8392,18.42
8404,12.06
8416,6.49
8428,1.51
8440,-3.22
8452,-8.11
8464,-13.4
8476,-19.12
8487,-25.06
8498,-30.93
8510,-36.47
8522,-41.6
8534,-46.46
8546,-51.4
8558,-56.94
8570,-63.68
8582,-72.14
8594,-82.31
8606,-93.37
8618,-103.52
8630,-110.2
8642,-110.87
8654,-103.76
8666,-88.63
8677,-66.88
8688,-41.14
8700,-14.38
8712,10.84
8724,32.84
8736,50.9
8748,64.86
8760,74.84
8772,80.91
8784,83.16
8796,81.81
8808,77.4
8820,70.83
8832,63.31
8844,56.12
8856,50.31
8867,46.52
8878,44.9
8890,45.13
8902,46.69
8914,49.0
8926,51.57
8938,53.98
8950,55.87
8962,56.79
8974,56.33
8986,54.13
8998,49.98
9010,43.92
9022,36.22
9034,27.38
9046,17.99
9057,8.64
9068,-0.26
9080,-8.54
9092,-16.27
9104,-23.7
9116,-31.06
9128,-38.35
9140,-45.32
9152,-51.55
9164,-56.59
9176,-60.28
9188,-62.76
9200,-64.57
9212,-66.42
9224,-69.09
9236,-73.29
9247,-79.42
9258,-87.46
9270,-96.63
9282,-105.35
9294,-111.36
9306,-112.23
9318,-106.1
9330,-92.36
9342,-71.96
9354,-47.18
9366,-20.94
9378,4.05
9390,25.83
9402,43.41
9414,56.57
9426,65.46
9437,70.3
9448,71.37
9460,69.01
9472,63.85
9484,56.84
9496,49.16
9508,41.98
9520,36.21
9532,32.35
9544,30.42
9556,30.13
9568,31.01
9580,32.58
9592,34.52
9604,36.52
9616,38.32
9627,39.59
9638,39.9
9650,38.83
9662,36.02
9674,31.35
9686,25.05
9698,17.7
9710,10.06
9722,2.85
9734,-3.5
9746,-9.04
9758,-14.19
9770,-19.59
9782,-25.75
9794,-32.79
9806,-40.42
9817,-48.03
9828,-54.94
9840,-60.77
9852,-65.51
9864,-69.56
9876,-73.66
9888,-78.66
9900,-85.35
9912,-94.11
9924,-104.66
9936,-115.72
9948,-125.08
9960,-130.04
9972,-128.13
9984,-118.03
9996,-100.05
10007,-76.11
10018,-49.18
10030,-22.38
10042,1.81
10054,21.89
10066,37.25
10078,47.89
10090,54.03
10102,56.02
10114,54.32
10126,49.62
10138,42.78
10150,34.86
10162,26.88
10174,19.64
10186,13.69
10197,9.28
10208,6.45
10220,5.16
10232,5.29
10244,6.54
10256,8.48
10268,10.5
10280,11.9
10292,12.05
10304,10.49
10316,7.03
10328,1.8
10340,-4.82
10352,-12.28
10364,-20.03
10376,-27.6
10387,-34.8
10398,-41.67
10410,-48.41
10422,-55.22
10434,-62.04
10446,-68.55
10458,-74.3
10470,-78.87
10482,-82.18
10494,-84.53
10506,-86.52
10518,-89.03
10530,-92.91
10542,-98.81
10554,-106.83
10566,-116.22
10577,-125.23
10588,-131.29
10600,-131.63
10612,-124.17
10624,-108.27
10636,-85.01
10648,-56.91
10660,-27.14
10672,1.39
10684,26.62
10696,47.54
10708,63.89
10720,75.9
10732,83.86
10744,88.09
10756,89.0
10767,87.14
10778,83.32
10790,78.47
10802,73.54
10814,69.31
10826,66.24
10838,64.47
10850,63.93
10862,64.45
10874,65.88
10886,68.11
10898,71.0
10910,74.21
10922,77.11
10934,78.9
10946,78.81
10957,76.36
10968,71.57
10980,64.97
10992,57.39
11004,49.66
11016,42.31
11028,35.49
11040,28.92
11052,22.17
11064,14.89
11076,7.04
11088,-1.15
11100,-9.21
11112,-16.65
11124,-23.15
11136,-28.67
11147,-33.47
11158,-38.09
11170,-43.31
11182,-49.97
11194,-58.65
11206,-69.27
11218,-80.76
11230,-91.06
11242,-97.49
11254,-97.56
11266,-89.84
11278,-74.47
11290,-53.17
11302,-28.58
11314,-3.56
11326,19.61
11337,39.5
11348,55.44
11360,67.24
11372,74.92
11384,78.63
11396,78.65
11408,75.52
11420,70.06
11432,63.29
11444,56.26
11456,49.91
11468,44.9
11480,41.54
11492,39.87
11504,39.72
11516,40.82
11527,42.91
11538,45.68
11550,48.82
11562,51.9
11574,54.46
11586,56.01
11598,56.16
11610,54.67
11622,51.55
11634,47.04
11646,41.56
11658,35.63
11670,29.73
11682,24.18
11694,19.07
11706,14.28
11717,9.51
11728,4.47
11740,-1.03
11752,-6.97
11764,-13.17
11776,-19.33
11788,-25.11
11800,-30.32
11812,-34.94
11824,-39.12
11836,-43.21
11848,-47.7
11860,-53.21
11872,-60.29
11884,-69.19
11896,-79.53
11907,-90.06
11918,-98.69
11930,-102.97
11942,-100.74
11954,-90.93
11966,-73.95
11978,-51.6
11990,-26.48
12002,-1.33
12014,21.7
12026,41.23
12038,56.6
12050,67.6
12062,74.24
12074,76.68
12086,75.22
12097,70.5
12108,63.45
12120,55.2
12132,46.97
12144,39.77
12156,34.27
12168,30.73
12180,29.12
12192,29.26
12204,30.94
12216,33.95
12228,38.05
12240,42.75
12252,47.31
12264,50.86
12276,52.58
12287,52.06
12298,49.38
12310,45.11
12322,40.03
12334,34.84
12346,29.93
12358,25.29
12370,20.67
12382,15.74
12394,10.37
12406,4.66
12418,-1.07
12430,-6.45
12442,-11.22
12454,-15.44
12466,-19.43
12477,-23.69
12488,-28.63
12500,-34.39
12512,-40.75
12524,-47.23
12536,-53.26
12548,-58.49
12560,-62.87
12572,-66.72
12584,-70.62
12596,-75.34
12608,-81.63
12620,-89.96
12632,-100.22
12644,-111.31
12656,-121.06
12667,-126.67
12678,-125.43
12690,-115.68
12702,-97.51
12714,-72.75
12726,-44.38
12738,-15.64
12750,10.92
12762,33.7
12774,52.08
12786,66.01
12798,75.65
12810,81.28
12822,83.23
12834,82.06
12846,78.48
12857,73.3
12868,67.35
12880,61.35
12892,55.99
12904,51.83
12916,49.31
12928,48.63
12940,49.74
12952,52.36
12964,56.03
12976,60.21
12988,64.36
13000,67.97
13012,70.55
13024,71.72
13036,71.19
13047,68.91
13058,65.1
13070,60.18
13082,54.66
13094,48.99
13106,43.46
13118,38.19
13130,33.16
13142,28.29
13154,23.44
13166,18.52
13178,13.43
13190,8.2
13202,2.94
13214,-2.11
13226,-6.72
13237,-10.77
13248,-14.37
13260,-17.87
13272,-21.71
13284,-26.29
13296,-31.72
13308,-37.86
13320,-44.32
13332,-50.71
13344,-56.69
13356,-62.12
13368,-67.12
13380,-72.02
13392,-77.38
13404,-83.88
13416,-92.06
13427,-102.01
13438,-112.91
13450,-122.9
13462,-129.32
13474,-129.4
13486,-121.29
13498,-104.74
13510,-81.3
13522,-53.82
13534,-25.57
13546,0.67
13558,23.15
13570,41.11
13582,54.51
13594,63.56
13606,68.51
13617,69.63
13628,67.33
13640,62.29
13652,55.42
13664,47.69
13676,40.06
13688,33.22
13700,27.65
13712,23.61
13724,21.21
13736,20.53
13748,21.61
13760,24.34
13772,28.4
13784,33.19
13796,37.93
13807,41.79
13818,44.18
13830,44.87
13842,43.98
13854,41.84
13866,38.82
13878,35.12
13890,30.77
13902,25.72
13914,19.94
13926,13.64
13938,7.15
13950,0.81
13962,-5.18
13974,-10.89
13986,-16.62
13997,-22.64
14008,-29.11
14020,-35.87
14032,-42.56
14044,-48.75
14056,-54.16
14068,-58.73
14080,-62.66
14092,-66.34
14104,-70.32
14116,-75.25
14128,-81.77
14140,-90.14
14152,-99.89
14164,-109.55
14176,-116.75
14187,-118.87
14198,-113.84
14210,-100.98
14222,-81.21
14234,-56.8
14246,-30.61
14258,-5.26
14270,17.3
14282,36.03
14294,50.49
14306,60.65
14318,66.65
14330,68.78
14342,67.49
14354,63.42
14366,57.45
14377,50.5
14388,43.54
14400,37.32
14412,32.39
14424,29.02
14436,27.31
14448,27.17
14460,28.47
14472,31.0
14484,34.39
14496,38.18
14508,41.74
14520,44.48
14532,45.99
14544,46.1
14556,44.89
14567,42.56
14578,39.25
14590,35.04
14602,29.94
14614,24.03
14626,17.47
14638,10.59
14650,3.8
14662,-2.56
14674,-8.31
14686,-13.47
14698,-18.25
14710,-22.95
14722,-27.82
14734,-33.04
14746,-38.61
14757,-44.42
14768,-50.25
14780,-55.91
14792,-61.32
14804,-66.64
14816,-72.24
14828,-78.69
14840,-86.56
14852,-96.08
14864,-106.75
14876,-117.12
14888,-124.96
14900,-127.74
14912,-123.47
14924,-111.34
14936,-92.06
14947,-67.66
14958,-40.81
14970,-14.16
14982,10.25
14994,31.11
15006,47.76
15018,59.93
15030,67.67
15042,71.22
15054,71.06
15066,67.92
15078,62.68
15090,56.28
15102,49.6
15114,43.49
15126,38.59
15137,35.4
15148,34.18
15160,34.91
15172,37.39
15184,41.2
15196,45.86
15208,50.75
15220,55.22
15232,58.61
15244,60.4
15256,60.34
15268,58.46
15280,55.13
15292,50.81
15304,45.99
15316,40.95
15327,35.74
15338,30.32
15350,24.62
15362,18.67
15374,12.68
15386,6.89
15398,1.52
15410,-3.38
15422,-7.9
15434,-12.32
15446,-16.91
15458,-21.84
15470,-27.12
15482,-32.58
15494,-37.89
15506,-42.73
15517,-46.93
15528,-50.58
15540,-54.16
15552,-58.44
15564,-64.29
15576,-72.28
15588,-82.17
15600,-92.62
15612,-101.34
15624,-105.58
15636,-103.04
15648,-92.59
15660,-74.74
15672,-51.41
15684,-25.35
15696,0.64
15707,24.34
15718,44.36
15730,60.07
15742,71.31
15754,78.24
15766,81.17
15778,80.62
15790,77.25
15802,71.86
15814,65.3
15826,58.38
15838,51.83
15850,46.26
15862,42.18
15874,39.95
15886,39.74
15897,41.45
15908,44.76
15920,49.06
15932,53.64
15944,57.79
15956,60.96
15968,62.78
15980,63.13
15992,62.06
16004,59.75
16016,56.44
16028,52.36
16040,47.68
16052,42.5
16064,36.81
16076,30.58
16087,23.89
16098,16.95
16110,10.07
16122,3.56
16134,-2.4
16146,-7.85
16158,-13.03
16170,-18.21
16182,-23.6
16194,-29.15
16206,-34.66
16218,-39.85
16230,-44.5
16242,-48.67
16254,-52.64
16266,-56.95
16277,-62.28
16288,-69.28
16300,-78.23
16312,-88.82
16324,-99.79
16336,-109.07
16348,-114.15
16360,-112.8
16372,-103.85
16384,-87.6
16396,-65.83
16408,-41.18
16420,-16.47
16432,6.07
16444,25.1
16456,40.05
16467,50.82
16478,57.43
16490,59.9
16502,58.33
16514,53.19
16526,45.38
16538,36.2
16550,27.08
16562,19.29
16574,13.66
16586,10.48
16598,9.61
16610,10.59
16622,12.87
16634,15.88
16646,19.14
16657,22.2
16668,24.68
16680,26.24
16692,26.53
16704,25.28
16716,22.3
16728,17.59
16740,11.43
16752,4.31
16764,-3.13
16776,-10.29
16788,-16.79
16800,-22.53
16812,-27.67
16824,-32.56
16836,-37.55
16847,-42.81
16858,-48.25
16870,-53.51
16882,-58.12
16894,-61.7
16906,-64.09
16918,-65.51
16930,-66.48
16942,-67.73
16954,-70.05
16966,-74.05
16978,-79.93
16990,-87.23
17002,-94.67
17014,-100.26
17026,-101.68
17037,-96.97
17048,-85.21
17060,-66.83
17072,-43.58
17084,-18.05
17096,7.17
17108,29.9
17120,48.81
17132,63.26
17144,73.16
17156,78.69
17168,80.22
17180,78.31
17192,73.7
17204,67.39
17216,60.46
17227,53.98
17238,48.85
17250,45.72
17262,44.96
17274,46.72
17286,50.95
17298,57.46
17310,65.74
17322,74.96
17334,84.04
17346,91.82
17358,97.36
17370,100.18
17382,100.38
17394,98.49
17406,95.27
17417,91.43
17428,87.51
17440,83.84
17452,80.6
17464,77.85
17476,75.51
17488,73.3
17500,70.64
17512,66.77
17524,60.91
17536,52.54
17548,41.66
17560,28.83
17572,15.02
17584,1.3
17596,-11.49
17607,-22.99
17618,-33.36
17630,-43.09
17642,-52.85
17654,-63.27
17666,-74.81
17678,-87.66
17690,-101.49
17702,-115.22
17714,-126.99
17726,-134.41
17738,-135.17
17750,-127.89
17762,-112.58
17774,-90.86
17786,-65.46
17797,-39.46
17808,-15.52
17820,4.54
17832,19.86
17844,30.29
17856,36.13
17868,37.91
17880,36.32
17892,32.2
17904,26.45
17916,19.95
17928,13.5
17940,7.81
17952,3.5
17964,1.05
17976,0.84
17987,3.01
17998,7.44
18010,13.74
18022,21.27
18034,29.29
18046,37.04
18058,43.81
18070,48.93
18082,51.88
18094,52.33
18106,50.25
18118,45.95
18130,40.08
18142,33.45
18154,26.79
18166,20.57
18177,14.83
18188,9.32
18200,3.62
18212,-2.46
18224,-8.82
18236,-15.02
18248,-20.51
18260,-24.89
18272,-28.1
18284,-30.5
18296,-32.7
18308,-35.4
18320,-39.17
18332,-44.38
18344,-51.17
18356,-59.35
18367,-68.29
18378,-76.79
18390,-83.15
18402,-85.51
18414,-82.31
18426,-72.93
18438,-57.92
18450,-38.9
18462,-18.11
18474,2.25
18486,20.53
18498,35.76
18510,47.57
18522,55.89
18534,60.74
18546,62.17
18557,60.4
18568,55.9
18580,49.45
18592,42.01
18604,34.6
18616,28.1
18628,23.14
18640,20.09
18652,19.07
18664,19.96
18676,22.45
18688,26.13
18700,30.54
18712,35.22
18724,39.61
18736,43.19
18747,45.38
18758,45.7
18770,43.91
18782,40.11
18794,34.91
18806,29.14
18818,23.7
18830,19.19
18842,15.7
18854,12.79
18866,9.72
18878,5.77
18890,0.56
18902,-5.77
18914,-12.7
18926,-19.53
18937,-25.69
18948,-30.94
18960,-35.39
18972,-39.4
18984,-43.51
18996,-48.34
19008,-54.38
19020,-61.84
19032,-70.26
19044,-78.4
19056,-84.31
19068,-85.84
19080,-81.35
19092,-70.33
19104,-53.66
19116,-33.3
19127,-11.73
19138,8.8
19150,26.67
19162,40.98
19174,51.4
19186,57.84
19198,60.35
19210,59.13
19222,54.55
19234,47.35
19246,38.53
19258,29.29
19270,20.81
19282,14.01
19294,9.42
19306,7.12
19317,6.83
19328,8.07
19340,10.27
19352,12.86
19364,15.3
19376,17.15
19388,18.02
19400,17.63
19412,15.89
19424,12.92
19436,9.02
19448,4.6
19460,-0.0
19472,-4.63
19484,-9.31
19496,-14.21
19507,-19.49
19518,-25.08
19530,-30.68
19542,-35.81
19554,-40.01
19566,-43.13
19578,-45.42
19590,-47.56
19602,-50.48
19614,-55.05
19626,-61.75
19638,-70.33
19650,-79.72
19662,-88.03
19674,-93.02
19686,-92.66
19697,-85.78
19708,-72.47
19720,-54.09
19732,-32.85
19744,-11.16
19756,8.86
19768,25.89
19780,39.33
19792,49.17
19804,55.76
19816,59.49
19828,60.82
19840,60.21
19852,58.19
19864,55.38
19876,52.54
19887,50.39
19898,49.54
19910,50.3
19922,52.63
19934,56.18
19946,60.37
19958,64.61
19970,68.34
19982,71.09
19994,72.44
20006,72.09
20018,69.83
20030,65.66
20042,59.83
20054,52.81
20066,45.23
20077,37.76
20088,30.9
20100,24.97
20112,19.98
20124,15.72
20136,11.8
20148,7.78
20160,3.25
20172,-1.95
20184,-7.74
20196,-13.82
20208,-19.75
20220,-25.2
20232,-30.06
20244,-34.56
20256,-39.22
20267,-44.66
20278,-51.5
20290,-60.05
20302,-70.2
20314,-81.15
20326,-91.48
20338,-99.23
20350,-102.41
20362,-99.56
20374,-90.22
20386,-75.15
20398,-56.13
20410,-35.41
20422,-15.11
20434,3.21
20446,18.72
20457,31.11
20468,40.36
20480,46.5
20492,49.63
20504,49.98
20516,48.04
20528,44.58
20540,40.48
20552,36.58
20564,33.48
20576,31.5
20588,30.71
20600,31.05
20612,32.4
20624,34.56
20636,37.29
20647,40.25
20658,43.05
20670,45.31
20682,46.78
20694,47.39
20706,47.18
20718,46.23
20730,44.67
20742,42.6
20754,40.16
20766,37.52
20778,34.82
20790,32.13
20802,29.41
20814,26.57
20826,23.53
20837,20.33
20848,17.18
20860,14.38
20872,12.21
20884,10.72
20896,9.73
20908,8.79
20920,7.42
20932,5.31
20944,2.41
20956,-1.04
20968,-4.62
20980,-7.95
20992,-10.83
