seconds,BVP
5,-36.64
17,-35.56
29,-33.33
41,-30.21
53,-26.58
65,-22.81
77,-19.26
89,-16.21
101,-13.87
112,-12.3
123,-11.37
135,-10.88
147,-10.55
159,-10.14
171,-9.38
183,-8.26
195,-7.09
207,-6.4
219,-6.74
231,-8.25
243,-10.68
255,-13.41
267,-15.79
279,-17.2
291,-17.55
302,-17.39
313,-17.64
325,-19.22
337,-22.59
349,-27.73
361,-34.08
373,-40.48
385,-44.94
397,-45.39
409,-40.44
421,-30.03
433,-15.62
445,0.35
457,15.16
469,27.02
481,34.55
492,38.37
503,40.97
515,44.93
527,51.77
539,60.8
551,70.85
563,81.15
575,91.61
587,101.32
599,109.6
611,115.47
623,117.66
635,115.05
647,107.17
659,94.5
671,78.17
682,59.52
693,39.68
705,19.82
717,0.96
729,-15.92
741,-29.67
753,-39.14
765,-43.47
777,-42.68
789,-37.68
801,-29.95
813,-20.63
825,-10.38
837,0.27
849,10.49
861,18.76
872,23.21
883,22.47
895,16.47
907,6.89
919,-3.36
931,-11.54
943,-16.31
955,-18.16
967,-18.74
979,-19.83
991,-22.4
1003,-26.38
1015,-31.11
1027,-35.9
1039,-40.49
1051,-45.05
1062,-49.85
1073,-54.89
1085,-59.82
1097,-64.07
1109,-67.15
1121,-68.87
1133,-69.28
1145,-68.66
1157,-67.33
1169,-65.53
1181,-63.4
1193,-61.03
1205,-58.43
1217,-55.57
1229,-52.47
1241,-49.16
1252,-45.82
1263,-42.7
1275,-40.02
1287,-37.87
1299,-36.13
1311,-34.51
1323,-32.71
1335,-30.57
1347,-28.14
1359,-25.63
1371,-23.33
1383,-21.41
1395,-19.96
1407,-18.93
1419,-18.2
1431,-17.63
1442,-17.03
1453,-16.24
1465,-15.12
1477,-13.72
1489,-12.28
1501,-11.16
1513,-10.73
1525,-11.14
1537,-12.22
1549,-13.51
1561,-14.45
1573,-14.6
1585,-13.81
1597,-12.19
1609,-10.06
1621,-7.8
1632,-5.72
1643,-4.02
1655,-2.8
1667,-2.03
1679,-1.53
1691,-1.06
1703,-0.34
1715,0.79
1727,2.3
1739,4.02
1751,5.72
1763,7.22
1775,8.51
1787,9.65
1799,10.71
1811,11.66
1822,12.33
1833,12.52
1845,12.12
1857,11.22
1869,10.07
1881,8.96
1893,8.1
1905,7.49
1917,6.98
1929,6.34
1941,5.41
1953,4.2
1965,2.81
1977,1.43
1989,0.2
2001,-0.87
2012,-1.85
2023,-2.82
2035,-3.77
2047,-4.59
2059,-5.09
2071,-5.11
2083,-4.59
2095,-3.55
2107,-2.06
2119,-0.22
2131,1.88
2143,4.09
2155,6.19
2167,7.88
2179,8.95
2191,9.28
2202,8.96
2213,8.26
2225,7.48
2237,6.89
2249,6.56
2261,6.43
2273,6.36
2285,6.23
2297,6.0
2309,5.67
2321,5.29
2333,4.83
2345,4.27
2357,3.59
2369,2.79
2381,1.96
2392,1.19
2403,0.53
2415,-0.08
2427,-0.75
2439,-1.67
2451,-2.91
2463,-4.41
2475,-5.91
2487,-7.07
2499,-7.48
2511,-6.88
2523,-5.22
2535,-2.66
2547,0.47
2559,3.75
2571,6.81
2582,9.35
2593,11.24
2605,12.42
2617,12.9
2629,12.68
2641,11.84
2653,10.47
2665,8.76
2677,6.99
2689,5.41
2701,4.2
2713,3.36
2725,2.8
2737,2.32
2749,1.76
2761,1.05
2772,0.25
2783,-0.54
2795,-1.25
2807,-1.88
2819,-2.53
2831,-3.27
2843,-4.2
2855,-5.27
2867,-6.39
2879,-7.4
2891,-8.14
2903,-8.53
2915,-8.55
2927,-8.17
2939,-7.36
2951,-6.04
2962,-4.12
2973,-1.56
2985,1.56
2997,5.02
3009,8.54
3021,11.87
3033,14.84
3045,17.4
3057,19.57
3069,21.31
3081,22.46
3093,22.84
3105,22.29
3117,20.86
3129,18.82
3141,16.61
3152,14.67
3163,13.2
3175,12.12
3187,11.12
3199,9.81
3211,8.02
3223,5.8
3235,3.44
3247,1.27
3259,-0.53
3271,-1.98
3283,-3.27
3295,-4.62
3307,-6.14
3319,-7.81
3331,-9.52
3342,-11.13
3353,-12.53
3365,-13.6
3377,-14.22
3389,-14.23
3401,-13.5
3413,-11.95
3425,-9.68
3437,-6.93
3449,-4.04
3461,-1.31
3473,1.08
3485,3.08
3497,4.73
3509,6.04
3521,6.97
3532,7.39
3543,7.21
3555,6.45
3567,5.3
3579,4.0
3591,2.81
3603,1.8
3615,0.88
3627,-0.15
3639,-1.47
3651,-3.1
3663,-4.96
3675,-6.81
3687,-8.47
3699,-9.81
3711,-10.84
3722,-11.63
3733,-12.32
3745,-13.01
3757,-13.79
3769,-14.6
3781,-15.33
3793,-15.79
3805,-15.74
3817,-14.97
3829,-13.37
3841,-10.96
3853,-7.93
3865,-4.58
3877,-1.21
3889,1.95
3901,4.85
3912,7.52
3923,9.99
3935,12.26
3947,14.21
3959,15.68
3971,16.57
3983,16.92
3995,16.88
4007,16.65
4019,16.34
4031,15.91
4043,15.24
4055,14.25
4067,12.93
4079,11.38
4091,9.73
4102,8.04
4113,6.26
4125,4.3
4137,2.11
4149,-0.3
4161,-2.79
4173,-5.22
4185,-7.47
4197,-9.38
4209,-10.81
4221,-11.54
4233,-11.38
4245,-10.25
4257,-8.24
4269,-5.59
4281,-2.63
4292,0.39
4303,3.31
4315,6.0
4327,8.33
4339,10.13
4351,11.19
4363,11.47
4375,11.12
4387,10.45
4399,9.8
4411,9.4
4423,9.28
4435,9.32
4447,9.33
4459,9.16
4471,8.77
4482,8.16
4493,7.36
4505,6.4
4517,5.27
4529,3.94
4541,2.43
4553,0.76
4565,-1.04
4577,-2.91
4589,-4.71
4601,-6.25
4613,-7.29
4625,-7.6
4637,-7.07
4649,-5.75
4661,-3.82
4672,-1.54
4683,0.91
4695,3.43
4707,5.99
4719,8.53
4731,10.92
4743,12.9
4755,14.25
4767,14.89
4779,14.98
4791,14.79
4803,14.62
4815,14.61
4827,14.73
4839,14.8
4851,14.66
4862,14.27
4873,13.68
4885,12.93
4897,12.04
4909,10.94
4921,9.6
4933,8.04
4945,6.33
4957,4.53
4969,2.67
4981,0.71
4993,-1.43
5005,-3.7
5017,-5.93
5029,-7.8
5041,-8.96
5052,-9.17
5063,-8.41
5075,-6.79
5087,-4.59
5099,-2.08
5111,0.53
5123,3.13
5135,5.66
5147,8.06
5159,10.18
5171,11.79
5183,12.65
5195,12.63
5207,11.82
5219,10.49
5231,9.01
5242,7.73
5253,6.89
5265,6.63
5277,7.03
5289,8.13
5301,9.91
5313,12.19
5325,14.65
5337,16.9
5349,18.59
5361,19.54
5373,19.74
5385,19.24
5397,18.04
5409,16.11
5421,13.39
5432,9.98
5443,6.18
5455,2.42
5467,-0.86
5479,-3.35
5491,-4.99
5503,-5.88
5515,-6.15
5527,-5.95
5539,-5.36
5551,-4.42
5563,-3.16
5575,-1.61
5587,0.16
5599,2.04
5611,3.87
5622,5.41
5633,6.47
5645,6.91
5657,6.78
5669,6.24
5681,5.54
5693,4.92
5705,4.47
5717,4.17
5729,3.96
5741,3.79
5753,3.67
5765,3.69
5777,3.84
5789,4.07
5801,4.25
5812,4.22
5823,3.86
5835,3.19
5847,2.31
5859,1.35
5871,0.39
5883,-0.56
5895,-1.55
5907,-2.67
5919,-3.99
5931,-5.5
5943,-7.15
5955,-8.85
5967,-10.44
5979,-11.84
5991,-13.0
6002,-13.93
6013,-14.7
6025,-15.48
6037,-16.4
6049,-17.6
6061,-19.13
6073,-20.86
6085,-22.58
6097,-23.94
6109,-24.56
6121,-24.17
6133,-22.7
6145,-20.27
6157,-17.21
6169,-13.9
6181,-10.69
6192,-7.8
6203,-5.3
6215,-3.14
6227,-1.25
6239,0.38
6251,1.75
6263,2.84
6275,3.66
6287,4.26
6299,4.71
6311,5.09
6323,5.39
6335,5.6
6347,5.69
6359,5.65
6371,5.53
6382,5.39
6393,5.32
6405,5.33
6417,5.43
6429,5.53
6441,5.55
6453,5.44
6465,5.17
6477,4.7
6489,4.03
6501,3.11
6513,1.95
6525,0.58
6537,-0.9
6549,-2.38
6561,-3.75
6572,-4.94
6583,-5.93
6595,-6.69
6607,-7.16
6619,-7.23
6631,-6.75
6643,-5.61
6655,-3.79
6667,-1.4
6679,1.38
6691,4.31
6703,7.26
6715,10.13
6727,12.85
6739,15.39
6751,17.67
6762,19.57
6773,20.96
6785,21.71
6797,21.77
6809,21.17
6821,20.03
6833,18.51
6845,16.78
6857,14.99
6869,13.25
6881,11.54
6893,9.82
6905,8.04
6917,6.19
6929,4.31
6941,2.47
6952,0.71
6963,-0.95
6975,-2.48
6987,-3.91
6999,-5.29
7011,-6.7
7023,-8.17
7035,-9.66
7047,-11.02
7059,-12.04
7071,-12.39
7083,-11.87
7095,-10.46
7107,-8.38
7119,-5.93
7131,-3.38
7142,-0.87
7153,1.55
7165,3.85
7177,6.23
7189,8.83
7201,11.61
7213,14.37
7225,16.77
7237,18.55
7249,19.56
7261,19.72
7273,19.04
7285,18.13
7297,17.67
7309,18.04
7321,19.22
7332,20.8
7343,22.29
7355,23.32
7367,23.66
7379,23.16
7391,22.57
7403,22.64
7415,23.69
7427,25.54
7439,27.58
7451,29.37
7463,30.76
7475,31.8
7487,32.49
7499,34.04
7511,37.62
7522,44.01
7533,53.44
7545,65.48
7557,79.79
7569,96.4
7581,115.66
7593,130.11
7605,133.69
7617,123.51
7629,101.78
7641,73.78
7653,43.93
7665,14.76
7677,-12.32
7689,-36.23
7701,-56.04
7712,-70.08
7723,-76.84
7735,-77.11
7747,-72.53
7759,-65.89
7771,-60.3
7783,-58.49
7795,-62.24
7807,-71.78
7819,-84.58
7831,-96.86
7843,-104.96
7855,-105.2
7867,-96.68
7879,-81.13
7891,-62.11
7902,-44.04
7913,-30.94
7925,-24.2
7937,-24.45
7949,-30.26
7961,-38.17
7973,-44.52
7985,-46.58
7997,-43.1
8009,-34.6
8021,-22.73
8033,-9.44
8045,3.15
8057,13.27
8069,19.25
8081,20.41
8092,16.59
8103,8.75
8115,-1.48
8127,-11.92
8139,-20.76
8151,-27.35
8163,-32.12
8175,-36.3
8187,-41.35
8199,-48.4
8211,-55.02
8223,-59.25
8235,-59.22
8247,-53.88
8259,-43.29
8271,-28.42
8282,-10.81
8293,7.69
8305,25.27
8317,40.65
8329,52.76
8341,61.36
8353,67.07
8365,70.35
8377,71.71
8389,71.31
8401,69.07
8413,64.7
8425,58.33
8437,50.28
8449,41.34
8461,32.37
8472,23.92
8483,16.17
8495,9.07
8507,2.44
8519,-3.76
8531,-9.39
8543,-14.44
8555,-18.97
8567,-23.1
8579,-27.08
8591,-31.01
8603,-34.76
8615,-38.03
8627,-40.4
8639,-41.48
8651,-41.21
8662,-39.81
8673,-37.72
8685,-35.55
8697,-33.78
8709,-32.67
8721,-32.21
8733,-32.19
8745,-32.24
8757,-32.0
8769,-31.16
8781,-29.45
8793,-26.76
8805,-23.17
8817,-18.94
8829,-14.46
8841,-10.09
8852,-6.07
8863,-2.47
8875,0.75
8887,3.62
8899,6.07
8911,7.98
8923,9.23
8935,9.75
8947,9.65
8959,9.1
8971,8.33
8983,7.53
8995,6.81
9007,6.23
9019,5.71
9031,5.18
9042,4.53
9053,3.7
9065,2.72
9077,1.69
9089,0.64
9101,-0.44
9113,-1.71
9125,-3.29
9137,-5.2
9149,-7.25
9161,-9.07
9173,-10.29
9185,-10.71
9197,-10.29
9209,-9.21
9221,-7.62
9232,-5.58
9243,-3.09
9255,-0.14
9267,3.13
9279,6.44
9291,9.4
9303,11.62
9315,12.9
9327,13.28
9339,13.01
9351,12.49
9363,12.08
9375,11.94
9387,12.03
9399,12.0
9411,11.51
9422,10.35
9433,8.67
9445,6.89
9457,5.54
9469,4.95
9481,5.15
9493,5.74
9505,6.0
9517,5.29
9529,3.32
9541,0.4
9553,-2.79
9565,-5.47
9577,-7.12
9589,-7.57
9601,-7.14
9612,-6.7
9623,-7.2
9635,-9.21
9647,-12.62
9659,-16.62
9671,-19.94
9683,-21.37
9695,-20.13
9707,-16.57
9719,-12.7
9731,-11.44
9743,-15.57
9755,-26.42
9767,-43.15
9779,-62.76
9791,-81.19
9802,-94.32
9813,-99.53
9825,-96.71
9837,-87.65
9849,-75.44
9861,-63.46
9873,-54.97
9885,-52.55
9897,-57.91
9909,-71.02
9921,-85.55
9933,-93.78
9945,-89.79
9957,-73.48
9969,-49.48
9981,-23.05
9992,3.23
10003,27.97
10015,53.9
10027,81.8
10039,109.12
10051,131.43
10063,144.53
10075,146.73
10087,136.42
10099,116.26
10111,91.66
10123,69.0
10135,53.13
10147,45.93
10159,46.34
10171,51.34
10182,57.43
10193,61.79
10205,63.32
10217,62.65
10229,61.42
10241,61.07
10253,62.32
10265,65.42
10277,70.64
10289,78.26
10301,87.81
10313,94.35
10325,91.49
10337,74.28
10349,42.88
10361,3.12
10372,-36.02
10383,-65.64
10395,-79.93
10407,-78.1
10419,-64.16
10431,-44.68
10443,-26.44
10455,-14.22
10467,-9.93
10479,-12.95
10491,-21.1
10503,-31.88
10515,-43.22
10527,-54.43
10539,-63.79
10551,-69.4
10562,-69.84
10573,-64.82
10585,-55.46
10597,-43.9
10609,-32.65
10621,-23.81
10633,-18.4
10645,-15.9
10657,-14.83
10669,-13.5
10681,-10.85
10693,-6.82
10705,-2.26
10717,1.52
10729,3.28
10741,2.68
10752,0.17
10763,-3.27
10775,-6.49
10787,-8.69
10799,-9.53
10811,-9.1
10823,-7.72
10835,-5.71
10847,-3.29
10859,-0.56
10871,2.43
10883,5.54
10895,8.56
10907,11.28
10919,13.49
10931,15.05
10942,15.87
10953,15.96
10965,15.44
10977,14.61
10989,13.84
11001,13.4
11013,13.32
11025,13.31
11037,12.91
11049,11.73
11061,9.75
11073,7.42
11085,5.44
11097,4.48
11109,4.74
11121,5.95
11132,7.44
11143,8.51
11155,8.75
11167,8.15
11179,6.98
11191,5.61
11203,4.27
11215,2.97
11227,1.6
11239,0.03
11251,-1.76
11263,-3.7
11275,-5.71
11287,-7.79
11299,-10.0
11311,-12.42
11322,-15.0
11333,-17.47
11345,-19.35
11357,-20.13
11369,-19.46
11381,-17.28
11393,-13.9
11405,-9.8
11417,-5.49
11429,-1.41
11441,2.19
11453,5.16
11465,7.46
11477,9.1
11489,10.12
11501,10.61
11512,10.68
11523,10.46
11535,10.05
11547,9.48
11559,8.75
11571,7.85
11583,6.82
11595,5.72
11607,4.63
11619,3.6
11631,2.63
11643,1.68
11655,0.72
11667,-0.29
11679,-1.29
11691,-2.27
11702,-3.21
11713,-4.12
11725,-5.05
11737,-5.99
11749,-6.94
11761,-7.87
11773,-8.77
11785,-9.71
11797,-10.75
11809,-12.02
11821,-13.51
11833,-15.2
11845,-16.88
11857,-18.34
11869,-19.29
11881,-19.46
11892,-18.68
11903,-16.86
11915,-14.08
11927,-10.57
11939,-6.66
11951,-2.68
11963,1.05
11975,4.32
11987,7.01
11999,9.09
12011,10.57
12023,11.47
12035,11.82
12047,11.65
12059,11.08
12071,10.32
12082,9.55
12093,8.95
12105,8.5
12117,8.12
12129,7.61
12141,6.88
12153,5.92
12165,4.83
12177,3.79
12189,2.86
12201,2.05
12213,1.24
12225,0.32
12237,-0.76
12249,-1.98
12261,-3.21
12272,-4.37
12283,-5.35
12295,-6.14
12307,-6.83
12319,-7.62
12331,-8.7
12343,-10.22
12355,-12.03
12367,-13.76
12379,-14.85
12391,-14.84
12403,-13.51
12415,-11.01
12427,-7.77
12439,-4.25
12451,-0.83
12462,2.33
12473,5.16
12485,7.59
12497,9.45
12509,10.55
12521,10.78
12533,10.24
12545,9.25
12557,8.21
12569,7.46
12581,7.13
12593,7.14
12605,7.22
12617,7.17
12629,6.88
12641,6.42
12652,5.92
12663,5.47
12675,5.05
12687,4.56
12699,3.88
12711,2.98
12723,1.95
12735,0.96
12747,0.13
12759,-0.52
12771,-1.13
12783,-1.89
12795,-2.97
12807,-4.41
12819,-6.09
12831,-7.72
12842,-8.97
12853,-9.53
12865,-9.2
12877,-7.97
12889,-6.0
12901,-3.54
12913,-0.87
12925,1.8
12937,4.35
12949,6.66
12961,8.62
12973,10.01
12985,10.62
12997,10.36
13009,9.36
13021,8.0
13032,6.72
13043,5.9
13055,5.62
13067,5.65
13079,5.63
13091,5.22
13103,4.29
13115,2.99
13127,1.58
13139,0.23
13151,-1.03
13163,-2.37
13175,-3.98
13187,-5.94
13199,-8.15
13211,-10.38
13222,-12.41
13233,-14.11
13245,-15.46
13257,-16.47
13269,-17.09
13281,-17.23
13293,-16.69
13305,-15.3
13317,-13.03
13329,-10.02
13341,-6.56
13353,-3.05
13365,0.15
13377,2.73
13389,4.53
13401,5.53
13412,5.85
13423,5.72
13435,5.37
13447,4.95
13459,4.52
13471,4.0
13483,3.26
13495,2.23
13507,1.0
13519,-0.22
13531,-1.2
13543,-1.79
13555,-2.06
13567,-2.2
13579,-2.46
13591,-3.0
13602,-3.86
13613,-5.0
13625,-6.39
13637,-7.98
13649,-9.66
13661,-11.16
13673,-12.07
13685,-11.94
13697,-10.45
13709,-7.63
13721,-3.84
13733,0.31
13745,4.2
13757,7.47
13769,9.98
13781,11.87
13792,13.35
13803,14.52
13815,15.39
13827,15.9
13839,15.97
13851,15.6
13863,14.89
13875,14.01
13887,13.13
13899,12.36
13911,11.68
13923,11.01
13935,10.2
13947,9.14
13959,7.72
13971,5.93
13982,3.83
13993,1.46
14005,-1.09
14017,-3.77
14029,-6.45
14041,-8.9
14053,-10.77
14065,-11.67
14077,-11.27
14089,-9.48
14101,-6.5
14113,-2.81
14125,1.0
14137,4.46
14149,7.34
14161,9.68
14172,11.68
14183,13.47
14195,15.0
14207,16.11
14219,16.59
14231,16.38
14243,15.57
14255,14.41
14267,13.13
14279,11.94
14291,10.85
14303,9.82
14315,8.78
14327,7.68
14339,6.52
14351,5.3
14362,4.01
14373,2.57
14385,0.91
14397,-1.04
14409,-3.23
14421,-5.49
14433,-7.52
14445,-8.91
14457,-9.32
14469,-8.54
14481,-6.66
14493,-3.94
14505,-0.82
14517,2.31
14529,5.18
14541,7.63
14552,9.63
14563,11.19
14575,12.3
14587,12.99
14599,13.23
14611,13.01
14623,12.32
14635,11.18
14647,9.65
14659,7.86
14671,5.96
14683,4.06
14695,2.21
14707,0.37
14719,-1.59
14731,-3.72
14742,-6.01
14753,-8.34
14765,-10.63
14777,-12.89
14789,-15.25
14801,-17.88
14813,-20.83
14825,-23.9
14837,-26.68
14849,-28.7
14861,-29.68
14873,-29.64
14885,-28.91
14897,-27.95
14909,-27.19
14921,-26.89
14932,-27.16
14943,-27.93
14955,-29.17
14967,-30.88
14979,-33.19
14991,-36.28
15003,-40.36
15015,-45.59
15027,-51.96
15039,-59.23
15051,-67.0
15063,-74.76
15075,-82.07
15087,-88.65
15099,-94.4
15111,-99.39
15122,-103.88
15133,-108.26
15145,-112.97
15157,-118.24
15169,-123.75
15181,-128.24
15193,-129.47
15205,-124.59
15217,-110.96
15229,-86.95
15241,-52.74
15253,-10.34
15265,36.81
15277,84.64
15289,129.28
15301,167.63
15312,197.65
15323,218.39
15335,230.07
15347,234.12
15359,233.17
15371,230.58
15383,229.65
15395,232.66
15407,239.99
15419,249.97
15431,259.48
15443,265.05
15455,264.21
15467,256.35
15479,242.98
15491,227.23
15502,212.85
15513,202.96
15525,198.91
15537,199.68
15549,201.93
15561,200.92
15573,191.82
15585,171.19
15597,138.01
15609,94.0
15621,43.27
15633,-8.5
15645,-55.19
15657,-91.37
15669,-113.42
15681,-120.35
15692,-114.12
15703,-99.13
15715,-81.11
15727,-65.57
15739,-56.38
15751,-55.06
15763,-60.86
15775,-71.45
15787,-83.91
15799,-95.43
15811,-103.81
15823,-107.67
15835,-106.59
15847,-101.1
15859,-92.6
15871,-83.0
15882,-74.4
15893,-68.53
15905,-66.33
15917,-67.89
15929,-72.51
15941,-79.03
15953,-86.11
15965,-92.57
15977,-97.43
15989,-100.08
16001,-100.22
16013,-97.87
16025,-93.36
16037,-87.23
16049,-80.15
16061,-72.76
16072,-65.63
16083,-59.09
16095,-53.33
16107,-48.34
16119,-44.02
16131,-40.22
16143,-36.84
16155,-33.76
16167,-30.96
16179,-28.43
16191,-26.21
16203,-24.31
16215,-22.74
16227,-21.5
16239,-20.55
16251,-19.83
16262,-19.29
16273,-18.88
16285,-18.6
16297,-18.5
16309,-18.66
16321,-19.16
16333,-20.03
16345,-21.22
16357,-22.54
16369,-23.64
16381,-24.09
16393,-23.48
16405,-21.55
16417,-18.3
16429,-14.02
16441,-9.23
16452,-4.52
16463,-0.35
16475,3.1
16487,5.88
16499,8.2
16511,10.23
16523,12.03
16535,13.48
16547,14.46
16559,14.86
16571,14.7
16583,14.08
16595,13.17
16607,12.07
16619,10.91
16631,9.74
16642,8.62
16653,7.63
16665,6.81
16677,6.11
16689,5.38
16701,4.37
16713,2.83
16725,0.61
16737,-2.29
16749,-5.68
16761,-9.25
16773,-12.66
16785,-15.55
16797,-17.61
16809,-18.61
16821,-18.4
16832,-16.98
16843,-14.49
16855,-11.22
16867,-7.52
16879,-3.72
16891,-0.01
16903,3.48
16915,6.69
16927,9.49
16939,11.69
16951,13.14
16963,13.78
16975,13.76
16987,13.33
16999,12.81
17011,12.36
17022,12.02
17033,11.7
17045,11.25
17057,10.62
17069,9.83
17081,9.03
17093,8.3
17105,7.64
17117,7.01
17129,6.31
17141,5.54
17153,4.7
17165,3.82
17177,2.91
17189,2.01
17201,1.08
17212,0.06
17223,-1.14
17235,-2.47
17247,-3.95
17259,-5.55
17271,-7.25
17283,-8.94
17295,-10.48
17307,-11.75
17319,-12.82
17331,-13.87
17343,-14.98
17355,-16.28
17367,-17.88
17379,-19.79
17391,-21.78
17402,-23.39
17413,-24.17
17425,-24.09
17437,-23.33
17449,-21.88
17461,-19.94
17473,-17.76
17485,-15.5
17497,-13.07
17509,-10.12
17521,-6.46
17533,-2.64
17545,0.6
17557,3.04
17569,4.41
17581,4.3
17592,2.49
17603,-0.88
17615,-4.76
17627,-7.65
17639,-8.27
17651,-5.15
17663,3.48
17675,17.93
17687,36.61
17699,56.47
17711,74.22
17723,88.06
17735,97.82
17747,104.42
17759,103.82
17771,94.71
17782,78.82
17793,60.38
17805,43.59
17817,30.56
17829,21.75
17841,19.53
17853,20.93
17865,23.04
17877,24.79
17889,26.25
17901,28.6
17913,33.99
17925,42.31
17937,54.77
17949,71.71
17961,91.13
17972,109.62
17983,123.01
17995,126.6
18007,116.55
18019,91.5
18031,53.5
18043,8.53
18055,-35.79
18067,-72.84
18079,-98.14
18091,-110.11
18103,-110.31
18115,-102.15
18127,-89.26
18139,-74.83
18151,-60.64
18162,-47.97
18173,-38.25
18185,-32.47
18197,-30.99
18209,-33.58
18221,-39.63
18233,-46.7
18245,-52.5
18257,-54.81
18269,-52.11
18281,-43.99
18293,-31.14
18305,-15.39
18317,0.5
18329,13.95
18341,24.0
18352,31.03
18363,38.63
18375,50.24
18387,67.39
18399,88.91
18411,111.34
18423,130.39
18435,142.72
18447,147.13
18459,144.33
18471,135.38
18483,122.2
18495,106.54
18507,89.53
18519,71.63
18531,53.15
18542,34.56
18553,16.53
18565,-0.46
18577,-16.1
18589,-30.35
18601,-43.23
18613,-54.56
18625,-63.75
18637,-69.89
18649,-72.13
18661,-70.24
18673,-65.12
18685,-58.61
18697,-53.16
18709,-51.07
18721,-53.74
18732,-61.18
18743,-72.13
18755,-84.6
18767,-96.67
18779,-106.99
18791,-114.74
18803,-119.32
18815,-119.91
18827,-115.38
18839,-104.69
18851,-87.55
18863,-65.17
18875,-40.26
18887,-16.4
18899,3.15
18911,16.42
18922,23.16
18933,24.4
18945,21.74
18957,16.51
18969,9.5
18981,1.1
18993,-8.18
19005,-17.43
19017,-25.41
19029,-30.82
19041,-32.95
19053,-31.84
19065,-28.35
19077,-23.81
19089,-19.65
19101,-16.93
19112,-16.11
19123,-16.99
19135,-18.84
19147,-20.71
19159,-21.83
19171,-21.75
19183,-20.45
19195,-18.13
19207,-15.03
19219,-11.18
19231,-6.51
19243,-0.99
19255,5.09
19267,11.05
19279,16.03
19291,19.29
19302,20.66
19313,20.52
19325,19.71
19337,19.05
19349,19.02
19361,19.5
19373,19.96
19385,19.72
19397,18.34
19409,15.88
19421,12.91
19433,10.29
19445,8.82
19457,8.96
19469,10.46
19481,12.42
19492,13.31
19503,11.48
19515,5.66
19527,-4.5
19539,-18.08
19551,-33.12
19563,-47.06
19575,-57.57
19587,-63.2
19599,-63.6
19611,-59.49
19623,-52.06
19635,-42.63
19647,-32.25
19659,-21.68
19671,-11.51
19682,-2.25
19693,5.68
19705,12.07
19717,16.96
19729,20.68
19741,23.62
19753,26.12
19765,28.28
19777,30.0
19789,31.06
19801,31.35
19813,30.94
19825,30.12
19837,29.31
19849,28.83
19861,28.84
19872,29.17
19883,29.4
19895,28.98
19907,27.4
19919,24.41
19931,20.04
19943,14.63
19955,8.69
19967,2.76
19979,-2.69
19991,-7.39
20003,-11.19
20015,-14.07
20027,-16.05
20039,-17.17
20051,-17.5
20062,-17.09
20073,-16.05
20085,-14.55
20097,-12.83
20109,-11.28
20121,-10.28
20133,-10.12
20145,-10.88
20157,-12.27
20169,-13.83
20181,-15.02
20193,-15.47
20205,-15.18
20217,-14.42
20229,-13.66
20241,-13.36
20252,-13.77
20263,-14.84
20275,-16.24
20287,-17.5
20299,-18.09
20311,-17.68
20323,-16.27
20335,-14.17
20347,-11.91
20359,-9.98
20371,-8.64
20383,-7.75
20395,-6.81
20407,-5.16
20419,-2.24
20431,2.17
20442,7.77
20453,13.89
20465,19.64
20477,24.25
20489,27.33
20501,29.1
20513,30.11
20525,31.23
20537,33.25
20549,36.52
20561,40.78
20573,45.16
20585,48.28
20597,48.67
20609,45.09
20621,37.03
20632,25.19
20643,11.58
20655,-1.0
20667,-10.01
20679,-13.98
20691,-13.07
20703,-8.74
20715,-2.83
20727,3.14
20739,8.96
20751,15.58
20763,24.21
20775,35.16
20787,47.2
20799,57.62
20811,62.93
20822,59.91
20833,46.07
20845,21.85
20857,-9.11
20869,-41.02
20881,-67.85
20893,-85.11
20905,-90.94
20917,-86.28
20929,-74.13
20941,-59.68
20953,-46.63
20965,-36.43
20977,-29.2
20989,-25.18
