seconds,BVP
6,13.54
18,16.46
29,18.42
40,19.6
52,20.04
64,19.74
76,18.69
88,17.02
100,15.03
112,13.13
124,11.7
136,10.97
148,10.94
160,11.37
172,11.96
184,12.44
196,12.66
208,12.68
219,12.59
230,12.47
242,12.32
254,12.04
266,11.5
278,10.65
290,9.47
302,8.01
314,6.33
326,4.47
338,2.47
350,0.42
362,-1.56
374,-3.35
386,-4.85
398,-6.15
409,-7.37
420,-8.69
432,-10.2
444,-11.83
456,-13.41
468,-14.8
480,-15.92
492,-16.91
504,-17.96
516,-19.26
528,-20.96
540,-23.08
552,-25.57
564,-28.24
576,-30.75
588,-32.52
599,-32.87
610,-31.2
622,-27.2
634,-21.06
646,-13.41
658,-5.18
670,2.72
682,9.59
694,15.04
706,18.93
718,21.31
730,22.33
742,22.2
754,21.17
766,19.58
778,17.76
789,15.97
800,14.42
812,13.17
824,12.23
836,11.54
848,11.08
860,10.85
872,10.86
884,11.12
896,11.6
908,12.21
920,12.81
932,13.24
944,13.35
956,13.01
968,12.15
979,10.79
990,9.03
1002,7.07
1014,5.13
1026,3.38
1038,1.89
1050,0.56
1062,-0.74
1074,-2.13
1086,-3.67
1098,-5.32
1110,-7.03
1122,-8.74
1134,-10.41
1146,-12.07
1158,-13.66
1169,-15.2
1180,-16.65
1192,-18.04
1204,-19.45
1216,-21.03
1228,-22.91
1240,-25.13
1252,-27.53
1264,-29.72
1276,-31.13
1288,-31.12
1300,-29.19
1312,-25.15
1324,-19.25
1336,-12.06
1348,-4.4
1359,2.95
1370,9.4
1382,14.54
1394,18.21
1406,20.35
1418,20.97
1430,20.21
1442,18.37
1454,15.89
1466,13.34
1478,11.21
1490,9.77
1502,9.05
1514,8.84
1526,8.87
1538,8.93
1549,8.97
1560,9.05
1572,9.28
1584,9.68
1596,10.21
1608,10.71
1620,11.0
1632,10.92
1644,10.35
1656,9.28
1668,7.78
1680,6.05
1692,4.35
1704,2.88
1716,1.7
1728,0.68
1739,-0.41
1750,-1.82
1762,-3.58
1774,-5.54
1786,-7.39
1798,-8.86
1810,-9.87
1822,-10.57
1834,-11.25
1846,-12.23
1858,-13.68
1870,-15.63
1882,-18.03
1894,-20.66
1906,-23.21
1918,-25.21
1929,-26.09
1940,-25.33
1952,-22.63
1964,-18.04
1976,-11.99
1988,-5.16
2000,1.71
2012,7.92
2024,12.98
2036,16.64
2048,18.84
2060,19.72
2072,19.53
2084,18.57
2096,17.08
2108,15.31
2119,13.43
2130,11.63
2142,10.1
2154,8.98
2166,8.3
2178,8.01
2190,7.99
2202,8.15
2214,8.47
2226,8.99
2238,9.72
2250,10.54
2262,11.21
2274,11.44
2286,11.01
2298,9.86
2309,8.11
2320,6.04
2332,3.93
2344,2.01
2356,0.39
2368,-0.98
2380,-2.31
2392,-3.8
2404,-5.61
2416,-7.74
2428,-10.02
2440,-12.2
2452,-14.07
2464,-15.58
2476,-16.82
2488,-18.06
2499,-19.59
2510,-21.62
2522,-24.23
2534,-27.26
2546,-30.26
2558,-32.63
2570,-33.68
2582,-32.85
2594,-29.9
2606,-24.92
2618,-18.36
2630,-10.87
2642,-3.13
2654,4.23
2666,10.69
2678,15.91
2689,19.63
2700,21.77
2712,22.43
2724,21.86
2736,20.43
2748,18.58
2760,16.7
2772,15.12
2784,14.05
2796,13.54
2808,13.54
2820,13.85
2832,14.27
2844,14.58
2856,14.73
2868,14.73
2879,14.67
2890,14.62
2902,14.59
2914,14.52
2926,14.29
2938,13.81
2950,12.98
2962,11.82
2974,10.38
2986,8.76
2998,7.06
3010,5.36
3022,3.71
3034,2.11
3046,0.52
3058,-1.08
3069,-2.69
3080,-4.29
3092,-5.83
3104,-7.29
3116,-8.68
3128,-10.09
3140,-11.64
3152,-13.35
3164,-15.19
3176,-17.03
3188,-18.72
3200,-20.22
3212,-21.67
3224,-23.35
3236,-25.59
3248,-28.55
3259,-32.04
3270,-35.43
3282,-37.8
3294,-38.19
3306,-35.94
3318,-30.95
3330,-23.68
3342,-15.06
3354,-6.17
3366,2.09
3378,9.12
3390,14.71
3402,18.84
3414,21.61
3426,23.08
3438,23.36
3449,22.59
3460,21.06
3472,19.17
3484,17.32
3496,15.83
3508,14.88
3520,14.47
3532,14.51
3544,14.87
3556,15.46
3568,16.19
3580,16.99
3592,17.77
3604,18.43
3616,18.85
3628,18.96
3639,18.7
3650,18.08
3662,17.1
3674,15.86
3686,14.46
3698,13.03
3710,11.68
3722,10.45
3734,9.33
3746,8.21
3758,6.99
3770,5.6
3782,4.06
3794,2.45
3806,0.92
3818,-0.41
3829,-1.5
3840,-2.36
3852,-3.08
3864,-3.8
3876,-4.67
3888,-5.85
3900,-7.4
3912,-9.33
3924,-11.49
3936,-13.68
3948,-15.66
3960,-17.3
3972,-18.64
3984,-19.88
3996,-21.3
4008,-23.19
4019,-25.73
4030,-28.9
4042,-32.42
4054,-35.74
4066,-38.11
4078,-38.74
4090,-37.0
4102,-32.71
4114,-26.17
4126,-18.14
4138,-9.62
4150,-1.5
4162,5.58
4174,11.33
4186,15.67
4198,18.66
4209,20.35
4220,20.83
4232,20.26
4244,18.94
4256,17.23
4268,15.54
4280,14.17
4292,13.31
4304,13.03
4316,13.27
4328,13.95
4340,14.92
4352,16.02
4364,17.11
4376,18.08
4388,18.84
4399,19.32
4410,19.43
4422,19.11
4434,18.32
4446,17.13
4458,15.68
4470,14.19
4482,12.81
4494,11.62
4506,10.53
4518,9.39
4530,8.06
4542,6.49
4554,4.74
4566,2.99
4578,1.41
4589,0.09
4600,-0.97
4612,-1.87
4624,-2.8
4636,-3.94
4648,-5.37
4660,-7.08
4672,-8.89
4684,-10.58
4696,-11.98
4708,-13.03
4720,-13.86
4732,-14.72
4744,-15.92
4756,-17.67
4768,-20.1
4779,-23.13
4790,-26.5
4802,-29.74
4814,-32.2
4826,-33.23
4838,-32.33
4850,-29.36
4862,-24.58
4874,-18.62
4886,-12.24
4898,-6.14
4910,-0.77
4922,3.66
4934,7.07
4946,9.44
4958,10.69
4969,10.69
4980,9.42
4992,7.0
5004,3.79
5016,0.34
5028,-2.74
5040,-4.9
5052,-5.85
5064,-5.52
5076,-4.06
5088,-1.69
5100,1.35
5112,4.87
5124,8.63
5136,12.35
5148,15.69
5159,18.36
5170,20.17
5182,21.16
5194,21.53
5206,21.51
5218,21.31
5230,20.98
5242,20.48
5254,19.74
5266,18.77
5278,17.66
5290,16.51
5302,15.38
5314,14.25
5326,13.02
5338,11.59
5349,9.97
5360,8.23
5372,6.48
5384,4.78
5396,3.13
5408,1.46
5420,-0.3
5432,-2.18
5444,-4.22
5456,-6.44
5468,-8.96
5480,-11.87
5492,-15.19
5504,-18.67
5516,-21.78
5528,-23.82
5539,-24.11
5550,-22.33
5562,-18.63
5574,-13.57
5586,-7.97
5598,-2.58
5610,2.15
5622,6.06
5634,9.21
5646,11.72
5658,13.55
5670,14.53
5682,14.47
5694,13.28
5706,11.16
5718,8.53
5729,5.87
5740,3.6
5752,1.91
5764,0.77
5776,0.05
5788,-0.35
5800,-0.49
5812,-0.35
5824,0.01
5836,0.43
5848,0.66
5860,0.51
5872,-0.07
5884,-0.98
5896,-2.0
5908,-2.91
5919,-3.58
5930,-3.98
5942,-4.17
5954,-4.24
5966,-4.25
5978,-4.25
5990,-4.25
6002,-4.26
6014,-4.28
6026,-4.3
6038,-4.3
6050,-4.27
6062,-4.19
6074,-4.12
6086,-4.2
6098,-4.61
6109,-5.5
6120,-6.9
6132,-8.66
6144,-10.49
6156,-12.12
6168,-13.48
6180,-14.72
6192,-16.22
6204,-18.33
6216,-21.16
6228,-24.45
6240,-27.58
6252,-29.71
6264,-30.05
6276,-28.08
6288,-23.73
6299,-17.4
6310,-9.8
6322,-1.76
6334,5.96
6346,12.86
6358,18.67
6370,23.31
6382,26.72
6394,28.83
6406,29.61
6418,29.16
6430,27.77
6442,25.91
6454,24.09
6466,22.73
6478,22.0
6489,21.88
6500,22.23
6512,22.85
6524,23.62
6536,24.49
6548,25.43
6560,26.4
6572,27.31
6584,27.97
6596,28.17
6608,27.71
6620,26.5
6632,24.56
6644,22.08
6656,19.34
6668,16.63
6679,14.19
6690,12.08
6702,10.23
6714,8.51
6726,6.76
6738,4.88
6750,2.89
6762,0.87
6774,-1.07
6786,-2.8
6798,-4.25
6810,-5.45
6822,-6.48
6834,-7.5
6846,-8.69
6858,-10.11
6869,-11.75
6880,-13.46
6892,-15.07
6904,-16.49
6916,-17.72
6928,-18.89
6940,-20.23
6952,-21.94
6964,-24.16
6976,-26.92
6988,-30.06
7000,-33.17
7012,-35.68
7024,-36.86
7036,-36.11
7048,-33.1
7059,-27.93
7070,-21.13
7082,-13.5
7094,-5.91
7106,0.95
7118,6.61
7130,10.86
7142,13.67
7154,15.18
7166,15.55
7178,15.06
7190,13.99
7202,12.63
7214,11.25
7226,10.0
7238,9.01
7249,8.32
7260,7.97
7272,7.97
7284,8.31
7296,8.94
7308,9.74
7320,10.58
7332,11.25
7344,11.59
7356,11.42
7368,10.69
7380,9.43
7392,7.81
7404,6.05
7416,4.36
7428,2.81
7439,1.33
7450,-0.26
7462,-2.15
7474,-4.42
7486,-7.0
7498,-9.71
7510,-12.32
7522,-14.73
7534,-16.93
7546,-19.04
7558,-21.26
7570,-23.74
7582,-26.52
7594,-29.53
7606,-32.59
7618,-35.47
7629,-38.03
7640,-40.28
7652,-42.38
7664,-44.63
7676,-47.33
7688,-50.76
7700,-54.98
7712,-59.85
7724,-64.82
7736,-68.91
7748,-70.86
7760,-69.42
7772,-63.78
7784,-53.94
7796,-40.76
7808,-25.72
7819,-10.5
7830,3.53
7842,15.48
7854,24.99
7866,32.01
7878,36.64
7890,39.08
7902,39.64
7914,38.76
7926,37.01
7938,34.92
7950,32.92
7962,31.2
7974,29.73
7986,28.4
7998,27.05
8009,25.62
8020,24.15
8032,22.77
8044,21.71
8056,21.13
8068,21.09
8080,21.49
8092,22.07
8104,22.52
8116,22.57
8128,22.05
8140,20.93
8152,19.28
8164,17.23
8176,15.01
8188,12.81
8199,10.78
8210,8.99
8222,7.35
8234,5.69
8246,3.81
8258,1.6
8270,-0.88
8282,-3.44
8294,-5.8
8306,-7.76
8318,-9.27
8330,-10.46
8342,-11.62
8354,-13.01
8366,-14.82
8378,-17.08
8389,-19.65
8400,-22.2
8412,-24.27
8424,-25.3
8436,-24.72
8448,-22.15
8460,-17.53
8472,-11.16
8484,-3.68
8496,4.1
8508,11.45
8520,17.86
8532,23.13
8544,27.31
8556,30.56
8568,32.98
8579,34.61
8590,35.46
8602,35.59
8614,35.15
8626,34.39
8638,33.52
8650,32.71
8662,32.0
8674,31.4
8686,30.88
8698,30.46
8710,30.22
8722,30.19
8734,30.3
8746,30.37
8758,30.15
8769,29.38
8780,28.0
8792,26.08
8804,23.81
8816,21.34
8828,18.76
8840,16.04
8852,13.11
8864,10.0
8876,6.84
8888,3.84
8900,1.19
8912,-1.07
8924,-3.09
8936,-5.13
8948,-7.44
8959,-10.08
8970,-12.91
8982,-15.61
8994,-17.88
9006,-19.55
9018,-20.67
9030,-21.54
9042,-22.52
9054,-23.9
9066,-25.85
9078,-28.34
9090,-31.18
9102,-34.08
9114,-36.6
9126,-38.23
9138,-38.43
9149,-36.74
9160,-32.97
9172,-27.28
9184,-20.16
9196,-12.33
9208,-4.53
9220,2.61
9232,8.7
9244,13.59
9256,17.26
9268,19.83
9280,21.38
9292,22.02
9304,21.85
9316,21.0
9328,19.64
9339,18.0
9350,16.36
9362,14.96
9374,13.99
9386,13.53
9398,13.58
9410,13.99
9422,14.58
9434,15.13
9446,15.46
9458,15.49
9470,15.21
9482,14.69
9494,14.06
9506,13.43
9518,12.79
9529,12.11
9540,11.23
9552,10.03
9564,8.46
9576,6.61
9588,4.67
9600,2.88
9612,1.41
9624,0.28
9636,-0.68
9648,-1.73
9660,-3.09
9672,-4.83
9684,-6.8
9696,-8.75
9708,-10.45
9719,-11.8
9730,-12.91
9742,-13.98
9754,-15.2
9766,-16.74
9778,-18.72
9790,-21.27
9802,-24.42
9814,-28.03
9826,-31.68
9838,-34.58
9850,-35.86
9862,-34.81
9874,-31.26
9886,-25.65
9898,-18.86
9909,-11.94
9920,-5.71
9932,-0.61
9944,3.33
9956,6.26
9968,8.37
9980,9.77
9992,10.46
10004,10.46
10016,9.83
10028,8.72
10040,7.33
10052,5.93
10064,4.74
10076,3.94
10088,3.62
10099,3.81
10110,4.44
10122,5.37
10134,6.44
10146,7.48
10158,8.36
10170,9.01
10182,9.43
10194,9.63
10206,9.63
10218,9.44
10230,9.05
10242,8.44
10254,7.59
10266,6.54
10278,5.33
10289,3.98
10300,2.56
10312,1.12
10324,-0.3
10336,-1.66
10348,-2.95
10360,-4.22
10372,-5.49
10384,-6.74
10396,-7.93
10408,-8.95
10420,-9.8
10432,-10.52
10444,-11.32
10456,-12.45
10468,-14.15
10479,-16.56
10490,-19.66
10502,-23.21
10514,-26.76
10526,-29.68
10538,-31.28
10550,-30.98
10562,-28.44
10574,-23.76
10586,-17.44
10598,-10.31
10610,-3.25
10622,3.0
10634,8.01
10646,11.68
10658,14.15
10669,15.66
10680,16.4
10692,16.45
10704,15.88
10716,14.75
10728,13.22
10740,11.57
10752,10.13
10764,9.17
10776,8.82
10788,9.05
10800,9.69
10812,10.57
10824,11.59
10836,12.68
10848,13.82
10859,14.87
10870,15.62
10882,15.78
10894,15.11
10906,13.58
10918,11.36
10930,8.84
10942,6.42
10954,4.4
10966,2.86
10978,1.6
10990,0.34
11002,-1.19
11014,-3.11
11026,-5.29
11038,-7.51
11049,-9.51
11060,-11.17
11072,-12.5
11084,-13.68
11096,-14.98
11108,-16.63
11120,-18.85
11132,-21.73
11144,-25.2
11156,-28.95
11168,-32.41
11180,-34.87
11192,-35.61
11204,-34.2
11216,-30.57
11228,-25.07
11239,-18.29
11250,-10.91
11262,-3.48
11274,3.58
11286,9.97
11298,15.4
11310,19.59
11322,22.34
11334,23.59
11346,23.5
11358,22.42
11370,20.86
11382,19.29
11394,18.11
11406,17.6
11418,17.84
11429,18.79
11440,20.32
11452,22.21
11464,24.22
11476,26.09
11488,27.57
11500,28.5
11512,28.83
11524,28.6
11536,27.95
11548,26.96
11560,25.67
11572,24.01
11584,21.83
11596,19.04
11608,15.68
11619,11.93
11630,8.09
11642,4.44
11654,1.14
11666,-1.81
11678,-4.5
11690,-7.08
11702,-9.6
11714,-12.0
11726,-14.18
11738,-15.98
11750,-17.29
11762,-18.13
11774,-18.6
11786,-18.85
11798,-19.14
11809,-19.74
11820,-20.91
11832,-22.86
11844,-25.61
11856,-28.85
11868,-31.96
11880,-34.12
11892,-34.55
11904,-32.73
11916,-28.57
11928,-22.42
11940,-14.87
11952,-6.61
11964,1.81
11976,10.05
11988,17.95
11999,25.43
12010,32.31
12022,38.3
12034,42.9
12046,45.65
12058,46.24
12070,44.71
12082,41.47
12094,37.13
12106,32.28
12118,27.26
12130,22.12
12142,16.71
12154,10.92
12166,4.82
12178,-1.32
12189,-7.07
12200,-12.08
12212,-16.14
12224,-19.26
12236,-21.56
12248,-23.17
12260,-24.18
12272,-24.65
12284,-24.62
12296,-24.24
12308,-23.69
12320,-23.17
12332,-22.79
12344,-22.56
12356,-22.38
12368,-22.12
12379,-21.71
12390,-21.23
12402,-20.84
12414,-20.72
12426,-20.96
12438,-21.5
12450,-22.23
12462,-23.02
12474,-23.82
12486,-24.68
12498,-25.65
12510,-26.78
12522,-28.06
12534,-29.48
12546,-31.08
12558,-32.92
12569,-35.02
12580,-37.15
12592,-38.82
12604,-39.3
12616,-37.87
12628,-34.13
12640,-28.21
12652,-20.74
12664,-12.63
12676,-4.79
12688,2.2
12700,8.12
12712,13.05
12724,17.11
12736,20.39
12748,22.84
12759,24.34
12770,24.83
12782,24.41
12794,23.32
12806,21.93
12818,20.62
12830,19.68
12842,19.27
12854,19.44
12866,20.13
12878,21.26
12890,22.72
12902,24.34
12914,25.94
12926,27.3
12938,28.24
12949,28.69
12960,28.71
12972,28.47
12984,28.11
12996,27.72
13008,27.27
13020,26.69
13032,25.94
13044,25.03
13056,24.05
13068,23.11
13080,22.25
13092,21.45
13104,20.63
13116,19.7
13128,18.67
13139,17.56
13150,16.47
13162,15.48
13174,14.62
13186,13.79
13198,12.9
13210,11.82
13222,10.49
13234,8.95
13246,7.25
13258,5.48
13270,3.62
13282,1.75
13294,0.04
13306,-1.05
13318,-0.89
13329,1.07
13340,5.09
13352,10.83
13364,17.52
13376,24.12
13388,29.72
13400,33.8
13412,36.3
13424,37.47
13436,37.66
13448,37.14
13460,36.04
13472,34.43
13484,32.4
13496,30.09
13508,27.7
13519,25.37
13530,23.18
13542,21.14
13554,19.21
13566,17.38
13578,15.7
13590,14.26
13602,13.12
13614,12.27
13626,11.63
13638,11.04
13650,10.35
13662,9.45
13674,8.35
13686,7.11
13698,5.81
13709,4.58
13720,3.47
13732,2.52
13744,1.68
13756,0.84
13768,-0.12
13780,-1.31
13792,-2.74
13804,-4.32
13816,-5.9
13828,-7.36
13840,-8.69
13852,-9.99
13864,-11.47
13876,-13.34
13888,-15.76
13899,-18.73
13910,-22.22
13922,-26.08
13934,-30.08
13946,-33.85
13958,-36.89
13970,-38.55
13982,-38.27
13994,-35.69
14006,-30.87
14018,-24.31
14030,-16.81
14042,-9.29
14054,-2.48
14066,3.2
14078,7.63
14089,10.83
14100,12.92
14112,13.98
14124,14.15
14136,13.65
14148,12.86
14160,12.17
14172,11.89
14184,12.12
14196,12.72
14208,13.4
14220,13.93
14232,14.26
14244,14.54
14256,15.02
14268,15.88
14279,17.14
14290,18.62
14302,20.01
14314,21.0
14326,21.4
14338,21.05
14350,19.9
14362,17.89
14374,15.01
14386,11.27
14398,6.84
14410,2.03
14422,-2.77
14434,-7.16
14446,-10.85
14458,-13.77
14469,-16.1
14480,-18.13
14492,-20.11
14504,-22.22
14516,-24.46
14528,-26.74
14540,-28.99
14552,-31.26
14564,-33.65
14576,-36.3
14588,-39.27
14600,-42.54
14612,-46.08
14624,-49.92
14636,-54.15
14648,-58.78
14659,-63.5
14670,-67.56
14682,-69.92
14694,-69.52
14706,-65.77
14718,-58.78
14730,-49.43
14742,-38.99
14754,-28.69
14766,-19.34
14778,-11.25
14790,-4.37
14802,1.48
14814,6.38
14826,10.29
14838,13.18
14849,15.1
14860,16.27
14872,17.02
14884,17.66
14896,18.39
14908,19.35
14920,20.57
14932,22.03
14944,23.67
14956,25.32
14968,26.74
14980,27.59
14992,27.54
15004,26.38
15016,24.06
15028,20.66
15039,16.35
15050,11.38
15062,6.01
15074,0.53
15086,-4.73
15098,-9.54
15110,-13.76
15122,-17.42
15134,-20.7
15146,-23.85
15158,-27.04
15170,-30.32
15182,-33.55
15194,-36.45
15206,-38.75
15218,-40.26
15229,-41.0
15240,-41.17
15252,-41.1
15264,-41.09
15276,-41.28
15288,-41.64
15300,-41.98
15312,-42.09
15324,-41.86
15336,-41.35
15348,-40.68
15360,-40.05
15372,-39.66
15384,-39.77
15396,-40.58
15408,-42.21
15419,-44.53
15430,-47.02
15442,-48.81
15454,-48.9
15466,-46.52
15478,-41.41
15490,-33.98
15502,-25.14
15514,-16.04
15526,-7.63
15538,-0.48
15550,5.24
15562,9.65
15574,12.99
15586,15.46
15598,17.21
15609,18.38
15620,19.11
15632,19.54
15644,19.83
15656,20.12
15668,20.46
15680,20.93
15692,21.58
15704,22.51
15716,23.78
15728,25.4
15740,27.28
15752,29.2
15764,30.87
15776,32.01
15788,32.46
15799,32.18
15810,31.28
15822,29.93
15834,28.27
15846,26.42
15858,24.41
15870,22.3
15882,20.13
15894,17.95
15906,15.74
15918,13.47
15930,11.03
15942,8.33
15954,5.4
15966,2.35
15978,-0.67
15989,-3.47
16000,-5.99
16012,-8.28
16024,-10.5
16036,-12.82
16048,-15.41
16060,-18.39
16072,-21.83
16084,-25.7
16096,-29.81
16108,-33.71
16120,-36.77
16132,-38.28
16144,-37.69
16156,-34.8
16168,-29.87
16179,-23.54
16190,-16.69
16202,-10.15
16214,-4.57
16226,-0.35
16238,2.3
16250,3.28
16262,2.63
16274,0.59
16286,-2.4
16298,-5.67
16310,-8.46
16322,-10.19
16334,-10.59
16346,-9.8
16358,-8.26
16369,-6.48
16380,-4.83
16392,-3.39
16404,-2.0
16416,-0.41
16428,1.55
16440,3.84
16452,6.25
16464,8.46
16476,10.26
16488,11.58
16500,12.52
16512,13.22
16524,13.82
16536,14.31
16548,14.63
16559,14.76
16570,14.79
16582,14.95
16594,15.49
16606,16.49
16618,17.76
16630,18.85
16642,19.21
16654,18.46
16666,16.49
16678,13.52
16690,10.0
16702,6.39
16714,3.05
16726,0.17
16738,-2.16
16749,-3.94
16760,-5.15
16772,-5.72
16784,-5.56
16796,-4.57
16808,-2.72
16820,-0.07
16832,3.18
16844,6.64
16856,9.83
16868,12.3
16880,13.8
16892,14.4
16904,14.41
16916,14.25
16928,14.27
16939,14.6
16950,15.19
16962,15.9
16974,16.64
16986,17.39
16998,18.21
17010,19.14
17022,20.05
17034,20.75
17046,20.96
17058,20.5
17070,19.32
17082,17.49
17094,15.19
17106,12.6
17118,9.88
17129,7.16
17140,4.49
17152,1.9
17164,-0.63
17176,-3.12
17188,-5.59
17200,-8.06
17212,-10.53
17224,-12.94
17236,-15.15
17248,-16.88
17260,-17.77
17272,-17.46
17284,-15.73
17296,-12.58
17308,-8.26
17319,-3.24
17330,2.0
17342,7.04
17354,11.61
17366,15.57
17378,18.79
17390,21.14
17402,22.47
17414,22.75
17426,22.08
17438,20.71
17450,18.93
17462,17.03
17474,15.18
17486,13.49
17498,12.05
17509,10.97
17520,10.4
17532,10.38
17544,10.87
17556,11.63
17568,12.36
17580,12.8
17592,12.83
17604,12.52
17616,12.0
17628,11.4
17640,10.67
17652,9.67
17664,8.21
17676,6.19
17688,3.67
17699,0.83
17710,-2.09
17722,-4.94
17734,-7.67
17746,-10.35
17758,-13.07
17770,-15.9
17782,-18.93
17794,-22.18
17806,-25.67
17818,-29.24
17830,-32.54
17842,-34.98
17854,-35.89
17866,-34.74
17878,-31.31
17889,-25.83
17900,-18.87
17912,-11.11
17924,-3.25
17936,4.22
17948,10.91
17960,16.56
17972,20.98
17984,24.07
17996,25.89
18008,26.66
18020,26.72
18032,26.44
18044,26.07
18056,25.71
18068,25.32
18079,24.84
18090,24.21
18102,23.46
18114,22.69
18126,21.99
18138,21.44
18150,21.06
18162,20.78
18174,20.48
18186,20.01
18198,19.21
18210,18.0
18222,16.36
18234,14.4
18246,12.27
18258,10.13
18269,8.03
18280,5.95
18292,3.76
18304,1.4
18316,-1.15
18328,-3.78
18340,-6.35
18352,-8.78
18364,-11.04
18376,-13.18
18388,-15.32
18400,-17.58
18412,-20.14
18424,-23.17
18436,-26.72
18448,-30.65
18459,-34.51
18470,-37.56
18482,-39.03
18494,-38.3
18506,-35.18
18518,-29.98
18530,-23.33
18542,-15.99
18554,-8.59
18566,-1.56
18578,4.85
18590,10.46
18602,15.18
18614,18.91
18626,21.67
18638,23.52
18649,24.61
18660,25.1
18672,25.12
18684,24.79
18696,24.26
18708,23.69
18720,23.22
18732,22.94
18744,22.84
18756,22.84
18768,22.86
18780,22.82
18792,22.74
18804,22.62
18816,22.46
18828,22.2
18839,21.7
18850,20.87
18862,19.66
18874,18.1
18886,16.32
18898,14.45
18910,12.61
18922,10.85
18934,9.17
18946,7.53
18958,5.83
18970,3.96
18982,1.85
18994,-0.47
19006,-2.89
19018,-5.21
19029,-7.28
19040,-9.05
19052,-10.65
19064,-12.27
19076,-14.1
19088,-16.2
19100,-18.54
19112,-21.05
19124,-23.68
19136,-26.4
19148,-29.09
19160,-31.46
19172,-33.01
19184,-33.14
19196,-31.4
19208,-27.7
19219,-22.35
19230,-15.95
19242,-9.22
19254,-2.74
19266,3.1
19278,8.12
19290,12.23
19302,15.38
19314,17.56
19326,18.8
19338,19.22
19350,18.99
19362,18.33
19374,17.41
19386,16.45
19398,15.61
19409,15.06
19420,14.88
19432,15.09
19444,15.56
19456,16.18
19468,16.81
19480,17.35
19492,17.75
19504,17.93
19516,17.79
19528,17.25
19540,16.35
19552,15.22
19564,14.1
19576,13.12
19588,12.26
19599,11.36
19610,10.18
19622,8.63
19634,6.83
19646,5.05
19658,3.57
19670,2.49
19682,1.7
19694,0.93
19706,-0.07
19718,-1.42
19730,-3.1
19742,-4.97
19754,-6.85
19766,-8.6
19778,-10.1
19789,-11.29
19800,-12.18
19812,-12.87
19824,-13.59
19836,-14.58
19848,-16.05
19860,-18.11
19872,-20.74
19884,-23.71
19896,-26.66
19908,-29.07
19920,-30.4
19932,-30.18
19944,-28.2
19956,-24.58
19968,-19.79
19979,-14.49
19990,-9.3
20002,-4.62
20014,-0.64
20026,2.63
20038,5.17
20050,6.87
20062,7.61
20074,7.25
20086,5.82
20098,3.49
20110,0.51
20122,-2.77
20134,-6.03
20146,-8.89
20158,-11.0
20169,-12.0
20180,-11.66
20192,-9.99
20204,-7.19
20216,-3.68
20228,0.1
20240,3.85
20252,7.44
20264,10.91
20276,14.42
20288,18.06
20300,21.83
20312,25.57
20324,29.0
20336,31.89
20348,34.09
20359,35.59
20370,36.48
20382,36.92
20394,37.07
20406,37.11
20418,37.25
20430,37.72
20442,38.63
20454,39.98
20466,41.53
20478,42.91
20490,43.75
20502,43.83
20514,43.16
20526,41.92
20538,40.31
20549,38.43
20560,36.18
20572,33.38
20584,29.86
20596,25.5
20608,20.26
20620,14.25
20632,7.71
20644,1.06
20656,-5.1
20668,-10.15
20680,-13.65
20692,-15.47
20704,-15.91
20716,-15.55
20728,-14.97
20739,-14.59
20750,-14.52
20762,-14.67
20774,-14.94
20786,-15.36
20798,-16.12
20810,-17.44
20822,-19.42
20834,-21.88
20846,-24.43
20858,-26.6
20870,-28.01
20882,-28.55
20894,-28.35
20906,-27.66
20918,-26.76
20929,-25.78
20940,-24.7
20952,-23.4
20964,-21.8
20976,-19.86
20988,-17.7
