seconds,BVP
7,8.14
19,11.37
31,15.64
43,20.05
55,23.4
67,24.61
79,22.94
91,18.28
102,11.13
113,2.55
125,-6.24
137,-14.13
149,-20.39
161,-24.75
173,-27.25
185,-28.08
197,-27.45
209,-25.63
221,-23.01
233,-20.15
245,-17.65
257,-15.97
269,-15.27
281,-15.42
292,-16.05
303,-16.88
315,-17.73
327,-18.59
339,-19.58
351,-20.85
363,-22.72
375,-25.58
387,-29.89
399,-35.77
411,-42.76
423,-49.61
435,-54.67
447,-56.51
459,-54.68
471,-50.02
482,-44.5
493,-40.39
505,-39.49
517,-42.5
529,-49.0
541,-57.68
553,-66.76
565,-74.12
577,-77.52
589,-74.88
601,-64.77
613,-47.16
625,-23.78
637,2.1
649,26.48
661,45.73
672,57.76
683,62.48
695,61.58
707,57.92
719,54.54
731,53.82
743,56.93
755,63.71
767,72.82
779,82.19
791,89.56
803,93.09
815,91.81
827,85.8
839,76.18
851,64.75
862,53.46
873,43.77
885,36.24
897,30.43
909,25.21
921,19.41
933,12.31
945,4.01
957,-4.71
969,-12.79
981,-19.34
993,-23.84
1005,-26.21
1017,-26.63
1029,-25.42
1041,-23.0
1052,-19.89
1063,-16.77
1075,-14.32
1087,-13.05
1099,-12.97
1111,-13.59
1123,-13.87
1135,-12.65
1147,-9.08
1159,-2.9
1171,5.44
1183,14.92
1195,24.34
1207,32.58
1219,38.81
1231,42.57
1242,43.69
1253,42.2
1265,38.4
1277,32.8
1289,26.16
1301,19.29
1313,12.97
1325,7.65
1337,3.48
1349,0.31
1361,-2.15
1373,-4.16
1385,-5.91
1397,-7.59
1409,-9.41
1421,-11.59
1432,-14.24
1443,-17.2
1455,-19.99
1467,-21.87
1479,-22.14
1491,-20.46
1503,-16.98
1515,-12.33
1527,-7.39
1539,-2.98
1551,0.42
1563,2.76
1575,4.3
1587,5.42
1599,6.39
1611,7.18
1622,7.56
1633,7.16
1645,5.74
1657,3.23
1669,-0.17
1681,-4.13
1693,-8.23
1705,-12.03
1717,-15.15
1729,-17.28
1741,-18.25
1753,-18.16
1765,-17.39
1777,-16.64
1789,-16.63
1801,-17.92
1812,-20.57
1823,-24.11
1835,-27.73
1847,-30.58
1859,-32.09
1871,-32.13
1883,-30.97
1895,-29.01
1907,-26.56
1919,-23.7
1931,-20.33
1943,-16.34
1955,-11.83
1967,-7.16
1979,-2.86
1991,0.54
2002,2.76
2013,3.85
2025,4.11
2037,3.97
2049,3.73
2061,3.51
2073,3.27
2085,2.91
2097,2.45
2109,1.99
2121,1.72
2133,1.77
2145,2.13
2157,2.64
2169,3.14
2181,3.52
2192,3.77
2203,3.98
2215,4.29
2227,4.71
2239,5.21
2251,5.69
2263,6.13
2275,6.61
2287,7.32
2299,8.49
2311,10.24
2323,12.48
2335,14.89
2347,16.92
2359,17.98
2371,17.63
2382,15.8
2393,12.84
2405,9.39
2417,6.15
2429,3.5
2441,1.36
2453,-0.75
2465,-3.35
2477,-6.58
2489,-9.94
2501,-12.38
2513,-12.74
2525,-10.27
2537,-4.95
2549,2.49
2561,10.98
2572,19.55
2583,27.53
2595,34.65
2607,40.74
2619,45.55
2631,48.72
2643,49.93
2655,49.12
2667,46.58
2679,42.99
2691,39.14
2703,35.77
2715,33.26
2727,31.67
2739,30.7
2751,29.84
2762,28.55
2773,26.36
2785,22.95
2797,18.17
2809,12.06
2821,4.8
2833,-3.16
2845,-11.27
2857,-18.88
2869,-25.39
2881,-30.39
2893,-33.75
2905,-35.62
2917,-36.23
2929,-35.88
2941,-34.72
2952,-32.88
2963,-30.51
2975,-27.86
2987,-25.33
2999,-23.26
3011,-21.85
3023,-20.99
3035,-20.34
3047,-19.56
3059,-18.43
3071,-17.04
3083,-15.57
3095,-14.22
3107,-12.99
3119,-11.75
3131,-10.37
3142,-8.91
3153,-7.75
3165,-7.44
3177,-8.47
3189,-11.1
3201,-15.22
3213,-20.4
3225,-26.03
3237,-31.41
3249,-35.88
3261,-38.87
3273,-40.04
3285,-39.29
3297,-36.79
3309,-32.92
3321,-28.1
3332,-22.64
3343,-16.75
3355,-10.56
3367,-4.3
3379,1.69
3391,6.96
3403,11.07
3415,13.77
3427,15.07
3439,15.22
3451,14.53
3463,13.28
3475,11.6
3487,9.55
3499,7.14
3511,4.41
3522,1.43
3533,-1.79
3545,-5.24
3557,-8.91
3569,-12.61
3581,-15.96
3593,-18.43
3605,-19.52
3617,-19.03
3629,-17.12
3641,-14.3
3653,-11.2
3665,-8.29
3677,-5.85
3689,-3.94
3701,-2.47
3712,-1.36
3723,-0.56
3735,-0.02
3747,0.31
3759,0.51
3771,0.63
3783,0.71
3795,0.72
3807,0.68
3819,0.55
3831,0.36
3843,0.06
3855,-0.41
3867,-1.22
3879,-2.45
3891,-4.14
3902,-6.19
3913,-8.31
3925,-10.18
3937,-11.46
3949,-11.9
3961,-11.45
3973,-10.24
3985,-8.48
3997,-6.39
4009,-4.13
4021,-1.76
4033,0.69
4045,3.13
4057,5.35
4069,7.09
4081,8.16
4092,8.55
4103,8.45
4115,8.1
4127,7.68
4139,7.18
4151,6.45
4163,5.32
4175,3.75
4187,1.93
4199,0.22
4211,-1.08
4223,-1.84
4235,-2.18
4247,-2.4
4259,-2.8
4271,-3.46
4282,-4.22
4293,-4.67
4305,-4.4
4317,-3.14
4329,-0.93
4341,1.96
4353,5.11
4365,8.13
4377,10.78
4389,12.97
4401,14.7
4413,15.93
4425,16.59
4437,16.55
4449,15.78
4461,14.38
4472,12.54
4483,10.53
4495,8.5
4507,6.51
4519,4.44
4531,2.2
4543,-0.27
4555,-2.86
4567,-5.37
4579,-7.61
4591,-9.5
4603,-11.06
4615,-12.33
4627,-13.29
4639,-13.74
4651,-13.34
4662,-11.8
4673,-9.04
4685,-5.25
4697,-0.88
4709,3.55
4721,7.66
4733,11.22
4745,14.19
4757,16.54
4769,18.17
4781,18.9
4793,18.55
4805,17.04
4817,14.54
4829,11.42
4841,8.21
4852,5.35
4863,3.09
4875,1.42
4887,0.15
4899,-0.99
4911,-2.23
4923,-3.67
4935,-5.24
4947,-6.76
4959,-7.92
4971,-8.38
4983,-7.85
4995,-6.19
5007,-3.47
5019,0.02
5031,3.86
5042,7.59
5053,10.87
5065,13.52
5077,15.5
5089,16.85
5101,17.63
5113,17.91
5125,17.76
5137,17.28
5149,16.61
5161,15.88
5173,15.15
5185,14.43
5197,13.65
5209,12.71
5221,11.57
5232,10.22
5243,8.7
5255,7.07
5267,5.36
5279,3.66
5291,2.08
5303,0.85
5315,0.21
5327,0.33
5339,1.23
5351,2.77
5363,4.66
5375,6.67
5387,8.66
5399,10.61
5411,12.56
5422,14.49
5433,16.25
5445,17.57
5457,18.2
5469,17.96
5481,16.9
5493,15.25
5505,13.35
5517,11.49
5529,9.8
5541,8.3
5553,6.88
5565,5.45
5577,3.98
5589,2.47
5601,0.86
5612,-0.96
5623,-3.16
5635,-5.81
5647,-8.73
5659,-11.48
5671,-13.48
5683,-14.27
5695,-13.7
5707,-12.08
5719,-9.97
5731,-7.99
5743,-6.5
5755,-5.52
5767,-4.79
5779,-4.02
5791,-3.07
5802,-2.06
5813,-1.29
5825,-1.07
5837,-1.57
5849,-2.71
5861,-4.23
5873,-5.87
5885,-7.46
5897,-9.02
5909,-10.69
5921,-12.61
5933,-14.79
5945,-17.09
5957,-19.28
5969,-21.12
5981,-22.52
5992,-23.48
6003,-24.14
6015,-24.56
6027,-24.73
6039,-24.5
6051,-23.69
6063,-22.13
6075,-19.85
6087,-17.06
6099,-14.11
6111,-11.38
6123,-9.12
6135,-7.41
6147,-6.18
6159,-5.26
6171,-4.53
6182,-3.93
6193,-3.5
6205,-3.18
6217,-2.86
6229,-2.32
6241,-1.4
6253,-0.05
6265,1.53
6277,3.03
6289,4.15
6301,4.68
6313,4.65
6325,4.23
6337,3.65
6349,3.09
6361,2.7
6372,2.55
6383,2.66
6395,3.09
6407,3.84
6419,4.84
6431,6.01
6443,7.14
6455,8.03
6467,8.52
6479,8.44
6491,7.77
6503,6.63
6515,5.2
6527,3.77
6539,2.53
6551,1.6
6562,0.98
6573,0.6
6585,0.33
6597,0.11
6609,-0.08
6621,-0.27
6633,-0.46
6645,-0.73
6657,-1.17
6669,-1.88
6681,-2.91
6693,-4.2
6705,-5.5
6717,-6.48
6729,-6.74
6741,-6.0
6752,-4.21
6763,-1.59
6775,1.46
6787,4.53
6799,7.32
6811,9.8
6823,12.1
6835,14.35
6847,16.61
6859,18.72
6871,20.43
6883,21.48
6895,21.76
6907,21.32
6919,20.31
6931,18.9
6942,17.18
6953,15.22
6965,13.0
6977,10.54
6989,7.87
7001,5.06
7013,2.21
7025,-0.52
7037,-2.96
7049,-4.87
7061,-6.08
7073,-6.46
7085,-6.01
7097,-4.85
7109,-3.17
7121,-1.19
7132,0.93
7143,3.05
7155,5.05
7167,6.88
7179,8.45
7191,9.71
7203,10.58
7215,10.96
7227,10.8
7239,10.09
7251,8.94
7263,7.53
7275,6.09
7287,4.75
7299,3.53
7311,2.34
7322,1.11
7333,-0.17
7345,-1.39
7357,-2.46
7369,-3.38
7381,-4.25
7393,-5.18
7405,-6.17
7417,-6.99
7429,-7.32
7441,-6.87
7453,-5.59
7465,-3.67
7477,-1.45
7489,0.75
7501,2.71
7512,4.39
7523,5.77
7535,6.81
7547,7.43
7559,7.59
7571,7.3
7583,6.63
7595,5.68
7607,4.53
7619,3.25
7631,1.92
7643,0.64
7655,-0.51
7667,-1.52
7679,-2.47
7691,-3.54
7702,-4.84
7713,-6.39
7725,-8.03
7737,-9.58
7749,-10.78
7761,-11.52
7773,-11.72
7785,-11.41
7797,-10.64
7809,-9.45
7821,-7.92
7833,-6.14
7845,-4.23
7857,-2.26
7869,-0.32
7881,1.57
7892,3.34
7903,4.86
7915,5.97
7927,6.51
7939,6.36
7951,5.51
7963,4.12
7975,2.42
7987,0.71
7999,-0.79
8011,-1.96
8023,-2.85
8035,-3.62
8047,-4.44
8059,-5.45
8071,-6.7
8082,-8.11
8093,-9.54
8105,-10.77
8117,-11.6
8129,-11.84
8141,-11.31
8153,-9.91
8165,-7.65
8177,-4.71
8189,-1.4
8201,1.91
8213,4.91
8225,7.37
8237,9.2
8249,10.36
8261,10.86
8272,10.73
8283,10.07
8295,9.07
8307,7.92
8319,6.77
8331,5.61
8343,4.35
8355,2.87
8367,1.16
8379,-0.67
8391,-2.51
8403,-4.3
8415,-6.19
8427,-8.37
8439,-10.89
8451,-13.5
8462,-15.68
8473,-16.85
8485,-16.69
8497,-15.33
8509,-13.27
8521,-11.14
8533,-9.43
8545,-8.26
8557,-7.43
8569,-6.67
8581,-5.79
8593,-4.84
8605,-4.07
8617,-3.75
8629,-4.04
8641,-4.86
8652,-5.96
8663,-6.95
8675,-7.56
8687,-7.67
8699,-7.35
8711,-6.84
8723,-6.38
8735,-6.18
8747,-6.27
8759,-6.66
8771,-7.26
8783,-7.91
8795,-8.44
8807,-8.62
8819,-8.25
8831,-7.23
8842,-5.65
8853,-3.83
8865,-2.16
8877,-1.01
8889,-0.52
8901,-0.56
8913,-0.84
8925,-1.03
8937,-0.9
8949,-0.46
8961,0.17
8973,0.76
8985,1.03
8997,0.78
9009,-0.14
9021,-1.65
9032,-3.49
9043,-5.19
9055,-6.22
9067,-6.2
9079,-5.09
9091,-3.24
9103,-1.28
9115,0.19
9127,0.85
9139,0.76
9151,0.25
9163,-0.23
9175,-0.4
9187,-0.22
9199,0.21
9211,0.7
9222,1.18
9233,1.71
9245,2.4
9257,3.3
9269,4.39
9281,5.47
9293,6.31
9305,6.71
9317,6.59
9329,5.97
9341,4.95
9353,3.66
9365,2.21
9377,0.64
9389,-1.04
9401,-2.72
9412,-4.23
9423,-5.33
9435,-5.81
9447,-5.65
9459,-5.07
9471,-4.46
9483,-4.18
9495,-4.34
9507,-4.78
9519,-5.07
9531,-4.77
9543,-3.65
9555,-1.72
9567,0.75
9579,3.45
9591,6.14
9602,8.66
9613,10.91
9625,12.75
9637,13.98
9649,14.42
9661,13.98
9673,12.78
9685,11.12
9697,9.35
9709,7.78
9721,6.41
9733,5.05
9745,3.44
9757,1.36
9769,-1.16
9781,-3.85
9792,-6.37
9803,-8.47
9815,-10.11
9827,-11.35
9839,-12.31
9851,-13.0
9863,-13.3
9875,-13.04
9887,-12.13
9899,-10.55
9911,-8.35
9923,-5.64
9935,-2.53
9947,0.79
9959,4.03
9971,6.86
9982,8.99
9993,10.34
10005,11.0
10017,11.25
10029,11.3
10041,11.26
10053,11.06
10065,10.52
10077,9.55
10089,8.2
10101,6.69
10113,5.28
10125,4.18
10137,3.38
10149,2.69
10161,1.83
10172,0.66
10183,-0.77
10195,-2.17
10207,-3.14
10219,-3.38
10231,-2.82
10243,-1.67
10255,-0.28
10267,1.04
10279,2.11
10291,3.0
10303,3.82
10315,4.63
10327,5.38
10339,5.85
10351,5.85
10362,5.26
10373,4.2
10385,2.84
10397,1.48
10409,0.33
10421,-0.48
10433,-0.9
10445,-0.97
10457,-0.77
10469,-0.41
10481,-0.03
10493,0.24
10505,0.26
10517,-0.05
10529,-0.73
10541,-1.73
10552,-2.83
10563,-3.79
10575,-4.27
10587,-4.07
10599,-3.14
10611,-1.69
10623,-0.09
10635,1.28
10647,2.21
10659,2.75
10671,3.12
10683,3.55
10695,4.04
10707,4.41
10719,4.33
10731,3.57
10742,2.12
10753,0.22
10765,-1.86
10777,-3.89
10789,-5.83
10801,-7.73
10813,-9.61
10825,-11.42
10837,-13.01
10849,-14.27
10861,-15.23
10873,-16.04
10885,-16.82
10897,-17.59
10909,-18.08
10921,-17.94
10932,-16.87
10943,-14.9
10955,-12.3
10967,-9.62
10979,-7.27
10991,-5.45
11003,-4.04
11015,-2.75
11027,-1.42
11039,-0.09
11051,0.93
11063,1.34
11075,0.99
11087,0.06
11099,-1.03
11111,-1.89
11122,-2.3
11133,-2.35
11145,-2.3
11157,-2.39
11169,-2.66
11181,-3.04
11193,-3.43
11205,-3.78
11217,-4.3
11229,-5.18
11241,-6.53
11253,-8.22
11265,-9.83
11277,-10.85
11289,-10.87
11301,-9.79
11312,-7.84
11323,-5.41
11335,-2.91
11347,-0.52
11359,1.75
11371,3.97
11383,6.12
11395,8.07
11407,9.6
11419,10.54
11431,10.84
11443,10.59
11455,9.94
11467,8.99
11479,7.78
11491,6.34
11502,4.77
11513,3.25
11525,1.96
11537,0.98
11549,0.26
11561,-0.43
11573,-1.36
11585,-2.71
11597,-4.55
11609,-6.73
11621,-8.95
11633,-10.85
11645,-12.07
11657,-12.34
11669,-11.62
11681,-10.03
11692,-7.79
11703,-5.17
11715,-2.39
11727,0.44
11739,3.26
11751,6.02
11763,8.65
11775,11.04
11787,13.12
11799,14.83
11811,16.19
11823,17.24
11835,18.06
11847,18.71
11859,19.24
11871,19.6
11882,19.68
11893,19.35
11905,18.5
11917,17.14
11929,15.32
11941,13.12
11953,10.58
11965,7.7
11977,4.53
11989,1.27
12001,-1.65
12013,-3.69
12025,-4.41
12037,-3.61
12049,-1.49
12061,1.45
12072,4.55
12083,7.21
12095,9.06
12107,9.96
12119,10.04
12131,9.57
12143,8.8
12155,7.92
12167,6.97
12179,5.94
12191,4.73
12203,3.28
12215,1.51
12227,-0.53
12239,-2.77
12251,-5.05
12262,-7.21
12273,-9.11
12285,-10.69
12297,-11.99
12309,-13.13
12321,-14.24
12333,-15.26
12345,-16.01
12357,-16.1
12369,-15.17
12381,-13.04
12393,-9.85
12405,-6.0
12417,-2.09
12429,1.41
12441,4.17
12452,6.17
12463,7.52
12475,8.31
12487,8.59
12499,8.28
12511,7.34
12523,5.83
12535,3.95
12547,2.01
12559,0.26
12571,-1.2
12583,-2.46
12595,-3.67
12607,-4.97
12619,-6.27
12631,-7.43
12642,-8.27
12653,-8.8
12665,-9.22
12677,-9.79
12689,-10.73
12701,-11.99
12713,-13.25
12725,-14.04
12737,-13.92
12749,-12.73
12761,-10.6
12773,-7.88
12785,-4.98
12797,-2.25
12809,0.16
12821,2.18
12832,3.78
12843,4.9
12855,5.46
12867,5.38
12879,4.68
12891,3.59
12903,2.4
12915,1.44
12927,0.92
12939,0.77
12951,0.72
12963,0.38
12975,-0.52
12987,-2.02
12999,-3.88
13011,-5.73
13022,-7.27
13033,-8.38
13045,-9.18
13057,-9.88
13069,-10.62
13081,-11.32
13093,-11.76
13105,-11.63
13117,-10.73
13129,-9.02
13141,-6.64
13153,-3.83
13165,-0.85
13177,2.09
13189,4.8
13201,7.16
13212,9.08
13223,10.49
13235,11.32
13247,11.53
13259,11.08
13271,10.03
13283,8.54
13295,6.87
13307,5.36
13319,4.26
13331,3.66
13343,3.39
13355,3.16
13367,2.71
13379,1.92
13391,0.9
13402,-0.09
13413,-0.82
13425,-1.21
13437,-1.39
13449,-1.59
13461,-1.99
13473,-2.63
13485,-3.37
13497,-3.9
13509,-3.92
13521,-3.2
13533,-1.74
13545,0.31
13557,2.62
13569,4.89
13581,6.79
13592,8.15
13603,8.89
13615,9.07
13627,8.73
13639,7.95
13651,6.76
13663,5.23
13675,3.47
13687,1.63
13699,-0.04
13711,-1.33
13723,-2.11
13735,-2.35
13747,-2.15
13759,-1.65
13771,-0.98
13782,-0.22
13793,0.59
13805,1.44
13817,2.31
13829,3.21
13841,4.12
13853,5.08
13865,6.11
13877,7.22
13889,8.4
13901,9.59
13913,10.74
13925,11.75
13937,12.53
13949,12.96
13961,12.91
13972,12.24
13983,10.91
13995,9.06
14007,6.95
14019,4.99
14031,3.48
14043,2.51
14055,1.93
14067,1.38
14079,0.58
14091,-0.55
14103,-1.83
14115,-2.92
14127,-3.55
14139,-3.72
14151,-3.7
14162,-3.87
14173,-4.54
14185,-5.67
14197,-6.95
14209,-7.88
14221,-7.99
14233,-7.04
14245,-5.07
14257,-2.31
14269,0.91
14281,4.21
14293,7.37
14305,10.25
14317,12.82
14329,15.14
14341,17.25
14352,19.15
14363,20.78
14375,22.0
14387,22.63
14399,22.54
14411,21.63
14423,19.93
14435,17.6
14447,14.84
14459,11.91
14471,9.05
14483,6.47
14495,4.22
14507,2.17
14519,0.0
14531,-2.65
14542,-5.96
14553,-9.83
14565,-13.79
14577,-17.21
14589,-19.59
14601,-20.76
14613,-20.93
14625,-20.49
14637,-19.73
14649,-18.69
14661,-17.21
14673,-15.15
14685,-12.6
14697,-9.92
14709,-7.57
14721,-5.88
14732,-4.89
14743,-4.44
14755,-4.28
14767,-4.32
14779,-4.55
14791,-5.08
14803,-5.92
14815,-7.03
14827,-8.28
14839,-9.59
14851,-10.9
14863,-12.14
14875,-13.31
14887,-14.38
14899,-15.42
14911,-16.61
14922,-18.14
14933,-20.06
14945,-22.18
14957,-23.99
14969,-24.83
14981,-24.19
14993,-21.88
15005,-18.16
15017,-13.61
15029,-8.84
15041,-4.4
15053,-0.57
15065,2.46
15077,4.63
15089,5.85
15101,6.13
15112,5.65
15123,4.74
15135,3.84
15147,3.27
15159,3.12
15171,3.21
15183,3.19
15195,2.73
15207,1.74
15219,0.38
15231,-1.07
15243,-2.33
15255,-3.36
15267,-4.34
15279,-5.5
15291,-6.96
15302,-8.54
15313,-9.7
15325,-9.79
15337,-8.36
15349,-5.38
15361,-1.35
15373,2.82
15385,6.21
15397,8.09
15409,8.18
15421,6.75
15433,4.39
15445,1.79
15457,-0.43
15469,-1.84
15481,-2.19
15492,-1.51
15503,-0.18
15515,1.08
15527,1.31
15539,-0.41
15551,-4.67
15563,-11.31
15575,-19.25
15587,-26.8
15599,-32.27
15611,-34.61
15623,-33.86
15635,-30.59
15647,-25.82
15659,-20.48
15671,-15.12
15682,-9.71
15693,-3.88
15705,2.63
15717,9.6
15729,16.35
15741,22.71
15753,28.5
15765,33.47
15777,37.25
15789,39.67
15801,40.85
15813,40.94
15825,39.88
15837,37.45
15849,34.57
15861,32.43
15872,32.05
15883,33.95
15895,38.43
15907,45.51
15919,54.57
15931,64.34
15943,73.23
15955,81.29
15967,89.19
15979,97.59
15991,106.7
16003,116.43
16015,126.36
16027,135.1
16039,140.46
16051,131.66
16062,103.15
16073,59.08
16085,12.15
16097,-24.99
16109,-46.54
16121,-53.86
16133,-52.24
16145,-47.19
16157,-41.65
16169,-34.28
16181,-22.75
16193,-6.26
16205,13.41
16217,32.94
16229,49.51
16241,60.64
16252,66.46
16263,69.01
16275,71.64
16287,76.02
16299,80.57
16311,81.42
16323,74.97
16335,60.21
16347,39.08
16359,15.47
16371,-7.18
16383,-27.01
16395,-44.63
16407,-62.33
16419,-81.57
16431,-101.73
16442,-120.58
16453,-136.17
16465,-147.72
16477,-156.14
16489,-162.81
16501,-168.6
16513,-173.61
16525,-176.5
16537,-175.59
16549,-170.39
16561,-162.3
16573,-153.41
16585,-145.6
16597,-139.71
16609,-135.25
16621,-131.2
16632,-124.97
16643,-113.52
16655,-94.75
16667,-68.64
16679,-36.73
16691,-1.68
16703,33.16
16715,68.21
16727,98.88
16739,119.84
16751,129.1
16763,129.55
16775,123.62
16787,112.49
16799,97.77
16811,81.55
16822,65.93
16833,51.84
16845,40.06
16857,30.81
16869,23.46
16881,16.76
16893,9.98
16905,3.23
16917,-2.95
16929,-7.98
16941,-12.0
16953,-14.81
16965,-16.16
16977,-16.21
16989,-15.55
17001,-14.61
17012,-13.39
17023,-11.81
17035,-10.08
17047,-9.16
17059,-9.93
17071,-12.96
17083,-18.25
17095,-25.07
17107,-31.74
17119,-36.09
17131,-36.46
17143,-32.26
17155,-24.4
17167,-14.41
17179,-4.02
17191,5.33
17202,12.74
17213,17.95
17225,21.22
17237,22.94
17249,23.49
17261,23.01
17273,21.62
17285,19.45
17297,16.63
17309,13.35
17321,9.9
17333,6.71
17345,4.25
17357,3.11
17369,3.91
17381,7.25
17392,13.4
17403,22.12
17415,32.59
17427,43.6
17439,53.83
17451,62.37
17463,68.79
17475,73.14
17487,75.59
17499,75.96
17511,73.43
17523,66.64
17535,54.18
17547,35.33
17559,10.83
17571,-16.82
17582,-43.6
17593,-64.91
17605,-76.94
17617,-77.82
17629,-68.26
17641,-51.36
17653,-31.44
17665,-12.64
17677,2.16
17689,11.83
17701,16.56
17713,17.24
17725,14.84
17737,10.16
17749,4.06
17761,-2.4
17772,-7.81
17783,-10.85
17795,-10.67
17807,-7.28
17819,-1.65
17831,4.82
17843,10.82
17855,15.63
17867,19.29
17879,22.3
17891,25.18
17903,28.06
17915,30.52
17927,31.83
17939,31.27
17951,28.55
17962,23.87
17973,17.96
17985,11.59
17997,5.39
18009,-0.39
18021,-5.82
18033,-11.09
18045,-16.29
18057,-21.21
18069,-25.45
18081,-28.4
18093,-29.62
18105,-28.94
18117,-26.58
18129,-23.09
18141,-19.21
18152,-15.54
18163,-12.41
18175,-9.84
18187,-7.69
18199,-5.89
18211,-4.54
18223,-3.88
18235,-4.08
18247,-5.02
18259,-6.23
18271,-7.08
18283,-7.04
18295,-6.0
18307,-4.27
18319,-2.38
18331,-0.81
18342,0.25
18353,0.84
18365,1.07
18377,0.92
18389,0.25
18401,-1.14
18413,-3.16
18425,-5.4
18437,-7.18
18449,-7.88
18461,-7.14
18473,-5.01
18485,-1.86
18497,1.84
18509,5.64
18521,9.16
18532,12.04
18543,13.84
18555,14.16
18567,12.79
18579,9.87
18591,5.92
18603,1.71
18615,-2.11
18627,-5.12
18639,-7.31
18651,-8.92
18663,-10.25
18675,-11.52
18687,-12.81
18699,-14.15
18711,-15.6
18722,-17.28
18733,-19.31
18745,-21.7
18757,-24.29
18769,-26.69
18781,-28.41
18793,-28.99
18805,-28.18
18817,-25.95
18829,-22.62
18841,-18.66
18853,-14.59
18865,-10.87
18877,-7.76
18889,-5.35
18901,-3.55
18912,-2.3
18923,-1.45
18935,-0.96
18947,-0.75
18959,-0.65
18971,-0.49
18983,-0.04
18995,0.82
19007,2.07
19019,3.57
19031,5.08
19043,6.34
19055,7.17
19067,7.5
19079,7.35
19091,6.81
19102,6.09
19113,5.48
19125,5.36
19137,6.11
19149,7.97
19161,10.94
19173,14.75
19185,18.92
19197,22.97
19209,26.52
19221,29.39
19233,31.54
19245,32.94
19257,33.54
19269,33.26
19281,32.06
19292,30.0
19303,27.3
19315,24.19
19327,20.83
19339,17.19
19351,13.16
19363,8.68
19375,3.91
19387,-0.73
19399,-4.74
19411,-7.8
19423,-9.95
19435,-11.61
19447,-13.36
19459,-15.59
19471,-18.27
19482,-20.94
19493,-22.91
19505,-23.62
19517,-22.84
19529,-20.8
19541,-17.96
19553,-14.8
19565,-11.65
19577,-8.67
19589,-5.93
19601,-3.52
19613,-1.64
19625,-0.54
19637,-0.35
19649,-1.07
19661,-2.47
19672,-4.26
19683,-6.19
19695,-8.11
19707,-9.97
19719,-11.76
19731,-13.56
19743,-15.48
19755,-17.68
19767,-20.32
19779,-23.47
19791,-27.04
19803,-30.74
19815,-34.1
19827,-36.54
19839,-37.47
19851,-36.33
19862,-32.74
19873,-26.63
19885,-18.34
19897,-8.69
19909,1.28
19921,10.45
19933,18.05
19945,23.68
19957,27.38
19969,29.38
19981,29.97
19993,29.4
20005,27.85
20017,25.52
20029,22.62
20041,19.36
20052,15.91
20063,12.37
20075,8.79
20087,5.17
20099,1.47
20111,-2.29
20123,-6.12
20135,-9.98
20147,-13.76
20159,-17.3
20171,-20.34
20183,-22.58
20195,-23.75
20207,-23.74
20219,-22.58
20231,-20.39
20242,-17.42
20253,-13.85
20265,-9.81
20277,-5.41
20289,-0.74
20301,4.04
20313,8.71
20325,13.01
20337,16.71
20349,19.62
20361,21.68
20373,22.87
20385,23.17
20397,22.56
20409,21.03
20421,18.64
20432,15.54
20443,11.95
20455,8.19
20467,4.55
20479,1.18
20491,-1.87
20503,-4.61
20515,-6.95
20527,-8.64
20539,-9.26
20551,-8.39
20563,-5.82
20575,-1.73
20587,3.26
20599,8.35
20611,12.86
20622,16.38
20633,18.86
20645,20.43
20657,21.21
20669,21.23
20681,20.39
20693,18.61
20705,16.01
20717,12.87
20729,9.58
20741,6.43
20753,3.55
20765,0.85
20777,-1.76
20789,-4.34
20801,-6.82
20812,-9.09
20823,-11.14
20835,-13.1
20847,-15.16
20859,-17.38
20871,-19.47
20883,-20.82
20895,-20.65
20907,-18.42
20919,-14.06
20931,-8.04
20943,-1.19
20955,5.66
20967,11.93
20979,17.35
20991,21.8
