seconds,BVP
11,146.57
23,167.55
35,189.94
47,212.37
59,232.73
71,247.77
83,253.47
95,246.65
107,226.43
119,192.1
131,143.89
143,82.93
155,12.09
167,-65.0
178,-144.83
189,-224.32
201,-300.41
213,-361.69
225,-393.25
237,-385.05
249,-340.3
261,-271.78
273,-193.32
285,-114.36
297,-39.8
309,25.47
321,84.44
333,136.99
345,180.65
357,212.5
368,231.68
379,239.36
391,237.78
403,228.5
415,213.67
427,195.94
439,175.65
451,152.03
463,124.35
475,93.24
487,60.68
499,29.14
511,1.07
523,-21.8
535,-38.42
547,-50.37
558,-60.74
569,-73.07
581,-90.03
593,-112.92
605,-142.0
617,-176.41
629,-214.78
641,-255.43
653,-297.72
665,-341.52
677,-386.79
689,-432.6
701,-477.18
713,-518.01
725,-552.45
737,-578.37
748,-594.8
759,-602.57
771,-603.78
783,-601.23
795,-597.69
807,-595.9
819,-598.06
831,-604.97
843,-615.02
855,-623.29
867,-622.51
879,-604.96
891,-565.54
903,-504.11
915,-426.26
927,-341.12
938,-258.02
949,-183.58
961,-120.05
973,-66.45
985,-20.55
997,19.4
1009,54.02
1021,83.33
1033,108.03
1045,130.12
1057,152.29
1069,177.06
1081,205.57
1093,237.12
1105,269.41
1117,299.37
1128,324.36
1139,342.53
1151,353.11
1163,355.81
1175,350.66
1187,337.86
1199,318.35
1211,294.7
1223,270.86
1235,250.92
1247,236.82
1259,226.8
1271,215.67
1283,197.53
1295,169.32
1307,133.24
1318,96.86
1329,70.03
1341,60.81
1353,72.18
1365,101.51
1377,142.29
1389,186.96
1401,228.7
1413,261.88
1425,281.82
1437,284.68
1449,268.82
1461,236.43
1473,194.36
1485,152.87
1497,121.97
1508,107.81
1519,110.0
1531,122.32
1543,135.93
1555,143.62
1567,143.12
1579,137.15
1591,130.86
1603,127.93
1615,128.13
1627,127.72
1639,121.97
1651,108.57
1663,89.3
1675,69.13
1687,53.29
1698,44.19
1709,40.18
1721,37.13
1733,31.43
1745,22.41
1757,12.83
1769,7.13
1781,8.4
1793,16.25
1805,26.9
1817,35.05
1829,36.68
1841,30.94
1853,20.19
1865,8.89
1877,1.73
1888,1.97
1899,10.5
1911,25.38
1923,42.26
1935,55.3
1947,59.01
1959,50.25
1971,30.2
1983,4.2
1995,-20.48
2007,-38.05
2019,-47.43
2031,-53.13
2043,-62.69
2055,-81.75
2067,-110.0
2078,-139.72
2089,-159.22
2101,-159.16
2113,-137.43
2125,-100.73
2137,-61.37
2149,-30.91
2161,-14.35
2173,-8.35
2185,-3.59
2197,9.5
2209,35.43
2221,71.52
2233,109.64
2245,140.53
2257,157.75
2268,159.84
2279,149.51
2291,131.62
2303,110.74
2315,90.2
2327,72.01
2339,57.39
2351,47.64
2363,43.85
2375,46.35
2387,54.03
2399,64.28
2411,73.85
2423,79.58
2435,79.27
2447,71.44
2458,55.42
2469,31.28
2481,0.36
2493,-34.01
2505,-66.9
2517,-92.94
2529,-109.15
2541,-116.48
2553,-119.9
2565,-125.68
2577,-137.62
2589,-154.67
2601,-170.92
2613,-178.86
2625,-172.89
2637,-152.13
2648,-120.07
2659,-82.49
2671,-44.96
2683,-11.88
2695,13.0
2707,26.42
2719,25.75
2731,11.35
2743,-11.47
2755,-32.64
2767,-40.13
2779,-25.05
2791,13.94
2803,69.01
2815,125.54
2827,166.99
2838,180.42
2849,160.5
2861,110.8
2873,42.68
2885,-28.12
2897,-85.38
2909,-116.65
2921,-116.33
2933,-87.1
2945,-39.34
2957,12.05
2969,51.84
2981,69.04
2993,59.54
3005,26.67
3017,-20.73
3028,-71.21
3039,-114.0
3051,-141.74
3063,-151.75
3075,-146.47
3087,-131.73
3099,-114.3
3111,-99.43
3123,-89.16
3135,-82.77
3147,-78.26
3159,-74.54
3171,-72.18
3183,-72.73
3195,-76.92
3207,-83.18
3218,-87.76
3229,-86.46
3241,-77.15
3253,-60.83
3265,-41.51
3277,-24.42
3289,-13.68
3301,-10.62
3313,-13.26
3325,-16.98
3337,-15.92
3349,-5.01
3361,18.42
3373,53.41
3385,95.55
3397,138.45
3408,176.29
3419,206.38
3431,230.09
3443,251.63
3455,274.95
3467,300.6
3479,324.37
3491,338.43
3503,334.85
3515,309.05
3527,262.57
3539,203.31
3551,142.97
3563,92.7
3575,58.97
3587,41.24
3598,32.4
3609,22.65
3621,3.58
3633,-28.14
3645,-69.34
3657,-112.66
3669,-150.64
3681,-179.37
3693,-199.52
3705,-214.19
3717,-224.71
3729,-228.6
3741,-219.68
3753,-191.26
3765,-140.82
3777,-73.07
3788,0.8
3799,66.25
3811,110.21
3823,124.83
3835,107.6
3847,61.39
3859,-5.77
3871,-82.41
3883,-155.54
3895,-212.15
3907,-242.46
3919,-242.34
3931,-213.26
3943,-163.28
3955,-103.04
3967,-40.37
3978,21.46
3989,82.04
4001,141.83
4013,198.2
4025,244.03
4037,271.97
4049,274.62
4061,247.86
4073,193.85
4085,118.6
4097,27.51
4109,-74.81
4121,-184.72
4133,-296.39
4145,-387.25
4157,-432.69
4168,-422.64
4179,-365.13
4191,-277.76
4203,-186.41
4215,-98.28
4227,-16.0
4239,54.93
4251,112.41
4263,155.75
4275,183.68
4287,202.12
4299,220.92
4311,244.22
4323,259.72
4335,274.16
4347,273.28
4358,247.37
4369,190.37
4381,104.03
4393,-2.79
4405,-118.41
4417,-236.3
4429,-350.99
4441,-445.75
4453,-499.26
4465,-493.32
4477,-431.0
4489,-332.02
4501,-230.24
4513,-132.99
4525,-40.94
4537,50.09
4548,149.04
4559,256.63
4571,370.43
4583,468.18
4595,525.47
4607,527.35
4619,476.49
4631,386.94
4643,278.56
4655,170.38
4667,71.09
4679,-16.51
4691,-95.06
4703,-169.32
4715,-237.02
4727,-291.77
4738,-330.59
4749,-355.03
4761,-369.58
4773,-383.86
4785,-392.54
4797,-394.14
4809,-383.39
4821,-353.57
4833,-301.26
4845,-230.74
4857,-156.21
4869,-84.12
4881,-21.53
4893,27.37
4905,61.22
4917,85.19
4928,108.76
4939,135.19
4951,164.96
4963,194.11
4975,217.14
4987,228.19
4999,224.81
5011,206.63
5023,175.92
5035,134.92
5047,83.97
5059,24.12
5071,-40.39
5083,-99.53
5095,-140.5
5107,-151.81
5118,-129.6
5129,-78.69
5141,-10.78
5153,60.17
5165,124.18
5177,176.96
5189,218.74
5201,249.74
5213,267.41
5225,266.17
5237,241.04
5249,191.56
5261,124.41
5273,53.23
5285,-5.85
5297,-39.33
5308,-41.18
5319,-14.35
5331,30.64
5343,79.6
5355,118.74
5367,137.88
5379,132.36
5391,102.21
5403,50.99
5415,-15.79
5427,-91.4
5439,-167.5
5451,-234.09
5463,-280.34
5475,-297.08
5487,-279.7
5498,-231.04
5509,-161.64
5521,-87.42
5533,-25.52
5545,10.92
5557,16.81
5569,-3.87
5581,-39.67
5593,-75.75
5605,-98.46
5617,-98.96
5629,-75.25
5641,-32.24
5653,19.6
5665,66.75
5677,95.51
5688,95.34
5699,61.89
5711,-0.95
5723,-81.04
5735,-161.0
5747,-223.91
5759,-259.12
5771,-265.44
5783,-250.04
5795,-223.76
5807,-196.05
5819,-171.75
5831,-151.32
5843,-133.03
5855,-115.04
5867,-95.87
5878,-73.52
5889,-45.02
5901,-6.83
5913,42.84
5925,101.77
5937,163.2
5949,217.34
5961,254.3
5973,267.45
5985,255.78
5997,224.27
6009,182.77
6021,143.5
6033,117.35
6045,110.92
6057,124.36
6068,151.75
6079,183.6
6091,210.41
6103,225.55
6115,226.38
6127,213.81
6139,190.66
6151,160.15
6163,124.66
6175,85.54
6187,43.37
6199,-1.04
6211,-45.92
6223,-88.17
6235,-123.83
6247,-149.35
6258,-162.64
6269,-163.55
6281,-153.63
6293,-135.45
6305,-112.0
6317,-86.1
6329,-59.86
6341,-34.38
6353,-9.53
6365,15.78
6377,42.85
6389,71.77
6401,100.5
6413,124.93
6425,140.63
6437,144.46
6448,135.93
6459,117.28
6471,92.87
6483,68.37
6495,50.27
6507,44.95
6519,57.83
6531,91.5
6543,143.84
6555,207.4
6567,270.21
6579,318.79
6591,341.74
6603,332.69
6615,291.31
6627,222.79
6638,135.93
6649,41.33
6661,-49.68
6673,-126.07
6685,-178.06
6697,-199.01
6709,-187.02
6721,-146.63
6733,-88.08
6745,-24.88
6757,30.29
6769,69.68
6781,92.27
6793,102.81
6805,108.66
6817,116.21
6828,128.01
6839,142.52
6851,155.11
6863,160.44
6875,154.59
6887,135.96
6899,105.82
6911,67.99
6923,28.19
6935,-6.95
6947,-30.86
6959,-38.47
6971,-27.16
6983,2.35
6995,44.99
7007,91.92
7018,132.29
7029,156.01
7041,156.83
7053,134.05
7065,92.2
7077,38.51
7089,-19.99
7101,-80.06
7113,-141.83
7125,-206.48
7137,-273.23
7149,-337.51
7161,-391.71
7173,-427.77
7185,-440.43
7197,-429.18
7208,-399.93
7219,-360.99
7231,-318.97
7243,-275.4
7255,-227.17
7267,-170.22
7279,-103.35
7291,-29.99
7303,42.84
7315,104.06
7327,143.87
7339,156.23
7351,140.7
7363,101.15
7375,43.25
7387,-25.96
7398,-97.58
7409,-159.92
7421,-203.94
7433,-224.91
7445,-225.15
7457,-213.64
7469,-204.42
7481,-213.27
7493,-252.01
7505,-324.39
7517,-402.91
7529,-452.66
7541,-447.56
7553,-388.55
7565,-298.3
7577,-201.9
7588,-114.65
7599,-40.48
7611,22.73
7623,79.21
7635,128.78
7647,168.48
7659,195.3
7671,210.44
7683,219.32
7695,228.16
7707,243.33
7719,266.26
7731,294.67
7743,321.44
7755,338.4
7767,338.74
7778,320.98
7789,288.32
7801,241.96
7813,190.96
7825,142.54
7837,100.43
7849,63.28
7861,27.55
7873,-9.8
7885,-47.16
7897,-78.63
7909,-96.27
7921,-93.9
7933,-71.86
7945,-36.57
7957,-0.41
7968,28.87
7979,46.53
7991,53.61
8003,54.96
8015,56.8
8027,63.88
8039,77.14
8051,95.35
8063,116.15
8075,137.38
8087,155.91
8099,167.88
8111,168.24
8123,153.18
8135,122.29
8147,78.54
8158,28.21
8169,-21.74
8181,-66.19
8193,-104.76
8205,-134.3
8217,-155.55
8229,-170.27
8241,-179.83
8253,-185.02
8265,-186.02
8277,-182.82
8289,-175.19
8301,-162.91
8313,-144.89
8325,-120.72
8337,-89.9
8348,-52.97
8359,-11.99
8371,29.66
8383,67.66
8395,97.36
8407,113.9
8419,113.06
8431,91.69
8443,50.05
8455,-7.73
8467,-74.16
8479,-140.75
8491,-201.07
8503,-252.74
8515,-297.7
8527,-339.75
8538,-381.94
8549,-423.34
8561,-458.96
8573,-481.57
8585,-484.59
8597,-464.23
8609,-419.73
8621,-353.09
8633,-268.44
8645,-172.9
8657,-76.68
8669,7.4
8681,66.34
8693,90.66
8705,77.02
8717,30.15
8728,-38.44
8739,-113.23
8751,-178.42
8763,-220.76
8775,-231.69
8787,-208.42
8799,-154.2
8811,-77.95
8823,8.0
8835,90.35
8847,158.34
8859,205.77
8871,231.67
8883,239.3
8895,234.07
8907,221.77
8918,206.7
8929,191.45
8941,176.76
8953,162.38
8965,148.03
8977,134.01
8989,121.78
9001,113.27
9013,110.62
9025,115.01
9037,126.47
9049,143.83
9061,165.36
9073,189.79
9085,216.73
9097,246.89
9108,281.02
9119,319.9
9131,363.68
9143,412.06
9155,463.72
9167,515.75
9179,563.0
9191,598.17
9203,613.99
9215,605.9
9227,575.03
9239,528.48
9251,476.77
9263,429.19
9275,389.65
9287,355.56
9298,319.95
9309,276.24
9321,221.53
9333,157.55
9345,88.66
9357,18.49
9369,-52.21
9381,-125.16
9393,-202.36
9405,-283.63
9417,-365.64
9429,-442.94
9441,-510.37
9453,-565.09
9465,-607.07
9477,-638.45
9488,-662.2
9499,-681.07
9511,-696.71
9523,-709.03
9535,-715.83
9547,-712.93
9559,-695.11
9571,-658.04
9583,-600.47
9595,-525.52
9607,-440.36
9619,-354.08
9631,-274.76
9643,-207.44
9655,-153.56
9667,-112.28
9678,-82.25
9689,-62.94
9701,-54.28
9713,-55.94
9725,-66.06
9737,-81.06
9749,-96.68
9761,-108.97
9773,-115.12
9785,-113.52
9797,-103.64
9809,-85.25
9821,-58.34
9833,-23.33
9845,18.68
9857,65.21
9868,112.66
9879,156.67
9891,193.29
9903,220.08
9915,236.86
9927,245.85
9939,250.66
9951,254.7
9963,259.31
9975,263.26
9987,262.78
9999,253.31
10011,231.32
10023,195.68
10035,148.68
10047,95.64
10058,44.23
10069,3.1
10081,-19.7
10093,-18.87
10105,6.76
10117,53.69
10129,114.55
10141,180.23
10153,241.94
10165,292.96
10177,329.3
10189,349.53
10201,354.08
10213,345.06
10225,326.39
10237,303.69
10248,283.75
10259,272.26
10271,271.89
10283,281.24
10295,295.42
10307,307.78
10319,312.53
10331,306.79
10343,291.45
10355,271.73
10367,253.92
10379,243.05
10391,241.2
10403,247.03
10415,256.47
10427,264.33
10438,266.4
10449,261.01
10461,250.92
10473,240.04
10485,231.39
10497,226.47
10509,225.48
10521,228.24
10533,234.62
10545,244.82
10557,258.71
10569,277.31
10581,298.45
10593,316.81
10605,326.21
10617,322.44
10628,304.69
10639,274.9
10651,236.45
10663,192.64
10675,148.75
10687,106.79
10699,65.52
10711,22.34
10723,-24.27
10735,-73.74
10747,-124.09
10759,-173.05
10771,-236.71
10783,-315.18
10795,-395.49
10807,-460.34
10818,-500.27
10829,-516.1
10841,-513.95
10853,-500.47
10865,-480.98
10877,-458.89
10889,-433.12
10901,-403.98
10913,-373.7
10925,-345.3
10937,-320.41
10949,-298.63
10961,-278.25
10973,-257.38
10985,-234.09
10997,-204.7
11008,-168.46
11019,-127.1
11031,-84.22
11043,-43.16
11055,-5.65
11067,27.05
11079,53.75
11091,73.77
11103,88.35
11115,97.16
11127,99.74
11139,94.73
11151,81.72
11163,61.34
11175,35.1
11187,4.73
11198,-27.6
11209,-58.72
11221,-87.39
11233,-112.42
11245,-134.59
11257,-154.88
11269,-174.45
11281,-194.56
11293,-216.78
11305,-243.12
11317,-264.52
11329,-276.84
11341,-277.33
11353,-266.62
11365,-246.56
11377,-220.0
11388,-190.24
11399,-160.44
11411,-133.49
11423,-112.13
11435,-100.4
11447,-91.78
11459,-83.7
11471,-73.41
11483,-57.71
11495,-33.45
11507,-0.25
11519,37.85
11531,73.3
11543,97.29
11555,105.09
11567,95.97
11578,74.78
11589,48.15
11601,21.32
11613,-2.12
11625,-19.89
11637,-30.55
11649,-33.43
11661,-27.8
11673,-14.84
11685,4.05
11697,27.22
11709,53.63
11721,83.52
11733,119.16
11745,162.48
11757,215.07
11768,277.56
11779,347.3
11791,418.39
11803,481.59
11815,526.54
11827,545.18
11839,534.53
11851,498.15
11863,444.93
11875,385.87
11887,329.96
11899,282.21
11911,243.26
11923,211.17
11935,183.69
11947,159.15
11958,136.75
11969,116.07
11981,96.22
11993,75.64
12005,52.95
12017,27.51
12029,-0.16
12041,-28.35
12053,-55.14
12065,-79.06
12077,-99.2
12089,-115.6
12101,-128.82
12113,-139.33
12125,-147.23
12137,-152.11
12148,-153.27
12159,-150.2
12171,-142.84
12183,-131.46
12195,-116.77
12207,-99.56
12219,-80.38
12231,-59.68
12243,-37.75
12255,-14.97
12267,8.24
12279,31.33
12291,53.96
12303,75.85
12315,96.84
12327,116.73
12338,134.41
12349,147.86
12361,153.88
12373,148.97
12385,129.68
12397,93.87
12409,41.1
12421,-27.43
12433,-108.87
12445,-199.79
12457,-296.26
12469,-394.16
12481,-489.17
12493,-577.39
12505,-655.62
12517,-721.6
12528,-773.58
12539,-809.34
12551,-825.68
12563,-818.42
12575,-784.1
12587,-722.43
12599,-638.09
12611,-540.46
12623,-441.44
12635,-352.04
12647,-279.21
12659,-225.07
12671,-187.52
12683,-162.45
12695,-145.68
12707,-133.77
12718,-124.04
12729,-114.21
12741,-102.65
12753,-88.38
12765,-71.83
12777,-54.51
12789,-37.89
12801,-22.8
12813,-8.37
12825,7.75
12837,28.42
12849,55.56
12861,89.69
12873,129.57
12885,172.57
12897,216.08
12908,258.24
12919,298.45
12931,337.2
12943,375.43
12955,413.94
12967,453.13
12979,492.08
12991,527.99
13003,555.98
13015,570.17
13027,565.51
13039,539.83
13051,494.78
13063,435.38
13075,368.28
13087,299.52
13098,233.32
13109,171.93
13121,116.81
13133,69.68
13145,32.4
13157,5.47
13169,-12.99
13181,-27.85
13193,-45.23
13205,-70.64
13217,-107.08
13229,-153.53
13241,-204.85
13253,-252.36
13265,-286.32
13277,-297.95
13288,-282.55
13299,-241.46
13311,-182.68
13323,-119.92
13335,-67.7
13347,-35.86
13359,-25.44
13371,-28.4
13383,-31.44
13395,-22.46
13407,4.75
13419,48.72
13431,101.66
13443,154.86
13455,203.25
13467,246.8
13478,288.67
13489,332.95
13501,375.4
13513,405.73
13525,415.87
13537,400.54
13549,360.82
13561,304.49
13573,243.22
13585,187.78
13597,143.62
13609,109.08
13621,78.09
13633,44.16
13645,3.46
13657,-42.61
13668,-88.19
13679,-126.07
13691,-151.09
13703,-162.14
13715,-162.41
13727,-156.79
13739,-149.86
13751,-144.48
13763,-141.1
13775,-137.98
13787,-133.02
13799,-125.8
13811,-118.29
13823,-114.8
13835,-119.6
13847,-135.48
13858,-162.65
13869,-199.27
13881,-242.35
13893,-289.21
13905,-337.71
13917,-384.88
13929,-425.9
13941,-454.46
13953,-465.9
13965,-460.88
13977,-446.57
13989,-434.0
14001,-432.44
14013,-443.65
14025,-460.23
14037,-468.94
14048,-457.39
14059,-420.25
14071,-361.33
14083,-290.18
14095,-216.82
14107,-147.29
14119,-82.63
14131,-21.35
14143,37.29
14155,91.71
14167,138.76
14179,175.71
14191,202.45
14203,221.38
14215,236.36
14227,250.63
14238,265.73
14249,280.93
14261,294.02
14273,302.62
14285,305.14
14297,301.33
14309,291.81
14321,277.69
14333,259.88
14345,239.18
14357,216.54
14369,193.4
14381,171.85
14393,155.03
14405,146.62
14417,150.49
14428,169.72
14439,205.06
14451,253.74
14463,309.17
14475,362.15
14487,403.12
14499,425.63
14511,427.54
14523,410.94
14535,380.07
14547,338.96
14559,289.83
14571,233.05
14583,168.74
14595,98.47
14607,26.12
14618,-42.96
14629,-103.76
14641,-153.38
14653,-191.64
14665,-220.45
14677,-241.6
14689,-255.09
14701,-257.49
14713,-242.88
14725,-206.15
14737,-146.73
14749,-70.77
14761,9.71
14773,80.74
14785,131.32
14797,156.31
14808,157.31
14819,140.88
14831,114.41
14843,83.54
14855,51.69
14867,21.26
14879,-5.17
14891,-24.7
14903,-37.14
14915,-48.86
14927,-66.54
14939,-93.62
14951,-126.77
14963,-157.73
14975,-177.9
14987,-182.23
14998,-169.2
15009,-142.5
15021,-107.74
15033,-69.22
15045,-29.77
15057,8.86
15069,44.42
15081,76.26
15093,102.46
15105,123.3
15117,138.27
15129,147.19
15141,150.48
15153,148.0
15165,139.02
15177,122.29
15188,96.86
15199,57.46
15211,8.74
15223,-43.92
15235,-94.46
15247,-136.1
15259,-163.1
15271,-172.79
15283,-167.21
15295,-152.25
15307,-138.45
15319,-127.27
15331,-118.51
15343,-109.11
15355,-95.1
15367,-74.07
15378,-47.18
15389,-18.46
15401,8.05
15413,30.59
15425,52.08
15437,75.86
15449,105.18
15461,139.25
15473,173.98
15485,202.49
15497,216.84
15509,210.98
15521,183.24
15533,138.39
15545,84.74
15557,32.77
15568,-8.35
15579,-33.75
15591,-44.34
15603,-45.92
15615,-46.18
15627,-51.07
15639,-61.97
15651,-77.37
15663,-93.75
15675,-108.07
15687,-119.16
15699,-127.88
15711,-136.09
15723,-145.5
15735,-157.3
15747,-171.15
15758,-186.2
15769,-200.41
15781,-210.32
15793,-211.65
15805,-200.62
15817,-175.72
15829,-138.75
15841,-95.19
15853,-51.93
15865,-15.21
15877,11.03
15889,25.89
15901,30.7
15913,27.64
15925,17.29
15937,0.63
15948,-23.49
15959,-55.43
15971,-93.71
15983,-134.73
15995,-173.41
16007,-204.36
16019,-223.31
16031,-229.43
16043,-225.94
16055,-219.51
16067,-217.25
16079,-223.3
16091,-235.83
16103,-246.95
16115,-245.58
16127,-222.41
16138,-174.63
16149,-107.35
16161,-31.24
16173,42.59
16185,107.0
16197,160.65
16209,206.06
16221,245.69
16233,278.6
16245,300.06
16257,304.47
16269,288.73
16281,255.02
16293,210.2
16305,162.64
16317,118.88
16328,81.45
16339,49.13
16351,19.0
16363,-11.55
16375,-44.57
16387,-81.79
16399,-125.38
16411,-176.87
16423,-234.78
16435,-292.83
16447,-340.99
16459,-369.48
16471,-373.8
16483,-357.65
16495,-330.69
16507,-302.76
16518,-277.89
16529,-252.16
16541,-216.96
16553,-165.42
16565,-97.62
16577,-21.24
16589,52.55
16601,115.21
16613,164.67
16625,204.88
16637,241.93
16649,279.54
16661,317.35
16673,351.54
16685,377.96
16697,394.76
16708,403.43
16719,407.48
16731,411.22
16743,417.58
16755,427.06
16767,437.74
16779,445.33
16791,444.01
16803,427.97
16815,393.68
16827,341.13
16839,274.83
16851,202.54
16863,132.92
16875,72.72
16887,24.84
16898,-11.67
16909,-40.3
16921,-64.79
16933,-88.07
16945,-111.45
16957,-135.83
16969,-162.76
16981,-194.61
16993,-233.61
17005,-279.52
17017,-328.24
17029,-371.5
17041,-399.32
17053,-403.54
17065,-381.55
17077,-337.73
17088,-281.54
17099,-224.21
17111,-174.22
17123,-135.66
17135,-108.2
17147,-89.62
17159,-78.11
17171,-73.62
17183,-77.56
17195,-91.06
17207,-114.18
17219,-145.16
17231,-181.22
17243,-219.05
17255,-255.47
17267,-288.06
17278,-315.1
17289,-335.69
17301,-349.13
17313,-355.1
17325,-352.99
17337,-342.35
17349,-322.7
17361,-293.73
17373,-255.69
17385,-209.41
17397,-156.9
17409,-100.83
17421,-44.56
17433,9.01
17445,57.78
17457,100.82
17468,138.27
17479,171.01
17491,200.64
17503,229.11
17515,258.44
17527,289.61
17539,321.44
17551,350.09
17563,369.66
17575,374.94
17587,364.07
17599,340.72
17611,313.14
17623,291.1
17635,282.27
17647,289.26
17658,309.72
17669,337.37
17681,364.77
17693,384.77
17705,392.13
17717,384.27
17729,362.0
17741,329.49
17753,293.14
17765,259.92
17777,234.76
17789,219.31
17801,211.59
17813,207.71
17825,203.18
17837,194.18
17848,177.49
17859,150.51
17871,112.04
17883,63.27
17895,9.03
17907,-42.69
17919,-83.29
17931,-107.01
17943,-114.05
17955,-110.87
17967,-107.51
17979,-112.48
17991,-128.24
18003,-149.85
18015,-167.21
18027,-170.34
18038,-153.88
18049,-119.53
18061,-74.17
18073,-26.1
18085,18.53
18097,57.28
18109,90.22
18121,118.15
18133,141.46
18145,160.57
18157,176.49
18169,191.06
18181,205.93
18193,221.3
18205,235.93
18217,247.0
18228,251.91
18239,250.16
18251,244.65
18263,240.86
18275,244.65
18287,259.58
18299,285.19
18311,318.26
18323,352.24
18335,379.85
18347,396.3
18359,401.91
18371,401.48
18383,401.42
18395,405.96
18407,415.34
18418,428.95
18429,442.84
18441,451.6
18453,450.68
18465,438.32
18477,415.35
18489,383.76
18501,345.46
18513,302.66
18525,262.89
18537,231.64
18549,210.75
18561,198.87
18573,193.54
18585,192.2
18597,192.0
18608,189.39
18619,181.01
18631,170.19
18643,157.77
18655,140.88
18667,114.7
18679,76.3
18691,26.02
18703,-33.21
18715,-97.69
18727,-198.61
18739,-337.15
18751,-487.19
18763,-612.25
18775,-690.47
18787,-720.46
18798,-711.66
18809,-674.97
18821,-619.31
18833,-550.95
18845,-468.94
18857,-375.79
18869,-278.34
18881,-186.28
18893,-108.35
18905,-48.57
18917,-6.82
18929,19.41
18941,33.71
18953,43.5
18965,51.37
18977,53.48
18988,41.96
18999,9.59
19011,-45.41
19023,-116.81
19035,-194.1
19047,-265.57
19059,-318.83
19071,-348.86
19083,-359.58
19095,-361.12
19107,-364.76
19119,-378.71
19131,-406.73
19143,-448.02
19155,-496.76
19167,-541.56
19178,-571.38
19189,-579.66
19201,-566.51
19213,-538.84
19225,-509.35
19237,-493.41
19249,-503.41
19261,-541.91
19273,-598.32
19285,-653.35
19297,-686.78
19309,-684.01
19321,-640.37
19333,-562.14
19345,-464.13
19357,-362.48
19368,-267.51
19379,-179.57
19391,-92.11
19403,1.77
19415,104.87
19427,214.23
19439,321.83
19451,417.14
19463,484.46
19475,505.16
19487,475.31
19499,411.81
19511,338.05
19523,267.91
19535,203.59
19547,145.25
19558,86.85
19569,28.45
19581,-24.68
19593,-65.86
19605,-92.5
19617,-108.67
19629,-123.04
19641,-142.66
19653,-170.2
19665,-203.88
19677,-237.53
19689,-262.86
19701,-272.28
19713,-262.54
19725,-236.51
19737,-201.04
19748,-163.43
19759,-128.96
19771,-100.46
19783,-77.71
19795,-58.41
19807,-39.35
19819,-18.45
19831,4.13
19843,26.74
19855,47.86
19867,66.83
19879,83.82
19891,100.0
19903,117.04
19915,136.59
19927,159.57
19938,185.59
19949,213.28
19961,241.13
19973,267.74
19985,291.99
19997,313.35
20009,332.07
20021,348.81
20033,364.37
20045,379.22
20057,393.17
20069,405.73
20081,416.65
20093,426.05
20105,434.58
20117,442.8
20128,450.23
20139,454.9
20151,453.69
20163,443.5
20175,422.32
20187,389.98
20199,347.65
20211,296.99
20223,239.69
20235,177.46
20247,112.64
20259,49.03
20271,-8.69
20283,-56.02
20295,-90.26
20307,-111.36
20318,-121.52
20329,-123.51
20341,-119.53
20353,-110.86
20365,-98.49
20377,-84.39
20389,-71.36
20401,-62.36
20413,-59.01
20425,-60.85
20437,-65.45
20449,-69.71
20461,-70.98
20473,-67.72
20485,-59.61
20497,-47.32
20508,-32.31
20519,-16.79
20531,-3.69
20543,4.33
20555,5.97
20567,2.77
20579,-1.11
20591,-0.55
20603,7.76
20615,23.49
20627,42.55
20639,59.13
20651,68.52
20663,69.24
20675,63.41
20687,54.99
20698,47.7
20709,43.07
20721,40.1
20733,35.74
20745,26.16
20757,8.16
20769,-19.81
20781,-57.0
20793,-100.47
20805,-145.7
20817,-188.31
20829,-225.51
20841,-257.04
20853,-284.48
20865,-309.05
20877,-329.68
20888,-342.28
20899,-341.69
20911,-324.81
20923,-293.19
20935,-252.93
20947,-211.77
20959,-174.88
20971,-142.05
20983,-108.25
20995,-66.72
