seconds,BVP
10,-28.49
22,-28.8
34,-32.28
46,-38.53
57,-46.84
68,-56.64
80,-67.63
92,-79.75
104,-92.97
116,-107.13
128,-121.91
140,-136.95
152,-151.98
164,-166.65
176,-180.23
188,-191.25
200,-197.39
212,-195.94
224,-184.62
236,-162.51
247,-130.6
258,-91.56
270,-48.84
282,-5.66
294,35.83
306,74.59
318,110.2
330,142.07
342,168.74
354,188.02
366,197.68
378,196.49
390,185.22
402,166.8
414,145.83
426,127.4
437,115.78
448,113.53
460,121.16
472,137.5
484,160.17
496,185.96
508,211.08
520,231.55
532,243.71
544,245.22
556,235.78
568,217.53
580,194.37
592,170.74
604,150.24
616,134.72
627,124.09
638,116.77
650,110.32
662,101.96
674,89.04
686,69.57
698,43.0
710,10.84
722,-23.31
734,-54.52
746,-78.07
758,-90.86
770,-92.33
782,-84.34
794,-70.3
806,-54.0
817,-38.71
828,-26.63
840,-18.68
852,-14.49
864,-12.42
876,-9.94
888,-4.33
900,6.38
912,22.69
924,43.16
936,64.82
948,83.87
960,96.66
972,100.57
984,94.58
996,79.48
1007,57.55
1018,31.71
1030,4.77
1042,-21.38
1054,-45.9
1066,-68.77
1078,-90.15
1090,-109.91
1102,-127.56
1114,-142.42
1126,-154.08
1138,-162.55
1150,-168.07
1162,-170.65
1174,-169.89
1186,-164.91
1197,-155.0
1208,-140.08
1220,-121.1
1232,-99.94
1244,-78.86
1256,-59.84
1268,-44.16
1280,-32.22
1292,-23.61
1304,-17.39
1316,-12.29
1328,-7.06
1340,-0.78
1352,6.53
1364,13.51
1376,17.55
1387,15.42
1398,4.39
1410,-16.86
1422,-47.74
1434,-85.91
1446,-127.87
1458,-169.53
1470,-206.66
1482,-235.31
1494,-252.18
1506,-255.2
1518,-244.04
1530,-220.25
1542,-186.94
1554,-148.17
1566,-108.21
1577,-71.13
1588,-40.31
1600,-18.1
1612,-5.34
1624,-1.16
1636,-3.16
1648,-8.05
1660,-12.77
1672,-15.26
1684,-14.73
1696,-11.31
1708,-5.45
1720,2.59
1732,12.83
1744,25.31
1756,39.81
1767,55.68
1778,71.97
1790,87.56
1802,101.38
1814,112.52
1826,120.4
1838,124.81
1850,125.84
1862,123.82
1874,119.26
1886,112.78
1898,105.13
1910,97.1
1922,89.42
1934,82.54
1946,76.52
1957,71.15
1968,66.29
1980,62.14
1992,59.4
2004,58.97
2016,61.41
2028,66.53
2040,73.26
2052,80.11
2064,85.72
2076,89.37
2088,91.15
2100,91.71
2112,91.79
2124,91.88
2136,91.99
2147,91.63
2158,90.08
2170,86.6
2182,80.77
2194,72.59
2206,62.52
2218,51.32
2230,39.65
2242,27.97
2254,16.37
2266,4.81
2278,-6.84
2290,-18.71
2302,-30.99
2314,-43.92
2326,-57.63
2337,-72.06
2348,-86.84
2360,-101.46
2372,-115.48
2384,-128.61
2396,-140.41
2408,-149.85
2420,-155.05
2432,-153.69
2444,-144.08
2456,-126.36
2468,-103.18
2480,-79.2
2492,-59.67
2504,-48.48
2516,-46.81
2527,-52.9
2538,-62.81
2550,-71.94
2562,-76.25
2574,-73.03
2586,-61.11
2598,-40.68
2610,-13.07
2622,19.42
2634,53.83
2646,87.1
2658,116.84
2670,142.04
2682,163.14
2694,181.57
2706,198.76
2717,215.08
2728,229.54
2740,240.02
2752,244.18
2764,240.29
2776,227.63
2788,206.7
2800,179.21
2812,148.06
2824,117.05
2836,90.05
2848,69.55
2860,55.59
2872,45.42
2884,34.66
2896,19.35
2907,-2.21
2918,-28.86
2930,-57.64
2942,-85.76
2954,-112.11
2966,-137.43
2978,-162.9
2990,-188.5
3002,-211.99
3014,-229.46
3026,-236.89
3038,-231.81
3050,-214.3
3062,-186.83
3074,-153.29
3086,-117.85
3097,-84.09
3108,-54.42
3120,-30.01
3132,-10.88
3144,3.89
3156,15.68
3168,25.79
3180,34.9
3192,42.94
3204,49.37
3216,53.75
3228,56.04
3240,56.63
3252,55.87
3264,53.48
3276,48.52
3287,39.64
3298,25.81
3310,7.12
3322,-15.08
3334,-38.45
3346,-60.51
3358,-79.51
3370,-94.95
3382,-107.5
3394,-118.66
3406,-129.96
3418,-142.24
3430,-155.22
3442,-167.4
3454,-176.36
3466,-179.64
3477,-175.46
3488,-163.36
3500,-144.45
3512,-121.05
3524,-96.05
3536,-72.22
3548,-51.69
3560,-35.66
3572,-24.48
3584,-17.76
3596,-14.56
3608,-13.62
3620,-13.52
3632,-12.98
3644,-11.15
3656,-7.77
3667,-3.16
3678,1.98
3690,6.9
3702,11.0
3714,13.92
3726,15.44
3738,15.41
3750,13.63
3762,10.05
3774,4.81
3786,-1.64
3798,-8.68
3810,-15.73
3822,-22.48
3834,-29.0
3846,-35.7
3857,-43.22
3868,-52.26
3880,-63.34
3892,-76.72
3904,-92.19
3916,-109.07
3928,-126.22
3940,-142.14
3952,-155.11
3964,-163.38
3976,-165.43
3988,-160.24
4000,-147.59
4012,-128.29
4024,-104.14
4036,-77.49
4047,-50.74
4058,-25.7
4070,-3.31
4082,16.27
4094,33.31
4106,48.07
4118,60.6
4130,70.81
4142,78.7
4154,84.56
4166,88.99
4178,92.81
4190,96.74
4202,101.23
4214,106.39
4226,112.01
4237,117.76
4248,123.27
4260,128.27
4272,132.63
4284,136.43
4296,139.82
4308,142.92
4320,145.58
4332,147.32
4344,147.38
4356,145.04
4368,139.91
4380,132.18
4392,122.59
4404,112.11
4416,101.52
4427,91.18
4438,81.0
4450,70.65
4462,59.95
4474,49.01
4486,38.28
4498,28.2
4510,19.03
4522,10.74
4534,3.13
4546,-3.8
4558,-9.53
4570,-12.82
4582,-12.05
4594,-5.6
4606,7.62
4617,27.91
4628,54.82
4640,87.43
4652,124.57
4664,164.81
4676,206.1
4688,245.49
4700,279.2
4712,303.5
4724,315.95
4736,316.38
4748,307.42
4760,293.62
4772,280.05
4784,270.64
4796,267.21
4807,269.38
4818,275.45
4830,283.26
4842,291.09
4854,297.8
4866,302.59
4878,304.8
4890,303.71
4902,298.74
4914,289.63
4926,276.72
4938,260.77
4950,242.91
4962,224.25
4974,205.67
4986,187.64
4997,170.25
5008,153.3
5020,136.44
5032,119.36
5044,101.87
5056,84.01
5068,65.98
5080,48.01
5092,30.27
5104,12.77
5116,-4.73
5128,-22.62
5140,-41.43
5152,-61.84
5164,-84.66
5176,-110.77
5187,-140.76
5198,-174.38
5210,-210.13
5222,-245.1
5234,-275.48
5246,-297.61
5258,-309.08
5270,-309.53
5282,-300.57
5294,-285.17
5306,-266.48
5318,-247.0
5330,-228.21
5342,-210.72
5354,-194.77
5366,-180.53
5377,-168.18
5388,-157.61
5400,-148.29
5412,-139.3
5424,-129.71
5436,-119.05
5448,-107.48
5460,-95.78
5472,-84.87
5484,-75.32
5496,-67.07
5508,-59.47
5520,-51.56
5532,-42.41
5544,-31.37
5556,-18.33
5567,-3.74
5578,11.5
5590,26.25
5602,39.42
5614,50.3
5626,58.66
5638,64.7
5650,68.68
5662,70.85
5674,71.25
5686,69.87
5698,66.71
5710,61.64
5722,54.31
5734,44.12
5746,30.48
5757,13.3
5768,-6.57
5780,-27.37
5792,-46.8
5804,-62.81
5816,-74.12
5828,-80.45
5840,-82.22
5852,-80.24
5864,-75.47
5876,-69.02
5888,-62.23
5900,-56.58
5912,-53.46
5924,-53.7
5936,-57.39
5947,-63.98
5958,-72.63
5970,-82.56
5982,-93.19
5994,-103.92
6006,-113.98
6018,-122.38
6030,-128.22
6042,-131.06
6054,-131.21
6066,-129.76
6078,-128.06
6090,-127.15
6102,-127.31
6114,-128.04
6126,-128.4
6137,-127.55
6148,-125.19
6160,-121.68
6172,-117.93
6184,-115.05
6196,-113.89
6208,-114.64
6220,-116.52
6232,-117.98
6244,-117.09
6256,-112.28
6268,-102.89
6280,-89.53
6292,-73.96
6304,-58.6
6316,-45.93
6327,-37.78
6338,-34.83
6350,-36.1
6362,-38.87
6374,-39.03
6386,-32.21
6398,-15.4
6410,11.63
6422,45.9
6434,82.08
6446,114.43
6458,138.84
6470,153.76
6482,159.83
6494,158.52
6506,150.92
6517,137.38
6528,118.31
6540,95.22
6552,71.25
6564,50.54
6576,36.76
6588,31.72
6600,34.72
6612,43.13
6624,53.79
6636,64.24
6648,73.24
6660,80.58
6672,86.34
6684,90.2
6696,91.45
6707,89.27
6718,83.38
6730,74.19
6742,62.69
6754,49.83
6766,36.28
6778,22.21
6790,7.67
6802,-6.99
6814,-20.72
6826,-31.84
6838,-38.49
6850,-39.29
6862,-33.93
6874,-23.36
6886,-9.66
6897,4.46
6908,16.37
6920,24.02
6932,26.4
6944,23.51
6956,16.17
6968,5.65
6980,-6.56
6992,-19.09
7004,-30.66
7016,-40.26
7028,-47.35
7040,-51.94
7052,-54.64
7064,-56.44
7076,-58.28
7087,-60.67
7098,-63.57
7110,-66.61
7122,-69.38
7134,-71.82
7146,-74.21
7158,-76.97
7170,-80.29
7182,-83.85
7194,-86.99
7206,-88.97
7218,-89.45
7230,-88.69
7242,-87.4
7254,-86.33
7266,-85.77
7277,-85.34
7288,-84.16
7300,-81.37
7312,-76.68
7324,-70.6
7336,-64.33
7348,-59.23
7360,-56.23
7372,-55.4
7384,-55.73
7396,-55.48
7408,-52.73
7420,-46.21
7432,-36.01
7444,-23.97
7456,-13.43
7467,-8.21
7478,-11.25
7490,-23.39
7502,-42.92
7514,-66.3
7526,-89.58
7538,-110.07
7550,-127.08
7562,-141.75
7574,-155.97
7586,-171.25
7598,-188.08
7610,-206.16
7622,-225.12
7634,-244.93
7646,-265.68
7657,-286.88
7668,-306.73
7680,-322.02
7692,-329.21
7704,-325.84
7716,-311.75
7728,-289.32
7740,-262.54
7752,-235.46
7764,-210.8
7776,-189.38
7788,-170.46
7800,-152.69
7812,-134.98
7824,-116.84
7836,-98.38
7847,-79.87
7858,-61.42
7870,-42.91
7882,-24.15
7894,-5.0
7906,14.43
7918,33.75
7930,52.4
7942,69.8
7954,85.47
7966,99.15
7978,110.75
7990,120.21
8002,127.47
8014,132.4
8026,134.89
8037,135.07
8048,133.26
8060,129.97
8072,125.81
8084,121.23
8096,116.52
8108,111.81
8120,107.15
8132,102.51
8144,97.85
8156,93.0
8168,87.65
8180,81.51
8192,74.34
8204,66.16
8216,57.26
8227,48.01
8238,38.69
8250,29.31
8262,19.68
8274,9.62
8286,-0.76
8298,-11.07
8310,-20.83
8322,-29.89
8334,-38.64
8346,-47.77
8358,-57.67
8370,-67.77
8382,-76.27
8394,-80.55
8406,-78.25
8417,-68.11
8428,-50.52
8440,-27.15
8452,-0.16
8464,28.58
8476,57.68
8488,86.03
8500,112.47
8512,135.52
8524,153.76
8536,166.22
8548,172.73
8560,173.97
8572,171.25
8584,166.16
8596,160.37
8607,155.57
8618,153.31
8630,154.83
8642,160.7
8654,170.43
8666,182.37
8678,194.13
8690,203.13
8702,207.49
8714,206.52
8726,200.98
8738,192.84
8750,184.72
8762,179.29
8774,178.64
8786,183.64
8797,193.54
8808,205.98
8820,217.41
8832,224.19
8844,223.93
8856,216.37
8868,203.6
8880,189.3
8892,177.3
8904,170.26
8916,168.9
8928,172.11
8940,177.45
8952,181.9
8964,182.51
8976,177.07
8987,164.78
8998,146.71
9010,125.85
9022,106.31
9034,92.08
9046,85.72
9058,87.79
9070,97.09
9082,111.46
9094,128.59
9106,146.3
9118,162.61
9130,175.55
9142,183.5
9154,185.54
9166,181.87
9177,173.67
9188,162.4
9200,149.04
9212,133.58
9224,115.41
9236,94.2
9248,70.59
9260,46.33
9272,23.71
9284,4.45
9296,-11.09
9308,-23.92
9320,-35.71
9332,-47.69
9344,-59.93
9356,-71.44
9367,-80.96
9378,-87.95
9390,-93.06
9402,-97.79
9414,-103.49
9426,-110.61
9438,-118.45
9450,-125.64
9462,-130.98
9474,-133.95
9486,-134.81
9498,-134.02
9510,-131.8
9522,-127.8
9534,-121.38
9546,-112.14
9557,-100.32
9568,-86.95
9580,-73.57
9592,-61.73
9604,-52.57
9616,-46.46
9628,-42.88
9640,-40.59
9652,-38.08
9664,-33.95
9676,-27.36
9688,-18.08
9700,-6.46
9712,6.74
9724,20.44
9736,33.24
9747,43.49
9758,49.47
9770,49.93
9782,44.53
9794,34.28
9806,21.22
9818,7.86
9830,-3.73
9842,-12.47
9854,-18.18
9866,-21.21
9878,-21.76
9890,-19.89
9902,-15.82
9914,-10.41
9926,-5.41
9937,-3.02
9948,-4.93
9960,-11.52
9972,-21.65
9984,-33.17
9996,-43.97
10008,-52.9
10020,-60.01
10032,-66.18
10044,-72.29
10056,-78.67
10068,-84.9
10080,-90.26
10092,-94.17
10104,-96.64
10116,-98.15
10127,-99.4
10138,-100.92
10150,-102.78
10162,-104.65
10174,-105.92
10186,-105.95
10198,-104.2
10210,-100.26
10222,-93.89
10234,-85.05
10246,-74.11
10258,-61.92
10270,-49.81
10282,-39.26
10294,-31.56
10306,-27.32
10317,-26.33
10328,-27.71
10340,-30.23
10352,-32.81
10364,-34.8
10376,-36.12
10388,-37.04
10400,-37.94
10412,-38.96
10424,-39.96
10436,-40.53
10448,-40.29
10460,-39.08
10472,-37.15
10484,-35.09
10496,-33.65
10507,-33.45
10518,-34.81
10530,-37.59
10542,-41.27
10554,-45.0
10566,-47.82
10578,-48.9
10590,-47.85
10602,-44.89
10614,-40.96
10626,-37.45
10638,-35.78
10650,-36.89
10662,-40.86
10674,-46.78
10686,-53.08
10697,-58.01
10708,-60.18
10720,-58.9
10732,-54.25
10744,-46.95
10756,-37.82
10768,-27.3
10780,-15.11
10792,-0.32
10804,18.08
10816,40.2
10828,64.61
10840,88.22
10852,107.09
10864,117.76
10876,118.43
10887,109.41
10898,92.53
10910,70.12
10922,43.96
10934,15.09
10946,-15.69
10958,-47.15
10970,-77.12
10982,-102.83
10994,-121.75
11006,-132.52
11018,-135.36
11030,-131.84
11042,-124.05
11054,-113.77
11066,-101.89
11077,-88.48
11088,-73.12
11100,-55.59
11112,-36.39
11124,-17.04
11136,0.04
11148,12.1
11160,16.89
11172,13.47
11184,2.67
11196,-13.18
11208,-31.07
11220,-48.32
11232,-63.54
11244,-76.87
11256,-89.58
11267,-103.25
11278,-118.98
11290,-136.88
11302,-156.11
11314,-175.0
11326,-191.3
11338,-202.51
11350,-206.22
11362,-200.77
11374,-185.97
11386,-163.37
11398,-136.09
11410,-107.92
11422,-82.15
11434,-60.56
11446,-43.25
11457,-29.11
11468,-16.85
11480,-5.88
11492,3.4
11504,9.99
11516,13.03
11528,12.42
11540,9.01
11552,4.27
11564,-0.35
11576,-3.78
11588,-5.52
11600,-5.46
11612,-3.73
11624,-0.61
11636,3.26
11647,6.67
11658,7.92
11670,5.22
11682,-2.5
11694,-14.84
11706,-29.57
11718,-43.03
11730,-51.19
11742,-50.89
11754,-40.94
11766,-22.36
11778,2.0
11790,28.48
11802,53.68
11814,75.22
11826,92.03
11837,104.09
11848,111.98
11860,116.38
11872,117.78
11884,116.43
11896,112.58
11908,106.74
11920,99.9
11932,93.46
11944,88.89
11956,87.29
11968,88.92
11980,93.11
11992,98.52
12004,103.82
12016,108.13
12027,111.31
12038,113.72
12050,115.62
12062,116.68
12074,115.85
12086,111.82
12098,103.84
12110,92.21
12122,78.42
12134,64.52
12146,52.22
12158,42.18
12170,33.73
12182,25.13
12194,14.0
12206,-2.09
12217,-24.91
12228,-54.78
12240,-89.89
12252,-125.97
12264,-157.05
12276,-177.08
12288,-181.97
12300,-171.21
12312,-148.03
12324,-118.04
12336,-87.03
12348,-58.89
12360,-34.72
12372,-13.25
12384,7.74
12396,29.94
12407,53.5
12418,76.89
12430,97.57
12442,113.08
12454,122.13
12466,125.21
12478,124.46
12490,122.88
12502,123.15
12514,126.78
12526,133.8
12538,143.35
12550,154.42
12562,166.42
12574,179.15
12586,192.33
12597,205.06
12608,215.91
12620,223.43
12632,226.92
12644,226.82
12656,224.49
12668,221.6
12680,219.38
12692,218.54
12704,219.52
12716,222.92
12728,229.43
12740,239.24
12752,251.13
12764,261.92
12776,266.99
12787,261.75
12798,243.63
12810,213.45
12822,175.57
12834,136.48
12846,102.64
12858,78.43
12870,65.13
12882,61.19
12894,63.4
12906,68.15
12918,72.35
12930,73.58
12942,70.04
12954,60.38
12966,43.84
12977,20.53
12988,-8.34
13000,-40.57
13012,-73.45
13024,-104.49
13036,-131.97
13048,-155.24
13060,-174.67
13072,-191.32
13084,-206.36
13096,-220.57
13108,-233.82
13120,-245.04
13132,-252.46
13144,-254.38
13156,-249.93
13167,-239.65
13178,-225.49
13190,-210.2
13202,-196.41
13214,-185.71
13226,-178.18
13238,-172.6
13250,-167.12
13262,-160.14
13274,-150.89
13286,-139.69
13298,-127.55
13310,-115.66
13322,-104.79
13334,-95.1
13346,-86.27
13357,-78.09
13368,-71.04
13380,-66.47
13392,-66.36
13404,-72.41
13416,-85.02
13428,-102.67
13440,-122.09
13452,-139.27
13464,-150.76
13476,-154.88
13488,-151.96
13500,-143.77
13512,-132.39
13524,-119.28
13536,-104.88
13547,-89.08
13558,-71.9
13570,-54.01
13582,-36.9
13594,-22.24
13606,-11.15
13618,-3.68
13630,1.2
13642,5.11
13654,9.36
13666,14.36
13678,19.34
13690,22.81
13702,23.38
13714,20.49
13726,14.79
13737,7.84
13748,1.29
13760,-3.9
13772,-7.84
13784,-11.53
13796,-16.16
13808,-22.39
13820,-29.99
13832,-37.9
13844,-44.87
13856,-50.02
13868,-53.26
13880,-55.19
13892,-56.84
13904,-59.24
13916,-63.05
13927,-68.34
13938,-74.56
13950,-80.59
13962,-84.88
13974,-85.73
13986,-81.62
13998,-71.63
14010,-55.71
14022,-34.77
14034,-10.48
14046,15.1
14058,39.92
14070,62.07
14082,79.95
14094,92.23
14106,98.1
14117,97.47
14128,91.3
14140,81.6
14152,71.1
14164,62.51
14176,57.8
14188,57.65
14200,61.44
14212,67.7
14224,74.66
14236,80.82
14248,85.16
14260,87.17
14272,86.64
14284,83.65
14296,78.48
14307,71.73
14318,64.18
14330,56.85
14342,50.71
14354,46.58
14366,44.92
14378,45.63
14390,47.95
14402,50.36
14414,50.7
14426,46.72
14438,36.88
14450,21.06
14462,0.85
14474,-20.71
14486,-40.15
14497,-54.63
14508,-62.84
14520,-65.15
14532,-63.18
14544,-58.8
14556,-53.34
14568,-47.08
14580,-39.48
14592,-29.75
14604,-17.51
14616,-3.2
14628,11.99
14640,26.55
14652,39.25
14664,49.53
14676,57.53
14687,63.86
14698,69.18
14710,73.89
14722,78.13
14734,81.84
14746,84.91
14758,87.2
14770,88.4
14782,87.98
14794,85.3
14806,79.73
14818,70.94
14830,58.95
14842,44.18
14854,27.29
14866,9.19
14877,-8.99
14888,-26.09
14900,-41.07
14912,-53.4
14924,-63.02
14936,-70.28
14948,-75.3
14960,-77.55
14972,-75.66
14984,-67.9
14996,-53.05
15008,-31.24
15020,-4.36
15032,24.41
15044,51.51
15056,74.13
15067,90.92
15078,102.04
15090,108.73
15102,112.66
15114,115.41
15126,118.11
15138,121.48
15150,125.8
15162,131.13
15174,137.37
15186,144.41
15198,152.11
15210,160.31
15222,168.8
15234,177.12
15246,184.63
15257,190.58
15268,194.34
15280,195.68
15292,194.86
15304,192.74
15316,190.49
15328,189.32
15340,190.12
15352,193.08
15364,197.39
15376,201.29
15388,202.44
15400,198.65
15412,188.72
15424,173.17
15436,154.21
15447,135.15
15458,119.25
15470,108.62
15482,103.62
15494,103.03
15506,104.78
15518,106.95
15530,108.41
15542,108.86
15554,108.41
15566,106.99
15578,103.88
15590,97.66
15602,86.47
15614,68.17
15626,40.44
15637,1.27
15648,-50.3
15660,-112.79
15672,-181.27
15684,-247.5
15696,-301.63
15708,-335.25
15720,-344.32
15732,-330.58
15744,-300.6
15756,-263.13
15768,-225.9
15780,-193.74
15792,-168.25
15804,-148.91
15816,-134.37
15827,-123.07
15838,-113.22
15850,-102.64
15862,-89.06
15874,-70.86
15886,-47.92
15898,-21.77
15910,5.06
15922,29.93
15934,51.05
15946,67.88
15958,80.93
15970,91.25
15982,100.03
15994,108.3
16006,116.78
16017,125.74
16028,134.92
16040,143.64
16052,151.1
16064,156.9
16076,161.62
16088,166.87
16100,174.75
16112,186.73
16124,202.56
16136,219.72
16148,234.04
16160,241.13
16172,238.09
16184,224.66
16196,203.13
16207,177.29
16218,150.77
16230,125.89
16242,103.29
16254,82.49
16266,62.88
16278,44.37
16290,27.56
16302,13.17
16314,1.51
16326,-7.91
16338,-16.13
16350,-24.28
16362,-33.03
16374,-42.37
16386,-51.84
16397,-60.95
16408,-69.66
16420,-78.45
16432,-88.05
16444,-98.98
16456,-111.32
16468,-124.62
16480,-138.27
16492,-151.82
16504,-165.25
16516,-178.99
16528,-193.74
16540,-210.28
16552,-229.21
16564,-250.75
16576,-274.43
16587,-298.94
16598,-322.33
16610,-342.44
16622,-357.67
16634,-367.43
16646,-372.15
16658,-372.84
16670,-370.28
16682,-364.65
16694,-355.47
16706,-342.18
16718,-324.71
16730,-303.87
16742,-281.08
16754,-257.84
16766,-235.0
16777,-212.4
16788,-189.11
16800,-163.99
16812,-136.46
16824,-106.98
16836,-77.16
16848,-49.18
16860,-25.05
16872,-5.85
16884,8.68
16896,19.93
16908,29.81
16920,39.96
16932,51.19
16944,63.29
16956,75.34
16967,86.18
16978,94.95
16990,101.38
17002,105.87
17014,109.33
17026,112.83
17038,117.2
17050,122.77
17062,129.23
17074,135.87
17086,141.76
17098,146.14
17110,148.51
17122,148.63
17134,146.53
17146,142.43
17157,136.89
17168,130.77
17180,125.07
17192,120.56
17204,117.34
17216,114.47
17228,110.25
17240,102.92
17252,91.46
17264,76.27
17276,59.13
17288,42.57
17300,28.9
17312,19.56
17324,15.0
17336,15.09
17347,19.86
17358,29.76
17370,45.55
17382,67.53
17394,94.67
17406,124.27
17418,152.31
17430,174.52
17442,187.59
17454,190.15
17466,182.77
17478,167.41
17490,146.28
17502,120.99
17514,92.32
17526,60.53
17537,26.1
17548,-9.69
17560,-44.87
17572,-77.32
17584,-105.41
17596,-128.45
17608,-146.61
17620,-160.43
17632,-170.34
17644,-176.4
17656,-178.5
17668,-176.6
17680,-171.08
17692,-162.69
17704,-152.44
17716,-141.46
17727,-130.79
17738,-121.32
17750,-113.65
17762,-107.89
17774,-103.56
17786,-99.63
17798,-94.81
17810,-87.9
17822,-78.12
17834,-65.08
17846,-48.67
17858,-28.89
17870,-6.01
17882,19.14
17894,44.96
17906,69.21
17917,89.69
17928,105.01
17940,115.01
17952,120.49
17964,122.46
17976,121.32
17988,116.64
18000,107.68
18012,94.3
18024,77.67
18036,60.06
18048,43.94
18060,30.8
18072,20.63
18084,12.16
18096,3.97
18107,-4.62
18118,-13.18
18130,-20.65
18142,-26.19
18154,-29.82
18166,-32.42
18178,-35.15
18190,-38.62
18202,-42.64
18214,-46.41
18226,-49.19
18238,-50.86
18250,-52.07
18262,-53.74
18274,-56.49
18286,-60.19
18297,-63.97
18308,-66.66
18320,-67.28
18332,-65.41
18344,-61.26
18356,-55.35
18368,-48.35
18380,-40.88
18392,-33.56
18404,-27.03
18416,-21.95
18428,-18.8
18440,-17.68
18452,-18.29
18464,-19.97
18476,-21.96
18487,-23.67
18498,-24.82
18510,-25.46
18522,-25.85
18534,-26.26
18546,-26.81
18558,-27.55
18570,-28.46
18582,-29.45
18594,-30.5
18606,-31.56
18618,-32.57
18630,-33.47
18642,-34.31
18654,-35.33
18666,-36.85
18677,-39.28
18688,-42.83
18700,-47.45
18712,-52.83
18724,-58.48
18736,-63.99
18748,-69.19
18760,-74.21
18772,-79.37
18784,-85.0
18796,-91.27
18808,-98.06
18820,-104.98
18832,-111.54
18844,-117.29
18856,-121.85
18867,-124.94
18878,-126.53
18890,-127.01
18902,-127.3
18914,-128.78
18926,-132.86
18938,-140.22
18950,-150.37
18962,-161.51
18974,-170.98
18986,-176.17
18998,-175.22
19010,-167.4
19022,-153.14
19034,-133.76
19046,-111.18
19057,-87.73
19068,-65.99
19080,-48.36
19092,-36.51
19104,-30.98
19116,-30.99
19128,-34.85
19140,-40.51
19152,-46.06
19164,-49.95
19176,-51.03
19188,-48.57
19200,-42.42
19212,-33.22
19224,-22.41
19236,-12.1
19247,-4.48
19258,-1.28
19270,-3.39
19282,-10.58
19294,-21.62
19306,-34.52
19318,-46.96
19330,-56.8
19342,-62.54
19354,-63.69
19366,-60.8
19378,-55.27
19390,-48.71
19402,-42.48
19414,-37.29
19426,-33.26
19437,-30.22
19448,-28.11
19460,-27.16
19472,-27.82
19484,-30.49
19496,-35.32
19508,-42.0
19520,-49.99
19532,-58.66
19544,-67.55
19556,-76.48
19568,-85.43
19580,-94.45
19592,-103.4
19604,-111.99
19616,-119.81
19627,-126.52
19638,-131.91
19650,-135.94
19662,-138.74
19674,-140.43
19686,-141.08
19698,-140.64
19710,-139.04
19722,-136.16
19734,-131.97
19746,-126.51
19758,-119.91
19770,-112.4
19782,-104.23
19794,-95.66
19806,-86.92
19817,-78.17
19828,-69.42
19840,-60.57
19852,-51.38
19864,-41.59
19876,-31.02
19888,-19.63
19900,-7.61
19912,4.7
19924,16.95
19936,28.9
19948,40.54
19960,52.09
19972,63.89
19984,76.3
19996,89.63
20007,104.02
20018,119.4
20030,135.27
20042,150.74
20054,164.5
20066,175.17
20078,181.73
20090,183.92
20102,182.36
20114,178.3
20126,173.1
20138,167.65
20150,162.15
20162,156.1
20174,148.84
20186,140.07
20197,130.09
20208,119.73
20220,109.78
20232,100.57
20244,91.68
20256,82.16
20268,71.12
20280,58.31
20292,44.48
20304,31.1
20316,19.82
20328,11.75
20340,7.1
20352,5.14
20364,4.59
20376,4.04
20387,2.22
20398,-1.76
20410,-8.26
20422,-16.9
20434,-26.44
20446,-34.76
20458,-39.41
20470,-38.22
20482,-29.97
20494,-14.91
20506,5.37
20518,28.35
20530,51.31
20542,71.96
20554,88.79
20566,101.16
20577,109.1
20588,113.15
20600,114.08
20612,112.77
20624,110.19
20636,107.27
20648,104.86
20660,103.5
20672,103.35
20684,104.07
20696,105.0
20708,105.36
20720,104.59
20732,102.52
20744,99.38
20756,95.64
20767,91.74
20778,87.88
20790,83.83
20802,79.16
20814,73.36
20826,66.16
20838,57.62
20850,48.18
20862,38.55
20874,29.35
20886,21.02
20898,13.58
20910,6.76
20922,0.05
20934,-7.09
20946,-15.1
20957,-24.22
20968,-34.37
20980,-44.96
20992,-54.86
