seconds,BVP
11,35.47
23,35.79
35,35.67
47,35.25
59,34.7
71,34.14
82,33.64
93,33.16
105,32.66
117,32.07
129,31.31
141,30.35
153,29.18
165,27.8
177,26.26
189,24.67
201,23.14
213,21.73
225,20.38
237,19.01
249,17.46
261,15.68
272,13.63
283,11.4
295,9.06
307,6.68
319,4.36
331,2.12
343,0.07
355,-1.69
367,-3.11
379,-4.27
391,-5.36
403,-6.67
415,-8.4
427,-10.63
439,-13.25
451,-16.07
462,-18.85
473,-21.48
485,-23.9
497,-26.18
509,-28.46
521,-30.87
533,-33.5
545,-36.38
557,-39.39
569,-42.22
581,-44.35
593,-45.18
605,-44.28
617,-41.55
629,-37.29
641,-32.01
652,-26.26
663,-20.43
675,-14.73
687,-9.21
699,-3.93
711,1.07
723,5.66
735,9.76
747,13.33
759,16.39
771,19.0
783,21.16
795,22.93
807,24.3
819,25.3
831,25.91
842,26.09
853,25.78
865,24.97
877,23.8
889,22.43
901,21.11
913,20.0
925,19.16
937,18.48
949,17.79
961,16.94
973,15.82
985,14.44
997,12.89
1009,11.26
1021,9.64
1032,8.05
1043,6.48
1055,4.9
1067,3.25
1079,1.55
1091,-0.19
1103,-1.98
1115,-3.81
1127,-5.78
1139,-7.91
1151,-10.2
1163,-12.57
1175,-14.91
1187,-17.19
1199,-19.47
1211,-21.92
1222,-24.76
1233,-28.09
1245,-31.83
1257,-35.65
1269,-39.07
1281,-41.51
1293,-42.56
1305,-42.03
1317,-39.96
1329,-36.6
1341,-32.29
1353,-27.36
1365,-22.1
1377,-16.69
1389,-11.24
1401,-5.86
1412,-0.62
1423,4.43
1435,9.24
1447,13.74
1459,17.83
1471,21.39
1483,24.23
1495,26.19
1507,27.14
1519,27.16
1531,26.46
1543,25.37
1555,24.26
1567,23.38
1579,22.83
1591,22.53
1602,22.23
1613,21.73
1625,20.95
1637,19.95
1649,18.89
1661,17.89
1673,16.96
1685,16.0
1697,14.89
1709,13.57
1721,12.08
1733,10.52
1745,8.94
1757,7.39
1769,5.87
1781,4.37
1792,2.89
1803,1.44
1815,0.01
1827,-1.45
1839,-3.03
1851,-4.84
1863,-6.95
1875,-9.33
1887,-11.95
1899,-14.73
1911,-17.63
1923,-20.63
1935,-23.65
1947,-26.56
1959,-29.24
1971,-31.55
1982,-33.43
1993,-34.94
2005,-36.19
2017,-37.3
2029,-38.27
2041,-38.94
2053,-38.98
2065,-38.07
2077,-35.93
2089,-32.5
2101,-27.99
2113,-22.67
2125,-16.94
2137,-11.11
2149,-5.39
2161,0.1
2172,5.32
2183,10.22
2195,14.61
2207,18.19
2219,20.72
2231,22.06
2243,22.37
2255,22.01
2267,21.45
2279,20.99
2291,20.68
2303,20.33
2315,19.74
2327,18.89
2339,17.96
2351,17.27
2362,17.01
2373,17.19
2385,17.61
2397,18.08
2409,18.47
2421,18.77
2433,19.04
2445,19.27
2457,19.36
2469,19.19
2481,18.71
2493,17.93
2505,16.95
2517,15.83
2529,14.58
2541,13.23
2552,11.83
2563,10.47
2575,9.21
2587,8.04
2599,6.81
2611,5.32
2623,3.42
2635,1.09
2647,-1.53
2659,-4.14
2671,-6.45
2683,-8.33
2695,-9.8
2707,-11.1
2719,-12.48
2731,-14.15
2742,-16.08
2753,-18.1
2765,-19.97
2777,-21.47
2789,-22.64
2801,-23.7
2813,-24.98
2825,-26.66
2837,-28.76
2849,-31.01
2861,-33.1
2873,-34.71
2885,-35.67
2897,-35.89
2909,-35.31
2921,-33.87
2932,-31.44
2943,-27.95
2955,-23.45
2967,-18.2
2979,-12.59
2991,-7.05
3003,-1.92
3015,2.67
3027,6.71
3039,10.3
3051,13.5
3063,16.27
3075,18.54
3087,20.22
3099,21.28
3111,21.82
3122,22.04
3133,22.13
3145,22.19
3157,22.2
3169,22.06
3181,21.64
3193,20.92
3205,20.02
3217,19.16
3229,18.52
3241,18.16
3253,17.97
3265,17.7
3277,17.09
3289,16.03
3301,14.59
3312,12.95
3323,11.29
3335,9.76
3347,8.37
3359,7.07
3371,5.76
3383,4.45
3395,3.14
3407,1.86
3419,0.62
3431,-0.73
3443,-2.32
3455,-4.33
3467,-6.8
3479,-9.66
3491,-12.64
3502,-15.42
3513,-17.72
3525,-19.42
3537,-20.63
3549,-21.6
3561,-22.65
3573,-24.0
3585,-25.7
3597,-27.58
3609,-29.27
3621,-30.41
3633,-30.69
3645,-29.99
3657,-28.4
3669,-26.12
3681,-23.37
3692,-20.29
3703,-16.95
3715,-13.36
3727,-9.55
3739,-5.6
3751,-1.63
3763,2.19
3775,5.69
3787,8.62
3799,10.83
3811,12.22
3823,12.9
3835,13.12
3847,13.26
3859,13.62
3871,14.3
3882,15.25
3893,16.2
3905,16.95
3917,17.34
3929,17.47
3941,17.44
3953,17.36
3965,17.23
3977,16.9
3989,16.17
4001,14.81
4013,12.72
4025,9.87
4037,6.48
4049,2.9
4061,-0.51
4072,-3.4
4083,-5.73
4095,-7.63
4107,-9.41
4119,-11.35
4131,-13.59
4143,-16.09
4155,-18.62
4167,-20.95
4179,-22.86
4191,-24.33
4203,-25.39
4215,-26.14
4227,-26.72
4239,-27.3
4251,-28.04
4262,-28.99
4273,-29.98
4285,-30.44
4297,-29.65
4309,-26.83
4321,-21.61
4333,-14.27
4345,-5.76
4357,2.6
4369,9.57
4381,14.52
4393,17.69
4405,19.96
4417,22.57
4429,26.44
4441,31.84
4452,38.34
4463,45.02
4475,50.89
4487,55.1
4499,57.12
4511,56.67
4523,53.6
4535,48.05
4547,40.43
4559,31.57
4571,22.59
4583,14.6
4595,8.31
4607,3.9
4619,0.97
4631,-1.17
4642,-3.13
4653,-5.29
4665,-7.68
4677,-10.06
4689,-12.16
4701,-13.89
4713,-15.42
4725,-17.11
4737,-19.34
4749,-22.26
4761,-25.64
4773,-28.96
4785,-31.66
4797,-33.44
4809,-34.44
4821,-35.09
4832,-35.83
4843,-36.79
4855,-37.68
4867,-37.92
4879,-37.05
4891,-34.98
4903,-32.17
4915,-29.44
4927,-27.63
4939,-27.26
4951,-28.3
4963,-30.21
4975,-32.03
4987,-32.74
4999,-31.54
5011,-28.03
5022,-22.3
5033,-14.83
5045,-6.36
5057,2.33
5069,10.49
5081,17.69
5093,23.75
5105,28.72
5117,32.83
5129,36.25
5141,39.0
5153,41.0
5165,42.09
5177,42.16
5189,41.3
5201,39.73
5212,37.78
5223,35.73
5235,33.76
5247,31.89
5259,30.16
5271,28.55
5283,27.04
5295,25.5
5307,23.79
5319,21.69
5331,19.02
5343,15.72
5355,11.83
5367,7.47
5379,2.87
5391,-1.72
5402,-5.96
5413,-9.52
5425,-12.11
5437,-13.62
5449,-14.14
5461,-14.01
5473,-13.77
5485,-13.91
5497,-14.85
5509,-16.71
5521,-19.36
5533,-22.52
5545,-25.78
5557,-28.66
5569,-30.7
5581,-31.53
5592,-30.9
5603,-28.8
5615,-25.46
5627,-21.28
5639,-16.64
5651,-11.74
5663,-6.52
5675,-0.81
5687,5.45
5699,11.93
5711,17.86
5723,22.22
5735,24.13
5747,23.23
5759,19.85
5771,14.89
5782,9.45
5793,4.53
5805,0.8
5817,-1.5
5829,-2.37
5841,-1.91
5853,-0.25
5865,2.48
5877,6.06
5889,10.01
5901,13.71
5913,16.47
5925,17.73
5937,17.32
5949,15.57
5961,13.16
5972,10.86
5983,9.17
5995,8.14
6007,7.41
6019,6.53
6031,5.15
6043,3.24
6055,1.01
6067,-1.21
6079,-3.25
6091,-5.18
6103,-7.27
6115,-9.88
6127,-13.19
6139,-17.04
6151,-20.94
6162,-24.15
6173,-25.84
6185,-25.41
6197,-22.64
6209,-17.83
6221,-11.6
6233,-4.65
6245,2.52
6257,9.76
6269,17.07
6281,24.46
6293,31.72
6305,38.42
6317,44.04
6329,48.13
6341,50.45
6352,50.97
6363,49.75
6375,46.76
6387,42.03
6399,35.63
6411,28.01
6423,19.9
6435,12.25
6447,5.89
6459,1.31
6471,-1.48
6483,-2.84
6495,-3.37
6507,-3.67
6519,-4.14
6531,-4.9
6542,-5.92
6553,-6.97
6565,-7.81
6577,-8.24
6589,-8.06
6601,-7.16
6613,-5.56
6625,-3.44
6637,-1.14
6649,0.8
6661,1.8
6673,1.32
6685,-0.92
6697,-4.82
6709,-9.93
6721,-15.57
6732,-21.16
6743,-26.38
6755,-31.24
6767,-35.89
6779,-40.42
6791,-44.66
6803,-48.08
6815,-50.1
6827,-50.21
6839,-48.27
6851,-44.53
6863,-39.48
6875,-33.63
6887,-27.4
6899,-21.09
6911,-14.89
6922,-8.94
6933,-3.36
6945,1.8
6957,6.52
6969,10.78
6981,14.58
6993,17.87
7005,20.6
7017,22.72
7029,24.22
7041,25.22
7053,25.88
7065,26.34
7077,26.67
7089,26.9
7101,26.89
7112,26.53
7123,25.67
7135,24.27
7147,22.46
7159,20.48
7171,18.6
7183,17.04
7195,15.86
7207,14.95
7219,14.11
7231,13.18
7243,12.12
7255,11.0
7267,9.99
7279,9.23
7291,8.75
7302,8.46
7313,8.16
7325,7.65
7337,6.81
7349,5.66
7361,4.32
7373,2.9
7385,1.45
7397,-0.1
7409,-2.01
7421,-4.45
7433,-7.57
7445,-11.34
7457,-15.63
7469,-20.16
7481,-24.65
7492,-28.76
7503,-32.14
7515,-34.41
7527,-35.23
7539,-34.43
7551,-32.0
7563,-28.2
7575,-23.37
7587,-17.89
7599,-12.09
7611,-6.17
7623,-0.24
7635,5.61
7647,11.21
7659,16.32
7671,20.63
7682,23.93
7693,26.18
7705,27.57
7717,28.47
7729,29.29
7741,30.25
7753,31.3
7765,32.1
7777,32.24
7789,31.43
7801,29.64
7813,27.07
7825,24.12
7837,21.13
7849,18.36
7861,15.89
7872,13.7
7883,11.81
7895,10.2
7907,8.88
7919,7.73
7931,6.65
7943,5.54
7955,4.36
7967,3.08
7979,1.69
7991,0.1
8003,-1.85
8015,-4.26
8027,-7.18
8039,-10.35
8051,-13.44
8062,-16.12
8073,-18.2
8085,-19.84
8097,-21.3
8109,-22.92
8121,-24.85
8133,-27.0
8145,-29.14
8157,-30.98
8169,-32.25
8181,-32.71
8193,-32.18
8205,-30.46
8217,-27.44
8229,-23.19
8241,-17.98
8252,-12.26
8263,-6.57
8275,-1.26
8287,3.49
8299,7.69
8311,11.36
8323,14.56
8335,17.22
8347,19.26
8359,20.66
8371,21.44
8383,21.73
8395,21.66
8407,21.36
8419,20.84
8431,20.07
8442,19.0
8453,17.61
8465,15.95
8477,14.17
8489,12.46
8501,10.94
8513,9.72
8525,8.76
8537,8.01
8549,7.35
8561,6.63
8573,5.65
8585,4.23
8597,2.27
8609,-0.26
8621,-3.19
8632,-6.29
8643,-9.3
8655,-12.06
8667,-14.54
8679,-16.76
8691,-18.81
8703,-20.8
8715,-22.82
8727,-25.0
8739,-27.34
8751,-29.78
8763,-32.06
8775,-33.81
8787,-34.6
8799,-34.12
8811,-32.25
8822,-29.1
8833,-24.92
8845,-20.05
8857,-14.87
8869,-9.61
8881,-4.54
8893,0.22
8905,4.54
8917,8.32
8929,11.51
8941,14.1
8953,16.09
8965,17.53
8977,18.47
8989,18.98
9001,19.13
9012,19.0
9023,18.67
9035,18.2
9047,17.63
9059,17.0
9071,16.32
9083,15.69
9095,15.19
9107,14.9
9119,14.85
9131,14.94
9143,14.98
9155,14.75
9167,14.05
9179,12.9
9191,11.41
9202,9.78
9213,8.23
9225,6.83
9237,5.51
9249,4.17
9261,2.63
9273,0.76
9285,-1.44
9297,-3.89
9309,-6.42
9321,-8.81
9333,-10.89
9345,-12.59
9357,-13.93
9369,-15.14
9381,-16.49
9392,-18.27
9403,-20.59
9415,-23.41
9427,-26.52
9439,-29.59
9451,-32.3
9463,-34.32
9475,-35.41
9487,-35.43
9499,-34.28
9511,-32.0
9523,-28.69
9535,-24.49
9547,-19.65
9559,-14.49
9571,-9.36
9582,-4.56
9593,-0.34
9605,3.25
9617,6.18
9629,8.52
9641,10.38
9653,11.78
9665,12.82
9677,13.57
9689,14.22
9701,14.99
9713,16.02
9725,17.24
9737,18.48
9749,19.49
9761,20.09
9772,20.27
9783,20.14
9795,19.83
9807,19.43
9819,18.92
9831,18.23
9843,17.35
9855,16.37
9867,15.45
9879,14.76
9891,14.33
9903,14.05
9915,13.69
9927,13.07
9939,12.11
9951,10.86
9962,9.43
9973,7.91
9985,6.34
9997,4.68
10009,2.87
10021,0.9
10033,-1.22
10045,-3.41
10057,-5.64
10069,-7.92
10081,-10.27
10093,-12.64
10105,-14.98
10117,-17.21
10129,-19.3
10141,-21.31
10152,-23.38
10163,-25.64
10175,-28.07
10187,-30.57
10199,-32.91
10211,-34.88
10223,-36.31
10235,-37.05
10247,-37.03
10259,-36.12
10271,-34.21
10283,-31.2
10295,-27.14
10307,-22.25
10319,-16.88
10331,-11.45
10342,-6.31
10353,-1.69
10365,2.23
10377,5.39
10389,7.76
10401,9.41
10413,10.5
10425,11.24
10437,11.9
10449,12.73
10461,13.88
10473,15.38
10485,17.14
10497,18.95
10509,20.66
10521,22.13
10532,23.3
10543,24.14
10555,24.7
10567,24.94
10579,24.86
10591,24.38
10603,23.46
10615,22.14
10627,20.47
10639,18.55
10651,16.43
10663,14.11
10675,11.62
10687,9.01
10699,6.42
10711,4.05
10722,2.06
10733,0.53
10745,-0.58
10757,-1.44
10769,-2.25
10781,-3.21
10793,-4.47
10805,-6.13
10817,-8.28
10829,-10.94
10841,-14.06
10853,-17.44
10865,-20.85
10877,-24.15
10889,-27.27
10901,-30.22
10912,-33.0
10923,-35.53
10935,-37.54
10947,-38.68
10959,-38.62
10971,-37.07
10983,-34.03
10995,-29.62
11007,-24.2
11019,-18.23
11031,-12.17
11043,-6.44
11055,-1.31
11067,3.09
11079,6.77
11091,9.78
11102,12.21
11113,14.14
11125,15.67
11137,16.93
11149,17.99
11161,18.93
11173,19.73
11185,20.3
11197,20.52
11209,20.31
11221,19.68
11233,18.73
11245,17.66
11257,16.66
11269,15.85
11281,15.26
11292,14.77
11303,14.15
11315,13.18
11327,11.67
11339,9.58
11351,7.03
11363,4.24
11375,1.44
11387,-1.29
11399,-3.91
11411,-6.48
11423,-8.99
11435,-11.41
11447,-13.71
11459,-15.87
11471,-17.96
11482,-20.09
11493,-22.38
11505,-24.89
11517,-27.57
11529,-30.32
11541,-32.99
11553,-35.38
11565,-37.27
11577,-38.38
11589,-38.41
11601,-37.15
11613,-34.58
11625,-30.82
11637,-26.16
11649,-20.88
11661,-15.32
11672,-9.71
11683,-4.23
11695,0.93
11707,5.69
11719,10.02
11731,13.9
11743,17.34
11755,20.37
11767,22.94
11779,24.99
11791,26.44
11803,27.25
11815,27.5
11827,27.34
11839,26.93
11851,26.47
11862,26.09
11873,25.8
11885,25.56
11897,25.2
11909,24.51
11921,23.42
11933,21.95
11945,20.21
11957,18.34
11969,16.44
11981,14.55
11993,12.69
12005,10.88
12017,9.13
12029,7.54
12041,6.07
12052,4.61
12063,3.0
12075,1.0
12087,-1.51
12099,-4.51
12111,-7.9
12123,-11.55
12135,-15.32
12147,-19.22
12159,-23.2
12171,-27.29
12183,-31.41
12195,-35.49
12207,-39.34
12219,-42.71
12231,-45.32
12242,-46.86
12253,-47.12
12265,-45.92
12277,-43.21
12289,-39.08
12301,-33.75
12313,-27.5
12325,-20.72
12337,-13.75
12349,-6.9
12361,-0.41
12373,5.58
12385,10.95
12397,15.6
12409,19.41
12421,22.33
12432,24.42
12443,25.92
12455,27.11
12467,28.28
12479,29.56
12491,30.86
12503,31.98
12515,32.68
12527,32.87
12539,32.6
12551,32.04
12563,31.41
12575,30.81
12587,30.31
12599,29.85
12611,29.37
12622,28.79
12633,27.99
12645,26.92
12657,25.52
12669,23.79
12681,21.8
12693,19.63
12705,17.37
12717,15.08
12729,12.79
12741,10.54
12753,8.35
12765,6.26
12777,4.29
12789,2.42
12801,0.58
12812,-1.33
12823,-3.37
12835,-5.52
12847,-7.7
12859,-9.75
12871,-11.53
12883,-13.02
12895,-14.36
12907,-15.81
12919,-17.66
12931,-20.07
12943,-23.07
12955,-26.57
12967,-30.46
12979,-34.64
12991,-38.98
13002,-43.25
13013,-47.03
13025,-49.74
13037,-50.81
13049,-49.87
13061,-46.88
13073,-42.15
13085,-36.2
13097,-29.62
13109,-22.81
13121,-15.99
13133,-9.19
13145,-2.51
13157,3.9
13169,9.76
13181,14.84
13192,19.02
13203,22.4
13215,25.2
13227,27.66
13239,29.84
13251,31.65
13263,32.86
13275,33.28
13287,32.93
13299,32.05
13311,31.03
13323,30.22
13335,29.8
13347,29.69
13359,29.7
13371,29.57
13382,29.14
13393,28.32
13405,27.19
13417,25.85
13429,24.34
13441,22.69
13453,20.84
13465,18.81
13477,16.64
13489,14.43
13501,12.26
13513,10.12
13525,7.92
13537,5.49
13549,2.72
13561,-0.42
13572,-3.84
13583,-7.31
13595,-10.6
13607,-13.47
13619,-15.77
13631,-17.49
13643,-18.75
13655,-19.79
13667,-20.91
13679,-22.42
13691,-24.46
13703,-27.01
13715,-29.85
13727,-32.58
13739,-34.74
13751,-35.92
13762,-35.77
13773,-34.12
13785,-31.04
13797,-26.78
13809,-21.74
13821,-16.33
13833,-10.86
13845,-5.47
13857,-0.19
13869,4.94
13881,9.79
13893,14.09
13905,17.61
13917,20.17
13929,21.82
13941,22.82
13952,23.51
13963,24.17
13975,24.88
13987,25.5
13999,25.77
14011,25.52
14023,24.73
14035,23.6
14047,22.4
14059,21.35
14071,20.46
14083,19.61
14095,18.61
14107,17.32
14119,15.77
14131,14.05
14142,12.34
14153,10.77
14165,9.35
14177,8.02
14189,6.7
14201,5.32
14213,3.86
14225,2.3
14237,0.63
14249,-1.18
14261,-3.14
14273,-5.22
14285,-7.41
14297,-9.69
14309,-12.07
14321,-14.68
14332,-17.68
14343,-21.27
14355,-25.5
14367,-30.22
14379,-35.04
14391,-39.36
14403,-42.58
14415,-44.19
14427,-43.92
14439,-41.75
14451,-37.87
14463,-32.68
14475,-26.62
14487,-20.18
14499,-13.69
14511,-7.36
14522,-1.28
14533,4.53
14545,10.0
14557,15.01
14569,19.35
14581,22.85
14593,25.43
14605,27.16
14617,28.26
14629,29.04
14641,29.71
14653,30.38
14665,31.04
14677,31.47
14689,31.51
14701,31.07
14712,30.22
14723,29.11
14735,27.98
14747,26.92
14759,25.89
14771,24.88
14783,23.77
14795,22.57
14807,21.37
14819,20.24
14831,19.12
14843,17.92
14855,16.41
14867,14.49
14879,12.25
14891,9.85
14902,7.56
14913,5.46
14925,3.45
14937,1.22
14949,-1.42
14961,-4.56
14973,-8.0
14985,-11.42
14997,-14.63
15009,-17.55
15021,-20.28
15033,-22.96
15045,-25.66
15057,-28.39
15069,-31.14
15081,-33.99
15092,-37.0
15103,-40.13
15115,-43.09
15127,-45.31
15139,-46.11
15151,-44.98
15163,-41.85
15175,-37.01
15187,-31.05
15199,-24.53
15211,-17.96
15223,-11.55
15235,-5.45
15247,0.24
15259,5.51
15271,10.34
15282,14.74
15293,18.69
15305,22.11
15317,24.8
15329,26.65
15341,27.65
15353,27.99
15365,27.96
15377,27.9
15389,28.0
15401,28.25
15413,28.53
15425,28.71
15437,28.8
15449,28.9
15461,29.16
15472,29.66
15483,30.37
15495,31.09
15507,31.58
15519,31.66
15531,31.28
15543,30.5
15555,29.4
15567,27.99
15579,26.2
15591,23.95
15603,21.21
15615,18.12
15627,14.96
15639,12.03
15651,9.54
15662,7.53
15673,5.85
15685,4.27
15697,2.56
15709,0.55
15721,-1.82
15733,-4.51
15745,-7.44
15757,-10.4
15769,-13.23
15781,-15.81
15793,-18.12
15805,-20.3
15817,-22.54
15829,-25.13
15841,-28.19
15852,-31.74
15863,-35.63
15875,-39.51
15887,-42.99
15899,-45.57
15911,-46.84
15923,-46.44
15935,-44.27
15947,-40.39
15959,-35.14
15971,-28.95
15983,-22.3
15995,-15.61
16007,-9.12
16019,-3.02
16031,2.61
16042,7.71
16053,12.22
16065,16.06
16077,19.22
16089,21.71
16101,23.56
16113,24.84
16125,25.59
16137,25.85
16149,25.69
16161,25.21
16173,24.56
16185,23.98
16197,23.71
16209,23.83
16221,24.3
16232,24.9
16243,25.3
16255,25.25
16267,24.63
16279,23.53
16291,22.1
16303,20.54
16315,18.88
16327,17.12
16339,15.19
16351,13.09
16363,10.88
16375,8.68
16387,6.54
16399,4.46
16411,2.44
16422,0.4
16433,-1.73
16445,-3.98
16457,-6.33
16469,-8.77
16481,-11.25
16493,-13.71
16505,-16.15
16517,-18.49
16529,-20.71
16541,-22.82
16553,-24.84
16565,-26.83
16577,-28.82
16589,-30.83
16601,-32.84
16612,-34.77
16623,-36.34
16635,-37.21
16647,-36.9
16659,-35.05
16671,-31.58
16683,-26.68
16695,-20.79
16707,-14.45
16719,-8.13
16731,-2.12
16743,3.39
16755,8.31
16767,12.54
16779,15.94
16791,18.44
16802,20.08
16813,21.01
16825,21.45
16837,21.65
16849,21.8
16861,21.99
16873,22.26
16885,22.58
16897,22.89
16909,23.09
16921,23.14
16933,22.99
16945,22.69
16957,22.25
16969,21.75
16981,21.16
16992,20.47
17003,19.66
17015,18.75
17027,17.81
17039,16.87
17051,15.91
17063,14.83
17075,13.54
17087,11.95
17099,10.06
17111,7.95
17123,5.72
17135,3.51
17147,1.41
17159,-0.5
17171,-2.24
17182,-3.83
17193,-5.33
17205,-6.84
17217,-8.46
17229,-10.26
17241,-12.28
17253,-14.49
17265,-16.82
17277,-19.16
17289,-21.41
17301,-23.54
17313,-25.6
17325,-27.7
17337,-29.95
17349,-32.35
17361,-34.75
17372,-36.84
17383,-38.25
17395,-38.64
17407,-37.86
17419,-35.9
17431,-32.87
17443,-28.96
17455,-24.37
17467,-19.27
17479,-13.91
17491,-8.48
17503,-3.26
17515,1.54
17527,5.75
17539,9.32
17551,12.26
17562,14.61
17573,16.43
17585,17.76
17597,18.66
17609,19.2
17621,19.48
17633,19.59
17645,19.65
17657,19.69
17669,19.75
17681,19.85
17693,19.97
17705,20.16
17717,20.41
17729,20.73
17741,21.07
17752,21.31
17763,21.3
17775,20.93
17787,20.16
17799,19.1
17811,17.86
17823,16.58
17835,15.35
17847,14.17
17859,13.0
17871,11.88
17883,10.83
17895,9.87
17907,8.96
17919,7.98
17931,6.76
17942,5.2
17953,3.3
17965,1.14
17977,-1.16
17989,-3.53
18001,-5.99
18013,-8.57
18025,-11.22
18037,-13.87
18049,-16.41
18061,-18.74
18073,-20.9
18085,-22.99
18097,-25.17
18109,-27.57
18121,-30.24
18132,-33.15
18143,-36.19
18155,-39.11
18167,-41.56
18179,-43.12
18191,-43.38
18203,-42.1
18215,-39.29
18227,-35.18
18239,-30.14
18251,-24.53
18263,-18.62
18275,-12.61
18287,-6.74
18299,-1.24
18311,3.61
18322,7.65
18333,10.86
18345,13.35
18357,15.37
18369,17.11
18381,18.71
18393,20.13
18405,21.27
18417,22.05
18429,22.45
18441,22.53
18453,22.42
18465,22.33
18477,22.48
18489,22.98
18501,23.76
18512,24.62
18523,25.25
18535,25.38
18547,24.89
18559,23.76
18571,22.13
18583,20.15
18595,17.93
18607,15.5
18619,12.9
18631,10.23
18643,7.67
18655,5.4
18667,3.55
18679,2.13
18691,0.96
18702,-0.16
18713,-1.4
18725,-2.89
18737,-4.54
18749,-6.29
18761,-8.09
18773,-9.97
18785,-12.05
18797,-14.5
18809,-17.38
18821,-20.65
18833,-24.23
18845,-28.01
18857,-31.92
18869,-35.83
18881,-39.52
18892,-42.68
18903,-44.93
18915,-45.98
18927,-45.68
18939,-44.1
18951,-41.4
18963,-37.8
18975,-33.43
18987,-28.42
18999,-22.9
19011,-17.13
19023,-11.42
19035,-6.11
19047,-1.47
19059,2.46
19071,5.79
19082,8.78
19093,11.66
19105,14.56
19117,17.44
19129,20.1
19141,22.27
19153,23.62
19165,23.97
19177,23.33
19189,21.91
19201,20.08
19213,18.21
19225,16.56
19237,15.25
19249,14.23
19261,13.36
19272,12.5
19283,11.58
19295,10.55
19307,9.38
19319,8.04
19331,6.48
19343,4.65
19355,2.6
19367,0.37
19379,-1.91
19391,-4.19
19403,-6.41
19415,-8.58
19427,-10.72
19439,-12.82
19451,-14.91
19462,-16.96
19473,-19.06
19485,-21.24
19497,-23.59
19509,-26.08
19521,-28.58
19533,-30.81
19545,-32.36
19557,-32.81
19569,-31.85
19581,-29.42
19593,-25.66
19605,-20.96
19617,-15.76
19629,-10.49
19641,-5.41
19652,-0.65
19663,3.72
19675,7.69
19687,11.24
19699,14.31
19711,16.84
19723,18.75
19735,20.06
19747,20.84
19759,21.2
19771,21.25
19783,21.08
19795,20.69
19807,20.09
19819,19.32
19831,18.49
19842,17.79
19853,17.32
19865,17.12
19877,16.99
19889,16.7
19901,16.01
19913,14.83
19925,13.27
19937,11.58
19949,10.05
19961,8.84
19973,7.98
19985,7.35
19997,6.71
20009,5.77
20021,4.23
20032,1.92
20043,-1.24
20055,-5.16
20067,-9.71
20079,-14.76
20091,-20.17
20103,-25.74
20115,-31.14
20127,-35.78
20139,-38.94
20151,-39.95
20163,-38.5
20175,-34.85
20187,-29.74
20199,-24.23
20211,-19.2
20222,-15.19
20233,-12.2
20245,-9.96
20257,-8.01
20269,-6.03
20281,-3.83
20293,-1.38
20305,1.2
20317,3.68
20329,5.7
20341,6.8
20353,6.46
20365,4.3
20377,0.35
20389,-4.8
20401,-10.0
20412,-13.8
20423,-14.73
20435,-11.89
20447,-5.26
20459,4.12
20471,14.44
20483,23.73
20495,30.49
20507,34.14
20519,34.99
20531,34.03
20543,32.31
20555,30.65
20567,29.41
20579,28.58
20591,27.98
20602,27.5
20613,27.12
20625,26.75
20637,26.28
20649,25.4
20661,23.77
20673,21.08
20685,17.22
20697,12.4
20709,7.07
20721,1.85
20733,-2.79
20745,-6.61
20757,-9.78
20769,-12.67
20781,-15.68
20792,-18.98
20803,-22.52
20815,-26.04
20827,-29.28
20839,-32.0
20851,-34.04
20863,-35.21
20875,-35.33
20887,-34.15
20899,-31.56
20911,-27.6
20923,-22.59
20935,-16.97
20947,-11.19
20959,-5.58
20971,-0.25
20982,4.78
20993,9.61
