seconds,BVP
4,25.93
16,30.46
28,32.6
40,32.82
52,31.76
64,30.13
76,28.39
88,26.56
100,23.98
112,19.37
124,11.27
136,-1.29
148,-18.24
159,-38.19
170,-58.52
182,-75.9
194,-86.95
206,-89.13
218,-81.43
230,-64.84
242,-42.21
254,-17.62
266,4.69
278,21.53
290,31.37
302,34.46
314,32.16
326,26.03
338,17.11
349,5.83
360,-7.62
372,-22.7
384,-38.12
396,-51.86
408,-61.58
420,-65.11
432,-60.87
444,-48.17
456,-27.26
468,0.68
480,33.64
492,68.87
504,103.12
516,132.82
528,154.52
539,165.34
550,163.53
562,148.91
574,123.0
586,88.79
598,50.06
610,10.42
622,-27.51
634,-62.48
646,-94.34
658,-123.34
670,-149.37
682,-171.42
694,-187.8
706,-196.88
718,-197.97
729,-191.92
740,-181.01
752,-168.34
764,-156.75
776,-148.03
788,-142.33
800,-138.45
812,-134.49
824,-128.79
836,-120.7
848,-110.98
860,-101.48
872,-94.4
884,-91.29
896,-92.2
908,-95.39
919,-97.84
930,-96.24
942,-88.19
954,-72.92
966,-51.35
978,-25.35
990,3.06
1002,32.37
1014,61.6
1026,89.99
1038,116.6
1050,140.18
1062,159.52
1074,173.94
1086,183.56
1098,189.29
1109,192.33
1120,193.69
1132,193.94
1144,193.11
1156,190.96
1168,187.18
1180,181.56
1192,174.06
1204,164.92
1216,154.64
1228,143.87
1240,133.36
1252,123.58
1264,114.7
1276,106.54
1288,98.79
1299,91.2
1310,83.59
1322,75.78
1334,67.51
1346,58.33
1358,47.83
1370,35.9
1382,22.89
1394,9.61
1406,-2.98
1418,-14.14
1430,-23.66
1442,-31.81
1454,-39.1
1466,-45.88
1478,-52.05
1489,-57.17
1500,-60.62
1512,-61.91
1524,-60.88
1536,-57.66
1548,-52.49
1560,-45.68
1572,-37.62
1584,-28.91
1596,-20.51
1608,-13.67
1620,-9.58
1632,-9.03
1644,-12.02
1656,-17.76
1668,-24.85
1679,-31.81
1690,-37.57
1702,-41.63
1714,-44.17
1726,-45.75
1738,-46.98
1750,-48.24
1762,-49.56
1774,-50.68
1786,-51.17
1798,-50.7
1810,-49.17
1822,-46.79
1834,-43.96
1846,-41.19
1858,-38.91
1869,-37.45
1880,-36.99
1892,-37.58
1904,-39.09
1916,-41.15
1928,-43.15
1940,-44.25
1952,-43.56
1964,-40.35
1976,-34.21
1988,-25.2
2000,-13.77
2012,-0.67
2024,13.19
2036,26.84
2048,39.33
2059,49.75
2070,57.36
2082,61.65
2094,62.52
2106,60.27
2118,55.62
2130,49.5
2142,42.9
2154,36.64
2166,31.27
2178,27.02
2190,23.87
2202,21.6
2214,19.9
2226,18.32
2238,16.38
2249,13.57
2260,9.46
2272,3.78
2284,-3.52
2296,-12.2
2308,-21.77
2320,-31.45
2332,-40.28
2344,-47.21
2356,-51.32
2368,-52.05
2380,-49.36
2392,-43.68
2404,-35.84
2416,-26.82
2428,-17.55
2439,-8.8
2450,-1.13
2462,5.09
2474,9.7
2486,12.74
2498,14.44
2510,15.2
2522,15.53
2534,15.98
2546,17.08
2558,19.3
2570,22.97
2582,28.22
2594,35.03
2606,43.2
2618,52.39
2629,62.11
2640,71.78
2652,80.69
2664,88.17
2676,93.72
2688,97.2
2700,98.91
2712,99.44
2724,99.4
2736,99.13
2748,98.54
2760,97.25
2772,94.91
2784,91.69
2796,88.51
2808,87.02
2819,89.33
2830,97.24
2842,111.48
2854,131.04
2866,153.05
2878,173.38
2890,187.68
2902,192.66
2914,186.96
2926,171.25
2938,147.77
2950,119.39
2962,88.9
2974,58.54
2986,29.96
2998,4.26
3009,-17.93
3020,-36.37
3032,-51.21
3044,-62.77
3056,-71.47
3068,-77.74
3080,-82.06
3092,-85.1
3104,-87.64
3116,-90.36
3128,-93.55
3140,-97.04
3152,-100.41
3164,-103.36
3176,-105.93
3188,-108.43
3199,-111.02
3210,-113.28
3222,-114.18
3234,-112.5
3246,-107.62
3258,-99.99
3270,-91.17
3282,-83.11
3294,-77.34
3306,-74.34
3318,-73.55
3330,-73.96
3342,-74.85
3354,-76.34
3366,-79.22
3378,-84.46
3389,-92.5
3400,-102.85
3412,-114.17
3424,-124.58
3436,-132.32
3448,-136.11
3460,-135.4
3472,-130.26
3484,-121.23
3496,-109.07
3508,-94.61
3520,-78.67
3532,-62.19
3544,-46.23
3556,-32.13
3568,-21.26
3579,-14.89
3590,-13.85
3602,-18.27
3614,-27.53
3626,-40.29
3638,-54.75
3650,-68.94
3662,-81.1
3674,-90.0
3686,-95.12
3698,-96.67
3710,-95.33
3722,-91.97
3734,-87.24
3746,-81.4
3758,-74.36
3769,-65.95
3780,-56.22
3792,-45.6
3804,-34.91
3816,-25.1
3828,-16.96
3840,-10.86
3852,-6.63
3864,-3.68
3876,-1.15
3888,1.82
3900,5.86
3912,11.32
3924,18.21
3936,26.32
3948,35.27
3959,44.62
3970,53.86
3982,62.47
3994,69.8
4006,75.2
4018,78.0
4030,77.67
4042,73.99
4054,67.1
4066,57.54
4078,46.2
4090,34.16
4102,22.49
4114,12.08
4126,3.45
4138,-3.26
4149,-8.24
4160,-11.83
4172,-14.24
4184,-15.36
4196,-14.68
4208,-11.4
4220,-4.69
4232,5.95
4244,20.4
4256,37.79
4268,56.56
4280,74.7
4292,90.21
4304,101.6
4316,108.29
4328,110.73
4339,110.19
4350,108.28
4362,106.34
4374,105.07
4386,104.43
4398,103.9
4410,102.88
4422,101.01
4434,98.24
4446,94.74
4458,90.67
4470,86.05
4482,80.82
4494,74.93
4506,68.48
4518,61.79
4529,55.21
4540,48.98
4552,43.04
4564,37.1
4576,30.83
4588,24.03
4600,16.81
4612,9.5
4624,2.51
4636,-3.89
4648,-9.66
4660,-14.95
4672,-19.98
4684,-24.92
4696,-29.85
4708,-34.85
4719,-40.0
4730,-45.41
4742,-51.07
4754,-56.8
4766,-62.14
4778,-66.47
4790,-69.17
4802,-69.75
4814,-68.09
4826,-64.41
4838,-59.22
4850,-53.23
4862,-47.08
4874,-41.34
4886,-36.42
4898,-32.61
4909,-30.04
4920,-28.82
4932,-28.93
4944,-30.36
4956,-33.08
4968,-37.01
4980,-41.88
4992,-47.19
5004,-52.16
5016,-55.92
5028,-57.74
5040,-57.3
5052,-54.87
5064,-51.14
5076,-46.94
5088,-42.96
5099,-39.51
5110,-36.63
5122,-34.19
5134,-32.16
5146,-30.61
5158,-29.65
5170,-29.27
5182,-29.24
5194,-29.12
5206,-28.44
5218,-26.81
5230,-24.11
5242,-20.42
5254,-15.97
5266,-10.99
5278,-5.67
5289,-0.12
5300,5.48
5312,10.92
5324,15.89
5336,20.06
5348,23.15
5360,24.98
5372,25.44
5384,24.58
5396,22.52
5408,19.56
5420,16.25
5432,13.3
5444,11.5
5456,11.48
5468,13.54
5479,17.54
5490,22.96
5502,29.07
5514,35.17
5526,40.71
5538,45.35
5550,48.87
5562,51.17
5574,52.17
5586,51.91
5598,50.56
5610,48.44
5622,46.0
5634,43.67
5646,41.79
5658,40.5
5669,39.75
5680,39.31
5692,38.9
5704,38.26
5716,37.27
5728,35.87
5740,34.12
5752,32.08
5764,29.81
5776,27.33
5788,24.65
5800,21.76
5812,18.7
5824,15.5
5836,12.17
5848,8.78
5859,5.5
5870,2.63
5882,0.62
5894,-0.04
5906,1.04
5918,3.96
5930,8.48
5942,14.05
5954,19.97
5966,25.6
5978,30.5
5990,34.45
6002,37.39
6014,39.24
6026,39.88
6038,39.22
6049,37.34
6060,34.58
6072,31.56
6084,28.98
6096,27.32
6108,26.72
6120,26.9
6132,27.36
6144,27.6
6156,27.29
6168,26.35
6180,24.89
6192,23.03
6204,20.83
6216,18.29
6228,15.39
6239,12.15
6250,8.66
6262,5.06
6274,1.49
6286,-1.98
6298,-5.39
6310,-8.79
6322,-12.19
6334,-15.36
6346,-17.87
6358,-19.11
6370,-18.55
6382,-15.92
6394,-11.38
6406,-5.55
6418,0.75
6429,6.65
6440,11.55
6452,15.09
6464,17.18
6476,17.94
6488,17.53
6500,16.21
6512,14.35
6524,12.4
6536,10.84
6548,10.04
6560,10.11
6572,10.87
6584,11.91
6596,12.72
6608,12.92
6619,12.38
6630,11.17
6642,9.48
6654,7.5
6666,5.33
6678,2.98
6690,0.48
6702,-2.15
6714,-4.76
6726,-7.26
6738,-9.67
6750,-12.11
6762,-14.82
6774,-17.93
6786,-21.4
6798,-24.9
6809,-27.9
6820,-29.74
6832,-29.92
6844,-28.2
6856,-24.66
6868,-19.75
6880,-14.06
6892,-8.29
6904,-3.06
6916,1.16
6928,4.13
6940,5.79
6952,6.26
6964,5.78
6976,4.63
6988,3.12
6999,1.53
7010,0.16
7022,-0.75
7034,-1.03
7046,-0.64
7058,0.31
7070,1.54
7082,2.73
7094,3.56
7106,3.86
7118,3.58
7130,2.82
7142,1.71
7154,0.41
7166,-0.98
7178,-2.38
7189,-3.77
7200,-5.17
7212,-6.63
7224,-8.25
7236,-10.16
7248,-12.37
7260,-14.81
7272,-17.2
7284,-19.07
7296,-19.92
7308,-19.35
7320,-17.19
7332,-13.56
7344,-8.82
7356,-3.54
7368,1.71
7379,6.4
7390,10.15
7402,12.72
7414,14.07
7426,14.3
7438,13.71
7450,12.64
7462,11.45
7474,10.4
7486,9.64
7498,9.19
7510,9.02
7522,9.03
7534,9.16
7546,9.32
7558,9.44
7569,9.41
7580,9.15
7592,8.6
7604,7.77
7616,6.75
7628,5.61
7640,4.42
7652,3.17
7664,1.8
7676,0.25
7688,-1.5
7700,-3.42
7712,-5.46
7724,-7.57
7736,-9.68
7748,-11.65
7759,-13.22
7770,-14.02
7782,-13.67
7794,-11.89
7806,-8.7
7818,-4.41
7830,0.38
7842,5.01
7854,8.94
7866,11.87
7878,13.8
7890,14.87
7902,15.25
7914,15.06
7926,14.32
7938,13.04
7949,11.31
7960,9.35
7972,7.45
7984,5.9
7996,4.89
8008,4.46
8020,4.49
8032,4.83
8044,5.26
8056,5.61
8068,5.7
8080,5.39
8092,4.57
8104,3.21
8116,1.38
8128,-0.78
8139,-3.04
8150,-5.19
8162,-7.1
8174,-8.75
8186,-10.24
8198,-11.74
8210,-13.39
8222,-15.25
8234,-17.19
8246,-18.89
8258,-19.9
8270,-19.73
8282,-18.04
8294,-14.78
8306,-10.22
8318,-4.91
8329,0.48
8340,5.31
8352,9.15
8364,11.76
8376,13.12
8388,13.32
8400,12.56
8412,11.1
8424,9.33
8436,7.63
8448,6.33
8460,5.65
8472,5.59
8484,5.97
8496,6.59
8508,7.28
8519,7.95
8530,8.55
8542,9.03
8554,9.26
8566,9.13
8578,8.59
8590,7.7
8602,6.64
8614,5.6
8626,4.65
8638,3.75
8650,2.8
8662,1.68
8674,0.36
8686,-1.16
8698,-2.84
8709,-4.68
8720,-6.59
8732,-8.43
8744,-9.89
8756,-10.53
8768,-9.97
8780,-8.02
8792,-4.8
8804,-0.72
8816,3.64
8828,7.7
8840,11.03
8852,13.43
8864,14.84
8876,15.33
8888,14.99
8899,13.89
8910,12.12
8922,9.81
8934,7.21
8946,4.64
8958,2.46
8970,0.97
8982,0.26
8994,0.19
9006,0.42
9018,0.53
9030,0.19
9042,-0.7
9054,-2.03
9066,-3.57
9078,-5.07
9089,-6.41
9100,-7.61
9112,-8.72
9124,-9.8
9136,-10.87
9148,-11.94
9160,-13.05
9172,-14.25
9184,-15.59
9196,-17.04
9208,-18.44
9220,-19.5
9232,-19.9
9244,-19.38
9256,-17.77
9268,-15.13
9279,-11.63
9290,-7.59
9302,-3.41
9314,0.53
9326,3.87
9338,6.31
9350,7.66
9362,7.83
9374,6.91
9386,5.14
9398,2.94
9410,0.8
9422,-0.81
9434,-1.6
9446,-1.56
9458,-0.91
9469,-0.08
9480,0.52
9492,0.65
9504,0.33
9516,-0.27
9528,-0.86
9540,-1.27
9552,-1.47
9564,-1.59
9576,-1.81
9588,-2.33
9600,-3.25
9612,-4.6
9624,-6.36
9636,-8.48
9648,-10.91
9659,-13.53
9670,-16.1
9682,-18.21
9694,-19.39
9706,-19.17
9718,-17.35
9730,-14.04
9742,-9.68
9754,-4.9
9766,-0.29
9778,3.74
9790,6.97
9802,9.37
9814,10.93
9826,11.61
9838,11.42
9849,10.45
9860,8.95
9872,7.3
9884,5.89
9896,4.97
9908,4.64
9920,4.8
9932,5.28
9944,5.85
9956,6.33
9968,6.58
9980,6.47
9992,5.93
10004,4.92
10016,3.47
10028,1.67
10039,-0.34
10050,-2.42
10062,-4.46
10074,-6.44
10086,-8.4
10098,-10.42
10110,-12.57
10122,-14.81
10134,-16.93
10146,-18.57
10158,-19.33
10170,-18.89
10182,-17.16
10194,-14.29
10206,-10.63
10218,-6.6
10229,-2.63
10240,0.95
10252,3.9
10264,6.0
10276,7.1
10288,7.11
10300,6.1
10312,4.32
10324,2.14
10336,0.02
10348,-1.65
10360,-2.62
10372,-2.86
10384,-2.57
10396,-2.05
10408,-1.62
10419,-1.46
10430,-1.61
10442,-1.93
10454,-2.3
10466,-2.65
10478,-3.07
10490,-3.69
10502,-4.61
10514,-5.83
10526,-7.22
10538,-8.65
10550,-10.06
10562,-11.5
10574,-13.04
10586,-14.69
10598,-16.23
10609,-17.28
10620,-17.39
10632,-16.26
10644,-13.84
10656,-10.38
10668,-6.31
10680,-2.06
10692,1.98
10704,5.57
10716,8.56
10728,10.86
10740,12.38
10752,13.04
10764,12.89
10776,12.06
10788,10.8
10799,9.47
10810,8.41
10822,7.91
10834,8.09
10846,8.9
10858,10.14
10870,11.46
10882,12.55
10894,13.17
10906,13.34
10918,13.19
10930,12.97
10942,12.82
10954,12.69
10966,12.43
10978,11.85
10989,10.87
11000,9.56
11012,8.12
11024,6.74
11036,5.58
11048,4.69
11060,4.18
11072,4.17
11084,4.86
11096,6.44
11108,8.98
11120,12.44
11132,16.62
11144,21.26
11156,26.13
11168,31.04
11179,35.85
11190,40.34
11202,44.18
11214,46.87
11226,47.8
11238,46.49
11250,42.79
11262,37.03
11274,29.94
11286,22.48
11298,15.46
11310,9.35
11322,4.18
11334,-0.32
11346,-4.53
11358,-8.71
11369,-12.86
11380,-16.81
11392,-20.33
11404,-23.3
11416,-25.75
11428,-27.86
11440,-29.87
11452,-31.94
11464,-34.14
11476,-36.43
11488,-38.76
11500,-41.13
11512,-43.58
11524,-46.12
11536,-48.56
11548,-50.52
11559,-51.47
11570,-50.9
11582,-48.56
11594,-44.55
11606,-39.34
11618,-33.61
11630,-28.12
11642,-23.5
11654,-20.21
11666,-18.41
11678,-18.0
11690,-18.63
11702,-19.79
11714,-20.91
11726,-21.45
11738,-21.03
11749,-19.45
11760,-16.64
11772,-12.63
11784,-7.46
11796,-1.28
11808,5.73
11820,13.22
11832,20.77
11844,27.91
11856,34.2
11868,39.4
11880,43.42
11892,46.38
11904,48.52
11916,50.2
11928,51.81
11939,53.66
11950,55.88
11962,58.33
11974,60.48
11986,61.57
11998,60.84
12010,58.04
12022,53.67
12034,49.03
12046,45.82
12058,45.45
12070,48.51
12082,54.51
12094,62.25
12106,70.51
12118,78.65
12129,86.91
12140,96.18
12152,107.36
12164,120.83
12176,136.01
12188,151.57
12200,165.76
12212,176.9
12224,183.78
12236,185.88
12248,183.55
12260,178.13
12272,171.84
12284,167.42
12296,167.28
12308,172.44
12319,181.76
12330,191.93
12342,198.52
12354,197.56
12366,186.94
12378,167.04
12390,140.1
12402,108.85
12414,75.15
12426,39.42
12438,1.16
12450,-39.74
12462,-81.93
12474,-122.35
12486,-157.19
12498,-183.3
12509,-199.54
12520,-207.0
12532,-208.17
12544,-205.54
12556,-200.38
12568,-192.46
12580,-180.68
12592,-164.24
12604,-143.64
12616,-120.74
12628,-98.11
12640,-78.02
12652,-61.68
12664,-49.23
12676,-40.24
12688,-34.44
12699,-31.91
12710,-33.09
12722,-38.31
12734,-47.53
12746,-60.45
12758,-76.68
12770,-96.08
12782,-118.61
12794,-144.04
12806,-171.47
12818,-199.19
12830,-224.94
12842,-246.59
12854,-262.88
12866,-273.85
12878,-280.75
12889,-285.62
12900,-290.47
12912,-296.66
12924,-304.34
12936,-312.32
12948,-318.24
12960,-319.3
12972,-313.11
12984,-298.59
12996,-276.45
13008,-249.02
13020,-219.48
13032,-190.9
13044,-165.43
13056,-143.89
13068,-125.88
13079,-110.2
13090,-95.23
13102,-79.3
13114,-60.83
13126,-38.72
13138,-12.62
13150,16.75
13162,47.62
13174,77.47
13186,103.64
13198,124.02
13210,137.5
13222,144.21
13234,145.4
13246,143.03
13258,139.24
13269,135.74
13280,133.48
13292,132.51
13304,132.34
13316,132.45
13328,132.69
13340,133.37
13352,135.05
13364,138.02
13376,141.96
13388,145.92
13400,148.68
13412,149.37
13424,147.86
13436,144.86
13448,141.69
13459,139.67
13470,139.69
13482,141.91
13494,145.82
13506,150.48
13518,154.84
13530,158.01
13542,159.31
13554,158.32
13566,154.79
13578,148.78
13590,140.6
13602,130.9
13614,120.47
13626,110.0
13638,99.8
13649,89.72
13660,79.28
13672,67.97
13684,55.56
13696,42.2
13708,28.4
13720,14.69
13732,1.47
13744,-11.22
13756,-23.5
13768,-35.55
13780,-47.37
13792,-58.74
13804,-69.25
13816,-78.48
13828,-86.1
13839,-91.95
13850,-95.98
13862,-98.23
13874,-98.79
13886,-97.92
13898,-95.99
13910,-93.46
13922,-90.7
13934,-87.74
13946,-84.22
13958,-79.56
13970,-73.19
13982,-64.97
13994,-55.22
14006,-44.77
14018,-34.54
14029,-25.31
14040,-17.54
14052,-11.42
14064,-6.98
14076,-4.25
14088,-3.27
14100,-3.91
14112,-5.79
14124,-8.2
14136,-10.28
14148,-11.23
14160,-10.63
14172,-8.49
14184,-5.27
14196,-1.66
14208,1.66
14219,4.19
14230,5.71
14242,6.22
14254,5.94
14266,5.13
14278,4.09
14290,3.06
14302,2.21
14314,1.57
14326,1.05
14338,0.47
14350,-0.37
14362,-1.57
14374,-3.11
14386,-4.8
14398,-6.33
14409,-7.28
14420,-7.18
14432,-5.64
14444,-2.45
14456,2.27
14468,8.09
14480,14.29
14492,20.07
14504,24.79
14516,28.03
14528,29.64
14540,29.6
14552,27.92
14564,24.63
14576,19.89
14588,14.06
14599,7.76
14610,1.67
14622,-3.63
14634,-7.93
14646,-11.35
14658,-14.28
14670,-17.06
14682,-19.85
14694,-22.5
14706,-24.7
14718,-26.17
14730,-26.83
14742,-26.91
14754,-26.83
14766,-27.1
14778,-28.08
14789,-29.88
14800,-32.35
14812,-35.13
14824,-37.86
14836,-40.22
14848,-42.02
14860,-43.2
14872,-43.7
14884,-43.33
14896,-41.73
14908,-38.36
14920,-32.7
14932,-24.48
14944,-13.92
14956,-1.9
14968,10.22
14979,20.76
14990,28.12
15002,31.12
15014,29.27
15026,23.1
15038,14.32
15050,5.9
15062,1.55
15074,4.81
15086,17.64
15098,39.3
15110,66.05
15122,91.88
15134,110.35
15146,116.5
15158,108.33
15169,87.12
15180,56.64
15192,21.73
15204,-13.14
15216,-44.84
15228,-71.86
15240,-94.03
15252,-111.99
15264,-126.71
15276,-139.0
15288,-149.38
15300,-157.88
15312,-164.03
15324,-166.95
15336,-165.54
15348,-158.81
15359,-146.48
15370,-129.42
15382,-109.86
15394,-90.93
15406,-75.65
15418,-65.69
15430,-60.58
15442,-57.81
15454,-53.97
15466,-46.35
15478,-34.19
15490,-18.91
15502,-3.28
15514,9.94
15526,19.14
15538,24.15
15549,25.82
15560,25.22
15572,23.18
15584,20.31
15596,17.4
15608,15.69
15620,16.64
15632,21.4
15644,30.17
15656,42.06
15668,55.43
15680,68.56
15692,80.27
15704,90.09
15716,98.11
15728,104.59
15739,109.68
15750,113.37
15762,115.66
15774,116.73
15786,117.01
15798,117.05
15810,117.33
15822,118.02
15834,118.83
15846,119.06
15858,117.63
15870,113.35
15882,105.19
15894,92.62
15906,75.92
15918,56.27
15929,35.61
15940,16.24
15952,0.38
15964,-10.39
15976,-15.55
15988,-15.76
16000,-12.71
16012,-8.62
16024,-5.51
16036,-4.57
16048,-5.78
16060,-8.14
16072,-10.19
16084,-10.73
16096,-9.24
16108,-5.89
16119,-1.26
16130,4.06
16142,9.52
16154,14.54
16166,18.26
16178,19.68
16190,17.99
16202,13.05
16214,5.57
16226,-3.06
16238,-11.31
16250,-18.04
16262,-22.74
16274,-25.29
16286,-25.71
16298,-23.89
16309,-19.64
16320,-13.09
16332,-4.92
16344,3.81
16356,12.09
16368,19.58
16380,26.75
16392,34.56
16404,43.7
16416,53.85
16428,63.5
16440,70.46
16452,72.89
16464,70.24
16476,63.73
16488,55.87
16499,49.44
16510,46.44
16522,47.31
16534,51.09
16546,56.02
16558,60.3
16570,62.69
16582,62.6
16594,59.89
16606,54.52
16618,46.4
16630,35.45
16642,21.88
16654,6.41
16666,-9.67
16678,-24.7
16689,-37.04
16700,-45.49
16712,-49.67
16724,-50.09
16736,-47.93
16748,-44.56
16760,-41.06
16772,-37.93
16784,-35.14
16796,-32.49
16808,-29.9
16820,-27.58
16832,-25.9
16844,-25.07
16856,-24.89
16868,-24.78
16879,-24.01
16890,-22.03
16902,-18.77
16914,-14.61
16926,-10.31
16938,-6.69
16950,-4.48
16962,-4.06
16974,-5.34
16986,-7.66
16998,-9.98
17010,-11.21
17022,-10.7
17034,-8.59
17046,-5.9
17058,-4.1
17069,-4.51
17080,-7.63
17092,-12.82
17104,-18.53
17116,-22.91
17128,-24.49
17140,-22.76
17152,-18.13
17164,-11.64
17176,-4.45
17188,2.54
17200,8.73
17212,13.72
17224,17.07
17236,18.36
17248,17.33
17259,14.13
17270,9.37
17282,4.06
17294,-0.82
17306,-4.53
17318,-6.86
17330,-8.0
17342,-8.47
17354,-8.9
17366,-9.84
17378,-11.67
17390,-14.46
17402,-18.01
17414,-21.82
17426,-25.36
17438,-28.22
17449,-30.34
17460,-31.99
17472,-33.62
17484,-35.73
17496,-38.66
17508,-42.53
17520,-47.23
17532,-52.3
17544,-56.98
17556,-60.18
17568,-60.8
17580,-58.1
17592,-52.07
17604,-43.51
17616,-33.82
17628,-24.42
17639,-16.39
17650,-10.21
17662,-5.89
17674,-3.31
17686,-2.45
17698,-3.37
17710,-6.0
17722,-9.96
17734,-14.47
17746,-18.52
17758,-21.25
17770,-22.22
17782,-21.46
17794,-19.43
17806,-16.75
17818,-13.98
17829,-11.57
17840,-9.88
17852,-9.25
17864,-10.02
17876,-12.44
17888,-16.65
17900,-22.48
17912,-29.49
17924,-37.01
17936,-44.32
17948,-50.87
17960,-56.35
17972,-60.74
17984,-64.14
17996,-66.64
18008,-68.16
18019,-68.46
18030,-67.19
18042,-64.07
18054,-58.97
18066,-52.03
18078,-43.55
18090,-33.96
18102,-23.68
18114,-13.08
18126,-2.42
18138,8.12
18150,18.5
18162,28.71
18174,38.77
18186,48.74
18198,58.69
18209,68.76
18220,79.14
18232,90.1
18244,101.78
18256,114.2
18268,127.13
18280,140.15
18292,152.75
18304,164.53
18316,175.24
18328,184.81
18340,193.32
18352,200.99
18364,208.14
18376,215.13
18388,222.18
18399,228.99
18410,234.44
18422,236.58
18434,232.95
18446,221.39
18458,200.79
18470,171.59
18482,135.67
18494,95.67
18506,54.2
18518,13.19
18530,-26.15
18542,-63.11
18554,-96.93
18566,-126.62
18578,-151.03
18589,-169.2
18600,-180.79
18612,-186.26
18624,-186.69
18636,-183.48
18648,-177.89
18660,-170.75
18672,-162.4
18684,-152.88
18696,-142.13
18708,-130.23
18720,-117.49
18732,-104.4
18744,-91.51
18756,-79.31
18768,-68.06
18779,-57.8
18790,-48.34
18802,-39.47
18814,-31.11
18826,-23.44
18838,-16.92
18850,-12.08
18862,-9.34
18874,-8.79
18886,-10.08
18898,-12.49
18910,-15.09
18922,-16.9
18934,-17.21
18946,-15.81
18958,-13.11
18969,-10.31
18980,-9.26
18992,-12.12
19004,-20.8
19016,-36.23
19028,-57.81
19040,-83.16
19052,-108.48
19064,-129.5
19076,-142.81
19088,-147.06
19100,-143.52
19112,-135.72
19124,-128.08
19136,-124.29
19148,-125.84
19159,-131.66
19170,-138.63
19182,-142.92
19194,-141.4
19206,-132.45
19218,-116.12
19230,-93.61
19242,-66.56
19254,-36.65
19266,-5.54
19278,25.03
19290,53.23
19302,77.51
19314,97.21
19326,112.88
19338,126.17
19349,138.98
19360,152.41
19372,165.98
19384,177.55
19396,184.11
19408,182.9
19420,172.32
19432,152.25
19444,123.74
19456,88.35
19468,47.64
19480,3.12
19492,-43.34
19504,-89.02
19516,-130.21
19528,-162.8
19539,-183.31
19550,-190.0
19562,-183.44
19574,-166.1
19586,-141.37
19598,-112.29
19610,-80.83
19622,-47.94
19634,-14.2
19646,19.51
19658,51.79
19670,80.94
19682,105.51
19694,124.69
19706,138.28
19718,146.52
19729,149.87
19740,148.92
19752,144.54
19764,137.91
19776,130.43
19788,123.45
19800,118.0
19812,114.63
19824,113.34
19836,113.8
19848,115.41
19860,117.59
19872,119.94
19884,122.36
19896,125.03
19908,128.2
19919,131.93
19930,135.88
19942,139.26
19954,141.09
19966,140.47
19978,136.9
19990,130.3
20002,120.98
20014,109.3
20026,95.61
20038,80.16
20050,63.16
20062,44.92
20074,25.92
20086,6.79
20098,-11.74
20109,-28.93
20120,-44.14
20132,-56.93
20144,-67.19
20156,-75.1
20168,-81.13
20180,-85.93
20192,-90.15
20204,-94.22
20216,-98.21
20228,-101.69
20240,-103.77
20252,-103.26
20264,-99.0
20276,-90.24
20288,-76.97
20299,-60.01
20310,-40.77
20322,-20.89
20334,-1.79
20346,15.63
20358,30.93
20370,43.93
20382,54.53
20394,62.62
20406,68.08
20418,70.86
20430,70.77
20442,67.44
20454,60.25
20466,48.72
20478,33.02
20489,14.44
20500,-4.68
20512,-21.58
20524,-34.1
20536,-41.46
20548,-44.57
20560,-45.44
20572,-46.26
20584,-48.5
20596,-52.49
20608,-57.52
20620,-62.28
20632,-65.34
20644,-65.62
20656,-62.57
20668,-56.26
20679,-47.38
20690,-37.12
20702,-27.04
20714,-18.85
20726,-14.11
20738,-13.92
20750,-18.56
20762,-27.33
20774,-38.66
20786,-50.58
20798,-61.5
20810,-70.92
20822,-79.71
20834,-89.66
20846,-102.49
20858,-118.91
20869,-138.2
20880,-158.6
20892,-178.21
20904,-195.64
20916,-210.14
20928,-221.05
20940,-227.35
20952,-227.56
20964,-220.51
20976,-206.15
20988,-186.22
