seconds,BVP
3,-3.23
15,-4.2
27,-4.98
39,-5.54
51,-5.97
63,-6.39
75,-6.96
87,-7.74
99,-8.75
111,-9.92
123,-11.22
135,-12.64
147,-14.12
159,-15.52
171,-16.55
182,-16.81
193,-15.96
205,-13.9
217,-10.87
229,-7.36
241,-3.97
253,-1.14
265,0.95
277,2.34
289,3.18
301,3.56
313,3.52
325,3.11
337,2.44
349,1.77
361,1.41
372,1.58
383,2.32
395,3.46
407,4.69
419,5.73
431,6.41
443,6.72
455,6.71
467,6.53
479,6.27
491,5.99
503,5.7
515,5.31
527,4.74
539,3.92
551,2.85
562,1.6
573,0.34
585,-0.76
597,-1.61
609,-2.2
621,-2.6
633,-2.92
645,-3.26
657,-3.66
669,-4.18
681,-4.87
693,-5.73
705,-6.71
717,-7.59
729,-8.07
741,-7.83
752,-6.65
763,-4.54
775,-1.75
787,1.36
799,4.41
811,7.1
823,9.28
835,10.86
847,11.81
859,12.12
871,11.9
883,11.31
895,10.61
907,10.01
919,9.68
931,9.66
942,9.86
953,10.18
965,10.52
977,10.83
989,11.08
1001,11.27
1013,11.36
1025,11.34
1037,11.14
1049,10.73
1061,10.05
1073,9.07
1085,7.82
1097,6.4
1109,4.96
1121,3.66
1132,2.62
1143,1.83
1155,1.21
1167,0.62
1179,-0.07
1191,-0.97
1203,-2.1
1215,-3.41
1227,-4.78
1239,-5.98
1251,-6.72
1263,-6.7
1275,-5.72
1287,-3.75
1299,-1.02
1311,2.14
1322,5.42
1333,8.59
1345,11.6
1357,14.43
1369,16.99
1381,19.01
1393,20.08
1405,19.8
1417,17.99
1429,14.8
1441,10.66
1453,6.12
1465,1.66
1477,-2.44
1489,-6.07
1501,-9.18
1512,-11.66
1523,-13.38
1535,-14.23
1547,-14.28
1559,-13.81
1571,-13.23
1583,-12.91
1595,-13.05
1607,-13.62
1619,-14.4
1631,-15.15
1643,-15.69
1655,-15.92
1667,-15.88
1679,-15.65
1691,-15.36
1702,-15.18
1713,-15.27
1725,-15.77
1737,-16.64
1749,-17.7
1761,-18.57
1773,-18.86
1785,-18.29
1797,-16.8
1809,-14.58
1821,-11.94
1833,-9.24
1845,-6.66
1857,-4.33
1869,-2.26
1881,-0.51
1892,0.88
1903,1.81
1915,2.28
1927,2.35
1939,2.19
1951,1.97
1963,1.86
1975,1.91
1987,2.11
1999,2.37
2011,2.6
2023,2.71
2035,2.66
2047,2.46
2059,2.14
2071,1.78
2082,1.45
2093,1.16
2105,0.89
2117,0.56
2129,0.11
2141,-0.48
2153,-1.13
2165,-1.75
2177,-2.26
2189,-2.65
2201,-3.03
2213,-3.57
2225,-4.45
2237,-5.73
2249,-7.35
2261,-9.11
2272,-10.73
2283,-11.89
2295,-12.31
2307,-11.81
2319,-10.35
2331,-8.05
2343,-5.18
2355,-2.1
2367,0.83
2379,3.34
2391,5.25
2403,6.52
2415,7.22
2427,7.45
2439,7.37
2451,7.13
2462,6.87
2473,6.68
2485,6.61
2497,6.64
2509,6.75
2521,6.89
2533,7.06
2545,7.27
2557,7.49
2569,7.69
2581,7.8
2593,7.74
2605,7.45
2617,6.94
2629,6.29
2641,5.59
2652,4.94
2663,4.34
2675,3.73
2687,3.06
2699,2.31
2711,1.52
2723,0.76
2735,0.06
2747,-0.66
2759,-1.54
2771,-2.65
2783,-3.91
2795,-5.02
2807,-5.52
2819,-4.97
2831,-3.18
2842,-0.27
2853,3.32
2865,7.03
2877,10.35
2889,12.99
2901,14.86
2913,16.09
2925,16.79
2937,17.08
2949,17.01
2961,16.61
2973,16.03
2985,15.41
2997,14.93
3009,14.67
3021,14.55
3032,14.43
3043,14.14
3055,13.55
3067,12.67
3079,11.57
3091,10.35
3103,9.08
3115,7.78
3127,6.46
3139,5.12
3151,3.77
3163,2.46
3175,1.28
3187,0.3
3199,-0.45
3211,-1.01
3222,-1.47
3233,-1.98
3245,-2.7
3257,-3.75
3269,-5.16
3281,-6.89
3293,-8.75
3305,-10.43
3317,-11.57
3329,-11.85
3341,-11.05
3353,-9.2
3365,-6.56
3377,-3.59
3389,-0.72
3401,1.72
3412,3.59
3423,4.94
3435,5.87
3447,6.44
3459,6.65
3471,6.49
3483,6.08
3495,5.62
3507,5.4
3519,5.6
3531,6.22
3543,7.03
3555,7.69
3567,7.94
3579,7.7
3591,7.12
3602,6.42
3613,5.81
3625,5.3
3637,4.77
3649,4.07
3661,3.07
3673,1.81
3685,0.38
3697,-1.08
3709,-2.52
3721,-3.96
3733,-5.43
3745,-7.0
3757,-8.68
3769,-10.51
3781,-12.5
3792,-14.7
3803,-17.06
3815,-19.44
3827,-21.53
3839,-22.95
3851,-23.33
3863,-22.47
3875,-20.42
3887,-17.49
3899,-14.18
3911,-10.94
3923,-8.09
3935,-5.74
3947,-3.84
3959,-2.29
3971,-1.04
3982,-0.1
3993,0.54
4005,1.02
4017,1.61
4029,2.66
4041,4.4
4053,6.79
4065,9.52
4077,12.07
4089,14.01
4101,15.16
4113,15.58
4125,15.5
4137,15.16
4149,14.66
4161,13.96
4172,12.92
4183,11.43
4195,9.41
4207,6.87
4219,3.88
4231,0.56
4243,-2.88
4255,-6.16
4267,-9.03
4279,-11.28
4291,-12.86
4303,-13.95
4315,-14.79
4327,-15.64
4339,-16.63
4351,-17.73
4362,-18.77
4373,-19.47
4385,-19.54
4397,-18.76
4409,-17.02
4421,-14.37
4433,-11.02
4445,-7.33
4457,-3.71
4469,-0.51
4481,2.11
4493,4.18
4505,5.86
4517,7.29
4529,8.53
4541,9.51
4552,10.1
4563,10.3
4575,10.22
4587,10.12
4599,10.22
4611,10.63
4623,11.25
4635,11.9
4647,12.38
4659,12.62
4671,12.68
4683,12.66
4695,12.67
4707,12.72
4719,12.77
4731,12.7
4742,12.41
4753,11.86
4765,11.02
4777,9.97
4789,8.8
4801,7.59
4813,6.46
4825,5.43
4837,4.49
4849,3.58
4861,2.64
4873,1.58
4885,0.33
4897,-1.19
4909,-3.0
4921,-5.02
4932,-7.0
4943,-8.59
4955,-9.38
4967,-9.08
4979,-7.6
4991,-5.15
5003,-2.11
5015,1.04
5027,3.93
5039,6.38
5051,8.38
5063,9.97
5075,11.17
5087,11.95
5099,12.23
5111,12.03
5122,11.51
5133,10.92
5145,10.52
5157,10.46
5169,10.72
5181,11.09
5193,11.37
5205,11.39
5217,11.12
5229,10.58
5241,9.86
5253,9.0
5265,8.06
5277,7.06
5289,6.09
5301,5.2
5312,4.44
5323,3.79
5335,3.19
5347,2.59
5359,1.92
5371,1.21
5383,0.47
5395,-0.27
5407,-0.97
5419,-1.67
5431,-2.41
5443,-3.24
5455,-4.24
5467,-5.45
5479,-6.91
5491,-8.58
5502,-10.34
5513,-11.95
5525,-13.13
5537,-13.6
5549,-13.18
5561,-11.88
5573,-9.91
5585,-7.55
5597,-5.13
5609,-2.88
5621,-0.91
5633,0.73
5645,2.04
5657,3.01
5669,3.65
5681,3.95
5692,4.0
5703,3.93
5715,3.87
5727,3.92
5739,4.13
5751,4.5
5763,5.02
5775,5.66
5787,6.37
5799,7.04
5811,7.52
5823,7.64
5835,7.34
5847,6.65
5859,5.74
5871,4.79
5882,3.89
5893,3.05
5905,2.2
5917,1.26
5929,0.26
5941,-0.68
5953,-1.43
5965,-1.94
5977,-2.26
5989,-2.55
6001,-2.97
6013,-3.62
6025,-4.47
6037,-5.45
6049,-6.49
6061,-7.58
6072,-8.79
6083,-10.2
6095,-11.84
6107,-13.62
6119,-15.28
6131,-16.48
6143,-16.88
6155,-16.31
6167,-14.84
6179,-12.77
6191,-10.46
6203,-8.26
6215,-6.38
6227,-4.86
6239,-3.69
6251,-2.86
6262,-2.38
6273,-2.24
6285,-2.37
6297,-2.64
6309,-2.84
6321,-2.82
6333,-2.48
6345,-1.87
6357,-1.1
6369,-0.31
6381,0.37
6393,0.86
6405,1.13
6417,1.23
6429,1.26
6441,1.3
6452,1.42
6463,1.6
6475,1.79
6487,1.91
6499,1.88
6511,1.68
6523,1.32
6535,0.8
6547,0.16
6559,-0.57
6571,-1.33
6583,-2.08
6595,-2.76
6607,-3.35
6619,-3.9
6631,-4.47
6642,-5.19
6653,-6.08
6665,-7.18
6677,-8.45
6689,-9.82
6701,-11.16
6713,-12.3
6725,-12.98
6737,-12.98
6749,-12.13
6761,-10.43
6773,-8.05
6785,-5.3
6797,-2.51
6809,0.06
6821,2.28
6832,4.1
6843,5.54
6855,6.61
6867,7.28
6879,7.53
6891,7.43
6903,7.09
6915,6.71
6927,6.52
6939,6.66
6951,7.15
6963,7.88
6975,8.69
6987,9.37
6999,9.82
7011,9.99
7022,9.89
7033,9.58
7045,9.1
7057,8.51
7069,7.89
7081,7.31
7093,6.87
7105,6.58
7117,6.39
7129,6.16
7141,5.77
7153,5.1
7165,4.15
7177,3.06
7189,1.99
7201,1.11
7212,0.49
7223,0.09
7235,-0.25
7247,-0.74
7259,-1.53
7271,-2.63
7283,-3.93
7295,-5.17
7307,-6.04
7319,-6.26
7331,-5.67
7343,-4.28
7355,-2.22
7367,0.22
7379,2.74
7391,5.09
7402,7.06
7413,8.59
7425,9.66
7437,10.3
7449,10.58
7461,10.58
7473,10.37
7485,10.06
7497,9.77
7509,9.6
7521,9.6
7533,9.78
7545,10.03
7557,10.22
7569,10.17
7581,9.77
7592,8.97
7603,7.85
7615,6.57
7627,5.31
7639,4.16
7651,3.13
7663,2.13
7675,1.07
7687,-0.1
7699,-1.34
7711,-2.54
7723,-3.61
7735,-4.55
7747,-5.4
7759,-6.24
7771,-7.09
7782,-7.96
7793,-8.8
7805,-9.56
7817,-10.26
7829,-10.98
7841,-11.77
7853,-12.63
7865,-13.48
7877,-14.08
7889,-14.14
7901,-13.42
7913,-11.78
7925,-9.31
7937,-6.27
7949,-3.05
7961,-0.01
7972,2.53
7983,4.5
7995,5.96
8007,7.05
8019,7.89
8031,8.57
8043,9.13
8055,9.66
8067,10.32
8079,11.25
8091,12.59
8103,14.32
8115,16.27
8127,18.22
8139,19.98
8151,21.5
8162,22.83
8173,24.09
8185,25.31
8197,26.43
8209,27.28
8221,27.64
8233,27.37
8245,26.41
8257,24.82
8269,22.74
8281,20.32
8293,17.71
8305,15.02
8317,12.34
8329,9.71
8341,7.16
8352,4.68
8363,2.19
8375,-0.48
8387,-3.51
8399,-7.03
8411,-11.04
8423,-15.32
8435,-19.47
8447,-23.01
8459,-25.54
8471,-26.86
8483,-27.03
8495,-26.28
8507,-24.98
8519,-23.48
8531,-22.07
8542,-20.97
8553,-20.26
8565,-19.95
8577,-19.92
8589,-20.01
8601,-20.08
8613,-20.06
8625,-19.93
8637,-19.74
8649,-19.51
8661,-19.17
8673,-18.66
8685,-17.92
8697,-17.01
8709,-16.04
8721,-15.2
8732,-14.55
8743,-14.08
8755,-13.66
8767,-13.14
8779,-12.46
8791,-11.64
8803,-10.81
8815,-10.08
8827,-9.55
8839,-9.26
8851,-9.17
8863,-9.21
8875,-9.29
8887,-9.37
8899,-9.44
8911,-9.56
8922,-9.84
8933,-10.38
8945,-11.22
8957,-12.35
8969,-13.64
8981,-14.87
8993,-15.81
9005,-16.21
9017,-15.92
9029,-14.86
9041,-13.12
9053,-10.85
9065,-8.35
9077,-5.9
9089,-3.78
9101,-2.13
9112,-1.02
9123,-0.39
9135,-0.16
9147,-0.21
9159,-0.42
9171,-0.7
9183,-0.97
9195,-1.15
9207,-1.21
9219,-1.16
9231,-1.04
9243,-0.88
9255,-0.71
9267,-0.52
9279,-0.26
9291,0.06
9302,0.39
9313,0.58
9325,0.5
9337,0.05
9349,-0.72
9361,-1.68
9373,-2.61
9385,-3.34
9397,-3.79
9409,-3.98
9421,-3.98
9433,-3.9
9445,-3.83
9457,-3.86
9469,-4.1
9481,-4.61
9492,-5.41
9503,-6.41
9515,-7.36
9527,-7.92
9539,-7.76
9551,-6.66
9563,-4.61
9575,-1.84
9587,1.32
9599,4.48
9611,7.32
9623,9.67
9635,11.45
9647,12.7
9659,13.47
9671,13.82
9682,13.79
9693,13.46
9705,12.92
9717,12.33
9729,11.87
9741,11.67
9753,11.75
9765,12.0
9777,12.2
9789,12.15
9801,11.76
9813,11.05
9825,10.17
9837,9.28
9849,8.44
9861,7.66
9872,6.82
9883,5.81
9895,4.58
9907,3.18
9919,1.73
9931,0.38
9943,-0.77
9955,-1.78
9967,-2.76
9979,-3.95
9991,-5.51
10003,-7.47
10015,-9.73
10027,-11.98
10039,-13.84
10051,-14.97
10062,-15.13
10073,-14.23
10085,-12.4
10097,-9.89
10109,-7.04
10121,-4.23
10133,-1.77
10145,0.09
10157,1.26
10169,1.71
10181,1.59
10193,1.09
10205,0.47
10217,-0.01
10229,-0.17
10241,0.08
10252,0.66
10263,1.45
10275,2.26
10287,2.96
10299,3.45
10311,3.69
10323,3.69
10335,3.46
10347,3.02
10359,2.42
10371,1.69
10383,0.88
10395,-0.02
10407,-0.99
10419,-2.04
10431,-3.13
10442,-4.25
10453,-5.38
10465,-6.52
10477,-7.69
10489,-8.92
10501,-10.24
10513,-11.66
10525,-13.21
10537,-14.84
10549,-16.42
10561,-17.73
10573,-18.45
10585,-18.29
10597,-17.09
10609,-14.95
10621,-12.21
10632,-9.28
10643,-6.54
10655,-4.17
10667,-2.2
10679,-0.54
10691,0.85
10703,1.93
10715,2.64
10727,2.91
10739,2.82
10751,2.58
10763,2.44
10775,2.61
10787,3.15
10799,3.95
10811,4.78
10822,5.41
10833,5.71
10845,5.7
10857,5.51
10869,5.26
10881,4.98
10893,4.61
10905,4.0
10917,3.03
10929,1.72
10941,0.21
10953,-1.33
10965,-2.75
10977,-4.04
10989,-5.32
11001,-6.74
11012,-8.43
11023,-10.48
11035,-12.9
11047,-15.69
11059,-18.77
11071,-21.9
11083,-24.69
11095,-26.59
11107,-27.11
11119,-26.03
11131,-23.53
11143,-20.17
11155,-16.65
11167,-13.58
11179,-11.28
11191,-9.7
11202,-8.63
11213,-7.82
11225,-7.18
11237,-6.76
11249,-6.63
11261,-6.78
11273,-7.04
11285,-7.12
11297,-6.76
11309,-5.84
11321,-4.5
11333,-3.05
11345,-1.87
11357,-1.23
11369,-1.13
11381,-1.33
11392,-1.49
11403,-1.31
11415,-0.69
11427,0.21
11439,1.14
11451,1.84
11463,2.17
11475,2.15
11487,1.87
11499,1.45
11511,0.95
11523,0.38
11535,-0.29
11547,-1.09
11559,-2.1
11571,-3.41
11582,-5.1
11593,-7.2
11605,-9.6
11617,-11.97
11629,-13.82
11641,-14.63
11653,-14.0
11665,-11.89
11677,-8.56
11689,-4.58
11701,-0.52
11713,3.12
11725,6.14
11737,8.51
11749,10.3
11761,11.57
11772,12.31
11783,12.54
11795,12.43
11807,12.28
11819,12.46
11831,13.25
11843,14.68
11855,16.56
11867,18.48
11879,20.09
11891,21.16
11903,21.66
11915,21.73
11927,21.54
11939,21.27
11951,20.98
11962,20.67
11973,20.26
11985,19.62
11997,18.65
12009,17.27
12021,15.59
12033,13.75
12045,12.01
12057,10.53
12069,9.36
12081,8.37
12093,7.31
12105,5.93
12117,4.06
12129,1.69
12141,-1.01
12152,-3.73
12163,-6.07
12175,-7.61
12187,-7.98
12199,-6.97
12211,-4.62
12223,-1.2
12235,2.81
12247,6.87
12259,10.54
12271,13.56
12283,15.89
12295,17.6
12307,18.75
12319,19.35
12331,19.37
12342,18.85
12353,17.96
12365,16.99
12377,16.28
12389,16.05
12401,16.32
12413,16.84
12425,17.28
12437,17.33
12449,16.83
12461,15.79
12473,14.36
12485,12.78
12497,11.22
12509,9.84
12521,8.64
12532,7.59
12543,6.59
12555,5.56
12567,4.44
12579,3.26
12591,2.09
12603,1.01
12615,0.01
12627,-0.98
12639,-2.11
12651,-3.52
12663,-5.28
12675,-7.42
12687,-9.88
12699,-12.52
12711,-15.09
12722,-17.2
12733,-18.41
12745,-18.32
12757,-16.7
12769,-13.64
12781,-9.47
12793,-4.73
12805,0.04
12817,4.42
12829,8.19
12841,11.25
12853,13.61
12865,15.29
12877,16.35
12889,16.9
12901,17.11
12912,17.23
12923,17.48
12935,18.04
12947,18.97
12959,20.13
12971,21.33
12983,22.29
12995,22.81
13007,22.82
13019,22.43
13031,21.8
13043,21.09
13055,20.35
13067,19.5
13079,18.38
13091,16.88
13102,15.01
13113,12.9
13125,10.73
13137,8.67
13149,6.78
13161,5.02
13173,3.36
13185,1.72
13197,0.07
13209,-1.7
13221,-3.72
13233,-6.2
13245,-9.29
13257,-12.9
13269,-16.66
13281,-19.94
13292,-22.07
13303,-22.55
13315,-21.26
13327,-18.49
13339,-14.8
13351,-10.82
13363,-7.01
13375,-3.64
13387,-0.74
13399,1.67
13411,3.59
13423,4.96
13435,5.75
13447,6.05
13459,6.1
13471,6.21
13482,6.63
13493,7.46
13505,8.61
13517,9.9
13529,11.12
13541,12.13
13553,12.85
13565,13.25
13577,13.3
13589,12.95
13601,12.23
13613,11.18
13625,9.9
13637,8.5
13649,6.99
13661,5.35
13672,3.55
13683,1.61
13695,-0.4
13707,-2.35
13719,-4.14
13731,-5.75
13743,-7.25
13755,-8.78
13767,-10.49
13779,-12.52
13791,-14.99
13803,-17.93
13815,-21.23
13827,-24.57
13839,-27.44
13851,-29.23
13862,-29.44
13873,-27.87
13885,-24.7
13897,-20.46
13909,-15.79
13921,-11.27
13933,-7.22
13945,-3.71
13957,-0.74
13969,1.66
13981,3.37
13993,4.21
14005,4.17
14017,3.42
14029,2.4
14041,1.59
14052,1.39
14063,1.9
14075,2.95
14087,4.18
14099,5.22
14111,5.82
14123,5.92
14135,5.59
14147,4.96
14159,4.09
14171,3.0
14183,1.67
14195,0.06
14207,-1.79
14219,-3.78
14231,-5.76
14242,-7.59
14253,-9.13
14265,-10.32
14277,-11.13
14289,-11.66
14301,-12.05
14313,-12.55
14325,-13.38
14337,-14.66
14349,-16.35
14361,-18.19
14373,-19.75
14385,-20.56
14397,-20.21
14409,-18.51
14421,-15.51
14432,-11.5
14443,-6.93
14455,-2.25
14467,2.13
14479,5.91
14491,8.93
14503,11.1
14515,12.41
14527,12.92
14539,12.76
14551,12.15
14563,11.38
14575,10.77
14587,10.58
14599,10.95
14611,11.86
14622,13.1
14633,14.34
14645,15.3
14657,15.74
14669,15.63
14681,15.05
14693,14.17
14705,13.15
14717,12.07
14729,10.96
14741,9.79
14753,8.6
14765,7.42
14777,6.32
14789,5.31
14801,4.34
14812,3.26
14823,1.92
14835,0.2
14847,-1.93
14859,-4.33
14871,-6.72
14883,-8.7
14895,-9.84
14907,-9.81
14919,-8.45
14931,-5.86
14943,-2.4
14955,1.45
14967,5.18
14979,8.4
14991,10.91
15002,12.65
15013,13.69
15025,14.12
15037,14.02
15049,13.49
15061,12.66
15073,11.75
15085,10.99
15097,10.57
15109,10.53
15121,10.79
15133,11.16
15145,11.43
15157,11.51
15169,11.39
15181,11.12
15192,10.74
15203,10.19
15215,9.39
15227,8.26
15239,6.8
15251,5.16
15263,3.49
15275,1.99
15287,0.72
15299,-0.35
15311,-1.35
15323,-2.44
15335,-3.78
15347,-5.48
15359,-7.54
15371,-9.79
15382,-11.86
15393,-13.22
15405,-13.32
15417,-11.82
15429,-8.74
15441,-4.52
15453,0.15
15465,4.55
15477,8.23
15489,11.05
15501,13.11
15513,14.63
15525,15.74
15537,16.48
15549,16.88
15561,17.03
15572,17.12
15583,17.35
15595,17.87
15607,18.66
15619,19.63
15631,20.65
15643,21.63
15655,22.58
15667,23.47
15679,24.29
15691,24.96
15703,25.42
15715,25.65
15727,25.76
15739,25.89
15751,26.23
15762,26.89
15773,27.88
15785,29.02
15797,29.96
15809,30.24
15821,29.34
15833,26.84
15845,22.53
15857,16.49
15869,9.06
15881,0.78
15893,-7.69
15905,-15.64
15917,-22.39
15929,-27.4
15941,-30.38
15952,-31.39
15963,-30.85
15975,-29.42
15987,-27.76
15999,-26.37
16011,-25.44
16023,-24.94
16035,-24.66
16047,-24.44
16059,-24.17
16071,-23.87
16083,-23.55
16095,-23.16
16107,-22.64
16119,-21.88
16131,-20.84
16142,-19.62
16153,-18.39
16165,-17.41
16177,-16.84
16189,-16.72
16201,-16.9
16213,-17.2
16225,-17.43
16237,-17.54
16249,-17.64
16261,-17.88
16273,-18.35
16285,-19.02
16297,-19.73
16309,-20.29
16321,-20.59
16332,-20.66
16343,-20.64
16355,-20.75
16367,-21.18
16379,-22.03
16391,-23.28
16403,-24.77
16415,-26.21
16427,-27.19
16439,-27.25
16451,-26.03
16463,-23.39
16475,-19.51
16487,-14.89
16499,-10.21
16511,-6.09
16522,-2.94
16533,-0.85
16545,0.37
16557,1.0
16569,1.31
16581,1.46
16593,1.51
16605,1.52
16617,1.52
16629,1.58
16641,1.76
16653,2.07
16665,2.47
16677,2.83
16689,3.08
16701,3.14
16712,3.07
16723,2.93
16735,2.8
16747,2.67
16759,2.45
16771,2.01
16783,1.23
16795,0.11
16807,-1.19
16819,-2.47
16831,-3.52
16843,-4.26
16855,-4.77
16867,-5.24
16879,-5.91
16891,-6.91
16902,-8.28
16913,-9.92
16925,-11.62
16937,-13.13
16949,-14.18
16961,-14.49
16973,-13.85
16985,-12.16
16997,-9.52
17009,-6.19
17021,-2.58
17033,0.88
17045,3.87
17057,6.18
17069,7.78
17081,8.7
17092,8.99
17103,8.72
17115,8.0
17127,7.02
17139,6.05
17151,5.4
17163,5.23
17175,5.53
17187,6.12
17199,6.7
17211,7.05
17223,7.11
17235,6.95
17247,6.76
17259,6.62
17271,6.53
17282,6.37
17293,5.95
17305,5.17
17317,4.03
17329,2.65
17341,1.2
17353,-0.13
17365,-1.24
17377,-2.11
17389,-2.82
17401,-3.51
17413,-4.38
17425,-5.59
17437,-7.17
17449,-9.07
17461,-10.99
17472,-12.52
17483,-13.19
17495,-12.66
17507,-10.8
17519,-7.84
17531,-4.21
17543,-0.47
17555,2.91
17567,5.66
17579,7.76
17591,9.31
17603,10.47
17615,11.37
17627,12.04
17639,12.46
17651,12.6
17662,12.47
17673,12.15
17685,11.78
17697,11.49
17709,11.31
17721,11.22
17733,11.06
17745,10.7
17757,10.05
17769,9.18
17781,8.19
17793,7.19
17805,6.2
17817,5.13
17829,3.85
17841,2.27
17852,0.48
17863,-1.33
17875,-2.95
17887,-4.24
17899,-5.22
17911,-6.08
17923,-7.03
17935,-8.24
17947,-9.76
17959,-11.47
17971,-13.17
17983,-14.57
17995,-15.31
18007,-15.05
18019,-13.56
18031,-10.85
18042,-7.21
18053,-3.18
18065,0.66
18077,3.84
18089,6.15
18101,7.64
18113,8.5
18125,8.91
18137,8.94
18149,8.62
18161,7.97
18173,7.11
18185,6.23
18197,5.55
18209,5.19
18221,5.15
18232,5.3
18243,5.46
18255,5.48
18267,5.3
18279,4.9
18291,4.31
18303,3.56
18315,2.7
18327,1.73
18339,0.69
18351,-0.46
18363,-1.7
18375,-3.06
18387,-4.54
18399,-6.1
18411,-7.69
18422,-9.26
18433,-10.77
18445,-12.2
18457,-13.55
18469,-14.8
18481,-15.92
18493,-16.83
18505,-17.41
18517,-17.49
18529,-16.87
18541,-15.42
18553,-13.08
18565,-9.96
18577,-6.34
18589,-2.63
18601,0.78
18612,3.6
18623,5.72
18635,7.17
18647,8.04
18659,8.42
18671,8.34
18683,7.86
18695,7.09
18707,6.21
18719,5.46
18731,5.0
18743,4.9
18755,5.13
18767,5.53
18779,5.94
18791,6.17
18802,6.11
18813,5.72
18825,5.02
18837,4.12
18849,3.12
18861,2.08
18873,1.04
18885,-0.01
18897,-1.08
18909,-2.14
18921,-3.16
18933,-4.07
18945,-4.87
18957,-5.64
18969,-6.52
18981,-7.68
18992,-9.26
19003,-11.25
19015,-13.55
19027,-15.84
19039,-17.72
19051,-18.76
19063,-18.57
19075,-17.0
19087,-14.15
19099,-10.4
19111,-6.26
19123,-2.27
19135,1.14
19147,3.76
19159,5.55
19171,6.61
19182,7.11
19193,7.22
19205,7.1
19217,6.92
19229,6.8
19241,6.86
19253,7.15
19265,7.63
19277,8.18
19289,8.62
19301,8.81
19313,8.68
19325,8.28
19337,7.72
19349,7.15
19361,6.63
19372,6.13
19383,5.53
19395,4.69
19407,3.55
19419,2.18
19431,0.73
19443,-0.59
19455,-1.67
19467,-2.5
19479,-3.19
19491,-3.93
19503,-4.86
19515,-6.09
19527,-7.63
19539,-9.42
19551,-11.29
19562,-12.96
19573,-14.02
19585,-14.05
19597,-12.76
19609,-10.14
19621,-6.51
19633,-2.4
19645,1.58
19657,4.98
19669,7.59
19681,9.42
19693,10.59
19705,11.22
19717,11.35
19729,11.04
19741,10.42
19752,9.73
19763,9.29
19775,9.36
19787,10.01
19799,11.1
19811,12.32
19823,13.33
19835,13.94
19847,14.15
19859,14.12
19871,14.05
19883,14.02
19895,13.94
19907,13.63
19919,12.94
19931,11.83
19942,10.39
19953,8.81
19965,7.27
19977,5.84
19989,4.49
20001,3.11
20013,1.62
20025,-0.06
20037,-1.95
20049,-4.08
20061,-6.46
20073,-9.04
20085,-11.66
20097,-13.97
20109,-15.53
20121,-15.93
20132,-14.91
20143,-12.5
20155,-9.04
20167,-5.06
20179,-1.12
20191,2.32
20203,4.96
20215,6.75
20227,7.76
20239,8.13
20251,8.05
20263,7.71
20275,7.28
20287,6.93
20299,6.79
20311,6.94
20322,7.39
20333,8.03
20345,8.68
20357,9.14
20369,9.26
20381,8.98
20393,8.33
20405,7.43
20417,6.38
20429,5.25
20441,4.04
20453,2.75
20465,1.38
20477,-0.02
20489,-1.35
20501,-2.55
20512,-3.61
20523,-4.56
20535,-5.5
20547,-6.57
20559,-7.91
20571,-9.59
20583,-11.62
20595,-13.86
20607,-16.03
20619,-17.7
20631,-18.48
20643,-18.07
20655,-16.42
20667,-13.78
20679,-10.55
20691,-7.24
20702,-4.24
20713,-1.78
20725,0.1
20737,1.46
20749,2.41
20761,3.04
20773,3.38
20785,3.48
20797,3.38
20809,3.18
20821,3.03
20833,3.05
20845,3.34
20857,3.93
20869,4.73
20881,5.57
20892,6.26
20903,6.67
20915,6.78
20927,6.68
20939,6.51
20951,6.4
20963,6.36
20975,6.31
20987,6.13
20999,5.71
