seconds,BVP
7,7.1
19,5.96
31,4.84
43,3.71
55,2.59
67,1.51
79,0.53
90,-0.33
101,-1.07
113,-1.73
125,-2.39
137,-3.09
149,-3.89
161,-4.76
173,-5.66
185,-6.47
197,-7.03
209,-7.13
221,-6.57
233,-5.25
245,-3.27
257,-0.96
269,1.25
280,2.95
291,3.9
303,4.11
315,3.79
327,3.22
339,2.64
351,2.2
363,1.88
375,1.61
387,1.24
399,0.67
411,-0.18
423,-1.33
435,-2.73
447,-4.26
459,-5.76
470,-7.06
481,-8.06
493,-8.73
505,-9.12
517,-9.34
529,-9.48
541,-9.58
553,-9.58
565,-9.36
577,-8.8
589,-7.82
601,-6.45
613,-4.85
625,-3.21
637,-1.75
649,-0.61
660,0.16
671,0.54
683,0.61
695,0.41
707,0.06
719,-0.33
731,-0.63
743,-0.72
755,-0.55
767,-0.11
779,0.49
791,1.15
803,1.75
815,2.19
827,2.42
839,2.44
850,2.22
861,1.77
873,1.14
885,0.42
897,-0.2
909,-0.53
921,-0.41
933,0.2
945,1.19
957,2.3
969,3.26
981,3.85
993,4.05
1005,3.94
1017,3.67
1029,3.37
1040,3.06
1051,2.68
1063,2.16
1075,1.49
1087,0.71
1099,-0.05
1111,-0.69
1123,-1.12
1135,-1.33
1147,-1.4
1159,-1.43
1171,-1.58
1183,-2.0
1195,-2.77
1207,-3.85
1219,-5.04
1230,-6.04
1241,-6.55
1253,-6.43
1265,-5.68
1277,-4.47
1289,-3.05
1301,-1.66
1313,-0.41
1325,0.6
1337,1.3
1349,1.62
1361,1.49
1373,0.93
1385,0.06
1397,-0.89
1409,-1.73
1420,-2.39
1431,-2.93
1443,-3.46
1455,-4.05
1467,-4.63
1479,-5.04
1491,-5.12
1503,-4.85
1515,-4.41
1527,-4.04
1539,-3.98
1551,-4.27
1563,-4.72
1575,-5.03
1587,-4.89
1599,-4.18
1610,-2.97
1621,-1.48
1633,0.06
1645,1.5
1657,2.79
1669,3.93
1681,4.91
1693,5.64
1705,6.02
1717,6.0
1729,5.61
1741,4.98
1753,4.33
1765,3.8
1777,3.44
1789,3.2
1800,3.0
1811,2.78
1823,2.55
1835,2.3
1847,2.01
1859,1.59
1871,0.97
1883,0.09
1895,-0.96
1907,-2.03
1919,-2.91
1931,-3.45
1943,-3.62
1955,-3.49
1967,-3.22
1979,-2.94
1990,-2.7
2001,-2.49
2013,-2.23
2025,-1.92
2037,-1.61
2049,-1.41
2061,-1.4
2073,-1.58
2085,-1.81
2097,-1.89
2109,-1.65
2121,-1.01
2133,-0.02
2145,1.17
2157,2.4
2169,3.54
2180,4.53
2191,5.31
2203,5.84
2215,6.08
2227,6.08
2239,5.98
2251,6.02
2263,6.45
2275,7.45
2287,9.06
2299,11.14
2311,13.48
2323,15.79
2335,17.85
2347,19.51
2359,20.75
2370,21.58
2381,22.08
2393,22.3
2405,22.26
2417,21.93
2429,21.28
2441,20.24
2453,18.8
2465,17.02
2477,14.97
2489,12.76
2501,10.48
2513,8.14
2525,5.69
2537,3.02
2549,-0.0
2560,-3.42
2571,-7.17
2583,-11.09
2595,-14.98
2607,-18.61
2619,-21.83
2631,-24.55
2643,-26.74
2655,-28.39
2667,-29.5
2679,-30.07
2691,-30.09
2703,-29.58
2715,-28.58
2727,-27.13
2739,-25.32
2750,-23.2
2761,-20.81
2773,-18.18
2785,-15.33
2797,-12.3
2809,-9.18
2821,-6.15
2833,-3.43
2845,-1.22
2857,0.36
2869,1.25
2881,1.52
2893,1.27
2905,0.62
2917,-0.27
2929,-1.24
2940,-2.06
2951,-2.52
2963,-2.47
2975,-1.85
2987,-0.72
2999,0.73
3011,2.26
3023,3.66
3035,4.72
3047,5.35
3059,5.53
3071,5.33
3083,4.89
3095,4.35
3107,3.86
3119,3.42
3130,3.0
3141,2.5
3153,1.84
3165,1.04
3177,0.16
3189,-0.67
3201,-1.41
3213,-2.06
3225,-2.71
3237,-3.4
3249,-4.08
3261,-4.61
3273,-4.78
3285,-4.47
3297,-3.66
3309,-2.46
3320,-1.03
3331,0.47
3343,1.92
3355,3.27
3367,4.43
3379,5.33
3391,5.85
3403,5.92
3415,5.5
3427,4.7
3439,3.72
3451,2.74
3463,1.94
3475,1.38
3487,1.02
3499,0.8
3510,0.63
3521,0.46
3533,0.25
3545,-0.01
3557,-0.36
3569,-0.8
3581,-1.36
3593,-1.94
3605,-2.42
3617,-2.59
3629,-2.26
3641,-1.37
3653,0.01
3665,1.64
3677,3.25
3689,4.57
3700,5.5
3711,6.08
3723,6.42
3735,6.65
3747,6.79
3759,6.78
3771,6.52
3783,5.96
3795,5.15
3807,4.2
3819,3.28
3831,2.51
3843,1.93
3855,1.56
3867,1.35
3879,1.21
3890,1.01
3901,0.64
3913,0.02
3925,-0.8
3937,-1.68
3949,-2.4
3961,-2.75
3973,-2.62
3985,-2.03
3997,-1.07
4009,0.14
4021,1.47
4033,2.82
4045,4.01
4057,4.84
4069,5.09
4080,4.68
4091,3.69
4103,2.41
4115,1.23
4127,0.43
4139,0.12
4151,0.17
4163,0.34
4175,0.43
4187,0.35
4199,0.13
4211,-0.14
4223,-0.41
4235,-0.69
4247,-1.04
4259,-1.51
4270,-2.1
4281,-2.77
4293,-3.43
4305,-3.96
4317,-4.25
4329,-4.19
4341,-3.7
4353,-2.76
4365,-1.46
4377,0.02
4389,1.45
4401,2.59
4413,3.27
4425,3.44
4437,3.13
4449,2.48
4460,1.67
4471,0.84
4483,0.13
4495,-0.4
4507,-0.72
4519,-0.85
4531,-0.82
4543,-0.68
4555,-0.49
4567,-0.33
4579,-0.3
4591,-0.45
4603,-0.78
4615,-1.2
4627,-1.59
4639,-1.81
4650,-1.77
4661,-1.43
4673,-0.81
4685,0.03
4697,1.05
4709,2.19
4721,3.41
4733,4.66
4745,5.83
4757,6.81
4769,7.45
4781,7.71
4793,7.56
4805,7.08
4817,6.36
4829,5.49
4840,4.53
4851,3.52
4863,2.51
4875,1.58
4887,0.81
4899,0.26
4911,-0.03
4923,-0.09
4935,0.0
4947,0.15
4959,0.25
4971,0.22
4983,0.01
4995,-0.34
5007,-0.71
5019,-0.91
5030,-0.79
5041,-0.27
5053,0.59
5065,1.59
5077,2.53
5089,3.22
5101,3.61
5113,3.7
5125,3.58
5137,3.29
5149,2.87
5161,2.31
5173,1.64
5185,0.92
5197,0.24
5209,-0.3
5220,-0.67
5231,-0.92
5243,-1.11
5255,-1.3
5267,-1.47
5279,-1.56
5291,-1.51
5303,-1.32
5315,-1.12
5327,-1.07
5339,-1.31
5351,-1.84
5363,-2.49
5375,-3.0
5387,-3.12
5399,-2.74
5410,-1.96
5421,-0.99
5433,-0.08
5445,0.62
5457,1.09
5469,1.38
5481,1.57
5493,1.65
5505,1.59
5517,1.35
5529,0.98
5541,0.61
5553,0.43
5565,0.59
5577,1.1
5589,1.83
5600,2.57
5611,3.13
5623,3.43
5635,3.5
5647,3.47
5659,3.47
5671,3.56
5683,3.75
5695,4.04
5707,4.52
5719,5.29
5731,6.52
5743,8.29
5755,10.53
5767,13.02
5779,15.42
5790,17.41
5801,18.79
5813,19.48
5825,19.57
5837,19.17
5849,18.41
5861,17.4
5873,16.18
5885,14.8
5897,13.24
5909,11.52
5921,9.63
5933,7.53
5945,5.22
5957,2.73
5969,0.16
5980,-2.31
5991,-4.43
6003,-6.02
6015,-7.07
6027,-7.72
6039,-8.23
6051,-8.82
6063,-9.53
6075,-10.16
6087,-10.38
6099,-9.83
6111,-8.28
6123,-5.7
6135,-2.16
6147,2.13
6159,6.95
6170,11.99
6181,16.89
6193,21.28
6205,24.84
6217,27.52
6229,29.44
6241,30.94
6253,32.32
6265,33.77
6277,35.29
6289,36.73
6301,37.88
6313,38.65
6325,39.04
6337,39.21
6349,39.36
6360,39.73
6371,40.48
6383,41.69
6395,43.31
6407,45.23
6419,47.21
6431,48.97
6443,50.21
6455,50.63
6467,50.03
6479,48.35
6491,45.64
6503,42.08
6515,37.87
6527,33.22
6539,28.31
6550,23.27
6561,18.23
6573,13.31
6585,8.57
6597,3.98
6609,-0.55
6621,-5.14
6633,-9.87
6645,-14.72
6657,-19.59
6669,-24.33
6681,-28.87
6693,-33.18
6705,-37.28
6717,-41.18
6729,-44.8
6740,-48.0
6751,-50.59
6763,-52.43
6775,-53.46
6787,-53.72
6799,-53.37
6811,-52.61
6823,-51.65
6835,-50.71
6847,-49.95
6859,-49.43
6871,-49.19
6883,-49.15
6895,-49.21
6907,-49.22
6919,-49.03
6930,-48.48
6941,-47.39
6953,-45.61
6965,-43.0
6977,-39.52
6989,-35.3
7001,-30.59
7013,-25.73
7025,-20.97
7037,-16.36
7049,-11.73
7061,-6.82
7073,-1.48
7085,4.17
7097,9.74
7109,14.76
7120,18.89
7131,22.05
7143,24.38
7155,26.03
7167,26.99
7179,27.12
7191,26.24
7203,24.34
7215,21.58
7227,18.23
7239,14.49
7251,10.31
7263,5.48
7275,-0.21
7287,-6.71
7299,-13.62
7310,-20.24
7321,-25.84
7333,-29.88
7345,-32.24
7357,-33.2
7369,-33.25
7381,-32.99
7393,-32.83
7405,-32.94
7417,-33.24
7429,-33.41
7441,-33.01
7453,-31.59
7465,-28.78
7477,-24.43
7489,-18.69
7500,-11.96
7511,-4.78
7523,2.33
7535,9.02
7547,15.13
7559,20.66
7571,25.56
7583,29.7
7595,32.84
7607,34.76
7619,35.34
7631,34.62
7643,32.7
7655,29.7
7667,25.63
7679,20.5
7690,14.44
7701,7.76
7713,0.96
7725,-5.34
7737,-10.59
7749,-14.4
7761,-16.62
7773,-17.28
7785,-16.55
7797,-14.73
7809,-12.2
7821,-9.36
7833,-6.59
7845,-4.17
7857,-2.24
7869,-0.86
7880,-0.03
7891,0.26
7903,0.03
7915,-0.64
7927,-1.58
7939,-2.58
7951,-3.47
7963,-4.23
7975,-4.97
7987,-5.85
7999,-7.02
8011,-8.45
8023,-10.02
8035,-11.56
8047,-12.98
8059,-14.31
8070,-15.66
8081,-17.09
8093,-18.56
8105,-19.9
8117,-20.88
8129,-21.37
8141,-21.35
8153,-20.99
8165,-20.56
8177,-20.42
8189,-20.87
8201,-22.15
8213,-24.38
8225,-27.53
8237,-31.42
8249,-35.67
8260,-39.69
8271,-42.73
8283,-44.02
8295,-43.01
8307,-39.63
8319,-34.39
8331,-28.25
8343,-22.22
8355,-16.97
8367,-12.6
8379,-8.71
8391,-4.8
8403,-0.62
8415,3.62
8427,7.4
8439,10.17
8450,11.68
8461,12.05
8473,11.64
8485,10.74
8497,9.43
8509,7.53
8521,4.79
8533,1.08
8545,-3.39
8557,-8.13
8569,-12.45
8581,-15.69
8593,-17.5
8605,-17.93
8617,-17.33
8629,-16.18
8640,-14.87
8651,-13.6
8663,-12.44
8675,-11.33
8687,-10.1
8699,-8.39
8711,-5.72
8723,-1.64
8735,3.94
8747,10.57
8759,17.26
8771,22.77
8783,26.15
8795,27.04
8807,25.76
8819,22.94
8830,19.19
8841,14.77
8853,9.61
8865,3.61
8877,-3.2
8889,-10.48
8901,-17.68
8913,-24.18
8925,-29.46
8937,-33.13
8949,-34.97
8961,-34.92
8973,-33.06
8985,-29.69
8997,-25.32
9009,-20.57
9020,-16.07
9031,-12.24
9043,-9.17
9055,-6.62
9067,-4.16
9079,-1.35
9091,2.06
9103,6.09
9115,10.57
9127,15.27
9139,19.95
9151,24.43
9163,28.5
9175,31.88
9187,34.3
9199,35.51
9210,35.44
9221,34.26
9233,32.31
9245,30.07
9257,27.97
9269,26.28
9281,25.0
9293,23.92
9305,22.81
9317,21.59
9329,20.42
9341,19.62
9353,19.5
9365,20.1
9377,21.21
9389,22.4
9400,23.28
9411,23.62
9423,23.33
9435,22.4
9447,20.77
9459,18.46
9471,15.67
9483,12.89
9495,10.85
9507,10.14
9519,10.9
9531,12.62
9543,14.3
9555,14.85
9567,13.56
9579,10.35
9590,5.68
9601,0.28
9613,-5.18
9625,-10.19
9637,-14.48
9649,-17.84
9661,-20.13
9673,-21.28
9685,-21.4
9697,-20.79
9709,-19.95
9721,-19.32
9733,-19.14
9745,-19.25
9757,-19.14
9769,-18.13
9780,-15.72
9791,-11.74
9803,-6.5
9815,-0.57
9827,5.41
9839,10.98
9851,15.94
9863,20.32
9875,24.16
9887,27.43
9899,29.96
9911,31.53
9923,31.95
9935,31.15
9947,29.23
9959,26.31
9970,22.58
9981,18.18
9993,13.26
10005,7.98
10017,2.57
10029,-2.68
10041,-7.41
10053,-11.39
10065,-14.5
10077,-16.89
10089,-18.85
10101,-20.66
10113,-22.42
10125,-23.89
10137,-24.58
10149,-23.96
10160,-21.75
10171,-18.13
10183,-13.68
10195,-9.17
10207,-5.27
10219,-2.31
10231,-0.22
10243,1.26
10255,2.44
10267,3.47
10279,4.27
10291,4.65
10303,4.46
10315,3.69
10327,2.5
10339,1.19
10350,0.05
10361,-0.65
10373,-0.71
10385,0.05
10397,1.69
10409,4.15
10421,7.07
10433,9.84
10445,11.78
10457,12.42
10469,11.74
10481,10.26
10493,8.87
10505,8.46
10517,9.59
10529,12.28
10540,16.04
10551,20.14
10563,23.85
10575,26.69
10587,28.43
10599,29.09
10611,28.77
10623,27.52
10635,25.38
10647,22.43
10659,18.84
10671,14.95
10683,11.18
10695,7.85
10707,5.08
10719,2.75
10730,0.7
10741,-1.11
10753,-2.49
10765,-3.09
10777,-2.63
10789,-1.18
10801,0.87
10813,2.89
10825,4.36
10837,5.07
10849,5.11
10861,4.65
10873,3.8
10885,2.41
10897,0.32
10909,-2.49
10920,-5.69
10931,-8.67
10943,-10.77
10955,-11.6
10967,-11.23
10979,-10.14
10991,-8.93
11003,-8.1
11015,-7.81
11027,-7.98
11039,-8.39
11051,-8.92
11063,-9.6
11075,-10.61
11087,-12.11
11099,-14.13
11110,-16.54
11121,-19.08
11133,-21.47
11145,-23.49
11157,-25.02
11169,-26.0
11181,-26.37
11193,-26.06
11205,-25.03
11217,-23.34
11229,-21.21
11241,-18.93
11253,-16.73
11265,-14.64
11277,-12.46
11289,-9.87
11300,-6.65
11311,-2.78
11323,1.5
11335,5.86
11347,9.99
11359,13.74
11371,17.1
11383,20.1
11395,22.74
11407,24.97
11419,26.67
11431,27.69
11443,27.87
11455,27.05
11467,25.11
11479,22.08
11490,18.17
11501,13.75
11513,9.28
11525,5.16
11537,1.58
11549,-1.44
11561,-4.0
11573,-6.17
11585,-7.95
11597,-9.24
11609,-9.96
11621,-10.12
11633,-9.84
11645,-9.39
11657,-9.02
11669,-8.99
11680,-9.43
11691,-10.41
11703,-11.98
11715,-14.11
11727,-16.69
11739,-19.44
11751,-21.88
11763,-23.39
11775,-23.38
11787,-21.5
11799,-17.87
11811,-13.06
11823,-7.92
11835,-3.29
11847,0.29
11859,2.79
11870,4.6
11881,6.24
11893,8.12
11905,10.23
11917,12.22
11929,13.52
11941,13.68
11953,12.59
11965,10.5
11977,7.91
11989,5.34
12001,3.13
12013,1.44
12025,0.26
12037,-0.45
12049,-0.71
12060,-0.54
12071,-0.05
12083,0.54
12095,0.94
12107,0.91
12119,0.43
12131,-0.27
12143,-0.83
12155,-0.88
12167,-0.26
12179,0.9
12191,2.27
12203,3.45
12215,4.09
12227,4.04
12239,3.27
12250,1.9
12261,0.1
12273,-1.88
12285,-3.76
12297,-5.22
12309,-6.04
12321,-6.14
12333,-5.67
12345,-4.92
12357,-4.24
12369,-3.92
12381,-4.09
12393,-4.74
12405,-5.77
12417,-7.1
12429,-8.66
12440,-10.47
12451,-12.52
12463,-14.74
12475,-16.94
12487,-18.8
12499,-19.95
12511,-20.06
12523,-18.9
12535,-16.51
12547,-13.1
12559,-9.08
12571,-4.9
12583,-0.96
12595,2.46
12607,5.33
12619,7.81
12630,10.21
12641,12.91
12653,16.2
12665,20.15
12677,24.59
12689,29.09
12701,33.19
12713,36.44
12725,38.6
12737,39.58
12749,39.36
12761,37.91
12773,35.15
12785,30.95
12797,25.3
12809,18.32
12820,10.36
12831,1.91
12843,-6.44
12855,-14.1
12867,-20.54
12879,-25.39
12891,-28.5
12903,-29.94
12915,-30.06
12927,-29.37
12939,-28.49
12951,-27.99
12963,-28.26
12975,-29.46
12987,-31.52
12999,-34.23
13010,-37.34
13021,-40.62
13033,-43.92
13045,-47.11
13057,-50.01
13069,-52.44
13081,-54.1
13093,-54.79
13105,-54.34
13117,-52.72
13129,-50.02
13141,-46.39
13153,-42.06
13165,-37.29
13177,-32.41
13189,-27.75
13200,-23.5
13211,-19.69
13223,-16.07
13235,-12.26
13247,-7.93
13259,-3.03
13271,2.13
13283,6.97
13295,10.88
13307,13.42
13319,14.47
13331,14.26
13343,13.26
13355,12.05
13367,11.2
13379,11.18
13390,12.28
13401,14.48
13413,17.47
13425,20.69
13437,23.57
13449,25.75
13461,27.19
13473,28.17
13485,29.01
13497,29.85
13509,30.52
13521,30.59
13533,29.61
13545,27.39
13557,24.19
13569,20.67
13580,17.7
13591,16.01
13603,16.01
13615,17.64
13627,20.46
13639,23.88
13651,27.28
13663,30.19
13675,32.35
13687,33.78
13699,34.66
13711,35.28
13723,35.92
13735,36.73
13747,37.68
13759,38.61
13770,39.32
13781,39.67
13793,39.63
13805,39.27
13817,38.61
13829,37.63
13841,36.23
13853,34.29
13865,31.81
13877,28.87
13889,25.68
13901,22.41
13913,19.17
13925,16.01
13937,12.99
13949,10.23
13960,7.92
13971,6.19
13983,5.01
13995,4.13
14007,3.12
14019,1.58
14031,-0.79
14043,-3.97
14055,-7.76
14067,-11.84
14079,-15.93
14091,-19.84
14103,-23.44
14115,-26.63
14127,-29.3
14139,-31.34
14150,-32.76
14161,-33.62
14173,-33.99
14185,-33.99
14197,-33.62
14209,-32.92
14221,-31.94
14233,-30.78
14245,-29.65
14257,-28.72
14269,-28.09
14281,-27.65
14293,-27.13
14305,-26.15
14317,-24.34
14329,-21.56
14340,-17.9
14351,-13.73
14363,-9.56
14375,-5.85
14387,-2.87
14399,-0.66
14411,0.94
14423,2.16
14435,3.16
14447,4.04
14459,4.82
14471,5.49
14483,6.1
14495,6.68
14507,7.24
14519,7.72
14530,8.02
14541,8.04
14553,7.71
14565,7.05
14577,6.16
14589,5.15
14601,4.09
14613,3.0
14625,1.86
14637,0.73
14649,-0.26
14661,-0.87
14673,-0.85
14685,-0.04
14697,1.51
14709,3.52
14720,5.58
14731,7.3
14743,8.41
14755,8.87
14767,8.79
14779,8.35
14791,7.73
14803,7.07
14815,6.45
14827,5.95
14839,5.6
14851,5.4
14863,5.29
14875,5.15
14887,4.89
14899,4.4
14910,3.65
14921,2.67
14933,1.48
14945,0.13
14957,-1.35
14969,-2.87
14981,-4.29
14993,-5.37
15005,-5.89
15017,-5.68
15029,-4.73
15041,-3.15
15053,-1.19
15065,0.88
15077,2.78
15089,4.31
15100,5.33
15111,5.85
15123,5.97
15135,5.87
15147,5.75
15159,5.69
15171,5.68
15183,5.61
15195,5.35
15207,4.92
15219,4.42
15231,4.04
15243,3.91
15255,4.0
15267,4.14
15279,4.06
15290,3.57
15301,2.63
15313,1.41
15325,0.21
15337,-0.65
15349,-0.89
15361,-0.41
15373,0.73
15385,2.3
15397,4.03
15409,5.61
15421,6.81
15433,7.46
15445,7.49
15457,6.9
15469,5.76
15480,4.2
15491,2.41
15503,0.57
15515,-1.12
15527,-2.55
15539,-3.63
15551,-4.36
15563,-4.81
15575,-5.09
15587,-5.39
15599,-5.87
15611,-6.65
15623,-7.79
15635,-9.22
15647,-10.78
15659,-12.21
15670,-13.21
15681,-13.51
15693,-12.97
15705,-11.62
15717,-9.66
15729,-7.45
15741,-5.34
15753,-3.6
15765,-2.29
15777,-1.35
15789,-0.65
15801,-0.08
15813,0.36
15825,0.61
15837,0.65
15849,0.57
15860,0.54
15871,0.76
15883,1.32
15895,2.18
15907,3.16
15919,4.02
15931,4.56
15943,4.64
15955,4.23
15967,3.37
15979,2.1
15991,0.54
16003,-1.1
16015,-2.57
16027,-3.51
16039,-3.66
16050,-2.88
16061,-1.25
16073,0.89
16085,3.11
16097,4.98
16109,6.21
16121,6.72
16133,6.58
16145,6.04
16157,5.32
16169,4.62
16181,4.06
16193,3.63
16205,3.32
16217,3.06
16229,2.83
16240,2.6
16251,2.37
16263,2.12
16275,1.79
16287,1.33
16299,0.72
16311,-0.06
16323,-0.95
16335,-1.86
16347,-2.67
16359,-3.21
16371,-3.37
16383,-3.09
16395,-2.37
16407,-1.31
16419,-0.02
16430,1.35
16441,2.68
16453,3.86
16465,4.78
16477,5.34
16489,5.46
16501,5.17
16513,4.59
16525,3.91
16537,3.31
16549,2.86
16561,2.53
16573,2.18
16585,1.7
16597,1.01
16609,0.1
16620,-0.95
16631,-2.07
16643,-3.18
16655,-4.16
16667,-4.86
16679,-5.08
16691,-4.63
16703,-3.39
16715,-1.46
16727,0.89
16739,3.26
16751,5.25
16763,6.62
16775,7.31
16787,7.42
16799,7.1
16810,6.5
16821,5.63
16833,4.47
16845,3.01
16857,1.32
16869,-0.44
16881,-2.06
16893,-3.34
16905,-4.2
16917,-4.65
16929,-4.8
16941,-4.8
16953,-4.81
16965,-4.91
16977,-5.18
16989,-5.58
17000,-6.03
17011,-6.34
17023,-6.27
17035,-5.59
17047,-4.17
17059,-2.07
17071,0.47
17083,3.02
17095,5.19
17107,6.68
17119,7.42
17131,7.5
17143,7.12
17155,6.49
17167,5.76
17179,5.07
17190,4.48
17201,4.07
17213,3.88
17225,3.9
17237,4.01
17249,4.06
17261,3.86
17273,3.29
17285,2.31
17297,1.0
17309,-0.5
17321,-1.99
17333,-3.28
17345,-4.17
17357,-4.49
17369,-4.13
17380,-3.09
17391,-1.47
17403,0.54
17415,2.71
17427,4.86
17439,6.86
17451,8.67
17463,10.24
17475,11.51
17487,12.35
17499,12.65
17511,12.38
17523,11.65
17535,10.67
17547,9.71
17559,8.94
17570,8.38
17581,7.89
17593,7.24
17605,6.25
17617,4.84
17629,3.07
17641,1.11
17653,-0.87
17665,-2.7
17677,-4.28
17689,-5.53
17701,-6.41
17713,-6.97
17725,-7.32
17737,-7.72
17749,-8.39
17760,-9.51
17771,-11.06
17783,-12.85
17795,-14.57
17807,-15.9
17819,-16.64
17831,-16.71
17843,-16.16
17855,-15.11
17867,-13.71
17879,-12.15
17891,-10.58
17903,-9.15
17915,-7.93
17927,-6.94
17939,-6.15
17950,-5.5
17961,-4.98
17973,-4.56
17985,-4.23
17997,-3.89
18009,-3.42
18021,-2.64
18033,-1.45
18045,0.2
18057,2.18
18069,4.31
18081,6.3
18093,7.94
18105,9.06
18117,9.6
18129,9.62
18140,9.22
18151,8.53
18163,7.66
18175,6.71
18187,5.75
18199,4.85
18211,4.07
18223,3.46
18235,3.05
18247,2.82
18259,2.7
18271,2.61
18283,2.46
18295,2.14
18307,1.55
18319,0.64
18330,-0.63
18341,-2.16
18353,-3.74
18365,-5.06
18377,-5.76
18389,-5.63
18401,-4.66
18413,-3.08
18425,-1.29
18437,0.32
18449,1.48
18461,2.09
18473,2.21
18485,1.97
18497,1.48
18509,0.82
18520,0.02
18531,-0.85
18543,-1.66
18555,-2.27
18567,-2.55
18579,-2.48
18591,-2.18
18603,-1.87
18615,-1.72
18627,-1.86
18639,-2.24
18651,-2.74
18663,-3.22
18675,-3.64
18687,-4.01
18699,-4.37
18710,-4.66
18721,-4.72
18733,-4.3
18745,-3.2
18757,-1.38
18769,0.98
18781,3.53
18793,5.89
18805,7.71
18817,8.79
18829,9.11
18841,8.73
18853,7.82
18865,6.59
18877,5.25
18889,4.02
18900,3.02
18911,2.32
18923,1.92
18935,1.76
18947,1.75
18959,1.79
18971,1.78
18983,1.64
18995,1.32
19007,0.77
19019,0.01
19031,-0.87
19043,-1.72
19055,-2.36
19067,-2.58
19079,-2.23
19090,-1.26
19101,0.26
19113,2.14
19125,4.07
19137,5.71
19149,6.81
19161,7.17
19173,6.74
19185,5.6
19197,3.93
19209,1.98
19221,0.04
19233,-1.61
19245,-2.78
19257,-3.39
19269,-3.54
19280,-3.42
19291,-3.27
19303,-3.24
19315,-3.39
19327,-3.71
19339,-4.16
19351,-4.7
19363,-5.35
19375,-6.05
19387,-6.66
19399,-6.93
19411,-6.59
19423,-5.49
19435,-3.65
19447,-1.32
19459,1.12
19470,3.28
19481,4.9
19493,5.88
19505,6.31
19517,6.33
19529,6.1
19541,5.68
19553,5.11
19565,4.39
19577,3.59
19589,2.85
19601,2.35
19613,2.23
19625,2.51
19637,3.03
19649,3.54
19660,3.82
19671,3.76
19683,3.38
19695,2.76
19707,1.96
19719,1.0
19731,-0.12
19743,-1.3
19755,-2.3
19767,-2.8
19779,-2.51
19791,-1.33
19803,0.56
19815,2.8
19827,4.88
19839,6.37
19850,7.01
19861,6.74
19873,5.73
19885,4.27
19897,2.66
19909,1.16
19921,-0.11
19933,-1.11
19945,-1.86
19957,-2.38
19969,-2.67
19981,-2.75
19993,-2.71
20005,-2.71
20017,-2.94
20029,-3.52
20040,-4.48
20051,-5.73
20063,-7.09
20075,-8.33
20087,-9.24
20099,-9.62
20111,-9.31
20123,-8.22
20135,-6.42
20147,-4.1
20159,-1.6
20171,0.69
20183,2.47
20195,3.58
20207,4.04
20219,3.99
20230,3.65
20241,3.21
20253,2.84
20265,2.63
20277,2.62
20289,2.79
20301,3.05
20313,3.26
20325,3.31
20337,3.16
20349,2.81
20361,2.31
20373,1.7
20385,0.96
20397,0.03
20409,-1.1
20420,-2.34
20431,-3.5
20443,-4.32
20455,-4.6
20467,-4.24
20479,-3.34
20491,-2.08
20503,-0.7
20515,0.6
20527,1.66
20539,2.39
20551,2.75
20563,2.72
20575,2.35
20587,1.69
20599,0.85
20610,-0.07
20621,-0.9
20633,-1.51
20645,-1.77
20657,-1.68
20669,-1.31
20681,-0.82
20693,-0.43
20705,-0.31
20717,-0.53
20729,-1.08
20741,-1.86
20753,-2.77
20765,-3.67
20777,-4.43
20789,-4.89
20800,-4.89
20811,-4.29
20823,-3.07
20835,-1.31
20847,0.78
20859,2.93
20871,4.88
20883,6.44
20895,7.52
20907,8.1
20919,8.22
20931,7.95
20943,7.4
20955,6.66
20967,5.86
20979,5.08
20990,4.37
