seconds,BVP
3,-76.37
14,-90.0
26,-101.79
38,-110.86
50,-116.15
62,-116.95
74,-113.39
86,-106.53
98,-97.97
110,-89.44
122,-82.31
134,-77.44
146,-75.41
158,-76.59
170,-81.33
182,-89.82
193,-101.69
204,-115.91
216,-130.67
228,-143.84
240,-153.56
252,-158.8
264,-159.59
276,-156.87
288,-151.88
300,-145.55
312,-138.22
324,-129.62
336,-119.23
348,-106.68
360,-91.96
372,-75.33
383,-57.21
394,-38.04
406,-18.35
418,1.2
430,19.88
442,37.16
454,53.04
466,68.18
478,83.6
490,100.14
502,117.76
514,135.43
526,151.5
538,164.5
550,173.89
562,180.28
573,185.12
584,189.85
596,195.28
608,201.16
620,206.41
632,209.57
644,209.22
656,204.29
668,194.13
680,178.52
692,157.66
704,132.33
716,103.9
728,74.25
740,45.46
752,19.47
763,-2.28
774,-19.02
786,-30.57
798,-37.22
810,-39.47
822,-38.02
834,-33.61
846,-27.15
858,-19.6
870,-11.98
882,-5.26
894,-0.21
906,2.58
918,2.73
930,0.05
942,-5.43
953,-13.42
964,-23.33
976,-34.23
988,-45.09
1000,-54.93
1012,-63.07
1024,-69.31
1036,-73.92
1048,-77.52
1060,-80.88
1072,-84.7
1084,-89.43
1096,-95.23
1108,-102.03
1120,-109.59
1132,-117.63
1143,-125.92
1154,-134.26
1166,-142.48
1178,-150.4
1190,-157.8
1202,-164.41
1214,-170.04
1226,-174.64
1238,-178.32
1250,-181.41
1262,-184.26
1274,-187.15
1286,-190.08
1298,-192.79
1310,-194.65
1322,-194.71
1333,-191.69
1344,-184.11
1356,-170.7
1368,-150.75
1380,-124.64
1392,-93.94
1404,-61.24
1416,-29.5
1428,-1.23
1440,21.98
1452,39.71
1464,52.32
1476,60.53
1488,64.96
1500,66.12
1512,64.48
1523,60.78
1534,55.99
1546,51.19
1558,47.24
1570,44.53
1582,42.91
1594,41.87
1606,40.81
1618,39.36
1630,37.5
1642,35.52
1654,33.83
1666,32.71
1678,32.15
1690,31.86
1702,31.38
1713,30.32
1724,28.48
1736,25.94
1748,22.99
1760,19.99
1772,17.22
1784,14.75
1796,12.46
1808,10.12
1820,7.5
1832,4.44
1844,0.92
1856,-3.02
1868,-7.28
1880,-11.59
1892,-15.54
1903,-18.5
1914,-19.76
1926,-18.77
1938,-15.36
1950,-9.89
1962,-3.13
1974,3.95
1986,10.53
1998,16.1
2010,20.46
2022,23.59
2034,25.43
2046,25.91
2058,25.01
2070,22.89
2082,20.03
2093,17.04
2104,14.52
2116,12.89
2128,12.23
2140,12.35
2152,12.93
2164,13.65
2176,14.28
2188,14.69
2200,14.87
2212,14.83
2224,14.64
2236,14.29
2248,13.72
2260,12.8
2272,11.4
2283,9.45
2294,7.02
2306,4.31
2318,1.54
2330,-1.12
2342,-3.63
2354,-6.08
2366,-8.65
2378,-11.56
2390,-14.93
2402,-18.75
2414,-22.72
2426,-26.28
2438,-28.67
2450,-29.05
2462,-26.81
2473,-21.72
2484,-14.0
2496,-4.23
2508,6.77
2520,18.17
2532,29.17
2544,39.03
2556,47.18
2568,53.13
2580,56.74
2592,58.24
2604,58.3
2616,57.84
2628,57.84
2640,59.03
2652,61.76
2663,65.93
2674,71.18
2686,77.06
2698,83.23
2710,89.64
2722,96.45
2734,103.87
2746,111.91
2758,120.1
2770,127.39
2782,132.25
2794,133.07
2806,128.71
2818,118.96
2830,104.87
2842,88.47
2853,72.28
2864,58.52
2876,48.55
2888,42.44
2900,39.24
2912,37.37
2924,35.25
2936,31.79
2948,26.67
2960,20.28
2972,13.56
2984,7.62
2996,3.47
3008,1.78
3020,2.75
3032,6.07
3043,10.99
3054,16.48
3066,21.43
3078,24.9
3090,26.23
3102,25.15
3114,21.63
3126,15.93
3138,8.42
3150,-0.42
3162,-10.0
3174,-19.7
3186,-28.98
3198,-37.38
3210,-44.65
3222,-50.66
3233,-55.38
3244,-58.82
3256,-60.98
3268,-61.92
3280,-61.85
3292,-61.07
3304,-60.01
3316,-59.14
3328,-58.88
3340,-59.52
3352,-61.2
3364,-63.9
3376,-67.54
3388,-71.98
3400,-77.0
3412,-82.31
3423,-87.43
3434,-91.79
3446,-94.75
3458,-95.74
3470,-94.46
3482,-90.93
3494,-85.53
3506,-78.88
3518,-71.72
3530,-64.73
3542,-58.52
3554,-53.45
3566,-49.63
3578,-46.84
3590,-44.54
3602,-42.0
3613,-38.51
3624,-33.64
3636,-27.41
3648,-20.25
3660,-12.84
3672,-5.88
3684,0.13
3696,5.01
3708,8.77
3720,11.57
3732,13.57
3744,14.84
3756,15.42
3768,15.39
3780,14.89
3792,14.16
3803,13.53
3814,13.31
3826,13.76
3838,15.03
3850,17.13
3862,19.98
3874,23.4
3886,27.14
3898,30.88
3910,34.21
3922,36.61
3934,37.61
3946,36.9
3958,34.52
3970,30.85
3982,26.57
3993,22.36
4004,18.71
4016,15.73
4028,13.14
4040,10.47
4052,7.29
4064,3.41
4076,-1.08
4088,-5.85
4100,-10.53
4112,-14.78
4124,-18.43
4136,-21.44
4148,-23.94
4160,-26.11
4172,-28.21
4183,-30.5
4194,-33.04
4206,-35.67
4218,-37.9
4230,-39.13
4242,-38.77
4254,-36.58
4266,-32.77
4278,-27.9
4290,-22.74
4302,-17.94
4314,-13.89
4326,-10.69
4338,-8.32
4350,-6.72
4362,-5.97
4373,-6.26
4384,-7.68
4396,-10.18
4408,-13.45
4420,-16.97
4432,-20.15
4444,-22.46
4456,-23.6
4468,-23.47
4480,-22.23
4492,-20.14
4504,-17.58
4516,-14.86
4528,-12.3
4540,-10.12
4552,-8.5
4563,-7.57
4574,-7.41
4586,-8.03
4598,-9.36
4610,-11.27
4622,-13.54
4634,-15.91
4646,-18.2
4658,-20.4
4670,-22.65
4682,-25.26
4694,-28.54
4706,-32.62
4718,-37.36
4730,-42.22
4742,-46.52
4753,-49.63
4764,-51.24
4776,-51.54
4788,-51.17
4800,-51.02
4812,-51.99
4824,-54.74
4836,-59.56
4848,-66.31
4860,-74.28
4872,-82.14
4884,-88.0
4896,-89.7
4908,-85.36
4920,-74.04
4932,-56.22
4943,-33.86
4954,-9.9
4966,12.6
4978,31.22
4990,44.76
5002,53.08
5014,56.85
5026,57.02
5038,54.51
5050,50.16
5062,44.85
5074,39.53
5086,35.17
5098,32.49
5110,31.74
5122,32.62
5133,34.43
5144,36.36
5156,37.82
5168,38.61
5180,38.91
5192,39.01
5204,39.12
5216,39.2
5228,38.99
5240,38.14
5252,36.42
5264,33.81
5276,30.51
5288,26.82
5300,22.98
5312,19.07
5323,15.02
5334,10.67
5346,5.9
5358,0.73
5370,-4.72
5382,-10.22
5394,-15.56
5406,-20.65
5418,-25.5
5430,-30.29
5442,-35.3
5454,-40.79
5466,-46.9
5478,-53.52
5490,-60.16
5502,-66.02
5513,-70.01
5524,-71.07
5536,-68.45
5548,-62.0
5560,-52.28
5572,-40.4
5584,-27.75
5596,-15.6
5608,-4.78
5620,4.3
5632,11.62
5644,17.21
5656,21.06
5668,23.09
5680,23.33
5692,22.08
5703,20.03
5714,18.11
5726,17.15
5738,17.67
5750,19.59
5762,22.45
5774,25.61
5786,28.63
5798,31.37
5810,33.97
5822,36.6
5834,39.25
5846,41.66
5858,43.42
5870,44.16
5882,43.73
5893,42.24
5904,40.07
5916,37.63
5928,35.24
5940,33.07
5952,31.08
5964,29.09
5976,26.88
5988,24.34
6000,21.51
6012,18.58
6024,15.84
6036,13.53
6048,11.75
6060,10.4
6072,9.26
6083,8.04
6094,6.44
6106,4.21
6118,1.19
6130,-2.59
6142,-6.78
6154,-10.59
6166,-12.92
6178,-12.55
6190,-8.57
6202,-0.65
6214,10.79
6226,24.69
6238,39.71
6250,54.56
6262,68.29
6273,80.35
6284,90.54
6296,98.87
6308,105.48
6320,110.64
6332,114.75
6344,118.31
6356,121.72
6368,125.18
6380,128.46
6392,130.99
6404,132.09
6416,131.34
6428,128.72
6440,124.57
6452,119.41
6463,113.57
6474,107.13
6486,99.87
6498,91.46
6510,81.78
6522,71.16
6534,60.16
6546,49.33
6558,39.08
6570,29.61
6582,21.04
6594,13.45
6606,6.73
6618,0.69
6630,-4.88
6642,-10.44
6653,-16.49
6664,-23.36
6676,-31.01
6688,-39.03
6700,-46.82
6712,-54.05
6724,-60.39
6736,-65.34
6748,-68.49
6760,-69.42
6772,-67.89
6784,-63.93
6796,-57.9
6808,-50.5
6820,-42.65
6832,-36.96
6843,-35.05
6854,-37.58
6866,-44.05
6878,-53.13
6890,-63.28
6902,-73.21
6914,-80.93
6926,-86.39
6938,-89.75
6950,-90.65
6962,-88.49
6974,-82.69
6986,-72.91
6998,-59.57
7010,-43.4
7022,-25.49
7033,-7.18
7044,10.59
7056,27.57
7068,43.98
7080,60.36
7092,77.33
7104,95.39
7116,114.81
7128,135.47
7140,156.73
7152,177.69
7164,197.26
7176,213.97
7188,226.2
7200,232.52
7212,232.08
7223,225.01
7234,212.3
7246,195.3
7258,175.42
7270,153.67
7282,130.55
7294,106.4
7306,81.89
7318,58.19
7330,36.76
7342,18.75
7354,4.23
7366,-7.93
7378,-19.79
7390,-33.61
7402,-50.89
7413,-71.82
7424,-95.21
7436,-119.05
7448,-141.25
7460,-160.26
7472,-175.27
7484,-186.05
7496,-192.59
7508,-194.83
7520,-192.62
7532,-185.98
7544,-175.38
7556,-161.82
7568,-146.73
7580,-131.6
7592,-117.52
7603,-104.99
7614,-93.77
7626,-83.15
7638,-72.3
7650,-60.6
7662,-47.99
7674,-34.91
7686,-22.19
7698,-10.64
7710,-0.69
7722,7.75
7734,15.31
7746,22.9
7758,31.43
7770,41.51
7782,53.37
7793,66.73
7804,80.84
7816,94.68
7828,107.07
7840,117.01
7852,124.0
7864,128.13
7876,130.06
7888,130.65
7900,130.51
7912,129.74
7924,127.87
7936,124.18
7948,118.08
7960,109.41
7972,98.55
7983,86.25
7994,73.33
8006,60.24
8018,46.9
8030,32.7
8042,16.64
8054,-2.12
8066,-23.96
8078,-48.36
8090,-73.93
8102,-98.7
8114,-120.81
8126,-139.08
8138,-153.64
8150,-165.73
8162,-177.23
8173,-189.88
8184,-204.71
8196,-221.8
8208,-240.39
8220,-258.96
8232,-275.31
8244,-286.82
8256,-290.75
8268,-284.97
8280,-268.84
8292,-243.53
8304,-211.77
8316,-176.78
8328,-140.94
8340,-104.73
8352,-66.87
8363,-25.48
8374,19.97
8386,67.32
8398,111.66
8410,146.68
8422,166.9
8434,169.61
8446,155.83
8458,129.78
8470,97.3
8482,63.94
8494,33.52
8506,7.78
8518,-13.22
8530,-30.25
8542,-44.19
8553,-55.74
8564,-65.5
8576,-74.28
8588,-83.2
8600,-93.56
8612,-106.3
8624,-121.6
8636,-138.46
8648,-154.87
8660,-168.41
8672,-177.04
8684,-179.76
8696,-176.75
8708,-168.97
8720,-157.57
8732,-143.23
8743,-126.12
8754,-106.13
8766,-83.52
8778,-59.35
8790,-35.56
8802,-14.49
8814,1.88
8826,12.7
8838,18.64
8850,21.57
8862,23.83
8874,27.21
8886,32.31
8898,38.43
8910,44.07
8922,47.74
8933,48.6
8944,46.78
8956,43.15
8968,38.81
8980,34.58
8992,30.74
9004,27.08
9016,23.22
9028,18.88
9040,14.06
9052,8.98
9064,3.97
9076,-0.78
9088,-5.21
9100,-9.44
9112,-13.6
9123,-17.79
9134,-22.1
9146,-26.56
9158,-31.15
9170,-35.64
9182,-39.45
9194,-41.64
9206,-41.12
9218,-37.02
9230,-29.11
9242,-17.94
9254,-4.75
9266,8.97
9278,21.95
9290,33.4
9302,42.98
9313,50.61
9324,56.27
9336,59.86
9348,61.36
9360,60.83
9372,58.51
9384,54.67
9396,49.6
9408,43.65
9420,37.36
9432,31.57
9444,27.4
9456,26.0
9468,28.19
9480,34.18
9492,43.41
9503,54.8
9514,67.0
9526,78.75
9538,89.11
9550,97.43
9562,103.32
9574,106.48
9586,106.73
9598,104.12
9610,99.0
9622,92.16
9634,84.56
9646,77.08
9658,70.12
9670,63.47
9682,56.62
9693,49.29
9704,41.92
9716,35.67
9728,31.91
9740,31.43
9752,33.83
9764,37.56
9776,40.51
9788,40.93
9800,38.12
9812,32.49
9824,25.1
9836,16.96
9848,8.49
9860,-0.54
9872,-10.65
9883,-22.12
9894,-34.56
9906,-47.0
9918,-58.19
9930,-67.21
9942,-73.77
9954,-78.31
9966,-81.64
9978,-84.46
9990,-87.04
10002,-89.1
10014,-90.15
10026,-89.84
10038,-88.26
10050,-85.91
10062,-83.5
10073,-81.62
10084,-80.51
10096,-79.98
10108,-79.48
10120,-78.4
10132,-76.29
10144,-73.08
10156,-69.08
10168,-64.8
10180,-60.67
10192,-56.78
10204,-52.89
10216,-48.47
10228,-43.1
10240,-36.39
10252,-28.17
10263,-18.35
10274,-6.91
10286,6.05
10298,20.4
10310,35.94
10322,52.56
10334,70.13
10346,88.56
10358,107.56
10370,126.38
10382,143.78
10394,158.09
10406,167.78
10418,171.82
10430,170.15
10442,163.27
10453,152.49
10464,139.42
10476,125.6
10488,112.19
10500,99.83
10512,88.6
10524,78.11
10536,68.13
10548,57.58
10560,45.97
10572,33.09
10584,18.95
10596,3.78
10608,-12.15
10620,-28.53
10632,-44.98
10643,-60.21
10654,-74.41
10666,-87.0
10678,-97.48
10690,-105.59
10702,-111.34
10714,-114.94
10726,-116.69
10738,-116.83
10750,-114.22
10762,-110.28
10774,-105.11
10786,-98.8
10798,-91.27
10810,-82.22
10822,-70.97
10833,-56.64
10844,-38.25
10856,-13.33
10868,16.86
10880,52.24
10892,92.31
10904,136.26
10916,183.06
10928,231.5
10940,280.09
10952,316.26
10964,350.16
10976,377.68
10988,396.6
11000,405.17
11012,402.37
11023,388.11
11034,363.14
11046,328.97
11058,287.79
11070,244.04
11082,199.12
11094,156.04
11106,117.25
11118,84.19
11130,57.04
11142,34.81
11154,15.84
11166,-1.58
11178,-17.33
11190,-33.06
11202,-48.53
11213,-63.09
11224,-76.17
11236,-87.51
11248,-97.24
11260,-105.81
11272,-113.67
11284,-120.28
11296,-126.38
11308,-131.59
11320,-135.46
11332,-137.78
11344,-138.71
11356,-138.82
11368,-138.93
11380,-139.73
11392,-141.15
11403,-143.39
11414,-145.68
11426,-146.93
11438,-146.08
11450,-142.36
11462,-135.5
11474,-125.71
11486,-113.56
11498,-99.66
11510,-85.0
11522,-70.47
11534,-56.97
11546,-45.39
11558,-36.47
11570,-30.65
11582,-27.9
11593,-27.6
11604,-28.68
11616,-29.93
11628,-30.26
11640,-29.1
11652,-26.42
11664,-22.73
11676,-18.8
11688,-15.37
11700,-12.89
11712,-11.4
11724,-10.66
11736,-10.24
11748,-9.83
11760,-9.28
11772,-8.8
11783,-8.78
11794,-9.67
11806,-11.83
11818,-15.29
11830,-19.68
11842,-24.33
11854,-28.52
11866,-31.71
11878,-33.8
11890,-35.09
11902,-36.14
11914,-37.54
11926,-39.75
11938,-43.06
11950,-47.64
11962,-53.46
11973,-60.17
11984,-66.86
11996,-72.07
12008,-74.09
12020,-71.54
12032,-63.94
12044,-52.07
12056,-37.65
12068,-22.78
12080,-9.16
12092,2.32
12104,11.57
12116,18.98
12128,24.94
12140,29.75
12152,33.63
12163,37.05
12174,40.78
12186,45.83
12198,53.14
12210,63.21
12222,75.82
12234,90.17
12246,105.02
12258,119.14
12270,131.44
12282,141.16
12294,147.81
12306,151.14
12318,151.1
12330,147.9
12342,142.06
12353,134.33
12364,125.53
12376,116.28
12388,106.86
12400,97.17
12412,86.91
12424,75.94
12436,64.43
12448,52.9
12460,41.98
12472,32.03
12484,22.93
12496,14.08
12508,4.59
12520,-6.33
12532,-18.99
12543,-33.05
12554,-47.5
12566,-60.98
12578,-72.11
12590,-80.01
12602,-84.47
12614,-86.04
12626,-85.71
12638,-84.44
12650,-82.81
12662,-80.87
12674,-78.32
12686,-74.94
12698,-70.86
12710,-66.63
12722,-63.03
12733,-60.61
12744,-59.41
12756,-58.99
12768,-58.69
12780,-57.93
12792,-56.51
12804,-54.54
12816,-52.28
12828,-49.94
12840,-47.53
12852,-44.95
12864,-42.08
12876,-38.94
12888,-35.74
12900,-32.86
12912,-30.77
12923,-29.91
12934,-30.52
12946,-32.52
12958,-35.44
12970,-38.5
12982,-40.87
12994,-42.02
13006,-42.0
13018,-41.44
13030,-41.3
13042,-42.39
13054,-44.98
13066,-48.65
13078,-52.58
13090,-55.92
13102,-58.29
13113,-59.9
13124,-61.45
13136,-63.78
13148,-67.57
13160,-73.04
13172,-79.85
13184,-86.87
13196,-92.28
13208,-93.68
13220,-88.73
13232,-75.9
13244,-55.19
13256,-28.46
13268,1.03
13280,29.59
13292,54.16
13303,73.06
13314,86.08
13326,93.94
13338,97.66
13350,98.12
13362,96.05
13374,92.28
13386,87.86
13398,84.0
13410,81.7
13422,81.38
13434,82.74
13446,84.95
13458,87.05
13470,88.39
13482,88.78
13493,88.42
13504,87.63
13516,86.62
13528,85.36
13540,83.67
13552,81.27
13564,78.0
13576,73.83
13588,68.84
13600,63.15
13612,56.94
13624,50.33
13636,43.46
13648,36.39
13660,29.15
13672,21.65
13683,13.79
13694,5.54
13706,-3.01
13718,-11.57
13730,-19.78
13742,-27.32
13754,-34.08
13766,-40.25
13778,-46.25
13790,-52.57
13802,-59.47
13814,-66.73
13826,-73.64
13838,-79.1
13850,-81.92
13862,-81.2
13873,-76.61
13884,-68.46
13896,-57.62
13908,-45.26
13920,-32.59
13932,-20.65
13944,-10.25
13956,-1.96
13968,3.86
13980,7.06
13992,7.75
14004,6.41
14016,3.84
14028,1.1
14040,-0.76
14052,-0.93
14063,0.92
14074,4.63
14086,9.62
14098,15.16
14110,20.61
14122,25.51
14134,29.67
14146,32.99
14158,35.38
14170,36.73
14182,36.91
14194,35.9
14206,33.79
14218,30.89
14230,27.59
14242,24.25
14253,21.11
14264,18.17
14276,15.24
14288,12.08
14300,8.53
14312,4.64
14324,0.65
14336,-3.14
14348,-6.5
14360,-9.47
14372,-12.35
14384,-15.61
14396,-19.74
14408,-25.05
14420,-31.67
14432,-39.4
14443,-47.73
14454,-55.76
14466,-62.18
14478,-65.47
14490,-64.26
14502,-57.76
14514,-46.09
14526,-30.39
14538,-12.46
14550,5.71
14562,22.47
14574,36.77
14586,48.16
14598,56.54
14610,61.99
14622,64.69
14633,65.02
14644,63.7
14656,61.71
14668,60.18
14680,59.98
14692,61.5
14704,64.49
14716,68.23
14728,71.7
14740,74.03
14752,74.65
14764,73.48
14776,70.8
14788,67.02
14800,62.58
14812,57.74
14823,52.62
14834,47.34
14846,42.06
14858,37.08
14870,32.71
14882,29.19
14894,26.56
14906,24.6
14918,22.94
14930,21.13
14942,18.83
14954,15.89
14966,12.41
14978,8.66
14990,5.01
15002,1.75
15013,-1.06
15024,-3.61
15036,-6.26
15048,-9.4
15060,-13.26
15072,-17.81
15084,-22.71
15096,-27.37
15108,-31.05
15120,-33.05
15132,-32.86
15144,-30.37
15156,-25.82
15168,-19.85
15180,-13.22
15192,-6.67
15203,-0.76
15214,4.15
15226,7.78
15238,9.94
15250,10.52
15262,9.59
15274,7.46
15286,4.72
15298,2.03
15310,-0.02
15322,-1.1
15334,-1.12
15346,-0.18
15358,1.53
15370,3.82
15382,6.53
15393,9.49
15404,12.54
15416,15.45
15428,18.01
15440,19.99
15452,21.17
15464,21.38
15476,20.5
15488,18.53
15500,15.54
15512,11.65
15524,6.96
15536,1.58
15548,-4.46
15560,-11.08
15572,-18.12
15583,-25.32
15594,-32.33
15606,-38.75
15618,-44.29
15630,-48.82
15642,-52.44
15654,-55.46
15666,-58.35
15678,-61.6
15690,-65.56
15702,-70.28
15714,-75.36
15726,-80.0
15738,-83.29
15750,-84.4
15762,-83.01
15773,-79.31
15784,-73.98
15796,-67.85
15808,-61.6
15820,-55.61
15832,-49.93
15844,-44.52
15856,-39.36
15868,-34.6
15880,-30.46
15892,-27.07
15904,-24.38
15916,-22.09
15928,-19.81
15940,-17.25
15952,-14.29
15963,-11.07
15974,-7.84
15986,-4.85
15998,-2.24
16010,0.04
16022,2.09
16034,3.96
16046,5.61
16058,6.8
16070,7.29
16082,6.9
16094,5.64
16106,3.73
16118,1.47
16130,-0.84
16142,-3.08
16153,-5.3
16164,-7.67
16176,-10.38
16188,-13.55
16200,-17.15
16212,-21.06
16224,-25.13
16236,-29.21
16248,-33.29
16260,-37.42
16272,-41.84
16284,-46.82
16296,-52.62
16308,-59.18
16320,-66.09
16332,-72.44
16343,-77.12
16354,-79.17
16366,-78.16
16378,-74.36
16390,-68.7
16402,-62.44
16414,-56.71
16426,-52.28
16438,-49.45
16450,-48.22
16462,-48.42
16474,-49.91
16486,-52.53
16498,-56.06
16510,-60.18
16522,-64.46
16533,-68.38
16544,-71.3
16556,-72.48
16568,-71.23
16580,-66.87
16592,-58.97
16604,-47.48
16616,-32.89
16628,-16.18
16640,1.36
16652,18.57
16664,34.61
16676,49.08
16688,62.0
16700,73.66
16712,84.41
16723,94.47
16734,103.83
16746,112.33
16758,119.67
16770,125.46
16782,129.12
16794,130.03
16806,127.54
16818,121.16
16830,110.38
16842,94.89
16854,74.7
16866,50.53
16878,23.99
16890,-2.55
16902,-26.34
16913,-44.9
16924,-56.46
16936,-60.48
16948,-57.75
16960,-50.4
16972,-41.11
16984,-31.26
16996,-21.17
17008,-10.62
17020,0.21
17032,10.83
17044,20.43
17056,28.83
17068,36.25
17080,43.15
17092,49.98
17103,56.81
17114,63.35
17126,69.26
17138,74.41
17150,78.9
17162,84.15
17174,92.09
17186,104.42
17198,121.91
17210,143.88
17222,168.39
17234,193.05
17246,215.85
17258,232.53
17270,240.98
17282,240.53
17293,231.49
17304,214.6
17316,190.53
17328,160.05
17340,124.48
17352,87.99
17364,51.6
17376,16.35
17388,-16.8
17400,-46.93
17412,-73.18
17424,-94.81
17436,-111.5
17448,-122.5
17460,-128.15
17472,-130.27
17483,-130.32
17494,-129.48
17506,-128.25
17518,-126.44
17530,-123.54
17542,-119.14
17554,-113.21
17566,-106.34
17578,-99.71
17590,-93.87
17602,-89.12
17614,-85.55
17626,-83.16
17638,-81.86
17650,-81.47
17662,-81.71
17673,-82.32
17684,-83.17
17696,-83.76
17708,-83.58
17720,-82.27
17732,-79.62
17744,-75.71
17756,-70.78
17768,-65.15
17780,-59.21
17792,-53.37
17804,-47.73
17816,-42.22
17828,-36.75
17840,-31.28
17852,-25.96
17863,-21.04
17874,-16.96
17886,-14.14
17898,-12.91
17910,-13.31
17922,-15.06
17934,-17.69
17946,-20.58
17958,-23.14
17970,-24.9
17982,-25.58
17994,-25.11
18006,-23.73
18018,-21.92
18030,-20.34
18042,-19.73
18053,-20.59
18064,-22.94
18076,-26.12
18088,-28.87
18100,-29.74
18112,-27.54
18124,-21.76
18136,-12.69
18148,-1.24
18160,11.48
18172,24.49
18184,37.03
18196,48.49
18208,58.15
18220,65.15
18232,68.68
18243,68.36
18254,64.57
18266,58.41
18278,51.43
18290,45.08
18302,40.32
18314,37.4
18326,36.03
18338,35.7
18350,35.94
18362,36.53
18374,37.42
18386,38.65
18398,40.24
18410,42.02
18422,43.68
18433,44.75
18444,44.69
18456,43.09
18468,39.84
18480,35.26
18492,30.04
18504,25.02
18516,20.85
18528,17.67
18540,15.14
18552,12.61
18564,9.43
18576,5.25
18588,0.12
18600,-5.59
18612,-11.38
18623,-16.63
18634,-20.66
18646,-22.72
18658,-22.04
18670,-18.09
18682,-10.81
18694,-0.73
18706,11.07
18718,23.27
18730,34.7
18742,44.58
18754,52.63
18766,58.92
18778,63.67
18790,67.12
18802,69.48
18813,71.11
18824,72.55
18836,74.6
18848,78.17
18860,83.97
18872,92.16
18884,102.09
18896,112.21
18908,120.28
18920,124.0
18932,121.65
18944,112.73
18956,98.1
18968,79.72
18980,59.99
18992,40.99
19003,24.05
19014,9.64
19026,-2.44
19038,-12.61
19050,-21.37
19062,-29.18
19074,-36.59
19086,-44.24
19098,-52.78
19110,-62.62
19122,-73.66
19134,-85.11
19146,-95.63
19158,-103.6
19170,-107.67
19182,-107.2
19193,-102.55
19204,-95.01
19216,-86.47
19228,-78.82
19240,-73.45
19252,-71.07
19264,-71.72
19276,-75.06
19288,-80.5
19300,-87.4
19312,-94.96
19324,-102.28
19336,-108.48
19348,-112.79
19360,-114.88
19372,-114.82
19383,-113.04
19394,-110.03
19406,-106.17
19418,-101.54
19430,-96.0
19442,-89.34
19454,-81.43
19466,-72.33
19478,-62.38
19490,-52.04
19502,-41.9
19514,-32.47
19526,-24.18
19538,-17.22
19550,-11.59
19562,-7.07
19573,-3.34
19584,-0.02
19596,3.13
19608,6.21
19620,9.11
19632,11.57
19644,13.23
19656,13.79
19668,13.13
19680,11.48
19692,9.49
19704,8.23
19716,8.87
19728,12.39
19740,19.14
19752,28.64
19763,39.64
19774,50.6
19786,60.07
19798,67.22
19810,72.02
19822,75.09
19834,77.44
19846,80.01
19858,83.35
19870,87.5
19882,92.02
19894,96.26
19906,99.64
19918,101.87
19930,102.96
19942,103.15
19953,102.69
19964,101.71
19976,100.26
19988,98.45
20000,96.56
20012,94.97
20024,94.0
20036,93.76
20048,93.97
20060,94.12
20072,93.65
20084,92.13
20096,89.36
20108,85.35
20120,80.14
20132,73.75
20143,66.21
20154,57.55
20166,47.92
20178,37.6
20190,26.9
20202,16.19
20214,5.82
20226,-3.71
20238,-11.78
20250,-17.68
20262,-20.81
20274,-20.98
20286,-18.66
20298,-14.93
20310,-11.31
20322,-9.28
20333,-9.85
20344,-13.28
20356,-18.98
20368,-25.88
20380,-32.79
20392,-38.77
20404,-43.41
20416,-46.76
20428,-49.18
20440,-51.01
20452,-52.32
20464,-52.84
20476,-52.09
20488,-49.63
20500,-45.3
20512,-39.4
20523,-32.51
20534,-25.32
20546,-18.34
20558,-11.82
20570,-5.76
20582,-0.03
20594,5.53
20606,11.08
20618,16.83
20630,23.03
20642,29.88
20654,37.35
20666,45.06
20678,52.31
20690,58.32
20702,62.56
20713,64.91
20724,65.71
20736,65.5
20748,64.74
20760,63.47
20772,61.35
20784,57.85
20796,52.65
20808,45.92
20820,38.39
20832,31.09
20844,24.96
20856,20.46
20868,17.38
20880,15.05
20892,12.69
20903,9.71
20914,5.89
20926,1.22
20938,-4.26
20950,-10.66
20962,-18.2
20974,-26.98
20986,-36.88
20998,-47.37
