seconds,BVP
8,-46.01
20,-36.25
32,-26.25
44,-17.43
56,-10.66
68,-6.19
80,-3.84
92,-3.31
104,-4.27
116,-6.44
128,-9.45
140,-12.76
151,-15.73
162,-17.74
174,-18.45
186,-17.88
198,-16.43
210,-14.7
222,-13.26
234,-12.47
246,-12.36
258,-12.76
270,-13.38
282,-14.06
294,-14.8
306,-15.8
318,-17.25
330,-19.27
341,-21.77
352,-24.47
364,-27.09
376,-29.42
388,-31.4
400,-33.16
412,-34.97
424,-37.14
436,-39.98
448,-43.72
460,-48.26
472,-53.14
484,-57.47
496,-60.1
508,-59.9
520,-56.19
531,-48.96
542,-38.88
554,-27.14
566,-15.01
578,-3.55
590,6.57
602,15.0
614,21.59
626,26.22
638,28.8
650,29.38
662,28.26
674,26.08
686,23.61
698,21.66
710,20.71
721,20.82
732,21.66
744,22.65
756,23.24
768,23.11
780,22.25
792,20.83
804,19.1
816,17.19
828,15.02
840,12.41
852,9.15
864,5.18
876,0.61
888,-4.24
900,-9.03
911,-13.53
922,-17.67
934,-21.6
946,-25.61
958,-29.99
970,-35.01
982,-40.81
994,-47.35
1006,-54.31
1018,-60.99
1030,-66.37
1042,-69.24
1054,-68.57
1066,-63.89
1078,-55.51
1090,-44.55
1101,-32.47
1112,-20.78
1124,-10.43
1136,-1.87
1148,4.97
1160,10.25
1172,14.08
1184,16.34
1196,17.0
1208,16.19
1220,14.43
1232,12.44
1244,10.89
1256,10.14
1268,10.13
1280,10.47
1291,10.72
1302,10.62
1314,10.17
1326,9.54
1338,8.92
1350,8.32
1362,7.55
1374,6.35
1386,4.42
1398,1.61
1410,-2.05
1422,-6.34
1434,-10.93
1446,-15.39
1458,-19.42
1470,-22.86
1481,-25.91
1492,-28.99
1504,-32.73
1516,-37.62
1528,-43.89
1540,-51.21
1552,-58.65
1564,-64.88
1576,-68.47
1588,-68.32
1600,-64.02
1612,-55.96
1624,-45.18
1636,-33.03
1648,-20.8
1660,-9.36
1671,0.81
1682,9.53
1694,16.73
1706,22.27
1718,26.04
1730,28.0
1742,28.38
1754,27.69
1766,26.59
1778,25.7
1790,25.38
1802,25.67
1814,26.32
1826,26.94
1838,27.22
1850,27.03
1861,26.48
1872,25.75
1884,24.98
1896,24.07
1908,22.79
1920,20.76
1932,17.7
1944,13.58
1956,8.64
1968,3.34
1980,-1.78
1992,-6.34
2004,-10.21
2016,-13.61
2028,-16.97
2040,-20.82
2051,-25.61
2062,-31.5
2074,-38.29
2086,-45.3
2098,-51.48
2110,-55.54
2122,-56.37
2134,-53.3
2146,-46.36
2158,-36.24
2170,-24.04
2182,-10.97
2194,1.96
2206,14.07
2218,24.95
2230,34.34
2241,41.99
2252,47.73
2264,51.45
2276,53.27
2288,53.57
2300,52.92
2312,52.01
2324,51.43
2336,51.55
2348,52.37
2360,53.61
2372,54.78
2384,55.41
2396,55.28
2408,54.42
2420,53.07
2431,51.46
2442,49.65
2454,47.5
2466,44.78
2478,41.28
2490,36.98
2502,32.05
2514,26.8
2526,21.56
2538,16.58
2550,11.96
2562,7.64
2574,3.43
2586,-0.97
2598,-5.87
2610,-11.54
2621,-18.13
2632,-25.54
2644,-33.35
2656,-40.76
2668,-46.71
2680,-50.03
2692,-49.78
2704,-45.51
2716,-37.51
2728,-26.74
2740,-14.54
2752,-2.29
2764,9.03
2776,18.97
2788,27.49
2800,34.7
2811,40.64
2822,45.18
2834,48.14
2846,49.54
2858,49.7
2870,49.23
2882,48.79
2894,48.86
2906,49.57
2918,50.76
2930,52.07
2942,53.18
2954,53.91
2966,54.2
2978,54.04
2990,53.42
3001,52.26
3012,50.5
3024,48.05
3036,44.99
3048,41.46
3060,37.72
3072,34.08
3084,30.78
3096,27.9
3108,25.27
3120,22.55
3132,19.31
3144,15.29
3156,10.53
3168,5.38
3180,0.34
3191,-4.14
3202,-7.92
3214,-11.22
3226,-14.52
3238,-18.33
3250,-23.1
3262,-29.03
3274,-35.99
3286,-43.44
3298,-50.42
3310,-55.68
3322,-57.91
3334,-56.19
3346,-50.28
3358,-40.8
3370,-29.12
3381,-16.83
3392,-5.29
3404,4.69
3416,12.92
3428,19.55
3440,24.84
3452,28.81
3464,31.4
3476,32.54
3488,32.39
3500,31.38
3512,30.11
3524,29.14
3536,28.78
3548,29.04
3560,29.7
3571,30.49
3582,31.22
3594,31.83
3606,32.3
3618,32.58
3630,32.52
3642,31.92
3654,30.62
3666,28.56
3678,25.86
3690,22.78
3702,19.56
3714,16.39
3726,13.32
3738,10.33
3750,7.34
3761,4.28
3772,1.17
3784,-1.95
3796,-5.05
3808,-8.12
3820,-11.23
3832,-14.53
3844,-18.22
3856,-22.5
3868,-27.47
3880,-32.95
3892,-38.42
3904,-43.04
3916,-45.75
3928,-45.64
3940,-42.28
3951,-35.89
3962,-27.3
3974,-17.71
3986,-8.25
3998,0.26
4010,7.45
4022,13.25
4034,17.78
4046,21.12
4058,23.3
4070,24.36
4082,24.51
4094,24.08
4106,23.53
4118,23.24
4130,23.43
4141,24.08
4152,25.02
4164,26.03
4176,26.94
4188,27.68
4200,28.21
4212,28.47
4224,28.32
4236,27.6
4248,26.16
4260,23.97
4272,21.17
4284,18.01
4296,14.77
4308,11.69
4320,8.83
4331,6.08
4342,3.25
4354,0.15
4366,-3.25
4378,-6.8
4390,-10.21
4402,-13.2
4414,-15.68
4426,-17.76
4438,-19.77
4450,-22.12
4462,-25.18
4474,-29.14
4486,-34.01
4498,-39.49
4510,-44.96
4521,-49.51
4532,-52.06
4544,-51.69
4556,-47.93
4568,-41.02
4580,-31.88
4592,-21.83
4604,-12.11
4616,-3.56
4628,3.51
4640,9.23
4652,13.86
4664,17.57
4676,20.33
4688,22.02
4700,22.63
4711,22.38
4722,21.71
4734,21.09
4746,20.92
4758,21.26
4770,21.95
4782,22.68
4794,23.18
4806,23.35
4818,23.2
4830,22.86
4842,22.36
4854,21.66
4866,20.59
4878,19.03
4890,16.93
4901,14.44
4912,11.78
4924,9.2
4936,6.89
4948,4.93
4960,3.24
4972,1.65
4984,-0.05
4996,-2.03
5008,-4.33
5020,-6.92
5032,-9.65
5044,-12.33
5056,-14.81
5068,-17.05
5080,-19.16
5091,-21.42
5102,-24.22
5114,-27.88
5126,-32.54
5138,-37.9
5150,-43.24
5162,-47.49
5174,-49.53
5186,-48.56
5198,-44.39
5210,-37.47
5222,-28.79
5234,-19.49
5246,-10.59
5258,-2.76
5270,3.76
5281,8.99
5292,13.09
5304,16.24
5316,18.56
5328,20.1
5340,20.92
5352,21.14
5364,20.96
5376,20.64
5388,20.47
5400,20.62
5412,21.13
5424,21.87
5436,22.63
5448,23.17
5460,23.39
5471,23.29
5482,22.98
5494,22.55
5506,22.06
5518,21.45
5530,20.61
5542,19.36
5554,17.65
5566,15.49
5578,13.05
5590,10.55
5602,8.21
5614,6.14
5626,4.32
5638,2.61
5650,0.8
5661,-1.24
5672,-3.57
5684,-6.09
5696,-8.68
5708,-11.14
5720,-13.34
5732,-15.27
5744,-16.99
5756,-18.72
5768,-20.74
5780,-23.36
5792,-26.81
5804,-31.15
5816,-36.09
5828,-41.01
5840,-44.96
5851,-46.91
5862,-46.03
5874,-42.02
5886,-35.25
5898,-26.7
5910,-17.62
5922,-9.17
5934,-2.09
5946,3.36
5958,7.35
5970,10.19
5982,12.21
5994,13.61
6006,14.49
6018,14.96
6030,15.11
6041,15.09
6052,15.05
6064,15.06
6076,15.16
6088,15.31
6100,15.48
6112,15.65
6124,15.83
6136,16.03
6148,16.22
6160,16.34
6172,16.25
6184,15.8
6196,14.87
6208,13.42
6220,11.54
6231,9.38
6242,7.18
6254,5.14
6266,3.35
6278,1.76
6290,0.22
6302,-1.48
6314,-3.47
6326,-5.71
6338,-8.09
6350,-10.39
6362,-12.52
6374,-14.5
6386,-16.52
6398,-18.8
6410,-21.55
6421,-24.87
6432,-28.68
6444,-32.76
6456,-36.66
6468,-39.77
6480,-41.32
6492,-40.63
6504,-37.32
6516,-31.53
6528,-23.98
6540,-15.76
6552,-7.97
6564,-1.41
6576,3.66
6588,7.35
6600,10.0
6611,11.88
6622,13.1
6634,13.63
6646,13.48
6658,12.84
6670,12.01
6682,11.34
6694,11.04
6706,11.11
6718,11.38
6730,11.64
6742,11.76
6754,11.75
6766,11.69
6778,11.66
6790,11.63
6801,11.5
6812,11.1
6824,10.24
6836,8.89
6848,7.09
6860,5.04
6872,2.96
6884,1.08
6896,-0.53
6908,-1.97
6920,-3.48
6932,-5.31
6944,-7.62
6956,-10.3
6968,-13.07
6980,-15.54
6991,-17.42
7002,-18.68
7014,-19.56
7026,-20.48
7038,-21.89
7050,-24.15
7062,-27.4
7074,-31.51
7086,-36.03
7098,-40.24
7110,-43.21
7122,-44.0
7134,-41.95
7146,-36.9
7158,-29.4
7170,-20.5
7181,-11.5
7192,-3.45
7204,3.05
7216,7.97
7228,11.66
7240,14.55
7252,16.84
7264,18.5
7276,19.35
7288,19.22
7300,18.21
7312,16.64
7324,14.95
7336,13.61
7348,12.87
7360,12.77
7371,13.13
7382,13.74
7394,14.45
7406,15.2
7418,15.93
7430,16.46
7442,16.45
7454,15.47
7466,13.27
7478,9.93
7490,5.94
7502,2.03
7514,-1.1
7526,-3.14
7538,-4.21
7550,-4.78
7561,-5.42
7572,-6.57
7584,-8.34
7596,-10.6
7608,-13.08
7620,-15.51
7632,-17.7
7644,-19.65
7656,-21.42
7668,-23.2
7680,-25.24
7692,-27.75
7704,-30.92
7716,-34.73
7728,-38.9
7740,-42.83
7751,-45.68
7762,-46.57
7774,-44.87
7786,-40.42
7798,-33.64
7810,-25.39
7822,-16.76
7834,-8.7
7846,-1.85
7858,3.58
7870,7.67
7882,10.65
7894,12.8
7906,14.28
7918,15.19
7930,15.63
7941,15.72
7952,15.61
7964,15.43
7976,15.28
7988,15.14
8000,14.95
8012,14.7
8024,14.44
8036,14.3
8048,14.41
8060,14.76
8072,15.16
8084,15.3
8096,14.86
8108,13.68
8120,11.85
8131,9.63
8142,7.36
8154,5.29
8166,3.52
8178,1.94
8190,0.39
8202,-1.31
8214,-3.25
8226,-5.41
8238,-7.69
8250,-9.95
8262,-12.04
8274,-13.9
8286,-15.58
8298,-17.28
8310,-19.34
8321,-22.12
8332,-25.81
8344,-30.3
8356,-35.01
8368,-38.99
8380,-41.17
8392,-40.69
8404,-37.22
8416,-31.08
8428,-23.16
8440,-14.61
8452,-6.49
8464,0.48
8476,6.01
8488,10.14
8500,13.07
8511,15.03
8522,16.13
8534,16.46
8546,16.13
8558,15.38
8570,14.49
8582,13.81
8594,13.56
8606,13.79
8618,14.34
8630,14.96
8642,15.37
8654,15.4
8666,14.99
8678,14.22
8690,13.21
8701,12.06
8712,10.81
8724,9.44
8736,7.87
8748,6.07
8760,3.99
8772,1.62
8784,-1.02
8796,-3.85
8808,-6.76
8820,-9.57
8832,-12.12
8844,-14.34
8856,-16.28
8868,-18.11
8880,-20.05
8891,-22.38
8902,-25.27
8914,-28.84
8926,-33.04
8938,-37.61
8950,-42.0
8962,-45.36
8974,-46.75
8986,-45.39
8998,-40.95
9010,-33.77
9022,-24.76
9034,-15.12
9046,-6.03
9058,1.73
9070,7.83
9081,12.36
9092,15.62
9104,17.95
9116,19.56
9128,20.56
9140,21.0
9152,20.95
9164,20.55
9176,19.99
9188,19.43
9200,18.98
9212,18.63
9224,18.33
9236,18.01
9248,17.65
9260,17.28
9271,16.89
9282,16.4
9294,15.67
9306,14.55
9318,12.94
9330,10.95
9342,8.78
9354,6.65
9366,4.67
9378,2.79
9390,0.83
9402,-1.43
9414,-4.09
9426,-7.08
9438,-10.2
9450,-13.22
9461,-15.99
9472,-18.54
9484,-21.14
9496,-24.13
9508,-27.88
9520,-32.57
9532,-38.06
9544,-43.76
9556,-48.73
9568,-51.83
9580,-52.08
9592,-49.01
9604,-42.84
9616,-34.44
9628,-25.04
9640,-15.8
9651,-7.55
9662,-0.6
9674,5.1
9686,9.76
9698,13.56
9710,16.53
9722,18.62
9734,19.84
9746,20.27
9758,20.19
9770,19.94
9782,19.88
9794,20.28
9806,21.2
9818,22.52
9830,23.98
9841,25.26
9852,26.12
9864,26.44
9876,26.26
9888,25.71
9900,24.9
9912,23.89
9924,22.61
9936,20.94
9948,18.79
9960,16.17
9972,13.21
9984,10.09
9996,7.0
10008,4.07
10020,1.32
10031,-1.28
10042,-3.81
10054,-6.35
10066,-9.08
10078,-12.18
10090,-15.93
10102,-20.53
10114,-25.98
10126,-31.91
10138,-37.58
10150,-41.93
10162,-43.9
10174,-42.74
10186,-38.28
10198,-30.98
10210,-21.85
10221,-12.12
10232,-2.92
10244,5.0
10256,11.33
10268,16.13
10280,19.66
10292,22.18
10304,23.88
10316,24.81
10328,25.07
10340,24.8
10352,24.26
10364,23.72
10376,23.39
10388,23.32
10400,23.43
10411,23.58
10422,23.64
10434,23.59
10446,23.42
10458,23.15
10470,22.7
10482,21.93
10494,20.72
10506,18.96
10518,16.6
10530,13.68
10542,10.3
10554,6.66
10566,2.98
10578,-0.49
10590,-3.58
10601,-6.33
10612,-8.9
10624,-11.64
10636,-14.88
10648,-18.91
10660,-23.84
10672,-29.57
10684,-35.68
10696,-41.46
10708,-45.94
10720,-48.06
10732,-47.07
10744,-42.73
10756,-35.5
10768,-26.4
10780,-16.7
10791,-7.51
10802,0.46
10814,6.95
10826,12.03
10838,15.82
10850,18.4
10862,19.78
10874,20.03
10886,19.41
10898,18.38
10910,17.5
10922,17.16
10934,17.48
10946,18.23
10958,18.97
10970,19.34
10981,19.16
10992,18.56
11004,17.8
11016,17.09
11028,16.42
11040,15.53
11052,14.06
11064,11.7
11076,8.43
11088,4.51
11100,0.44
11112,-3.29
11124,-6.42
11136,-8.96
11148,-11.24
11160,-13.75
11171,-16.94
11182,-21.08
11194,-26.2
11206,-32.03
11218,-38.02
11230,-43.37
11242,-47.1
11254,-48.28
11266,-46.23
11278,-40.82
11290,-32.58
11302,-22.59
11314,-12.16
11326,-2.48
11338,5.71
11350,12.18
11361,17.11
11372,20.78
11384,23.43
11396,25.16
11408,25.99
11420,26.0
11432,25.39
11444,24.52
11456,23.8
11468,23.49
11480,23.71
11492,24.3
11504,24.96
11516,25.36
11528,25.29
11540,24.72
11551,23.78
11562,22.64
11574,21.39
11586,19.94
11598,18.03
11610,15.39
11622,11.87
11634,7.62
11646,3.04
11658,-1.37
11670,-5.22
11682,-8.38
11694,-11.04
11706,-13.64
11718,-16.68
11730,-20.59
11741,-25.59
11752,-31.59
11764,-38.16
11776,-44.51
11788,-49.56
11800,-52.21
11812,-51.56
11824,-47.3
11836,-39.78
11848,-29.94
11860,-19.08
11872,-8.39
11884,1.25
11896,9.41
11908,16.07
11920,21.35
11931,25.4
11942,28.36
11954,30.32
11966,31.41
11978,31.85
11990,31.93
12002,31.91
12014,31.99
12026,32.24
12038,32.66
12050,33.12
12062,33.47
12074,33.52
12086,33.08
12098,32.08
12110,30.54
12121,28.65
12132,26.62
12144,24.56
12156,22.45
12168,20.08
12180,17.24
12192,13.82
12204,9.92
12216,5.85
12228,1.91
12240,-1.76
12252,-5.21
12264,-8.67
12276,-12.39
12288,-16.53
12300,-21.15
12311,-26.24
12322,-31.75
12334,-37.46
12346,-42.92
12358,-47.35
12370,-49.74
12382,-49.17
12394,-45.1
12406,-37.73
12418,-27.92
12430,-17.01
12442,-6.34
12454,3.12
12466,10.93
12478,17.12
12490,21.98
12501,25.79
12512,28.7
12524,30.73
12536,31.95
12548,32.46
12560,32.56
12572,32.56
12584,32.76
12596,33.3
12608,34.15
12620,35.1
12632,35.93
12644,36.44
12656,36.56
12668,36.33
12680,35.86
12691,35.2
12702,34.29
12714,32.99
12726,31.16
12738,28.74
12750,25.82
12762,22.57
12774,19.23
12786,15.92
12798,12.7
12810,9.53
12822,6.39
12834,3.26
12846,0.16
12858,-2.93
12870,-6.15
12881,-9.68
12892,-13.77
12904,-18.58
12916,-24.05
12928,-29.8
12940,-35.08
12952,-38.92
12964,-40.33
12976,-38.67
12988,-33.85
13000,-26.45
13012,-17.55
13024,-8.35
13036,0.14
13048,7.38
13060,13.28
13071,17.97
13082,21.62
13094,24.24
13106,25.73
13118,26.08
13130,25.44
13142,24.23
13154,22.95
13166,22.06
13178,21.76
13190,21.96
13202,22.38
13214,22.67
13226,22.61
13238,22.12
13250,21.3
13261,20.33
13272,19.33
13284,18.33
13296,17.23
13308,15.89
13320,14.18
13332,12.01
13344,9.45
13356,6.61
13368,3.66
13380,0.8
13392,-1.85
13404,-4.2
13416,-6.29
13428,-8.27
13440,-10.42
13451,-13.02
13462,-16.33
13474,-20.42
13486,-25.14
13498,-30.04
13510,-34.48
13522,-37.65
13534,-38.8
13546,-37.41
13558,-33.36
13570,-26.98
13582,-19.01
13594,-10.42
13606,-2.15
13618,5.09
13630,10.97
13641,15.45
13652,18.66
13664,20.81
13676,22.02
13688,22.41
13700,22.14
13712,21.45
13724,20.64
13736,20.01
13748,19.79
13760,19.98
13772,20.48
13784,21.06
13796,21.54
13808,21.78
13820,21.73
13831,21.32
13842,20.49
13854,19.16
13866,17.32
13878,15.1
13890,12.75
13902,10.54
13914,8.64
13926,7.0
13938,5.36
13950,3.41
13962,0.91
13974,-2.2
13986,-5.69
13998,-9.23
14010,-12.48
14021,-15.24
14032,-17.55
14044,-19.63
14056,-21.86
14068,-24.62
14080,-28.19
14092,-32.6
14104,-37.55
14116,-42.33
14128,-46.01
14140,-47.56
14152,-46.25
14164,-41.88
14176,-34.82
14188,-25.97
14200,-16.46
14211,-7.32
14222,0.71
14234,7.26
14246,12.29
14258,15.98
14270,18.58
14282,20.32
14294,21.4
14306,21.98
14318,22.19
14330,22.2
14342,22.17
14354,22.23
14366,22.48
14378,22.86
14390,23.27
14401,23.58
14412,23.71
14424,23.74
14436,23.78
14448,23.9
14460,24.0
14472,23.83
14484,23.03
14496,21.4
14508,18.97
14520,16.02
14532,13.01
14544,10.32
14556,8.13
14568,6.34
14580,4.69
14591,2.8
14602,0.46
14614,-2.37
14626,-5.47
14638,-8.53
14650,-11.25
14662,-13.5
14674,-15.43
14686,-17.31
14698,-19.56
14710,-22.48
14722,-26.28
14734,-30.88
14746,-35.93
14758,-40.8
14770,-44.58
14781,-46.35
14792,-45.36
14804,-41.37
14816,-34.73
14828,-26.34
14840,-17.36
14852,-8.87
14864,-1.56
14876,4.35
14888,8.95
14900,12.48
14912,15.15
14924,17.06
14936,18.26
14948,18.83
14960,18.96
14971,18.87
14982,18.81
14994,18.91
15006,19.15
15018,19.41
15030,19.5
15042,19.31
15054,18.83
15066,18.2
15078,17.58
15090,17.1
15102,16.74
15114,16.38
15126,15.8
15138,14.84
15150,13.43
15161,11.64
15172,9.69
15184,7.85
15196,6.33
15208,5.18
15220,4.27
15232,3.26
15244,1.82
15256,-0.3
15268,-3.12
15280,-6.4
15292,-9.74
15304,-12.78
15316,-15.31
15328,-17.4
15340,-19.33
15351,-21.5
15362,-24.29
15374,-27.88
15386,-32.23
15398,-36.97
15410,-41.45
15422,-44.8
15434,-46.18
15446,-44.95
15458,-40.93
15470,-34.49
15482,-26.42
15494,-17.77
15506,-9.52
15518,-2.36
15530,3.37
15541,7.67
15552,10.71
15564,12.74
15576,13.95
15588,14.5
15600,14.53
15612,14.19
15624,13.65
15636,13.09
15648,12.66
15660,12.48
15672,12.57
15684,12.91
15696,13.38
15708,13.84
15720,14.16
15731,14.23
15742,14.01
15754,13.46
15766,12.6
15778,11.44
15790,9.96
15802,8.2
15814,6.21
15826,4.13
15838,2.09
15850,0.18
15862,-1.63
15874,-3.46
15886,-5.48
15898,-7.77
15910,-10.3
15921,-12.9
15932,-15.38
15944,-17.61
15956,-19.66
15968,-21.7
15980,-24.0
15992,-26.75
16004,-30.0
16016,-33.49
16028,-36.66
16040,-38.73
16052,-38.89
16064,-36.52
16076,-31.46
16088,-24.13
16100,-15.44
16111,-6.56
16122,1.45
16134,7.9
16146,12.64
16158,15.86
16170,17.98
16182,19.33
16194,20.08
16206,20.27
16218,19.9
16230,19.09
16242,18.07
16254,17.14
16266,16.56
16278,16.43
16290,16.65
16301,17.02
16312,17.3
16324,17.36
16336,17.19
16348,16.91
16360,16.6
16372,16.26
16384,15.72
16396,14.75
16408,13.13
16420,10.86
16432,8.16
16444,5.43
16456,3.05
16468,1.27
16480,-0.01
16491,-1.08
16502,-2.35
16514,-4.12
16526,-6.43
16538,-9.08
16550,-11.7
16562,-13.99
16574,-15.84
16586,-17.4
16598,-19.04
16610,-21.21
16622,-24.29
16634,-28.39
16646,-33.31
16658,-38.53
16670,-43.23
16681,-46.45
16692,-47.36
16704,-45.38
16716,-40.42
16728,-32.94
16740,-23.83
16752,-14.27
16764,-5.38
16776,2.05
16788,7.66
16800,11.52
16812,13.94
16824,15.36
16836,16.11
16848,16.48
16860,16.64
16871,16.71
16882,16.75
16894,16.79
16906,16.8
16918,16.73
16930,16.58
16942,16.34
16954,16.1
16966,15.93
16978,15.91
16990,16.02
17002,16.16
17014,16.17
17026,15.85
17038,15.04
17050,13.65
17061,11.72
17072,9.48
17084,7.21
17096,5.19
17108,3.52
17120,2.09
17132,0.63
17144,-1.18
17156,-3.52
17168,-6.37
17180,-9.53
17192,-12.67
17204,-15.53
17216,-17.99
17228,-20.1
17240,-22.11
17251,-24.34
17262,-27.1
17274,-30.58
17286,-34.69
17298,-39.01
17310,-42.81
17322,-45.19
17334,-45.3
17346,-42.63
17358,-37.18
17370,-29.51
17382,-20.59
17394,-11.52
17406,-3.26
17418,3.59
17430,8.83
17441,12.56
17452,15.04
17464,16.55
17476,17.3
17488,17.46
17500,17.14
17512,16.5
17524,15.68
17536,14.87
17548,14.2
17560,13.78
17572,13.65
17584,13.8
17596,14.15
17608,14.58
17620,14.98
17631,15.19
17642,15.08
17654,14.56
17666,13.56
17678,12.11
17690,10.3
17702,8.33
17714,6.35
17726,4.51
17738,2.79
17750,1.09
17762,-0.73
17774,-2.83
17786,-5.25
17798,-7.93
17810,-10.69
17821,-13.3
17832,-15.55
17844,-17.38
17856,-18.93
17868,-20.56
17880,-22.73
17892,-25.81
17904,-29.84
17916,-34.38
17928,-38.55
17940,-41.24
17952,-41.46
17964,-38.68
17976,-33.0
17988,-25.18
18000,-16.34
18011,-7.63
18022,0.1
18034,6.38
18046,11.15
18058,14.56
18070,16.83
18082,18.09
18094,18.46
18106,18.05
18118,17.06
18130,15.77
18142,14.53
18154,13.59
18166,13.07
18178,12.99
18190,13.21
18201,13.59
18212,13.99
18224,14.31
18236,14.49
18248,14.42
18260,13.98
18272,13.09
18284,11.7
18296,9.88
18308,7.74
18320,5.45
18332,3.14
18344,0.86
18356,-1.37
18368,-3.57
18380,-5.74
18391,-7.83
18402,-9.87
18414,-11.92
18426,-14.07
18438,-16.44
18450,-19.08
18462,-22.07
18474,-25.52
18486,-29.5
18498,-33.98
18510,-38.59
18522,-42.59
18534,-44.98
18546,-44.77
18558,-41.45
18570,-35.2
18581,-26.92
18592,-17.84
18604,-9.17
18616,-1.63
18628,4.52
18640,9.39
18652,13.22
18664,16.15
18676,18.18
18688,19.32
18700,19.64
18712,19.39
18724,18.86
18736,18.36
18748,18.04
18760,17.95
18771,18.06
18782,18.32
18794,18.73
18806,19.29
18818,19.94
18830,20.47
18842,20.62
18854,20.14
18866,18.85
18878,16.74
18890,14.02
18902,11.0
18914,8.0
18926,5.25
18938,2.8
18950,0.53
18961,-1.79
18972,-4.37
18984,-7.25
18996,-10.29
19008,-13.21
19020,-15.77
19032,-17.93
19044,-19.9
19056,-22.09
19068,-24.98
19080,-28.92
19092,-33.97
19104,-39.81
19116,-45.76
19128,-50.8
19140,-53.82
19151,-53.86
19162,-50.43
19174,-43.68
19186,-34.45
19198,-23.96
19210,-13.56
19222,-4.25
19234,3.42
19246,9.4
19258,13.95
19270,17.44
19282,20.15
19294,22.23
19306,23.71
19318,24.57
19330,24.88
19341,24.77
19352,24.45
19364,24.14
19376,24.01
19388,24.09
19400,24.35
19412,24.7
19424,25.05
19436,25.33
19448,25.45
19460,25.26
19472,24.54
19484,23.11
19496,20.9
19508,18.04
19520,14.84
19531,11.66
19542,8.8
19554,6.3
19566,3.99
19578,1.55
19590,-1.25
19602,-4.47
19614,-8.0
19626,-11.58
19638,-14.96
19650,-18.01
19662,-20.79
19674,-23.54
19686,-26.64
19698,-30.49
19710,-35.37
19721,-41.24
19732,-47.61
19744,-53.48
19756,-57.58
19768,-58.7
19780,-56.09
19792,-49.77
19804,-40.54
19816,-29.69
19828,-18.64
19840,-8.51
19852,0.07
19864,6.97
19876,12.38
19888,16.57
19900,19.75
19911,22.03
19922,23.5
19934,24.29
19946,24.65
19958,24.89
19970,25.27
19982,25.92
19994,26.78
20006,27.66
20018,28.4
20030,28.91
20042,29.28
20054,29.6
20066,29.93
20078,30.1
20090,29.85
20101,28.85
20112,26.94
20124,24.17
20136,20.83
20148,17.35
20160,14.11
20172,11.32
20184,8.94
20196,6.72
20208,4.34
20220,1.54
20232,-1.78
20244,-5.45
20256,-9.18
20268,-12.64
20280,-15.63
20291,-18.19
20302,-20.59
20314,-23.32
20326,-26.88
20338,-31.62
20350,-37.53
20362,-44.08
20374,-50.27
20386,-54.73
20398,-56.19
20410,-53.78
20422,-47.41
20434,-37.81
20446,-26.32
20458,-14.48
20470,-3.61
20481,5.48
20492,12.56
20504,17.85
20516,21.71
20528,24.5
20540,26.42
20552,27.55
20564,28.0
20576,27.93
20588,27.64
20600,27.45
20612,27.62
20624,28.21
20636,29.11
20648,30.09
20660,30.9
20671,31.36
20682,31.41
20694,31.06
20706,30.29
20718,29.08
20730,27.36
20742,25.11
20754,22.37
20766,19.28
20778,15.99
20790,12.62
20802,9.21
20814,5.73
20826,2.16
20838,-1.46
20850,-5.05
20861,-8.5
20872,-11.76
20884,-14.92
20896,-18.16
20908,-21.76
20920,-25.99
20932,-31.02
20944,-36.83
20956,-43.07
20968,-49.02
20980,-53.63
20992,-55.73
