seconds,BVP
10,59.01
22,54.93
34,50.33
46,45.4
58,40.4
70,35.54
82,30.97
94,26.67
106,22.49
118,18.19
130,13.52
141,8.34
152,2.64
164,-3.42
176,-9.6
188,-15.65
200,-21.42
212,-26.97
224,-32.46
236,-38.13
248,-44.16
260,-50.49
272,-56.77
284,-62.4
296,-66.62
308,-68.76
320,-68.37
331,-65.44
342,-60.35
354,-53.8
366,-46.56
378,-39.28
390,-32.37
402,-26.0
414,-20.26
426,-15.2
438,-10.93
450,-7.56
462,-5.13
474,-3.48
486,-2.31
498,-1.26
510,-0.02
521,1.52
532,3.32
544,5.22
556,7.09
568,8.89
580,10.67
592,12.51
604,14.43
616,16.32
628,17.96
640,19.13
652,19.71
664,19.72
676,19.32
688,18.66
700,17.91
711,17.07
722,16.11
734,14.96
746,13.61
758,12.15
770,10.74
782,9.51
794,8.54
806,7.8
818,7.14
830,6.36
842,5.22
854,3.56
866,1.36
878,-1.25
890,-3.94
901,-6.21
912,-7.48
924,-7.24
936,-5.21
948,-1.45
960,3.67
972,9.53
984,15.44
996,20.84
1008,25.35
1020,28.75
1032,30.9
1044,31.74
1056,31.22
1068,29.42
1080,26.6
1091,23.21
1102,19.76
1114,16.65
1126,14.05
1138,11.83
1150,9.76
1162,7.65
1174,5.45
1186,3.32
1198,1.4
1210,-0.25
1222,-1.78
1234,-3.43
1246,-5.42
1258,-7.82
1270,-10.46
1281,-13.1
1292,-15.53
1304,-17.73
1316,-19.89
1328,-22.3
1340,-25.17
1352,-28.53
1364,-32.2
1376,-35.9
1388,-39.41
1400,-42.71
1412,-46.02
1424,-49.66
1436,-53.89
1448,-58.8
1460,-64.26
1471,-69.94
1482,-75.38
1494,-80.0
1506,-83.15
1518,-84.2
1530,-82.68
1542,-78.47
1554,-71.9
1566,-63.7
1578,-54.78
1590,-45.91
1602,-37.58
1614,-29.9
1626,-22.87
1638,-16.46
1650,-10.75
1661,-5.9
1672,-2.02
1684,0.95
1696,3.24
1708,5.15
1720,6.96
1732,8.79
1744,10.63
1756,12.44
1768,14.16
1780,15.82
1792,17.48
1804,19.14
1816,20.71
1828,22.0
1840,22.8
1851,22.95
1862,22.44
1874,21.38
1886,19.96
1898,18.37
1910,16.74
1922,15.08
1934,13.31
1946,11.29
1958,8.89
1970,6.07
1982,2.88
1994,-0.53
2006,-3.98
2018,-7.35
2030,-10.62
2041,-13.9
2052,-17.42
2064,-21.45
2076,-26.16
2088,-31.48
2100,-37.0
2112,-41.95
2124,-45.32
2136,-46.15
2148,-43.85
2160,-38.48
2172,-30.7
2184,-21.59
2196,-12.27
2208,-3.58
2220,4.09
2231,10.66
2242,16.2
2254,20.77
2266,24.35
2278,26.91
2290,28.48
2302,29.24
2314,29.44
2326,29.38
2338,29.29
2350,29.27
2362,29.32
2374,29.39
2386,29.47
2398,29.58
2410,29.78
2421,30.03
2432,30.18
2444,30.0
2456,29.3
2468,28.0
2480,26.2
2492,24.08
2504,21.85
2516,19.6
2528,17.31
2540,14.87
2552,12.2
2564,9.31
2576,6.26
2588,3.16
2600,0.06
2611,-3.01
2622,-6.05
2634,-9.02
2646,-11.98
2658,-15.03
2670,-18.38
2682,-22.3
2694,-26.94
2706,-32.11
2718,-37.28
2730,-41.54
2742,-43.9
2754,-43.56
2766,-40.18
2778,-34.06
2790,-25.95
2801,-16.9
2812,-7.89
2824,0.35
2836,7.42
2848,13.22
2860,17.82
2872,21.38
2884,24.04
2896,25.94
2908,27.22
2920,28.03
2932,28.56
2944,28.92
2956,29.23
2968,29.5
2980,29.7
2991,29.84
3002,29.92
3014,30.03
3026,30.21
3038,30.47
3050,30.74
3062,30.86
3074,30.61
3086,29.83
3098,28.43
3110,26.46
3122,24.08
3134,21.53
3146,19.01
3158,16.65
3170,14.41
3181,12.17
3192,9.74
3204,6.97
3216,3.86
3228,0.53
3240,-2.8
3252,-5.93
3264,-8.82
3276,-11.59
3288,-14.54
3300,-18.01
3312,-22.27
3324,-27.34
3336,-32.93
3348,-38.4
3360,-42.82
3371,-45.24
3382,-44.96
3394,-41.76
3406,-35.93
3418,-28.22
3430,-19.5
3442,-10.59
3454,-2.1
3466,5.63
3478,12.37
3490,17.95
3502,22.21
3514,25.08
3526,26.68
3538,27.32
3550,27.4
3561,27.36
3572,27.51
3584,28.0
3596,28.81
3608,29.81
3620,30.87
3632,31.85
3644,32.67
3656,33.3
3668,33.74
3680,33.93
3692,33.78
3704,33.16
3716,31.9
3728,29.91
3740,27.24
3751,24.1
3762,20.82
3774,17.75
3786,15.1
3798,12.85
3810,10.76
3822,8.5
3834,5.79
3846,2.58
3858,-0.93
3870,-4.43
3882,-7.64
3894,-10.47
3906,-13.06
3918,-15.72
3930,-18.79
3941,-22.53
3952,-27.1
3964,-32.41
3976,-38.12
3988,-43.59
4000,-47.88
4012,-50.03
4024,-49.26
4036,-45.37
4048,-38.77
4060,-30.42
4072,-21.49
4084,-13.02
4096,-5.66
4108,0.33
4120,5.06
4131,8.71
4142,11.49
4154,13.5
4166,14.83
4178,15.5
4190,15.67
4202,15.54
4214,15.43
4226,15.67
4238,16.57
4250,18.32
4262,20.95
4274,24.32
4286,28.15
4298,32.12
4310,35.9
4321,39.3
4332,42.2
4344,44.51
4356,46.19
4368,47.15
4380,47.29
4392,46.57
4404,45.07
4416,42.95
4428,40.39
4440,37.53
4452,34.34
4464,30.66
4476,26.32
4488,21.24
4500,15.45
4511,9.12
4522,2.42
4534,-4.59
4546,-11.9
4558,-19.48
4570,-27.18
4582,-34.56
4594,-40.94
4606,-45.54
4618,-47.68
4630,-47.08
4642,-43.89
4654,-38.68
4666,-32.25
4678,-25.37
4690,-18.62
4701,-12.36
4712,-6.82
4724,-2.14
4736,1.5
4748,4.01
4760,5.36
4772,5.73
4784,5.48
4796,5.08
4808,4.92
4820,5.27
4832,6.19
4844,7.53
4856,9.07
4868,10.55
4880,11.8
4891,12.73
4902,13.32
4914,13.55
4926,13.39
4938,12.83
4950,11.85
4962,10.51
4974,8.89
4986,7.09
4998,5.19
5010,3.2
5022,1.1
5034,-1.12
5046,-3.42
5058,-5.76
5070,-8.06
5081,-10.31
5092,-12.53
5104,-14.81
5116,-17.29
5128,-20.14
5140,-23.55
5152,-27.64
5164,-32.33
5176,-37.24
5188,-41.66
5200,-44.69
5212,-45.48
5224,-43.53
5236,-38.9
5248,-32.16
5260,-24.23
5271,-16.04
5282,-8.3
5294,-1.38
5306,4.62
5318,9.77
5330,14.14
5342,17.75
5354,20.6
5366,22.73
5378,24.26
5390,25.34
5402,26.12
5414,26.68
5426,26.99
5438,27.0
5450,26.71
5461,26.24
5472,25.84
5484,25.68
5496,25.84
5508,26.17
5520,26.32
5532,25.91
5544,24.71
5556,22.68
5568,20.06
5580,17.19
5592,14.39
5604,11.85
5616,9.58
5628,7.4
5640,5.07
5651,2.42
5662,-0.62
5674,-3.93
5686,-7.28
5698,-10.47
5710,-13.37
5722,-15.99
5734,-18.5
5746,-21.16
5758,-24.25
5770,-27.98
5782,-32.36
5794,-37.1
5806,-41.59
5818,-44.95
5830,-46.31
5841,-45.03
5852,-40.99
5864,-34.63
5876,-26.79
5888,-18.47
5900,-10.51
5912,-3.42
5924,2.6
5936,7.58
5948,11.62
5960,14.8
5972,17.16
5984,18.77
5996,19.75
6008,20.28
6020,20.57
6031,20.82
6042,21.13
6054,21.55
6066,22.04
6078,22.53
6090,23.0
6102,23.4
6114,23.74
6126,23.99
6138,24.1
6150,23.94
6162,23.29
6174,22.01
6186,20.01
6198,17.4
6210,14.4
6221,11.35
6232,8.52
6244,6.05
6256,3.85
6268,1.7
6280,-0.67
6292,-3.44
6304,-6.58
6316,-9.91
6328,-13.17
6340,-16.21
6352,-19.02
6364,-21.78
6376,-24.82
6388,-28.5
6400,-33.07
6411,-38.56
6422,-44.65
6434,-50.63
6446,-55.43
6458,-57.88
6470,-56.96
6482,-52.19
6494,-43.82
6506,-32.76
6518,-20.38
6530,-8.09
6542,3.0
6554,12.24
6566,19.47
6578,24.82
6590,28.56
6601,31.0
6612,32.46
6624,33.3
6636,33.91
6648,34.64
6660,35.7
6672,37.15
6684,38.82
6696,40.5
6708,41.98
6720,43.22
6732,44.33
6744,45.43
6756,46.56
6768,47.54
6780,48.08
6791,47.81
6802,46.54
6814,44.25
6826,41.12
6838,37.37
6850,33.16
6862,28.57
6874,23.6
6886,18.28
6898,12.7
6910,7.03
6922,1.48
6934,-3.77
6946,-8.64
6958,-13.1
6970,-17.19
6981,-20.97
6992,-24.57
7004,-28.18
7016,-32.02
7028,-36.34
7040,-41.21
7052,-46.43
7064,-51.43
7076,-55.35
7088,-57.29
7100,-56.57
7112,-53.0
7124,-46.97
7136,-39.27
7148,-30.9
7160,-22.7
7171,-15.26
7182,-8.82
7194,-3.43
7206,0.99
7218,4.47
7230,7.04
7242,8.73
7254,9.64
7266,9.98
7278,10.01
7290,10.07
7302,10.4
7314,11.1
7326,12.13
7338,13.32
7350,14.46
7361,15.39
7372,16.0
7384,16.28
7396,16.27
7408,15.95
7420,15.31
7432,14.32
7444,12.94
7456,11.19
7468,9.09
7480,6.72
7492,4.16
7504,1.54
7516,-1.04
7528,-3.46
7540,-5.71
7551,-7.84
7562,-9.94
7574,-12.14
7586,-14.54
7598,-17.21
7610,-20.24
7622,-23.66
7634,-27.41
7646,-31.21
7658,-34.5
7670,-36.54
7682,-36.6
7694,-34.23
7706,-29.46
7718,-22.88
7730,-15.4
7741,-7.97
7752,-1.29
7764,4.3
7776,8.81
7788,12.35
7800,15.01
7812,16.82
7824,17.79
7836,17.99
7848,17.65
7860,17.02
7872,16.38
7884,15.88
7896,15.58
7908,15.48
7920,15.57
7931,15.83
7942,16.2
7954,16.56
7966,16.72
7978,16.5
7990,15.84
8002,14.77
8014,13.42
8026,11.9
8038,10.22
8050,8.34
8062,6.16
8074,3.66
8086,0.9
8098,-2.0
8110,-4.9
8121,-7.71
8132,-10.42
8144,-13.08
8156,-15.8
8168,-18.65
8180,-21.76
8192,-25.22
8204,-29.12
8216,-33.44
8228,-37.96
8240,-42.2
8252,-45.44
8264,-46.9
8276,-45.96
8288,-42.4
8300,-36.5
8311,-29.0
8322,-20.89
8334,-13.09
8346,-6.24
8358,-0.61
8370,3.87
8382,7.41
8394,10.27
8406,12.51
8418,14.12
8430,15.02
8442,15.2
8454,14.8
8466,14.16
8478,13.6
8490,13.44
8501,13.76
8512,14.51
8524,15.51
8536,16.6
8548,17.66
8560,18.67
8572,19.56
8584,20.25
8596,20.6
8608,20.47
8620,19.83
8632,18.85
8644,17.81
8656,17.02
8668,16.7
8680,16.88
8691,17.37
8702,17.85
8714,17.96
8726,17.44
8738,16.23
8750,14.42
8762,12.17
8774,9.59
8786,6.63
8798,3.1
8810,-1.31
8822,-6.78
8834,-13.21
8846,-20.12
8858,-26.74
8870,-32.13
8881,-35.45
8892,-36.24
8904,-34.44
8916,-30.49
8928,-25.08
8940,-19.05
8952,-13.11
8964,-7.82
8976,-3.41
8988,0.07
9000,2.73
9012,4.72
9024,6.15
9036,7.08
9048,7.56
9060,7.62
9071,7.36
9082,6.91
9094,6.4
9106,5.98
9118,5.77
9130,5.84
9142,6.22
9154,6.9
9166,7.77
9178,8.68
9190,9.42
9202,9.76
9214,9.57
9226,8.81
9238,7.59
9250,6.14
9261,4.72
9272,3.51
9284,2.54
9296,1.68
9308,0.7
9320,-0.62
9332,-2.36
9344,-4.47
9356,-6.75
9368,-8.97
9380,-10.94
9392,-12.62
9404,-14.09
9416,-15.59
9428,-17.43
9440,-19.94
9451,-23.31
9462,-27.5
9474,-32.14
9486,-36.48
9498,-39.6
9510,-40.58
9522,-38.84
9534,-34.36
9546,-27.68
9558,-19.73
9570,-11.55
9582,-4.0
9594,2.45
9606,7.69
9618,11.84
9630,15.06
9641,17.46
9652,19.06
9664,19.92
9676,20.15
9688,19.96
9700,19.6
9712,19.26
9724,19.0
9736,18.78
9748,18.5
9760,18.15
9772,17.8
9784,17.58
9796,17.58
9808,17.78
9820,17.97
9831,17.86
9842,17.18
9854,15.83
9866,13.89
9878,11.62
9890,9.3
9902,7.13
9914,5.14
9926,3.26
9938,1.29
9950,-0.88
9962,-3.3
9974,-5.92
9986,-8.63
9998,-11.29
10010,-13.82
10021,-16.19
10032,-18.44
10044,-20.68
10056,-23.04
10068,-25.7
10080,-28.83
10092,-32.46
10104,-36.38
10116,-40.07
10128,-42.73
10140,-43.49
10152,-41.68
10164,-37.13
10176,-30.25
10188,-21.9
10200,-13.15
10211,-4.87
10222,2.44
10234,8.7
10246,14.08
10258,18.82
10270,22.99
10282,26.53
10294,29.26
10306,31.01
10318,31.77
10330,31.7
10342,31.07
10354,30.19
10366,29.31
10378,28.58
10390,28.04
10401,27.69
10412,27.44
10424,27.28
10436,27.13
10448,26.94
10460,26.65
10472,26.18
10484,25.45
10496,24.39
10508,22.91
10520,20.98
10532,18.56
10544,15.68
10556,12.44
10568,8.99
10580,5.47
10591,2.0
10602,-1.44
10614,-4.93
10626,-8.65
10638,-12.77
10650,-17.41
10662,-22.6
10674,-28.23
10686,-34.06
10698,-39.64
10710,-44.41
10722,-47.69
10734,-48.84
10746,-47.44
10758,-43.48
10770,-37.37
10781,-29.95
10792,-22.2
10804,-15.03
10816,-9.06
10828,-4.54
10840,-1.44
10852,0.49
10864,1.48
10876,1.76
10888,1.54
10900,1.01
10912,0.43
10924,0.05
10936,0.09
10948,0.64
10960,1.62
10971,2.85
10982,4.05
10994,4.97
11006,5.44
11018,5.42
11030,4.97
11042,4.2
11054,3.18
11066,1.96
11078,0.55
11090,-1.06
11102,-2.86
11114,-4.82
11126,-6.85
11138,-8.91
11150,-10.93
11161,-12.92
11172,-14.91
11184,-16.99
11196,-19.22
11208,-21.68
11220,-24.49
11232,-27.73
11244,-31.47
11256,-35.62
11268,-39.85
11280,-43.55
11292,-45.96
11304,-46.36
11316,-44.32
11328,-39.88
11340,-33.5
11351,-25.94
11362,-18.06
11374,-10.5
11386,-3.69
11398,2.19
11410,7.08
11422,10.99
11434,13.94
11446,15.96
11458,17.13
11470,17.59
11482,17.53
11494,17.19
11506,16.81
11518,16.57
11530,16.59
11541,16.87
11552,17.31
11564,17.74
11576,17.99
11588,17.93
11600,17.56
11612,16.91
11624,16.04
11636,14.95
11648,13.61
11660,11.94
11672,9.93
11684,7.62
11696,5.1
11708,2.49
11720,-0.15
11731,-2.8
11742,-5.46
11754,-8.12
11766,-10.76
11778,-13.35
11790,-15.95
11802,-18.68
11814,-21.78
11826,-25.42
11838,-29.67
11850,-34.3
11862,-38.75
11874,-42.21
11886,-43.78
11898,-42.79
11910,-38.98
11921,-32.68
11932,-24.71
11944,-16.09
11956,-7.77
11968,-0.41
11980,5.77
11992,10.81
12004,14.87
12016,18.08
12028,20.41
12040,21.81
12052,22.29
12064,22.01
12076,21.28
12088,20.46
12100,19.82
12111,19.49
12122,19.41
12134,19.45
12146,19.5
12158,19.51
12170,19.48
12182,19.4
12194,19.21
12206,18.73
12218,17.81
12230,16.32
12242,14.23
12254,11.61
12266,8.59
12278,5.38
12290,2.12
12301,-1.04
12312,-4.02
12324,-6.78
12336,-9.33
12348,-11.71
12360,-13.99
12372,-16.28
12384,-18.72
12396,-21.45
12408,-24.63
12420,-28.33
12432,-32.44
12444,-36.6
12456,-40.14
12468,-42.24
12480,-42.15
12491,-39.41
12502,-34.1
12514,-26.76
12526,-18.24
12538,-9.42
12550,-0.97
12562,6.76
12574,13.69
12586,19.81
12598,25.1
12610,29.47
12622,32.8
12634,35.12
12646,36.68
12658,37.87
12670,39.12
12681,40.75
12692,42.81
12704,45.12
12716,47.36
12728,49.21
12740,50.46
12752,51.01
12764,50.84
12776,49.92
12788,48.19
12800,45.62
12812,42.26
12824,38.25
12836,33.84
12848,29.25
12860,24.63
12871,20.01
12882,15.38
12894,10.68
12906,5.93
12918,1.22
12930,-3.31
12942,-7.57
12954,-11.56
12966,-15.42
12978,-19.4
12990,-23.78
13002,-28.75
13014,-34.31
13026,-40.19
13038,-45.8
13050,-50.3
13061,-52.79
13072,-52.53
13084,-49.22
13096,-43.15
13108,-35.11
13120,-26.19
13132,-17.41
13144,-9.5
13156,-2.81
13168,2.66
13180,7.04
13192,10.45
13204,13.01
13216,14.79
13228,15.91
13240,16.55
13251,16.88
13262,17.07
13274,17.19
13286,17.33
13298,17.54
13310,17.89
13322,18.39
13334,19.01
13346,19.6
13358,19.95
13370,19.94
13382,19.53
13394,18.79
13406,17.82
13418,16.68
13430,15.29
13441,13.53
13452,11.28
13464,8.52
13476,5.4
13488,2.18
13500,-0.88
13512,-3.58
13524,-5.89
13536,-7.93
13548,-9.95
13560,-12.25
13572,-15.05
13584,-18.5
13596,-22.62
13608,-27.18
13620,-31.75
13631,-35.69
13642,-38.23
13654,-38.7
13666,-36.7
13678,-32.27
13690,-25.9
13702,-18.4
13714,-10.6
13726,-3.22
13738,3.3
13750,8.81
13762,13.22
13774,16.52
13786,18.66
13798,19.65
13810,19.61
13821,18.79
13832,17.55
13844,16.29
13856,15.33
13868,14.86
13880,14.93
13892,15.39
13904,16.01
13916,16.51
13928,16.65
13940,16.32
13952,15.55
13964,14.51
13976,13.39
13988,12.35
14000,11.43
14011,10.53
14022,9.51
14034,8.21
14046,6.6
14058,4.73
14070,2.77
14082,0.83
14094,-1.01
14106,-2.78
14118,-4.56
14130,-6.47
14142,-8.62
14154,-11.14
14166,-14.14
14178,-17.68
14190,-21.6
14201,-25.43
14212,-28.43
14224,-29.69
14236,-28.46
14248,-24.41
14260,-17.78
14272,-9.3
14284,0.05
14296,9.29
14308,17.66
14320,24.68
14332,30.15
14344,34.07
14356,36.57
14368,37.89
14380,38.25
14391,37.88
14402,36.92
14414,35.52
14426,33.78
14438,31.87
14450,29.97
14462,28.2
14474,26.59
14486,25.08
14498,23.51
14510,21.76
14522,19.79
14534,17.63
14546,15.35
14558,12.98
14570,10.5
14581,7.85
14592,5.0
14604,1.94
14616,-1.23
14628,-4.46
14640,-7.68
14652,-10.85
14664,-13.9
14676,-16.78
14688,-19.37
14700,-21.65
14712,-23.67
14724,-25.64
14736,-27.86
14748,-30.62
14760,-34.1
14771,-38.28
14782,-42.87
14794,-47.33
14806,-50.96
14818,-52.98
14830,-52.72
14842,-49.85
14854,-44.44
14866,-37.02
14878,-28.41
14890,-19.51
14902,-11.05
14914,-3.53
14926,2.86
14938,8.16
14950,12.46
14961,15.87
14972,18.42
14984,20.17
14996,21.2
15008,21.68
15020,21.83
15032,21.89
15044,22.03
15056,22.32
15068,22.7
15080,23.05
15092,23.28
15104,23.36
15116,23.3
15128,23.12
15140,22.73
15151,22.03
15162,20.89
15174,19.26
15186,17.26
15198,15.06
15210,12.83
15222,10.68
15234,8.56
15246,6.33
15258,3.88
15270,1.17
15282,-1.73
15294,-4.62
15306,-7.35
15318,-9.85
15330,-12.17
15341,-14.55
15352,-17.3
15364,-20.67
15376,-24.79
15388,-29.5
15400,-34.34
15412,-38.6
15424,-41.43
15436,-42.04
15448,-39.96
15460,-35.17
15472,-28.21
15484,-20.01
15496,-11.64
15508,-3.97
15520,2.46
15531,7.56
15542,11.57
15554,14.77
15566,17.38
15578,19.45
15590,20.91
15602,21.72
15614,21.98
15626,21.88
15638,21.65
15650,21.45
15662,21.34
15674,21.25
15686,21.15
15698,21.08
15710,21.09
15721,21.26
15732,21.53
15744,21.69
15756,21.46
15768,20.6
15780,19.07
15792,16.97
15804,14.56
15816,12.07
15828,9.65
15840,7.29
15852,4.93
15864,2.47
15876,-0.17
15888,-3.0
15900,-5.98
15911,-9.04
15922,-12.04
15934,-14.87
15946,-17.46
15958,-19.89
15970,-22.38
15982,-25.21
15994,-28.59
16006,-32.43
16018,-36.3
16030,-39.41
16042,-40.92
16054,-40.13
16066,-36.81
16078,-31.21
16090,-23.99
16101,-16.07
16112,-8.28
16124,-1.23
16136,4.75
16148,9.58
16160,13.32
16172,16.07
16184,17.92
16196,18.96
16208,19.33
16220,19.21
16232,18.8
16244,18.3
16256,17.87
16268,17.58
16280,17.46
16291,17.51
16302,17.73
16314,18.09
16326,18.54
16338,18.95
16350,19.13
16362,18.88
16374,18.08
16386,16.73
16398,14.97
16410,13.06
16422,11.2
16434,9.53
16446,7.99
16458,6.39
16470,4.47
16481,2.05
16492,-0.89
16504,-4.14
16516,-7.35
16528,-10.21
16540,-12.58
16552,-14.57
16564,-16.54
16576,-18.92
16588,-22.06
16600,-26.04
16612,-30.62
16624,-35.25
16636,-39.17
16648,-41.58
16660,-41.85
16671,-39.64
16682,-35.03
16694,-28.57
16706,-21.07
16718,-13.44
16730,-6.42
16742,-0.43
16754,4.45
16766,8.34
16778,11.38
16790,13.65
16802,15.14
16814,15.88
16826,15.99
16838,15.68
16850,15.24
16861,14.89
16872,14.72
16884,14.75
16896,14.9
16908,15.09
16920,15.29
16932,15.47
16944,15.61
16956,15.66
16968,15.54
16980,15.15
16992,14.43
17004,13.34
17016,11.91
17028,10.21
17040,8.33
17051,6.36
17062,4.37
17074,2.36
17086,0.33
17098,-1.81
17110,-4.04
17122,-6.36
17134,-8.72
17146,-11.12
17158,-13.61
17170,-16.33
17182,-19.43
17194,-23.02
17206,-27.07
17218,-31.36
17230,-35.44
17241,-38.65
17252,-40.32
17264,-39.91
17276,-37.17
17288,-32.28
17300,-25.78
17312,-18.46
17324,-11.09
17336,-4.28
17348,1.68
17360,6.68
17372,10.72
17384,13.75
17396,15.71
17408,16.55
17420,16.39
17431,15.52
17442,14.32
17454,13.2
17466,12.44
17478,12.18
17490,12.38
17502,12.84
17514,13.35
17526,13.63
17538,13.47
17550,12.76
17562,11.55
17574,10.01
17586,8.38
17598,6.89
17610,5.65
17621,4.58
17632,3.51
17644,2.21
17656,0.54
17668,-1.55
17680,-4.0
17692,-6.67
17704,-9.4
17716,-12.08
17728,-14.65
17740,-17.16
17752,-19.76
17764,-22.65
17776,-25.99
17788,-29.82
17800,-33.86
17811,-37.59
17822,-40.24
17834,-41.03
17846,-39.42
17858,-35.32
17870,-29.14
17882,-21.65
17894,-13.7
17906,-6.0
17918,1.09
17930,7.49
17942,13.26
17954,18.43
17966,22.86
17978,26.36
17990,28.82
18001,30.32
18012,31.15
18024,31.72
18036,32.34
18048,33.21
18060,34.29
18072,35.48
18084,36.67
18096,37.73
18108,38.53
18120,38.91
18132,38.71
18144,37.8
18156,36.15
18168,33.82
18180,30.95
18191,27.64
18202,23.91
18214,19.77
18226,15.23
18238,10.35
18250,5.3
18262,0.28
18274,-4.53
18286,-8.99
18298,-13.08
18310,-16.88
18322,-20.56
18334,-24.33
18346,-28.38
18358,-32.87
18370,-37.73
18381,-42.65
18392,-47.07
18404,-50.22
18416,-51.36
18428,-50.02
18440,-46.12
18452,-40.08
18464,-32.68
18476,-24.79
18488,-17.21
18500,-10.43
18512,-4.68
18524,0.02
18536,3.72
18548,6.46
18560,8.33
18571,9.44
18582,9.96
18594,10.11
18606,10.12
18618,10.18
18630,10.4
18642,10.81
18654,11.41
18666,12.09
18678,12.72
18690,13.16
18702,13.32
18714,13.17
18726,12.76
18738,12.15
18750,11.41
18761,10.52
18772,9.41
18784,7.99
18796,6.23
18808,4.17
18820,1.95
18832,-0.27
18844,-2.36
18856,-4.32
18868,-6.2
18880,-8.11
18892,-10.18
18904,-12.5
18916,-15.15
18928,-18.17
18940,-21.61
18951,-25.48
18962,-29.63
18974,-33.69
18986,-37.07
18998,-39.0
19010,-38.79
19022,-36.07
19034,-30.93
19046,-23.97
19058,-16.15
19070,-8.45
19082,-1.57
19094,4.13
19106,8.71
19118,12.35
19130,15.25
19141,17.44
19152,18.81
19164,19.28
19176,18.93
19188,18.02
19200,16.97
19212,16.17
19224,15.88
19236,16.14
19248,16.79
19260,17.63
19272,18.43
19284,19.06
19296,19.45
19308,19.56
19320,19.3
19331,18.58
19342,17.38
19354,15.71
19366,13.69
19378,11.48
19390,9.21
19402,6.96
19414,4.74
19426,2.53
19438,0.31
19450,-1.91
19462,-4.14
19474,-6.42
19486,-8.82
19498,-11.44
19510,-14.37
19521,-17.65
19532,-21.31
19544,-25.31
19556,-29.52
19568,-33.65
19580,-37.21
19592,-39.58
19604,-40.13
19616,-38.46
19628,-34.52
19640,-28.72
19652,-21.78
19664,-14.5
19676,-7.56
19688,-1.4
19700,3.8
19711,8.0
19722,11.21
19734,13.43
19746,14.71
19758,15.2
19770,15.15
19782,14.88
19794,14.71
19806,14.84
19818,15.36
19830,16.21
19842,17.3
19854,18.54
19866,19.85
19878,21.17
19890,22.37
19901,23.3
19912,23.78
19924,23.68
19936,22.98
19948,21.79
19960,20.32
19972,18.76
19984,17.24
19996,15.75
20008,14.26
20020,12.65
20032,10.89
20044,9.02
20056,7.15
20068,5.41
20080,3.91
20091,2.63
20102,1.45
20114,0.15
20126,-1.53
20138,-3.83
20150,-6.83
20162,-10.38
20174,-14.02
20186,-17.13
20198,-19.02
20210,-19.18
20222,-17.47
20234,-14.13
20246,-9.74
20258,-4.94
20270,-0.32
20281,3.73
20292,7.04
20304,9.55
20316,11.25
20328,12.15
20340,12.3
20352,11.75
20364,10.62
20376,9.14
20388,7.54
20400,6.09
20412,5.01
20424,4.41
20436,4.28
20448,4.48
20460,4.8
20471,5.03
20482,5.04
20494,4.81
20506,4.4
20518,3.91
20530,3.37
20542,2.74
20554,1.9
20566,0.76
20578,-0.75
20590,-2.57
20602,-4.56
20614,-6.59
20626,-8.52
20638,-10.31
20650,-11.98
20661,-13.62
20672,-15.35
20684,-17.32
20696,-19.7
20708,-22.62
20720,-26.08
20732,-29.88
20744,-33.58
20756,-36.54
20768,-38.08
20780,-37.59
20792,-34.84
20804,-29.95
20816,-23.48
20828,-16.19
20840,-8.88
20851,-2.18
20862,3.56
20874,8.24
20886,11.92
20898,14.73
20910,16.74
20922,17.99
20934,18.54
20946,18.53
20958,18.19
20970,17.81
20982,17.63
20994,17.79
