seconds,BVP
8,-0.37
20,0.93
32,2.14
44,3.12
56,3.82
68,4.2
80,4.28
92,4.07
104,3.61
116,2.99
128,2.33
139,1.78
150,1.47
162,1.47
174,1.76
186,2.23
198,2.69
210,2.96
222,2.89
234,2.45
246,1.73
258,0.91
270,0.21
282,-0.21
294,-0.28
306,-0.05
318,0.3
329,0.56
340,0.59
352,0.32
364,-0.2
376,-0.85
388,-1.47
400,-1.95
412,-2.26
424,-2.45
436,-2.61
448,-2.86
460,-3.23
472,-3.72
484,-4.24
496,-4.65
508,-4.87
519,-4.8
530,-4.45
542,-3.85
554,-3.05
566,-2.13
578,-1.21
590,-0.38
602,0.24
614,0.6
626,0.72
638,0.69
650,0.63
662,0.65
674,0.77
686,0.95
698,1.09
709,1.13
720,1.07
732,0.99
744,0.97
756,1.07
768,1.29
780,1.58
792,1.88
804,2.15
816,2.35
828,2.46
840,2.44
852,2.26
864,1.9
876,1.37
888,0.7
899,-0.02
910,-0.71
922,-1.3
934,-1.73
946,-1.97
958,-2.03
970,-1.99
982,-1.95
994,-2.03
1006,-2.32
1018,-2.82
1030,-3.44
1042,-4.03
1054,-4.4
1066,-4.44
1078,-4.11
1089,-3.49
1100,-2.7
1112,-1.93
1124,-1.27
1136,-0.76
1148,-0.37
1160,0.03
1172,0.48
1184,1.01
1196,1.53
1208,1.92
1220,2.05
1232,1.89
1244,1.53
1256,1.11
1268,0.78
1279,0.6
1290,0.59
1302,0.66
1314,0.73
1326,0.76
1338,0.77
1350,0.79
1362,0.84
1374,0.91
1386,0.91
1398,0.77
1410,0.43
1422,-0.08
1434,-0.64
1446,-1.12
1458,-1.37
1469,-1.38
1480,-1.19
1492,-0.96
1504,-0.83
1516,-0.87
1528,-1.08
1540,-1.43
1552,-1.92
1564,-2.56
1576,-3.35
1588,-4.23
1600,-5.05
1612,-5.6
1624,-5.72
1636,-5.35
1648,-4.59
1659,-3.61
1670,-2.57
1682,-1.56
1694,-0.57
1706,0.42
1718,1.37
1730,2.17
1742,2.71
1754,2.91
1766,2.77
1778,2.42
1790,1.97
1802,1.56
1814,1.25
1826,1.04
1838,0.89
1849,0.75
1860,0.6
1872,0.47
1884,0.41
1896,0.47
1908,0.68
1920,0.98
1932,1.24
1944,1.31
1956,1.1
1968,0.62
1980,0.01
1992,-0.58
2004,-1.05
2016,-1.37
2028,-1.6
2039,-1.82
2050,-2.04
2062,-2.26
2074,-2.45
2086,-2.63
2098,-2.87
2110,-3.29
2122,-3.93
2134,-4.75
2146,-5.61
2158,-6.29
2170,-6.6
2182,-6.47
2194,-5.95
2206,-5.16
2218,-4.28
2229,-3.41
2240,-2.6
2252,-1.83
2264,-1.08
2276,-0.34
2288,0.34
2300,0.88
2312,1.19
2324,1.22
2336,0.99
2348,0.62
2360,0.25
2372,0.06
2384,0.18
2396,0.61
2408,1.26
2419,1.91
2430,2.36
2442,2.49
2454,2.34
2466,2.05
2478,1.81
2490,1.71
2502,1.75
2514,1.83
2526,1.86
2538,1.8
2550,1.68
2562,1.55
2574,1.42
2586,1.23
2598,0.93
2609,0.47
2620,-0.12
2632,-0.79
2644,-1.43
2656,-1.99
2668,-2.46
2680,-2.83
2692,-3.17
2704,-3.51
2716,-3.87
2728,-4.21
2740,-4.45
2752,-4.48
2764,-4.19
2776,-3.54
2788,-2.6
2799,-1.49
2810,-0.39
2822,0.57
2834,1.32
2846,1.9
2858,2.37
2870,2.76
2882,3.01
2894,3.03
2906,2.75
2918,2.22
2930,1.58
2942,1.04
2954,0.77
2966,0.8
2978,1.04
2989,1.35
3000,1.58
3012,1.7
3024,1.8
3036,2.02
3048,2.4
3060,2.92
3072,3.39
3084,3.61
3096,3.46
3108,2.98
3120,2.33
3132,1.72
3144,1.29
3156,1.02
3168,0.79
3179,0.47
3190,0.01
3202,-0.56
3214,-1.12
3226,-1.58
3238,-1.95
3250,-2.31
3262,-2.76
3274,-3.32
3286,-3.87
3298,-4.28
3310,-4.4
3322,-4.17
3334,-3.65
3346,-2.9
3358,-2.02
3369,-1.08
3380,-0.16
3392,0.67
3404,1.33
3416,1.76
3428,1.98
3440,2.03
3452,2.0
3464,1.96
3476,1.9
3488,1.8
3500,1.65
3512,1.46
3524,1.31
3536,1.29
3548,1.41
3559,1.64
3570,1.85
3582,1.95
3594,1.87
3606,1.62
3618,1.25
3630,0.81
3642,0.39
3654,0.01
3666,-0.33
3678,-0.62
3690,-0.9
3702,-1.13
3714,-1.3
3726,-1.34
3738,-1.24
3749,-1.06
3760,-0.91
3772,-0.95
3784,-1.31
3796,-2.02
3808,-2.94
3820,-3.91
3832,-4.67
3844,-5.1
3856,-5.14
3868,-4.84
3880,-4.3
3892,-3.59
3904,-2.74
3916,-1.78
3928,-0.72
3939,0.4
3950,1.49
3962,2.42
3974,3.07
3986,3.37
3998,3.33
4010,3.03
4022,2.62
4034,2.23
4046,1.95
4058,1.8
4070,1.77
4082,1.84
4094,2.0
4106,2.26
4118,2.59
4129,2.92
4140,3.17
4152,3.25
4164,3.13
4176,2.82
4188,2.41
4200,1.98
4212,1.6
4224,1.29
4236,1.02
4248,0.76
4260,0.43
4272,-0.01
4284,-0.59
4296,-1.27
4308,-1.98
4319,-2.59
4330,-3.03
4342,-3.29
4354,-3.48
4366,-3.75
4378,-4.23
4390,-4.95
4402,-5.84
4414,-6.69
4426,-7.29
4438,-7.49
4450,-7.25
4462,-6.63
4474,-5.75
4486,-4.72
4498,-3.63
4509,-2.51
4520,-1.37
4532,-0.24
4544,0.82
4556,1.77
4568,2.52
4580,2.99
4592,3.12
4604,2.91
4616,2.45
4628,1.93
4640,1.53
4652,1.39
4664,1.53
4676,1.91
4688,2.39
4699,2.91
4710,3.44
4722,4.01
4734,4.63
4746,5.21
4758,5.63
4770,5.75
4782,5.51
4794,4.97
4806,4.26
4818,3.53
4830,2.88
4842,2.34
4854,1.9
4866,1.54
4878,1.23
4889,0.95
4900,0.63
4912,0.26
4924,-0.18
4936,-0.68
4948,-1.2
4960,-1.72
4972,-2.28
4984,-2.94
4996,-3.73
5008,-4.62
5020,-5.46
5032,-6.07
5044,-6.28
5056,-6.02
5068,-5.33
5079,-4.36
5090,-3.25
5102,-2.11
5114,-1.01
5126,0.03
5138,0.96
5150,1.73
5162,2.27
5174,2.57
5186,2.67
5198,2.66
5210,2.64
5222,2.66
5234,2.75
5246,2.88
5258,3.0
5269,3.06
5280,3.05
5292,2.99
5304,2.93
5316,2.95
5328,3.08
5340,3.33
5352,3.62
5364,3.85
5376,3.88
5388,3.63
5400,3.1
5412,2.37
5424,1.62
5436,1.01
5448,0.64
5459,0.5
5470,0.47
5482,0.36
5494,0.0
5506,-0.67
5518,-1.59
5530,-2.58
5542,-3.48
5554,-4.17
5566,-4.65
5578,-5.03
5590,-5.4
5602,-5.81
5614,-6.23
5626,-6.58
5638,-6.8
5649,-6.87
5660,-6.75
5672,-6.41
5684,-5.79
5696,-4.81
5708,-3.48
5720,-1.91
5732,-0.31
5744,1.05
5756,1.98
5768,2.43
5780,2.49
5792,2.38
5804,2.27
5816,2.21
5828,2.17
5839,2.04
5850,1.81
5862,1.55
5874,1.39
5886,1.43
5898,1.64
5910,1.9
5922,2.04
5934,2.01
5946,1.9
5958,1.89
5970,2.12
5982,2.56
5994,3.0
6006,3.16
6018,2.81
6029,1.9
6040,0.6
6052,-0.8
6064,-1.99
6076,-2.78
6088,-3.12
6100,-3.1
6112,-2.9
6124,-2.71
6136,-2.68
6148,-2.89
6160,-3.37
6172,-4.07
6184,-4.94
6196,-5.88
6208,-6.79
6219,-7.55
6230,-7.99
6242,-8.0
6254,-7.48
6266,-6.44
6278,-4.97
6290,-3.24
6302,-1.47
6314,0.15
6326,1.49
6338,2.51
6350,3.2
6362,3.55
6374,3.58
6386,3.31
6398,2.84
6409,2.33
6420,1.98
6432,1.93
6444,2.23
6456,2.79
6468,3.5
6480,4.24
6492,4.87
6504,5.32
6516,5.52
6528,5.43
6540,5.1
6552,4.66
6564,4.31
6576,4.13
6588,4.1
6599,4.03
6610,3.68
6622,2.96
6634,1.95
6646,0.94
6658,0.19
6670,-0.2
6682,-0.35
6694,-0.56
6706,-1.1
6718,-2.13
6730,-3.56
6742,-5.17
6754,-6.68
6766,-7.83
6778,-8.5
6789,-8.65
6800,-8.3
6812,-7.55
6824,-6.44
6836,-5.09
6848,-3.58
6860,-2.04
6872,-0.57
6884,0.71
6896,1.71
6908,2.43
6920,2.86
6932,3.07
6944,3.09
6956,2.97
6968,2.8
6979,2.67
6990,2.7
7002,2.95
7014,3.4
7026,3.92
7038,4.35
7050,4.56
7062,4.51
7074,4.29
7086,4.05
7098,3.89
7110,3.82
7122,3.78
7134,3.63
7146,3.27
7158,2.68
7169,1.88
7180,0.96
7192,0.02
7204,-0.84
7216,-1.55
7228,-2.11
7240,-2.56
7252,-3.02
7264,-3.61
7276,-4.42
7288,-5.48
7300,-6.68
7312,-7.88
7324,-8.89
7336,-9.55
7348,-9.79
7359,-9.58
7370,-8.9
7382,-7.74
7394,-6.14
7406,-4.19
7418,-2.1
7430,-0.15
7442,1.45
7454,2.55
7466,3.22
7478,3.58
7490,3.8
7502,3.96
7514,4.05
7526,4.05
7538,3.99
7549,3.98
7560,4.13
7572,4.49
7584,4.97
7596,5.42
7608,5.68
7620,5.7
7632,5.56
7644,5.44
7656,5.47
7668,5.68
7680,5.95
7692,6.11
7704,5.99
7716,5.53
7728,4.81
7739,3.99
7750,3.22
7762,2.64
7774,2.25
7786,1.97
7798,1.67
7810,1.24
7822,0.61
7834,-0.2
7846,-1.09
7858,-1.98
7870,-2.85
7882,-3.71
7894,-4.63
7906,-5.59
7918,-6.45
7929,-6.95
7940,-6.81
7952,-5.85
7964,-4.1
7976,-1.82
7988,0.59
8000,2.78
8012,4.54
8024,5.8
8036,6.59
8048,6.96
8060,6.96
8072,6.63
8084,6.05
8096,5.32
8108,4.55
8119,3.82
8130,3.2
8142,2.72
8154,2.45
8166,2.41
8178,2.63
8190,3.05
8202,3.57
8214,4.03
8226,4.27
8238,4.21
8250,3.86
8262,3.33
8274,2.75
8286,2.21
8298,1.77
8309,1.41
8320,1.08
8332,0.68
8344,0.1
8356,-0.7
8368,-1.71
8380,-2.81
8392,-3.83
8404,-4.59
8416,-4.97
8428,-5.0
8440,-4.83
8452,-4.69
8464,-4.83
8476,-5.37
8488,-6.28
8499,-7.45
8510,-8.63
8522,-9.58
8534,-10.05
8546,-9.81
8558,-8.72
8570,-6.78
8582,-4.18
8594,-1.29
8606,1.44
8618,3.62
8630,5.02
8642,5.67
8654,5.81
8666,5.69
8678,5.53
8689,5.35
8700,5.07
8712,4.6
8724,4.03
8736,3.57
8748,3.45
8760,3.8
8772,4.5
8784,5.25
8796,5.73
8808,5.78
8820,5.49
8832,5.12
8844,4.9
8856,4.91
8868,5.02
8879,5.0
8890,4.68
8902,4.01
8914,3.14
8926,2.23
8938,1.41
8950,0.72
8962,0.11
8974,-0.43
8986,-0.89
8998,-1.19
9010,-1.32
9022,-1.35
9034,-1.45
9046,-1.82
9058,-2.59
9069,-3.75
9080,-5.12
9092,-6.41
9104,-7.34
9116,-7.69
9128,-7.4
9140,-6.52
9152,-5.26
9164,-3.81
9176,-2.35
9188,-0.95
9200,0.4
9212,1.74
9224,3.07
9236,4.32
9248,5.31
9259,5.87
9270,5.86
9282,5.35
9294,4.54
9306,3.75
9318,3.24
9330,3.21
9342,3.66
9354,4.45
9366,5.35
9378,6.11
9390,6.53
9402,6.51
9414,6.14
9426,5.57
9438,5.01
9449,4.61
9460,4.42
9472,4.38
9484,4.39
9496,4.34
9508,4.17
9520,3.87
9532,3.44
9544,2.87
9556,2.11
9568,1.16
9580,0.11
9592,-0.89
9604,-1.68
9616,-2.17
9628,-2.45
9639,-2.74
9650,-3.28
9662,-4.27
9674,-5.7
9686,-7.4
9698,-9.03
9710,-10.18
9722,-10.57
9734,-10.02
9746,-8.6
9758,-6.54
9770,-4.15
9782,-1.8
9794,0.29
9806,1.99
9818,3.28
9829,4.19
9840,4.73
9852,4.87
9864,4.61
9876,4.02
9888,3.26
9900,2.57
9912,2.14
9924,2.01
9936,2.14
9948,2.38
9960,2.65
9972,2.94
9984,3.3
9996,3.75
10008,4.26
10019,4.67
10030,4.85
10042,4.72
10054,4.29
10066,3.68
10078,3.0
10090,2.31
10102,1.58
10114,0.78
10126,-0.1
10138,-1.02
10150,-1.86
10162,-2.51
10174,-2.93
10186,-3.13
10198,-3.27
10209,-3.54
10220,-4.09
10232,-4.98
10244,-6.16
10256,-7.44
10268,-8.62
10280,-9.51
10292,-10.03
10304,-10.17
10316,-9.92
10328,-9.25
10340,-8.06
10352,-6.32
10364,-4.08
10376,-1.56
10388,0.93
10399,3.07
10410,4.63
10422,5.54
10434,5.91
10446,5.91
10458,5.74
10470,5.55
10482,5.42
10494,5.39
10506,5.44
10518,5.56
10530,5.73
10542,5.92
10554,6.11
10566,6.26
10578,6.34
10589,6.32
10600,6.21
10612,6.01
10624,5.76
10636,5.47
10648,5.13
10660,4.7
10672,4.16
10684,3.5
10696,2.8
10708,2.13
10720,1.58
10732,1.14
10744,0.73
10756,0.23
10768,-0.45
10779,-1.32
10790,-2.32
10802,-3.32
10814,-4.26
10826,-5.11
10838,-5.94
10850,-6.81
10862,-7.7
10874,-8.42
10886,-8.71
10898,-8.28
10910,-7.02
10922,-5.07
10934,-2.76
10946,-0.54
10958,1.25
10969,2.5
10980,3.27
10992,3.73
11004,4.01
11016,4.11
11028,3.96
11040,3.48
11052,2.75
11064,1.96
11076,1.33
11088,1.05
11100,1.12
11112,1.45
11124,1.88
11136,2.25
11148,2.47
11159,2.53
11170,2.47
11182,2.35
11194,2.21
11206,2.1
11218,2.04
11230,1.98
11242,1.84
11254,1.5
11266,0.9
11278,0.03
11290,-1.0
11302,-2.04
11314,-2.95
11326,-3.65
11338,-4.19
11349,-4.72
11360,-5.37
11372,-6.17
11384,-7.07
11396,-7.86
11408,-8.34
11420,-8.35
11432,-7.86
11444,-6.94
11456,-5.71
11468,-4.23
11480,-2.56
11492,-0.75
11504,1.1
11516,2.8
11528,4.13
11539,4.91
11550,5.08
11562,4.73
11574,4.06
11586,3.31
11598,2.69
11610,2.37
11622,2.36
11634,2.6
11646,2.98
11658,3.35
11670,3.61
11682,3.75
11694,3.8
11706,3.8
11718,3.77
11729,3.66
11740,3.39
11752,2.94
11764,2.34
11776,1.69
11788,1.07
11800,0.53
11812,0.03
11824,-0.55
11836,-1.3
11848,-2.22
11860,-3.22
11872,-4.17
11884,-4.99
11896,-5.73
11908,-6.46
11919,-7.24
11930,-7.99
11942,-8.5
11954,-8.45
11966,-7.66
11978,-6.13
11990,-4.1
12002,-1.96
12014,-0.06
12026,1.39
12038,2.38
12050,3.03
12062,3.44
12074,3.66
12086,3.63
12098,3.32
12109,2.75
12120,2.07
12132,1.5
12144,1.24
12156,1.37
12168,1.81
12180,2.35
12192,2.77
12204,2.91
12216,2.74
12228,2.39
12240,2.01
12252,1.7
12264,1.5
12276,1.32
12288,1.04
12299,0.59
12310,-0.05
12322,-0.83
12334,-1.64
12346,-2.37
12358,-2.95
12370,-3.36
12382,-3.66
12394,-3.98
12406,-4.45
12418,-5.15
12430,-6.07
12442,-7.06
12454,-7.88
12466,-8.28
12478,-8.09
12489,-7.27
12500,-5.94
12512,-4.29
12524,-2.5
12536,-0.77
12548,0.8
12560,2.13
12572,3.2
12584,3.98
12596,4.48
12608,4.72
12620,4.72
12632,4.46
12644,3.99
12656,3.36
12668,2.72
12679,2.21
12690,1.99
12702,2.13
12714,2.56
12726,3.13
12738,3.63
12750,3.9
12762,3.9
12774,3.69
12786,3.41
12798,3.12
12810,2.8
12822,2.37
12834,1.73
12846,0.87
12858,-0.08
12869,-0.95
12880,-1.6
12892,-1.95
12904,-2.07
12916,-2.09
12928,-2.12
12940,-2.26
12952,-2.56
12964,-3.06
12976,-3.81
12988,-4.79
13000,-5.9
13012,-6.91
13024,-7.57
13036,-7.67
13048,-7.16
13059,-6.12
13070,-4.71
13082,-3.14
13094,-1.52
13106,0.03
13118,1.48
13130,2.77
13142,3.83
13154,4.6
13166,5.02
13178,5.08
13190,4.84
13202,4.41
13214,3.95
13226,3.61
13238,3.49
13249,3.57
13260,3.79
13272,4.07
13284,4.33
13296,4.57
13308,4.79
13320,4.98
13332,5.05
13344,4.92
13356,4.51
13368,3.83
13380,2.95
13392,2.01
13404,1.16
13416,0.44
13428,-0.11
13439,-0.6
13450,-1.1
13462,-1.67
13474,-2.34
13486,-3.06
13498,-3.76
13510,-4.34
13522,-4.78
13534,-5.13
13546,-5.47
13558,-5.91
13570,-6.48
13582,-7.16
13594,-7.86
13606,-8.46
13618,-8.83
13629,-8.86
13640,-8.45
13652,-7.55
13664,-6.16
13676,-4.38
13688,-2.43
13700,-0.58
13712,0.91
13724,1.89
13736,2.38
13748,2.54
13760,2.61
13772,2.74
13784,2.97
13796,3.23
13808,3.41
13819,3.45
13830,3.36
13842,3.22
13854,3.14
13866,3.22
13878,3.47
13890,3.87
13902,4.31
13914,4.67
13926,4.83
13938,4.73
13950,4.4
13962,3.91
13974,3.33
13986,2.75
13998,2.17
14009,1.6
14020,1.04
14032,0.54
14044,0.12
14056,-0.2
14068,-0.47
14080,-0.75
14092,-1.07
14104,-1.4
14116,-1.65
14128,-1.78
14140,-1.83
14152,-1.94
14164,-2.27
14176,-2.97
14188,-4.02
14199,-5.23
14210,-6.28
14222,-6.8
14234,-6.5
14246,-5.3
14258,-3.36
14270,-1.05
14282,1.26
14294,3.22
14306,4.72
14318,5.78
14330,6.5
14342,6.94
14354,7.11
14366,6.92
14378,6.33
14389,5.42
14400,4.38
14412,3.49
14424,2.94
14436,2.83
14448,3.07
14460,3.51
14472,4.0
14484,4.42
14496,4.74
14508,4.95
14520,4.99
14532,4.81
14544,4.32
14556,3.53
14568,2.53
14579,1.5
14590,0.6
14602,-0.04
14614,-0.43
14626,-0.7
14638,-1.0
14650,-1.45
14662,-2.07
14674,-2.79
14686,-3.54
14698,-4.21
14710,-4.8
14722,-5.33
14734,-5.9
14746,-6.54
14758,-7.27
14769,-7.97
14780,-8.47
14792,-8.59
14804,-8.18
14816,-7.18
14828,-5.67
14840,-3.84
14852,-1.95
14864,-0.23
14876,1.14
14888,2.12
14900,2.77
14912,3.17
14924,3.37
14936,3.36
14948,3.08
14959,2.52
14970,1.76
14982,0.95
14994,0.28
15006,-0.08
15018,-0.1
15030,0.14
15042,0.53
15054,0.97
15066,1.42
15078,1.86
15090,2.24
15102,2.51
15114,2.57
15126,2.37
15138,1.92
15149,1.33
15160,0.71
15172,0.15
15184,-0.31
15196,-0.71
15208,-1.12
15220,-1.62
15232,-2.25
15244,-3.01
15256,-3.82
15268,-4.58
15280,-5.12
15292,-5.39
15304,-5.4
15316,-5.33
15328,-5.41
15339,-5.86
15350,-6.7
15362,-7.77
15374,-8.72
15386,-9.18
15398,-8.92
15410,-7.9
15422,-6.29
15434,-4.35
15446,-2.34
15458,-0.45
15470,1.19
15482,2.51
15494,3.48
15506,4.08
15518,4.32
15529,4.26
15540,3.89
15552,3.27
15564,2.43
15576,1.54
15588,0.84
15600,0.55
15612,0.82
15624,1.58
15636,2.55
15648,3.36
15660,3.75
15672,3.67
15684,3.3
15696,2.91
15708,2.68
15719,2.61
15730,2.54
15742,2.29
15754,1.73
15766,0.91
15778,-0.03
15790,-0.9
15802,-1.59
15814,-2.07
15826,-2.37
15838,-2.58
15850,-2.78
15862,-3.04
15874,-3.4
15886,-3.89
15898,-4.49
15909,-5.18
15920,-5.89
15932,-6.58
15944,-7.16
15956,-7.57
15968,-7.66
15980,-7.29
15992,-6.4
16004,-5.01
16016,-3.3
16028,-1.51
16040,0.1
16052,1.37
16064,2.25
16076,2.78
16088,3.03
16099,3.04
16110,2.83
16122,2.39
16134,1.8
16146,1.16
16158,0.64
16170,0.38
16182,0.43
16194,0.74
16206,1.18
16218,1.56
16230,1.75
16242,1.68
16254,1.43
16266,1.11
16278,0.86
16289,0.71
16300,0.66
16312,0.61
16324,0.45
16336,0.12
16348,-0.4
16360,-1.06
16372,-1.8
16384,-2.51
16396,-3.11
16408,-3.57
16420,-3.89
16432,-4.14
16444,-4.37
16456,-4.63
16468,-4.91
16479,-5.15
16490,-5.31
16502,-5.34
16514,-5.22
16526,-4.92
16538,-4.41
16550,-3.66
16562,-2.65
16574,-1.41
16586,-0.03
16598,1.38
16610,2.65
16622,3.64
16634,4.27
16646,4.53
16658,4.48
16669,4.2
16680,3.81
16692,3.35
16704,2.88
16716,2.44
16728,2.05
16740,1.79
16752,1.68
16764,1.74
16776,1.94
16788,2.23
16800,2.54
16812,2.81
16824,2.96
16836,2.92
16848,2.64
16859,2.1
16870,1.39
16882,0.66
16894,0.02
16906,-0.43
16918,-0.74
16930,-1.0
16942,-1.33
16954,-1.8
16966,-2.45
16978,-3.25
16990,-4.16
17002,-5.1
17014,-5.96
17026,-6.6
17038,-6.85
17049,-6.59
17060,-5.78
17072,-4.49
17084,-2.87
17096,-1.11
17108,0.58
17120,2.0
17132,3.0
17144,3.54
17156,3.66
17168,3.48
17180,3.14
17192,2.72
17204,2.26
17216,1.78
17228,1.34
17239,1.01
17250,0.93
17262,1.14
17274,1.57
17286,2.04
17298,2.33
17310,2.32
17322,2.0
17334,1.48
17346,0.87
17358,0.25
17370,-0.38
17382,-1.03
17394,-1.66
17406,-2.21
17418,-2.58
17429,-2.76
17440,-2.84
17452,-3.0
17464,-3.4
17476,-4.14
17488,-5.18
17500,-6.37
17512,-7.5
17524,-8.35
17536,-8.71
17548,-8.48
17560,-7.64
17572,-6.3
17584,-4.63
17596,-2.88
17608,-1.25
17619,0.07
17630,1.01
17642,1.57
17654,1.83
17666,1.89
17678,1.84
17690,1.75
17702,1.66
17714,1.62
17726,1.65
17738,1.78
17750,1.98
17762,2.23
17774,2.48
17786,2.68
17798,2.82
17809,2.89
17820,2.9
17832,2.82
17844,2.63
17856,2.34
17868,1.99
17880,1.6
17892,1.18
17904,0.7
17916,0.08
17928,-0.71
17940,-1.65
17952,-2.62
17964,-3.49
17976,-4.17
17988,-4.71
17999,-5.23
18010,-5.87
18022,-6.64
18034,-7.37
18046,-7.81
18058,-7.69
18070,-6.9
18082,-5.5
18094,-3.66
18106,-1.66
18118,0.26
18130,1.88
18142,3.1
18154,3.84
18166,4.09
18178,3.91
18189,3.42
18200,2.81
18212,2.31
18224,2.08
18236,2.17
18248,2.52
18260,2.96
18272,3.33
18284,3.52
18296,3.54
18308,3.46
18320,3.37
18332,3.27
18344,3.14
18356,2.9
18368,2.54
18379,2.08
18390,1.58
18402,1.1
18414,0.62
18426,0.11
18438,-0.48
18450,-1.16
18462,-1.89
18474,-2.62
18486,-3.33
18498,-4.03
18510,-4.74
18522,-5.46
18534,-6.14
18546,-6.7
18558,-7.04
18569,-7.03
18580,-6.57
18592,-5.57
18604,-4.04
18616,-2.15
18628,-0.15
18640,1.65
18652,2.99
18664,3.78
18676,4.09
18688,4.07
18700,3.85
18712,3.55
18724,3.18
18736,2.75
18748,2.31
18759,1.91
18770,1.61
18782,1.37
18794,1.16
18806,0.92
18818,0.68
18830,0.51
18842,0.5
18854,0.7
18866,1.03
18878,1.36
18890,1.5
18902,1.36
18914,0.95
18926,0.38
18938,-0.24
18949,-0.77
18960,-1.18
18972,-1.48
18984,-1.72
18996,-1.98
19008,-2.28
19020,-2.65
19032,-3.13
19044,-3.7
19056,-4.31
19068,-4.85
19080,-5.16
19092,-5.09
19104,-4.54
19116,-3.51
19128,-2.08
19139,-0.43
19150,1.26
19162,2.8
19174,4.05
19186,4.92
19198,5.39
19210,5.48
19222,5.26
19234,4.83
19246,4.31
19258,3.83
19270,3.52
19282,3.43
19294,3.58
19306,3.97
19318,4.54
19329,5.2
19340,5.83
19352,6.3
19364,6.48
19376,6.31
19388,5.82
19400,5.12
19412,4.4
19424,3.78
19436,3.31
19448,2.93
19460,2.5
19472,1.95
19484,1.27
19496,0.55
19508,-0.09
19519,-0.57
19530,-0.94
19542,-1.29
19554,-1.72
19566,-2.28
19578,-2.98
19590,-3.73
19602,-4.45
19614,-5.01
19626,-5.26
19638,-5.08
19650,-4.4
19662,-3.27
19674,-1.87
19686,-0.42
19698,0.92
19709,2.12
19720,3.21
19732,4.28
19744,5.26
19756,5.97
19768,6.22
19780,5.93
19792,5.27
19804,4.56
19816,4.17
19828,4.26
19840,4.72
19852,5.28
19864,5.66
19876,5.76
19888,5.67
19899,5.57
19910,5.56
19922,5.63
19934,5.67
19946,5.58
19958,5.33
19970,4.98
19982,4.59
19994,4.11
20006,3.49
20018,2.67
20030,1.71
20042,0.79
20054,0.08
20066,-0.33
20078,-0.53
20089,-0.73
20100,-1.15
20112,-1.88
20124,-2.85
20136,-3.87
20148,-4.68
20160,-5.1
20172,-5.04
20184,-4.5
20196,-3.53
20208,-2.22
20220,-0.69
20232,0.93
20244,2.48
20256,3.8
20268,4.8
20279,5.45
20290,5.85
20302,6.15
20314,6.51
20326,7.05
20338,7.81
20350,8.71
20362,9.65
20374,10.56
20386,11.45
20398,12.42
20410,13.59
20422,15.04
20434,16.75
20446,18.6
20458,20.44
20469,22.09
20480,23.45
20492,24.44
20504,25.08
20516,25.4
20528,25.49
20540,25.48
20552,25.54
20564,25.82
20576,26.39
20588,27.16
20600,27.83
20612,28.02
20624,27.38
20636,25.81
20648,23.52
20659,20.98
20670,18.7
20682,16.95
20694,15.65
20706,14.39
20718,12.71
20730,10.44
20742,7.89
20754,5.82
20766,5.2
20778,6.87
20790,11.3
20802,18.46
20814,27.77
20826,38.14
20838,48.07
20849,55.88
20860,60.07
20872,59.8
20884,55.18
20896,47.27
20908,37.74
20920,28.17
20932,19.47
20944,11.62
20956,3.84
20968,-4.9
20980,-15.35
20992,-27.6
