seconds,BVP
0,17.15
11,15.07
22,12.7
34,10.35
46,8.24
58,6.35
70,4.55
82,2.66
94,0.59
106,-1.6
118,-3.74
130,-5.67
142,-7.32
154,-8.81
166,-10.38
178,-12.31
190,-14.86
201,-18.21
212,-22.47
224,-27.62
236,-33.52
248,-39.75
260,-45.57
272,-50.0
284,-52.06
296,-51.06
308,-46.93
320,-40.27
332,-32.18
344,-23.85
356,-16.2
368,-9.63
380,-4.08
391,0.7
402,4.92
414,8.56
426,11.47
438,13.52
450,14.72
462,15.28
474,15.52
486,15.69
498,15.94
510,16.28
522,16.64
534,16.97
546,17.31
558,17.67
570,18.11
581,18.6
592,19.05
604,19.33
616,19.31
628,18.84
640,17.9
652,16.51
664,14.76
676,12.83
688,10.88
700,9.0
712,7.19
724,5.35
736,3.3
748,0.95
760,-1.72
771,-4.62
782,-7.56
794,-10.35
806,-12.88
818,-15.17
830,-17.4
842,-19.83
854,-22.74
866,-26.34
878,-30.61
890,-35.3
902,-39.82
914,-43.4
926,-45.19
938,-44.51
950,-41.05
961,-34.99
972,-26.97
984,-17.89
996,-8.7
1008,-0.13
1020,7.38
1032,13.69
1044,18.82
1056,22.81
1068,25.66
1080,27.38
1092,28.05
1104,27.86
1116,27.1
1128,26.11
1140,25.14
1151,24.28
1162,23.49
1174,22.61
1186,21.58
1198,20.43
1210,19.31
1222,18.43
1234,17.87
1246,17.52
1258,17.09
1270,16.18
1282,14.53
1294,12.08
1306,9.04
1318,5.76
1330,2.57
1341,-0.4
1352,-3.19
1364,-6.02
1376,-9.08
1388,-12.47
1400,-16.09
1412,-19.77
1424,-23.26
1436,-26.39
1448,-29.07
1460,-31.34
1472,-33.32
1484,-35.27
1496,-37.5
1508,-40.36
1520,-44.03
1531,-48.43
1542,-52.99
1554,-56.82
1566,-58.86
1578,-58.25
1590,-54.61
1602,-48.21
1614,-39.81
1626,-30.46
1638,-21.15
1650,-12.58
1662,-5.09
1674,1.27
1686,6.59
1698,10.98
1710,14.46
1721,16.98
1732,18.53
1744,19.18
1756,19.18
1768,18.84
1780,18.51
1792,18.35
1804,18.4
1816,18.57
1828,18.74
1840,18.86
1852,18.93
1864,18.97
1876,18.91
1888,18.64
1900,18.01
1911,16.91
1922,15.35
1934,13.39
1946,11.12
1958,8.59
1970,5.86
1982,2.96
1994,-0.02
2006,-2.98
2018,-5.84
2030,-8.58
2042,-11.24
2054,-13.87
2066,-16.52
2078,-19.26
2090,-22.16
2101,-25.39
2112,-29.15
2124,-33.47
2136,-38.05
2148,-42.19
2160,-44.91
2172,-45.29
2184,-42.84
2196,-37.7
2208,-30.62
2220,-22.56
2232,-14.43
2244,-6.86
2256,-0.14
2268,5.61
2280,10.32
2291,13.92
2302,16.41
2314,17.89
2326,18.66
2338,19.03
2350,19.26
2362,19.51
2374,19.81
2386,20.12
2398,20.43
2410,20.76
2422,21.1
2434,21.44
2446,21.68
2458,21.68
2470,21.35
2481,20.65
2492,19.59
2504,18.25
2516,16.67
2528,14.86
2540,12.75
2552,10.27
2564,7.44
2576,4.29
2588,0.97
2600,-2.36
2612,-5.59
2624,-8.64
2636,-11.55
2648,-14.41
2660,-17.35
2671,-20.5
2682,-24.01
2694,-28.05
2706,-32.72
2718,-37.93
2730,-43.24
2742,-47.89
2754,-50.87
2766,-51.34
2778,-48.75
2790,-43.16
2802,-35.14
2814,-25.58
2826,-15.47
2838,-5.64
2850,3.38
2861,11.3
2872,18.05
2884,23.66
2896,28.16
2908,31.59
2920,33.97
2932,35.34
2944,35.8
2956,35.57
2968,34.95
2980,34.27
2992,33.8
3004,33.63
3016,33.75
3028,34.02
3040,34.26
3051,34.34
3062,34.17
3074,33.69
3086,32.88
3098,31.75
3110,30.3
3122,28.55
3134,26.53
3146,24.21
3158,21.57
3170,18.57
3182,15.22
3194,11.61
3206,7.88
3218,4.18
3230,0.61
3241,-2.84
3252,-6.3
3264,-9.93
3276,-13.98
3288,-18.62
3300,-23.99
3312,-30.1
3324,-36.71
3336,-43.21
3348,-48.73
3360,-52.25
3372,-52.91
3384,-50.32
3396,-44.73
3408,-36.94
3420,-28.03
3431,-19.06
3442,-10.69
3454,-3.23
3466,3.37
3478,9.2
3490,14.27
3502,18.43
3514,21.45
3526,23.17
3538,23.62
3550,23.11
3562,22.09
3574,21.05
3586,20.35
3598,20.18
3610,20.5
3621,21.17
3632,21.96
3644,22.66
3656,23.12
3668,23.21
3680,22.88
3692,22.09
3704,20.92
3716,19.5
3728,17.99
3740,16.51
3752,15.09
3764,13.58
3776,11.79
3788,9.48
3800,6.57
3811,3.13
3822,-0.62
3834,-4.4
3846,-8.02
3858,-11.39
3870,-14.63
3882,-17.99
3894,-21.76
3906,-26.23
3918,-31.51
3930,-37.45
3942,-43.52
3954,-48.85
3966,-52.4
3978,-53.26
3990,-50.91
4001,-45.37
4012,-37.22
4024,-27.35
4036,-16.75
4048,-6.33
4060,3.29
4072,11.72
4084,18.78
4096,24.41
4108,28.62
4120,31.47
4132,33.06
4144,33.57
4156,33.28
4168,32.55
4180,31.76
4191,31.21
4202,31.05
4214,31.28
4226,31.74
4238,32.26
4250,32.65
4262,32.79
4274,32.58
4286,31.92
4298,30.71
4310,28.9
4322,26.55
4334,23.78
4346,20.76
4358,17.62
4370,14.43
4381,11.21
4392,7.92
4404,4.57
4416,1.17
4428,-2.24
4440,-5.67
4452,-9.22
4464,-13.01
4476,-17.19
4488,-21.87
4500,-27.03
4512,-32.49
4524,-37.8
4536,-42.29
4548,-45.17
4560,-45.71
4571,-43.45
4582,-38.42
4594,-31.11
4606,-22.37
4618,-13.14
4630,-4.18
4642,4.08
4654,11.47
4666,17.97
4678,23.48
4690,27.82
4702,30.75
4714,32.16
4726,32.24
4738,31.41
4750,30.21
4761,29.11
4772,28.39
4784,28.07
4796,28.07
4808,28.24
4820,28.48
4832,28.71
4844,28.81
4856,28.62
4868,27.94
4880,26.65
4892,24.7
4904,22.21
4916,19.37
4928,16.42
4940,13.54
4951,10.77
4962,8.05
4974,5.19
4986,2.02
4998,-1.57
5010,-5.49
5022,-9.57
5034,-13.55
5046,-17.28
5058,-20.76
5070,-24.15
5082,-27.75
5094,-31.84
5106,-36.59
5118,-41.91
5130,-47.43
5141,-52.44
5152,-56.03
5164,-57.28
5176,-55.57
5188,-50.76
5200,-43.32
5212,-34.12
5224,-24.2
5236,-14.46
5248,-5.46
5260,2.59
5272,9.7
5284,15.87
5296,21.06
5308,25.13
5320,27.98
5331,29.64
5342,30.31
5354,30.34
5366,30.08
5378,29.76
5390,29.47
5402,29.16
5414,28.72
5426,28.15
5438,27.51
5450,26.95
5462,26.55
5474,26.28
5486,25.95
5498,25.26
5510,24.0
5521,22.09
5532,19.68
5544,17.04
5556,14.44
5568,12.05
5580,9.84
5592,7.63
5604,5.22
5616,2.43
5628,-0.77
5640,-4.29
5652,-7.9
5664,-11.36
5676,-14.48
5688,-17.2
5700,-19.64
5711,-22.07
5722,-24.84
5734,-28.32
5746,-32.65
5758,-37.64
5770,-42.7
5782,-46.86
5794,-49.1
5806,-48.58
5818,-44.98
5830,-38.59
5842,-30.22
5854,-20.91
5866,-11.61
5878,-2.97
5890,4.7
5901,11.34
5912,16.96
5924,21.55
5936,25.03
5948,27.32
5960,28.43
5972,28.5
5984,27.83
5996,26.78
6008,25.68
6020,24.84
6032,24.39
6044,24.35
6056,24.65
6068,25.12
6080,25.64
6091,26.12
6102,26.51
6114,26.73
6126,26.7
6138,26.21
6150,25.11
6162,23.29
6174,20.75
6186,17.66
6198,14.26
6210,10.82
6222,7.57
6234,4.6
6246,1.89
6258,-0.69
6270,-3.36
6281,-6.32
6292,-9.65
6304,-13.23
6316,-16.82
6328,-20.11
6340,-22.92
6352,-25.26
6364,-27.37
6376,-29.59
6388,-32.24
6400,-35.51
6412,-39.43
6424,-43.81
6436,-48.25
6448,-52.09
6460,-54.53
6471,-54.72
6482,-52.11
6494,-46.63
6506,-38.76
6518,-29.46
6530,-19.82
6542,-10.72
6554,-2.69
6566,4.17
6578,10.0
6590,14.97
6602,19.15
6614,22.45
6626,24.79
6638,26.15
6650,26.74
6661,26.9
6672,27.0
6684,27.34
6696,28.05
6708,29.12
6720,30.47
6732,32.05
6744,33.84
6756,35.88
6768,38.14
6780,40.5
6792,42.72
6804,44.5
6816,45.55
6828,45.73
6840,45.08
6851,43.85
6862,42.44
6874,41.29
6886,40.7
6898,40.71
6910,41.1
6922,41.45
6934,41.37
6946,40.62
6958,39.3
6970,37.79
6982,36.67
6994,36.47
7006,37.59
7018,40.14
7030,43.99
7041,48.82
7052,54.32
7064,60.27
7076,66.5
7088,72.82
7100,78.87
7112,84.15
7124,88.02
7136,89.8
7148,88.78
7160,84.27
7172,75.7
7184,62.91
7196,46.54
7208,28.36
7220,11.17
7231,-1.81
7242,-8.02
7254,-6.44
7266,1.82
7278,13.98
7290,26.66
7302,37.06
7314,43.89
7326,47.35
7338,48.65
7350,49.1
7362,49.47
7374,49.76
7386,49.41
7398,47.73
7410,44.13
7421,38.19
7432,29.62
7444,18.22
7456,4.0
7468,-12.67
7480,-30.88
7492,-49.35
7504,-66.66
7516,-81.68
7528,-93.83
7540,-103.23
7552,-110.48
7564,-116.37
7576,-121.51
7588,-126.08
7600,-129.83
7611,-132.27
7622,-132.95
7634,-131.77
7646,-129.16
7658,-125.96
7670,-123.23
7682,-121.74
7694,-121.68
7706,-122.57
7718,-123.34
7730,-122.73
7742,-119.72
7754,-113.83
7766,-105.25
7778,-94.75
7790,-83.38
7801,-72.11
7812,-61.63
7824,-52.22
7836,-43.86
7848,-36.41
7860,-29.71
7872,-23.65
7884,-18.19
7896,-13.34
7908,-9.15
7920,-5.68
7932,-3.05
7944,-1.34
7956,-0.55
7968,-0.57
7980,-1.22
7991,-2.24
8002,-3.42
8014,-4.54
8026,-5.48
8038,-6.07
8050,-6.22
8062,-5.87
8074,-5.08
8086,-4.06
8098,-3.06
8110,-2.32
8122,-1.93
8134,-1.82
8146,-1.82
8158,-1.82
8170,-1.8
8181,-1.97
8192,-2.6
8204,-3.9
8216,-5.97
8228,-8.63
8240,-11.62
8252,-14.59
8264,-17.23
8276,-19.34
8288,-20.83
8300,-21.73
8312,-22.19
8324,-22.5
8336,-23.04
8348,-24.15
8360,-26.01
8371,-28.42
8382,-30.79
8394,-32.28
8406,-32.03
8418,-29.51
8430,-24.71
8442,-18.15
8454,-10.63
8466,-2.96
8478,4.32
8490,10.95
8502,16.9
8514,22.19
8526,26.82
8538,30.7
8550,33.75
8561,35.9
8572,37.22
8584,37.79
8596,37.75
8608,37.23
8620,36.4
8632,35.44
8644,34.55
8656,33.9
8668,33.56
8680,33.48
8692,33.53
8704,33.51
8716,33.25
8728,32.58
8740,31.41
8751,29.69
8762,27.43
8774,24.71
8786,21.64
8798,18.4
8810,15.22
8822,12.31
8834,9.78
8846,7.61
8858,5.57
8870,3.4
8882,0.84
8894,-2.2
8906,-5.56
8918,-8.92
8930,-11.89
8941,-14.24
8952,-15.99
8964,-17.44
8976,-19.08
8988,-21.36
9000,-24.57
9012,-28.69
9024,-33.35
9036,-37.92
9048,-41.61
9060,-43.63
9072,-43.38
9084,-40.6
9096,-35.47
9108,-28.53
9120,-20.6
9131,-12.53
9142,-5.01
9154,1.52
9166,6.93
9178,11.26
9190,14.65
9202,17.24
9214,19.07
9226,20.17
9238,20.56
9250,20.36
9262,19.74
9274,18.92
9286,18.1
9298,17.41
9310,16.86
9321,16.4
9332,15.94
9344,15.47
9356,15.01
9368,14.58
9380,14.17
9392,13.65
9404,12.83
9416,11.52
9428,9.68
9440,7.39
9452,4.92
9464,2.54
9476,0.46
9488,-1.31
9500,-2.94
9511,-4.64
9522,-6.66
9534,-9.05
9546,-11.72
9558,-14.48
9570,-17.13
9582,-19.51
9594,-21.6
9606,-23.57
9618,-25.63
9630,-28.12
9642,-31.27
9654,-35.15
9666,-39.44
9678,-43.5
9690,-46.42
9701,-47.34
9712,-45.69
9724,-41.38
9736,-34.81
9748,-26.73
9760,-17.96
9772,-9.27
9784,-1.18
9796,5.97
9808,12.02
9820,16.92
9832,20.66
9844,23.27
9856,24.86
9868,25.55
9880,25.6
9891,25.27
9902,24.88
9914,24.63
9926,24.59
9938,24.69
9950,24.81
9962,24.89
9974,24.99
9986,25.23
9998,25.7
10010,26.3
10022,26.75
10034,26.7
10046,25.86
10058,24.19
10070,21.92
10081,19.4
10092,16.93
10104,14.7
10116,12.67
10128,10.65
10140,8.44
10152,5.88
10164,2.95
10176,-0.23
10188,-3.51
10200,-6.68
10212,-9.63
10224,-12.28
10236,-14.67
10248,-16.92
10260,-19.27
10271,-22.03
10282,-25.53
10294,-30.0
10306,-35.41
10318,-41.3
10330,-46.79
10342,-50.76
10354,-52.18
10366,-50.47
10378,-45.71
10390,-38.59
10402,-30.12
10414,-21.29
10426,-12.8
10438,-5.02
10450,1.93
10461,8.0
10472,13.15
10484,17.32
10496,20.56
10508,22.98
10520,24.8
10532,26.22
10544,27.34
10556,28.19
10568,28.76
10580,29.06
10592,29.14
10604,29.11
10616,29.06
10628,29.06
10640,29.15
10651,29.34
10662,29.58
10674,29.71
10686,29.47
10698,28.6
10710,26.99
10722,24.69
10734,21.99
10746,19.26
10758,16.78
10770,14.67
10782,12.82
10794,11.0
10806,8.96
10818,6.55
10830,3.72
10841,0.55
10852,-2.83
10864,-6.23
10876,-9.48
10888,-12.48
10900,-15.26
10912,-18.01
10924,-21.04
10936,-24.73
10948,-29.28
10960,-34.61
10972,-40.23
10984,-45.32
10996,-48.83
11008,-49.84
11020,-47.79
11031,-42.69
11042,-35.07
11054,-25.83
11066,-15.94
11078,-6.22
11090,2.8
11102,10.84
11114,17.78
11126,23.58
11138,28.2
11150,31.64
11162,33.97
11174,35.35
11186,36.03
11198,36.29
11210,36.38
11221,36.49
11232,36.67
11244,36.87
11256,36.97
11268,36.85
11280,36.5
11292,35.95
11304,35.29
11316,34.56
11328,33.68
11340,32.51
11352,30.9
11364,28.79
11376,26.27
11388,23.54
11400,20.8
11411,18.15
11422,15.51
11434,12.71
11446,9.53
11458,5.91
11470,1.92
11482,-2.24
11494,-6.31
11506,-10.14
11518,-13.71
11530,-17.09
11542,-20.46
11554,-24.04
11566,-28.07
11578,-32.69
11590,-37.87
11601,-43.27
11612,-48.22
11624,-51.82
11636,-53.21
11648,-51.83
11660,-47.6
11672,-40.93
11684,-32.6
11696,-23.53
11708,-14.53
11720,-6.22
11732,1.05
11744,7.07
11756,11.74
11768,15.07
11780,17.17
11791,18.26
11802,18.69
11814,18.81
11826,18.93
11838,19.21
11850,19.65
11862,20.11
11874,20.44
11886,20.61
11898,20.66
11910,20.74
11922,20.93
11934,21.17
11946,21.29
11958,21.04
11970,20.24
11981,18.86
11992,17.01
12004,14.86
12016,12.62
12028,10.33
12040,7.96
12052,5.36
12064,2.43
12076,-0.91
12088,-4.57
12100,-8.4
12112,-12.22
12124,-15.88
12136,-19.34
12148,-22.65
12160,-25.95
12171,-29.46
12182,-33.46
12194,-38.12
12206,-43.42
12218,-48.95
12230,-53.94
12242,-57.34
12254,-58.13
12266,-55.68
12278,-49.97
12290,-41.63
12302,-31.71
12314,-21.35
12326,-11.48
12338,-2.62
12350,5.05
12361,11.59
12372,17.08
12384,21.53
12396,24.9
12408,27.21
12420,28.56
12432,29.21
12444,29.51
12456,29.77
12468,30.16
12480,30.68
12492,31.24
12504,31.7
12516,32.03
12528,32.28
12540,32.55
12551,32.85
12562,33.1
12574,33.02
12586,32.35
12598,30.87
12610,28.56
12622,25.63
12634,22.44
12646,19.35
12658,16.55
12670,14.03
12682,11.55
12694,8.83
12706,5.66
12718,2.06
12730,-1.76
12741,-5.52
12752,-8.95
12764,-11.99
12776,-14.72
12788,-17.38
12800,-20.26
12812,-23.68
12824,-27.9
12836,-33.08
12848,-39.15
12860,-45.71
12872,-51.97
12884,-56.84
12896,-59.19
12908,-58.18
12920,-53.61
12931,-45.97
12942,-36.28
12954,-25.78
12966,-15.51
12978,-6.1
12990,2.24
13002,9.62
13014,16.18
13026,21.94
13038,26.79
13050,30.52
13062,33.03
13074,34.36
13086,34.79
13098,34.67
13110,34.39
13121,34.17
13132,34.09
13144,34.04
13156,33.92
13168,33.67
13180,33.4
13192,33.25
13204,33.3
13216,33.48
13228,33.51
13240,33.0
13252,31.64
13264,29.32
13276,26.19
13288,22.6
13300,18.96
13311,15.59
13322,12.65
13334,10.06
13346,7.67
13358,5.21
13370,2.46
13382,-0.72
13394,-4.29
13406,-8.07
13418,-11.83
13430,-15.35
13442,-18.55
13454,-21.57
13466,-24.75
13478,-28.45
13490,-32.96
13501,-38.31
13512,-44.22
13524,-50.1
13536,-55.1
13548,-58.3
13560,-58.89
13572,-56.43
13584,-50.91
13596,-42.85
13608,-33.09
13620,-22.64
13632,-12.33
13644,-2.7
13656,6.02
13668,13.78
13680,20.54
13691,26.16
13702,30.48
13714,33.36
13726,34.91
13738,35.47
13750,35.55
13762,35.63
13774,35.99
13786,36.67
13798,37.5
13810,38.24
13822,38.71
13834,38.89
13846,38.88
13858,38.78
13870,38.64
13881,38.35
13892,37.68
13904,36.38
13916,34.3
13928,31.47
13940,28.1
13952,24.52
13964,21.06
13976,17.94
13988,15.15
14000,12.52
14012,9.74
14024,6.59
14036,2.99
14048,-0.94
14060,-4.92
14071,-8.72
14082,-12.22
14094,-15.47
14106,-18.68
14118,-22.15
14130,-26.2
14142,-31.04
14154,-36.77
14166,-43.25
14178,-50.04
14190,-56.36
14202,-61.17
14214,-63.45
14226,-62.55
14238,-58.33
14250,-51.31
14261,-42.45
14272,-32.79
14284,-23.22
14296,-14.3
14308,-6.28
14320,0.75
14332,6.7
14344,11.51
14356,15.11
14368,17.51
14380,18.86
14392,19.43
14404,19.56
14416,19.52
14428,19.51
14440,19.59
14451,19.74
14462,19.92
14474,20.15
14486,20.52
14498,21.12
14510,21.96
14522,22.89
14534,23.62
14546,23.82
14558,23.23
14570,21.83
14582,19.8
14594,17.43
14606,15.02
14618,12.69
14630,10.44
14641,8.13
14652,5.6
14664,2.76
14676,-0.38
14688,-3.73
14700,-7.11
14712,-10.39
14724,-13.5
14736,-16.52
14748,-19.65
14760,-23.17
14772,-27.31
14784,-32.17
14796,-37.58
14808,-43.09
14820,-48.03
14831,-51.52
14842,-52.77
14854,-51.19
14866,-46.61
14878,-39.38
14890,-30.25
14902,-20.22
14914,-10.23
14926,-0.97
14938,7.22
14950,14.3
14962,20.38
14974,25.51
14986,29.65
14998,32.69
15010,34.6
15021,35.52
15032,35.77
15044,35.74
15056,35.76
15068,35.99
15080,36.37
15092,36.72
15104,36.88
15116,36.76
15128,36.42
15140,35.95
15152,35.43
15164,34.85
15176,34.12
15188,33.1
15200,31.73
15211,29.94
15222,27.77
15234,25.22
15246,22.36
15258,19.26
15270,16.09
15282,13.0
15294,10.11
15306,7.38
15318,4.66
15330,1.73
15342,-1.58
15354,-5.26
15366,-9.15
15378,-12.99
15390,-16.57
15401,-19.86
15412,-22.99
15424,-26.2
15436,-29.73
15448,-33.78
15460,-38.45
15472,-43.72
15484,-49.34
15496,-54.74
15508,-59.07
15520,-61.34
15532,-60.73
15544,-56.86
15556,-49.97
15568,-40.82
15580,-30.5
15591,-20.04
15602,-10.19
15614,-1.36
15626,6.36
15638,12.99
15650,18.56
15662,23.08
15674,26.57
15686,29.13
15698,30.92
15710,32.15
15722,33.03
15734,33.68
15746,34.12
15758,34.34
15770,34.32
15781,34.11
15792,33.76
15804,33.39
15816,33.06
15828,32.77
15840,32.47
15852,32.03
15864,31.31
15876,30.17
15888,28.56
15900,26.52
15912,24.13
15924,21.54
15936,18.86
15948,16.19
15960,13.59
15971,11.08
15982,8.67
15994,6.36
16006,4.11
16018,1.84
16030,-0.56
16042,-3.19
16054,-6.1
16066,-9.23
16078,-12.47
16090,-15.7
16102,-18.81
16114,-21.8
16126,-24.76
16138,-27.89
16150,-31.5
16161,-35.86
16172,-41.1
16184,-47.07
16196,-53.22
16208,-58.64
16220,-62.24
16232,-63.03
16244,-60.44
16256,-54.51
16268,-45.89
16280,-35.64
16292,-24.94
16304,-14.74
16316,-5.57
16328,2.43
16340,9.4
16351,15.53
16362,20.93
16374,25.53
16386,29.2
16398,31.89
16410,33.68
16422,34.82
16434,35.6
16446,36.31
16458,37.07
16470,37.84
16482,38.55
16494,39.14
16506,39.66
16518,40.15
16530,40.68
16541,41.18
16552,41.49
16564,41.4
16576,40.75
16588,39.46
16600,37.57
16612,35.21
16624,32.5
16636,29.61
16648,26.7
16660,23.92
16672,21.38
16684,19.05
16696,16.79
16708,14.39
16720,11.67
16731,8.57
16742,5.21
16754,1.8
16766,-1.43
16778,-4.33
16790,-6.92
16802,-9.32
16814,-11.73
16826,-14.42
16838,-17.65
16850,-21.64
16862,-26.51
16874,-32.09
16886,-37.92
16898,-43.21
16910,-47.03
16921,-48.49
16932,-47.09
16944,-42.86
16956,-36.35
16968,-28.45
16980,-20.15
16992,-12.22
17004,-5.16
17016,0.86
17028,5.85
17040,9.87
17052,12.91
17064,14.96
17076,16.03
17088,16.26
17100,15.92
17111,15.36
17122,14.89
17134,14.68
17146,14.71
17158,14.85
17170,14.95
17182,14.91
17194,14.78
17206,14.7
17218,14.8
17230,15.08
17242,15.37
17254,15.35
17266,14.71
17278,13.28
17290,11.12
17301,8.54
17312,5.92
17324,3.58
17336,1.65
17348,0.05
17360,-1.47
17372,-3.18
17384,-5.31
17396,-7.94
17408,-11.01
17420,-14.34
17432,-17.65
17444,-20.72
17456,-23.42
17468,-25.81
17480,-28.16
17491,-30.86
17502,-34.31
17514,-38.68
17526,-43.8
17538,-49.1
17550,-53.67
17562,-56.52
17574,-56.85
17586,-54.29
17598,-49.0
17610,-41.59
17622,-32.9
17634,-23.83
17646,-15.05
17658,-7.05
17670,-0.07
17681,5.82
17692,10.59
17704,14.23
17716,16.79
17728,18.34
17740,19.03
17752,19.12
17764,18.89
17776,18.64
17788,18.54
17800,18.6
17812,18.69
17824,18.63
17836,18.3
17848,17.73
17860,17.09
17871,16.57
17882,16.29
17894,16.16
17906,15.99
17918,15.51
17930,14.55
17942,13.04
17954,11.05
17966,8.73
17978,6.22
17990,3.63
18002,1.06
18014,-1.43
18026,-3.77
18038,-5.99
18050,-8.16
18061,-10.43
18072,-12.93
18084,-15.7
18096,-18.63
18108,-21.54
18120,-24.21
18132,-26.53
18144,-28.57
18156,-30.55
18168,-32.81
18180,-35.69
18192,-39.35
18204,-43.76
18216,-48.5
18228,-52.82
18240,-55.71
18251,-56.16
18262,-53.51
18274,-47.68
18286,-39.24
18298,-29.19
18310,-18.69
18322,-8.69
18334,0.24
18346,7.89
18358,14.27
18370,19.52
18382,23.76
18394,27.14
18406,29.8
18418,31.9
18430,33.59
18441,34.95
18452,36.03
18464,36.87
18476,37.45
18488,37.78
18500,37.85
18512,37.71
18524,37.43
18536,37.16
18548,37.01
18560,37.02
18572,37.08
18584,36.93
18596,36.25
18608,34.8
18620,32.54
18631,29.65
18642,26.41
18654,23.12
18666,19.95
18678,16.89
18690,13.84
18702,10.64
18714,7.2
18726,3.55
18738,-0.26
18750,-4.09
18762,-7.82
18774,-11.34
18786,-14.62
18798,-17.66
18810,-20.54
18821,-23.4
18832,-26.44
18844,-29.87
18856,-33.87
18868,-38.56
18880,-43.82
18892,-49.36
18904,-54.51
18916,-58.4
18928,-60.09
18940,-58.87
18952,-54.53
18964,-47.49
18976,-38.71
18988,-29.31
19000,-20.3
19011,-12.29
19022,-5.45
19034,0.34
19046,5.28
19058,9.48
19070,12.94
19082,15.61
19094,17.49
19106,18.64
19118,19.22
19130,19.39
19142,19.25
19154,18.92
19166,18.5
19178,18.11
19190,17.88
19201,17.93
19212,18.28
19224,18.87
19236,19.49
19248,19.91
19260,19.9
19272,19.32
19284,18.12
19296,16.42
19308,14.4
19320,12.23
19332,10.05
19344,7.92
19356,5.77
19368,3.5
19380,1.0
19391,-1.79
19402,-4.78
19414,-7.84
19426,-10.83
19438,-13.7
19450,-16.47
19462,-19.26
19474,-22.2
19486,-25.42
19498,-29.04
19510,-33.12
19522,-37.57
19534,-42.08
19546,-46.06
19558,-48.7
19570,-49.18
19581,-46.98
19592,-42.05
19604,-34.91
19616,-26.43
19628,-17.58
19640,-9.18
19652,-1.72
19664,4.54
19676,9.53
19688,13.27
19700,15.85
19712,17.45
19724,18.28
19736,18.59
19748,18.59
19760,18.38
19771,18.05
19782,17.69
19794,17.4
19806,17.33
19818,17.57
19830,18.09
19842,18.77
19854,19.39
19866,19.71
19878,19.55
19890,18.83
19902,17.55
19914,15.83
19926,13.82
19938,11.69
19950,9.55
19961,7.42
19972,5.22
19984,2.8
19996,0.05
20008,-3.05
20020,-6.39
20032,-9.76
20044,-12.93
20056,-15.78
20068,-18.32
20080,-20.72
20092,-23.34
20104,-26.57
20116,-30.75
20128,-35.97
20140,-41.95
20151,-47.92
20162,-52.83
20174,-55.52
20186,-55.14
20198,-51.4
20210,-44.64
20222,-35.78
20234,-25.91
20246,-16.08
20258,-7.01
20270,0.93
20282,7.66
20294,13.2
20306,17.62
20318,20.98
20330,23.3
20341,24.66
20352,25.18
20364,25.09
20376,24.65
20388,24.12
20400,23.7
20412,23.5
20424,23.51
20436,23.68
20448,23.94
20460,24.23
20472,24.52
20484,24.71
20496,24.64
20508,24.12
20520,22.93
20531,21.05
20542,18.58
20554,15.82
20566,13.11
20578,10.68
20590,8.54
20602,6.49
20614,4.22
20626,1.47
20638,-1.82
20650,-5.46
20662,-9.13
20674,-12.53
20686,-15.56
20698,-18.32
20710,-21.09
20721,-24.22
20732,-27.99
20744,-32.56
20756,-37.86
20768,-43.58
20780,-49.1
20792,-53.59
20804,-56.14
20816,-55.97
20828,-52.7
20840,-46.5
20852,-38.08
20864,-28.45
20876,-18.63
20888,-9.4
20900,-1.18
20911,5.95
20922,12.06
20934,17.27
20946,21.6
20958,25.03
20970,27.54
20982,29.19
20994,30.13
