seconds,BVP
0,-5.78
12,-3.56
24,-1.44
36,0.42
48,1.88
60,2.95
72,3.66
84,4.07
96,4.23
108,4.18
120,3.96
131,3.64
142,3.33
154,3.14
166,3.18
178,3.48
190,4.0
202,4.66
214,5.3
226,5.81
238,6.12
250,6.23
262,6.19
274,6.07
286,5.89
298,5.62
310,5.22
321,4.64
332,3.91
344,3.1
356,2.35
368,1.71
380,1.2
392,0.75
404,0.31
416,-0.15
428,-0.62
440,-1.04
452,-1.4
464,-1.69
476,-1.95
488,-2.2
500,-2.47
511,-2.76
522,-3.1
534,-3.55
546,-4.16
558,-4.97
570,-5.97
582,-7.09
594,-8.24
606,-9.33
618,-10.33
630,-11.19
642,-11.91
654,-12.41
666,-12.51
678,-12.04
690,-10.81
701,-8.8
712,-6.17
724,-3.23
736,-0.44
748,1.81
760,3.29
772,4.02
784,4.19
796,4.1
808,3.96
820,3.88
832,3.81
844,3.7
856,3.5
868,3.26
880,3.08
891,3.06
902,3.29
914,3.77
926,4.41
938,5.09
950,5.65
962,5.96
974,5.94
986,5.6
998,5.04
1010,4.45
1022,3.99
1034,3.74
1046,3.71
1058,3.77
1070,3.8
1081,3.67
1092,3.34
1104,2.87
1116,2.4
1128,2.02
1140,1.8
1152,1.68
1164,1.57
1176,1.36
1188,1.01
1200,0.57
1212,0.11
1224,-0.28
1236,-0.59
1248,-0.89
1260,-1.28
1271,-1.86
1282,-2.65
1294,-3.63
1306,-4.71
1318,-5.8
1330,-6.86
1342,-7.93
1354,-9.05
1366,-10.22
1378,-11.28
1390,-11.99
1402,-12.02
1414,-11.16
1426,-9.44
1438,-7.14
1450,-4.71
1461,-2.58
1472,-0.95
1484,0.19
1496,1.04
1508,1.76
1520,2.39
1532,2.86
1544,3.03
1556,2.89
1568,2.54
1580,2.19
1592,2.03
1604,2.18
1616,2.6
1628,3.2
1640,3.85
1651,4.43
1662,4.92
1674,5.31
1686,5.6
1698,5.81
1710,5.91
1722,5.89
1734,5.75
1746,5.51
1758,5.21
1770,4.9
1782,4.6
1794,4.33
1806,4.1
1818,3.89
1830,3.71
1841,3.55
1852,3.42
1864,3.33
1876,3.23
1888,3.05
1900,2.73
1912,2.18
1924,1.38
1936,0.33
1948,-0.85
1960,-2.04
1972,-3.09
1984,-3.9
1996,-4.41
2008,-4.64
2020,-4.67
2031,-4.66
2042,-4.78
2054,-5.21
2066,-6.09
2078,-7.43
2090,-9.09
2102,-10.82
2114,-12.27
2126,-13.13
2138,-13.21
2150,-12.44
2162,-10.9
2174,-8.8
2186,-6.35
2198,-3.81
2210,-1.4
2221,0.73
2232,2.44
2244,3.67
2256,4.36
2268,4.48
2280,4.08
2292,3.25
2304,2.21
2316,1.25
2328,0.64
2340,0.58
2352,1.12
2364,2.11
2376,3.3
2388,4.44
2400,5.34
2411,5.92
2422,6.23
2434,6.36
2446,6.38
2458,6.31
2470,6.14
2482,5.84
2494,5.43
2506,4.94
2518,4.4
2530,3.81
2542,3.16
2554,2.47
2566,1.8
2578,1.29
2590,1.03
2601,1.08
2612,1.36
2624,1.79
2636,2.22
2648,2.56
2660,2.78
2672,2.81
2684,2.58
2696,2.0
2708,1.06
2720,-0.17
2732,-1.49
2744,-2.67
2756,-3.49
2768,-3.88
2780,-3.93
2791,-3.83
2802,-3.81
2814,-4.06
2826,-4.67
2838,-5.62
2850,-6.81
2862,-8.09
2874,-9.28
2886,-10.16
2898,-10.53
2910,-10.24
2922,-9.24
2934,-7.62
2946,-5.58
2958,-3.38
2970,-1.32
2981,0.42
2992,1.74
3004,2.7
3016,3.35
3028,3.76
3040,3.96
3052,3.94
3064,3.68
3076,3.24
3088,2.71
3100,2.22
3112,1.86
3124,1.7
3136,1.76
3148,2.01
3160,2.42
3171,2.93
3182,3.47
3194,3.96
3206,4.32
3218,4.49
3230,4.49
3242,4.35
3254,4.13
3266,3.88
3278,3.6
3290,3.28
3302,2.89
3314,2.44
3326,1.97
3338,1.56
3350,1.27
3361,1.14
3372,1.16
3384,1.26
3396,1.32
3408,1.24
3420,0.95
3432,0.45
3444,-0.17
3456,-0.76
3468,-1.21
3480,-1.47
3492,-1.61
3504,-1.75
3516,-2.09
3528,-2.71
3540,-3.61
3551,-4.72
3562,-5.9
3574,-7.03
3586,-7.99
3598,-8.67
3610,-8.95
3622,-8.7
3634,-7.89
3646,-6.53
3658,-4.75
3670,-2.78
3682,-0.86
3694,0.83
3706,2.19
3718,3.21
3730,3.92
3741,4.33
3752,4.45
3764,4.26
3776,3.77
3788,3.1
3800,2.41
3812,1.9
3824,1.72
3836,1.89
3848,2.33
3860,2.92
3872,3.52
3884,4.09
3896,4.62
3908,5.1
3920,5.48
3931,5.71
3942,5.76
3954,5.6
3966,5.29
3978,4.86
3990,4.34
4002,3.77
4014,3.18
4026,2.64
4038,2.23
4050,2.02
4062,1.98
4074,1.99
4086,1.87
4098,1.48
4110,0.77
4121,-0.2
4132,-1.28
4144,-2.32
4156,-3.22
4168,-3.94
4180,-4.52
4192,-5.02
4204,-5.5
4216,-5.99
4228,-6.47
4240,-6.99
4252,-7.58
4264,-8.32
4276,-9.19
4288,-10.05
4300,-10.63
4311,-10.62
4322,-9.8
4334,-8.21
4346,-6.15
4358,-4.06
4370,-2.35
4382,-1.22
4394,-0.63
4406,-0.36
4418,-0.2
4430,-0.04
4442,0.13
4454,0.23
4466,0.26
4478,0.25
4490,0.33
4501,0.55
4512,0.93
4524,1.42
4536,1.93
4548,2.41
4560,2.84
4572,3.22
4584,3.56
4596,3.83
4608,4.03
4620,4.15
4632,4.2
4644,4.17
4656,4.08
4668,3.9
4680,3.64
4691,3.33
4702,3.0
4714,2.69
4726,2.42
4738,2.19
4750,1.99
4762,1.8
4774,1.61
4786,1.43
4798,1.27
4810,1.14
4822,1.01
4834,0.84
4846,0.59
4858,0.21
4870,-0.27
4881,-0.82
4892,-1.38
4904,-1.9
4916,-2.42
4928,-3.03
4940,-3.86
4952,-4.98
4964,-6.37
4976,-7.89
4988,-9.32
5000,-10.37
5012,-10.81
5024,-10.52
5036,-9.49
5048,-7.82
5060,-5.7
5071,-3.37
5082,-1.04
5094,1.05
5106,2.74
5118,3.94
5130,4.6
5142,4.78
5154,4.58
5166,4.12
5178,3.51
5190,2.9
5202,2.38
5214,2.09
5226,2.08
5238,2.38
5250,2.91
5261,3.54
5272,4.13
5284,4.6
5296,4.93
5308,5.19
5320,5.47
5332,5.81
5344,6.19
5356,6.53
5368,6.73
5380,6.72
5392,6.5
5404,6.14
5416,5.73
5428,5.37
5440,5.09
5451,4.84
5462,4.55
5474,4.14
5486,3.6
5498,2.97
5510,2.37
5522,1.88
5534,1.53
5546,1.26
5558,0.97
5570,0.54
5582,-0.1
5594,-0.96
5606,-1.97
5618,-3.04
5630,-4.09
5641,-5.01
5652,-5.77
5664,-6.41
5676,-7.06
5688,-7.81
5700,-8.74
5712,-9.77
5724,-10.67
5736,-11.21
5748,-11.16
5760,-10.46
5772,-9.22
5784,-7.61
5796,-5.85
5808,-4.09
5820,-2.42
5831,-0.94
5842,0.24
5854,1.02
5866,1.33
5878,1.25
5890,0.94
5902,0.68
5914,0.66
5926,0.98
5938,1.57
5950,2.26
5962,2.88
5974,3.37
5986,3.79
5998,4.28
6010,4.92
6021,5.72
6032,6.55
6044,7.26
6056,7.7
6068,7.81
6080,7.58
6092,7.09
6104,6.42
6116,5.68
6128,4.98
6140,4.39
6152,3.96
6164,3.7
6176,3.56
6188,3.49
6200,3.39
6211,3.18
6222,2.81
6234,2.26
6246,1.61
6258,0.92
6270,0.27
6282,-0.29
6294,-0.78
6306,-1.22
6318,-1.67
6330,-2.14
6342,-2.63
6354,-3.15
6366,-3.69
6378,-4.25
6390,-4.79
6401,-5.28
6412,-5.72
6424,-6.12
6436,-6.58
6448,-7.14
6460,-7.81
6472,-8.43
6484,-8.79
6496,-8.65
6508,-7.85
6520,-6.44
6532,-4.58
6544,-2.53
6556,-0.58
6568,1.05
6580,2.24
6591,2.94
6602,3.2
6614,3.09
6626,2.72
6638,2.23
6650,1.74
6662,1.4
6674,1.34
6686,1.64
6698,2.36
6710,3.4
6722,4.61
6734,5.76
6746,6.69
6758,7.3
6770,7.6
6781,7.66
6792,7.54
6804,7.28
6816,6.87
6828,6.33
6840,5.72
6852,5.12
6864,4.64
6876,4.32
6888,4.09
6900,3.78
6912,3.27
6924,2.51
6936,1.61
6948,0.79
6960,0.23
6971,0.03
6982,0.11
6994,0.28
7006,0.31
7018,0.1
7030,-0.38
7042,-1.03
7054,-1.75
7066,-2.45
7078,-3.13
7090,-3.78
7102,-4.4
7114,-4.94
7126,-5.39
7138,-5.75
7150,-6.11
7161,-6.57
7172,-7.22
7184,-8.03
7196,-8.91
7208,-9.68
7220,-10.17
7232,-10.25
7244,-9.89
7256,-9.09
7268,-7.91
7280,-6.45
7292,-4.77
7304,-3.0
7316,-1.27
7328,0.28
7340,1.53
7351,2.38
7362,2.81
7374,2.82
7386,2.53
7398,2.07
7410,1.63
7422,1.37
7434,1.38
7446,1.66
7458,2.13
7470,2.67
7482,3.19
7494,3.66
7506,4.08
7518,4.49
7530,4.9
7541,5.28
7552,5.57
7564,5.73
7576,5.76
7588,5.7
7600,5.6
7612,5.46
7624,5.25
7636,4.91
7648,4.38
7660,3.71
7672,2.98
7684,2.33
7696,1.91
7708,1.76
7720,1.83
7731,2.03
7742,2.22
7754,2.29
7766,2.17
7778,1.86
7790,1.41
7802,0.87
7814,0.31
7826,-0.24
7838,-0.77
7850,-1.25
7862,-1.68
7874,-2.05
7886,-2.36
7898,-2.62
7910,-2.84
7921,-3.09
7932,-3.47
7944,-4.08
7956,-5.04
7968,-6.35
7980,-7.93
7992,-9.52
8004,-10.81
8016,-11.48
8028,-11.32
8040,-10.31
8052,-8.64
8064,-6.6
8076,-4.52
8088,-2.63
8100,-1.09
8111,0.08
8122,0.9
8134,1.43
8146,1.73
8158,1.85
8170,1.87
8182,1.82
8194,1.78
8206,1.76
8218,1.78
8230,1.87
8242,2.08
8254,2.47
8266,3.08
8278,3.92
8290,4.9
8301,5.88
8312,6.66
8324,7.08
8336,7.1
8348,6.76
8360,6.22
8372,5.61
8384,5.04
8396,4.55
8408,4.12
8420,3.71
8432,3.33
8444,3.03
8456,2.85
8468,2.81
8480,2.82
8491,2.81
8502,2.64
8514,2.28
8526,1.74
8538,1.12
8550,0.52
8562,0.03
8574,-0.34
8586,-0.62
8598,-0.88
8610,-1.14
8622,-1.43
8634,-1.75
8646,-2.07
8658,-2.38
8670,-2.62
8681,-2.78
8692,-2.85
8704,-2.88
8716,-3.02
8728,-3.39
8740,-4.1
8752,-5.15
8764,-6.43
8776,-7.72
8788,-8.82
8800,-9.51
8812,-9.69
8824,-9.3
8836,-8.35
8848,-6.92
8860,-5.21
8871,-3.44
8882,-1.82
8894,-0.5
8906,0.49
8918,1.19
8930,1.66
8942,1.94
8954,2.02
8966,1.88
8978,1.55
8990,1.14
9002,0.81
9014,0.68
9026,0.85
9038,1.31
9050,2.04
9061,2.95
9072,3.95
9084,4.93
9096,5.82
9108,6.55
9120,7.06
9132,7.27
9144,7.1
9156,6.52
9168,5.56
9180,4.41
9192,3.3
9204,2.49
9216,2.13
9228,2.22
9240,2.59
9251,3.02
9262,3.29
9274,3.27
9286,2.96
9298,2.44
9310,1.84
9322,1.27
9334,0.83
9346,0.54
9358,0.37
9370,0.3
9382,0.28
9394,0.27
9406,0.24
9418,0.1
9430,-0.23
9441,-0.86
9452,-1.77
9464,-2.9
9476,-4.06
9488,-5.08
9500,-5.87
9512,-6.48
9524,-7.05
9536,-7.72
9548,-8.58
9560,-9.52
9572,-10.33
9584,-10.73
9596,-10.5
9608,-9.53
9620,-7.92
9631,-5.87
9642,-3.7
9654,-1.71
9666,-0.13
9678,0.94
9690,1.54
9702,1.76
9714,1.75
9726,1.64
9738,1.51
9750,1.44
9762,1.5
9774,1.74
9786,2.17
9798,2.73
9810,3.3
9821,3.75
9832,4.02
9844,4.12
9856,4.14
9868,4.21
9880,4.38
9892,4.66
9904,4.95
9916,5.18
9928,5.27
9940,5.22
9952,5.07
9964,4.86
9976,4.65
9988,4.51
10000,4.47
10011,4.55
10022,4.68
10034,4.76
10046,4.67
10058,4.32
10070,3.7
10082,2.92
10094,2.13
10106,1.49
10118,1.03
10130,0.69
10142,0.31
10154,-0.24
10166,-0.99
10178,-1.86
10190,-2.7
10201,-3.38
10212,-3.89
10224,-4.32
10236,-4.8
10248,-5.43
10260,-6.2
10272,-7.07
10284,-7.95
10296,-8.77
10308,-9.48
10320,-10.02
10332,-10.29
10344,-10.2
10356,-9.66
10368,-8.68
10380,-7.32
10391,-5.71
10402,-4.0
10414,-2.34
10426,-0.88
10438,0.3
10450,1.13
10462,1.6
10474,1.78
10486,1.76
10498,1.68
10510,1.65
10522,1.72
10534,1.93
10546,2.27
10558,2.72
10570,3.28
10581,3.93
10592,4.63
10604,5.3
10616,5.88
10628,6.32
10640,6.59
10652,6.73
10664,6.8
10676,6.81
10688,6.79
10700,6.7
10712,6.52
10724,6.29
10736,6.06
10748,5.88
10760,5.78
10771,5.73
10782,5.63
10794,5.39
10806,4.96
10818,4.31
10830,3.51
10842,2.66
10854,1.85
10866,1.19
10878,0.65
10890,0.18
10902,-0.33
10914,-0.93
10926,-1.6
10938,-2.28
10950,-2.86
10961,-3.29
10972,-3.59
10984,-3.88
10996,-4.25
11008,-4.74
11020,-5.32
11032,-5.99
11044,-6.7
11056,-7.51
11068,-8.46
11080,-9.48
11092,-10.39
11104,-10.93
11116,-10.84
11128,-10.02
11140,-8.56
11151,-6.71
11162,-4.77
11174,-2.97
11186,-1.43
11198,-0.19
11210,0.77
11222,1.46
11234,1.88
11246,2.01
11258,1.91
11270,1.63
11282,1.28
11294,0.96
11306,0.76
11318,0.77
11330,1.04
11341,1.58
11352,2.32
11364,3.14
11376,3.89
11388,4.44
11400,4.75
11412,4.8
11424,4.65
11436,4.36
11448,3.99
11460,3.6
11472,3.22
11484,2.87
11496,2.58
11508,2.36
11520,2.17
11531,1.98
11542,1.77
11554,1.51
11566,1.24
11578,0.99
11590,0.81
11602,0.73
11614,0.74
11626,0.81
11638,0.89
11650,0.9
11662,0.75
11674,0.41
11686,-0.12
11698,-0.78
11710,-1.49
11721,-2.16
11732,-2.74
11744,-3.2
11756,-3.58
11768,-3.95
11780,-4.36
11792,-4.87
11804,-5.53
11816,-6.38
11828,-7.41
11840,-8.57
11852,-9.71
11864,-10.62
11876,-11.04
11888,-10.76
11900,-9.7
11911,-7.99
11922,-5.96
11934,-3.98
11946,-2.36
11958,-1.24
11970,-0.59
11982,-0.25
11994,-0.09
12006,0.01
12018,0.05
12030,0.02
12042,-0.04
12054,-0.04
12066,0.13
12078,0.59
12090,1.32
12101,2.22
12112,3.13
12124,3.92
12136,4.52
12148,4.96
12160,5.33
12172,5.75
12184,6.3
12196,6.98
12208,7.7
12220,8.32
12232,8.64
12244,8.55
12256,8.04
12268,7.24
12280,6.4
12291,5.77
12302,5.53
12314,5.66
12326,6.01
12338,6.31
12350,6.33
12362,5.98
12374,5.35
12386,4.67
12398,4.17
12410,3.97
12422,4.02
12434,4.12
12446,4.05
12458,3.67
12470,2.98
12481,2.11
12492,1.24
12504,0.45
12516,-0.28
12528,-1.06
12540,-1.99
12552,-3.07
12564,-4.2
12576,-5.23
12588,-6.1
12600,-6.84
12612,-7.53
12624,-8.28
12636,-9.06
12648,-9.74
12660,-10.1
12671,-9.96
12682,-9.25
12694,-8.05
12706,-6.53
12718,-4.93
12730,-3.43
12742,-2.22
12754,-1.39
12766,-0.97
12778,-0.91
12790,-1.07
12802,-1.22
12814,-1.16
12826,-0.79
12838,-0.08
12850,0.82
12861,1.76
12872,2.51
12884,2.96
12896,3.05
12908,2.83
12920,2.47
12932,2.18
12944,2.16
12956,2.51
12968,3.16
12980,3.93
12992,4.54
13004,4.82
13016,4.71
13028,4.36
13040,3.97
13051,3.74
13062,3.74
13074,3.92
13086,4.13
13098,4.23
13110,4.15
13122,3.9
13134,3.6
13146,3.35
13158,3.22
13170,3.19
13182,3.21
13194,3.22
13206,3.16
13218,3.03
13230,2.81
13241,2.43
13252,1.8
13264,0.86
13276,-0.38
13288,-1.83
13300,-3.31
13312,-4.69
13324,-5.86
13336,-6.84
13348,-7.74
13360,-8.64
13372,-9.58
13384,-10.45
13396,-11.07
13408,-11.22
13420,-10.75
13431,-9.66
13442,-8.12
13454,-6.39
13466,-4.75
13478,-3.36
13490,-2.26
13502,-1.38
13514,-0.65
13526,-0.05
13538,0.39
13550,0.64
13562,0.71
13574,0.72
13586,0.8
13598,1.05
13610,1.45
13621,1.95
13632,2.44
13644,2.87
13656,3.3
13668,3.78
13680,4.37
13692,5.0
13704,5.59
13716,5.97
13728,6.06
13740,5.84
13752,5.39
13764,4.84
13776,4.33
13788,3.94
13800,3.73
13811,3.68
13822,3.72
13834,3.73
13846,3.65
13858,3.43
13870,3.11
13882,2.78
13894,2.52
13906,2.4
13918,2.39
13930,2.39
13942,2.23
13954,1.81
13966,1.09
13978,0.15
13990,-0.91
14001,-1.95
14012,-2.91
14024,-3.76
14036,-4.53
14048,-5.23
14060,-5.84
14072,-6.34
14084,-6.78
14096,-7.27
14108,-7.96
14120,-8.93
14132,-10.12
14144,-11.27
14156,-12.03
14168,-12.09
14180,-11.32
14191,-9.81
14202,-7.86
14214,-5.78
14226,-3.82
14238,-2.11
14250,-0.69
14262,0.47
14274,1.32
14286,1.83
14298,2.0
14310,1.93
14322,1.79
14334,1.76
14346,2.01
14358,2.56
14370,3.35
14381,4.24
14392,5.06
14404,5.72
14416,6.2
14428,6.58
14440,6.97
14452,7.42
14464,7.91
14476,8.33
14488,8.52
14500,8.36
14512,7.85
14524,7.05
14536,6.11
14548,5.18
14560,4.39
14571,3.84
14582,3.58
14594,3.6
14606,3.79
14618,4.0
14630,4.04
14642,3.78
14654,3.18
14666,2.36
14678,1.49
14690,0.76
14702,0.28
14714,0.05
14726,0.0
14738,0.0
14750,-0.06
14761,-0.28
14772,-0.71
14784,-1.36
14796,-2.2
14808,-3.16
14820,-4.18
14832,-5.19
14844,-6.18
14856,-7.22
14868,-8.39
14880,-9.77
14892,-11.38
14904,-13.13
14916,-14.83
14928,-16.25
14940,-17.13
14951,-17.27
14962,-16.6
14974,-15.19
14986,-13.24
14998,-11.03
15010,-8.87
15022,-7.01
15034,-5.57
15046,-4.52
15058,-3.73
15070,-3.04
15082,-2.34
15094,-1.65
15106,-1.08
15118,-0.7
15130,-0.52
15141,-0.45
15152,-0.35
15164,-0.13
15176,0.25
15188,0.75
15200,1.34
15212,2.02
15224,2.78
15236,3.64
15248,4.53
15260,5.29
15272,5.79
15284,5.96
15296,5.83
15308,5.62
15320,5.52
15331,5.69
15342,6.14
15354,6.72
15366,7.2
15378,7.39
15390,7.21
15402,6.7
15414,6.02
15426,5.33
15438,4.74
15450,4.29
15462,4.01
15474,3.88
15486,3.91
15498,4.07
15510,4.29
15521,4.44
15532,4.34
15544,3.83
15556,2.87
15568,1.54
15580,0.03
15592,-1.41
15604,-2.6
15616,-3.52
15628,-4.26
15640,-5.04
15652,-6.01
15664,-7.17
15676,-8.33
15688,-9.15
15700,-9.32
15711,-8.69
15722,-7.31
15734,-5.47
15746,-3.52
15758,-1.77
15770,-0.38
15782,0.65
15794,1.41
15806,1.96
15818,2.35
15830,2.54
15842,2.55
15854,2.43
15866,2.32
15878,2.33
15890,2.55
15901,2.99
15912,3.59
15924,4.31
15936,5.07
15948,5.87
15960,6.67
15972,7.44
15984,8.12
15996,8.64
16008,8.96
16020,9.06
16032,8.94
16044,8.63
16056,8.16
16068,7.6
16080,7.02
16091,6.48
16102,5.99
16114,5.52
16126,5.04
16138,4.54
16150,4.09
16162,3.73
16174,3.49
16186,3.29
16198,3.0
16210,2.51
16222,1.76
16234,0.86
16246,-0.02
16258,-0.73
16270,-1.18
16281,-1.4
16292,-1.56
16304,-1.79
16316,-2.2
16328,-2.81
16340,-3.55
16352,-4.35
16364,-5.16
16376,-5.99
16388,-6.89
16400,-7.95
16412,-9.16
16424,-10.42
16436,-11.5
16448,-12.17
16460,-12.2
16471,-11.51
16482,-10.2
16494,-8.46
16506,-6.52
16518,-4.54
16530,-2.63
16542,-0.84
16554,0.8
16566,2.2
16578,3.23
16590,3.82
16602,3.96
16614,3.73
16626,3.32
16638,2.89
16650,2.57
16661,2.41
16672,2.39
16684,2.47
16696,2.65
16708,2.93
16720,3.36
16732,3.96
16744,4.73
16756,5.61
16768,6.45
16780,7.1
16792,7.39
16804,7.3
16816,6.89
16828,6.34
16840,5.84
16851,5.55
16862,5.49
16874,5.57
16886,5.64
16898,5.54
16910,5.22
16922,4.73
16934,4.18
16946,3.69
16958,3.34
16970,3.13
16982,3.01
16994,2.92
17006,2.78
17018,2.54
17030,2.14
17041,1.57
17052,0.81
17064,-0.06
17076,-0.94
17088,-1.73
17100,-2.38
17112,-2.92
17124,-3.49
17136,-4.22
17148,-5.23
17160,-6.58
17172,-8.23
17184,-10.11
17196,-12.06
17208,-13.91
17220,-15.4
17231,-16.29
17242,-16.39
17254,-15.62
17266,-14.04
17278,-11.83
17290,-9.22
17302,-6.45
17314,-3.76
17326,-1.32
17338,0.76
17350,2.44
17362,3.72
17374,4.68
17386,5.35
17398,5.72
17410,5.72
17421,5.31
17432,4.6
17444,3.81
17456,3.26
17468,3.2
17480,3.71
17492,4.61
17504,5.63
17516,6.49
17528,7.07
17540,7.4
17552,7.57
17564,7.69
17576,7.74
17588,7.65
17600,7.34
17611,6.82
17622,6.19
17634,5.59
17646,5.15
17658,4.92
17670,4.84
17682,4.83
17694,4.79
17706,4.71
17718,4.55
17730,4.31
17742,3.95
17754,3.45
17766,2.81
17778,2.09
17790,1.39
17801,0.79
17812,0.33
17824,-0.06
17836,-0.47
17848,-1.0
17860,-1.7
17872,-2.53
17884,-3.4
17896,-4.23
17908,-4.96
17920,-5.57
17932,-6.1
17944,-6.64
17956,-7.32
17968,-8.33
17980,-9.77
17991,-11.64
18002,-13.68
18014,-15.47
18026,-16.52
18038,-16.45
18050,-15.19
18062,-12.94
18074,-10.11
18086,-7.13
18098,-4.28
18110,-1.72
18122,0.52
18134,2.38
18146,3.77
18158,4.6
18170,4.83
18181,4.56
18192,3.96
18204,3.26
18216,2.61
18228,2.13
18240,1.88
18252,1.91
18264,2.25
18276,2.91
18288,3.82
18300,4.82
18312,5.74
18324,6.43
18336,6.86
18348,7.03
18360,7.06
18371,7.04
18382,7.03
18394,7.04
18406,7.02
18418,6.9
18430,6.62
18442,6.18
18454,5.61
18466,4.98
18478,4.34
18490,3.71
18502,3.08
18514,2.42
18526,1.73
18538,1.07
18550,0.52
18561,0.13
18572,-0.06
18584,-0.14
18596,-0.21
18608,-0.35
18620,-0.64
18632,-1.1
18644,-1.71
18656,-2.44
18668,-3.28
18680,-4.23
18692,-5.29
18704,-6.45
18716,-7.71
18728,-9.02
18740,-10.29
18751,-11.37
18762,-12.06
18774,-12.17
18786,-11.59
18798,-10.34
18810,-8.54
18822,-6.45
18834,-4.31
18846,-2.33
18858,-0.62
18870,0.78
18882,1.84
18894,2.56
18906,2.95
18918,3.0
18930,2.77
18941,2.34
18952,1.83
18964,1.42
18976,1.24
18988,1.45
19000,2.06
19012,3.02
19024,4.2
19036,5.41
19048,6.53
19060,7.47
19072,8.22
19084,8.78
19096,9.13
19108,9.24
19120,9.08
19131,8.66
19142,8.04
19154,7.36
19166,6.77
19178,6.39
19190,6.24
19202,6.21
19214,6.13
19226,5.84
19238,5.23
19250,4.32
19262,3.24
19274,2.17
19286,1.27
19298,0.59
19310,0.1
19321,-0.32
19332,-0.74
19344,-1.22
19356,-1.76
19368,-2.36
19380,-3.05
19392,-3.83
19404,-4.73
19416,-5.73
19428,-6.8
19440,-7.89
19452,-8.96
19464,-9.99
19476,-10.98
19488,-11.95
19500,-12.84
19511,-13.57
19522,-13.98
19534,-13.91
19546,-13.19
19558,-11.81
19570,-9.83
19582,-7.46
19594,-4.99
19606,-2.64
19618,-0.58
19630,1.14
19642,2.51
19654,3.55
19666,4.26
19678,4.66
19690,4.8
19701,4.75
19712,4.61
19724,4.41
19736,4.19
19748,3.94
19760,3.65
19772,3.41
19784,3.35
19796,3.6
19808,4.25
19820,5.21
19832,6.28
19844,7.19
19856,7.67
19868,7.67
19880,7.26
19891,6.61
19902,5.95
19914,5.4
19926,4.99
19938,4.69
19950,4.45
19962,4.21
19974,3.93
19986,3.56
19998,3.04
20010,2.37
20022,1.58
20034,0.79
20046,0.15
20058,-0.24
20070,-0.35
20081,-0.27
20092,-0.12
20104,-0.06
20116,-0.23
20128,-0.67
20140,-1.4
20152,-2.33
20164,-3.33
20176,-4.28
20188,-5.04
20200,-5.58
20212,-5.95
20224,-6.25
20236,-6.67
20248,-7.42
20260,-8.59
20271,-10.16
20282,-11.92
20294,-13.52
20306,-14.61
20318,-14.97
20330,-14.54
20342,-13.45
20354,-11.92
20366,-10.19
20378,-8.41
20390,-6.64
20402,-4.94
20414,-3.35
20426,-1.94
20438,-0.76
20450,0.18
20461,0.93
20472,1.57
20484,2.13
20496,2.61
20508,2.98
20520,3.22
20532,3.36
20544,3.52
20556,3.83
20568,4.37
20580,5.12
20592,5.96
20604,6.72
20616,7.31
20628,7.7
20640,7.97
20651,8.22
20662,8.47
20674,8.66
20686,8.72
20698,8.6
20710,8.31
20722,7.94
20734,7.56
20746,7.22
20758,6.87
20770,6.46
20782,5.99
20794,5.46
20806,4.94
20818,4.45
20830,3.97
20841,3.47
20852,2.89
20864,2.24
20876,1.53
20888,0.77
20900,-0.05
20912,-0.96
20924,-1.98
20936,-3.1
20948,-4.22
20960,-5.24
20972,-6.11
20984,-6.86
20996,-7.62
