seconds,BVP
1,121.04
13,120.78
25,114.68
37,102.19
48,84.69
59,64.52
71,44.38
83,26.82
95,14.07
107,7.99
119,9.48
131,17.95
143,30.84
155,43.84
167,52.08
179,52.11
191,43.32
203,28.65
215,13.79
227,5.46
238,9.12
249,27.44
261,59.41
273,100.96
285,146.43
297,190.04
309,227.2
321,255.0
333,272.34
345,279.58
357,278.42
369,271.53
381,262.21
393,253.54
405,247.38
417,243.68
428,240.56
439,235.19
451,225.13
463,209.71
475,190.14
487,168.92
499,148.65
511,130.84
523,115.61
535,101.98
547,88.52
559,74.05
571,57.96
583,40.06
595,20.35
607,-1.11
618,-24.41
629,-49.49
641,-76.3
653,-104.8
665,-134.92
677,-166.62
689,-199.19
701,-230.89
713,-258.59
725,-278.6
737,-287.73
749,-284.65
761,-270.59
773,-248.78
785,-223.35
797,-198.26
808,-176.81
819,-161.18
831,-152.19
843,-148.62
855,-147.03
867,-142.68
879,-131.57
891,-113.04
903,-90.93
915,-72.69
927,-66.53
939,-77.78
951,-106.73
963,-148.89
975,-197.18
987,-244.03
998,-282.73
1009,-307.41
1021,-313.23
1033,-297.41
1045,-261.31
1057,-212.03
1069,-161.54
1081,-123.13
1093,-106.31
1105,-113.32
1117,-139.01
1129,-173.88
1141,-208.66
1153,-237.4
1165,-257.72
1177,-269.22
1188,-271.43
1199,-263.14
1211,-243.9
1223,-216.01
1235,-185.75
1247,-161.64
1259,-151.09
1271,-156.93
1283,-175.73
1295,-199.04
1307,-216.95
1319,-221.98
1331,-211.41
1343,-187.39
1355,-155.3
1367,-121.38
1378,-90.73
1389,-66.29
1401,-48.79
1413,-37.43
1425,-30.59
1437,-26.4
1449,-23.3
1461,-20.56
1473,-18.66
1485,-19.04
1497,-23.28
1509,-32.13
1521,-44.72
1533,-58.62
1545,-70.38
1557,-76.67
1568,-75.45
1579,-66.8
1591,-53.44
1603,-40.07
1615,-32.17
1627,-33.69
1639,-45.35
1651,-64.31
1663,-85.76
1675,-105.07
1687,-119.66
1699,-129.47
1711,-135.6
1723,-138.73
1735,-138.09
1747,-132.15
1758,-120.11
1769,-103.2
1781,-84.44
1793,-66.89
1805,-51.8
1817,-37.63
1829,-21.11
1841,0.5
1853,27.19
1865,55.43
1877,79.3
1889,92.82
1901,92.28
1913,77.83
1925,53.36
1937,25.26
1948,0.24
1959,-16.68
1971,-23.74
1983,-22.39
1995,-16.6
2007,-11.05
2019,-9.04
2031,-11.07
2043,-15.07
2055,-17.67
2067,-16.42
2079,-11.36
2091,-4.95
2103,-0.77
2115,-1.26
2127,-6.35
2138,-13.34
2149,-18.57
2161,-19.22
2173,-14.68
2185,-6.54
2197,2.59
2209,10.24
2221,15.14
2233,17.07
2245,16.39
2257,13.58
2269,9.52
2281,5.62
2293,3.67
2305,5.4
2317,11.49
2328,21.19
2339,32.62
2351,43.45
2363,51.78
2375,56.59
2387,57.63
2399,55.1
2411,49.85
2423,43.49
2435,38.66
2447,38.69
2459,46.45
2471,63.26
2483,87.96
2495,117.27
2507,146.87
2518,173.02
2529,193.3
2541,206.87
2553,213.96
2565,215.42
2577,212.59
2589,207.1
2601,200.44
2613,193.39
2625,185.58
2637,175.65
2649,162.31
2661,145.62
2673,127.7
2685,112.24
2697,102.89
2708,101.28
2719,106.15
2731,113.73
2743,119.61
2755,120.71
2767,116.5
2779,108.67
2791,99.76
2803,91.73
2815,85.05
2827,79.1
2839,72.92
2851,66.26
2863,59.72
2875,54.44
2887,51.46
2898,50.94
2909,52.13
2921,53.54
2933,53.59
2945,51.26
2957,46.28
2969,39.09
2981,30.53
2993,21.7
3005,13.5
3017,6.66
3029,1.58
3041,-1.71
3053,-3.42
3065,-4.03
3077,-4.13
3088,-4.36
3099,-5.13
3111,-6.7
3123,-9.08
3135,-12.15
3147,-15.5
3159,-18.52
3171,-20.31
3183,-19.82
3195,-16.26
3207,-9.36
3219,0.16
3231,10.92
3243,21.11
3255,29.16
3267,34.16
3278,36.11
3289,35.79
3301,34.33
3313,32.77
3325,31.55
3337,30.55
3349,29.38
3361,27.6
3373,25.15
3385,22.48
3397,20.34
3409,19.47
3421,20.2
3433,22.31
3445,25.05
3457,27.56
3468,29.11
3479,29.37
3491,28.39
3503,26.51
3515,24.07
3527,21.33
3539,18.45
3551,15.59
3563,12.85
3575,10.26
3587,7.87
3599,5.69
3611,3.76
3623,2.0
3635,0.44
3647,-0.93
3658,-2.06
3669,-2.92
3681,-3.64
3693,-4.34
3705,-5.17
3717,-6.3
3729,-7.79
3741,-9.54
3753,-10.94
3765,-11.42
3777,-10.78
3789,-9.3
3801,-7.69
3813,-6.72
3825,-7.17
3837,-9.36
3848,-13.05
3859,-17.15
3871,-20.23
3883,-21.0
3895,-18.64
3907,-13.05
3919,-4.79
3931,4.95
3943,14.75
3955,23.35
3967,30.53
3979,36.52
3991,41.59
4003,45.88
4015,49.41
4027,52.23
4038,54.14
4049,55.17
4061,55.42
4073,57.11
4085,61.98
4097,70.55
4109,82.01
4121,94.98
4133,108.16
4145,119.93
4157,129.33
4169,135.48
4181,141.78
4193,150.8
4205,163.15
4217,177.56
4228,192.66
4239,207.85
4251,221.98
4263,234.2
4275,242.22
4287,249.5
4299,258.04
4311,267.91
4323,278.4
4335,290.93
4347,309.98
4359,339.77
4371,384.02
4383,441.4
4395,513.25
4407,593.52
4418,668.94
4429,723.0
4441,743.79
4453,728.98
4465,683.88
4477,621.38
4489,502.75
4501,318.14
4513,89.45
4525,-139.02
4537,-329.53
4549,-467.51
4561,-548.94
4573,-595.49
4585,-622.2
4597,-637.63
4608,-637.71
4619,-619.73
4631,-585.25
4643,-541.63
4655,-498.24
4667,-462.27
4679,-438.67
4691,-426.74
4703,-423.95
4715,-420.74
4727,-410.39
4739,-391.53
4751,-367.73
4763,-343.42
4775,-320.62
4787,-299.91
4798,-278.78
4809,-255.51
4821,-225.52
4833,-186.61
4845,-139.64
4857,-88.09
4869,-35.88
4881,13.86
4893,57.9
4905,94.41
4917,121.35
4929,139.05
4941,148.33
4953,150.23
4965,146.01
4977,137.65
4988,127.95
4999,119.64
5011,115.23
5023,115.79
5035,121.27
5047,129.9
5059,138.72
5071,144.42
5083,144.5
5095,138.33
5107,127.07
5119,113.42
5131,100.46
5143,90.45
5155,84.0
5167,79.82
5178,75.44
5189,68.12
5201,56.21
5213,39.66
5225,19.89
5237,-1.11
5249,-21.63
5261,-41.07
5273,-60.03
5285,-79.71
5297,-101.6
5309,-126.57
5321,-154.64
5333,-184.66
5345,-214.18
5357,-239.66
5368,-257.22
5379,-263.7
5391,-257.76
5403,-240.59
5415,-215.55
5427,-187.28
5439,-160.24
5451,-137.59
5463,-120.47
5475,-108.34
5487,-99.63
5499,-92.54
5511,-85.72
5523,-78.49
5535,-70.78
5547,-62.96
5558,-55.66
5569,-49.69
5581,-46.03
5593,-45.87
5605,-50.21
5617,-59.49
5629,-73.01
5641,-88.72
5653,-103.58
5665,-114.25
5677,-117.54
5689,-110.62
5701,-91.76
5713,-60.69
5725,-18.73
5737,30.84
5748,83.35
5759,133.44
5771,175.82
5783,206.46
5795,223.65
5807,227.83
5819,220.98
5831,205.82
5843,184.66
5855,158.86
5867,128.59
5879,92.14
5891,47.17
5903,-8.4
5915,-75.73
5927,-153.84
5938,-238.45
5949,-321.89
5961,-393.6
5973,-442.51
5985,-462.03
5997,-450.22
6009,-409.89
6021,-347.89
6033,-273.21
6045,-193.81
6057,-115.79
6069,-42.05
6081,26.52
6093,85.51
6105,131.06
6117,161.29
6128,175.95
6139,175.45
6151,161.33
6163,134.46
6175,97.13
6187,52.48
6199,-2.27
6211,-68.21
6223,-142.39
6235,-218.94
6247,-291.92
6259,-355.28
6271,-406.64
6283,-444.68
6295,-469.67
6307,-490.76
6318,-514.24
6329,-538.48
6341,-555.55
6353,-556.84
6365,-535.94
6377,-495.25
6389,-441.8
6401,-339.8
6413,-186.82
6425,-13.19
6437,138.67
6449,243.06
6461,286.49
6473,290.27
6485,271.22
6497,240.56
6508,204.9
6519,167.28
6531,129.3
6543,95.77
6555,72.9
6567,64.16
6579,70.84
6591,88.71
6603,113.6
6615,142.81
6627,169.24
6639,188.83
6651,202.97
6663,215.91
6675,230.63
6687,248.66
6698,267.23
6709,283.81
6721,297.11
6733,303.32
6745,300.39
6757,289.74
6769,274.69
6781,258.15
6793,242.48
6805,227.62
6817,213.54
6829,200.5
6841,187.07
6853,172.12
6865,155.98
6877,139.84
6888,124.87
6899,112.2
6911,101.71
6923,93.01
6935,85.47
6947,77.47
6959,67.5
6971,55.07
6983,40.73
6995,25.87
7007,12.29
7019,1.34
7031,-6.14
7043,-10.2
7055,-11.88
7067,-12.82
7078,-14.69
7089,-18.47
7101,-24.12
7113,-30.73
7125,-37.0
7137,-41.75
7149,-44.49
7161,-45.54
7173,-45.74
7185,-46.09
7197,-47.33
7209,-49.85
7221,-53.51
7233,-57.78
7245,-61.71
7257,-64.3
7268,-64.75
7279,-62.83
7291,-59.04
7303,-54.5
7315,-50.55
7327,-48.16
7339,-47.39
7351,-47.31
7363,-46.45
7375,-43.34
7387,-37.34
7399,-28.88
7411,-19.34
7423,-10.51
7435,-3.93
7447,-0.32
7458,0.57
7469,-0.22
7481,-1.21
7493,-0.99
7505,1.27
7517,5.62
7529,11.27
7541,16.97
7553,21.53
7565,24.29
7577,25.4
7589,25.74
7601,26.44
7613,28.2
7625,31.1
7637,34.48
7648,37.49
7659,39.47
7671,40.25
7683,40.07
7695,39.25
7707,37.87
7719,35.5
7731,31.74
7743,26.32
7755,19.59
7767,12.48
7779,6.04
7791,0.92
7803,-3.16
7815,-7.15
7827,-12.41
7838,-19.7
7849,-28.88
7861,-38.69
7873,-47.14
7885,-52.23
7897,-52.5
7909,-47.56
7921,-37.94
7933,-25.05
7945,-10.67
7957,3.27
7969,15.17
7981,24.04
7993,29.7
8005,32.81
8017,34.33
8028,35.39
8039,36.82
8051,38.9
8063,41.49
8075,44.18
8087,46.56
8099,48.16
8111,48.73
8123,48.19
8135,46.79
8147,45.14
8159,44.01
8171,44.1
8183,45.57
8195,48.13
8207,50.87
8218,52.87
8229,53.39
8241,52.44
8253,50.62
8265,48.87
8277,48.12
8289,48.87
8301,51.19
8313,54.75
8325,59.21
8337,64.25
8349,69.9
8361,76.46
8373,84.29
8385,93.83
8397,105.02
8408,117.32
8419,129.69
8431,140.82
8443,149.62
8455,155.57
8467,158.93
8479,160.53
8491,161.6
8503,162.9
8515,164.12
8527,163.51
8539,157.81
8551,143.27
8563,116.97
8575,78.68
8587,31.56
8598,-17.96
8609,-62.59
8621,-96.91
8633,-119.68
8645,-133.91
8657,-144.54
8669,-155.21
8681,-165.81
8693,-172.86
8705,-171.77
8717,-160.14
8729,-139.38
8741,-114.12
8753,-90.1
8765,-71.79
8777,-61.45
8788,-59.63
8799,-66.16
8811,-80.78
8823,-102.68
8835,-129.57
8847,-157.1
8859,-179.79
8871,-192.53
8883,-192.37
8895,-179.52
8907,-156.98
8919,-129.23
8931,-100.62
8943,-73.98
8955,-49.96
8967,-27.67
8978,-5.64
8989,16.47
9001,37.29
9013,53.96
9025,63.43
9037,64.05
9049,56.54
9061,43.92
9073,30.36
9085,19.96
9097,15.36
9109,17.52
9121,25.76
9133,38.26
9145,52.47
9157,65.53
9168,74.8
9179,78.45
9191,76.33
9203,70.23
9215,63.62
9227,60.45
9239,63.44
9251,72.46
9263,84.11
9275,92.68
9287,92.31
9299,79.57
9311,54.98
9323,22.89
9335,-10.52
9347,-39.9
9358,-62.7
9369,-79.49
9381,-92.79
9393,-105.03
9405,-117.05
9417,-127.6
9429,-134.23
9441,-134.52
9453,-127.33
9465,-113.09
9477,-93.48
9489,-70.71
9501,-47.3
9513,-25.75
9525,-8.59
9537,1.76
9548,3.57
9559,-3.76
9571,-19.15
9583,-39.92
9595,-62.45
9607,-83.2
9619,-99.76
9631,-111.32
9643,-118.48
9655,-122.4
9667,-124.21
9679,-124.42
9691,-123.0
9703,-119.75
9715,-114.34
9727,-106.54
9738,-96.13
9749,-82.94
9761,-67.14
9773,-49.65
9785,-32.35
9797,-17.77
9809,-8.49
9821,-6.12
9833,-10.77
9845,-21.01
9857,-34.34
9869,-47.93
9881,-59.29
9893,-66.67
9905,-69.18
9917,-66.89
9928,-60.44
9939,-50.94
9951,-39.43
9963,-26.57
9975,-12.55
9987,2.87
9999,19.77
10011,37.59
10023,54.82
10035,69.58
10047,80.21
10059,86.11
10071,88.05
10083,87.53
10095,86.24
10107,85.0
10118,83.62
10129,81.06
10141,76.3
10153,68.88
10165,59.3
10177,48.88
10189,39.08
10201,31.12
10213,25.64
10225,22.72
10237,22.1
10249,23.47
10261,26.52
10273,30.97
10285,36.59
10297,42.91
10308,49.52
10319,55.94
10331,61.81
10343,66.98
10355,71.34
10367,74.79
10379,77.21
10391,78.54
10403,78.77
10415,77.99
10427,76.36
10439,73.99
10451,70.94
10463,67.19
10475,62.76
10487,57.8
10498,52.69
10509,47.81
10521,43.34
10533,39.1
10545,34.57
10557,29.15
10569,22.45
10581,14.43
10593,5.47
10605,-3.76
10617,-12.59
10629,-20.53
10641,-27.31
10653,-32.92
10665,-37.34
10677,-40.58
10688,-42.57
10699,-43.35
10711,-43.11
10723,-42.24
10735,-41.21
10747,-40.39
10759,-39.84
10771,-39.26
10783,-38.07
10795,-35.65
10807,-31.64
10819,-26.02
10831,-19.1
10843,-11.36
10855,-3.27
10867,4.71
10878,12.01
10889,17.87
10901,21.35
10913,21.45
10925,17.47
10937,9.33
10949,-2.26
10961,-15.9
10973,-29.87
10985,-42.57
10997,-52.74
11009,-59.53
11021,-62.33
11033,-60.65
11045,-53.97
11057,-42.06
11068,-25.28
11079,-4.91
11091,16.87
11103,37.44
11115,54.34
11127,65.95
11139,71.81
11151,72.46
11163,69.02
11175,62.62
11187,54.15
11199,44.24
11211,33.48
11223,22.55
11235,12.17
11247,2.97
11258,-4.73
11269,-10.92
11281,-15.89
11293,-19.97
11305,-23.33
11317,-26.02
11329,-28.04
11341,-29.46
11353,-30.55
11365,-31.7
11377,-33.21
11389,-35.17
11401,-37.29
11413,-38.92
11425,-39.26
11437,-37.47
11448,-32.94
11459,-25.58
11471,-15.81
11483,-4.55
11495,6.91
11507,17.3
11519,25.68
11531,31.65
11543,35.34
11555,37.23
11567,37.84
11579,37.49
11591,36.33
11603,34.48
11615,32.07
11627,29.48
11638,27.04
11649,25.02
11661,23.38
11673,21.83
11685,20.06
11697,17.91
11709,15.5
11721,13.1
11733,10.99
11745,9.23
11757,7.57
11769,5.59
11781,2.81
11793,-0.97
11805,-5.68
11817,-10.99
11828,-16.51
11839,-21.83
11851,-26.65
11863,-30.75
11875,-33.82
11887,-35.55
11899,-35.55
11911,-33.52
11923,-29.32
11935,-23.13
11947,-15.32
11959,-6.46
11971,2.8
11983,11.84
11995,20.03
12007,26.8
12018,31.65
12029,34.34
12041,34.95
12053,34.01
12065,32.31
12077,30.73
12089,30.01
12101,30.45
12113,31.93
12125,34.04
12137,36.36
12149,38.62
12161,40.78
12173,42.88
12185,44.9
12197,46.65
12208,47.76
12219,47.88
12231,46.88
12243,44.93
12255,42.42
12267,39.68
12279,36.87
12291,33.86
12303,30.36
12315,26.04
12327,20.74
12339,14.47
12351,7.42
12363,-0.26
12375,-8.5
12387,-17.23
12398,-26.28
12409,-35.25
12421,-43.57
12433,-50.6
12445,-55.72
12457,-58.53
12469,-58.85
12481,-56.72
12493,-52.35
12505,-46.1
12517,-38.46
12529,-30.0
12541,-21.39
12553,-13.22
12565,-5.96
12577,0.17
12588,5.14
12599,9.06
12611,11.99
12623,13.89
12635,14.66
12647,14.2
12659,12.56
12671,9.96
12683,6.84
12695,3.69
12707,1.08
12719,-0.54
12731,-0.77
12743,0.67
12755,3.71
12767,7.91
12778,12.46
12789,16.49
12801,19.33
12813,20.84
12825,21.34
12837,21.4
12849,21.45
12861,21.51
12873,21.24
12885,20.21
12897,18.17
12909,15.27
12921,12.0
12933,8.95
12945,6.55
12957,4.87
12968,3.71
12979,2.75
12991,1.76
13003,0.81
13015,0.16
13027,0.13
13039,0.85
13051,2.11
13063,3.43
13075,4.31
13087,4.5
13099,4.06
13111,3.36
13123,2.76
13135,2.42
13147,2.28
13158,2.16
13169,1.89
13181,1.45
13193,0.84
13205,0.01
13217,-1.14
13229,-2.73
13241,-4.71
13253,-6.87
13265,-8.98
13277,-10.94
13289,-12.93
13301,-15.31
13313,-18.4
13325,-22.18
13337,-26.34
13348,-30.32
13359,-33.61
13371,-35.88
13383,-37.02
13395,-37.08
13407,-36.13
13419,-34.25
13431,-31.65
13443,-28.67
13455,-25.81
13467,-23.5
13479,-21.92
13491,-21.01
13503,-20.51
13515,-20.22
13527,-20.11
13538,-20.35
13549,-21.25
13561,-23.11
13573,-26.07
13585,-30.03
13597,-34.6
13609,-39.17
13621,-43.06
13633,-45.64
13645,-46.51
13657,-45.62
13669,-43.22
13681,-39.73
13693,-35.52
13705,-30.81
13717,-25.69
13728,-20.27
13739,-14.86
13751,-9.96
13763,-6.12
13775,-3.57
13787,-2.08
13799,-1.01
13811,0.34
13823,2.23
13835,4.35
13847,5.86
13859,5.98
13871,4.42
13883,1.62
13895,-1.48
13907,-3.97
13918,-5.46
13929,-6.18
13941,-6.86
13953,-8.26
13965,-10.74
13977,-14.21
13989,-18.19
14001,-22.15
14013,-25.68
14025,-28.55
14037,-30.57
14049,-31.49
14061,-30.95
14073,-28.59
14085,-24.25
14097,-18.21
14108,-11.14
14119,-4.0
14131,2.32
14143,7.29
14155,10.94
14167,13.73
14179,16.33
14191,19.21
14203,22.49
14215,25.88
14227,28.9
14239,31.11
14251,32.33
14263,32.62
14275,32.18
14287,31.23
14298,29.89
14309,28.21
14321,26.21
14333,23.94
14345,21.48
14357,18.96
14369,16.52
14381,14.26
14393,12.17
14405,10.25
14417,8.37
14429,6.4
14441,4.23
14453,1.83
14465,-0.76
14477,-3.41
14488,-5.94
14499,-8.11
14511,-9.73
14523,-10.69
14535,-11.03
14547,-10.96
14559,-10.73
14571,-10.46
14583,-10.0
14595,-8.95
14607,-6.89
14619,-3.69
14631,0.28
14643,4.25
14655,7.37
14667,9.15
14678,9.66
14689,9.52
14701,9.49
14713,10.17
14725,11.74
14737,14.11
14749,17.1
14761,20.71
14773,25.0
14785,30.01
14797,35.54
14809,41.06
14821,45.87
14833,49.42
14845,51.5
14857,52.25
14868,52.1
14879,51.48
14891,50.65
14903,49.66
14915,48.44
14927,46.93
14939,45.2
14951,43.38
14963,41.6
14975,39.88
14987,38.08
14999,35.99
15011,33.49
15023,30.65
15035,27.73
15047,25.04
15058,22.81
15069,21.04
15081,19.55
15093,18.04
15105,16.29
15117,14.27
15129,12.16
15141,10.22
15153,8.6
15165,7.28
15177,6.01
15189,4.51
15201,2.6
15213,0.39
15225,-1.83
15237,-3.7
15248,-5.07
15259,-6.08
15271,-7.13
15283,-8.66
15295,-10.91
15307,-13.8
15319,-16.99
15331,-20.0
15343,-22.43
15355,-23.98
15367,-24.47
15379,-23.79
15391,-21.92
15403,-18.92
15415,-15.04
15427,-10.63
15438,-6.11
15449,-1.84
15461,1.93
15473,5.05
15485,7.46
15497,9.12
15509,10.1
15521,10.47
15533,10.41
15545,10.06
15557,9.51
15569,8.78
15581,7.84
15593,6.78
15605,5.79
15617,5.14
15628,5.0
15639,5.27
15651,5.67
15663,5.79
15675,5.4
15687,4.54
15699,3.46
15711,2.48
15723,1.73
15735,1.19
15747,0.68
15759,0.1
15771,-0.55
15783,-1.14
15795,-1.65
15807,-2.16
15818,-2.95
15829,-4.2
15841,-5.9
15853,-7.76
15865,-9.36
15877,-10.44
15889,-11.0
15901,-11.43
15913,-12.16
15925,-13.51
15937,-15.47
15949,-17.77
15961,-20.07
15973,-22.11
15985,-23.81
15997,-25.11
16008,-25.91
16019,-25.96
16031,-24.95
16043,-22.65
16055,-19.11
16067,-14.64
16079,-9.75
16091,-4.99
16103,-0.68
16115,3.07
16127,6.32
16139,9.2
16151,11.75
16163,13.9
16175,15.61
16187,16.84
16198,17.67
16209,18.22
16221,18.55
16233,18.64
16245,18.37
16257,17.68
16269,16.61
16281,15.38
16293,14.26
16305,13.46
16317,13.04
16329,12.85
16341,12.69
16353,12.35
16365,11.7
16377,10.65
16388,9.19
16399,7.31
16411,5.14
16423,2.92
16435,0.97
16447,-0.44
16459,-1.25
16471,-1.73
16483,-2.32
16495,-3.46
16507,-5.32
16519,-7.66
16531,-10.03
16543,-11.99
16555,-13.36
16567,-14.35
16578,-15.31
16589,-16.55
16601,-18.15
16613,-19.94
16625,-21.7
16637,-23.26
16649,-24.6
16661,-25.63
16673,-26.17
16685,-25.86
16697,-24.35
16709,-21.5
16721,-17.5
16733,-12.83
16745,-8.07
16757,-3.64
16768,0.3
16779,3.77
16791,6.85
16803,9.53
16815,11.7
16827,13.2
16839,14.0
16851,14.17
16863,13.88
16875,13.29
16887,12.49
16899,11.57
16911,10.61
16923,9.76
16935,9.17
16947,8.92
16958,8.95
16969,9.07
16981,9.05
16993,8.67
17005,7.87
17017,6.78
17029,5.55
17041,4.38
17053,3.36
17065,2.43
17077,1.48
17089,0.35
17101,-1.02
17113,-2.65
17125,-4.5
17137,-6.48
17148,-8.52
17159,-10.45
17171,-12.11
17183,-13.31
17195,-13.95
17207,-14.15
17219,-14.21
17231,-14.58
17243,-15.64
17255,-17.52
17267,-20.04
17279,-22.74
17291,-25.05
17303,-26.47
17315,-26.67
17327,-25.59
17338,-23.38
17349,-20.29
17361,-16.62
17373,-12.64
17385,-8.53
17397,-4.38
17409,-0.25
17421,3.8
17433,7.61
17445,10.97
17457,13.63
17469,15.44
17481,16.41
17493,16.76
17505,16.79
17517,16.75
17528,16.79
17539,16.89
17551,16.96
17563,16.94
17575,16.81
17587,16.58
17599,16.28
17611,15.9
17623,15.45
17635,14.95
17647,14.49
17659,14.16
17671,13.91
17683,13.6
17695,12.98
17707,11.86
17718,10.31
17729,8.56
17741,6.94
17753,5.7
17765,4.86
17777,4.18
17789,3.37
17801,2.19
17813,0.64
17825,-1.05
17837,-2.53
17849,-3.56
17861,-4.13
17873,-4.49
17885,-5.03
17897,-6.13
17908,-7.9
17919,-10.19
17931,-12.59
17943,-14.68
17955,-16.16
17967,-16.98
17979,-17.18
17991,-16.81
18003,-15.76
18015,-13.85
18027,-10.92
18039,-7.1
18051,-2.79
18063,1.41
18075,4.91
18087,7.34
18098,8.7
18109,9.22
18121,9.23
18133,9.05
18145,8.88
18157,8.86
18169,9.05
18181,9.5
18193,10.11
18205,10.66
18217,10.87
18229,10.47
18241,9.36
18253,7.68
18265,5.7
18277,3.75
18288,2.06
18299,0.74
18311,-0.18
18323,-0.72
18335,-0.95
18347,-1.0
18359,-1.13
18371,-1.63
18383,-2.74
18395,-4.45
18407,-6.41
18419,-8.0
18431,-8.61
18443,-7.89
18455,-5.92
18467,-3.21
18478,-0.52
18489,1.51
18501,2.45
18513,2.28
18525,1.27
18537,-0.16
18549,-1.63
18561,-2.95
18573,-4.16
18585,-5.51
18597,-7.25
18609,-9.51
18621,-12.24
18633,-15.12
18645,-17.69
18657,-19.46
18668,-20.07
18679,-19.38
18691,-17.49
18703,-14.68
18715,-11.3
18727,-7.7
18739,-4.16
18751,-0.85
18763,2.14
18775,4.81
18787,7.12
18799,9.02
18811,10.54
18823,11.71
18835,12.59
18847,13.28
18858,13.8
18869,14.19
18881,14.44
18893,14.5
18905,14.33
18917,13.84
18929,12.94
18941,11.64
18953,10.03
18965,8.37
18977,6.95
18989,6.0
19001,5.56
19013,5.49
19025,5.52
19037,5.4
19048,5.07
19059,4.56
19071,3.99
19083,3.39
19095,2.66
19107,1.68
19119,0.39
19131,-1.1
19143,-2.63
19155,-4.02
19167,-5.25
19179,-6.47
19191,-7.87
19203,-9.54
19215,-11.34
19227,-13.01
19238,-14.28
19249,-15.03
19261,-15.39
19273,-15.68
19285,-16.22
19297,-17.18
19309,-18.55
19321,-20.14
19333,-21.65
19345,-22.79
19357,-23.34
19369,-23.22
19381,-22.39
19393,-20.9
19405,-18.8
19417,-16.14
19428,-13.08
19439,-9.83
19451,-6.67
19463,-3.82
19475,-1.34
19487,0.92
19499,3.25
19511,5.89
19523,8.83
19535,11.75
19547,14.13
19559,15.48
19571,15.58
19583,14.59
19595,12.99
19607,11.34
19618,10.13
19629,9.57
19641,9.63
19653,10.03
19665,10.46
19677,10.63
19689,10.38
19701,9.68
19713,8.62
19725,7.4
19737,6.23
19749,5.3
19761,4.7
19773,4.38
19785,4.18
19797,3.87
19808,3.29
19819,2.41
19831,1.31
19843,0.16
19855,-0.91
19867,-1.84
19879,-2.68
19891,-3.5
19903,-4.37
19915,-5.36
19927,-6.53
19939,-7.96
19951,-9.73
19963,-11.87
19975,-14.34
19987,-16.96
19998,-19.5
20009,-21.79
20021,-23.74
20033,-25.38
20045,-26.79
20057,-28.01
20069,-29.04
20081,-29.82
20093,-30.35
20105,-30.61
20117,-30.53
20129,-29.94
20141,-28.62
20153,-26.35
20165,-23.04
20177,-18.88
20188,-14.25
20199,-9.64
20211,-5.4
20223,-1.7
20235,1.52
20247,4.34
20259,6.85
20271,9.04
20283,10.9
20295,12.43
20307,13.7
20319,14.77
20331,15.65
20343,16.33
20355,16.72
20367,16.75
20378,16.38
20389,15.61
20401,14.54
20413,13.33
20425,12.3
20437,11.72
20449,11.81
20461,12.53
20473,13.56
20485,14.42
20497,14.66
20509,14.13
20521,13.0
20533,11.71
20545,10.71
20557,10.21
20568,10.12
20579,10.05
20591,9.65
20603,8.64
20615,7.13
20627,5.4
20639,3.88
20651,2.86
20663,2.44
20675,2.42
20687,2.45
20699,2.19
20711,1.48
20723,0.39
20735,-0.84
20747,-1.97
20758,-2.97
20769,-3.97
20781,-5.23
20793,-6.88
20805,-8.8
20817,-10.69
20829,-12.21
20841,-13.23
20853,-13.81
20865,-14.14
20877,-14.28
20889,-14.05
20901,-13.13
20913,-11.23
20925,-8.34
20937,-4.84
20948,-1.34
20959,1.6
20971,3.7
20983,4.98
20995,5.76
