seconds,BVP
8,295.56
20,289.91
32,276.89
44,258.53
56,238.05
67,218.41
78,201.04
90,185.27
102,168.99
114,149.93
126,127.01
138,101.04
150,74.45
162,50.44
174,31.77
186,20.0
198,15.07
210,15.55
222,19.15
234,23.39
246,26.2
257,26.11
268,22.39
280,14.74
292,3.13
304,-12.31
316,-31.33
328,-53.4
340,-77.63
352,-102.8
364,-127.68
376,-151.35
388,-173.46
400,-194.32
412,-214.72
424,-235.73
436,-258.46
447,-284.07
458,-313.61
470,-347.67
482,-385.6
494,-424.77
506,-460.42
518,-486.49
530,-497.4
542,-489.96
554,-464.66
566,-425.42
578,-378.17
590,-328.87
602,-281.92
614,-239.6
626,-202.47
637,-170.26
648,-142.39
660,-118.22
672,-96.82
684,-76.95
696,-57.32
708,-37.04
720,-16.05
732,4.88
744,24.37
756,41.09
768,54.3
780,64.11
792,71.44
804,77.51
816,83.36
827,89.36
838,95.11
850,99.62
862,101.8
874,100.94
886,96.95
898,90.34
910,81.93
922,72.51
934,62.57
946,52.22
958,41.15
970,28.8
982,14.49
994,-2.33
1006,-21.79
1017,-43.4
1028,-65.96
1040,-87.9
1052,-107.68
1064,-124.34
1076,-137.83
1088,-148.83
1100,-158.49
1112,-167.8
1124,-177.42
1136,-187.64
1148,-198.66
1160,-210.81
1172,-224.57
1184,-240.46
1196,-258.72
1207,-279.09
1218,-300.55
1230,-321.29
1242,-338.58
1254,-348.9
1266,-348.36
1278,-333.55
1290,-302.62
1302,-256.11
1314,-197.16
1326,-130.86
1338,-62.97
1350,1.3
1362,58.08
1374,104.91
1386,140.36
1397,163.65
1408,174.53
1420,173.5
1432,162.04
1444,142.41
1456,117.23
1468,88.83
1480,58.83
1492,28.19
1504,-2.49
1516,-32.46
1528,-60.71
1540,-86.03
1552,-107.33
1564,-123.8
1576,-134.88
1587,-140.06
1598,-138.76
1610,-130.42
1622,-114.84
1634,-92.55
1646,-64.95
1658,-34.1
1670,-2.17
1682,29.26
1694,59.68
1706,89.67
1718,120.28
1730,152.15
1742,184.56
1754,215.09
1766,240.24
1777,256.68
1788,262.65
1800,258.78
1812,247.8
1824,233.34
1836,218.45
1848,204.58
1860,191.51
1872,178.18
1884,163.81
1896,148.61
1908,133.79
1920,120.86
1932,110.88
1944,103.85
1956,98.77
1967,94.09
1978,88.26
1990,80.23
2002,69.82
2014,57.69
2026,45.14
2038,33.99
2050,26.38
2062,24.62
2074,30.71
2086,45.51
2098,67.64
2110,92.8
2122,114.17
2134,124.19
2146,117.19
2157,91.75
2168,51.58
2180,4.32
2192,-41.22
2204,-78.06
2216,-103.0
2228,-116.74
2240,-122.46
2252,-123.8
2264,-123.52
2276,-122.94
2288,-122.19
2300,-120.54
2312,-116.46
2324,-107.44
2336,-89.96
2347,-60.44
2358,-16.93
2370,39.03
2382,101.58
2394,161.68
2406,209.99
2418,240.16
2430,251.08
2442,246.55
2454,232.94
2466,216.07
2478,198.92
2490,181.48
2502,162.23
2514,140.03
2526,115.21
2537,89.27
2548,63.96
2560,40.44
2572,19.34
2584,1.24
2596,-12.94
2608,-22.41
2620,-27.31
2632,-29.21
2644,-30.86
2656,-34.96
2668,-42.69
2680,-52.99
2692,-63.22
2704,-70.49
2716,-73.28
2727,-71.91
2738,-68.04
2750,-63.43
2762,-58.99
2774,-54.62
2786,-49.9
2798,-45.0
2810,-40.95
2822,-39.28
2834,-40.94
2846,-45.56
2858,-51.42
2870,-56.22
2882,-58.22
2894,-57.07
2906,-53.9
2917,-50.64
2928,-49.03
2940,-49.87
2952,-52.71
2964,-56.18
2976,-58.5
2988,-58.08
3000,-53.94
3012,-45.85
3024,-34.32
3036,-20.42
3048,-5.49
3060,9.22
3072,22.81
3084,34.94
3096,45.7
3107,55.39
3118,64.16
3130,71.77
3142,77.56
3154,80.65
3166,80.28
3178,76.06
3190,68.11
3202,57.08
3214,44.01
3226,30.21
3238,17.08
3250,5.79
3262,-2.91
3274,-8.94
3286,-12.97
3297,-16.21
3308,-19.91
3320,-24.92
3332,-31.15
3344,-37.61
3356,-42.66
3368,-44.67
3380,-42.55
3392,-36.12
3404,-26.05
3416,-13.42
3428,0.76
3440,15.88
3452,31.8
3464,48.58
3476,66.15
3487,84.08
3498,101.67
3510,118.17
3522,132.95
3534,145.51
3546,155.26
3558,161.34
3570,162.46
3582,157.2
3594,144.24
3606,122.82
3618,92.99
3630,55.61
3642,12.29
3654,-34.88
3666,-83.41
3677,-130.55
3688,-173.35
3700,-208.86
3712,-234.5
3724,-248.63
3736,-251.05
3748,-243.16
3760,-227.75
3772,-208.38
3784,-188.44
3796,-170.5
3808,-155.98
3820,-145.23
3832,-137.93
3844,-133.39
3856,-130.66
3867,-128.45
3878,-125.1
3890,-118.75
3902,-107.87
3914,-91.8
3926,-71.06
3938,-47.3
3950,-22.77
3962,0.44
3974,20.88
3986,38.02
3998,51.96
4010,63.05
4022,71.5
4034,77.28
4046,80.27
4057,80.54
4068,78.52
4080,74.93
4092,70.56
4104,66.03
4116,61.6
4128,57.25
4140,52.83
4152,48.18
4164,43.29
4176,38.26
4188,33.23
4200,28.27
4212,23.27
4224,17.95
4236,11.94
4247,4.91
4258,-3.33
4270,-12.65
4282,-22.64
4294,-32.57
4306,-41.61
4318,-48.78
4330,-53.24
4342,-54.3
4354,-51.65
4366,-45.45
4378,-36.36
4390,-25.45
4402,-13.91
4414,-2.79
4426,7.23
4437,15.93
4448,23.37
4460,29.74
4472,35.18
4484,39.68
4496,43.15
4508,45.52
4520,46.83
4532,47.29
4544,47.17
4556,46.8
4568,46.39
4580,46.03
4592,45.65
4604,45.11
4616,44.25
4627,43.02
4638,41.55
4650,40.03
4662,38.69
4674,37.59
4686,36.59
4698,35.41
4710,33.72
4722,31.24
4734,27.85
4746,23.57
4758,18.6
4770,13.32
4782,8.24
4794,4.04
4806,1.44
4817,0.97
4828,2.82
4840,6.74
4852,12.12
4864,18.1
4876,23.89
4888,28.85
4900,32.63
4912,35.09
4924,36.25
4936,36.29
4948,35.43
4960,34.02
4972,32.43
4984,31.05
4996,30.2
5007,29.96
5018,30.27
5030,30.9
5042,31.58
5054,32.07
5066,32.23
5078,32.05
5090,31.64
5102,31.22
5114,31.01
5126,31.11
5138,31.54
5150,32.16
5162,32.73
5174,32.99
5186,32.82
5197,32.38
5208,32.21
5220,33.05
5232,35.7
5244,40.71
5256,48.19
5268,57.67
5280,68.25
5292,78.94
5304,89.02
5316,98.22
5328,106.39
5340,113.26
5352,118.31
5364,120.77
5376,119.84
5387,114.95
5398,105.88
5410,92.92
5422,76.53
5434,56.92
5446,34.15
5458,8.67
5470,-18.33
5482,-44.93
5494,-68.88
5506,-88.2
5518,-101.5
5530,-108.39
5542,-109.92
5554,-108.23
5566,-105.54
5577,-103.54
5588,-103.11
5600,-104.34
5612,-106.82
5624,-109.36
5636,-110.19
5648,-107.51
5660,-99.71
5672,-85.21
5684,-63.19
5696,-34.54
5708,-3.14
5720,22.77
5732,34.99
5744,31.49
5756,16.98
5767,-1.05
5778,-15.89
5790,-23.32
5802,-23.11
5814,-15.7
5826,-1.96
5838,17.18
5850,40.38
5862,65.41
5874,87.98
5886,103.57
5898,109.16
5910,104.02
5922,89.65
5934,68.79
5946,45.0
5957,21.87
5968,2.14
5980,-12.81
5992,-22.89
6004,-29.38
6016,-34.79
6028,-42.06
6040,-53.75
6052,-70.9
6064,-92.92
6076,-118.18
6088,-144.93
6100,-171.5
6112,-196.48
6124,-218.67
6136,-236.82
6147,-249.8
6158,-256.57
6170,-256.3
6182,-248.36
6194,-232.17
6206,-207.06
6218,-172.97
6230,-131.39
6242,-85.97
6254,-42.15
6266,-5.42
6278,20.68
6290,35.92
6302,43.15
6314,46.73
6326,50.47
6337,56.24
6348,64.0
6360,72.79
6372,81.8
6384,90.83
6396,99.7
6408,107.54
6420,112.51
6432,112.48
6444,105.98
6456,93.24
6468,76.2
6480,57.9
6492,41.34
6504,28.44
6516,19.58
6527,13.74
6538,9.22
6550,4.34
6562,-1.96
6574,-9.83
6586,-18.54
6598,-26.74
6610,-32.87
6622,-35.44
6634,-33.49
6646,-26.83
6658,-16.26
6670,-3.48
6682,9.34
6694,20.11
6706,27.49
6717,31.21
6728,32.03
6740,31.35
6752,30.57
6764,30.72
6776,32.16
6788,34.77
6800,38.0
6812,41.15
6824,43.38
6836,43.85
6848,41.84
6860,36.98
6872,29.37
6884,19.67
6896,8.94
6907,-1.65
6918,-11.06
6930,-18.61
6942,-24.02
6954,-27.36
6966,-28.91
6978,-29.1
6990,-28.43
7002,-27.37
7014,-26.33
7026,-25.56
7038,-25.15
7050,-25.0
7062,-24.76
7074,-23.82
7086,-21.26
7097,-16.12
7108,-7.62
7120,4.38
7132,19.13
7144,35.05
7156,50.15
7168,62.73
7180,71.81
7192,77.42
7204,80.31
7216,81.44
7228,81.52
7240,80.72
7252,78.88
7264,75.71
7276,71.08
7287,64.99
7298,57.4
7310,48.04
7322,36.54
7334,22.71
7346,6.95
7358,-9.57
7370,-25.23
7382,-38.46
7394,-48.37
7406,-55.05
7418,-59.33
7430,-62.26
7442,-64.51
7454,-66.12
7466,-66.58
7477,-65.24
7488,-61.6
7500,-55.5
7512,-46.9
7524,-35.76
7536,-21.85
7548,-4.86
7560,15.39
7572,38.78
7584,64.63
7596,91.64
7608,118.05
7620,141.92
7632,161.51
7644,175.55
7656,183.47
7667,185.24
7678,181.23
7690,171.78
7702,157.09
7714,137.09
7726,111.79
7738,81.63
7750,47.8
7762,12.36
7774,-21.99
7786,-52.51
7798,-77.0
7810,-94.4
7822,-104.93
7834,-109.86
7846,-110.86
7857,-109.51
7868,-106.84
7880,-103.33
7892,-99.15
7904,-94.41
7916,-89.24
7928,-83.78
7940,-78.0
7952,-71.5
7964,-63.7
7976,-53.98
7988,-42.08
8000,-28.26
8012,-13.37
8024,1.45
8036,15.1
8047,26.8
8058,36.29
8070,43.72
8082,49.51
8094,54.07
8106,57.77
8118,60.78
8130,63.19
8142,65.06
8154,66.44
8166,67.45
8178,68.18
8190,68.64
8202,68.67
8214,68.01
8226,66.33
8237,63.4
8248,59.17
8260,53.72
8272,47.21
8284,39.67
8296,31.15
8308,21.77
8320,11.96
8332,2.48
8344,-5.63
8356,-11.47
8368,-14.43
8380,-14.48
8392,-12.02
8404,-7.73
8416,-2.33
8427,3.59
8438,9.6
8450,15.41
8462,20.83
8474,25.82
8486,30.46
8498,34.97
8510,39.58
8522,44.48
8534,49.75
8546,55.33
8558,61.02
8570,66.55
8582,71.52
8594,75.47
8606,77.83
8617,78.11
8628,75.92
8640,71.19
8652,64.09
8664,55.11
8676,44.97
8688,34.44
8700,24.27
8712,14.95
8724,6.69
8736,-0.66
8748,-7.46
8760,-14.18
8772,-21.06
8784,-28.04
8796,-34.69
8807,-40.41
8818,-44.63
8830,-47.07
8842,-47.76
8854,-47.0
8866,-45.29
8878,-43.12
8890,-40.89
8902,-38.92
8914,-37.4
8926,-36.52
8938,-36.52
8950,-37.68
8962,-40.24
8974,-44.31
8986,-49.78
8997,-56.25
9008,-63.14
9020,-69.81
9032,-75.75
9044,-80.76
9056,-85.01
9068,-89.01
9080,-93.39
9092,-98.68
9104,-104.97
9116,-111.92
9128,-118.82
9140,-124.88
9152,-129.6
9164,-132.85
9176,-134.86
9187,-135.93
9198,-136.19
9210,-135.55
9222,-133.95
9234,-131.61
9246,-129.27
9258,-127.93
9270,-128.42
9282,-130.8
9294,-134.16
9306,-136.89
9318,-137.46
9330,-135.19
9342,-130.72
9354,-125.76
9366,-122.46
9377,-122.45
9388,-126.29
9400,-133.58
9412,-143.27
9424,-154.19
9436,-165.19
9448,-175.09
9460,-182.5
9472,-185.9
9484,-184.18
9496,-177.42
9508,-167.24
9520,-156.63
9532,-148.72
9544,-145.39
9556,-146.49
9567,-150.48
9578,-155.82
9590,-162.44
9602,-171.74
9614,-185.14
9626,-201.85
9638,-217.74
9650,-226.13
9662,-220.45
9674,-197.21
9686,-157.56
9698,-106.64
9710,-51.26
9722,2.53
9734,50.69
9746,90.9
9757,121.59
9768,141.42
9780,149.64
9792,146.98
9804,136.15
9816,121.31
9828,106.77
9840,95.46
9852,88.09
9864,83.2
9876,78.06
9888,70.08
9900,58.07
9912,42.93
9924,27.44
9936,15.22
9947,9.22
9958,10.54
9970,18.27
9982,30.38
9994,44.92
10006,60.8
10018,77.76
10030,95.37
10042,112.16
10054,125.54
10066,132.76
10078,132.41
10090,125.41
10102,114.85
10114,104.68
10126,98.02
10137,95.97
10148,97.68
10160,101.28
10172,104.98
10184,107.87
10196,109.96
10208,111.75
10220,113.75
10232,116.28
10244,119.43
10256,123.18
10268,127.45
10280,132.06
10292,136.77
10304,141.27
10316,145.24
10327,148.34
10338,150.2
10350,150.26
10362,147.91
10374,142.7
10386,134.57
10398,124.08
10410,112.31
10422,100.45
10434,89.5
10446,79.86
10458,71.33
10470,63.3
10482,55.11
10494,46.29
10506,36.63
10517,26.14
10528,14.94
10540,3.26
10552,-8.45
10564,-19.39
10576,-28.33
10588,-33.78
10600,-34.37
10612,-29.27
10624,-18.55
10636,-3.3
10648,14.66
10660,33.24
10672,50.62
10684,65.67
10696,77.95
10707,87.6
10718,94.92
10730,100.14
10742,103.34
10754,104.62
10766,104.23
10778,102.76
10790,101.03
10802,99.87
10814,99.79
10826,100.81
10838,102.37
10850,103.61
10862,103.7
10874,102.18
10886,99.14
10897,95.05
10908,90.5
10920,85.72
10932,80.35
10944,73.55
10956,64.27
10968,51.82
10980,36.27
10992,18.57
11004,0.4
11016,-16.2
11028,-29.32
11040,-37.49
11052,-40.02
11064,-37.06
11076,-29.6
11087,-19.27
11098,-8.0
11110,2.35
11122,10.13
11134,13.75
11146,11.65
11158,2.53
11170,-14.01
11182,-36.66
11194,-62.15
11206,-85.76
11218,-102.91
11230,-110.67
11242,-108.84
11254,-99.79
11266,-87.43
11277,-75.89
11288,-68.52
11300,-67.31
11312,-72.57
11324,-82.4
11336,-92.16
11348,-94.77
11360,-82.44
11372,-49.69
11384,3.64
11396,71.06
11408,141.08
11420,201.16
11432,242.15
11444,261.13
11456,261.19
11467,248.8
11478,230.4
11490,210.41
11502,191.11
11514,173.7
11526,159.08
11538,147.82
11550,139.22
11562,131.13
11574,120.74
11586,106.42
11598,89.01
11610,71.68
11622,58.2
11634,50.59
11646,47.85
11657,46.32
11668,41.59
11680,30.55
11692,12.46
11704,-11.33
11716,-38.53
11728,-66.94
11740,-94.75
11752,-120.31
11764,-141.85
11776,-157.59
11788,-166.31
11800,-167.77
11812,-162.91
11824,-153.63
11836,-142.25
11847,-130.93
11858,-121.28
11870,-114.19
11882,-109.72
11894,-107.23
11906,-105.74
11918,-104.27
11930,-102.33
11942,-100.09
11954,-98.33
11966,-98.01
11978,-99.86
11990,-103.95
12002,-109.69
12014,-115.96
12026,-121.44
12037,-124.89
12048,-125.31
12060,-122.13
12072,-115.28
12084,-105.29
12096,-93.23
12108,-80.52
12120,-68.64
12132,-58.79
12144,-51.73
12156,-47.63
12168,-46.24
12180,-47.0
12192,-49.38
12204,-53.07
12216,-58.15
12227,-65.03
12238,-74.22
12250,-85.94
12262,-99.7
12274,-114.14
12286,-127.06
12298,-135.96
12310,-138.63
12322,-133.84
12334,-121.74
12346,-103.76
12358,-82.23
12370,-59.6
12382,-37.73
12394,-17.5
12406,1.23
12417,19.26
12428,37.39
12440,55.94
12452,74.51
12464,92.05
12476,107.1
12488,118.33
12500,124.84
12512,126.48
12524,123.91
12536,118.49
12548,111.95
12560,105.84
12572,100.89
12584,96.65
12596,91.47
12607,83.18
12618,70.07
12630,51.94
12642,30.49
12654,9.06
12666,-8.62
12678,-19.88
12690,-24.32
12702,-24.03
12714,-22.72
12726,-24.09
12738,-30.4
12750,-41.85
12762,-56.94
12774,-73.62
12786,-90.25
12797,-106.02
12808,-120.69
12820,-134.1
12832,-145.82
12844,-155.28
12856,-162.12
12868,-166.19
12880,-167.17
12892,-163.97
12904,-154.67
12916,-137.32
12928,-111.33
12940,-78.56
12952,-43.36
12964,-11.16
12976,13.49
12987,28.45
12998,34.35
13010,33.51
13022,28.52
13034,21.16
13046,12.36
13058,2.83
13070,-6.3
13082,-13.43
13094,-17.07
13106,-16.53
13118,-12.22
13130,-5.26
13142,3.29
13154,13.03
13166,24.23
13177,37.47
13188,52.99
13200,70.41
13212,88.91
13224,107.76
13236,126.67
13248,145.85
13260,165.56
13272,185.55
13284,204.77
13296,221.72
13308,235.19
13320,245.01
13332,252.0
13344,257.25
13356,261.04
13367,262.13
13378,258.13
13390,246.83
13402,227.58
13414,202.09
13426,173.89
13438,146.72
13450,122.99
13462,102.99
13474,85.27
13486,67.9
13498,49.71
13510,30.88
13522,12.66
13534,-3.41
13546,-16.23
13557,-25.42
13568,-31.23
13580,-34.2
13592,-34.88
13604,-33.6
13616,-30.65
13628,-26.37
13640,-21.27
13652,-15.96
13664,-10.92
13676,-6.38
13688,-2.21
13700,1.93
13712,6.37
13724,11.15
13736,15.95
13747,20.12
13758,22.98
13770,24.06
13782,23.31
13794,21.15
13806,18.26
13818,15.35
13830,12.84
13842,10.76
13854,8.82
13866,6.55
13878,3.64
13890,0.02
13902,-4.06
13914,-8.25
13926,-12.36
13937,-16.57
13948,-21.44
13960,-27.78
13972,-36.3
13984,-47.31
13996,-60.55
14008,-75.19
14020,-90.16
14032,-104.5
14044,-117.83
14056,-130.53
14068,-143.64
14080,-158.43
14092,-175.61
14104,-194.83
14116,-214.37
14127,-231.36
14138,-242.39
14150,-244.3
14162,-234.92
14174,-213.67
14186,-181.75
14198,-142.13
14210,-99.17
14222,-57.92
14234,-23.21
14246,1.39
14258,14.32
14270,16.28
14282,9.75
14294,-2.14
14306,-16.68
14317,-32.33
14328,-48.45
14340,-64.58
14352,-79.71
14364,-92.19
14376,-100.42
14388,-103.91
14400,-103.94
14412,-103.14
14424,-104.3
14436,-108.84
14448,-115.97
14460,-123.08
14472,-127.06
14484,-125.96
14496,-119.91
14507,-111.0
14518,-102.06
14530,-95.34
14542,-91.6
14554,-90.07
14566,-89.17
14578,-87.59
14590,-84.96
14602,-81.9
14614,-79.3
14626,-77.44
14638,-75.35
14650,-71.08
14662,-62.76
14674,-49.79
14686,-33.44
14697,-16.42
14708,-1.72
14720,8.73
14732,14.75
14744,17.69
14756,19.43
14768,21.42
14780,24.1
14792,27.04
14804,29.44
14816,30.52
14828,29.73
14840,26.61
14852,20.76
14864,11.95
14876,0.39
14887,-13.02
14898,-26.58
14910,-38.06
14922,-45.18
14934,-46.3
14946,-40.96
14958,-30.14
14970,-16.2
14982,-2.24
14994,8.69
15006,14.56
15018,14.87
15030,10.79
15042,4.56
15054,-1.45
15066,-5.68
15077,-7.8
15088,-8.35
15100,-8.02
15112,-6.85
15124,-4.0
15136,1.83
15148,11.54
15160,24.96
15172,40.73
15184,56.98
15196,72.21
15208,86.06
15220,99.41
15232,113.89
15244,130.94
15256,151.18
15267,174.07
15278,198.08
15290,221.07
15302,240.79
15314,255.28
15326,263.28
15338,264.48
15350,259.54
15362,249.77
15374,236.78
15386,222.06
15398,206.87
15410,192.2
15422,178.96
15434,168.06
15446,160.34
15457,156.39
15468,156.52
15480,160.63
15492,168.36
15504,179.12
15516,191.94
15528,205.38
15540,217.63
15552,226.92
15564,232.16
15576,233.45
15588,231.95
15600,229.21
15612,226.04
15624,221.81
15636,214.54
15647,201.86
15658,182.27
15670,156.03
15682,125.1
15694,92.34
15706,60.41
15718,30.97
15730,4.66
15742,-18.6
15754,-39.17
15766,-57.54
15778,-74.29
15790,-90.13
15802,-105.67
15814,-121.09
15826,-136.01
15837,-149.67
15848,-161.32
15860,-170.71
15872,-178.26
15884,-184.77
15896,-190.96
15908,-197.01
15920,-202.44
15932,-206.36
15944,-207.83
15956,-206.36
15968,-202.02
15980,-195.52
15992,-187.91
16004,-180.32
16016,-173.66
16027,-168.47
16038,-165.0
16050,-163.36
16062,-163.52
16074,-165.4
16086,-168.49
16098,-171.83
16110,-174.03
16122,-173.7
16134,-170.16
16146,-163.82
16158,-156.26
16170,-149.58
16182,-145.69
16194,-145.46
16206,-148.61
16217,-154.09
16228,-160.72
16240,-167.82
16252,-175.46
16264,-184.26
16276,-195.0
16288,-208.29
16300,-224.5
16312,-243.69
16324,-265.41
16336,-288.39
16348,-310.06
16360,-326.57
16372,-333.57
16384,-327.39
16396,-306.48
16407,-272.07
16418,-227.9
16430,-178.94
16442,-129.86
16454,-83.8
16466,-42.05
16478,-4.43
16490,29.94
16502,62.05
16514,92.82
16526,123.1
16538,153.45
16550,183.76
16562,212.79
16574,238.08
16586,256.54
16597,265.55
16608,264.1
16620,253.41
16632,236.54
16644,217.31
16656,198.84
16668,182.58
16680,168.27
16692,154.56
16704,140.12
16716,124.36
16728,107.49
16740,90.2
16752,73.06
16764,56.28
16776,39.93
16787,24.24
16798,9.89
16810,-2.05
16822,-10.59
16834,-15.23
16846,-16.18
16858,-14.13
16870,-9.92
16882,-4.18
16894,2.71
16906,10.5
16918,18.81
16930,27.06
16942,34.51
16954,40.55
16966,44.8
16977,47.23
16988,48.09
17000,47.75
17012,46.67
17024,45.28
17036,43.98
17048,43.08
17060,42.79
17072,43.15
17084,44.02
17096,45.15
17108,46.23
17120,46.98
17132,47.24
17144,46.9
17156,45.94
17167,44.31
17178,42.0
17190,39.12
17202,35.97
17214,33.05
17226,30.94
17238,30.08
17250,30.62
17262,32.32
17274,34.69
17286,37.19
17298,39.42
17310,41.22
17322,42.73
17334,44.32
17346,46.6
17357,50.34
17368,56.39
17380,65.44
17392,77.83
17404,93.29
17416,110.99
17428,129.62
17440,147.71
17452,163.88
17464,176.99
17476,186.23
17488,191.05
17500,191.08
17512,186.15
17524,176.17
17536,161.25
17547,141.55
17558,117.37
17570,89.18
17582,57.61
17594,23.61
17606,-11.55
17618,-46.15
17630,-78.12
17642,-105.06
17654,-124.6
17666,-134.88
17678,-135.11
17690,-125.95
17702,-109.55
17714,-89.03
17726,-67.62
17737,-47.84
17748,-31.02
17760,-17.51
17772,-7.15
17784,0.09
17796,3.98
17808,4.29
17820,1.2
17832,-4.41
17844,-11.14
17856,-17.5
17868,-22.41
17880,-25.41
17892,-26.46
17904,-25.67
17916,-23.09
17927,-18.73
17938,-12.71
17950,-5.47
17962,2.29
17974,9.79
17986,16.36
17998,21.61
18010,25.39
18022,27.73
18034,28.77
18046,28.7
18058,27.79
18070,26.34
18082,24.65
18094,22.99
18106,21.52
18117,20.33
18128,19.48
18140,19.02
18152,18.98
18164,19.33
18176,19.9
18188,20.37
18200,20.33
18212,19.42
18224,17.5
18236,14.7
18248,11.43
18260,8.24
18272,5.64
18284,3.83
18296,2.72
18307,1.89
18318,0.92
18330,-0.5
18342,-2.24
18354,-3.74
18366,-4.12
18378,-2.41
18390,2.03
18402,9.33
18414,18.98
18426,29.98
18438,41.21
18450,51.7
18462,60.95
18474,68.97
18486,76.07
18497,82.6
18508,88.68
18520,94.06
18532,98.16
18544,100.33
18556,100.12
18568,97.48
18580,92.9
18592,87.22
18604,81.42
18616,76.29
18628,72.27
18640,69.44
18652,67.68
18664,66.9
18676,67.21
18687,69.0
18698,72.83
18710,79.31
18722,88.76
18734,100.86
18746,114.33
18758,126.85
18770,135.27
18782,136.43
18794,127.99
18806,109.2
18818,81.11
18830,46.25
18842,7.74
18854,-31.57
18866,-69.76
18877,-106.04
18888,-140.47
18900,-173.69
18912,-206.35
18924,-238.68
18936,-270.16
18948,-299.21
18960,-323.31
18972,-339.45
18984,-344.93
18996,-338.2
19008,-319.45
19020,-290.63
19032,-255.0
19044,-216.33
19056,-178.09
19067,-142.9
19078,-112.27
19090,-86.71
19102,-65.98
19114,-49.41
19126,-36.13
19138,-25.34
19150,-16.37
19162,-8.75
19174,-2.17
19186,3.51
19198,8.36
19210,12.33
19222,15.28
19234,17.0
19246,17.3
19257,16.09
19268,13.44
19280,9.61
19292,5.0
19304,0.18
19316,-4.17
19328,-7.29
19340,-8.42
19352,-6.99
19364,-2.84
19376,3.7
19388,11.78
19400,20.25
19412,27.97
19424,34.1
19436,38.29
19447,40.63
19458,41.57
19470,41.65
19482,41.29
19494,40.74
19506,40.07
19518,39.21
19530,38.14
19542,36.87
19554,35.48
19566,34.08
19578,32.69
19590,31.24
19602,29.66
19614,27.91
19626,26.03
19637,24.1
19648,22.22
19660,20.36
19672,18.42
19684,16.3
19696,13.98
19708,11.51
19720,8.98
19732,6.4
19744,3.72
19756,0.85
19768,-2.13
19780,-4.87
19792,-6.69
19804,-6.81
19816,-4.55
19827,0.28
19838,7.33
19850,15.79
19862,24.68
19874,33.22
19886,41.08
19898,48.24
19910,54.78
19922,60.47
19934,64.68
19946,66.52
19958,65.17
19970,60.27
19982,52.15
19994,41.74
20006,30.27
20017,18.95
20028,8.82
20040,0.62
20052,-5.14
20064,-8.21
20076,-8.59
20088,-6.69
20100,-3.3
20112,0.59
20124,4.04
20136,6.46
20148,7.87
20160,8.7
20172,9.56
20184,10.71
20196,11.72
20207,11.52
20218,8.72
20230,2.22
20242,-8.27
20254,-21.99
20266,-37.28
20278,-52.14
20290,-64.72
20302,-73.81
20314,-78.92
20326,-80.17
20338,-78.01
20350,-72.92
20362,-65.28
20374,-55.42
20386,-43.73
20397,-30.86
20408,-17.62
20420,-4.8
20432,7.17
20444,18.34
20456,29.27
20468,40.62
20480,52.84
20492,65.99
20504,79.85
20516,94.31
20528,109.56
20540,126.23
20552,145.03
20564,166.27
20576,189.52
20587,213.47
20598,236.35
20610,256.41
20622,272.45
20634,284.01
20646,291.29
20658,294.83
20670,295.41
20682,293.93
20694,291.48
20706,289.22
20718,287.93
20730,287.38
20742,285.84
20754,280.25
20766,266.99
20777,243.16
20788,207.77
20800,162.19
20812,109.62
20824,53.95
20836,-1.48
20848,-54.66
20860,-105.06
20872,-153.16
20884,-199.8
20896,-245.79
20908,-291.58
20920,-337.29
20932,-382.64
20944,-426.87
20956,-468.67
20967,-506.26
20978,-537.63
20990,-560.99
