seconds,BVP
8,10.51
20,5.57
32,2.24
44,1.12
56,2.45
68,5.9
80,10.79
92,16.25
104,21.59
116,26.39
128,30.51
140,34.03
151,37.16
162,40.3
174,44.08
186,49.19
198,56.15
210,64.97
222,74.89
234,84.56
246,92.43
258,97.31
270,98.78
282,97.19
294,93.41
306,88.32
318,82.51
330,76.14
341,69.09
352,61.16
364,52.24
376,42.37
388,31.59
400,19.92
412,7.3
424,-6.22
436,-20.4
448,-34.57
460,-47.75
472,-58.88
484,-67.14
496,-72.3
508,-74.87
520,-75.95
531,-76.84
542,-78.67
554,-82.08
566,-87.11
578,-93.39
590,-100.35
602,-107.52
614,-114.61
626,-121.43
638,-127.79
650,-133.37
662,-137.67
674,-140.2
686,-140.62
698,-138.91
710,-135.45
721,-130.83
732,-125.69
744,-120.52
756,-115.57
768,-110.85
780,-106.26
792,-101.69
804,-97.12
816,-92.58
828,-88.08
840,-83.65
852,-79.2
864,-74.64
876,-69.79
888,-64.42
900,-58.24
911,-50.97
922,-42.4
934,-32.49
946,-21.49
958,-9.88
970,1.67
982,12.53
994,22.21
1006,30.43
1018,37.13
1030,42.31
1042,46.02
1054,48.3
1066,49.23
1078,49.02
1090,48.03
1101,46.71
1112,45.47
1124,44.56
1136,43.97
1148,43.5
1160,42.82
1172,41.68
1184,39.98
1196,37.82
1208,35.43
1220,33.04
1232,30.73
1244,28.45
1256,25.99
1268,23.15
1280,19.79
1291,15.9
1302,11.59
1314,7.13
1326,2.85
1338,-0.82
1350,-3.39
1362,-4.44
1374,-3.73
1386,-1.33
1398,2.37
1410,6.73
1422,11.11
1434,15.0
1446,18.15
1458,20.5
1470,22.07
1481,22.82
1492,22.68
1504,21.59
1516,19.65
1528,17.13
1540,14.45
1552,11.99
1564,9.98
1576,8.46
1588,7.29
1600,6.25
1612,5.13
1624,3.83
1636,2.31
1648,0.55
1660,-1.43
1671,-3.69
1682,-6.29
1694,-9.3
1706,-12.7
1718,-16.45
1730,-20.41
1742,-24.48
1754,-28.55
1766,-32.49
1778,-36.09
1790,-38.96
1802,-40.56
1814,-40.29
1826,-37.74
1838,-32.88
1850,-26.16
1861,-18.42
1872,-10.63
1884,-3.61
1896,2.2
1908,6.75
1920,10.25
1932,12.98
1944,15.12
1956,16.71
1968,17.69
1980,18.09
1992,18.06
2004,17.89
2016,17.86
2028,18.13
2040,18.64
2051,19.17
2062,19.44
2074,19.23
2086,18.52
2098,17.44
2110,16.14
2122,14.74
2134,13.19
2146,11.33
2158,8.98
2170,6.01
2182,2.38
2194,-1.84
2206,-6.55
2218,-11.62
2230,-16.81
2241,-21.71
2252,-25.73
2264,-28.15
2276,-28.39
2288,-26.17
2300,-21.64
2312,-15.38
2324,-8.16
2336,-0.77
2348,6.18
2360,12.21
2372,17.07
2384,20.61
2396,22.78
2408,23.7
2420,23.58
2431,22.78
2442,21.61
2454,20.35
2466,19.14
2478,18.05
2490,17.07
2502,16.19
2514,15.4
2526,14.67
2538,13.98
2550,13.31
2562,12.56
2574,11.65
2586,10.43
2598,8.76
2610,6.53
2621,3.75
2632,0.52
2644,-2.93
2656,-6.35
2668,-9.51
2680,-12.32
2692,-14.85
2704,-17.26
2716,-19.83
2728,-22.84
2740,-26.53
2752,-30.98
2764,-36.01
2776,-41.18
2788,-45.71
2800,-48.73
2811,-49.44
2822,-47.41
2834,-42.66
2846,-35.69
2858,-27.29
2870,-18.29
2882,-9.4
2894,-1.1
2906,6.27
2918,12.53
2930,17.49
2942,21.07
2954,23.29
2966,24.32
2978,24.49
2990,24.22
3001,23.9
3012,23.82
3024,24.13
3036,24.86
3048,25.96
3060,27.36
3072,29.02
3084,30.91
3096,32.98
3108,35.1
3120,37.07
3132,38.62
3144,39.48
3156,39.45
3168,38.52
3180,36.85
3191,34.71
3202,32.38
3214,30.01
3226,27.55
3238,24.85
3250,21.79
3262,18.41
3274,14.91
3286,11.62
3298,8.74
3310,6.32
3322,4.18
3334,2.02
3346,-0.46
3358,-3.49
3370,-7.24
3381,-11.79
3392,-17.16
3404,-23.1
3416,-29.11
3428,-34.35
3440,-37.84
3452,-38.73
3464,-36.61
3476,-31.6
3488,-24.3
3500,-15.61
3512,-6.45
3524,2.36
3536,10.25
3548,16.81
3560,21.86
3571,25.39
3582,27.55
3594,28.68
3606,29.16
3618,29.42
3630,29.75
3642,30.3
3654,31.06
3666,31.9
3678,32.64
3690,33.1
3702,33.16
3714,32.77
3726,31.95
3738,30.81
3750,29.47
3761,28.02
3772,26.52
3784,24.96
3796,23.33
3808,21.64
3820,19.98
3832,18.43
3844,17.08
3856,15.85
3868,14.58
3880,13.02
3892,11.04
3904,8.64
3916,6.03
3928,3.44
3940,1.02
3951,-1.24
3962,-3.47
3974,-5.86
3986,-8.53
3998,-11.51
4010,-14.74
4022,-18.13
4034,-21.5
4046,-24.59
4058,-26.96
4070,-28.06
4082,-27.34
4094,-24.5
4106,-19.65
4118,-13.35
4130,-6.45
4141,0.16
4152,5.84
4164,10.28
4176,13.55
4188,15.82
4200,17.22
4212,17.75
4224,17.34
4236,16.03
4248,14.04
4260,11.74
4272,9.57
4284,7.79
4296,6.49
4308,5.55
4320,4.81
4331,4.05
4342,3.17
4354,2.07
4366,0.67
4378,-1.12
4390,-3.37
4402,-6.15
4414,-9.45
4426,-13.21
4438,-17.3
4450,-21.58
4462,-25.9
4474,-30.11
4486,-34.17
4498,-38.05
4510,-41.74
4521,-45.22
4532,-48.38
4544,-51.11
4556,-53.33
4568,-55.1
4580,-56.62
4592,-58.16
4604,-59.97
4616,-62.13
4628,-64.43
4640,-66.41
4652,-67.34
4664,-66.39
4676,-62.78
4688,-55.98
4700,-45.94
4711,-33.15
4722,-18.62
4734,-3.61
4746,10.63
4758,23.12
4770,33.36
4782,41.24
4794,46.97
4806,50.85
4818,53.18
4830,54.27
4842,54.41
4854,53.96
4866,53.26
4878,52.58
4890,52.05
4901,51.64
4912,51.24
4924,50.71
4936,49.93
4948,48.84
4960,47.34
4972,45.36
4984,42.78
4996,39.57
5008,35.76
5020,31.53
5032,27.16
5044,22.92
5056,18.98
5068,15.39
5080,12.03
5091,8.71
5102,5.22
5114,1.4
5126,-2.84
5138,-7.43
5150,-12.16
5162,-16.63
5174,-20.33
5186,-22.71
5198,-23.34
5210,-22.03
5222,-18.88
5234,-14.29
5246,-8.85
5258,-3.22
5270,2.09
5281,6.71
5292,10.51
5304,13.44
5316,15.49
5328,16.64
5340,16.9
5352,16.35
5364,15.19
5376,13.72
5388,12.25
5400,11.02
5412,10.16
5424,9.65
5436,9.46
5448,9.5
5460,9.72
5471,9.99
5482,10.12
5494,9.87
5506,9.0
5518,7.39
5530,5.07
5542,2.19
5554,-1.01
5566,-4.3
5578,-7.51
5590,-10.53
5602,-13.34
5614,-16.01
5626,-18.73
5638,-21.71
5650,-25.13
5661,-29.03
5672,-33.19
5684,-37.12
5696,-40.2
5708,-41.8
5720,-41.48
5732,-39.16
5744,-35.09
5756,-29.8
5768,-23.93
5780,-18.08
5792,-12.7
5804,-8.07
5816,-4.31
5828,-1.43
5840,0.6
5851,1.88
5862,2.55
5874,2.76
5886,2.68
5898,2.45
5910,2.22
5922,2.09
5934,2.13
5946,2.4
5958,2.88
5970,3.53
5982,4.26
5994,4.97
6006,5.56
6018,5.97
6030,6.18
6041,6.18
6052,5.96
6064,5.48
6076,4.69
6088,3.59
6100,2.21
6112,0.6
6124,-1.22
6136,-3.27
6148,-5.69
6160,-8.57
6172,-11.86
6184,-15.26
6196,-18.19
6208,-19.93
6220,-19.87
6231,-17.7
6242,-13.56
6254,-7.97
6266,-1.67
6278,4.64
6290,10.4
6302,15.29
6314,19.16
6326,21.98
6338,23.77
6350,24.58
6362,24.52
6374,23.7
6386,22.28
6398,20.48
6410,18.56
6421,16.76
6432,15.26
6444,14.11
6456,13.29
6468,12.67
6480,12.14
6492,11.62
6504,11.01
6516,10.23
6528,9.13
6540,7.6
6552,5.6
6564,3.22
6576,0.62
6588,-2.0
6600,-4.54
6611,-7.0
6622,-9.51
6634,-12.23
6646,-15.27
6658,-18.69
6670,-22.42
6682,-26.24
6694,-29.78
6706,-32.48
6718,-33.74
6730,-33.04
6742,-30.13
6754,-25.14
6766,-18.57
6778,-11.15
6790,-3.66
6801,3.28
6812,9.26
6824,14.11
6836,17.82
6848,20.45
6860,22.1
6872,22.84
6884,22.81
6896,22.19
6908,21.18
6920,20.01
6932,18.84
6944,17.74
6956,16.7
6968,15.65
6980,14.54
6991,13.41
7002,12.33
7014,11.38
7026,10.53
7038,9.61
7050,8.37
7062,6.56
7074,4.06
7086,0.97
7098,-2.43
7110,-5.8
7122,-8.85
7134,-11.47
7146,-13.76
7158,-15.96
7170,-18.37
7181,-21.21
7192,-24.49
7204,-27.97
7216,-31.1
7228,-33.24
7240,-33.73
7252,-32.18
7264,-28.56
7276,-23.24
7288,-16.86
7300,-10.16
7312,-3.77
7324,1.89
7336,6.59
7348,10.21
7360,12.67
7371,13.96
7382,14.17
7394,13.56
7406,12.52
7418,11.44
7430,10.56
7442,9.92
7454,9.41
7466,8.87
7478,8.26
7490,7.66
7502,7.16
7514,6.83
7526,6.56
7538,6.19
7550,5.56
7561,4.57
7572,3.23
7584,1.63
7596,-0.13
7608,-1.98
7620,-3.88
7632,-5.8
7644,-7.73
7656,-9.7
7668,-11.74
7680,-13.96
7692,-16.45
7704,-19.2
7716,-22.12
7728,-24.91
7740,-27.12
7751,-28.17
7762,-27.56
7774,-25.0
7786,-20.53
7798,-14.58
7810,-7.79
7822,-0.87
7834,5.64
7846,11.36
7858,16.08
7870,19.65
7882,21.96
7894,23.0
7906,22.92
7918,22.09
7930,21.0
7941,20.14
7952,19.78
7964,19.86
7976,20.11
7988,20.24
8000,20.06
8012,19.6
8024,19.03
8036,18.55
8048,18.21
8060,17.91
8072,17.41
8084,16.45
8096,14.88
8108,12.69
8120,10.03
8131,7.13
8142,4.26
8154,1.62
8166,-0.73
8178,-2.84
8190,-4.93
8202,-7.24
8214,-9.96
8226,-13.08
8238,-16.42
8250,-19.61
8262,-22.22
8274,-23.85
8286,-24.17
8298,-23.01
8310,-20.35
8321,-16.34
8332,-11.36
8344,-5.93
8356,-0.65
8368,3.96
8380,7.55
8392,9.99
8404,11.31
8416,11.66
8428,11.23
8440,10.22
8452,8.86
8464,7.43
8476,6.2
8488,5.35
8500,4.88
8511,4.66
8522,4.48
8534,4.21
8546,3.9
8558,3.67
8570,3.63
8582,3.75
8594,3.76
8606,3.3
8618,2.07
8630,-0.03
8642,-2.83
8654,-6.03
8666,-9.26
8678,-12.28
8690,-15.0
8701,-17.5
8712,-19.93
8724,-22.52
8736,-25.47
8748,-28.89
8760,-32.74
8772,-36.73
8784,-40.35
8796,-42.97
8808,-43.95
8820,-42.9
8832,-39.75
8844,-34.74
8856,-28.45
8868,-21.53
8880,-14.66
8891,-8.39
8902,-3.11
8914,0.97
8926,3.84
8938,5.63
8950,6.61
8962,7.08
8974,7.38
8986,7.75
8998,8.34
9010,9.12
9022,9.96
9034,10.69
9046,11.21
9058,11.56
9070,11.9
9081,12.39
9092,13.1
9104,13.9
9116,14.52
9128,14.64
9140,14.08
9152,12.82
9164,11.04
9176,8.99
9188,6.94
9200,5.01
9212,3.21
9224,1.44
9236,-0.47
9248,-2.69
9260,-5.34
9271,-8.37
9282,-11.57
9294,-14.57
9306,-16.9
9318,-18.1
9330,-17.76
9342,-15.69
9354,-11.91
9366,-6.71
9378,-0.62
9390,5.72
9402,11.69
9414,16.79
9426,20.76
9438,23.51
9450,25.08
9461,25.57
9472,25.12
9484,23.9
9496,22.19
9508,20.35
9520,18.78
9532,17.73
9544,17.31
9556,17.38
9568,17.68
9580,17.95
9592,18.02
9604,17.92
9616,17.72
9628,17.51
9640,17.25
9651,16.78
9662,15.89
9674,14.45
9686,12.45
9698,10.06
9710,7.52
9722,5.04
9734,2.68
9746,0.37
9758,-2.04
9770,-4.75
9782,-7.9
9794,-11.49
9806,-15.38
9818,-19.23
9830,-22.57
9841,-24.83
9852,-25.57
9864,-24.53
9876,-21.79
9888,-17.68
9900,-12.71
9912,-7.39
9924,-2.14
9936,2.7
9948,6.88
9960,10.15
9972,12.31
9984,13.3
9996,13.23
10008,12.39
10020,11.22
10031,10.09
10042,9.24
10054,8.74
10066,8.53
10078,8.5
10090,8.56
10102,8.7
10114,8.93
10126,9.22
10138,9.49
10150,9.54
10162,9.21
10174,8.34
10186,6.93
10198,5.12
10210,3.16
10221,1.26
10232,-0.44
10244,-1.94
10256,-3.36
10268,-4.89
10280,-6.74
10292,-9.09
10304,-12.1
10316,-15.76
10328,-19.88
10340,-24.0
10352,-27.45
10364,-29.57
10376,-29.88
10388,-28.23
10400,-24.87
10411,-20.28
10422,-15.05
10434,-9.68
10446,-4.54
10458,0.12
10470,4.05
10482,7.03
10494,8.91
10506,9.65
10518,9.39
10530,8.44
10542,7.16
10554,5.87
10566,4.74
10578,3.86
10590,3.23
10601,2.81
10612,2.55
10624,2.39
10636,2.27
10648,2.11
10660,1.84
10672,1.43
10684,0.81
10696,-0.06
10708,-1.27
10720,-2.89
10732,-4.91
10744,-7.24
10756,-9.75
10768,-12.31
10780,-14.84
10791,-17.4
10802,-20.1
10814,-23.1
10826,-26.48
10838,-30.15
10850,-33.84
10862,-37.08
10874,-39.27
10886,-39.89
10898,-38.64
10910,-35.55
10922,-30.94
10934,-25.31
10946,-19.22
10958,-13.12
10970,-7.34
10981,-2.13
10992,2.25
11004,5.65
11016,7.98
11028,9.33
11040,9.92
11052,10.06
11064,10.01
11076,9.98
11088,10.07
11100,10.35
11112,10.87
11124,11.66
11136,12.72
11148,13.92
11160,15.11
11171,16.1
11182,16.72
11194,16.86
11206,16.47
11218,15.53
11230,14.09
11242,12.24
11254,10.17
11266,8.05
11278,6.0
11290,3.98
11302,1.78
11314,-0.88
11326,-4.25
11338,-8.33
11350,-12.84
11361,-17.28
11372,-21.0
11384,-23.4
11396,-24.07
11408,-22.84
11420,-19.83
11432,-15.4
11444,-10.09
11456,-4.5
11468,0.8
11480,5.37
11492,8.94
11504,11.39
11516,12.75
11528,13.14
11540,12.73
11551,11.77
11562,10.52
11574,9.24
11586,8.16
11598,7.41
11610,7.04
11622,7.02
11634,7.26
11646,7.67
11658,8.18
11670,8.72
11682,9.23
11694,9.58
11706,9.59
11718,9.09
11730,7.97
11741,6.25
11752,4.13
11764,1.85
11776,-0.38
11788,-2.48
11800,-4.59
11812,-6.93
11824,-9.73
11836,-13.08
11848,-16.85
11860,-20.73
11872,-24.23
11884,-26.85
11896,-28.09
11908,-27.59
11920,-25.15
11931,-20.85
11942,-15.02
11954,-8.19
11966,-1.01
11978,5.89
11990,12.01
12002,16.99
12014,20.65
12026,22.94
12038,24.01
12050,24.12
12062,23.64
12074,22.92
12086,22.2
12098,21.59
12110,21.04
12121,20.5
12132,19.95
12144,19.47
12156,19.21
12168,19.26
12180,19.59
12192,20.02
12204,20.28
12216,20.08
12228,19.19
12240,17.53
12252,15.19
12264,12.39
12276,9.41
12288,6.51
12300,3.82
12311,1.31
12322,-1.22
12334,-4.02
12346,-7.32
12358,-11.25
12370,-15.74
12382,-20.53
12394,-25.2
12406,-29.23
12418,-32.04
12430,-33.19
12442,-32.39
12454,-29.66
12466,-25.26
12478,-19.71
12490,-13.6
12501,-7.53
12512,-1.99
12524,2.69
12536,6.34
12548,8.93
12560,10.55
12572,11.33
12584,11.48
12596,11.22
12608,10.81
12620,10.5
12632,10.5
12644,10.89
12656,11.63
12668,12.57
12680,13.5
12691,14.25
12702,14.73
12714,14.92
12726,14.83
12738,14.44
12750,13.65
12762,12.38
12774,10.57
12786,8.29
12798,5.72
12810,3.12
12822,0.68
12834,-1.52
12846,-3.58
12858,-5.71
12870,-8.17
12881,-11.2
12892,-14.89
12904,-19.17
12916,-23.78
12928,-28.21
12940,-31.79
12952,-33.89
12964,-34.01
12976,-31.98
12988,-28.0
13000,-22.6
13012,-16.48
13024,-10.31
13036,-4.65
13048,0.13
13060,3.82
13071,6.32
13082,7.61
13094,7.77
13106,7.0
13118,5.58
13130,3.9
13142,2.33
13154,1.18
13166,0.64
13178,0.77
13190,1.48
13202,2.54
13214,3.73
13226,4.84
13238,5.8
13250,6.64
13261,7.47
13272,8.31
13284,9.05
13296,9.42
13308,9.12
13320,8.04
13332,6.23
13344,4.02
13356,1.79
13368,-0.2
13380,-1.92
13392,-3.54
13404,-5.37
13416,-7.67
13428,-10.55
13440,-13.94
13451,-17.62
13462,-21.21
13474,-24.24
13486,-26.19
13498,-26.57
13510,-25.08
13522,-21.68
13534,-16.62
13546,-10.36
13558,-3.52
13570,3.29
13582,9.54
13594,14.8
13606,18.85
13618,21.63
13630,23.19
13641,23.75
13652,23.57
13664,22.95
13676,22.19
13688,21.55
13700,21.26
13712,21.45
13724,22.1
13736,23.08
13748,24.12
13760,24.91
13772,25.21
13784,24.87
13796,23.93
13808,22.47
13820,20.67
13831,18.63
13842,16.4
13854,13.93
13866,11.21
13878,8.25
13890,5.18
13902,2.22
13914,-0.42
13926,-2.6
13938,-4.37
13950,-5.99
13962,-7.79
13974,-10.13
13986,-13.23
13998,-17.07
14010,-21.34
14021,-25.45
14032,-28.62
14044,-30.05
14056,-29.08
14068,-25.44
14080,-19.29
14092,-11.18
14104,-1.95
14116,7.51
14128,16.4
14140,24.14
14152,30.34
14164,34.84
14176,37.6
14188,38.74
14200,38.47
14211,37.09
14222,34.94
14234,32.38
14246,29.8
14258,27.53
14270,25.83
14282,24.84
14294,24.53
14306,24.68
14318,25.01
14330,25.21
14342,25.04
14354,24.39
14366,23.17
14378,21.37
14390,18.92
14401,15.8
14412,11.99
14424,7.6
14436,2.8
14448,-2.2
14460,-7.16
14472,-11.91
14484,-16.36
14496,-20.52
14508,-24.47
14520,-28.28
14532,-31.99
14544,-35.59
14556,-38.94
14568,-41.81
14580,-43.93
14591,-45.07
14602,-45.03
14614,-43.76
14626,-41.3
14638,-37.76
14650,-33.33
14662,-28.25
14674,-22.82
14686,-17.38
14698,-12.25
14710,-7.7
14722,-3.92
14734,-0.98
14746,1.08
14758,2.33
14770,2.84
14781,2.73
14792,2.14
14804,1.2
14816,0.07
14828,-1.15
14840,-2.35
14852,-3.41
14864,-4.24
14876,-4.73
14888,-4.84
14900,-4.67
14912,-4.43
14924,-4.42
14936,-4.93
14948,-6.08
14960,-7.78
14971,-9.77
14982,-11.71
14994,-13.36
15006,-14.65
15018,-15.7
15030,-16.79
15042,-18.21
15054,-20.22
15066,-22.91
15078,-26.14
15090,-29.48
15102,-32.16
15114,-33.14
15126,-31.37
15138,-26.14
15150,-17.41
15161,-5.91
15172,6.99
15184,19.72
15196,30.99
15208,40.11
15220,46.99
15232,51.91
15244,55.29
15256,57.45
15268,58.58
15280,58.82
15292,58.4
15304,57.59
15316,56.63
15328,55.65
15340,54.51
15351,52.94
15362,50.66
15374,47.52
15386,43.6
15398,39.28
15410,34.99
15422,31.09
15434,27.68
15446,24.56
15458,21.42
15470,18.03
15482,14.38
15494,10.71
15506,7.35
15518,4.48
15530,1.94
15541,-0.68
15552,-3.86
15564,-7.92
15576,-12.7
15588,-17.6
15600,-21.68
15612,-24.0
15624,-23.9
15636,-21.27
15648,-16.55
15660,-10.56
15672,-4.18
15684,1.89
15696,7.25
15708,11.89
15720,15.99
15731,19.84
15742,23.7
15754,27.71
15766,31.76
15778,35.42
15790,37.89
15802,38.16
15814,35.23
15826,28.57
15838,18.41
15850,5.84
15862,-7.48
15874,-19.84
15886,-29.97
15898,-37.37
15910,-42.25
15921,-45.27
15932,-47.14
15944,-48.33
15956,-49.04
15968,-49.27
15980,-48.94
15992,-47.92
16004,-45.9
16016,-42.37
16028,-36.57
16040,-27.72
16052,-15.29
16064,0.65
16076,19.27
16088,38.99
16100,57.76
16111,73.55
16122,84.9
16134,91.26
16146,93.06
16158,91.51
16170,88.06
16182,83.96
16194,79.97
16206,76.38
16218,73.19
16230,70.34
16242,67.83
16254,65.65
16266,63.82
16278,62.34
16290,61.29
16301,60.89
16312,61.42
16324,63.15
16336,66.07
16348,69.92
16360,74.09
16372,77.71
16384,79.67
16396,78.67
16408,73.5
16420,63.34
16432,48.25
16444,29.32
16456,8.43
16468,-12.32
16480,-31.34
16491,-47.97
16502,-62.48
16514,-75.56
16526,-87.75
16538,-99.12
16550,-109.37
16562,-118.19
16574,-125.66
16586,-132.27
16598,-138.59
16610,-144.72
16622,-149.87
16634,-152.47
16646,-150.79
16658,-143.76
16670,-131.63
16681,-116.01
16692,-99.29
16704,-83.7
16716,-70.54
16728,-60.07
16740,-51.79
16752,-45.14
16764,-39.95
16776,-36.44
16788,-34.82
16800,-34.99
16812,-36.29
16824,-37.8
16836,-38.68
16848,-38.48
16860,-37.26
16871,-35.4
16882,-33.39
16894,-31.64
16906,-30.46
16918,-30.02
16930,-30.42
16942,-31.67
16954,-33.61
16966,-35.91
16978,-38.03
16990,-39.35
17002,-39.23
17014,-37.24
17026,-33.24
17038,-27.42
17050,-20.34
17061,-12.7
17072,-5.23
17084,1.49
17096,7.05
17108,11.26
17120,14.12
17132,15.71
17144,16.19
17156,15.79
17168,14.75
17180,13.37
17192,11.93
17204,10.67
17216,9.69
17228,8.98
17240,8.43
17251,7.86
17262,7.16
17274,6.27
17286,5.2
17298,4.03
17310,2.78
17322,1.42
17334,-0.14
17346,-2.05
17358,-4.51
17370,-7.67
17382,-11.59
17394,-16.21
17406,-21.25
17418,-26.16
17430,-30.19
17441,-32.51
17452,-32.44
17464,-29.68
17476,-24.43
17488,-17.35
17500,-9.36
17512,-1.41
17524,5.74
17536,11.71
17548,16.39
17560,19.85
17572,22.22
17584,23.55
17596,23.86
17608,23.17
17620,21.67
17631,19.65
17642,17.55
17654,15.72
17666,14.33
17678,13.34
17690,12.49
17702,11.44
17714,9.94
17726,7.96
17738,5.58
17750,3.01
17762,0.42
17774,-2.12
17786,-4.69
17798,-7.46
17810,-10.63
17821,-14.42
17832,-18.95
17844,-24.12
17856,-29.57
17868,-34.64
17880,-38.44
17892,-40.09
17904,-39.02
17916,-35.13
17928,-28.9
17940,-21.14
17952,-12.86
17964,-4.91
17976,2.15
17988,8.01
18000,12.59
18011,15.82
18022,17.7
18034,18.23
18046,17.54
18058,15.93
18070,13.85
18082,11.79
18094,10.15
18106,9.13
18118,8.74
18130,8.76
18142,8.97
18154,9.15
18166,9.21
18178,9.11
18190,8.88
18201,8.46
18212,7.75
18224,6.58
18236,4.8
18248,2.33
18260,-0.9
18272,-4.94
18284,-9.9
18296,-15.84
18308,-22.74
18320,-30.22
18332,-37.47
18344,-43.36
18356,-46.62
18368,-46.3
18380,-42.07
18391,-34.35
18402,-24.17
18414,-12.83
18426,-1.5
18438,8.99
18450,18.19
18462,25.89
18474,31.96
18486,36.28
18498,38.82
18510,39.77
18522,39.54
18534,38.77
18546,38.08
18558,37.91
18570,38.38
18581,39.25
18592,40.11
18604,40.54
18616,40.33
18628,39.51
18640,38.3
18652,36.98
18664,35.69
18676,34.38
18688,32.78
18700,30.54
18712,27.43
18724,23.5
18736,19.03
18748,14.48
18760,10.28
18771,6.68
18782,3.63
18794,0.89
18806,-1.9
18818,-5.07
18830,-8.85
18842,-13.31
18854,-18.33
18866,-23.57
18878,-28.41
18890,-32.02
18902,-33.48
18914,-32.05
18926,-27.44
18938,-19.96
18950,-10.47
18961,-0.12
18972,9.97
18984,18.98
18996,26.47
19008,32.31
19020,36.52
19032,39.19
19044,40.5
19056,40.73
19068,40.28
19080,39.6
19092,39.06
19104,38.81
19116,38.82
19128,38.91
19140,38.94
19151,38.87
19162,38.77
19174,38.74
19186,38.85
19198,39.05
19210,39.19
19222,39.02
19234,38.29
19246,36.8
19258,34.56
19270,31.7
19282,28.53
19294,25.33
19306,22.25
19318,19.26
19330,16.13
19341,12.59
19352,8.56
19364,4.14
19376,-0.38
19388,-4.69
19400,-8.62
19412,-12.23
19424,-15.73
19436,-19.33
19448,-23.21
19460,-27.46
19472,-32.07
19484,-36.94
19496,-41.82
19508,-46.21
19520,-49.38
19531,-50.51
19542,-48.93
19554,-44.44
19566,-37.39
19578,-28.63
19590,-19.27
19602,-10.33
19614,-2.56
19626,3.67
19638,8.21
19650,11.06
19662,12.3
19674,12.05
19686,10.59
19698,8.37
19710,5.94
19721,3.81
19732,2.36
19744,1.69
19756,1.7
19768,2.14
19780,2.79
19792,3.51
19804,4.28
19816,5.11
19828,6.04
19840,7.05
19852,8.1
19864,9.2
19876,10.35
19888,11.59
19900,12.96
19911,14.45
19922,16.06
19934,17.72
19946,19.38
19958,20.96
19970,22.36
19982,23.44
19994,24.1
20006,24.21
20018,23.76
20030,22.77
20042,21.26
20054,19.19
20066,16.47
20078,13.07
20090,9.15
20101,5.2
20112,2.05
20124,0.6
20136,1.56
20148,5.16
20160,11.04
20172,18.37
20184,26.11
20196,33.35
20208,39.52
20220,44.35
20232,47.82
20244,49.94
20256,50.73
20268,50.2
20280,48.46
20291,45.76
20302,42.45
20314,38.84
20326,35.1
20338,31.17
20350,26.82
20362,21.85
20374,16.23
20386,10.16
20398,4.01
20410,-1.79
20422,-6.91
20434,-11.23
20446,-14.8
20458,-17.78
20470,-20.36
20481,-22.68
20492,-24.83
20504,-26.82
20516,-28.59
20528,-30.05
20540,-31.05
20552,-31.46
20564,-31.25
20576,-30.6
20588,-29.85
20600,-29.48
20612,-29.9
20624,-31.35
20636,-33.79
20648,-36.87
20660,-40.02
20671,-42.61
20682,-44.03
20694,-43.81
20706,-41.71
20718,-37.74
20730,-32.18
20742,-25.53
20754,-18.44
20766,-11.56
20778,-5.44
20790,-0.47
20802,3.14
20814,5.32
20826,6.13
20838,5.79
20850,4.61
20861,3.01
20872,1.34
20884,-0.11
20896,-1.24
20908,-2.13
20920,-2.93
20932,-3.86
20944,-5.0
20956,-6.39
20968,-7.95
20980,-9.61
20992,-11.3
