seconds,BVP
5,-18.57
17,-17.11
29,-13.85
41,-8.15
53,1.1
65,15.0
77,33.56
89,55.18
101,76.78
113,95.46
125,110.3
137,122.44
148,133.8
159,145.26
171,155.58
183,162.14
195,163.06
207,158.52
219,150.32
231,140.2
243,128.27
255,113.48
267,95.17
279,74.59
291,54.53
303,37.05
315,21.53
327,4.65
338,-16.94
349,-43.65
361,-71.6
373,-94.46
385,-107.04
397,-108.25
409,-101.41
421,-91.96
433,-84.25
445,-79.33
457,-75.55
469,-70.3
481,-62.05
493,-50.99
505,-38.54
517,-26.73
528,-17.46
539,-12.08
551,-11.42
563,-15.74
575,-25.13
587,-38.78
599,-54.41
611,-68.33
623,-77.02
635,-78.1
647,-71.47
659,-59.71
671,-46.76
683,-37.54
695,-34.65
707,-36.49
718,-37.65
729,-32.78
741,-19.03
753,2.39
765,26.91
777,49.53
789,64.27
801,68.41
813,64.6
825,60.12
837,62.08
849,74.41
861,95.58
873,118.9
885,136.64
897,138.57
908,118.99
919,80.48
931,32.2
943,-17.3
955,-64.28
967,-111.25
979,-163.98
991,-224.8
1003,-295.77
1015,-373.83
1027,-450.19
1039,-498.56
1051,-495.6
1063,-434.38
1075,-331.9
1087,-233.87
1098,-153.5
1109,-89.59
1121,-35.16
1133,19.52
1145,76.82
1157,131.84
1169,176.13
1181,202.1
1193,207.06
1205,195.84
1217,171.9
1229,138.39
1241,99.23
1253,58.93
1265,21.23
1277,-10.93
1288,-35.96
1299,-53.23
1311,-61.7
1323,-64.95
1335,-67.38
1347,-71.18
1359,-76.0
1371,-80.58
1383,-83.93
1395,-85.59
1407,-84.38
1419,-76.5
1431,-59.42
1443,-31.77
1455,5.37
1467,47.34
1478,86.51
1489,115.41
1501,130.27
1513,133.42
1525,132.48
1537,134.43
1549,142.59
1561,155.32
1573,168.01
1585,176.63
1597,180.3
1609,181.02
1621,181.36
1633,182.12
1645,180.98
1657,175.04
1668,163.46
1679,148.79
1691,135.75
1703,128.09
1715,125.99
1727,125.52
1739,121.03
1751,107.99
1763,85.52
1775,56.34
1787,25.29
1799,-2.99
1811,-26.09
1823,-44.15
1835,-58.89
1847,-71.74
1858,-82.4
1869,-88.54
1881,-87.29
1893,-77.56
1905,-61.6
1917,-45.3
1929,-35.92
1941,-39.16
1953,-56.21
1965,-83.36
1977,-113.5
1989,-138.88
2001,-154.02
2013,-157.01
2025,-149.67
2037,-136.38
2048,-122.64
2059,-113.33
2071,-111.24
2083,-116.19
2095,-124.92
2107,-132.51
2119,-134.23
2131,-127.49
2143,-112.97
2155,-94.31
2167,-76.35
2179,-62.69
2191,-54.28
2203,-49.65
2215,-46.61
2227,-44.0
2238,-41.94
2249,-40.38
2261,-37.65
2273,-30.16
2285,-14.14
2297,11.34
2309,42.41
2321,71.39
2333,90.56
2345,96.55
2357,92.51
2369,86.61
2381,87.57
2393,99.72
2405,120.63
2417,142.78
2428,157.82
2439,161.05
2451,153.64
2463,141.55
2475,132.48
2487,132.08
2499,141.55
2511,157.39
2523,173.13
2535,181.91
2547,178.51
2559,160.51
2571,128.37
2583,84.88
2595,34.92
2607,-15.13
2618,-58.16
2629,-87.73
2641,-100.23
2653,-96.75
2665,-83.1
2677,-67.47
2689,-56.97
2701,-54.22
2713,-56.49
2725,-57.97
2737,-53.7
2749,-42.79
2761,-28.79
2773,-17.1
2785,-11.25
2797,-10.88
2808,-12.1
2819,-10.67
2831,-5.29
2843,1.28
2855,4.03
2867,-0.7
2879,-12.3
2891,-25.71
2903,-34.17
2915,-33.03
2927,-22.4
2939,-6.98
2951,6.85
2963,14.93
2975,17.86
2987,20.4
2998,28.46
3009,44.7
3021,66.33
3033,86.04
3045,95.73
3057,90.86
3069,72.3
3081,45.27
3093,15.94
3105,-11.47
3117,-35.8
3129,-57.89
3141,-78.43
3153,-96.62
3165,-110.08
3177,-116.31
3188,-114.2
3199,-104.84
3211,-90.94
3223,-75.83
3235,-62.31
3247,-51.8
3259,-43.98
3271,-36.95
3283,-27.71
3295,-13.46
3307,6.91
3319,31.8
3331,56.77
3343,76.12
3355,85.47
3367,83.64
3378,73.25
3389,59.57
3401,47.93
3413,41.84
3425,42.29
3437,48.55
3449,59.47
3461,74.28
3473,91.82
3485,109.0
3497,120.57
3509,120.22
3521,104.01
3533,73.11
3545,34.55
3557,-1.17
3568,-24.49
3579,-30.85
3591,-22.49
3603,-6.71
3615,7.76
3627,14.53
3639,11.83
3651,2.09
3663,-10.45
3675,-22.26
3687,-32.13
3699,-41.03
3711,-50.66
3723,-62.03
3735,-74.28
3747,-84.82
3758,-90.1
3769,-87.18
3781,-75.2
3793,-56.22
3805,-34.99
3817,-17.15
3829,-7.04
3841,-5.45
3853,-9.21
3865,-12.78
3877,-11.38
3889,-3.78
3901,7.11
3913,15.93
3925,18.46
3937,14.3
3948,7.03
3959,1.76
3971,1.69
3983,6.18
3995,11.62
4007,14.27
4019,13.04
4031,10.45
4043,10.79
4055,17.36
4067,30.25
4079,46.44
4091,61.36
4103,70.93
4115,72.69
4127,65.84
4138,51.04
4149,29.99
4161,5.56
4173,-18.34
4185,-37.51
4197,-48.3
4209,-48.73
4221,-39.13
4233,-21.86
4245,-0.54
4257,20.54
4269,36.78
4281,43.92
4293,38.81
4305,20.88
4317,-6.98
4328,-38.73
4339,-67.08
4351,-86.17
4363,-94.0
4375,-93.06
4387,-88.5
4399,-85.38
4411,-85.84
4423,-88.25
4435,-88.31
4447,-81.91
4459,-67.78
4471,-48.89
4483,-31.39
4495,-21.65
4507,-23.27
4518,-35.08
4529,-51.74
4541,-65.93
4553,-71.73
4565,-67.08
4577,-54.33
4589,-38.74
4601,-25.86
4613,-19.38
4625,-19.85
4637,-24.99
4649,-30.65
4661,-32.64
4673,-28.17
4685,-16.5
4697,0.99
4708,21.49
4719,41.62
4731,58.55
4743,70.77
4755,78.15
4767,81.34
4779,80.91
4791,77.03
4803,69.81
4815,60.33
4827,51.35
4839,46.8
4851,49.96
4863,61.17
4875,76.96
4887,91.37
4898,98.96
4909,97.61
4921,89.64
4933,80.16
4945,73.85
4957,72.23
4969,73.13
4981,72.59
4993,67.81
5005,59.25
5017,50.07
5029,44.15
5041,43.13
5053,44.8
5065,43.8
5077,34.21
5088,12.85
5099,-18.51
5111,-53.26
5123,-82.84
5135,-100.27
5147,-103.44
5159,-95.66
5171,-83.42
5183,-72.77
5195,-66.48
5207,-63.68
5219,-61.79
5231,-59.31
5243,-57.12
5255,-57.58
5267,-61.99
5278,-68.84
5289,-74.14
5301,-73.99
5313,-67.3
5325,-56.7
5337,-46.86
5349,-41.39
5361,-40.69
5373,-41.96
5385,-41.7
5397,-38.29
5409,-33.01
5421,-28.74
5433,-27.41
5445,-28.27
5457,-28.07
5468,-23.41
5479,-13.1
5491,0.71
5503,13.55
5515,21.14
5527,21.77
5539,17.35
5551,12.38
5563,11.65
5575,17.92
5587,30.53
5599,46.02
5611,59.91
5623,68.94
5635,72.19
5647,70.87
5658,66.74
5669,60.83
5681,53.29
5693,44.57
5705,36.7
5717,33.1
5729,36.68
5741,46.83
5753,58.53
5765,63.76
5777,55.9
5789,33.95
5801,3.73
5813,-24.9
5825,-43.28
5837,-48.16
5848,-42.85
5859,-34.03
5871,-27.53
5883,-24.94
5895,-23.73
5907,-20.35
5919,-13.66
5931,-6.38
5943,-3.3
5955,-7.85
5967,-19.29
5979,-32.68
5991,-41.63
6003,-42.11
6015,-34.56
6027,-23.33
6038,-13.84
6049,-9.65
6061,-11.02
6073,-15.66
6085,-20.66
6097,-24.11
6109,-25.78
6121,-26.28
6133,-26.21
6145,-25.72
6157,-24.58
6169,-22.6
6181,-19.85
6193,-16.64
6205,-13.46
6217,-11.3
6228,-11.7
6239,-16.37
6251,-26.15
6263,-40.19
6275,-55.49
6287,-67.84
6299,-73.62
6311,-71.59
6323,-63.51
6335,-53.26
6347,-44.96
6359,-40.94
6371,-41.0
6383,-43.23
6395,-45.42
6407,-46.2
6418,-45.0
6429,-41.19
6441,-33.53
6453,-20.73
6465,-2.64
6477,18.62
6489,38.87
6501,54.01
6513,62.07
6525,64.16
6537,63.43
6549,62.63
6561,62.34
6573,60.89
6585,56.25
6597,48.02
6608,38.17
6619,29.8
6631,25.1
6643,23.95
6655,24.38
6667,24.54
6679,24.2
6691,24.66
6703,27.18
6715,31.14
6727,33.51
6739,30.37
6751,19.64
6763,3.25
6775,-12.82
6787,-21.01
6798,-15.85
6809,2.89
6821,29.48
6833,54.46
6845,68.85
6857,68.31
6869,54.86
6881,35.26
6893,17.01
6905,4.36
6917,-3.23
6929,-9.5
6941,-17.88
6953,-28.59
6965,-38.2
6977,-41.98
6988,-37.4
6999,-26.11
7011,-13.17
7023,-3.91
7035,-1.02
7047,-3.25
7059,-6.6
7071,-7.31
7083,-4.15
7095,0.9
7107,4.11
7119,2.44
7131,-4.38
7143,-13.38
7155,-19.57
7167,-18.27
7178,-7.52
7189,10.86
7201,31.83
7213,49.13
7225,57.72
7237,55.75
7249,45.11
7261,30.73
7273,18.51
7285,12.9
7297,14.83
7309,21.3
7321,26.84
7333,26.21
7345,17.16
7357,1.59
7368,-15.76
7379,-30.18
7391,-39.79
7403,-45.92
7415,-51.31
7427,-57.28
7439,-62.42
7451,-63.6
7463,-58.55
7475,-48.32
7487,-37.15
7499,-29.97
7511,-29.17
7523,-33.06
7535,-36.99
7547,-36.39
7558,-29.56
7569,-18.21
7581,-5.71
7593,5.31
7605,14.32
7617,22.44
7629,30.61
7641,38.66
7653,45.4
7665,49.9
7677,52.49
7689,54.73
7701,58.27
7713,63.49
7725,69.12
7737,72.89
7748,72.99
7759,69.03
7771,62.14
7783,54.31
7795,47.35
7807,42.36
7819,39.6
7831,38.52
7843,38.1
7855,36.92
7867,33.66
7879,27.68
7891,19.28
7903,9.4
7915,-0.92
7927,-11.09
7938,-21.05
7949,-30.8
7961,-39.66
7973,-46.0
7985,-47.89
7997,-44.34
8009,-36.25
8021,-26.56
8033,-19.04
8045,-16.58
8057,-19.8
8069,-26.6
8081,-33.18
8093,-35.72
8105,-31.96
8117,-21.84
8128,-7.43
8139,8.0
8151,21.04
8163,29.22
8175,31.87
8187,30.1
8199,26.07
8211,21.7
8223,17.71
8235,13.42
8247,7.71
8259,0.12
8271,-8.55
8283,-16.62
8295,-22.74
8307,-26.54
8318,-28.46
8329,-28.77
8341,-26.74
8353,-20.91
8365,-10.53
8377,2.98
8389,15.93
8401,24.01
8413,24.66
8425,18.4
8437,8.3
8449,-1.97
8461,-10.05
8473,-15.6
8485,-19.53
8497,-22.68
8508,-25.27
8519,-26.97
8531,-27.68
8543,-27.54
8555,-26.55
8567,-23.8
8579,-17.56
8591,-6.12
8603,10.58
8615,29.86
8627,46.91
8639,56.39
8651,55.33
8663,44.75
8675,29.4
8687,15.44
8698,7.66
8709,7.7
8721,14.01
8733,23.6
8745,33.02
8757,40.15
8769,44.5
8781,46.85
8793,48.29
8805,49.69
8817,52.16
8829,56.59
8841,63.91
8853,72.53
8865,79.26
8877,80.68
8888,75.54
8899,65.48
8911,54.21
8923,46.55
8935,45.16
8947,50.7
8959,59.16
8971,65.33
8983,65.53
8995,59.86
9007,50.74
9019,39.84
9031,27.63
9043,11.17
9055,-12.07
9067,-46.16
9078,-93.6
9089,-154.44
9101,-225.6
9113,-303.01
9125,-383.64
9137,-463.89
9149,-541.56
9161,-591.45
9173,-589.16
9185,-524.92
9197,-413.02
9209,-281.24
9221,-154.49
9233,-54.34
9245,23.97
9257,86.43
9268,138.05
9279,179.24
9291,209.01
9303,224.31
9315,225.62
9327,216.22
9339,199.52
9351,178.7
9363,152.83
9375,120.7
9387,80.09
9399,31.2
9411,-21.82
9423,-70.71
9435,-106.82
9447,-125.45
9458,-126.49
9469,-115.98
9481,-100.97
9493,-88.24
9505,-81.75
9517,-82.08
9529,-86.57
9541,-91.49
9553,-93.67
9565,-90.43
9577,-80.89
9589,-64.35
9601,-41.1
9613,-12.38
9625,19.67
9637,52.27
9648,81.47
9659,102.68
9671,112.39
9683,109.34
9695,96.59
9707,80.58
9719,68.5
9731,65.04
9743,70.24
9755,79.39
9767,85.8
9779,84.58
9791,75.01
9803,61.16
9815,49.66
9827,46.51
9838,54.5
9849,72.68
9861,97.12
9873,123.18
9885,147.11
9897,166.87
9909,181.75
9921,190.88
9933,192.4
9945,183.82
9957,164.02
9969,134.86
9981,102.35
9993,74.4
10005,57.17
10017,51.51
10028,51.8
10039,49.12
10051,36.53
10063,13.49
10075,-13.59
10087,-34.94
10099,-43.3
10111,-37.83
10123,-24.07
10135,-10.49
10147,-3.7
10159,-5.56
10171,-13.81
10183,-24.5
10195,-34.69
10207,-43.62
10218,-51.79
10229,-59.09
10241,-64.19
10253,-64.94
10265,-60.05
10277,-50.65
10289,-40.32
10301,-33.54
10313,-33.32
10325,-39.28
10337,-47.41
10349,-52.13
10361,-48.79
10373,-35.98
10385,-16.21
10397,5.62
10408,24.57
10419,37.83
10431,45.17
10443,48.18
10455,48.57
10467,47.27
10479,44.29
10491,39.58
10503,34.05
10515,29.73
10527,28.99
10539,33.15
10551,41.52
10563,51.0
10575,57.04
10587,55.06
10598,42.53
10609,20.39
10621,-6.66
10633,-31.56
10645,-47.41
10657,-50.21
10669,-40.26
10681,-21.72
10693,-0.54
10705,18.08
10717,31.52
10729,39.82
10741,44.78
10753,48.69
10765,53.01
10777,58.1
10788,63.02
10799,66.1
10811,65.59
10823,60.46
10835,50.98
10847,38.86
10859,26.7
10871,16.4
10883,8.06
10895,-0.25
10907,-10.95
10919,-25.08
10931,-41.12
10943,-55.82
10955,-66.27
10967,-71.89
10978,-75.02
10989,-79.14
11001,-86.45
11013,-95.7
11025,-102.56
11037,-102.07
11049,-91.73
11061,-73.49
11073,-52.91
11085,-36.49
11097,-28.23
11109,-28.0
11121,-31.96
11133,-35.13
11145,-33.8
11157,-26.92
11168,-16.09
11179,-3.99
11191,7.02
11203,16.05
11215,23.55
11227,30.48
11239,37.45
11251,44.09
11263,49.2
11275,51.24
11287,49.42
11299,44.37
11311,38.21
11323,34.01
11335,34.4
11347,40.36
11358,50.66
11369,62.32
11381,71.48
11393,74.94
11405,71.21
11417,61.15
11429,47.76
11441,35.24
11453,27.42
11465,26.07
11477,30.04
11489,35.26
11501,36.53
11513,29.87
11525,14.89
11537,-4.71
11548,-22.7
11559,-33.25
11571,-34.05
11583,-27.52
11595,-19.91
11607,-18.21
11619,-26.71
11631,-44.68
11643,-66.72
11655,-85.48
11667,-95.34
11679,-95.27
11691,-89.3
11703,-84.38
11715,-86.55
11727,-97.56
11738,-113.65
11749,-127.48
11761,-131.95
11773,-124.06
11785,-106.62
11797,-86.38
11809,-70.13
11821,-60.75
11833,-55.61
11845,-48.73
11857,-35.08
11869,-14.07
11881,9.71
11893,28.89
11905,37.92
11917,36.4
11928,29.42
11939,24.66
11951,27.98
11963,40.33
11975,57.54
11987,73.09
11999,81.35
12011,80.16
12023,70.98
12035,57.06
12047,41.7
12059,27.3
12071,15.58
12083,8.46
12095,8.04
12107,15.34
12118,28.75
12129,43.58
12141,53.43
12153,53.05
12165,41.02
12177,20.57
12189,-2.25
12201,-21.56
12213,-33.99
12225,-39.39
12237,-39.54
12249,-36.41
12261,-31.1
12273,-23.85
12285,-14.77
12297,-4.78
12308,4.52
12319,11.32
12331,14.32
12343,13.39
12355,9.41
12367,3.88
12379,-1.42
12391,-4.94
12403,-5.49
12415,-2.52
12427,3.99
12439,13.46
12451,24.89
12463,36.65
12475,46.51
12487,51.8
12498,50.42
12509,42.01
12521,28.85
12533,15.43
12545,6.51
12557,4.98
12569,10.49
12581,20.01
12593,29.72
12605,36.9
12617,40.87
12629,42.78
12641,44.41
12653,46.92
12665,50.67
12677,54.97
12688,58.8
12699,60.99
12711,60.29
12723,55.63
12735,46.53
12747,33.38
12759,17.19
12771,-0.79
12783,-19.63
12795,-38.37
12807,-55.69
12819,-69.5
12831,-77.37
12843,-77.9
12855,-71.58
12867,-61.04
12878,-49.75
12889,-40.38
12901,-33.75
12913,-29.03
12925,-24.82
12937,-20.36
12949,-15.77
12961,-11.5
12973,-7.86
12985,-4.86
12997,-2.94
13009,-3.46
13021,-8.36
13033,-18.88
13045,-34.17
13057,-50.94
13068,-64.65
13079,-71.46
13091,-69.8
13103,-60.74
13115,-46.99
13127,-31.5
13139,-16.53
13151,-3.4
13163,7.18
13175,15.09
13187,20.82
13199,25.45
13211,30.37
13223,36.34
13235,42.75
13247,47.69
13258,48.82
13269,44.7
13281,35.76
13293,23.95
13305,11.87
13317,1.5
13329,-6.14
13341,-10.64
13353,-11.84
13365,-9.81
13377,-5.3
13389,-0.0
13401,3.87
13413,4.79
13425,2.64
13437,-1.09
13448,-4.35
13459,-5.79
13471,-5.15
13483,-2.81
13495,0.85
13507,5.7
13519,11.17
13531,15.57
13543,16.31
13555,11.46
13567,1.52
13579,-10.14
13591,-18.57
13603,-20.03
13615,-14.14
13627,-4.06
13638,5.51
13649,11.11
13661,12.15
13673,10.52
13685,8.77
13697,8.02
13709,7.5
13721,5.61
13733,1.69
13745,-2.97
13757,-5.6
13769,-3.55
13781,3.57
13793,13.13
13805,19.86
13817,18.04
13828,4.3
13839,-20.12
13851,-49.2
13863,-74.23
13875,-87.66
13887,-86.4
13899,-72.9
13911,-53.38
13923,-34.49
13935,-20.46
13947,-12.28
13959,-9.23
13971,-10.75
13983,-17.29
13995,-29.09
14007,-44.5
14018,-58.98
14029,-66.48
14041,-62.58
14053,-47.15
14065,-24.88
14077,-3.12
14089,11.81
14101,17.33
14113,15.27
14125,10.23
14137,6.73
14149,7.23
14161,11.35
14173,16.83
14185,21.34
14197,23.66
14208,24.06
14219,23.6
14231,22.96
14243,21.78
14255,19.22
14267,15.16
14279,11.38
14291,11.29
14303,18.31
14315,33.39
14327,53.92
14339,74.6
14351,89.96
14363,97.22
14375,97.46
14387,94.41
14398,91.85
14409,91.58
14421,92.58
14433,92.15
14445,87.58
14457,77.4
14469,61.57
14481,40.93
14493,16.71
14505,-9.47
14517,-35.33
14529,-57.98
14541,-74.64
14553,-83.81
14565,-85.98
14577,-83.74
14588,-80.78
14599,-80.32
14611,-83.31
14623,-87.91
14635,-90.43
14647,-87.41
14659,-77.58
14671,-62.66
14683,-46.33
14695,-32.21
14707,-21.94
14719,-14.55
14731,-7.48
14743,1.51
14755,12.58
14767,23.33
14778,29.98
14789,29.5
14801,21.36
14813,8.22
14825,-5.06
14837,-13.15
14849,-12.24
14861,-1.42
14873,16.74
14885,36.69
14897,51.89
14909,57.44
14921,52.13
14933,38.96
14945,23.5
14957,10.88
14968,3.13
14979,-1.49
14991,-7.03
15003,-16.74
15015,-30.64
15027,-45.24
15039,-55.57
15051,-58.26
15063,-53.63
15075,-45.27
15087,-37.66
15099,-33.59
15111,-32.81
15123,-32.71
15135,-30.3
15147,-24.21
15158,-15.3
15169,-6.16
15181,0.52
15193,3.54
15205,3.49
15217,2.23
15229,1.64
15241,2.52
15253,4.16
15265,4.99
15277,3.66
15289,0.21
15301,-3.38
15313,-4.21
15325,0.25
15337,10.47
15348,24.39
15359,38.24
15371,48.23
15383,52.01
15395,49.42
15407,42.0
15419,31.99
15431,21.67
15443,12.85
15455,6.96
15467,4.91
15479,7.03
15491,12.91
15503,21.17
15515,29.65
15527,36.04
15538,38.59
15549,36.4
15561,29.64
15573,19.61
15585,8.51
15597,-0.95
15609,-6.49
15621,-7.29
15633,-4.41
15645,-0.3
15657,2.52
15669,2.79
15681,1.15
15693,-0.65
15705,-1.1
15717,-0.08
15728,1.25
15739,1.64
15751,1.04
15763,0.99
15775,3.72
15787,10.21
15799,18.79
15811,25.69
15823,26.82
15835,20.47
15847,8.49
15859,-4.34
15871,-12.7
15883,-13.02
15895,-5.16
15907,7.66
15918,20.58
15929,29.14
15941,31.08
15953,26.94
15965,19.45
15977,11.97
15989,7.25
16001,6.48
16013,9.39
16025,14.99
16037,22.07
16049,29.56
16061,36.23
16073,40.39
16085,40.19
16097,34.51
16108,23.96
16119,11.29
16131,0.59
16143,-4.83
16155,-4.03
16167,1.17
16179,7.07
16191,10.0
16203,7.78
16215,0.53
16227,-9.77
16239,-19.92
16251,-26.71
16263,-28.03
16275,-23.53
16287,-15.15
16298,-6.37
16309,-0.89
16321,-0.64
16333,-4.62
16345,-9.12
16357,-9.58
16369,-3.25
16381,8.98
16393,22.39
16405,30.78
16417,29.3
16429,17.0
16441,-2.77
16453,-23.82
16465,-39.9
16477,-47.18
16488,-45.44
16499,-37.56
16511,-27.37
16523,-17.77
16535,-9.91
16547,-3.3
16559,2.88
16571,8.89
16583,14.32
16595,18.48
16607,20.99
16619,21.97
16631,21.6
16643,19.59
16655,15.3
16667,8.1
16678,-1.59
16689,-11.89
16701,-19.78
16713,-22.04
16725,-16.58
16737,-3.44
16749,14.97
16761,34.64
16773,50.88
16785,59.83
16797,59.37
16809,49.74
16821,33.38
16833,14.33
16845,-2.72
16857,-13.62
16868,-15.67
16879,-8.78
16891,4.08
16903,17.41
16915,24.87
16927,21.88
16939,7.67
16951,-14.13
16963,-37.07
16975,-54.72
16987,-63.13
16999,-61.99
17011,-53.94
17023,-42.95
17035,-32.73
17047,-26.23
17058,-25.29
17069,-30.45
17081,-40.47
17093,-52.24
17105,-61.51
17117,-64.48
17129,-59.65
17141,-48.32
17153,-33.98
17165,-20.02
17177,-8.15
17189,1.85
17201,11.09
17213,19.94
17225,27.41
17237,31.71
17248,31.64
17259,27.56
17271,21.36
17283,15.27
17295,10.57
17307,7.0
17319,3.13
17331,-2.36
17343,-9.66
17355,-17.73
17367,-24.87
17379,-29.7
17391,-32.15
17403,-33.28
17415,-34.4
17427,-36.23
17438,-38.34
17449,-39.56
17461,-38.82
17473,-36.01
17485,-31.91
17497,-27.47
17509,-22.78
17521,-16.67
17533,-7.57
17545,5.18
17557,20.32
17569,34.79
17581,44.93
17593,48.27
17605,44.56
17617,35.91
17628,25.82
17639,17.81
17651,14.06
17663,14.77
17675,18.15
17687,21.13
17699,20.66
17711,15.0
17723,4.47
17735,-8.78
17747,-21.75
17759,-31.97
17771,-38.24
17783,-40.88
17795,-40.96
17807,-39.87
17818,-39.03
17829,-39.74
17841,-43.22
17853,-50.36
17865,-61.12
17877,-74.26
17889,-87.14
17901,-96.33
17913,-98.69
17925,-92.66
17937,-79.17
17949,-61.55
17961,-44.48
17973,-32.23
17985,-26.99
17997,-27.88
18008,-31.77
18019,-34.59
18031,-33.14
18043,-26.26
18055,-14.95
18067,-1.72
18079,10.41
18091,18.73
18103,21.6
18115,18.59
18127,10.82
18139,0.41
18151,-10.0
18163,-18.25
18175,-23.3
18187,-25.33
18198,-25.35
18209,-24.38
18221,-22.99
18233,-21.22
18245,-18.69
18257,-14.82
18269,-8.69
18281,0.82
18293,14.66
18305,32.58
18317,52.73
18329,71.82
18341,86.47
18353,94.98
18365,98.46
18377,100.61
18388,105.57
18399,115.74
18411,129.95
18423,143.92
18435,152.41
18447,151.91
18459,142.25
18471,126.17
18483,107.59
18495,89.46
18507,73.17
18519,58.95
18531,46.89
18543,37.44
18555,30.74
18567,25.96
18578,21.37
18589,15.52
18601,8.57
18613,2.77
18625,0.96
18637,4.57
18649,12.41
18661,20.98
18673,26.62
18685,27.37
18697,23.24
18709,15.06
18721,3.08
18733,-13.4
18745,-34.34
18757,-57.22
18768,-76.81
18779,-86.97
18791,-84.13
18803,-69.91
18815,-50.76
18827,-34.72
18839,-27.44
18851,-29.46
18863,-36.4
18875,-41.78
18887,-40.3
18899,-29.95
18911,-12.21
18923,9.29
18935,30.45
18947,47.64
18958,58.32
18969,60.92
18981,54.97
18993,41.26
19005,22.14
19017,1.16
19029,-17.24
19041,-28.85
19053,-31.07
19065,-23.83
19077,-9.98
19089,5.33
19101,16.49
19113,19.55
19125,14.17
19137,3.87
19148,-5.36
19159,-8.02
19171,-1.9
19183,10.55
19195,23.36
19207,30.05
19219,26.93
19231,15.07
19243,-0.55
19255,-13.57
19267,-19.65
19279,-18.28
19291,-12.11
19303,-4.49
19315,2.95
19327,11.16
19338,22.45
19349,38.19
19361,57.28
19373,76.28
19385,91.36
19397,100.52
19409,104.51
19421,106.0
19433,107.47
19445,109.6
19457,111.06
19469,109.77
19481,104.57
19493,95.93
19505,85.35
19517,74.0
19528,61.75
19539,47.27
19551,29.24
19563,7.43
19575,-16.47
19587,-39.2
19599,-57.26
19611,-68.06
19623,-70.91
19635,-66.97
19647,-58.66
19659,-48.81
19671,-39.98
19683,-33.89
19695,-31.09
19707,-31.3
19718,-33.58
19729,-36.92
19741,-40.31
19753,-42.45
19765,-41.63
19777,-36.05
19789,-25.04
19801,-10.4
19813,3.45
19825,11.27
19837,9.62
19849,-0.79
19861,-14.99
19873,-26.61
19885,-31.94
19897,-32.28
19908,-33.01
19919,-39.5
19931,-52.55
19943,-67.2
19955,-75.48
19967,-71.47
19979,-55.26
19991,-33.03
20003,-13.01
20015,-0.7
20027,3.76
20039,4.14
20051,4.1
20063,4.1
20075,1.1
20087,-8.97
20098,-27.4
20109,-50.84
20121,-72.47
20133,-85.4
20145,-86.07
20157,-75.82
20169,-59.77
20181,-44.37
20193,-34.59
20205,-32.61
20217,-38.16
20229,-49.54
20241,-64.55
20253,-80.67
20265,-95.13
20277,-105.38
20288,-109.97
20299,-109.39
20311,-105.97
20323,-102.86
20335,-102.3
20347,-104.33
20359,-106.83
20371,-107.0
20383,-102.81
20395,-93.75
20407,-80.11
20419,-61.85
20431,-38.51
20443,-10.01
20455,21.71
20467,52.29
20478,76.1
20489,88.99
20501,90.44
20513,83.7
20525,74.09
20537,66.02
20549,61.05
20561,57.5
20573,52.1
20585,42.35
20597,28.15
20609,11.84
20621,-2.95
20633,-12.88
20645,-16.17
20657,-12.87
20668,-4.6
20679,6.31
20691,17.79
20703,28.14
20715,36.14
20727,40.83
20739,41.56
20751,37.99
20763,30.37
20775,19.2
20787,5.17
20799,-10.53
20811,-26.38
20823,-40.25
20835,-49.21
20847,-50.03
20858,-40.69
20869,-21.88
20881,1.96
20893,23.46
20905,35.8
20917,35.37
20929,23.76
20941,7.19
20953,-6.34
20965,-10.85
20977,-4.95
20989,7.27
