seconds,BVP
9,3.82
21,-0.89
33,-6.3
45,-11.34
57,-15.03
69,-16.74
81,-16.46
93,-14.63
105,-11.98
117,-9.13
129,-6.41
141,-3.84
152,-1.27
163,1.36
175,3.96
187,6.27
199,8.0
211,9.02
223,9.34
235,9.2
247,8.87
259,8.55
271,8.23
283,7.78
295,6.97
307,5.68
319,4.08
331,2.46
342,1.13
353,0.2
365,-0.47
377,-1.26
389,-2.46
401,-4.2
413,-6.35
425,-8.62
437,-10.75
449,-12.6
461,-14.07
473,-14.99
485,-14.99
497,-13.6
509,-10.5
521,-5.73
532,0.22
543,6.55
555,12.45
567,17.31
579,20.84
591,23.12
603,24.32
615,24.62
627,24.16
639,23.01
651,21.16
663,18.63
675,15.45
687,11.73
699,7.74
711,3.82
722,0.29
733,-2.76
745,-5.55
757,-8.49
769,-12.04
781,-16.28
793,-20.95
805,-25.5
817,-29.39
829,-32.45
841,-34.89
853,-37.17
865,-39.63
877,-42.2
889,-44.28
901,-45.08
912,-43.92
923,-40.63
935,-35.61
947,-29.69
959,-23.77
971,-18.44
983,-13.84
995,-9.71
1007,-5.64
1019,-1.27
1031,3.61
1043,8.95
1055,14.6
1067,20.31
1079,25.72
1091,30.5
1102,34.4
1113,37.26
1125,39.08
1137,39.97
1149,40.11
1161,39.68
1173,38.94
1185,38.15
1197,37.58
1209,37.36
1221,37.44
1233,37.56
1245,37.31
1257,36.4
1269,34.78
1281,32.73
1292,30.62
1303,28.72
1315,27.08
1327,25.59
1339,24.11
1351,22.64
1363,21.25
1375,20.09
1387,19.2
1399,18.42
1411,17.56
1423,16.41
1435,14.95
1447,13.3
1459,11.62
1471,9.99
1482,8.44
1493,6.9
1505,5.22
1517,3.33
1529,1.18
1541,-1.23
1553,-3.8
1565,-6.48
1577,-9.21
1589,-11.88
1601,-14.44
1613,-16.8
1625,-18.85
1637,-20.49
1649,-21.76
1661,-22.79
1672,-23.8
1683,-25.02
1695,-26.55
1707,-28.25
1719,-29.81
1731,-30.76
1743,-30.7
1755,-29.37
1767,-26.75
1779,-23.06
1791,-18.63
1803,-13.94
1815,-9.35
1827,-5.24
1839,-1.71
1851,1.19
1862,3.52
1873,5.39
1885,6.94
1897,8.26
1909,9.44
1921,10.61
1933,11.81
1945,13.07
1957,14.33
1969,15.49
1981,16.49
1993,17.32
2005,18.05
2017,18.75
2029,19.46
2041,20.11
2052,20.58
2063,20.68
2075,20.3
2087,19.5
2099,18.37
2111,17.15
2123,16.03
2135,15.12
2147,14.43
2159,13.91
2171,13.45
2183,12.9
2195,12.21
2207,11.36
2219,10.38
2231,9.37
2242,8.36
2253,7.34
2265,6.26
2277,4.97
2289,3.42
2301,1.61
2313,-0.41
2325,-2.53
2337,-4.73
2349,-7.01
2361,-9.51
2373,-12.35
2385,-15.69
2397,-19.54
2409,-23.76
2421,-27.97
2432,-31.64
2443,-34.16
2455,-35.07
2467,-34.17
2479,-31.62
2491,-27.9
2503,-23.59
2515,-19.23
2527,-15.15
2539,-11.43
2551,-8.0
2563,-4.73
2575,-1.51
2587,1.7
2599,4.89
2611,8.03
2622,11.07
2633,13.96
2645,16.64
2657,19.02
2669,21.04
2681,22.63
2693,23.72
2705,24.26
2717,24.32
2729,24.01
2741,23.6
2753,23.37
2765,23.46
2777,23.85
2789,24.23
2801,24.22
2812,23.49
2823,22.01
2835,19.94
2847,17.66
2859,15.47
2871,13.42
2883,11.46
2895,9.42
2907,7.23
2919,5.03
2931,3.1
2943,1.67
2955,0.82
2967,0.39
2979,0.09
2991,-0.37
3002,-1.16
3013,-2.27
3025,-3.55
3037,-4.81
3049,-6.06
3061,-7.39
3073,-9.08
3085,-11.41
3097,-14.49
3109,-18.32
3121,-22.62
3133,-27.0
3145,-31.08
3157,-34.56
3169,-37.19
3181,-38.77
3192,-39.11
3203,-38.02
3215,-35.5
3227,-31.71
3239,-27.01
3251,-21.86
3263,-16.72
3275,-11.85
3287,-7.34
3299,-3.16
3311,0.8
3323,4.64
3335,8.35
3347,11.83
3359,14.96
3371,17.55
3382,19.48
3393,20.74
3405,21.39
3417,21.58
3429,21.45
3441,21.11
3453,20.59
3465,19.92
3477,19.14
3489,18.31
3501,17.55
3513,16.91
3525,16.37
3537,15.88
3549,15.33
3561,14.69
3572,13.94
3583,13.07
3595,12.08
3607,10.89
3619,9.54
3631,8.06
3643,6.64
3655,5.43
3667,4.6
3679,4.18
3691,4.08
3703,4.1
3715,4.01
3727,3.69
3739,3.1
3751,2.36
3762,1.58
3773,0.81
3785,0.07
3797,-0.74
3809,-1.78
3821,-3.23
3833,-5.16
3845,-7.61
3857,-10.47
3869,-13.59
3881,-16.75
3893,-19.74
3905,-22.46
3917,-24.89
3929,-27.1
3941,-29.21
3952,-31.31
3963,-33.41
3975,-35.42
3987,-37.24
3999,-38.61
4011,-39.31
4023,-39.14
4035,-37.9
4047,-35.6
4059,-32.36
4071,-28.45
4083,-24.16
4095,-19.78
4107,-15.46
4119,-11.19
4131,-6.97
4142,-2.82
4153,1.13
4165,4.67
4177,7.64
4189,10.0
4201,11.83
4213,13.34
4225,14.75
4237,16.13
4249,17.44
4261,18.54
4273,19.24
4285,19.55
4297,19.56
4309,19.36
4321,19.03
4332,18.51
4343,17.68
4355,16.46
4367,14.91
4379,13.25
4391,11.84
4403,10.95
4415,10.67
4427,10.84
4439,11.18
4451,11.33
4463,11.1
4475,10.46
4487,9.5
4499,8.32
4511,7.01
4522,5.53
4533,3.8
4545,1.82
4557,-0.4
4569,-2.76
4581,-5.14
4593,-7.52
4605,-9.97
4617,-12.65
4629,-15.66
4641,-19.02
4653,-22.61
4665,-26.22
4677,-29.6
4689,-32.59
4701,-35.22
4712,-37.55
4723,-39.75
4735,-41.95
4747,-44.04
4759,-45.78
4771,-46.85
4783,-46.91
4795,-45.81
4807,-43.59
4819,-40.43
4831,-36.54
4843,-32.07
4855,-27.09
4867,-21.65
4879,-15.87
4891,-9.92
4902,-4.1
4913,1.3
4925,6.01
4937,9.86
4949,12.8
4961,14.91
4973,16.38
4985,17.45
4997,18.35
5009,19.22
5021,20.09
5033,20.91
5045,21.67
5057,22.35
5069,22.99
5081,23.55
5092,23.91
5103,23.9
5115,23.42
5127,22.58
5139,21.64
5151,20.93
5163,20.64
5175,20.76
5187,21.02
5199,21.06
5211,20.61
5223,19.54
5235,17.95
5247,16.04
5259,14.07
5271,12.31
5282,10.96
5293,10.08
5305,9.54
5317,9.19
5329,8.74
5341,7.99
5353,6.82
5365,5.23
5377,3.29
5389,1.07
5401,-1.34
5413,-3.87
5425,-6.43
5437,-8.97
5449,-11.6
5461,-14.49
5472,-17.84
5483,-21.71
5495,-25.88
5507,-29.87
5519,-33.07
5531,-34.95
5543,-35.21
5555,-33.84
5567,-31.04
5579,-27.2
5591,-22.7
5603,-17.9
5615,-13.11
5627,-8.49
5639,-4.15
5651,-0.05
5662,3.86
5673,7.6
5685,11.08
5697,14.14
5709,16.64
5721,18.49
5733,19.72
5745,20.45
5757,20.85
5769,21.1
5781,21.3
5793,21.51
5805,21.65
5817,21.66
5829,21.45
5841,21.02
5852,20.43
5863,19.77
5875,19.15
5887,18.55
5899,17.93
5911,17.19
5923,16.28
5935,15.18
5947,13.89
5959,12.46
5971,10.87
5983,9.15
5995,7.31
6007,5.41
6019,3.5
6031,1.68
6042,0.02
6053,-1.42
6065,-2.57
6077,-3.48
6089,-4.24
6101,-5.03
6113,-6.01
6125,-7.22
6137,-8.65
6149,-10.16
6161,-11.64
6173,-13.02
6185,-14.31
6197,-15.53
6209,-16.75
6221,-18.05
6232,-19.51
6243,-21.26
6255,-23.35
6267,-25.72
6279,-28.12
6291,-30.14
6303,-31.35
6315,-31.46
6327,-30.45
6339,-28.51
6351,-26.0
6363,-23.22
6375,-20.36
6387,-17.44
6399,-14.36
6411,-11.01
6422,-7.37
6433,-3.51
6445,0.36
6457,3.98
6469,7.05
6481,9.37
6493,10.88
6505,11.72
6517,12.12
6529,12.35
6541,12.64
6553,13.01
6565,13.4
6577,13.76
6589,14.1
6601,14.53
6612,15.12
6623,15.87
6635,16.73
6647,17.56
6659,18.24
6671,18.65
6683,18.76
6695,18.53
6707,17.93
6719,16.95
6731,15.68
6743,14.29
6755,13.03
6767,12.11
6779,11.58
6791,11.4
6802,11.34
6813,11.18
6825,10.71
6837,9.76
6849,8.21
6861,5.98
6873,3.1
6885,-0.23
6897,-3.65
6909,-6.74
6921,-9.21
6933,-11.02
6945,-12.55
6957,-14.42
6969,-17.29
6981,-21.45
6992,-26.75
7003,-32.57
7015,-37.95
7027,-42.05
7039,-44.25
7051,-44.48
7063,-43.01
7075,-40.33
7087,-36.85
7099,-32.92
7111,-28.71
7123,-24.3
7135,-19.83
7147,-15.36
7159,-10.96
7171,-6.59
7182,-2.23
7193,2.17
7205,6.53
7217,10.66
7229,14.34
7241,17.37
7253,19.7
7265,21.41
7277,22.67
7289,23.63
7301,24.37
7313,24.93
7325,25.27
7337,25.35
7349,25.09
7361,24.52
7372,23.75
7383,22.91
7395,22.11
7407,21.38
7419,20.67
7431,19.81
7443,18.73
7455,17.37
7467,15.77
7479,14.03
7491,12.17
7503,10.16
7515,8.0
7527,5.75
7539,3.49
7551,1.38
7562,-0.51
7573,-2.2
7585,-3.84
7597,-5.7
7609,-8.0
7621,-10.81
7633,-14.04
7645,-17.48
7657,-20.89
7669,-24.12
7681,-27.1
7693,-29.83
7705,-32.26
7717,-34.33
7729,-35.89
7741,-36.86
7752,-37.23
7763,-37.08
7775,-36.47
7787,-35.25
7799,-33.13
7811,-29.7
7823,-24.8
7835,-18.58
7847,-11.58
7859,-4.58
7871,1.6
7883,6.35
7895,9.26
7907,10.19
7919,9.24
7931,6.74
7942,3.24
7953,-0.54
7965,-3.83
7977,-6.02
7989,-6.79
8001,-6.18
8013,-4.48
8025,-2.05
8037,0.81
8049,3.92
8061,7.21
8073,10.55
8085,13.84
8097,16.93
8109,19.71
8121,22.16
8132,24.32
8143,26.25
8155,27.93
8167,29.33
8179,30.31
8191,30.84
8203,30.95
8215,30.72
8227,30.28
8239,29.7
8251,28.96
8263,27.97
8275,26.66
8287,25.0
8299,23.02
8311,20.82
8322,18.54
8333,16.35
8345,14.39
8357,12.75
8369,11.39
8381,10.18
8393,8.97
8405,7.57
8417,5.75
8429,3.4
8441,0.5
8453,-2.82
8465,-6.33
8477,-9.77
8489,-12.99
8501,-15.9
8512,-18.61
8523,-21.3
8535,-24.15
8547,-27.31
8559,-30.8
8571,-34.46
8583,-37.89
8595,-40.58
8607,-41.95
8619,-41.67
8631,-39.77
8643,-36.66
8655,-32.94
8667,-29.12
8679,-25.4
8691,-21.64
8702,-17.56
8713,-12.91
8725,-7.73
8737,-2.32
8749,2.76
8761,6.87
8773,9.44
8785,10.14
8797,9.08
8809,6.81
8821,4.27
8833,2.49
8845,2.25
8857,3.8
8869,6.81
8881,10.59
8892,14.34
8903,17.42
8915,19.39
8927,20.11
8939,19.61
8951,18.15
8963,16.11
8975,13.99
8987,12.18
8999,10.91
9011,10.04
9023,9.24
9035,8.27
9047,7.06
9059,5.8
9071,4.76
9082,4.07
9093,3.62
9105,3.15
9117,2.35
9129,1.06
9141,-0.65
9153,-2.53
9165,-4.35
9177,-5.98
9189,-7.48
9201,-8.99
9213,-10.66
9225,-12.61
9237,-14.76
9249,-16.89
9261,-18.68
9272,-19.76
9283,-19.71
9295,-18.23
9307,-15.08
9319,-10.17
9331,-3.66
9343,4.09
9355,12.46
9367,20.65
9379,27.91
9391,33.68
9403,37.75
9415,40.3
9427,41.74
9439,42.55
9451,43.04
9462,43.3
9473,43.24
9485,42.74
9497,41.73
9509,40.32
9521,38.69
9533,37.04
9545,35.5
9557,34.09
9569,32.69
9581,31.14
9593,29.26
9605,26.86
9617,23.92
9629,20.5
9641,16.85
9652,13.3
9663,10.12
9675,7.44
9687,5.25
9699,3.46
9711,1.9
9723,0.45
9735,-1.0
9747,-2.54
9759,-4.24
9771,-6.13
9783,-8.2
9795,-10.35
9807,-12.34
9819,-14.01
9831,-15.18
9842,-15.83
9853,-16.01
9865,-15.92
9877,-15.89
9889,-16.29
9901,-17.52
9913,-19.77
9925,-23.04
9937,-27.09
9949,-31.55
9961,-36.16
9973,-40.73
9985,-45.09
9997,-48.94
10009,-51.8
10021,-53.01
10032,-52.08
10043,-48.88
10055,-43.87
10067,-37.88
10079,-31.85
10091,-26.45
10103,-21.91
10115,-18.09
10127,-14.6
10139,-11.12
10151,-7.47
10163,-3.7
10175,0.09
10187,3.76
10199,7.21
10211,10.27
10222,12.79
10233,14.63
10245,15.73
10257,16.14
10269,16.06
10281,15.69
10293,15.15
10305,14.5
10317,13.66
10329,12.61
10341,11.43
10353,10.32
10365,9.49
10377,9.03
10389,8.94
10401,9.04
10412,9.16
10423,9.2
10435,9.1
10447,8.86
10459,8.45
10471,7.87
10483,7.06
10495,6.0
10507,4.69
10519,3.13
10531,1.34
10543,-0.7
10555,-2.99
10567,-5.52
10579,-8.19
10591,-10.86
10602,-13.39
10613,-15.67
10625,-17.71
10637,-19.6
10649,-21.47
10661,-23.5
10673,-25.77
10685,-28.21
10697,-30.61
10709,-32.56
10721,-33.6
10733,-33.35
10745,-31.66
10757,-28.64
10769,-24.64
10781,-20.14
10792,-15.58
10803,-11.23
10815,-7.19
10827,-3.4
10839,0.19
10851,3.56
10863,6.54
10875,8.9
10887,10.52
10899,11.41
10911,11.78
10923,11.96
10935,12.22
10947,12.76
10959,13.54
10971,14.54
10982,15.66
10993,16.95
11005,18.48
11017,20.27
11029,22.18
11041,23.83
11053,24.78
11065,24.68
11077,23.4
11089,21.15
11101,18.3
11113,15.23
11125,12.13
11137,9.05
11149,5.92
11161,2.75
11172,-0.35
11183,-3.19
11195,-5.55
11207,-7.4
11219,-8.82
11231,-10.03
11243,-11.22
11255,-12.66
11267,-14.55
11279,-17.06
11291,-20.27
11303,-24.13
11315,-28.34
11327,-32.46
11339,-36.01
11351,-38.49
11362,-39.57
11373,-39.01
11385,-36.76
11397,-32.91
11409,-27.79
11421,-21.88
11433,-15.77
11445,-9.91
11457,-4.59
11469,0.18
11481,4.5
11493,8.5
11505,12.17
11517,15.38
11529,18.02
11541,20.07
11552,21.65
11563,22.94
11575,24.02
11587,24.83
11599,25.16
11611,24.82
11623,23.71
11635,22.01
11647,20.04
11659,18.18
11671,16.7
11683,15.69
11695,15.08
11707,14.66
11719,14.18
11731,13.38
11742,12.13
11753,10.38
11765,8.18
11777,5.6
11789,2.74
11801,-0.36
11813,-3.64
11825,-6.99
11837,-10.23
11849,-13.1
11861,-15.43
11873,-17.31
11885,-19.06
11897,-21.14
11909,-23.96
11921,-27.63
11932,-31.83
11943,-36.0
11955,-39.44
11967,-41.59
11979,-42.17
11991,-41.13
12003,-38.57
12015,-34.64
12027,-29.54
12039,-23.44
12051,-16.63
12063,-9.47
12075,-2.42
12087,4.04
12099,9.57
12111,13.98
12122,17.3
12133,19.68
12145,21.43
12157,22.79
12169,23.97
12181,25.07
12193,26.05
12205,26.83
12217,27.36
12229,27.67
12241,27.87
12253,28.08
12265,28.35
12277,28.72
12289,29.13
12301,29.45
12312,29.58
12323,29.43
12335,28.9
12347,27.95
12359,26.59
12371,24.89
12383,22.94
12395,20.93
12407,18.89
12419,16.92
12431,14.98
12443,13.09
12455,11.26
12467,9.49
12479,7.78
12491,6.03
12502,4.11
12513,1.91
12525,-0.69
12537,-3.66
12549,-6.95
12561,-10.35
12573,-13.74
12585,-17.05
12597,-20.36
12609,-23.87
12621,-27.81
12633,-32.31
12645,-37.36
12657,-42.65
12669,-47.59
12681,-51.54
12692,-53.82
12703,-53.99
12715,-51.9
12727,-47.75
12739,-42.03
12751,-35.36
12763,-28.38
12775,-21.47
12787,-14.82
12799,-8.39
12811,-2.14
12823,3.93
12835,9.64
12847,14.73
12859,19.0
12871,22.32
12882,24.72
12893,26.32
12905,27.28
12917,27.78
12929,28.0
12941,28.14
12953,28.47
12965,29.16
12977,30.29
12989,31.76
13001,33.34
13013,34.74
13025,35.69
13037,36.03
13049,35.74
13061,34.9
13072,33.67
13083,32.23
13095,30.79
13107,29.58
13119,28.7
13131,28.16
13143,27.7
13155,26.94
13167,25.5
13179,23.23
13191,20.2
13203,16.75
13215,13.34
13227,10.27
13239,7.68
13251,5.49
13262,3.63
13273,2.07
13285,0.89
13297,0.1
13309,-0.39
13321,-0.96
13333,-2.02
13345,-3.79
13357,-6.18
13369,-8.68
13381,-10.69
13393,-11.82
13405,-12.12
13417,-12.04
13429,-12.24
13441,-13.24
13452,-15.17
13463,-17.86
13475,-20.99
13487,-24.31
13499,-27.75
13511,-31.26
13523,-34.66
13535,-37.61
13547,-39.62
13559,-40.22
13571,-39.14
13583,-36.45
13595,-32.38
13607,-27.36
13619,-21.76
13631,-15.9
13642,-10.01
13653,-4.29
13665,1.04
13677,5.78
13689,9.71
13701,12.79
13713,15.07
13725,16.75
13737,18.1
13749,19.35
13761,20.65
13773,21.97
13785,23.24
13797,24.35
13809,25.26
13821,26.0
13832,26.63
13843,27.18
13855,27.64
13867,27.97
13879,28.05
13891,27.8
13903,27.18
13915,26.19
13927,24.88
13939,23.32
13951,21.53
13963,19.53
13975,17.22
13987,14.54
13999,11.49
14011,8.15
14022,4.7
14033,1.37
14045,-1.72
14057,-4.55
14069,-7.22
14081,-9.86
14093,-12.64
14105,-15.6
14117,-18.82
14129,-22.3
14141,-26.01
14153,-29.83
14165,-33.46
14177,-36.46
14189,-38.32
14201,-38.63
14212,-37.23
14223,-34.25
14235,-30.03
14247,-24.96
14259,-19.43
14271,-13.67
14283,-7.86
14295,-2.25
14307,2.86
14319,7.16
14331,10.43
14343,12.63
14355,13.95
14367,14.66
14379,15.08
14391,15.43
14402,15.82
14413,16.28
14425,16.82
14437,17.39
14449,17.92
14461,18.34
14473,18.5
14485,18.33
14497,17.84
14509,17.03
14521,15.93
14533,14.56
14545,12.88
14557,10.81
14569,8.31
14581,5.38
14592,2.1
14603,-1.4
14615,-4.96
14627,-8.4
14639,-11.68
14651,-14.82
14663,-17.87
14675,-20.87
14687,-23.76
14699,-26.35
14711,-28.32
14723,-29.34
14735,-29.19
14747,-27.78
14759,-25.23
14771,-21.74
14782,-17.54
14793,-12.87
14805,-7.96
14817,-3.02
14829,1.7
14841,5.93
14853,9.46
14865,12.1
14877,13.81
14889,14.61
14901,14.65
14913,14.12
14925,13.27
14937,12.34
14949,11.51
14961,10.91
14972,10.61
14983,10.6
14995,10.82
15007,11.08
15019,11.11
15031,10.61
15043,9.39
15055,7.35
15067,4.62
15079,1.46
15091,-1.89
15103,-5.22
15115,-8.48
15127,-11.67
15139,-14.8
15151,-17.85
15162,-20.83
15173,-23.77
15185,-26.75
15197,-29.75
15209,-32.59
15221,-34.84
15233,-35.94
15245,-35.41
15257,-33.02
15269,-28.96
15281,-23.67
15293,-17.75
15305,-11.72
15317,-5.88
15329,-0.37
15341,4.79
15352,9.52
15363,13.66
15375,17.0
15387,19.35
15399,20.6
15411,20.79
15423,20.08
15435,18.72
15447,17.03
15459,15.3
15471,13.81
15483,12.73
15495,12.07
15507,11.68
15519,11.34
15531,10.76
15542,9.75
15553,8.19
15565,6.09
15577,3.51
15589,0.55
15601,-2.64
15613,-5.87
15625,-8.9
15637,-11.56
15649,-13.88
15661,-16.05
15673,-18.45
15685,-21.29
15697,-24.43
15709,-27.32
15721,-29.14
15732,-29.15
15743,-27.06
15755,-23.13
15767,-18.03
15779,-12.55
15791,-7.21
15803,-2.19
15815,2.64
15827,7.47
15839,12.26
15851,16.7
15863,20.3
15875,22.59
15887,23.32
15899,22.58
15911,20.75
15922,18.35
15933,15.89
15945,13.64
15957,11.63
15969,9.76
15981,7.85
15993,5.9
16005,4.05
16017,2.54
16029,1.53
16041,1.05
16053,0.86
16065,0.6
16077,-0.03
16089,-1.19
16101,-2.82
16112,-4.66
16123,-6.39
16135,-7.85
16147,-9.08
16159,-10.3
16171,-11.86
16183,-14.03
16195,-16.97
16207,-20.63
16219,-24.76
16231,-29.0
16243,-32.84
16255,-35.81
16267,-37.37
16279,-37.1
16291,-34.73
16302,-30.28
16313,-23.98
16325,-16.33
16337,-7.95
16349,0.55
16361,8.66
16373,16.1
16385,22.76
16397,28.71
16409,33.98
16421,38.54
16433,42.33
16445,45.19
16457,47.06
16469,47.98
16481,48.07
16492,47.46
16503,46.34
16515,44.92
16527,43.43
16539,42.18
16551,41.41
16563,41.29
16575,41.77
16587,42.61
16599,43.34
16611,43.46
16623,42.58
16635,40.53
16647,37.46
16659,33.69
16671,29.82
16682,26.37
16693,23.73
16705,22.05
16717,21.1
16729,20.57
16741,20.0
16753,19.12
16765,17.72
16777,15.76
16789,13.24
16801,10.21
16813,6.75
16825,3.02
16837,-0.75
16849,-4.29
16861,-7.34
16872,-9.72
16883,-11.36
16895,-12.3
16907,-12.67
16919,-12.7
16931,-12.71
16943,-13.06
16955,-14.01
16967,-15.68
16979,-17.97
16991,-20.56
17003,-23.12
17015,-25.42
17027,-27.4
17039,-29.2
17051,-31.08
17062,-33.16
17073,-35.5
17085,-37.93
17097,-40.22
17109,-41.97
17121,-42.81
17133,-42.43
17145,-40.64
17157,-37.53
17169,-33.32
17181,-28.44
17193,-23.32
17205,-18.27
17217,-13.46
17229,-8.94
17241,-4.67
17252,-0.71
17263,2.83
17275,5.81
17287,8.14
17299,9.78
17311,10.83
17323,11.36
17335,11.53
17347,11.46
17359,11.23
17371,10.83
17383,10.28
17395,9.56
17407,8.73
17419,7.89
17431,7.13
17442,6.5
17453,5.95
17465,5.42
17477,4.78
17489,4.05
17501,3.32
17513,2.76
17525,2.5
17537,2.52
17549,2.69
17561,2.85
17573,2.85
17585,2.57
17597,1.89
17609,0.73
17621,-1.0
17632,-3.23
17643,-5.81
17655,-8.39
17667,-10.67
17679,-12.43
17691,-13.69
17703,-14.69
17715,-15.77
17727,-17.17
17739,-19.03
17751,-21.33
17763,-23.91
17775,-26.59
17787,-29.08
17799,-31.06
17811,-32.14
17822,-32.0
17833,-30.46
17845,-27.49
17857,-23.36
17869,-18.39
17881,-12.98
17893,-7.4
17905,-1.8
17917,3.76
17929,9.2
17941,14.43
17953,19.27
17965,23.48
17977,26.83
17989,29.2
18001,30.56
18012,30.99
18023,30.69
18035,29.87
18047,28.71
18059,27.37
18071,25.94
18083,24.47
18095,22.93
18107,21.29
18119,19.52
18131,17.55
18143,15.42
18155,13.13
18167,10.77
18179,8.37
18191,6.03
18202,3.81
18213,1.78
18225,-0.02
18237,-1.53
18249,-2.71
18261,-3.58
18273,-4.16
18285,-4.59
18297,-5.02
18309,-5.67
18321,-6.75
18333,-8.38
18345,-10.52
18357,-12.94
18369,-15.3
18381,-17.14
18392,-18.11
18403,-17.99
18415,-16.77
18427,-14.63
18439,-11.83
18451,-8.63
18463,-5.32
18475,-2.13
18487,0.74
18499,3.24
18511,5.39
18523,7.32
18535,9.09
18547,10.7
18559,11.96
18571,12.66
18582,12.72
18593,12.24
18605,11.5
18617,10.77
18629,10.23
18641,9.84
18653,9.49
18665,9.09
18677,8.68
18689,8.4
18701,8.29
18713,8.27
18725,8.12
18737,7.68
18749,6.91
18761,6.01
18772,5.28
18783,4.98
18795,5.25
18807,5.98
18819,6.98
18831,8.0
18843,8.79
18855,9.08
18867,8.69
18879,7.55
18891,5.74
18903,3.46
18915,1.01
18927,-1.37
18939,-3.48
18951,-5.24
18962,-6.73
18973,-8.04
18985,-9.27
18997,-10.52
19009,-11.81
19021,-13.09
19033,-14.29
19045,-15.33
19057,-16.23
19069,-17.13
19081,-18.25
19093,-19.81
19105,-21.87
19117,-24.16
19129,-26.2
19141,-27.42
19152,-27.41
19163,-26.03
19175,-23.52
19187,-20.25
19199,-16.7
19211,-13.18
19223,-9.83
19235,-6.7
19247,-3.73
19259,-0.99
19271,1.47
19283,3.53
19295,5.16
19307,6.42
19319,7.42
19331,8.33
19342,9.3
19353,10.34
19365,11.35
19377,12.12
19389,12.48
19401,12.4
19413,11.97
19425,11.36
19437,10.79
19449,10.36
19461,10.08
19473,9.91
19485,9.74
19497,9.53
19509,9.23
19521,8.81
19532,8.2
19543,7.4
19555,6.38
19567,5.19
19579,3.87
19591,2.45
19603,0.92
19615,-0.76
19627,-2.53
19639,-4.32
19651,-5.9
19663,-7.12
19675,-7.91
19687,-8.35
19699,-8.6
19711,-8.87
19722,-9.29
19733,-9.83
19745,-10.39
19757,-10.86
19769,-11.16
19781,-11.27
19793,-11.25
19805,-11.19
19817,-11.26
19829,-11.65
19841,-12.57
19853,-14.19
19865,-16.49
19877,-19.27
19889,-22.05
19901,-24.26
19912,-25.43
19923,-25.29
19935,-23.96
19947,-21.77
19959,-19.2
19971,-16.6
19983,-14.23
19995,-12.13
20007,-10.16
20019,-8.12
20031,-5.86
20043,-3.32
20055,-0.58
20067,2.1
20079,4.54
20091,6.5
20102,7.97
20113,9.08
20125,10.1
20137,11.21
20149,12.52
20161,13.94
20173,15.21
20185,16.17
20197,16.68
20209,16.78
20221,16.57
20233,16.15
20245,15.58
20257,14.78
20269,13.72
20281,12.31
20292,10.67
20303,8.93
20315,7.3
20327,5.91
20339,4.79
20351,3.85
20363,2.95
20375,1.99
20387,0.92
20399,-0.23
20411,-1.43
20423,-2.6
20435,-3.74
20447,-4.83
20459,-5.83
20471,-6.73
20482,-7.48
20493,-8.21
20505,-9.01
20517,-10.07
20529,-11.43
20541,-13.04
20553,-14.76
20565,-16.42
20577,-17.96
20589,-19.42
20601,-20.96
20613,-22.69
20625,-24.62
20637,-26.63
20649,-28.49
20661,-29.96
20672,-30.79
20683,-30.78
20695,-29.8
20707,-27.76
20719,-24.66
20731,-20.67
20743,-16.15
20755,-11.51
20767,-7.17
20779,-3.36
20791,-0.14
20803,2.62
20815,5.12
20827,7.47
20839,9.66
20851,11.5
20862,12.9
20873,13.76
20885,14.21
20897,14.39
20909,14.53
20921,14.72
20933,15.03
20945,15.41
20957,15.75
20969,16.05
20981,16.26
20993,16.39
