seconds,BVP
7,-28.34
19,-29.36
31,-30.7
43,-32.49
55,-34.63
67,-36.88
79,-38.9
91,-40.4
103,-41.11
115,-40.8
127,-39.39
139,-36.93
151,-33.67
162,-29.97
173,-26.13
185,-22.3
197,-18.42
209,-14.35
221,-9.9
233,-5.05
245,0.1
257,5.38
269,10.53
281,15.32
293,19.61
305,23.36
317,26.62
329,29.43
341,31.84
352,33.8
363,35.29
375,36.35
387,37.13
399,37.8
411,38.51
423,39.2
435,39.65
447,39.53
459,38.59
471,36.83
483,34.42
495,31.79
507,29.29
519,27.13
531,25.29
542,23.59
553,21.74
565,19.57
577,17.11
589,14.48
601,12.02
613,9.94
625,8.21
637,6.63
649,4.87
661,2.62
673,-0.19
685,-3.43
697,-6.9
709,-10.36
721,-13.69
732,-16.91
743,-20.07
755,-23.19
767,-26.32
779,-29.52
791,-32.91
803,-36.68
815,-40.84
827,-45.16
839,-49.15
851,-52.14
863,-53.59
875,-53.3
887,-51.41
899,-48.37
911,-44.7
922,-40.77
933,-36.81
945,-32.91
957,-29.19
969,-25.79
981,-22.9
993,-20.67
1005,-19.12
1017,-18.16
1029,-17.62
1041,-17.31
1053,-17.07
1065,-16.74
1077,-16.17
1089,-15.14
1101,-13.44
1112,-10.84
1123,-7.25
1135,-2.69
1147,2.65
1159,8.43
1171,14.24
1183,19.69
1195,24.53
1207,28.64
1219,31.97
1231,34.49
1243,36.15
1255,36.93
1267,36.94
1279,36.38
1291,35.57
1302,34.81
1313,34.27
1325,33.94
1337,33.59
1349,33.07
1361,32.3
1373,31.41
1385,30.66
1397,30.2
1409,29.96
1421,29.63
1433,28.75
1445,26.89
1457,23.87
1469,19.91
1481,15.47
1492,11.12
1503,7.23
1515,3.83
1527,0.68
1539,-2.58
1551,-6.23
1563,-10.44
1575,-15.2
1587,-20.45
1599,-25.99
1611,-31.52
1623,-36.55
1635,-40.51
1647,-42.81
1659,-43.13
1671,-41.54
1682,-38.39
1693,-34.17
1705,-29.29
1717,-23.98
1729,-18.26
1741,-12.19
1753,-5.85
1765,0.55
1777,6.74
1789,12.48
1801,17.55
1813,21.87
1825,25.34
1837,28.0
1849,29.96
1861,31.41
1872,32.52
1883,33.47
1895,34.31
1907,35.0
1919,35.45
1931,35.62
1943,35.54
1955,35.27
1967,34.87
1979,34.34
1991,33.63
2003,32.68
2015,31.43
2027,29.96
2039,28.43
2051,26.98
2062,25.68
2073,24.44
2085,23.07
2097,21.3
2109,18.94
2121,15.92
2133,12.42
2145,8.74
2157,5.17
2169,1.89
2181,-1.04
2193,-3.78
2205,-6.56
2217,-9.59
2229,-13.01
2241,-16.73
2252,-20.56
2263,-24.2
2275,-27.41
2287,-29.98
2299,-31.76
2311,-32.71
2323,-32.73
2335,-31.77
2347,-29.77
2359,-26.73
2371,-22.78
2383,-18.12
2395,-13.0
2407,-7.65
2419,-2.26
2431,3.09
2442,8.25
2453,13.09
2465,17.44
2477,21.12
2489,24.07
2501,26.31
2513,27.97
2525,29.24
2537,30.36
2549,31.43
2561,32.44
2573,33.25
2585,33.71
2597,33.69
2609,33.27
2621,32.57
2632,31.77
2643,31.03
2655,30.33
2667,29.53
2679,28.54
2691,27.3
2703,25.95
2715,24.69
2727,23.7
2739,23.03
2751,22.52
2763,21.94
2775,21.03
2787,19.71
2799,18.0
2811,16.06
2822,14.04
2833,11.98
2845,9.87
2857,7.55
2869,4.95
2881,2.0
2893,-1.18
2905,-4.53
2917,-7.87
2929,-11.1
2941,-14.12
2953,-16.84
2965,-19.2
2977,-21.22
2989,-23.04
3001,-24.86
3012,-27.02
3023,-29.8
3035,-33.32
3047,-37.44
3059,-41.73
3071,-45.53
3083,-48.18
3095,-49.16
3107,-48.28
3119,-45.7
3131,-41.82
3143,-37.11
3155,-32.02
3167,-26.82
3179,-21.61
3191,-16.36
3202,-11.03
3213,-5.64
3225,-0.35
3237,4.63
3249,9.08
3261,12.85
3273,15.94
3285,18.47
3297,20.61
3309,22.46
3321,24.11
3333,25.5
3345,26.57
3357,27.3
3369,27.7
3381,27.78
3392,27.56
3403,27.06
3415,26.31
3427,25.5
3439,24.87
3451,24.61
3463,24.73
3475,25.11
3487,25.49
3499,25.64
3511,25.5
3523,25.16
3535,24.8
3547,24.46
3559,24.13
3571,23.67
3582,22.92
3593,21.83
3605,20.38
3617,18.57
3629,16.43
3641,13.99
3653,11.31
3665,8.55
3677,5.94
3689,3.57
3701,1.5
3713,-0.43
3725,-2.38
3737,-4.46
3749,-6.64
3761,-8.83
3772,-10.9
3783,-12.79
3795,-14.62
3807,-16.61
3819,-19.05
3831,-22.12
3843,-25.89
3855,-30.12
3867,-34.46
3879,-38.39
3891,-41.4
3903,-43.18
3915,-43.52
3927,-42.48
3939,-40.22
3951,-37.0
3962,-33.04
3973,-28.53
3985,-23.56
3997,-18.14
4009,-12.33
4021,-6.23
4033,-0.15
4045,5.52
4057,10.42
4069,14.3
4081,17.19
4093,19.32
4105,20.94
4117,22.26
4129,23.4
4141,24.31
4152,24.99
4163,25.42
4175,25.63
4187,25.66
4199,25.47
4211,24.99
4223,24.19
4235,23.2
4247,22.19
4259,21.3
4271,20.69
4283,20.26
4295,19.96
4307,19.65
4319,19.22
4331,18.66
4342,18.03
4353,17.34
4365,16.57
4377,15.72
4389,14.73
4401,13.56
4413,12.2
4425,10.65
4437,8.96
4449,7.17
4461,5.36
4473,3.57
4485,1.82
4497,0.09
4509,-1.63
4521,-3.33
4532,-4.98
4543,-6.59
4555,-8.21
4567,-9.84
4579,-11.57
4591,-13.44
4603,-15.59
4615,-18.08
4627,-20.93
4639,-24.1
4651,-27.4
4663,-30.64
4675,-33.52
4687,-35.84
4699,-37.43
4711,-38.31
4722,-38.47
4733,-37.91
4745,-36.62
4757,-34.51
4769,-31.52
4781,-27.67
4793,-23.04
4805,-17.83
4817,-12.31
4829,-6.8
4841,-1.62
4853,3.02
4865,6.94
4877,10.11
4889,12.59
4901,14.55
4912,16.18
4923,17.69
4935,19.16
4947,20.6
4959,21.88
4971,22.86
4983,23.4
4995,23.48
5007,23.18
5019,22.66
5031,22.11
5043,21.61
5055,21.16
5067,20.74
5079,20.35
5091,20.01
5102,19.72
5113,19.43
5125,19.01
5137,18.32
5149,17.33
5161,16.15
5173,14.96
5185,13.98
5197,13.28
5209,12.78
5221,12.26
5233,11.48
5245,10.26
5257,8.59
5269,6.6
5281,4.48
5292,2.4
5303,0.48
5315,-1.29
5327,-2.96
5339,-4.67
5351,-6.47
5363,-8.42
5375,-10.44
5387,-12.42
5399,-14.3
5411,-16.09
5423,-17.88
5435,-19.84
5447,-22.13
5459,-24.79
5471,-27.71
5482,-30.65
5493,-33.28
5505,-35.31
5517,-36.52
5529,-36.79
5541,-36.1
5553,-34.52
5565,-32.21
5577,-29.32
5589,-26.0
5601,-22.35
5613,-18.49
5625,-14.49
5637,-10.53
5649,-6.71
5661,-3.17
5672,0.03
5683,2.86
5695,5.26
5707,7.15
5719,8.46
5731,9.22
5743,9.55
5755,9.66
5767,9.85
5779,10.3
5791,11.08
5803,12.1
5815,13.23
5827,14.34
5839,15.41
5851,16.4
5862,17.29
5873,18.03
5885,18.59
5897,18.99
5909,19.24
5921,19.42
5933,19.49
5945,19.34
5957,18.79
5969,17.73
5981,16.19
5993,14.34
6005,12.44
6017,10.73
6029,9.35
6041,8.31
6052,7.45
6063,6.59
6075,5.59
6087,4.38
6099,2.98
6111,1.45
6123,-0.1
6135,-1.62
6147,-3.08
6159,-4.5
6171,-5.92
6183,-7.27
6195,-8.51
6207,-9.58
6219,-10.52
6231,-11.47
6242,-12.67
6253,-14.35
6265,-16.65
6277,-19.51
6289,-22.74
6301,-25.98
6313,-28.92
6325,-31.18
6337,-32.51
6349,-32.72
6361,-31.75
6373,-29.71
6385,-26.8
6397,-23.37
6409,-19.7
6421,-15.94
6432,-12.18
6443,-8.45
6455,-4.85
6467,-1.54
6479,1.3
6491,3.5
6503,5.09
6515,6.22
6527,7.13
6539,8.03
6551,8.98
6563,9.93
6575,10.82
6587,11.6
6599,12.24
6611,12.82
6622,13.4
6633,14.03
6645,14.67
6657,15.26
6669,15.64
6681,15.7
6693,15.41
6705,14.83
6717,14.1
6729,13.37
6741,12.71
6753,12.12
6765,11.52
6777,10.82
6789,10.0
6801,9.03
6812,7.97
6823,6.84
6835,5.68
6847,4.54
6859,3.5
6871,2.56
6883,1.65
6895,0.6
6907,-0.81
6919,-2.71
6931,-5.09
6943,-7.82
6955,-10.71
6967,-13.59
6979,-16.3
6991,-18.7
7002,-20.73
7013,-22.45
7025,-24.03
7037,-25.8
7049,-28.04
7061,-30.86
7073,-34.09
7085,-37.22
7097,-39.57
7109,-40.64
7121,-40.23
7133,-38.46
7145,-35.69
7157,-32.31
7169,-28.6
7181,-24.72
7192,-20.75
7203,-16.74
7215,-12.74
7227,-8.8
7239,-4.97
7251,-1.29
7263,2.12
7275,5.16
7287,7.68
7299,9.68
7311,11.26
7323,12.59
7335,13.85
7347,15.13
7359,16.41
7371,17.58
7382,18.58
7393,19.41
7405,20.13
7417,20.79
7429,21.36
7441,21.72
7453,21.68
7465,21.05
7477,19.85
7489,18.28
7501,16.68
7513,15.44
7525,14.84
7537,14.92
7549,15.5
7561,16.21
7572,16.66
7583,16.61
7595,16.05
7607,15.09
7619,13.94
7631,12.76
7643,11.54
7655,10.22
7667,8.67
7679,6.88
7691,4.92
7703,2.95
7715,1.1
7727,-0.58
7739,-2.12
7751,-3.64
7762,-5.19
7773,-6.83
7785,-8.54
7797,-10.36
7809,-12.32
7821,-14.47
7833,-16.77
7845,-19.16
7857,-21.62
7869,-24.09
7881,-26.68
7893,-29.49
7905,-32.6
7917,-35.95
7929,-39.29
7941,-42.17
7952,-44.07
7963,-44.54
7975,-43.38
7987,-40.71
7999,-36.92
8011,-32.55
8023,-28.11
8035,-23.89
8047,-19.94
8059,-16.13
8071,-12.35
8083,-8.58
8095,-4.96
8107,-1.65
8119,1.26
8131,3.81
8142,6.19
8153,8.58
8165,11.11
8177,13.73
8189,16.29
8201,18.59
8213,20.43
8225,21.76
8237,22.61
8249,23.05
8261,23.17
8273,23.04
8285,22.67
8297,22.02
8309,21.12
8321,20.01
8332,18.78
8343,17.57
8355,16.44
8367,15.43
8379,14.56
8391,13.84
8403,13.29
8415,12.93
8427,12.72
8439,12.55
8451,12.28
8463,11.78
8475,11.01
8487,10.07
8499,9.05
8511,8.04
8522,6.99
8533,5.86
8545,4.49
8557,2.8
8569,0.73
8581,-1.71
8593,-4.48
8605,-7.5
8617,-10.64
8629,-13.83
8641,-16.99
8653,-20.14
8665,-23.35
8677,-26.78
8689,-30.52
8701,-34.57
8712,-38.82
8723,-42.97
8735,-46.64
8747,-49.46
8759,-51.09
8771,-51.41
8783,-50.44
8795,-48.43
8807,-45.63
8819,-42.31
8831,-38.61
8843,-34.57
8855,-30.17
8867,-25.44
8879,-20.44
8891,-15.33
8902,-10.24
8913,-5.22
8925,-0.21
8937,4.89
8949,10.11
8961,15.42
8973,20.61
8985,25.42
8997,29.57
9009,32.91
9021,35.45
9033,37.36
9045,38.81
9057,39.93
9069,40.7
9081,41.01
9092,40.72
9103,39.71
9115,38.03
9127,35.91
9139,33.65
9151,31.53
9163,29.68
9175,28.04
9187,26.48
9199,24.79
9211,22.91
9223,20.82
9235,18.65
9247,16.47
9259,14.35
9271,12.31
9282,10.26
9293,8.22
9305,6.19
9317,4.29
9329,2.58
9341,1.04
9353,-0.44
9365,-2.03
9377,-3.9
9389,-6.12
9401,-8.59
9413,-11.16
9425,-13.62
9437,-15.93
9449,-18.22
9461,-20.7
9472,-23.48
9483,-26.56
9495,-29.68
9507,-32.43
9519,-34.41
9531,-35.36
9543,-35.26
9555,-34.31
9567,-32.79
9579,-30.99
9591,-29.02
9603,-26.89
9615,-24.45
9627,-21.57
9639,-18.17
9651,-14.23
9662,-9.93
9673,-5.48
9685,-1.15
9697,2.87
9709,6.43
9721,9.5
9733,12.11
9745,14.35
9757,16.32
9769,18.09
9781,19.66
9793,21.03
9805,22.14
9817,22.91
9829,23.27
9841,23.22
9852,22.91
9863,22.55
9875,22.44
9887,22.73
9899,23.4
9911,24.25
9923,24.99
9935,25.37
9947,25.26
9959,24.65
9971,23.58
9983,22.11
9995,20.24
10007,17.99
10019,15.46
10031,12.82
10042,10.31
10053,8.09
10065,6.23
10077,4.62
10089,3.08
10101,1.43
10113,-0.43
10125,-2.46
10137,-4.52
10149,-6.42
10161,-8.09
10173,-9.53
10185,-10.81
10197,-12.02
10209,-13.22
10221,-14.51
10232,-16.02
10243,-17.97
10255,-20.58
10267,-23.95
10279,-27.91
10291,-32.02
10303,-35.61
10315,-38.05
10327,-38.87
10339,-37.95
10351,-35.49
10363,-31.89
10375,-27.6
10387,-22.97
10399,-18.25
10411,-13.59
10422,-9.09
10433,-4.8
10445,-0.73
10457,3.16
10469,6.81
10481,10.13
10493,12.97
10505,15.08
10517,16.37
10529,16.89
10541,16.92
10553,16.86
10565,17.11
10577,17.85
10589,19.12
10601,20.7
10612,22.24
10623,23.41
10635,24.0
10647,23.94
10659,23.28
10671,22.22
10683,20.97
10695,19.72
10707,18.55
10719,17.47
10731,16.45
10743,15.5
10755,14.66
10767,13.97
10779,13.35
10791,12.71
10802,11.9
10813,10.77
10825,9.22
10837,7.31
10849,5.12
10861,2.86
10873,0.67
10885,-1.32
10897,-3.13
10909,-4.82
10921,-6.54
10933,-8.42
10945,-10.59
10957,-13.1
10969,-15.97
10981,-19.09
10992,-22.32
11003,-25.37
11015,-27.93
11027,-29.69
11039,-30.48
11051,-30.25
11063,-29.12
11075,-27.21
11087,-24.67
11099,-21.58
11111,-17.99
11123,-14.0
11135,-9.79
11147,-5.56
11159,-1.53
11171,2.05
11182,5.1
11193,7.52
11205,9.35
11217,10.7
11229,11.75
11241,12.69
11253,13.67
11265,14.78
11277,15.93
11289,17.01
11301,17.88
11313,18.48
11325,18.83
11337,19.03
11349,19.18
11361,19.38
11372,19.67
11383,19.99
11395,20.24
11407,20.19
11419,19.66
11431,18.56
11443,16.99
11455,15.15
11467,13.28
11479,11.5
11491,9.73
11503,7.82
11515,5.61
11527,3.08
11539,0.42
11551,-2.11
11562,-4.33
11573,-6.24
11585,-8.04
11597,-9.97
11609,-12.18
11621,-14.71
11633,-17.53
11645,-20.58
11657,-23.9
11669,-27.45
11681,-31.09
11693,-34.46
11705,-37.08
11717,-38.48
11729,-38.43
11741,-36.95
11752,-34.33
11763,-30.94
11775,-27.09
11787,-22.97
11799,-18.65
11811,-14.14
11823,-9.46
11835,-4.73
11847,-0.15
11859,4.02
11871,7.49
11883,10.13
11895,11.99
11907,13.31
11919,14.42
11931,15.62
11942,17.03
11953,18.64
11965,20.27
11977,21.83
11989,23.34
12001,24.93
12013,26.64
12025,28.38
12037,29.89
12049,30.82
12061,31.06
12073,30.69
12085,29.95
12097,29.17
12109,28.48
12121,27.84
12132,27.12
12143,26.2
12155,25.08
12167,23.85
12179,22.52
12191,21.04
12203,19.25
12215,16.99
12227,14.24
12239,11.17
12251,8.05
12263,5.16
12275,2.68
12287,0.68
12299,-0.86
12311,-2.01
12322,-2.88
12333,-3.59
12345,-4.27
12357,-5.03
12369,-5.98
12381,-7.17
12393,-8.61
12405,-10.31
12417,-12.22
12429,-14.35
12441,-16.68
12453,-19.21
12465,-21.96
12477,-24.93
12489,-28.11
12501,-31.45
12512,-34.76
12523,-37.79
12535,-40.18
12547,-41.59
12559,-41.72
12571,-40.5
12583,-37.95
12595,-34.31
12607,-29.91
12619,-25.05
12631,-20.04
12643,-15.07
12655,-10.27
12667,-5.7
12679,-1.37
12691,2.74
12702,6.63
12713,10.27
12725,13.53
12737,16.24
12749,18.23
12761,19.44
12773,19.95
12785,20.0
12797,19.89
12809,19.93
12821,20.23
12833,20.84
12845,21.66
12857,22.62
12869,23.72
12881,25.04
12892,26.66
12903,28.49
12915,30.28
12927,31.64
12939,32.26
12951,32.02
12963,31.1
12975,29.84
12987,28.62
12999,27.7
13011,27.08
13023,26.63
13035,26.17
13047,25.57
13059,24.72
13071,23.51
13082,21.79
13093,19.43
13105,16.32
13117,12.55
13129,8.34
13141,3.97
13153,-0.3
13165,-4.29
13177,-8.0
13189,-11.55
13201,-15.09
13213,-18.67
13225,-22.26
13237,-25.63
13249,-28.6
13261,-31.06
13272,-32.97
13283,-34.57
13295,-36.15
13307,-38.07
13319,-40.53
13331,-43.55
13343,-46.91
13355,-50.18
13367,-52.93
13379,-54.73
13391,-55.35
13403,-54.76
13415,-53.04
13427,-50.4
13439,-47.1
13451,-43.36
13462,-39.32
13473,-35.11
13485,-30.75
13497,-26.3
13509,-21.78
13521,-17.24
13533,-12.79
13545,-8.55
13557,-4.65
13569,-1.19
13581,1.78
13593,4.32
13605,6.57
13617,8.67
13629,10.76
13641,12.94
13652,15.26
13663,17.68
13675,20.16
13687,22.65
13699,25.16
13711,27.67
13723,30.06
13735,32.16
13747,33.74
13759,34.63
13771,34.74
13783,34.17
13795,33.04
13807,31.58
13819,29.97
13831,28.32
13842,26.7
13853,25.11
13865,23.51
13877,21.83
13889,20.05
13901,18.19
13913,16.37
13925,14.74
13937,13.39
13949,12.28
13961,11.22
13973,9.91
13985,8.14
13997,5.81
14009,2.96
14021,-0.29
14032,-3.76
14043,-7.39
14055,-11.16
14067,-15.07
14079,-19.19
14091,-23.48
14103,-27.9
14115,-32.28
14127,-36.35
14139,-39.78
14151,-42.17
14163,-43.25
14175,-42.93
14187,-41.38
14199,-38.91
14211,-35.85
14222,-32.45
14233,-28.74
14245,-24.63
14257,-20.02
14269,-14.88
14281,-9.38
14293,-3.81
14305,1.46
14317,6.11
14329,9.94
14341,12.86
14353,14.88
14365,16.13
14377,16.78
14389,17.08
14401,17.3
14412,17.66
14423,18.27
14435,19.12
14447,20.09
14459,21.0
14471,21.75
14483,22.33
14495,22.82
14507,23.32
14519,23.91
14531,24.53
14543,25.1
14555,25.54
14567,25.66
14579,25.32
14591,24.32
14602,22.59
14613,20.2
14625,17.41
14637,14.5
14649,11.66
14661,8.92
14673,6.1
14685,3.01
14697,-0.39
14709,-3.92
14721,-7.27
14733,-10.2
14745,-12.61
14757,-14.67
14769,-16.61
14781,-18.7
14792,-21.09
14803,-23.83
14815,-26.89
14827,-30.1
14839,-33.27
14851,-36.04
14863,-38.09
14875,-39.15
14887,-39.1
14899,-38.06
14911,-36.23
14923,-33.87
14935,-31.16
14947,-28.2
14959,-24.97
14971,-21.4
14982,-17.43
14993,-13.07
15005,-8.42
15017,-3.69
15029,0.82
15041,4.91
15053,8.46
15065,11.47
15077,14.05
15089,16.28
15101,18.16
15113,19.71
15125,20.94
15137,22.0
15149,23.09
15161,24.41
15172,26.0
15183,27.66
15195,29.09
15207,29.99
15219,30.16
15231,29.65
15243,28.57
15255,27.12
15267,25.49
15279,23.78
15291,22.11
15303,20.54
15315,19.06
15327,17.62
15339,16.13
15351,14.51
15362,12.81
15373,11.06
15385,9.31
15397,7.53
15409,5.64
15421,3.5
15433,1.06
15445,-1.56
15457,-4.19
15469,-6.64
15481,-8.9
15493,-11.06
15505,-13.3
15517,-15.76
15529,-18.52
15541,-21.64
15552,-25.16
15563,-29.1
15575,-33.37
15587,-37.66
15599,-41.44
15611,-44.1
15623,-45.21
15635,-44.67
15647,-42.8
15659,-40.08
15671,-36.97
15683,-33.63
15695,-29.98
15707,-25.8
15719,-20.92
15731,-15.38
15742,-9.46
15753,-3.58
15765,1.84
15777,6.5
15789,10.29
15801,13.27
15813,15.62
15825,17.57
15837,19.29
15849,20.86
15861,22.3
15873,23.6
15885,24.72
15897,25.71
15909,26.61
15921,27.47
15932,28.31
15943,29.07
15955,29.69
15967,30.09
15979,30.21
15991,30.03
16003,29.58
16015,28.9
16027,27.98
16039,26.78
16051,25.24
16063,23.31
16075,21.08
16087,18.73
16099,16.44
16111,14.41
16122,12.72
16133,11.34
16145,10.17
16157,9.11
16169,8.03
16181,6.82
16193,5.35
16205,3.45
16217,1.08
16229,-1.69
16241,-4.61
16253,-7.36
16265,-9.67
16277,-11.49
16289,-12.98
16301,-14.5
16312,-16.4
16323,-18.88
16335,-21.95
16347,-25.37
16359,-28.75
16371,-31.7
16383,-33.89
16395,-35.16
16407,-35.52
16419,-35.07
16431,-33.92
16443,-32.13
16455,-29.65
16467,-26.45
16479,-22.52
16491,-17.93
16502,-12.91
16513,-7.7
16525,-2.6
16537,2.18
16549,6.45
16561,10.05
16573,12.9
16585,15.0
16597,16.45
16609,17.46
16621,18.3
16633,19.19
16645,20.24
16657,21.4
16669,22.56
16681,23.61
16692,24.52
16703,25.33
16715,26.08
16727,26.79
16739,27.4
16751,27.83
16763,28.02
16775,27.95
16787,27.69
16799,27.33
16811,26.93
16823,26.45
16835,25.77
16847,24.79
16859,23.46
16871,21.84
16882,20.12
16893,18.47
16905,17.02
16917,15.74
16929,14.47
16941,12.95
16953,10.95
16965,8.39
16977,5.34
16989,1.95
17001,-1.54
17013,-4.94
17025,-8.14
17037,-11.15
17049,-13.96
17061,-16.58
17072,-19.05
17083,-21.34
17095,-23.42
17107,-25.3
17119,-27.05
17131,-28.78
17143,-30.6
17155,-32.54
17167,-34.48
17179,-36.14
17191,-37.17
17203,-37.3
17215,-36.4
17227,-34.6
17239,-32.12
17251,-29.29
17262,-26.35
17273,-23.43
17285,-20.5
17297,-17.36
17309,-13.86
17321,-9.88
17333,-5.47
17345,-0.86
17357,3.67
17369,7.86
17381,11.55
17393,14.69
17405,17.3
17417,19.35
17429,20.85
17441,21.85
17452,22.48
17463,22.93
17475,23.45
17487,24.17
17499,25.06
17511,25.99
17523,26.69
17535,26.99
17547,26.78
17559,26.08
17571,25.06
17583,23.92
17595,22.83
17607,21.92
17619,21.22
17631,20.61
17642,19.99
17653,19.24
17665,18.31
17677,17.25
17689,16.11
17701,14.97
17713,13.79
17725,12.53
17737,11.11
17749,9.56
17761,7.98
17773,6.51
17785,5.26
17797,4.17
17809,3.09
17821,1.78
17832,0.05
17843,-2.15
17855,-4.63
17867,-7.06
17879,-9.11
17891,-10.62
17903,-11.69
17915,-12.64
17927,-13.83
17939,-15.49
17951,-17.64
17963,-20.06
17975,-22.56
17987,-25.07
17999,-27.62
18011,-30.21
18022,-32.71
18033,-34.65
18045,-35.49
18057,-34.8
18069,-32.58
18081,-29.24
18093,-25.47
18105,-21.83
18117,-18.56
18129,-15.57
18141,-12.61
18153,-9.48
18165,-6.22
18177,-3.03
18189,-0.13
18201,2.38
18212,4.57
18223,6.67
18235,8.89
18247,11.27
18259,13.69
18271,15.92
18283,17.7
18295,18.93
18307,19.72
18319,20.27
18331,20.88
18343,21.65
18355,22.56
18367,23.37
18379,23.85
18391,23.88
18402,23.57
18413,23.13
18425,22.73
18437,22.36
18449,21.85
18461,20.99
18473,19.63
18485,17.83
18497,15.83
18509,13.93
18521,12.4
18533,11.32
18545,10.62
18557,10.08
18569,9.5
18581,8.74
18592,7.76
18603,6.64
18615,5.51
18627,4.48
18639,3.5
18651,2.43
18663,1.1
18675,-0.6
18687,-2.62
18699,-4.88
18711,-7.27
18723,-9.85
18735,-12.71
18747,-15.98
18759,-19.58
18771,-23.3
18782,-26.81
18793,-29.86
18805,-32.4
18817,-34.47
18829,-36.15
18841,-37.29
18853,-37.58
18865,-36.62
18877,-34.23
18889,-30.56
18901,-26.06
18913,-21.33
18925,-16.83
18937,-12.78
18949,-9.18
18961,-5.87
18972,-2.75
18983,0.14
18995,2.65
19007,4.67
19019,6.11
19031,7.11
19043,7.86
19055,8.53
19067,9.27
19079,10.04
19091,10.76
19103,11.31
19115,11.72
19127,12.09
19139,12.55
19151,13.22
19162,14.08
19173,15.02
19185,15.83
19197,16.31
19209,16.35
19221,15.96
19233,15.25
19245,14.33
19257,13.3
19269,12.21
19281,11.08
19293,9.98
19305,8.96
19317,7.99
19329,6.96
19341,5.73
19352,4.1
19363,2.02
19375,-0.45
19387,-3.16
19399,-5.96
19411,-8.81
19423,-11.7
19435,-14.69
19447,-17.76
19459,-20.89
19471,-24.01
19483,-27.11
19495,-30.17
19507,-33.06
19519,-35.57
19531,-37.31
19542,-37.97
19553,-37.34
19565,-35.47
19577,-32.6
19589,-29.03
19601,-25.09
19613,-20.99
19625,-16.91
19637,-12.94
19649,-9.21
19661,-5.79
19673,-2.74
19685,-0.06
19697,2.35
19709,4.52
19721,6.56
19732,8.53
19743,10.44
19755,12.3
19767,14.09
19779,15.77
19791,17.25
19803,18.46
19815,19.35
19827,19.92
19839,20.26
19851,20.44
19863,20.57
19875,20.65
19887,20.63
19899,20.4
19911,19.86
19922,19.04
19933,18.14
19945,17.4
19957,17.0
19969,16.93
19981,16.92
19993,16.63
20005,15.84
20017,14.53
20029,12.92
20041,11.26
20053,9.77
20065,8.44
20077,7.14
20089,5.64
20101,3.83
20112,1.7
20123,-0.65
20135,-3.06
20147,-5.46
20159,-7.84
20171,-10.3
20183,-12.87
20195,-15.63
20207,-18.49
20219,-21.33
20231,-24.03
20243,-26.54
20255,-28.89
20267,-31.14
20279,-33.31
20291,-35.23
20302,-36.55
20313,-36.87
20325,-35.83
20337,-33.38
20349,-29.76
20361,-25.46
20373,-21.03
20385,-16.92
20397,-13.32
20409,-10.19
20421,-7.33
20433,-4.55
20445,-1.77
20457,1.0
20469,3.58
20481,5.88
20492,7.76
20503,9.22
20515,10.3
20527,11.15
20539,11.93
20551,12.7
20563,13.47
20575,14.13
20587,14.58
20599,14.79
20611,14.83
20623,14.86
20635,15.04
20647,15.47
20659,16.02
20671,16.49
20682,16.65
20693,16.41
20705,15.86
20717,15.2
20729,14.67
20741,14.33
20753,14.21
20765,14.18
20777,14.12
20789,13.99
20801,13.72
20813,13.29
20825,12.64
20837,11.7
20849,10.41
20861,8.82
20872,7.06
20883,5.31
20895,3.74
20907,2.42
20919,1.28
20931,0.22
20943,-0.9
20955,-2.15
20967,-3.54
20979,-5.11
20991,-6.85
