seconds,BVP
2,11.58
14,9.78
26,7.95
38,6.19
50,4.52
62,2.85
74,1.08
86,-0.8
98,-2.66
110,-4.37
122,-5.83
134,-7.06
146,-8.19
158,-9.39
170,-10.81
181,-12.54
192,-14.66
204,-17.28
216,-20.4
228,-23.87
240,-27.23
252,-29.79
264,-30.73
276,-29.47
288,-25.85
300,-20.22
312,-13.31
324,-6.04
336,0.81
348,6.68
360,11.27
371,14.5
382,16.4
394,17.1
406,16.81
418,15.79
430,14.36
442,12.86
454,11.57
466,10.71
478,10.39
490,10.56
502,11.13
514,11.91
526,12.74
538,13.55
550,14.27
561,14.94
572,15.51
584,15.94
596,16.14
608,16.06
620,15.66
632,14.95
644,13.99
656,12.81
668,11.45
680,9.93
692,8.31
704,6.66
716,5.11
728,3.72
740,2.51
751,1.37
762,0.14
774,-1.36
786,-3.17
798,-5.21
810,-7.34
822,-9.35
834,-11.15
846,-12.74
858,-14.18
870,-15.59
882,-17.03
894,-18.6
906,-20.43
918,-22.63
930,-25.2
941,-27.89
952,-30.14
964,-31.2
976,-30.37
988,-27.3
1000,-22.12
1012,-15.46
1024,-8.2
1036,-1.22
1048,4.85
1060,9.7
1072,13.31
1084,15.8
1096,17.3
1108,17.95
1120,17.84
1131,17.12
1142,16.02
1154,14.85
1166,13.92
1178,13.41
1190,13.36
1202,13.62
1214,14.0
1226,14.36
1238,14.7
1250,15.11
1262,15.68
1274,16.4
1286,17.14
1298,17.69
1310,17.86
1321,17.57
1332,16.87
1344,15.85
1356,14.64
1368,13.29
1380,11.8
1392,10.18
1404,8.44
1416,6.62
1428,4.8
1440,3.04
1452,1.36
1464,-0.2
1476,-1.65
1488,-3.0
1500,-4.3
1511,-5.63
1522,-7.08
1534,-8.74
1546,-10.61
1558,-12.61
1570,-14.57
1582,-16.38
1594,-17.99
1606,-19.48
1618,-21.05
1630,-22.93
1642,-25.33
1654,-28.32
1666,-31.71
1678,-35.04
1690,-37.64
1701,-38.75
1712,-37.78
1724,-34.52
1736,-29.21
1748,-22.49
1760,-15.18
1772,-8.05
1784,-1.6
1796,3.88
1808,8.28
1820,11.51
1832,13.51
1844,14.25
1856,13.87
1868,12.73
1880,11.3
1891,10.03
1902,9.2
1914,8.91
1926,9.05
1938,9.46
1950,10.01
1962,10.65
1974,11.39
1986,12.23
1998,13.14
2010,14.03
2022,14.79
2034,15.35
2046,15.63
2058,15.6
2070,15.25
2081,14.56
2092,13.54
2104,12.25
2116,10.76
2128,9.17
2140,7.54
2152,5.87
2164,4.14
2176,2.31
2188,0.36
2200,-1.61
2212,-3.49
2224,-5.18
2236,-6.68
2248,-8.1
2260,-9.67
2271,-11.55
2282,-13.77
2294,-16.16
2306,-18.42
2318,-20.27
2330,-21.57
2342,-22.44
2354,-23.24
2366,-24.38
2378,-26.22
2390,-28.88
2402,-32.2
2414,-35.71
2426,-38.72
2438,-40.47
2450,-40.32
2461,-37.91
2472,-33.31
2484,-26.98
2496,-19.64
2508,-12.1
2520,-5.05
2532,1.07
2544,6.06
2556,9.88
2568,12.57
2580,14.24
2592,15.0
2604,15.06
2616,14.66
2628,14.1
2640,13.61
2651,13.39
2662,13.44
2674,13.71
2686,14.12
2698,14.59
2710,15.12
2722,15.73
2734,16.38
2746,17.0
2758,17.48
2770,17.72
2782,17.7
2794,17.47
2806,17.09
2818,16.61
2830,16.0
2841,15.2
2852,14.11
2864,12.7
2876,11.04
2888,9.27
2900,7.54
2912,5.98
2924,4.6
2936,3.37
2948,2.16
2960,0.84
2972,-0.65
2984,-2.31
2996,-4.06
3008,-5.78
3020,-7.36
3031,-8.78
3042,-10.05
3054,-11.27
3066,-12.54
3078,-13.99
3090,-15.76
3102,-17.92
3114,-20.41
3126,-22.95
3138,-25.05
3150,-26.09
3162,-25.51
3174,-23.03
3186,-18.78
3198,-13.24
3210,-7.1
3221,-1.07
3232,4.38
3244,8.96
3256,12.58
3268,15.2
3280,16.81
3292,17.45
3304,17.23
3316,16.4
3328,15.26
3340,14.13
3352,13.24
3364,12.7
3376,12.49
3388,12.54
3400,12.74
3411,13.03
3422,13.39
3434,13.82
3446,14.34
3458,14.93
3470,15.48
3482,15.84
3494,15.83
3506,15.33
3518,14.31
3530,12.88
3542,11.22
3554,9.52
3566,7.92
3578,6.49
3590,5.21
3601,4.01
3612,2.79
3624,1.45
3636,-0.12
3648,-1.95
3660,-3.99
3672,-6.13
3684,-8.22
3696,-10.12
3708,-11.76
3720,-13.19
3732,-14.55
3744,-16.01
3756,-17.79
3768,-20.05
3780,-22.85
3791,-26.06
3802,-29.34
3814,-32.09
3826,-33.63
3838,-33.36
3850,-30.95
3862,-26.5
3874,-20.5
3886,-13.65
3898,-6.71
3910,-0.32
3922,5.14
3934,9.45
3946,12.57
3958,14.53
3970,15.49
3981,15.63
3992,15.2
4004,14.44
4016,13.6
4028,12.86
4040,12.39
4052,12.23
4064,12.39
4076,12.77
4088,13.27
4100,13.81
4112,14.32
4124,14.83
4136,15.3
4148,15.7
4160,15.93
4171,15.87
4182,15.48
4194,14.76
4206,13.77
4218,12.57
4230,11.17
4242,9.58
4254,7.83
4266,5.99
4278,4.18
4290,2.51
4302,1.01
4314,-0.38
4326,-1.75
4338,-3.22
4350,-4.82
4361,-6.51
4372,-8.22
4384,-9.89
4396,-11.45
4408,-12.93
4420,-14.36
4432,-15.82
4444,-17.4
4456,-19.23
4468,-21.42
4480,-24.02
4492,-26.91
4504,-29.75
4516,-31.99
4528,-32.99
4540,-32.16
4551,-29.23
4562,-24.36
4574,-18.11
4586,-11.29
4598,-4.69
4610,1.07
4622,5.76
4634,9.39
4646,12.11
4658,14.07
4670,15.33
4682,15.93
4694,15.93
4706,15.51
4718,14.96
4730,14.51
4741,14.33
4752,14.38
4764,14.57
4776,14.77
4788,14.94
4800,15.08
4812,15.23
4824,15.39
4836,15.53
4848,15.59
4860,15.56
4872,15.44
4884,15.24
4896,14.9
4908,14.32
4920,13.36
4931,11.98
4942,10.26
4954,8.4
4966,6.58
4978,4.94
4990,3.5
5002,2.2
5014,0.95
5026,-0.33
5038,-1.65
5050,-3.01
5062,-4.41
5074,-5.85
5086,-7.35
5098,-8.88
5110,-10.42
5121,-11.91
5132,-13.34
5144,-14.78
5156,-16.37
5168,-18.31
5180,-20.68
5192,-23.32
5204,-25.78
5216,-27.44
5228,-27.65
5240,-26.02
5252,-22.53
5264,-17.58
5276,-11.77
5288,-5.72
5300,0.08
5311,5.31
5322,9.74
5334,13.2
5346,15.5
5358,16.58
5370,16.54
5382,15.71
5394,14.53
5406,13.44
5418,12.7
5430,12.36
5442,12.32
5454,12.46
5466,12.67
5478,12.94
5490,13.27
5501,13.61
5512,13.9
5524,14.01
5536,13.88
5548,13.51
5560,12.95
5572,12.25
5584,11.39
5596,10.33
5608,9.0
5620,7.42
5632,5.7
5644,3.98
5656,2.39
5668,0.94
5680,-0.43
5691,-1.85
5702,-3.39
5714,-5.03
5726,-6.69
5738,-8.29
5750,-9.76
5762,-11.18
5774,-12.65
5786,-14.25
5798,-15.99
5810,-17.83
5822,-19.74
5834,-21.73
5846,-23.82
5858,-25.94
5870,-27.83
5881,-29.01
5892,-28.95
5904,-27.27
5916,-23.9
5928,-19.19
5940,-13.72
5952,-8.14
5964,-2.94
5976,1.65
5988,5.54
6000,8.68
6012,10.97
6024,12.26
6036,12.43
6048,11.56
6060,9.92
6071,7.97
6082,6.18
6094,4.93
6106,4.35
6118,4.35
6130,4.7
6142,5.13
6154,5.47
6166,5.64
6178,5.64
6190,5.5
6202,5.2
6214,4.66
6226,3.77
6238,2.44
6250,0.68
6261,-1.41
6272,-3.62
6284,-5.73
6296,-7.52
6308,-8.76
6320,-9.27
6332,-8.86
6344,-7.38
6356,-4.74
6368,-0.98
6380,3.72
6392,9.06
6404,14.66
6416,20.19
6428,25.37
6440,30.03
6451,34.1
6462,37.55
6474,40.39
6486,42.64
6498,44.33
6510,45.54
6522,46.41
6534,47.15
6546,47.99
6558,49.03
6570,50.14
6582,50.94
6594,50.88
6606,49.47
6618,46.43
6630,41.8
6641,35.84
6652,28.88
6664,21.24
6676,13.13
6688,4.83
6700,-3.34
6712,-10.89
6724,-17.26
6736,-21.97
6748,-24.74
6760,-25.55
6772,-24.66
6784,-22.44
6796,-19.35
6808,-15.81
6820,-12.16
6831,-8.67
6842,-5.5
6854,-2.78
6866,-0.62
6878,0.95
6890,1.89
6902,2.21
6914,1.91
6926,1.02
6938,-0.46
6950,-2.43
6962,-4.78
6974,-7.32
6986,-9.86
6998,-12.28
7010,-14.54
7021,-16.7
7032,-18.82
7044,-20.94
7056,-23.02
7068,-24.96
7080,-26.65
7092,-28.04
7104,-29.16
7116,-30.11
7128,-31.0
7140,-31.91
7152,-32.94
7164,-34.18
7176,-35.77
7188,-37.82
7200,-40.35
7211,-43.16
7222,-45.77
7234,-47.51
7246,-47.74
7258,-46.09
7270,-42.59
7282,-37.67
7294,-32.0
7306,-26.23
7318,-20.86
7330,-16.19
7342,-12.3
7354,-9.22
7366,-6.88
7378,-5.18
7390,-3.92
7401,-2.9
7412,-1.93
7424,-0.82
7436,0.54
7448,2.19
7460,4.15
7472,6.31
7484,8.53
7496,10.64
7508,12.43
7520,13.8
7532,14.7
7544,15.16
7556,15.26
7568,15.05
7580,14.62
7591,13.98
7602,13.18
7614,12.2
7626,11.01
7638,9.57
7650,7.87
7662,5.92
7674,3.76
7686,1.5
7698,-0.79
7710,-3.02
7722,-5.1
7734,-6.94
7746,-8.43
7758,-9.51
7770,-10.23
7781,-10.73
7792,-11.2
7804,-11.82
7816,-12.67
7828,-13.68
7840,-14.72
7852,-15.68
7864,-16.53
7876,-17.33
7888,-18.26
7900,-19.49
7912,-21.14
7924,-23.26
7936,-25.79
7948,-28.5
7960,-31.0
7971,-32.74
7982,-33.11
7994,-31.65
8006,-28.17
8018,-22.86
8030,-16.24
8042,-9.07
8054,-2.07
8066,4.16
8078,9.26
8090,13.06
8102,15.59
8114,16.97
8126,17.41
8138,17.17
8150,16.51
8161,15.7
8172,14.89
8184,14.21
8196,13.69
8208,13.35
8220,13.18
8232,13.23
8244,13.51
8256,14.02
8268,14.69
8280,15.39
8292,15.97
8304,16.3
8316,16.34
8328,16.11
8340,15.68
8351,15.1
8362,14.36
8374,13.43
8386,12.26
8398,10.87
8410,9.37
8422,7.89
8434,6.58
8446,5.49
8458,4.56
8470,3.66
8482,2.65
8494,1.42
8506,-0.05
8518,-1.71
8530,-3.42
8541,-5.07
8552,-6.57
8564,-7.9
8576,-9.11
8588,-10.3
8600,-11.6
8612,-13.16
8624,-15.12
8636,-17.55
8648,-20.37
8660,-23.28
8672,-25.75
8684,-27.09
8696,-26.66
8708,-24.07
8720,-19.33
8731,-12.89
8742,-5.56
8754,1.76
8766,8.3
8778,13.56
8790,17.35
8802,19.71
8814,20.85
8826,20.98
8838,20.36
8850,19.25
8862,17.97
8874,16.85
8886,16.19
8898,16.14
8910,16.63
8921,17.43
8932,18.23
8944,18.79
8956,19.02
8968,19.02
8980,18.93
8992,18.88
9004,18.91
9016,18.92
9028,18.77
9040,18.35
9052,17.61
9064,16.59
9076,15.43
9088,14.22
9100,13.04
9111,11.86
9122,10.65
9134,9.4
9146,8.14
9158,6.97
9170,5.95
9182,5.09
9194,4.29
9206,3.4
9218,2.29
9230,0.89
9242,-0.72
9254,-2.42
9266,-4.06
9278,-5.54
9290,-6.84
9301,-8.01
9312,-9.1
9324,-10.18
9336,-11.39
9348,-12.91
9360,-14.96
9372,-17.7
9384,-21.09
9396,-24.79
9408,-28.14
9420,-30.32
9432,-30.57
9444,-28.48
9456,-24.15
9468,-18.21
9480,-11.56
9491,-5.12
9502,0.43
9514,4.78
9526,7.96
9538,10.17
9550,11.64
9562,12.52
9574,12.92
9586,12.92
9598,12.62
9610,12.21
9622,11.89
9634,11.87
9646,12.26
9658,13.07
9670,14.23
9681,15.59
9692,16.99
9704,18.3
9716,19.42
9728,20.29
9740,20.88
9752,21.18
9764,21.16
9776,20.83
9788,20.19
9800,19.31
9812,18.28
9824,17.17
9836,16.08
9848,15.03
9860,14.02
9871,13.0
9882,11.94
9894,10.83
9906,9.68
9918,8.48
9930,7.27
9942,6.07
9954,4.96
9966,4.02
9978,3.3
9990,2.78
10002,2.34
10014,1.79
10026,0.95
10038,-0.29
10050,-1.97
10061,-4.02
10072,-6.38
10084,-8.99
10096,-11.8
10108,-14.76
10120,-17.82
10132,-20.96
10144,-24.24
10156,-27.74
10168,-31.46
10180,-35.21
10192,-38.55
10204,-40.88
10216,-41.62
10228,-40.41
10240,-37.24
10251,-32.49
10262,-26.73
10274,-20.62
10286,-14.73
10298,-9.43
10310,-4.98
10322,-1.5
10334,0.95
10346,2.41
10358,3.03
10370,3.07
10382,2.9
10394,2.9
10406,3.33
10418,4.26
10430,5.52
10441,6.83
10452,7.91
10464,8.65
10476,9.14
10488,9.6
10500,10.22
10512,11.08
10524,12.12
10536,13.15
10548,13.98
10560,14.47
10572,14.57
10584,14.3
10596,13.72
10608,12.94
10620,12.07
10631,11.21
10642,10.45
10654,9.78
10666,9.1
10678,8.27
10690,7.18
10702,5.77
10714,4.13
10726,2.38
10738,0.68
10750,-0.88
10762,-2.29
10774,-3.63
10786,-4.94
10798,-6.29
10810,-7.65
10821,-8.97
10832,-10.18
10844,-11.24
10856,-12.2
10868,-13.12
10880,-14.18
10892,-15.5
10904,-17.19
10916,-19.29
10928,-21.64
10940,-23.95
10952,-25.71
10964,-26.35
10976,-25.4
10988,-22.68
11000,-18.36
11011,-12.94
11022,-7.02
11034,-1.16
11046,4.22
11058,8.92
11070,12.81
11082,15.75
11094,17.63
11106,18.39
11118,18.12
11130,17.11
11142,15.74
11154,14.43
11166,13.46
11178,12.96
11190,12.88
11201,13.09
11212,13.41
11224,13.72
11236,13.97
11248,14.17
11260,14.36
11272,14.56
11284,14.71
11296,14.72
11308,14.46
11320,13.85
11332,12.9
11344,11.71
11356,10.45
11368,9.24
11380,8.16
11391,7.16
11402,6.15
11414,4.99
11426,3.62
11438,2.06
11450,0.41
11462,-1.23
11474,-2.8
11486,-4.3
11498,-5.8
11510,-7.35
11522,-9.0
11534,-10.75
11546,-12.53
11558,-14.26
11570,-15.88
11581,-17.37
11592,-18.77
11604,-20.23
11616,-21.95
11628,-24.1
11640,-26.78
11652,-29.86
11664,-32.99
11676,-35.59
11688,-37.02
11700,-36.73
11712,-34.43
11724,-30.16
11736,-24.32
11748,-17.52
11760,-10.42
11771,-3.63
11782,2.41
11794,7.45
11806,11.38
11818,14.2
11830,15.97
11842,16.78
11854,16.82
11866,16.31
11878,15.54
11890,14.77
11902,14.19
11914,13.85
11926,13.68
11938,13.56
11950,13.39
11961,13.21
11972,13.14
11984,13.29
11996,13.71
12008,14.29
12020,14.84
12032,15.17
12044,15.19
12056,14.91
12068,14.45
12080,13.89
12092,13.3
12104,12.67
12116,11.97
12128,11.2
12140,10.36
12151,9.47
12162,8.52
12174,7.52
12186,6.4
12198,5.14
12210,3.69
12222,2.05
12234,0.27
12246,-1.61
12258,-3.51
12270,-5.4
12282,-7.29
12294,-9.21
12306,-11.16
12318,-13.15
12330,-15.15
12341,-17.22
12352,-19.45
12364,-22.0
12376,-24.94
12388,-28.15
12400,-31.24
12412,-33.62
12424,-34.66
12436,-33.88
12448,-31.09
12460,-26.5
12472,-20.54
12484,-13.87
12496,-7.15
12508,-0.98
12520,4.22
12531,8.19
12542,10.9
12554,12.46
12566,13.09
12578,13.07
12590,12.66
12602,12.09
12614,11.53
12626,11.07
12638,10.8
12650,10.72
12662,10.82
12674,11.06
12686,11.42
12698,11.88
12710,12.44
12721,13.06
12732,13.72
12744,14.3
12756,14.68
12768,14.71
12780,14.31
12792,13.48
12804,12.34
12816,11.09
12828,9.96
12840,9.03
12852,8.29
12864,7.59
12876,6.76
12888,5.72
12900,4.51
12911,3.24
12922,2.01
12934,0.81
12946,-0.49
12958,-2.04
12970,-3.93
12982,-6.06
12994,-8.21
13006,-10.12
13018,-11.63
13030,-12.73
13042,-13.63
13054,-14.59
13066,-15.89
13078,-17.68
13090,-19.95
13101,-22.56
13112,-25.18
13124,-27.44
13136,-28.86
13148,-28.99
13160,-27.54
13172,-24.41
13184,-19.81
13196,-14.25
13208,-8.34
13220,-2.73
13232,2.06
13244,5.77
13256,8.34
13268,9.87
13280,10.56
13291,10.58
13302,10.09
13314,9.24
13326,8.16
13338,7.05
13350,6.09
13362,5.45
13374,5.21
13386,5.31
13398,5.65
13410,6.04
13422,6.39
13434,6.67
13446,6.88
13458,7.0
13470,6.9
13481,6.43
13492,5.49
13504,4.18
13516,2.8
13528,1.83
13540,1.7
13552,2.7
13564,4.81
13576,7.78
13588,11.18
13600,14.6
13612,17.65
13624,20.06
13636,21.62
13648,22.15
13660,21.56
13671,19.85
13682,17.19
13694,13.88
13706,10.26
13718,6.64
13730,3.19
13742,-0.06
13754,-3.25
13766,-6.59
13778,-10.27
13790,-14.36
13802,-18.7
13814,-22.83
13826,-26.06
13838,-27.7
13850,-27.23
13861,-24.58
13872,-20.1
13884,-14.45
13896,-8.44
13908,-2.75
13920,2.2
13932,6.16
13944,9.05
13956,10.87
13968,11.67
13980,11.58
13992,10.84
14004,9.76
14016,8.66
14028,7.82
14040,7.34
14051,7.19
14062,7.26
14074,7.43
14086,7.7
14098,8.14
14110,8.82
14122,9.72
14134,10.68
14146,11.4
14158,11.63
14170,11.27
14182,10.5
14194,9.61
14206,8.91
14218,8.5
14230,8.25
14241,7.87
14252,7.1
14264,5.82
14276,4.1
14288,2.16
14300,0.25
14312,-1.45
14324,-2.89
14336,-4.17
14348,-5.45
14360,-6.89
14372,-8.57
14384,-10.47
14396,-12.46
14408,-14.36
14420,-16.07
14431,-17.55
14442,-18.91
14454,-20.38
14466,-22.21
14478,-24.6
14490,-27.53
14502,-30.73
14514,-33.57
14526,-35.31
14538,-35.27
14550,-33.08
14562,-28.83
14574,-23.04
14586,-16.45
14598,-9.83
14610,-3.72
14621,1.54
14632,5.83
14644,9.11
14656,11.39
14668,12.74
14680,13.26
14692,13.13
14704,12.61
14716,11.97
14728,11.42
14740,11.11
14752,11.04
14764,11.15
14776,11.32
14788,11.49
14800,11.66
14811,11.94
14822,12.41
14834,13.08
14846,13.84
14858,14.5
14870,14.84
14882,14.75
14894,14.21
14906,13.31
14918,12.07
14930,10.5
14942,8.58
14954,6.41
14966,4.27
14978,2.66
14990,2.05
15001,2.76
15012,4.74
15024,7.6
15036,10.78
15048,13.69
15060,15.93
15072,17.29
15084,17.75
15096,17.34
15108,16.14
15120,14.27
15132,11.9
15144,9.26
15156,6.51
15168,3.74
15180,0.87
15191,-2.37
15202,-6.26
15214,-11.0
15226,-16.51
15238,-22.37
15250,-27.78
15262,-31.79
15274,-33.61
15286,-32.87
15298,-29.8
15310,-25.11
15322,-19.72
15334,-14.42
15346,-9.72
15358,-5.8
15370,-2.68
15381,-0.36
15392,1.13
15404,1.78
15416,1.7
15428,1.16
15440,0.48
15452,-0.03
15464,-0.22
15476,-0.05
15488,0.39
15500,1.04
15512,1.81
15524,2.67
15536,3.55
15548,4.4
15560,5.2
15571,5.97
15582,6.75
15594,7.58
15606,8.41
15618,9.15
15630,9.66
15642,9.87
15654,9.81
15666,9.6
15678,9.31
15690,8.96
15702,8.46
15714,7.71
15726,6.6
15738,5.2
15750,3.65
15761,2.16
15772,0.89
15784,-0.18
15796,-1.18
15808,-2.25
15820,-3.51
15832,-4.92
15844,-6.37
15856,-7.73
15868,-8.92
15880,-9.98
15892,-11.01
15904,-12.1
15916,-13.36
15928,-14.87
15940,-16.7
15951,-18.86
15962,-21.28
15974,-23.65
15986,-25.47
15998,-26.16
16010,-25.25
16022,-22.55
16034,-18.26
16046,-12.88
16058,-7.05
16070,-1.35
16082,3.79
16094,8.15
16106,11.62
16118,14.14
16130,15.69
16141,16.29
16152,16.07
16164,15.23
16176,14.03
16188,12.74
16200,11.59
16212,10.74
16224,10.25
16236,10.18
16248,10.48
16260,11.08
16272,11.85
16284,12.65
16296,13.35
16308,13.83
16320,14.02
16331,13.9
16342,13.47
16354,12.71
16366,11.64
16378,10.25
16390,8.57
16402,6.65
16414,4.57
16426,2.42
16438,0.29
16450,-1.72
16462,-3.57
16474,-5.23
16486,-6.71
16498,-8.03
16510,-9.23
16521,-10.35
16532,-11.4
16544,-12.4
16556,-13.38
16568,-14.36
16580,-15.45
16592,-16.76
16604,-18.46
16616,-20.67
16628,-23.4
16640,-26.43
16652,-29.3
16664,-31.36
16676,-31.92
16688,-30.49
16700,-26.9
16711,-21.38
16722,-14.55
16734,-7.2
16746,-0.08
16758,6.28
16770,11.56
16782,15.69
16794,18.72
16806,20.74
16818,21.83
16830,22.11
16842,21.74
16854,20.95
16866,20.01
16878,19.19
16890,18.68
16901,18.54
16912,18.68
16924,18.95
16936,19.17
16948,19.19
16960,18.98
16972,18.55
16984,17.97
16996,17.28
17008,16.46
17020,15.49
17032,14.29
17044,12.86
17056,11.22
17068,9.48
17080,7.73
17091,6.06
17102,4.48
17114,2.91
17126,1.2
17138,-0.76
17150,-2.99
17162,-5.42
17174,-7.82
17186,-9.99
17198,-11.8
17210,-13.25
17222,-14.5
17234,-15.78
17246,-17.33
17258,-19.36
17270,-21.98
17281,-25.15
17292,-28.59
17304,-31.77
17316,-33.98
17328,-34.55
17340,-33.04
17352,-29.47
17364,-24.28
17376,-18.14
17388,-11.78
17400,-5.73
17412,-0.29
17424,4.42
17436,8.35
17448,11.5
17460,13.84
17471,15.37
17482,16.14
17494,16.25
17506,15.83
17518,15.06
17530,14.16
17542,13.34
17554,12.81
17566,12.66
17578,12.89
17590,13.41
17602,14.1
17614,14.89
17626,15.76
17638,16.65
17650,17.44
17661,17.97
17672,17.98
17684,17.37
17696,16.1
17708,14.36
17720,12.39
17732,10.43
17744,8.62
17756,6.95
17768,5.33
17780,3.64
17792,1.81
17804,-0.18
17816,-2.28
17828,-4.39
17840,-6.43
17851,-8.32
17862,-10.0
17874,-11.47
17886,-12.79
17898,-14.05
17910,-15.34
17922,-16.73
17934,-18.3
17946,-20.18
17958,-22.5
17970,-25.31
17982,-28.45
17994,-31.42
18006,-33.5
18018,-33.91
18030,-32.15
18041,-28.17
18052,-22.41
18064,-15.66
18076,-8.76
18088,-2.34
18100,3.23
18112,7.82
18124,11.44
18136,14.16
18148,16.02
18160,17.16
18172,17.74
18184,18.0
18196,18.18
18208,18.45
18220,18.91
18231,19.54
18242,20.28
18254,20.94
18266,21.37
18278,21.42
18290,21.07
18302,20.41
18314,19.67
18326,19.03
18338,18.57
18350,18.2
18362,17.67
18374,16.71
18386,15.21
18398,13.28
18410,11.19
18421,9.25
18432,7.6
18444,6.19
18456,4.75
18468,2.99
18480,0.71
18492,-2.05
18504,-5.11
18516,-8.17
18528,-11.02
18540,-13.51
18552,-15.67
18564,-17.53
18576,-19.12
18588,-20.45
18600,-21.55
18611,-22.56
18622,-23.72
18634,-25.33
18646,-27.54
18658,-30.21
18670,-32.87
18682,-34.81
18694,-35.32
18706,-33.96
18718,-30.68
18730,-25.82
18742,-19.99
18754,-13.8
18766,-7.74
18778,-2.14
18790,2.81
18801,6.95
18812,10.06
18824,12.0
18836,12.68
18848,12.25
18860,11.08
18872,9.68
18884,8.54
18896,8.0
18908,8.18
18920,8.96
18932,10.09
18944,11.32
18956,12.47
18968,13.46
18980,14.28
18991,14.97
19002,15.57
19014,16.05
19026,16.33
19038,16.27
19050,15.69
19062,14.52
19074,12.84
19086,10.91
19098,9.01
19110,7.38
19122,6.08
19134,4.97
19146,3.83
19158,2.52
19170,1.02
19181,-0.54
19192,-1.99
19204,-3.26
19216,-4.44
19228,-5.71
19240,-7.22
19252,-9.02
19264,-11.09
19276,-13.44
19288,-16.07
19300,-19.01
19312,-22.06
19324,-24.82
19336,-26.64
19348,-26.88
19360,-25.11
19371,-21.32
19382,-15.98
19394,-9.85
19406,-3.77
19418,1.61
19430,5.89
19442,8.98
19454,10.99
19466,12.12
19478,12.54
19490,12.46
19502,12.03
19514,11.44
19526,10.9
19538,10.54
19550,10.49
19561,10.73
19572,11.16
19584,11.69
19596,12.24
19608,12.85
19620,13.62
19632,14.62
19644,15.79
19656,16.94
19668,17.72
19680,17.84
19692,17.13
19704,15.65
19716,13.7
19728,11.61
19740,9.68
19751,8.01
19762,6.47
19774,4.83
19786,2.86
19798,0.47
19810,-2.27
19822,-5.18
19834,-8.04
19846,-10.71
19858,-13.14
19870,-15.3
19882,-17.18
19894,-18.76
19906,-20.05
19918,-21.21
19930,-22.55
19941,-24.45
19952,-27.14
19964,-30.49
19976,-33.93
19988,-36.59
20000,-37.55
20012,-36.27
20024,-32.7
20036,-27.32
20048,-20.87
20060,-14.07
20072,-7.43
20084,-1.24
20096,4.33
20108,9.12
20120,12.94
20131,15.66
20142,17.27
20154,17.94
20166,18.0
20178,17.79
20190,17.6
20202,17.58
20214,17.78
20226,18.14
20238,18.6
20250,19.03
20262,19.39
20274,19.6
20286,19.7
20298,19.73
20310,19.77
20321,19.84
20332,19.86
20344,19.7
20356,19.18
20368,18.2
20380,16.77
20392,15.02
20404,13.14
20416,11.28
20428,9.55
20440,7.93
20452,6.35
20464,4.7
20476,2.9
20488,0.9
20500,-1.26
20511,-3.45
20522,-5.53
20534,-7.38
20546,-8.99
20558,-10.47
20570,-11.98
20582,-13.68
20594,-15.66
20606,-17.94
20618,-20.51
20630,-23.28
20642,-26.08
20654,-28.57
20666,-30.3
20678,-30.77
20690,-29.58
20701,-26.6
20712,-22.01
20724,-16.32
20736,-10.16
20748,-4.2
20760,1.06
20772,5.32
20784,8.48
20796,10.59
20808,11.78
20820,12.23
20832,12.11
20844,11.63
20856,10.99
20868,10.39
20880,9.96
20891,9.75
20902,9.71
20914,9.75
20926,9.79
20938,9.88
20950,10.13
20962,10.68
20974,11.53
20986,12.51
20998,13.33
