seconds,BVP
2,-4.76
14,-4.66
26,-4.61
38,-4.52
50,-4.28
62,-3.95
74,-3.62
86,-3.49
98,-3.66
110,-4.15
122,-4.88
134,-5.69
145,-6.43
156,-7.02
168,-7.44
180,-7.7
192,-7.78
204,-7.68
216,-7.44
228,-7.22
240,-7.28
252,-7.89
264,-9.11
276,-10.78
288,-12.44
300,-13.57
312,-13.75
324,-12.85
335,-11.08
346,-8.87
358,-6.63
370,-4.7
382,-3.19
394,-2.07
406,-1.22
418,-0.56
430,-0.05
442,0.31
454,0.52
466,0.63
478,0.72
490,0.87
502,1.11
514,1.36
525,1.5
536,1.37
548,0.96
560,0.34
572,-0.3
584,-0.84
596,-1.23
608,-1.54
620,-1.87
632,-2.25
644,-2.66
656,-3.07
668,-3.48
680,-4.0
692,-4.71
704,-5.54
715,-6.31
726,-6.77
738,-6.73
750,-6.24
762,-5.56
774,-5.09
786,-5.18
798,-5.95
810,-7.27
822,-8.82
834,-10.21
846,-11.1
858,-11.35
870,-10.98
882,-10.12
894,-8.96
905,-7.66
916,-6.34
928,-5.09
940,-3.98
952,-3.05
964,-2.34
976,-1.79
988,-1.26
1000,-0.58
1012,0.35
1024,1.52
1036,2.73
1048,3.74
1060,4.33
1072,4.45
1084,4.21
1095,3.86
1106,3.65
1118,3.74
1130,4.16
1142,4.76
1154,5.37
1166,5.8
1178,5.92
1190,5.73
1202,5.31
1214,4.76
1226,4.22
1238,3.79
1250,3.43
1262,3.12
1274,2.77
1285,2.32
1296,1.77
1308,1.15
1320,0.5
1332,-0.11
1344,-0.64
1356,-1.03
1368,-1.28
1380,-1.44
1392,-1.64
1404,-2.06
1416,-2.85
1428,-4.08
1440,-5.65
1452,-7.29
1464,-8.66
1475,-9.43
1486,-9.42
1498,-8.61
1510,-7.16
1522,-5.34
1534,-3.45
1546,-1.74
1558,-0.38
1570,0.61
1582,1.31
1594,1.86
1606,2.32
1618,2.68
1630,2.89
1642,2.84
1654,2.55
1665,2.12
1676,1.71
1688,1.45
1700,1.38
1712,1.47
1724,1.64
1736,1.87
1748,2.16
1760,2.54
1772,3.01
1784,3.49
1796,3.85
1808,4.0
1820,3.94
1832,3.78
1844,3.68
1855,3.73
1866,3.89
1878,4.01
1890,3.91
1902,3.47
1914,2.67
1926,1.68
1938,0.72
1950,0.04
1962,-0.18
1974,0.1
1986,0.69
1998,1.29
2010,1.55
2022,1.15
2034,0.01
2045,-1.73
2056,-3.75
2068,-5.63
2080,-6.99
2092,-7.62
2104,-7.53
2116,-6.83
2128,-5.74
2140,-4.46
2152,-3.17
2164,-2.01
2176,-1.08
2188,-0.47
2200,-0.27
2212,-0.5
2224,-1.13
2235,-2.04
2246,-3.01
2258,-3.83
2270,-4.33
2282,-4.49
2294,-4.38
2306,-4.12
2318,-3.84
2330,-3.56
2342,-3.29
2354,-3.04
2366,-2.83
2378,-2.74
2390,-2.78
2402,-2.93
2414,-3.1
2425,-3.24
2436,-3.33
2448,-3.44
2460,-3.63
2472,-3.91
2484,-4.25
2496,-4.53
2508,-4.73
2520,-4.83
2532,-4.91
2544,-5.01
2556,-5.11
2568,-5.13
2580,-5.02
2592,-4.82
2604,-4.72
2615,-4.94
2626,-5.66
2638,-6.89
2650,-8.4
2662,-9.81
2674,-10.71
2686,-10.8
2698,-10.04
2710,-8.54
2722,-6.58
2734,-4.42
2746,-2.26
2758,-0.2
2770,1.67
2782,3.3
2794,4.58
2805,5.38
2816,5.63
2828,5.28
2840,4.44
2852,3.35
2864,2.28
2876,1.52
2888,1.22
2900,1.37
2912,1.8
2924,2.22
2936,2.37
2948,2.16
2960,1.68
2972,1.19
2984,0.93
2995,0.97
3006,1.23
3018,1.45
3030,1.42
3042,1.06
3054,0.45
3066,-0.19
3078,-0.62
3090,-0.77
3102,-0.72
3114,-0.64
3126,-0.73
3138,-1.05
3150,-1.56
3162,-2.14
3174,-2.63
3185,-2.97
3196,-3.1
3208,-3.06
3220,-2.9
3232,-2.7
3244,-2.6
3256,-2.75
3268,-3.34
3280,-4.51
3292,-6.21
3304,-8.18
3316,-10.0
3328,-11.23
3340,-11.53
3352,-10.78
3364,-9.13
3375,-6.89
3386,-4.48
3398,-2.22
3410,-0.34
3422,1.09
3434,2.09
3446,2.7
3458,2.93
3470,2.8
3482,2.36
3494,1.74
3506,1.15
3518,0.78
3530,0.75
3542,1.04
3554,1.47
3565,1.81
3576,1.93
3588,1.78
3600,1.48
3612,1.19
3624,1.04
3636,1.13
3648,1.46
3660,1.97
3672,2.54
3684,3.03
3696,3.33
3708,3.35
3720,3.13
3732,2.8
3744,2.52
3755,2.43
3766,2.56
3778,2.84
3790,3.06
3802,3.04
3814,2.67
3826,1.94
3838,0.99
3850,0.01
3862,-0.8
3874,-1.3
3886,-1.45
3898,-1.25
3910,-0.83
3922,-0.38
3934,-0.14
3945,-0.32
3956,-1.02
3968,-2.16
3980,-3.5
3992,-4.65
4004,-5.31
4016,-5.28
4028,-4.53
4040,-3.16
4052,-1.38
4064,0.59
4076,2.49
4088,4.11
4100,5.27
4112,5.88
4124,5.96
4135,5.66
4146,5.2
4158,4.79
4170,4.54
4182,4.47
4194,4.49
4206,4.5
4218,4.36
4230,4.01
4242,3.43
4254,2.66
4266,1.78
4278,0.93
4290,0.25
4302,-0.16
4314,-0.19
4325,0.14
4336,0.73
4348,1.38
4360,1.85
4372,1.96
4384,1.67
4396,1.1
4408,0.45
4420,-0.05
4432,-0.29
4444,-0.33
4456,-0.35
4468,-0.57
4480,-1.12
4492,-1.96
4504,-2.9
4515,-3.71
4526,-4.19
4538,-4.29
4550,-4.07
4562,-3.68
4574,-3.31
4586,-3.14
4598,-3.32
4610,-3.94
4622,-4.97
4634,-6.24
4646,-7.45
4658,-8.23
4670,-8.28
4682,-7.53
4694,-6.1
4705,-4.28
4716,-2.4
4728,-0.7
4740,0.73
4752,1.85
4764,2.68
4776,3.17
4788,3.29
4800,3.06
4812,2.57
4824,2.04
4836,1.63
4848,1.45
4860,1.45
4872,1.46
4884,1.34
4895,1.01
4906,0.55
4918,0.15
4930,-0.01
4942,0.13
4954,0.48
4966,0.81
4978,0.92
4990,0.76
5002,0.41
5014,0.06
5026,-0.16
5038,-0.2
5050,-0.15
5062,-0.1
5074,-0.1
5085,-0.12
5096,-0.09
5108,0.04
5120,0.24
5132,0.43
5144,0.54
5156,0.61
5168,0.71
5180,0.89
5192,1.11
5204,1.2
5216,0.94
5228,0.17
5240,-1.06
5252,-2.56
5264,-3.96
5275,-4.91
5286,-5.2
5298,-4.77
5310,-3.78
5322,-2.52
5334,-1.34
5346,-0.47
5358,0.01
5370,0.2
5382,0.29
5394,0.44
5406,0.64
5418,0.75
5430,0.57
5442,0.01
5454,-0.84
5465,-1.72
5476,-2.39
5488,-2.74
5500,-2.84
5512,-2.86
5524,-2.95
5536,-3.15
5548,-3.41
5560,-3.65
5572,-3.82
5584,-3.93
5596,-3.94
5608,-3.81
5620,-3.49
5632,-3.0
5644,-2.46
5655,-2.03
5666,-1.82
5678,-1.84
5690,-1.98
5702,-2.08
5714,-2.07
5726,-1.99
5738,-1.95
5750,-2.05
5762,-2.31
5774,-2.69
5786,-3.15
5798,-3.72
5810,-4.46
5822,-5.39
5834,-6.37
5845,-7.16
5856,-7.49
5868,-7.21
5880,-6.33
5892,-5.05
5904,-3.61
5916,-2.19
5928,-0.88
5940,0.29
5952,1.26
5964,1.9
5976,2.07
5988,1.69
6000,0.8
6012,-0.43
6024,-1.76
6035,-2.99
6046,-4.02
6058,-4.81
6070,-5.31
6082,-5.51
6094,-5.36
6106,-4.86
6118,-4.09
6130,-3.21
6142,-2.42
6154,-1.94
6166,-1.87
6178,-2.23
6190,-2.89
6202,-3.7
6214,-4.52
6225,-5.29
6236,-6.02
6248,-6.73
6260,-7.33
6272,-7.66
6284,-7.56
6296,-6.94
6308,-5.93
6320,-4.82
6332,-3.92
6344,-3.44
6356,-3.43
6368,-3.78
6380,-4.39
6392,-5.17
6404,-6.07
6415,-6.96
6426,-7.59
6438,-7.67
6450,-6.94
6462,-5.39
6474,-3.21
6486,-0.75
6498,1.66
6510,3.81
6522,5.62
6534,7.06
6546,8.13
6558,8.75
6570,8.89
6582,8.6
6594,8.08
6605,7.59
6616,7.32
6628,7.36
6640,7.62
6652,7.92
6664,8.1
6676,8.13
6688,8.05
6700,7.99
6712,8.06
6724,8.23
6736,8.4
6748,8.42
6760,8.19
6772,7.68
6784,6.96
6795,6.13
6806,5.26
6818,4.42
6830,3.63
6842,2.92
6854,2.34
6866,1.9
6878,1.61
6890,1.4
6902,1.17
6914,0.76
6926,0.1
6938,-0.9
6950,-2.18
6962,-3.61
6974,-4.99
6985,-6.13
6996,-6.83
7008,-7.02
7020,-6.69
7032,-5.88
7044,-4.71
7056,-3.25
7068,-1.57
7080,0.25
7092,2.14
7104,3.96
7116,5.55
7128,6.76
7140,7.5
7152,7.74
7164,7.55
7175,7.07
7186,6.44
7198,5.84
7210,5.43
7222,5.33
7234,5.6
7246,6.19
7258,6.94
7270,7.61
7282,7.96
7294,7.83
7306,7.26
7318,6.41
7330,5.51
7342,4.76
7354,4.21
7365,3.74
7376,3.2
7388,2.43
7400,1.4
7412,0.15
7424,-1.18
7436,-2.46
7448,-3.61
7460,-4.59
7472,-5.4
7484,-6.12
7496,-6.8
7508,-7.58
7520,-8.52
7532,-9.67
7544,-10.94
7555,-12.15
7566,-13.03
7578,-13.28
7590,-12.73
7602,-11.33
7614,-9.21
7626,-6.6
7638,-3.81
7650,-1.08
7662,1.4
7674,3.55
7686,5.35
7698,6.79
7710,7.8
7722,8.26
7734,8.08
7745,7.3
7756,6.12
7768,4.91
7780,4.05
7792,3.83
7804,4.3
7816,5.29
7828,6.51
7840,7.62
7852,8.4
7864,8.77
7876,8.74
7888,8.4
7900,7.85
7912,7.2
7924,6.49
7935,5.75
7946,4.92
7958,3.97
7970,2.9
7982,1.78
7994,0.72
8006,-0.2
8018,-1.05
8030,-1.93
8042,-2.97
8054,-4.2
8066,-5.55
8078,-6.9
8090,-8.12
8102,-9.19
8114,-10.14
8125,-10.96
8136,-11.52
8148,-11.59
8160,-10.93
8172,-9.44
8184,-7.24
8196,-4.61
8208,-1.92
8220,0.58
8232,2.67
8244,4.28
8256,5.35
8268,5.81
8280,5.63
8292,4.88
8304,3.76
8315,2.55
8326,1.59
8338,1.1
8350,1.13
8362,1.56
8374,2.16
8386,2.71
8398,3.08
8410,3.25
8422,3.3
8434,3.33
8446,3.44
8458,3.56
8470,3.6
8482,3.38
8494,2.8
8505,1.88
8516,0.71
8528,-0.51
8540,-1.65
8552,-2.65
8564,-3.53
8576,-4.38
8588,-5.31
8600,-6.39
8612,-7.61
8624,-8.9
8636,-10.15
8648,-11.18
8660,-11.78
8672,-11.79
8684,-11.05
8695,-9.54
8706,-7.32
8718,-4.55
8730,-1.42
8742,1.81
8754,4.87
8766,7.46
8778,9.3
8790,10.25
8802,10.3
8814,9.64
8826,8.55
8838,7.36
8850,6.34
8862,5.67
8874,5.35
8885,5.33
8896,5.45
8908,5.59
8920,5.63
8932,5.54
8944,5.29
8956,4.93
8968,4.52
8980,4.1
8992,3.67
9004,3.17
9016,2.49
9028,1.55
9040,0.37
9052,-0.99
9064,-2.36
9075,-3.62
9086,-4.71
9098,-5.68
9110,-6.65
9122,-7.74
9134,-9.04
9146,-10.58
9158,-12.3
9170,-14.05
9182,-15.61
9194,-16.67
9206,-16.92
9218,-16.11
9230,-14.14
9242,-11.17
9254,-7.51
9265,-3.54
9276,0.36
9288,3.91
9300,6.9
9312,9.18
9324,10.61
9336,11.2
9348,11.02
9360,10.28
9372,9.26
9384,8.21
9396,7.34
9408,6.8
9420,6.6
9432,6.7
9444,6.95
9455,7.18
9466,7.22
9478,6.98
9490,6.49
9502,5.91
9514,5.42
9526,5.12
9538,4.95
9550,4.67
9562,4.01
9574,2.81
9586,1.11
9598,-0.89
9610,-2.88
9622,-4.65
9634,-6.12
9645,-7.36
9656,-8.56
9668,-9.93
9680,-11.6
9692,-13.59
9704,-15.78
9716,-17.89
9728,-19.53
9740,-20.28
9752,-19.74
9764,-17.73
9776,-14.36
9788,-9.98
9800,-5.1
9812,-0.29
9824,4.04
9835,7.6
9846,10.24
9858,11.88
9870,12.5
9882,12.15
9894,11.08
9906,9.65
9918,8.31
9930,7.44
9942,7.19
9954,7.49
9966,8.1
9978,8.74
9990,9.22
10002,9.46
10014,9.48
10025,9.3
10036,8.94
10048,8.39
10060,7.67
10072,6.79
10084,5.78
10096,4.61
10108,3.29
10120,1.82
10132,0.27
10144,-1.26
10156,-2.7
10168,-4.04
10180,-5.38
10192,-6.89
10204,-8.73
10215,-10.96
10226,-13.46
10238,-15.99
10250,-18.19
10262,-19.68
10274,-20.16
10286,-19.45
10298,-17.53
10310,-14.52
10322,-10.65
10334,-6.24
10346,-1.6
10358,2.9
10370,6.94
10382,10.26
10394,12.7
10405,14.25
10416,15.02
10428,15.17
10440,14.89
10452,14.32
10464,13.6
10476,12.88
10488,12.29
10500,11.92
10512,11.83
10524,12.05
10536,12.53
10548,13.16
10560,13.8
10572,14.3
10584,14.52
10595,14.38
10606,13.86
10618,13.01
10630,11.92
10642,10.7
10654,9.4
10666,8.04
10678,6.64
10690,5.19
10702,3.73
10714,2.31
10726,0.92
10738,-0.47
10750,-1.98
10762,-3.67
10774,-5.58
10785,-7.64
10796,-9.74
10808,-11.78
10820,-13.64
10832,-15.21
10844,-16.3
10856,-16.61
10868,-15.8
10880,-13.66
10892,-10.28
10904,-6.06
10916,-1.59
10928,2.51
10940,5.83
10952,8.24
10964,9.82
10975,10.73
10986,11.16
10998,11.21
11010,11.01
11022,10.62
11034,10.1
11046,9.5
11058,8.86
11070,8.25
11082,7.79
11094,7.62
11106,7.8
11118,8.27
11130,8.88
11142,9.41
11154,9.68
11165,9.64
11176,9.34
11188,8.83
11200,8.12
11212,7.14
11224,5.84
11236,4.19
11248,2.3
11260,0.35
11272,-1.45
11284,-2.99
11296,-4.29
11308,-5.47
11320,-6.66
11332,-7.94
11344,-9.27
11355,-10.52
11366,-11.58
11378,-12.44
11390,-13.26
11402,-14.23
11414,-15.44
11426,-16.75
11438,-17.78
11450,-18.01
11462,-17.05
11474,-14.76
11486,-11.36
11498,-7.31
11510,-3.17
11522,0.61
11534,3.74
11545,6.08
11556,7.59
11568,8.27
11580,8.13
11592,7.33
11604,6.12
11616,4.87
11628,3.96
11640,3.64
11652,3.94
11664,4.71
11676,5.67
11688,6.57
11700,7.23
11712,7.61
11724,7.76
11735,7.73
11746,7.56
11758,7.23
11770,6.66
11782,5.81
11794,4.65
11806,3.21
11818,1.59
11830,-0.06
11842,-1.61
11854,-2.93
11866,-3.97
11878,-4.74
11890,-5.31
11902,-5.81
11914,-6.38
11925,-7.13
11936,-8.14
11948,-9.44
11960,-11.02
11972,-12.84
11984,-14.84
11996,-16.84
12008,-18.58
12020,-19.66
12032,-19.66
12044,-18.26
12056,-15.41
12068,-11.34
12080,-6.56
12092,-1.68
12104,2.83
12115,6.67
12126,9.71
12138,11.9
12150,13.23
12162,13.67
12174,13.29
12186,12.31
12198,11.06
12210,9.88
12222,9.03
12234,8.56
12246,8.42
12258,8.48
12270,8.66
12282,8.99
12294,9.5
12305,10.21
12316,11.03
12328,11.74
12340,12.1
12352,11.92
12364,11.14
12376,9.82
12388,8.15
12400,6.34
12412,4.57
12424,2.98
12436,1.65
12448,0.55
12460,-0.36
12472,-1.19
12484,-2.08
12495,-3.12
12506,-4.37
12518,-5.76
12530,-7.21
12542,-8.62
12554,-9.94
12566,-11.19
12578,-12.45
12590,-13.76
12602,-15.14
12614,-16.54
12626,-17.81
12638,-18.79
12650,-19.28
12662,-19.07
12674,-18.05
12685,-16.24
12696,-13.84
12708,-11.23
12720,-8.81
12732,-6.94
12744,-5.79
12756,-5.37
12768,-5.61
12780,-6.43
12792,-7.77
12804,-9.57
12816,-11.74
12828,-14.09
12840,-16.4
12852,-18.46
12864,-20.17
12875,-21.56
12886,-22.77
12898,-23.93
12910,-25.1
12922,-26.22
12934,-27.16
12946,-27.83
12958,-28.28
12970,-28.65
12982,-29.18
12994,-30.02
13006,-31.19
13018,-32.53
13030,-33.67
13042,-34.11
13054,-33.25
13065,-30.57
13076,-25.71
13088,-18.6
13100,-9.55
13112,0.89
13124,11.96
13136,22.93
13148,33.25
13160,42.57
13172,50.73
13184,57.64
13196,63.18
13208,67.1
13220,69.09
13232,68.87
13244,66.45
13255,62.18
13266,56.81
13278,51.34
13290,46.62
13302,43.09
13314,40.64
13326,38.72
13338,36.71
13350,34.36
13362,31.94
13374,30.21
13386,30.17
13398,32.65
13410,38.08
13422,46.29
13434,56.38
13445,66.67
13456,74.95
13468,78.98
13480,77.52
13492,71.27
13504,63.3
13516,58.42
13528,61.51
13540,75.63
13552,100.73
13564,133.67
13576,169.38
13588,202.47
13600,228.44
13612,244.15
13624,247.63
13635,237.92
13646,215.03
13658,180.31
13670,136.48
13682,87.2
13694,35.95
13706,-14.94
13718,-64.7
13730,-113.61
13742,-162.0
13754,-209.24
13766,-253.45
13778,-291.96
13790,-321.95
13802,-341.09
13814,-347.71
13825,-340.65
13836,-319.26
13848,-283.6
13860,-235.07
13872,-177.16
13884,-115.66
13896,-57.94
13908,-11.26
13920,19.23
13932,31.9
13944,28.86
13956,14.95
13968,-3.96
13980,-22.72
13992,-37.94
14004,-48.14
14015,-53.2
14026,-53.47
14038,-49.53
14050,-42.39
14062,-33.47
14074,-24.29
14086,-15.98
14098,-8.81
14110,-2.06
14122,5.4
14134,14.74
14146,26.02
14158,37.54
14170,46.46
14182,50.15
14194,47.34
14205,38.51
14216,25.8
14228,11.93
14240,-0.25
14252,-9.03
14264,-14.76
14276,-19.18
14288,-24.27
14300,-31.33
14312,-40.66
14324,-51.28
14336,-61.44
14348,-68.23
14360,-68.92
14372,-62.39
14384,-49.0
14395,-30.11
14406,-7.7
14418,15.69
14430,39.05
14442,57.59
14454,67.16
14466,69.11
14478,66.5
14490,60.89
14502,51.87
14514,39.06
14526,22.12
14538,1.41
14550,-21.61
14562,-43.71
14574,-61.22
14585,-71.93
14596,-75.48
14608,-72.93
14620,-65.92
14632,-56.21
14644,-44.89
14656,-32.12
14668,-17.44
14680,-1.07
14692,15.13
14704,28.5
14716,36.91
14728,39.79
14740,38.01
14752,33.64
14764,29.87
14775,29.36
14786,32.7
14798,37.93
14810,41.87
14822,41.92
14834,37.62
14846,30.15
14858,21.99
14870,17.04
14882,17.88
14894,24.62
14906,35.03
14918,46.48
14930,57.63
14942,69.08
14954,81.74
14965,96.06
14976,113.4
14988,133.78
15000,155.69
15012,176.53
15024,194.03
15036,206.84
15048,214.75
15060,217.02
15072,202.37
15084,165.7
15096,112.35
15108,56.16
15120,9.45
15132,-22.73
15144,-46.03
15155,-65.37
15166,-83.63
15178,-101.5
15190,-112.63
15202,-110.77
15214,-91.46
15226,-54.17
15238,-2.92
15250,54.01
15262,106.36
15274,143.65
15286,159.0
15298,152.91
15310,131.04
15322,101.28
15334,70.17
15345,41.37
15356,15.91
15368,-6.03
15380,-24.66
15392,-39.99
15404,-51.25
15416,-59.19
15428,-66.52
15440,-77.4
15452,-95.37
15464,-121.62
15476,-154.22
15488,-189.55
15500,-223.72
15512,-253.47
15524,-277.54
15535,-296.42
15546,-311.59
15558,-324.24
15570,-334.37
15582,-340.74
15594,-341.79
15606,-336.48
15618,-324.7
15630,-307.51
15642,-286.63
15654,-263.75
15666,-239.95
15678,-215.58
15690,-190.62
15702,-165.28
15714,-140.27
15725,-116.74
15736,-95.8
15748,-78.05
15760,-63.29
15772,-50.68
15784,-39.07
15796,-27.57
15808,-15.68
15820,-3.35
15832,9.37
15844,22.59
15856,36.63
15868,51.89
15880,68.39
15892,85.58
15904,102.19
15915,116.6
15926,127.3
15938,133.46
15950,135.25
15962,133.75
15974,130.56
15986,127.18
15998,124.58
16010,122.94
16022,121.8
16034,120.5
16046,118.53
16058,115.73
16070,112.35
16082,108.74
16094,105.2
16105,101.82
16116,98.52
16128,95.09
16140,91.21
16152,86.5
16164,80.52
16176,72.98
16188,63.77
16200,53.13
16212,41.56
16224,29.66
16236,18.0
16248,7.04
16260,-2.81
16272,-11.13
16284,-17.33
16295,-20.79
16306,-21.1
16318,-18.27
16330,-12.86
16342,-5.8
16354,1.81
16366,9.13
16378,15.66
16390,21.31
16402,26.15
16414,30.2
16426,33.35
16438,35.4
16450,36.21
16462,35.91
16474,34.93
16485,33.92
16496,33.47
16508,33.91
16520,35.14
16532,36.75
16544,38.17
16556,38.97
16568,39.0
16580,38.46
16592,37.72
16604,37.18
16616,37.09
16628,37.4
16640,37.75
16652,37.58
16664,36.27
16675,33.37
16686,28.73
16698,22.56
16710,15.35
16722,7.8
16734,0.55
16746,-5.9
16758,-11.3
16770,-15.47
16782,-18.2
16794,-19.11
16806,-17.65
16818,-13.32
16830,-5.94
16842,4.06
16854,15.61
16865,27.07
16876,36.69
16888,42.99
16900,45.17
16912,43.31
16924,38.44
16936,32.32
16948,27.04
16960,24.61
16972,26.32
16984,32.51
16996,42.37
17008,54.21
17020,65.96
17032,75.58
17044,81.53
17055,83.01
17066,80.0
17078,73.34
17090,64.61
17102,55.87
17114,49.28
17126,46.43
17138,47.94
17150,53.21
17162,60.59
17174,67.78
17186,72.22
17198,71.57
17210,64.1
17222,49.08
17234,27.28
17245,1.19
17256,-25.22
17268,-47.39
17280,-61.57
17292,-66.16
17304,-62.42
17316,-53.92
17328,-45.16
17340,-39.72
17352,-38.96
17364,-41.8
17376,-45.56
17388,-47.47
17400,-45.8
17412,-40.41
17424,-32.28
17435,-22.65
17446,-12.3
17458,-1.41
17470,10.05
17482,21.73
17494,32.68
17506,41.59
17518,47.41
17530,49.86
17542,49.58
17554,47.8
17566,45.74
17578,44.27
17590,43.85
17602,44.73
17614,47.26
17625,51.85
17636,58.87
17648,68.38
17660,79.95
17672,92.72
17684,105.61
17696,117.55
17708,127.72
17720,135.65
17732,141.2
17744,144.54
17756,145.97
17768,145.73
17780,143.79
17792,139.76
17804,132.87
17815,122.17
17826,106.85
17838,86.47
17850,61.18
17862,31.6
17874,-1.5
17886,-37.68
17898,-77.04
17910,-120.12
17922,-167.05
17934,-216.56
17946,-265.28
17958,-308.01
17970,-339.12
17982,-354.35
17994,-352.39
18005,-335.16
18016,-306.87
18028,-272.25
18040,-235.17
18052,-198.02
18064,-162.12
18076,-128.58
18088,-98.78
18100,-74.21
18112,-55.72
18124,-42.91
18136,-33.98
18148,-26.42
18160,-18.0
18172,-7.62
18184,4.35
18195,16.37
18206,26.62
18218,33.79
18230,37.53
18242,38.54
18254,38.05
18266,37.24
18278,36.79
18290,36.73
18302,36.62
18314,35.9
18326,34.24
18338,31.68
18350,28.55
18362,25.32
18374,22.3
18385,19.63
18396,17.18
18408,14.76
18420,12.19
18432,9.41
18444,6.42
18456,3.23
18468,-0.16
18480,-3.74
18492,-7.37
18504,-10.69
18516,-13.13
18528,-14.06
18540,-12.99
18552,-9.78
18564,-4.73
18575,1.59
18586,8.48
18598,15.33
18610,21.69
18622,27.28
18634,31.93
18646,35.53
18658,38.03
18670,39.5
18682,40.1
18694,40.08
18706,39.72
18718,39.21
18730,38.66
18742,38.03
18754,37.23
18765,36.11
18776,34.63
18788,32.83
18800,30.86
18812,28.97
18824,27.34
18836,26.04
18848,24.91
18860,23.64
18872,21.85
18884,19.32
18896,15.99
18908,12.04
18920,7.78
18932,3.49
18944,-0.57
18955,-4.32
18966,-7.73
18978,-10.87
18990,-13.79
19002,-16.55
19014,-19.17
19026,-21.6
19038,-23.68
19050,-25.11
19062,-25.48
19074,-24.49
19086,-22.0
19098,-18.15
19110,-13.37
19122,-8.2
19134,-3.19
19145,1.26
19156,4.93
19168,7.73
19180,9.67
19192,10.73
19204,10.94
19216,10.35
19228,9.14
19240,7.66
19252,6.34
19264,5.64
19276,5.81
19288,6.83
19300,8.3
19312,9.67
19324,10.39
19335,10.26
19346,9.47
19358,8.46
19370,7.7
19382,7.38
19394,7.33
19406,7.15
19418,6.49
19430,5.28
19442,3.77
19454,2.31
19466,1.13
19478,0.17
19490,-0.93
19502,-2.6
19514,-5.11
19525,-8.34
19536,-11.8
19548,-14.81
19560,-16.68
19572,-16.95
19584,-15.48
19596,-12.35
19608,-7.87
19620,-2.41
19632,3.55
19644,9.51
19656,14.95
19668,19.42
19680,22.62
19692,24.52
19704,25.32
19715,25.42
19726,25.23
19738,25.08
19750,25.14
19762,25.39
19774,25.75
19786,26.11
19798,26.39
19810,26.58
19822,26.71
19834,26.8
19846,26.89
19858,26.96
19870,26.95
19882,26.84
19894,26.55
19905,26.04
19916,25.2
19928,23.95
19940,22.17
19952,19.84
19964,17.02
19976,13.88
19988,10.65
20000,7.52
20012,4.57
20024,1.75
20036,-1.1
20048,-4.08
20060,-7.16
20072,-10.1
20084,-12.47
20095,-13.76
20106,-13.54
20118,-11.59
20130,-8.05
20142,-3.38
20154,1.67
20166,6.2
20178,9.33
20190,10.46
20202,9.39
20214,6.4
20226,2.23
20238,-2.2
20250,-6.01
20262,-8.7
20274,-10.2
20285,-10.88
20296,-11.28
20308,-11.88
20320,-12.88
20332,-14.18
20344,-15.43
20356,-16.21
20368,-16.16
20380,-15.03
20392,-12.76
20404,-9.42
20416,-5.25
20428,-0.72
20440,3.64
20452,7.22
20464,9.54
20475,10.35
20486,9.64
20498,7.62
20510,4.6
20522,0.84
20534,-3.51
20546,-8.32
20558,-13.42
20570,-18.52
20582,-23.22
20594,-27.11
20606,-29.85
20618,-31.3
20630,-31.51
20642,-30.74
20654,-29.3
20665,-27.59
20676,-25.93
20688,-24.61
20700,-23.77
20712,-23.4
20724,-23.36
20736,-23.48
20748,-23.59
20760,-23.64
20772,-23.66
20784,-23.65
20796,-23.53
20808,-23.14
20820,-22.31
20832,-20.99
20844,-19.35
20855,-17.69
20866,-16.33
20878,-15.47
20890,-15.11
20902,-15.1
20914,-15.26
20926,-15.48
20938,-15.79
20950,-16.29
20962,-17.08
20974,-18.23
20986,-19.69
20998,-21.35
