seconds,BVP
8,13.79
20,12.94
32,11.39
44,9.55
55,7.92
66,6.92
78,6.79
90,7.4
102,8.41
114,9.37
126,9.93
138,10.02
150,9.77
162,9.38
174,8.98
186,8.53
198,7.9
210,7.02
222,5.89
234,4.67
245,3.48
256,2.37
268,1.29
280,0.15
292,-1.12
304,-2.48
316,-3.81
328,-5.02
340,-6.07
352,-7.04
364,-8.07
376,-9.31
388,-10.82
400,-12.57
412,-14.38
424,-15.96
435,-16.93
446,-16.93
458,-15.68
470,-13.13
482,-9.46
494,-5.07
506,-0.5
518,3.74
530,7.24
542,9.77
554,11.24
566,11.69
578,11.23
590,10.07
602,8.51
614,6.92
625,5.65
636,4.93
648,4.85
660,5.3
672,6.09
684,7.01
696,7.94
708,8.73
720,9.3
732,9.5
744,9.22
756,8.4
768,7.08
780,5.43
792,3.71
804,2.16
815,0.93
826,-0.0
838,-0.79
850,-1.64
862,-2.73
874,-4.09
886,-5.64
898,-7.2
910,-8.63
922,-9.9
934,-11.08
946,-12.34
958,-13.84
970,-15.57
982,-17.39
994,-18.93
1005,-19.77
1016,-19.53
1028,-17.95
1040,-15.04
1052,-10.99
1064,-6.21
1076,-1.14
1088,3.71
1100,7.89
1112,11.0
1124,12.79
1136,13.18
1148,12.31
1160,10.55
1172,8.39
1184,6.35
1195,4.86
1206,4.11
1218,4.09
1230,4.59
1242,5.35
1254,6.13
1266,6.82
1278,7.34
1290,7.68
1302,7.79
1314,7.56
1326,6.93
1338,5.92
1350,4.67
1362,3.38
1374,2.22
1385,1.26
1396,0.42
1408,-0.42
1420,-1.36
1432,-2.37
1444,-3.37
1456,-4.27
1468,-5.07
1480,-5.86
1492,-6.81
1504,-8.06
1516,-9.64
1528,-11.53
1540,-13.55
1552,-15.43
1564,-16.87
1575,-17.5
1586,-17.02
1598,-15.29
1610,-12.38
1622,-8.58
1634,-4.35
1646,-0.18
1658,3.55
1670,6.58
1682,8.78
1694,10.11
1706,10.56
1718,10.19
1730,9.1
1742,7.54
1754,5.86
1765,4.49
1776,3.72
1788,3.69
1800,4.3
1812,5.3
1824,6.41
1836,7.42
1848,8.21
1860,8.77
1872,9.08
1884,9.11
1896,8.78
1908,8.09
1920,7.05
1932,5.79
1944,4.45
1955,3.16
1966,2.01
1978,1.02
1990,0.14
2002,-0.71
2014,-1.62
2026,-2.64
2038,-3.76
2050,-4.9
2062,-5.97
2074,-6.93
2086,-7.82
2098,-8.76
2110,-9.84
2122,-11.01
2134,-12.01
2145,-12.47
2156,-12.03
2168,-10.53
2180,-8.05
2192,-4.85
2204,-1.27
2216,2.37
2228,5.76
2240,8.62
2252,10.64
2264,11.56
2276,11.28
2288,9.9
2300,7.78
2312,5.44
2324,3.4
2335,2.03
2346,1.48
2358,1.68
2370,2.47
2382,3.6
2394,4.82
2406,5.9
2418,6.64
2430,6.89
2442,6.6
2454,5.8
2466,4.61
2478,3.21
2490,1.81
2502,0.57
2514,-0.42
2525,-1.17
2536,-1.79
2548,-2.44
2560,-3.29
2572,-4.38
2584,-5.69
2596,-7.12
2608,-8.59
2620,-10.08
2632,-11.63
2644,-13.21
2656,-14.71
2668,-15.89
2680,-16.49
2692,-16.25
2704,-15.07
2715,-12.97
2726,-10.11
2738,-6.68
2750,-2.88
2762,1.02
2774,4.71
2786,7.84
2798,10.09
2810,11.29
2822,11.46
2834,10.8
2846,9.62
2858,8.27
2870,6.94
2882,5.76
2894,4.77
2905,4.03
2916,3.64
2928,3.68
2940,4.11
2952,4.74
2964,5.22
2976,5.22
2988,4.57
3000,3.44
3012,2.12
3024,0.94
3036,0.02
3048,-0.77
3060,-1.65
3072,-2.81
3084,-4.23
3095,-5.73
3106,-7.09
3118,-8.22
3130,-9.22
3142,-10.36
3154,-11.87
3166,-13.83
3178,-16.06
3190,-18.18
3202,-19.64
3214,-19.94
3226,-18.75
3238,-15.99
3250,-11.91
3262,-7.02
3274,-1.95
3285,2.75
3296,6.69
3308,9.72
3320,11.85
3332,13.15
3344,13.64
3356,13.3
3368,12.18
3380,10.43
3392,8.42
3404,6.59
3416,5.39
3428,5.06
3440,5.6
3452,6.75
3464,8.11
3475,9.29
3486,10.02
3498,10.23
3510,9.97
3522,9.41
3534,8.65
3546,7.75
3558,6.73
3570,5.58
3582,4.33
3594,3.04
3606,1.81
3618,0.65
3630,-0.5
3642,-1.77
3654,-3.31
3665,-5.13
3676,-7.16
3688,-9.22
3700,-11.17
3712,-12.97
3724,-14.66
3736,-16.31
3748,-17.85
3760,-18.99
3772,-19.26
3784,-18.23
3796,-15.71
3808,-11.88
3820,-7.29
3832,-2.57
3844,1.72
3855,5.29
3866,8.1
3878,10.17
3890,11.51
3902,12.03
3914,11.7
3926,10.62
3938,9.12
3950,7.69
3962,6.78
3974,6.62
3986,7.17
3998,8.14
4010,9.19
4022,10.03
4034,10.54
4045,10.71
4056,10.6
4068,10.28
4080,9.77
4092,9.06
4104,8.14
4116,6.98
4128,5.57
4140,3.92
4152,2.05
4164,0.02
4176,-2.03
4188,-3.96
4200,-5.65
4212,-7.02
4224,-8.15
4235,-9.19
4246,-10.32
4258,-11.7
4270,-13.39
4282,-15.32
4294,-17.31
4306,-19.11
4318,-20.42
4330,-20.93
4342,-20.35
4354,-18.5
4366,-15.42
4378,-11.34
4390,-6.72
4402,-2.06
4414,2.16
4425,5.63
4436,8.19
4448,9.79
4460,10.51
4472,10.41
4484,9.7
4496,8.64
4508,7.56
4520,6.76
4532,6.44
4544,6.59
4556,7.1
4568,7.81
4580,8.6
4592,9.34
4604,9.96
4615,10.32
4626,10.32
4638,9.88
4650,9.04
4662,7.89
4674,6.62
4686,5.38
4698,4.27
4710,3.26
4722,2.28
4734,1.26
4746,0.14
4758,-1.08
4770,-2.39
4782,-3.72
4794,-5.03
4805,-6.25
4816,-7.33
4828,-8.32
4840,-9.3
4852,-10.41
4864,-11.74
4876,-13.29
4888,-14.93
4900,-16.36
4912,-17.21
4924,-17.07
4936,-15.73
4948,-13.17
4960,-9.62
4972,-5.48
4984,-1.22
4995,2.72
5006,5.98
5018,8.35
5030,9.72
5042,10.08
5054,9.58
5066,8.4
5078,6.87
5090,5.31
5102,4.02
5114,3.21
5126,2.99
5138,3.34
5150,4.17
5162,5.35
5174,6.72
5185,8.08
5196,9.22
5208,9.95
5220,10.15
5232,9.82
5244,9.02
5256,7.87
5268,6.49
5280,4.95
5292,3.33
5304,1.73
5316,0.27
5328,-0.95
5340,-1.88
5352,-2.58
5364,-3.2
5375,-3.87
5386,-4.7
5398,-5.7
5410,-6.8
5422,-7.94
5434,-9.06
5446,-10.13
5458,-11.08
5470,-11.68
5482,-11.62
5494,-10.54
5506,-8.2
5518,-4.65
5530,-0.29
5542,4.28
5554,8.42
5565,11.65
5576,13.78
5588,14.84
5600,15.0
5612,14.44
5624,13.25
5636,11.53
5648,9.45
5660,7.26
5672,5.32
5684,3.93
5696,3.31
5708,3.4
5720,3.98
5732,4.72
5744,5.28
5755,5.46
5766,5.17
5778,4.51
5790,3.62
5802,2.64
5814,1.62
5826,0.55
5838,-0.58
5850,-1.79
5862,-3.05
5874,-4.33
5886,-5.6
5898,-6.83
5910,-8.02
5922,-9.19
5934,-10.32
5945,-11.4
5956,-12.46
5968,-13.55
5980,-14.73
5992,-16.01
6004,-17.22
6016,-18.04
6028,-18.08
6040,-17.01
6052,-14.72
6064,-11.37
6076,-7.35
6088,-3.16
6100,0.79
6112,4.23
6124,7.05
6135,9.24
6146,10.79
6158,11.64
6170,11.74
6182,11.14
6194,10.0
6206,8.62
6218,7.35
6230,6.51
6242,6.26
6254,6.58
6266,7.32
6278,8.17
6290,8.89
6302,9.28
6314,9.3
6325,9.04
6336,8.6
6348,8.11
6360,7.58
6372,6.98
6384,6.26
6396,5.4
6408,4.4
6420,3.28
6432,2.07
6444,0.75
6456,-0.64
6468,-2.07
6480,-3.5
6492,-4.85
6504,-6.14
6515,-7.41
6526,-8.8
6538,-10.41
6550,-12.29
6562,-14.28
6574,-16.08
6586,-17.23
6598,-17.25
6610,-15.81
6622,-12.88
6634,-8.71
6646,-3.84
6658,1.08
6670,5.49
6682,8.97
6694,11.34
6705,12.57
6716,12.78
6728,12.18
6740,11.05
6752,9.67
6764,8.35
6776,7.39
6788,6.98
6800,7.23
6812,8.06
6824,9.23
6836,10.41
6848,11.28
6860,11.63
6872,11.46
6884,10.94
6895,10.29
6906,9.68
6918,9.13
6930,8.53
6942,7.74
6954,6.65
6966,5.28
6978,3.72
6990,2.11
7002,0.54
7014,-0.94
7026,-2.33
7038,-3.68
7050,-5.03
7062,-6.44
7074,-7.92
7085,-9.47
7096,-11.1
7108,-12.79
7120,-14.54
7132,-16.29
7144,-17.88
7156,-19.02
7168,-19.35
7180,-18.53
7192,-16.39
7204,-13.08
7216,-8.97
7228,-4.59
7240,-0.43
7252,3.15
7264,5.99
7275,7.99
7286,9.11
7298,9.34
7310,8.7
7322,7.37
7334,5.68
7346,4.08
7358,3.0
7370,2.7
7382,3.18
7394,4.24
7406,5.5
7418,6.65
7430,7.45
7442,7.83
7454,7.83
7465,7.51
7476,6.95
7488,6.18
7500,5.25
7512,4.21
7524,3.14
7536,2.1
7548,1.13
7560,0.19
7572,-0.74
7584,-1.65
7596,-2.55
7608,-3.41
7620,-4.22
7632,-5.01
7644,-5.82
7655,-6.7
7666,-7.68
7678,-8.76
7690,-9.91
7702,-11.06
7714,-12.03
7726,-12.55
7738,-12.3
7750,-11.0
7762,-8.54
7774,-5.12
7786,-1.13
7798,2.86
7810,6.3
7822,8.83
7834,10.31
7845,10.81
7856,10.51
7868,9.66
7880,8.45
7892,7.05
7904,5.58
7916,4.22
7928,3.17
7940,2.63
7952,2.76
7964,3.57
7976,4.87
7988,6.34
8000,7.59
8012,8.34
8024,8.52
8035,8.26
8046,7.77
8058,7.23
8070,6.69
8082,6.06
8094,5.21
8106,4.12
8118,2.86
8130,1.62
8142,0.53
8154,-0.37
8166,-1.15
8178,-1.95
8190,-2.9
8202,-4.04
8214,-5.36
8225,-6.84
8236,-8.42
8248,-10.05
8260,-11.52
8272,-12.49
8284,-12.53
8296,-11.24
8308,-8.44
8320,-4.34
8332,0.44
8344,5.05
8356,8.61
8368,10.54
8380,10.66
8392,9.23
8404,6.77
8415,3.86
8426,0.92
8438,-1.76
8450,-4.01
8462,-5.68
8474,-6.61
8486,-6.68
8498,-5.88
8510,-4.43
8522,-2.67
8534,-1.01
8546,0.27
8558,1.08
8570,1.47
8582,1.56
8594,1.41
8605,0.99
8616,0.19
8628,-1.11
8640,-2.94
8652,-5.19
8664,-7.61
8676,-9.87
8688,-11.69
8700,-12.94
8712,-13.68
8724,-14.12
8736,-14.54
8748,-15.17
8760,-16.1
8772,-17.18
8784,-18.07
8795,-18.25
8806,-17.24
8818,-14.73
8830,-10.74
8842,-5.7
8854,-0.29
8866,4.71
8878,8.67
8890,11.23
8902,12.31
8914,12.03
8926,10.57
8938,8.17
8950,5.11
8962,1.74
8974,-1.53
8985,-4.28
8996,-6.19
9008,-7.12
9020,-7.12
9032,-6.37
9044,-5.14
9056,-3.71
9068,-2.34
9080,-1.24
9092,-0.57
9104,-0.4
9116,-0.71
9128,-1.4
9140,-2.3
9152,-3.2
9164,-3.91
9175,-4.32
9186,-4.39
9198,-4.23
9210,-3.98
9222,-3.84
9234,-3.93
9246,-4.33
9258,-5.07
9270,-6.12
9282,-7.47
9294,-9.01
9306,-10.58
9318,-11.88
9330,-12.54
9342,-12.28
9354,-10.94
9365,-8.57
9376,-5.39
9388,-1.73
9400,2.11
9412,5.86
9424,9.3
9436,12.18
9448,14.28
9460,15.42
9472,15.53
9484,14.7
9496,13.24
9508,11.53
9520,9.94
9532,8.8
9544,8.29
9555,8.44
9566,9.15
9578,10.23
9590,11.42
9602,12.47
9614,13.2
9626,13.5
9638,13.34
9650,12.77
9662,11.86
9674,10.67
9686,9.29
9698,7.78
9710,6.19
9722,4.58
9734,2.98
9745,1.38
9756,-0.19
9768,-1.74
9780,-3.24
9792,-4.68
9804,-6.06
9816,-7.42
9828,-8.81
9840,-10.29
9852,-11.88
9864,-13.48
9876,-14.89
9888,-15.78
9900,-15.78
9912,-14.58
9924,-12.0
9935,-8.19
9946,-3.56
9958,1.3
9970,5.74
9982,9.26
9994,11.62
10006,12.84
10018,13.15
10030,12.87
10042,12.23
10054,11.39
10066,10.46
10078,9.51
10090,8.68
10102,8.07
10114,7.79
10125,7.85
10136,8.17
10148,8.64
10160,9.14
10172,9.53
10184,9.69
10196,9.52
10208,8.94
10220,7.94
10232,6.56
10244,4.94
10256,3.28
10268,1.81
10280,0.67
10292,-0.12
10304,-0.64
10315,-1.13
10326,-1.78
10338,-2.72
10350,-3.93
10362,-5.27
10374,-6.62
10386,-7.87
10398,-9.03
10410,-10.12
10422,-11.14
10434,-12.0
10446,-12.49
10458,-12.38
10470,-11.48
10482,-9.72
10494,-7.11
10505,-3.83
10516,-0.15
10528,3.6
10540,7.05
10552,9.86
10564,11.82
10576,12.85
10588,13.08
10600,12.69
10612,11.92
10624,10.96
10636,9.94
10648,8.98
10660,8.2
10672,7.68
10684,7.49
10695,7.59
10706,7.76
10718,7.76
10730,7.43
10742,6.74
10754,5.84
10766,4.98
10778,4.34
10790,3.96
10802,3.72
10814,3.4
10826,2.75
10838,1.67
10850,0.2
10862,-1.49
10874,-3.18
10885,-4.62
10896,-5.71
10908,-6.43
10920,-6.94
10932,-7.49
10944,-8.34
10956,-9.65
10968,-11.39
10980,-13.32
10992,-15.07
11004,-16.16
11016,-16.21
11028,-15.02
11040,-12.64
11052,-9.37
11064,-5.64
11075,-1.87
11086,1.6
11098,4.58
11110,6.94
11122,8.57
11134,9.34
11146,9.16
11158,8.04
11170,6.14
11182,3.79
11194,1.45
11206,-0.4
11218,-1.39
11230,-1.37
11242,-0.48
11254,0.91
11265,2.23
11276,3.0
11288,2.96
11300,2.16
11312,0.94
11324,-0.28
11336,-1.19
11348,-1.71
11360,-1.96
11372,-2.16
11384,-2.6
11396,-3.55
11408,-5.32
11420,-8.08
11432,-11.6
11444,-15.04
11455,-16.95
11466,-15.71
11478,-10.18
11490,-0.39
11502,12.32
11514,25.71
11526,37.5
11538,46.18
11550,51.31
11562,53.31
11574,52.91
11586,50.62
11598,46.6
11610,40.88
11622,33.67
11634,25.54
11645,17.29
11656,9.64
11668,3.02
11680,-2.56
11692,-7.33
11704,-11.55
11716,-15.33
11728,-18.56
11740,-20.99
11752,-22.35
11764,-22.51
11776,-21.54
11788,-19.74
11800,-17.51
11812,-15.26
11824,-13.33
11835,-11.87
11846,-10.92
11858,-10.39
11870,-10.2
11882,-10.22
11894,-10.35
11906,-10.5
11918,-10.66
11930,-10.82
11942,-11.03
11954,-11.37
11966,-11.91
11978,-12.7
11990,-13.79
12002,-15.13
12014,-16.51
12025,-17.58
12036,-17.84
12048,-16.84
12060,-14.39
12072,-10.71
12084,-6.35
12096,-2.06
12108,1.5
12120,3.92
12132,5.16
12144,5.45
12156,5.1
12168,4.4
12180,3.58
12192,2.78
12204,2.17
12215,1.88
12226,2.02
12238,2.59
12250,3.48
12262,4.46
12274,5.23
12286,5.57
12298,5.33
12310,4.51
12322,3.17
12334,1.42
12346,-0.7
12358,-3.12
12370,-5.8
12382,-8.6
12394,-11.35
12405,-13.87
12416,-16.07
12428,-17.9
12440,-19.44
12452,-20.81
12464,-22.18
12476,-23.68
12488,-25.32
12500,-26.97
12512,-28.29
12524,-28.83
12536,-28.08
12548,-25.71
12560,-21.62
12572,-16.11
12584,-9.8
12595,-3.53
12606,1.86
12618,5.71
12630,7.69
12642,7.84
12654,6.52
12666,4.24
12678,1.52
12690,-1.22
12702,-3.68
12714,-5.68
12726,-7.1
12738,-7.89
12750,-8.05
12762,-7.68
12774,-6.94
12785,-5.98
12796,-4.95
12808,-3.88
12820,-2.82
12832,-1.8
12844,-0.88
12856,-0.17
12868,0.23
12880,0.25
12892,-0.14
12904,-0.94
12916,-2.07
12928,-3.44
12940,-4.94
12952,-6.44
12964,-7.84
12975,-9.07
12986,-10.09
12998,-10.83
13010,-11.19
13022,-10.98
13034,-9.97
13046,-7.99
13058,-5.05
13070,-1.38
13082,2.62
13094,6.46
13106,9.74
13118,12.19
13130,13.74
13142,14.43
13154,14.36
13165,13.64
13176,12.4
13188,10.88
13200,9.35
13212,8.12
13224,7.42
13236,7.31
13248,7.68
13260,8.26
13272,8.76
13284,8.94
13296,8.67
13308,7.89
13320,6.64
13332,4.99
13344,3.05
13355,0.98
13366,-1.06
13378,-2.9
13390,-4.44
13402,-5.62
13414,-6.48
13426,-7.14
13438,-7.78
13450,-8.63
13462,-9.88
13474,-11.61
13486,-13.65
13498,-15.64
13510,-17.01
13522,-17.2
13534,-15.86
13545,-12.97
13556,-8.87
13568,-4.17
13580,0.49
13592,4.56
13604,7.71
13616,9.81
13628,10.94
13640,11.25
13652,10.96
13664,10.27
13676,9.36
13688,8.43
13700,7.62
13712,7.07
13724,6.83
13735,6.92
13746,7.29
13758,7.87
13770,8.53
13782,9.15
13794,9.58
13806,9.72
13818,9.5
13830,8.96
13842,8.21
13854,7.4
13866,6.6
13878,5.8
13890,4.85
13902,3.59
13914,1.95
13925,-0.03
13936,-2.22
13948,-4.43
13960,-6.56
13972,-8.49
13984,-10.12
13996,-11.21
14008,-11.41
14020,-10.38
14032,-7.91
14044,-4.11
14056,0.59
14068,5.6
14080,10.31
14092,14.22
14104,17.03
14115,18.53
14126,18.68
14138,17.57
14150,15.52
14162,13.02
14174,10.71
14186,9.1
14198,8.43
14210,8.6
14222,9.27
14234,10.01
14246,10.52
14258,10.66
14270,10.48
14282,10.08
14294,9.51
14305,8.72
14316,7.64
14328,6.22
14340,4.46
14352,2.49
14364,0.46
14376,-1.5
14388,-3.29
14400,-4.9
14412,-6.41
14424,-7.95
14436,-9.65
14448,-11.61
14460,-13.78
14472,-15.94
14484,-17.72
14495,-18.69
14506,-18.44
14518,-16.73
14530,-13.59
14542,-9.33
14554,-4.42
14566,0.55
14578,5.04
14590,8.61
14602,10.99
14614,12.08
14626,11.98
14638,10.97
14650,9.45
14662,7.86
14674,6.57
14685,5.89
14696,5.89
14708,6.49
14720,7.47
14732,8.55
14744,9.5
14756,10.2
14768,10.64
14780,10.87
14792,10.92
14804,10.75
14816,10.25
14828,9.34
14840,8.0
14852,6.35
14864,4.54
14875,2.68
14886,0.79
14898,-1.15
14910,-3.17
14922,-5.21
14934,-7.16
14946,-8.94
14958,-10.57
14970,-12.15
14982,-13.76
14994,-15.31
15006,-16.46
15018,-16.73
15030,-15.74
15042,-13.35
15054,-9.81
15065,-5.6
15076,-1.26
15088,2.74
15100,6.11
15112,8.67
15124,10.28
15136,10.84
15148,10.44
15160,9.35
15172,8.02
15184,6.92
15196,6.38
15208,6.45
15220,6.99
15232,7.75
15244,8.56
15255,9.34
15266,10.07
15278,10.7
15290,11.14
15302,11.28
15314,11.05
15326,10.48
15338,9.69
15350,8.77
15362,7.77
15374,6.64
15386,5.31
15398,3.72
15410,1.89
15422,-0.07
15434,-2.0
15445,-3.77
15456,-5.29
15468,-6.58
15480,-7.79
15492,-9.08
15504,-10.62
15516,-12.42
15528,-14.31
15540,-15.92
15552,-16.79
15564,-16.55
15576,-14.97
15588,-12.08
15600,-8.16
15612,-3.68
15624,0.86
15635,4.96
15646,8.28
15658,10.62
15670,11.97
15682,12.41
15694,12.12
15706,11.28
15718,10.12
15730,8.88
15742,7.81
15754,7.12
15766,6.99
15778,7.42
15790,8.27
15802,9.27
15814,10.15
15825,10.68
15836,10.74
15848,10.39
15860,9.7
15872,8.8
15884,7.76
15896,6.59
15908,5.29
15920,3.88
15932,2.41
15944,0.95
15956,-0.44
15968,-1.74
15980,-3.0
15992,-4.29
16004,-5.64
16015,-7.03
16026,-8.37
16038,-9.59
16050,-10.64
16062,-11.53
16074,-12.37
16086,-13.29
16098,-14.4
16110,-15.71
16122,-17.04
16134,-18.02
16146,-18.19
16158,-17.07
16170,-14.43
16182,-10.37
16194,-5.37
16205,-0.16
16216,4.47
16228,8.0
16240,10.24
16252,11.31
16264,11.52
16276,11.19
16288,10.52
16300,9.65
16312,8.64
16324,7.62
16336,6.77
16348,6.26
16360,6.19
16372,6.56
16384,7.27
16395,8.2
16406,9.23
16418,10.25
16430,11.13
16442,11.74
16454,11.93
16466,11.66
16478,10.99
16490,10.06
16502,9.01
16514,7.96
16526,6.87
16538,5.67
16550,4.3
16562,2.79
16574,1.3
16585,-0.01
16596,-1.01
16608,-1.72
16620,-2.27
16632,-2.82
16644,-3.54
16656,-4.48
16668,-5.67
16680,-7.05
16692,-8.61
16704,-10.23
16716,-11.75
16728,-12.85
16740,-13.15
16752,-12.33
16764,-10.22
16775,-6.93
16786,-2.82
16798,1.59
16810,5.79
16822,9.34
16834,11.93
16846,13.42
16858,13.81
16870,13.25
16882,11.98
16894,10.36
16906,8.75
16918,7.5
16930,6.79
16942,6.71
16954,7.18
16965,8.01
16976,9.01
16988,9.98
17000,10.75
17012,11.21
17024,11.29
17036,10.96
17048,10.2
17060,9.04
17072,7.53
17084,5.8
17096,3.99
17108,2.28
17120,0.75
17132,-0.57
17144,-1.78
17155,-2.99
17166,-4.26
17178,-5.62
17190,-7.03
17202,-8.45
17214,-9.83
17226,-11.24
17238,-12.78
17250,-14.58
17262,-16.63
17274,-18.74
17286,-20.56
17298,-21.55
17310,-21.28
17322,-19.49
17334,-16.29
17345,-12.11
17356,-7.55
17368,-3.18
17380,0.6
17392,3.61
17404,5.78
17416,7.1
17428,7.54
17440,7.03
17452,5.68
17464,3.7
17476,1.52
17488,-0.41
17500,-1.65
17512,-1.96
17524,-1.39
17535,-0.25
17546,1.0
17558,1.93
17570,2.24
17582,1.94
17594,1.21
17606,0.3
17618,-0.62
17630,-1.53
17642,-2.5
17654,-3.57
17666,-4.69
17678,-5.72
17690,-6.52
17702,-7.11
17714,-7.64
17725,-8.29
17736,-9.16
17748,-10.18
17760,-11.17
17772,-12.0
17784,-12.69
17796,-13.41
17808,-14.35
17820,-15.58
17832,-16.87
17844,-17.78
17856,-17.81
17868,-16.55
17880,-13.9
17892,-10.06
17904,-5.48
17915,-0.74
17926,3.61
17938,7.22
17950,9.92
17962,11.67
17974,12.51
17986,12.47
17998,11.61
18010,10.06
18022,8.1
18034,6.15
18046,4.67
18058,4.05
18070,4.39
18082,5.52
18094,7.03
18105,8.48
18116,9.52
18128,10.0
18140,9.97
18152,9.5
18164,8.69
18176,7.55
18188,6.1
18200,4.4
18212,2.58
18224,0.79
18236,-0.84
18248,-2.33
18260,-3.78
18272,-5.28
18284,-6.83
18295,-8.32
18306,-9.61
18318,-10.66
18330,-11.58
18342,-12.6
18354,-13.95
18366,-15.66
18378,-17.49
18390,-18.96
18402,-19.51
18414,-18.7
18426,-16.39
18438,-12.77
18450,-8.25
18462,-3.39
18474,1.28
18485,5.37
18496,8.59
18508,10.8
18520,11.93
18532,11.97
18544,11.04
18556,9.38
18568,7.38
18580,5.44
18592,3.96
18604,3.21
18616,3.25
18628,3.96
18640,5.08
18652,6.31
18664,7.36
18675,8.07
18686,8.37
18698,8.3
18710,7.95
18722,7.46
18734,6.89
18746,6.23
18758,5.44
18770,4.41
18782,3.12
18794,1.62
18806,-0.01
18818,-1.63
18830,-3.14
18842,-4.54
18854,-5.87
18865,-7.23
18876,-8.72
18888,-10.38
18900,-12.18
18912,-14.01
18924,-15.68
18936,-16.94
18948,-17.48
18960,-17.03
18972,-15.37
18984,-12.5
18996,-8.62
19008,-4.15
19020,0.39
19032,4.5
19044,7.78
19055,10.01
19066,11.13
19078,11.2
19090,10.38
19102,8.94
19114,7.19
19126,5.48
19138,4.12
19150,3.29
19162,3.05
19174,3.29
19186,3.86
19198,4.57
19210,5.31
19222,5.95
19234,6.4
19245,6.51
19256,6.22
19268,5.52
19280,4.54
19292,3.44
19304,2.37
19316,1.37
19328,0.4
19340,-0.62
19352,-1.77
19364,-3.04
19376,-4.38
19388,-5.73
19400,-7.13
19412,-8.59
19424,-10.15
19435,-11.77
19446,-13.35
19458,-14.72
19470,-15.73
19482,-16.2
19494,-16.0
19506,-14.96
19518,-12.96
19530,-9.96
19542,-6.13
19554,-1.75
19566,2.73
19578,6.86
19590,10.23
19602,12.49
19614,13.41
19625,12.88
19636,11.03
19648,8.26
19660,5.2
19672,2.57
19684,0.95
19696,0.63
19708,1.46
19720,3.0
19732,4.7
19744,6.12
19756,7.07
19768,7.55
19780,7.67
19792,7.47
19804,6.93
19815,5.96
19826,4.59
19838,2.96
19850,1.27
19862,-0.28
19874,-1.62
19886,-2.85
19898,-4.17
19910,-5.71
19922,-7.53
19934,-9.53
19946,-11.59
19958,-13.62
19970,-15.57
19982,-17.35
19994,-18.72
20005,-19.32
20016,-18.73
20028,-16.69
20040,-13.21
20052,-8.67
20064,-3.66
20076,1.2
20088,5.41
20100,8.64
20112,10.75
20124,11.7
20136,11.51
20148,10.33
20160,8.44
20172,6.16
20184,3.91
20195,2.04
20206,0.8
20218,0.29
20230,0.46
20242,1.17
20254,2.18
20266,3.23
20278,4.12
20290,4.69
20302,4.88
20314,4.68
20326,4.06
20338,3.02
20350,1.53
20362,-0.34
20374,-2.43
20385,-4.48
20396,-6.25
20408,-7.62
20420,-8.63
20432,-9.49
20444,-10.43
20456,-11.66
20468,-13.16
20480,-14.79
20492,-16.28
20504,-17.31
20516,-17.61
20528,-16.94
20540,-15.13
20552,-12.12
20564,-8.03
20575,-3.15
20586,1.97
20598,6.68
20610,10.38
20622,12.67
20634,13.46
20646,12.95
20658,11.54
20670,9.65
20682,7.66
20694,5.85
20706,4.41
20718,3.5
20730,3.2
20742,3.47
20754,4.17
20765,5.06
20776,5.89
20788,6.48
20800,6.8
20812,6.87
20824,6.71
20836,6.26
20848,5.45
20860,4.21
20872,2.6
20884,0.81
20896,-0.94
20908,-2.49
20920,-3.79
20932,-4.96
20944,-6.12
20955,-7.36
20966,-8.67
20978,-10.01
20990,-11.34
