seconds,BVP
8,72.11
20,88.66
31,108.75
42,130.44
54,151.52
66,170.06
78,184.87
90,195.64
102,202.88
114,207.5
126,210.44
138,212.38
150,213.57
162,214.0
174,213.51
186,211.96
198,209.29
210,205.6
221,201.12
232,196.36
244,192.27
256,190.29
268,192.2
280,199.43
292,212.02
304,227.9
316,242.78
328,251.17
340,248.09
352,230.91
364,200.06
376,158.54
388,110.48
400,59.72
411,9.34
422,-38.07
434,-79.74
446,-112.63
458,-134.18
470,-143.47
482,-142.07
494,-133.84
506,-123.64
518,-115.72
530,-112.55
542,-114.53
554,-120.48
566,-128.57
578,-137.16
590,-145.21
601,-152.22
612,-157.94
624,-161.98
636,-163.6
648,-162.0
660,-156.74
672,-148.32
684,-138.32
696,-128.89
708,-121.97
720,-118.61
732,-118.67
744,-121.26
756,-125.31
768,-130.14
780,-135.52
791,-141.35
802,-147.24
814,-152.21
826,-154.8
838,-153.38
850,-146.57
862,-133.62
874,-114.61
886,-90.36
898,-62.3
910,-32.03
922,-1.02
934,29.69
946,59.43
958,87.77
970,114.18
981,138.07
992,158.8
1004,176.0
1016,189.8
1028,200.84
1040,210.11
1052,218.52
1064,226.68
1076,234.64
1088,242.07
1100,248.5
1112,253.63
1124,257.5
1136,260.52
1148,263.28
1160,266.49
1171,270.88
1182,277.19
1194,285.93
1206,296.94
1218,308.77
1230,318.59
1242,322.6
1254,317.21
1266,300.31
1278,272.13
1290,235.04
1302,192.52
1314,147.83
1326,103.46
1338,61.26
1350,23.14
1361,-8.64
1372,-32.06
1384,-46.5
1396,-53.7
1408,-57.47
1420,-62.1
1432,-70.22
1444,-81.4
1456,-92.49
1468,-99.58
1480,-100.34
1492,-95.54
1504,-88.56
1516,-83.62
1528,-83.42
1540,-87.93
1551,-94.71
1562,-100.3
1574,-101.99
1586,-98.71
1598,-91.15
1610,-81.01
1622,-70.23
1634,-60.34
1646,-52.26
1658,-46.12
1670,-41.39
1682,-36.89
1694,-31.41
1706,-24.27
1718,-15.85
1730,-7.81
1741,-2.7
1752,-3.21
1764,-11.05
1776,-25.89
1788,-44.6
1800,-61.29
1812,-68.66
1824,-60.66
1836,-35.61
1848,1.98
1860,42.1
1872,72.85
1884,85.52
1896,78.42
1908,57.33
1920,32.22
1931,12.21
1942,1.67
1954,-0.61
1966,0.93
1978,2.15
1990,1.44
2002,-0.59
2014,-3.06
2026,-6.73
2038,-14.19
2050,-28.42
2062,-50.46
2074,-78.46
2086,-108.12
2098,-134.47
2110,-153.86
2121,-164.8
2132,-167.75
2144,-164.22
2156,-155.92
2168,-144.43
2180,-131.3
2192,-118.15
2204,-106.47
2216,-97.24
2228,-90.45
2240,-85.17
2252,-79.95
2264,-73.4
2276,-64.52
2288,-52.84
2300,-38.17
2311,-20.48
2322,0.16
2334,23.39
2346,48.41
2358,73.81
2370,97.82
2382,118.64
2394,134.92
2406,146.09
2418,152.62
2430,155.93
2442,158.05
2454,160.81
2466,164.94
2478,169.34
2490,171.18
2501,166.97
2512,154.41
2524,134.2
2536,110.58
2548,90.42
2560,80.73
2572,85.85
2584,105.64
2596,135.34
2608,167.26
2620,193.32
2632,207.48
2644,207.0
2656,192.36
2668,166.28
2680,132.31
2691,93.87
2702,53.58
2714,13.15
2726,-26.59
2738,-65.65
2750,-105.11
2762,-147.05
2774,-194.14
2786,-248.47
2798,-309.78
2810,-374.19
2822,-434.15
2834,-480.21
2846,-504.04
2858,-501.53
2870,-474.44
2881,-429.87
2892,-377.77
2904,-327.61
2916,-285.8
2928,-254.78
2940,-233.71
2952,-220.17
2964,-211.61
2976,-205.88
2988,-201.15
3000,-195.42
3012,-186.56
3024,-172.85
3036,-153.82
3048,-130.65
3060,-105.92
3071,-82.58
3082,-62.69
3094,-46.71
3106,-33.65
3118,-21.95
3130,-10.69
3142,-0.15
3154,8.25
3166,12.81
3178,12.63
3190,8.31
3202,2.16
3214,-2.39
3226,-1.63
3238,7.29
3250,25.61
3261,52.42
3272,84.6
3284,117.39
3296,145.26
3308,163.39
3320,169.15
3332,163.3
3344,150.38
3356,137.72
3368,133.24
3380,142.76
3392,167.81
3404,205.1
3416,247.84
3428,288.61
3440,322.24
3451,347.6
3462,367.47
3474,386.53
3486,408.74
3498,435.24
3510,463.63
3522,489.08
3534,506.32
3546,511.6
3558,503.8
3570,484.09
3582,455.0
3594,419.3
3606,379.6
3618,338.44
3630,298.74
3641,263.66
3652,235.89
3664,216.52
3676,204.34
3688,196.04
3700,187.5
3712,175.47
3724,158.82
3736,138.78
3748,117.92
3760,98.72
3772,82.19
3784,67.53
3796,52.64
3808,35.35
3820,14.57
3831,-9.16
3842,-33.9
3854,-57.4
3866,-78.24
3878,-97.18
3890,-116.31
3902,-137.84
3914,-163.14
3926,-192.3
3938,-224.04
3950,-256.61
3962,-288.1
3974,-316.93
3986,-342.32
3998,-363.39
4010,-378.89
4021,-387.96
4032,-391.23
4044,-390.96
4056,-390.42
4068,-391.72
4080,-394.32
4092,-396.29
4104,-394.25
4116,-385.6
4128,-370.76
4140,-353.7
4152,-338.81
4164,-327.75
4176,-316.47
4188,-296.53
4200,-263.33
4211,-216.05
4222,-159.21
4234,-102.98
4246,-60.83
4258,-43.16
4270,-54.1
4282,-88.2
4294,-133.69
4306,-185.16
4318,-237.02
4330,-281.95
4342,-312.89
4354,-326.6
4366,-322.17
4378,-303.84
4390,-276.48
4401,-246.11
4412,-231.67
4424,-245.76
4436,-286.87
4448,-342.6
4460,-399.17
4472,-444.2
4484,-474.47
4496,-489.81
4508,-492.95
4520,-503.98
4532,-535.78
4544,-584.98
4556,-637.6
4568,-681.59
4580,-708.86
4591,-722.67
4602,-726.74
4614,-628.39
4626,-400.37
4638,-96.72
4650,193.9
4662,418.39
4674,550.82
4686,629.43
4698,677.39
4710,706.28
4722,721.52
4734,711.97
4746,671.6
4758,609.75
4770,544.88
4781,491.19
4792,456.57
4804,435.88
4816,423.09
4828,413.97
4840,394.91
4852,360.05
4864,315.61
4876,273.57
4888,241.54
4900,222.59
4912,211.39
4924,203.88
4936,198.51
4948,188.0
4960,169.08
4971,145.12
4982,122.66
4994,105.7
5006,95.89
5018,90.01
5030,85.75
5042,82.2
5054,75.74
5066,64.71
5078,50.92
5090,37.89
5102,28.02
5114,22.49
5126,19.87
5138,18.81
5150,18.43
5161,16.82
5172,12.96
5184,7.44
5196,1.69
5208,-3.03
5220,-5.95
5232,-7.37
5244,-7.81
5256,-7.79
5268,-7.82
5280,-8.33
5292,-9.55
5304,-11.57
5316,-14.29
5328,-17.37
5340,-20.22
5351,-22.03
5362,-21.93
5374,-19.26
5386,-13.82
5398,-6.02
5410,3.21
5422,12.7
5434,21.34
5446,28.39
5458,33.5
5470,36.75
5482,38.39
5494,38.72
5506,38.05
5518,36.62
5530,34.69
5541,32.52
5552,30.36
5564,28.4
5576,26.77
5588,25.5
5600,24.53
5612,23.79
5624,23.09
5636,22.25
5648,21.07
5660,19.36
5672,17.0
5684,13.9
5696,10.08
5708,5.7
5720,1.06
5731,-3.33
5742,-6.76
5754,-8.51
5766,-7.97
5778,-4.88
5790,0.58
5802,7.81
5814,15.99
5826,24.3
5838,32.03
5850,38.71
5862,44.04
5874,47.8
5886,49.9
5898,50.37
5910,49.45
5921,47.5
5932,44.95
5944,42.2
5956,39.53
5968,37.03
5980,34.72
5992,32.53
6004,30.41
6016,28.33
6028,26.28
6040,24.29
6052,22.35
6064,20.35
6076,18.06
6088,15.1
6100,11.18
6111,6.29
6122,0.85
6134,-4.18
6146,-7.59
6158,-8.33
6170,-5.81
6182,-0.24
6194,7.58
6206,16.52
6218,25.57
6230,34.09
6242,41.88
6254,48.97
6266,55.36
6278,60.86
6290,65.05
6301,67.48
6312,67.89
6324,66.32
6336,63.1
6348,58.71
6360,53.63
6372,48.21
6384,42.77
6396,37.52
6408,32.35
6420,26.59
6432,18.67
6444,6.33
6456,-12.9
6468,-40.82
6480,-77.76
6491,-122.24
6502,-171.27
6514,-221.07
6526,-267.92
6538,-308.59
6550,-340.3
6562,-360.56
6574,-367.15
6586,-358.66
6598,-335.25
6610,-299.2
6622,-254.71
6634,-206.89
6646,-160.28
6658,-117.75
6670,-80.19
6681,-47.1
6692,-17.58
6704,8.74
6716,31.57
6728,50.28
6740,64.65
6752,75.21
6764,83.23
6776,90.22
6788,97.34
6800,105.09
6812,113.16
6824,120.72
6836,126.75
6848,130.27
6860,130.62
6871,127.67
6882,121.79
6894,113.9
6906,105.37
6918,97.85
6930,93.09
6942,92.79
6954,98.17
6966,109.55
6978,125.97
6990,145.09
7002,163.79
7014,179.02
7026,188.77
7038,192.44
7050,190.6
7061,184.04
7072,173.18
7084,157.94
7096,138.4
7108,115.64
7120,92.08
7132,70.73
7144,53.89
7156,41.79
7168,32.29
7180,21.81
7192,7.09
7204,-13.29
7216,-38.21
7228,-64.59
7240,-88.76
7251,-107.85
7262,-120.74
7274,-128.17
7286,-132.15
7298,-135.02
7310,-138.56
7322,-143.22
7334,-148.08
7346,-151.16
7358,-150.21
7370,-143.5
7382,-130.48
7394,-111.9
7406,-89.4
7418,-64.96
7430,-40.3
7441,-16.65
7452,5.24
7464,24.78
7476,41.39
7488,54.49
7500,63.79
7512,69.46
7524,72.28
7536,73.35
7548,73.71
7560,73.93
7572,73.92
7584,73.13
7596,70.94
7608,67.05
7620,61.74
7631,55.74
7642,49.94
7654,44.9
7666,40.65
7678,36.64
7690,31.93
7702,25.55
7714,16.95
7726,6.32
7738,-5.34
7750,-16.3
7762,-24.55
7774,-28.28
7786,-26.42
7798,-18.81
7810,-6.2
7821,10.09
7832,28.56
7844,47.84
7856,66.8
7868,84.48
7880,100.03
7892,112.68
7904,121.87
7916,127.47
7928,129.88
7940,130.0
7952,128.96
7964,127.71
7976,126.75
7988,126.02
8000,125.0
8011,123.11
8022,120.06
8034,116.01
8046,111.77
8058,108.67
8070,108.3
8082,112.03
8094,120.23
8106,131.56
8118,142.78
8130,149.17
8142,145.86
8154,129.32
8166,98.53
8178,55.46
8190,4.54
8201,-48.55
8212,-98.19
8224,-139.91
8236,-170.97
8248,-190.34
8260,-198.25
8272,-195.7
8284,-184.06
8296,-165.11
8308,-141.24
8320,-115.47
8332,-91.09
8344,-70.73
8356,-55.52
8368,-44.69
8380,-36.15
8391,-27.84
8402,-18.78
8414,-9.46
8426,-1.15
8438,5.21
8450,9.81
8462,13.82
8474,18.52
8486,24.22
8498,29.84
8510,33.37
8522,32.96
8534,27.91
8546,19.1
8558,8.69
8570,-0.73
8581,-7.12
8592,-9.82
8604,-9.59
8616,-8.28
8628,-7.85
8640,-9.47
8652,-13.1
8664,-17.55
8676,-21.15
8688,-22.4
8700,-20.5
8712,-15.41
8724,-7.64
8736,2.08
8748,12.92
8760,24.08
8771,34.76
8782,44.14
8794,51.6
8806,56.73
8818,59.49
8830,60.09
8842,58.89
8854,56.15
8866,52.08
8878,46.78
8890,40.43
8902,33.45
8914,26.57
8926,20.71
8938,16.77
8950,15.24
8961,16.03
8972,18.46
8984,21.46
8996,23.98
9008,25.26
9020,25.02
9032,23.39
9044,20.86
9056,18.11
9068,15.88
9080,14.88
9092,15.6
9104,18.25
9116,22.66
9128,28.3
9140,34.44
9151,40.36
9162,45.46
9174,49.36
9186,51.8
9198,52.62
9210,51.71
9222,49.16
9234,45.32
9246,40.89
9258,36.81
9270,33.97
9282,32.91
9294,33.65
9306,35.67
9318,38.27
9330,40.87
9341,43.32
9352,45.94
9364,49.27
9376,53.69
9388,59.18
9400,65.22
9412,70.98
9424,75.69
9436,78.9
9448,80.73
9460,81.77
9472,82.89
9484,85.01
9496,89.0
9508,95.52
9520,104.92
9531,116.94
9542,130.47
9554,143.37
9566,152.81
9578,155.77
9590,149.86
9602,133.95
9614,108.43
9626,75.11
9638,36.79
9650,-3.19
9662,-41.51
9674,-75.41
9686,-103.33
9698,-125.5
9710,-144.18
9721,-163.37
9732,-187.87
9744,-221.74
9756,-266.36
9768,-319.13
9780,-373.1
9792,-418.49
9804,-445.48
9816,-447.51
9828,-423.58
9840,-378.41
9852,-320.54
9864,-259.12
9876,-201.04
9888,-149.48
9900,-104.33
9911,-63.76
9922,-26.15
9934,8.54
9946,38.14
9958,58.56
9970,65.02
9982,54.07
9994,25.82
10006,-14.74
10018,-58.42
10030,-94.6
10042,-115.05
10054,-116.69
10066,-101.96
10078,-76.7
10090,-46.96
10101,-16.67
10112,12.71
10124,40.7
10136,66.1
10148,86.28
10160,98.28
10172,100.45
10184,93.73
10196,81.47
10208,67.99
10220,56.79
10232,49.44
10244,45.5
10256,43.38
10268,41.41
10280,38.66
10291,35.14
10302,31.48
10314,28.33
10326,25.76
10338,22.9
10350,18.04
10362,9.18
10374,-4.98
10386,-24.22
10398,-46.51
10410,-68.49
10422,-86.58
10434,-98.13
10446,-102.12
10458,-99.08
10470,-90.5
10481,-77.92
10492,-62.3
10504,-43.89
10516,-22.38
10528,2.41
10540,29.88
10552,58.31
10564,84.97
10576,106.97
10588,122.41
10600,131.36
10612,135.92
10624,139.18
10636,143.49
10648,149.06
10660,153.87
10671,155.05
10682,150.94
10694,142.62
10706,133.85
10718,129.43
10730,133.0
10742,145.31
10754,163.98
10766,184.53
10778,202.2
10790,213.53
10802,217.15
10814,213.63
10826,204.63
10838,192.04
10850,177.44
10861,161.93
10872,146.34
10884,131.54
10896,118.5
10908,108.19
10920,101.29
10932,98.0
10944,98.04
10956,100.78
10968,105.46
10980,111.33
10992,117.61
11004,123.38
11016,127.51
11028,128.79
11040,126.15
11051,118.96
11062,107.18
11074,91.45
11086,73.04
11098,53.7
11110,35.39
11122,19.9
11134,8.35
11146,0.87
11158,-3.47
11170,-6.24
11182,-9.05
11194,-13.03
11206,-18.6
11218,-25.82
11230,-34.75
11241,-45.7
11252,-59.03
11264,-74.73
11276,-91.98
11288,-109.33
11300,-125.27
11312,-138.97
11324,-150.6
11336,-161.04
11348,-171.11
11360,-180.9
11372,-189.73
11384,-196.62
11396,-201.07
11408,-203.5
11420,-205.03
11431,-206.8
11442,-209.16
11454,-211.35
11466,-211.65
11478,-208.21
11490,-199.71
11502,-185.95
11514,-167.82
11526,-147.09
11538,-125.88
11550,-106.38
11562,-90.48
11574,-79.69
11586,-74.98
11598,-76.45
11610,-82.91
11621,-91.56
11632,-98.46
11644,-99.58
11656,-92.53
11668,-77.91
11680,-59.54
11692,-43.25
11704,-34.55
11716,-36.53
11728,-48.8
11740,-68.22
11752,-90.55
11764,-112.2
11776,-131.12
11788,-146.49
11800,-158.02
11811,-165.63
11822,-170.04
11834,-173.52
11846,-180.04
11858,-194.01
11870,-217.89
11882,-249.98
11894,-283.82
11906,-309.83
11918,-318.82
11930,-305.86
11942,-272.94
11954,-228.98
11966,-187.01
11978,-159.55
11990,-153.93
12001,-169.67
12012,-198.84
12024,-229.47
12036,-250.28
12048,-254.57
12060,-241.82
12072,-216.33
12084,-184.15
12096,-150.1
12108,-116.2
12120,-82.4
12132,-48.01
12144,-13.0
12156,21.83
12168,55.64
12180,88.28
12191,120.23
12202,151.74
12214,182.01
12226,208.76
12238,228.94
12250,240.04
12262,241.45
12274,235.06
12286,225.05
12298,216.83
12310,215.57
12322,224.79
12334,245.47
12346,275.65
12358,310.89
12370,345.34
12381,373.07
12392,389.25
12404,390.91
12416,377.34
12428,350.06
12440,312.62
12452,269.76
12464,226.42
12476,186.47
12488,151.78
12500,122.15
12512,95.98
12524,71.44
12536,47.39
12548,23.63
12560,0.31
12571,-22.83
12582,-46.92
12594,-73.77
12606,-105.12
12618,-141.96
12630,-184.15
12642,-230.39
12654,-278.51
12666,-325.57
12678,-367.96
12690,-401.69
12702,-422.9
12714,-428.63
12726,-417.38
12738,-389.53
12750,-347.21
12761,-293.96
12772,-234.31
12784,-173.26
12796,-115.65
12808,-65.39
12820,-24.8
12832,5.9
12844,28.35
12856,45.37
12868,59.97
12880,74.53
12892,90.52
12904,108.65
12916,129.29
12928,152.7
12940,178.8
12951,206.67
12962,234.24
12974,258.49
12986,276.23
12998,285.15
13010,284.53
13022,275.51
13034,260.66
13046,243.28
13058,226.77
13070,214.15
13082,207.83
13094,209.29
13106,218.63
13118,234.03
13130,251.61
13141,265.99
13152,271.64
13164,264.42
13176,242.82
13188,208.13
13200,163.51
13212,112.56
13224,57.97
13236,1.18
13248,-56.98
13260,-115.23
13272,-171.05
13284,-220.88
13296,-261.03
13308,-288.94
13320,-303.98
13331,-307.42
13342,-301.91
13354,-290.51
13366,-276.01
13378,-260.52
13390,-245.42
13402,-231.63
13414,-219.93
13426,-211.29
13438,-206.9
13450,-207.84
13462,-214.56
13474,-226.44
13486,-241.73
13498,-257.81
13510,-271.85
13521,-281.5
13532,-285.25
13544,-282.58
13556,-273.83
13568,-260.16
13580,-243.29
13592,-225.28
13604,-208.01
13616,-192.74
13628,-179.86
13640,-169.12
13652,-160.04
13664,-152.13
13676,-144.89
13688,-137.45
13700,-128.53
13711,-116.68
13722,-100.99
13734,-81.71
13746,-60.33
13758,-39.09
13770,-19.97
13782,-3.89
13794,9.71
13806,22.44
13818,36.35
13830,53.14
13842,73.82
13854,98.44
13866,125.98
13878,154.38
13890,180.84
13901,202.39
13912,216.72
13924,223.0
13936,222.13
13948,216.34
13960,208.27
13972,199.93
13984,192.12
13996,184.6
14008,176.8
14020,168.68
14032,161.16
14044,155.91
14056,154.57
14068,157.96
14080,165.55
14091,175.58
14102,185.67
14114,193.65
14126,198.27
14138,199.51
14150,198.37
14162,196.35
14174,194.87
14186,194.94
14198,196.97
14210,200.76
14222,205.65
14234,210.54
14246,214.04
14258,214.73
14270,211.57
14281,204.32
14292,193.91
14304,182.33
14316,172.06
14328,165.18
14340,162.58
14352,163.77
14364,167.18
14376,171.12
14388,174.57
14400,177.63
14412,181.26
14424,186.65
14436,194.4
14448,204.24
14460,215.17
14471,225.97
14482,235.84
14494,244.6
14506,252.66
14518,260.73
14530,269.57
14542,279.62
14554,290.66
14566,301.51
14578,310.07
14590,313.64
14602,309.82
14614,297.4
14626,276.84
14638,250.23
14650,220.45
14661,190.18
14672,161.18
14684,134.15
14696,109.12
14708,85.89
14720,64.22
14732,43.76
14744,24.05
14756,4.82
14768,-13.52
14780,-29.77
14792,-42.35
14804,-50.37
14816,-54.56
14828,-57.5
14840,-62.97
14851,-74.64
14862,-94.87
14874,-123.98
14886,-160.34
14898,-200.8
14910,-241.38
14922,-277.78
14934,-306.11
14946,-323.57
14958,-329.22
14970,-324.47
14982,-312.89
14994,-299.29
15006,-288.33
15018,-283.17
15030,-284.86
15041,-292.28
15052,-302.83
15064,-313.38
15076,-321.23
15088,-324.74
15100,-323.48
15112,-318.01
15124,-309.42
15136,-298.77
15148,-286.89
15160,-274.37
15172,-261.66
15184,-249.27
15196,-237.86
15208,-228.04
15220,-220.28
15231,-214.64
15242,-210.66
15254,-207.41
15266,-203.55
15278,-197.52
15290,-187.88
15302,-173.62
15314,-154.59
15326,-131.77
15338,-107.31
15350,-84.08
15362,-64.93
15374,-51.82
15386,-44.99
15398,-42.73
15410,-41.87
15421,-38.86
15432,-30.93
15444,-16.86
15456,3.25
15468,28.56
15480,58.21
15492,91.36
15504,126.45
15516,160.5
15528,189.0
15540,207.23
15552,212.27
15564,204.72
15576,188.87
15588,171.12
15600,157.33
15611,150.65
15622,150.82
15634,155.05
15646,159.61
15658,160.88
15670,155.49
15682,139.96
15694,111.2
15706,68.16
15718,13.96
15730,-43.15
15742,-91.49
15754,-120.1
15766,-123.53
15778,-104.62
15790,-73.62
15801,-43.9
15812,-26.36
15824,-25.55
15836,-39.07
15848,-60.1
15860,-81.49
15872,-98.74
15884,-110.93
15896,-119.43
15908,-125.99
15920,-131.28
15932,-134.83
15944,-135.89
15956,-134.38
15968,-131.44
15980,-129.07
15991,-129.09
16002,-132.03
16014,-136.59
16026,-139.86
16038,-138.6
16050,-130.52
16062,-115.5
16074,-95.79
16086,-75.25
16098,-57.92
16110,-46.59
16122,-41.99
16134,-42.8
16146,-46.42
16158,-49.99
16170,-51.3
16181,-49.28
16192,-43.87
16204,-35.57
16216,-24.97
16228,-12.6
16240,0.84
16252,14.01
16264,24.82
16276,30.93
16288,30.66
16300,23.9
16312,12.21
16324,-2.12
16336,-17.56
16348,-34.41
16360,-54.75
16371,-80.89
16382,-113.43
16394,-150.0
16406,-185.53
16418,-214.0
16430,-230.72
16442,-233.84
16454,-224.44
16466,-205.33
16478,-179.61
16490,-149.6
16502,-116.84
16514,-82.62
16526,-48.6
16538,-16.85
16550,10.58
16561,32.37
16572,48.36
16584,59.51
16596,67.37
16608,73.34
16620,78.15
16632,81.8
16644,83.93
16656,84.45
16668,83.87
16680,83.38
16692,84.39
16704,87.85
16716,93.78
16728,101.2
16740,108.62
16751,114.73
16762,119.05
16774,122.05
16786,124.88
16798,128.61
16810,133.84
16822,140.61
16834,148.76
16846,158.45
16858,170.42
16870,185.8
16882,205.5
16894,229.77
16906,258.12
16918,289.58
16930,322.87
16941,356.23
16952,386.88
16964,410.86
16976,423.6
16988,421.57
17000,404.15
17012,374.53
17024,338.94
17036,304.22
17048,274.94
17060,251.8
17072,232.03
17084,211.58
17096,187.7
17108,160.34
17120,131.61
17131,103.84
17142,77.7
17154,51.59
17166,22.78
17178,-10.5
17190,-47.44
17202,-84.24
17214,-115.68
17226,-137.38
17238,-147.84
17250,-148.9
17262,-144.65
17274,-139.23
17286,-134.89
17298,-131.42
17310,-127.16
17321,-120.86
17332,-112.98
17344,-105.78
17356,-102.12
17368,-104.1
17380,-112.4
17392,-126.78
17404,-147.1
17416,-173.62
17428,-206.19
17440,-242.75
17452,-278.39
17464,-306.23
17476,-319.9
17488,-316.47
17500,-297.99
17511,-270.51
17522,-241.07
17534,-214.48
17546,-191.68
17558,-170.55
17570,-148.44
17582,-124.58
17594,-101.09
17606,-81.96
17618,-70.75
17630,-68.48
17642,-72.85
17654,-79.15
17666,-82.25
17678,-78.6
17690,-67.31
17701,-50.2
17712,-30.83
17724,-13.54
17736,-2.54
17748,-1.44
17760,-12.55
17772,-36.29
17784,-70.66
17796,-111.07
17808,-150.91
17820,-182.95
17832,-200.86
17844,-200.46
17856,-180.58
17868,-143.67
17880,-95.75
17891,-45.69
17902,-3.12
17914,24.31
17926,33.6
17938,27.33
17950,12.43
17962,-2.94
17974,-12.75
17986,-15.0
17998,-11.41
18010,-5.3
18022,0.72
18034,6.03
18046,11.62
18058,18.86
18070,28.25
18081,38.93
18092,49.06
18104,56.72
18116,60.86
18128,61.89
18140,61.84
18152,63.91
18164,71.21
18176,85.44
18188,106.02
18200,130.14
18212,153.87
18224,173.62
18236,187.41
18248,195.14
18260,198.16
18271,198.34
18282,197.21
18294,195.71
18306,194.35
18318,193.42
18330,193.22
18342,194.02
18354,195.99
18366,199.01
18378,202.54
18390,205.34
18402,205.47
18414,200.26
18426,186.8
18438,162.71
18450,127.28
18461,82.29
18472,32.19
18484,-16.73
18496,-58.02
18508,-86.78
18520,-101.05
18532,-101.95
18544,-92.88
18556,-78.03
18568,-61.05
18580,-44.31
18592,-29.04
18604,-15.8
18616,-4.98
18628,3.0
18640,7.93
18651,10.11
18662,10.48
18674,10.36
18686,11.01
18698,13.13
18710,16.61
18722,20.7
18734,24.35
18746,26.74
18758,27.55
18770,27.08
18782,25.94
18794,24.68
18806,23.51
18818,22.09
18830,19.77
18841,16.0
18852,10.73
18864,4.71
18876,-0.7
18888,-3.91
18900,-3.72
18912,0.3
18924,7.63
18936,17.1
18948,27.27
18960,36.79
18972,44.62
18984,49.93
18996,52.1
19008,50.69
19020,45.68
19031,37.55
19042,27.33
19054,16.35
19066,5.92
19078,-3.05
19090,-10.14
19102,-15.32
19114,-18.77
19126,-20.67
19138,-21.2
19150,-20.55
19162,-18.98
19174,-16.89
19186,-14.69
19198,-12.75
19210,-11.43
19221,-11.03
19232,-11.82
19244,-13.93
19256,-17.15
19268,-20.93
19280,-24.31
19292,-26.31
19304,-26.23
19316,-23.84
19328,-19.42
19340,-13.55
19352,-6.93
19364,-0.08
19376,6.75
19388,13.56
19400,20.35
19411,26.98
19422,33.16
19434,38.5
19446,42.64
19458,45.37
19470,46.72
19482,47.07
19494,47.17
19506,47.86
19518,49.82
19530,53.56
19542,59.27
19554,66.8
19566,75.74
19578,85.47
19590,95.3
19601,104.79
19612,113.17
19624,119.59
19636,123.53
19648,125.14
19660,125.17
19672,124.7
19684,124.71
19696,125.73
19708,128.31
19720,131.88
19732,135.25
19744,137.48
19756,138.44
19768,138.68
19780,139.21
19791,141.2
19802,145.65
19814,154.15
19826,166.59
19838,181.2
19850,194.76
19862,203.69
19874,204.64
19886,195.45
19898,175.48
19910,145.77
19922,109.81
19934,70.35
19946,29.17
19958,-12.86
19970,-54.61
19981,-94.78
19992,-131.95
20004,-165.04
20016,-200.02
20028,-233.26
20040,-256.69
20052,-264.68
20064,-258.76
20076,-243.53
20088,-223.28
20100,-200.51
20112,-176.6
20124,-153.41
20136,-131.15
20148,-110.25
20160,-90.05
20171,-71.62
20182,-55.06
20194,-40.88
20206,-27.75
20218,-14.66
20230,-3.46
20242,5.33
20254,12.01
20266,20.12
20278,29.3
20290,39.31
20302,49.29
20314,59.3
20326,69.23
20338,74.64
20350,72.31
20361,60.78
20372,49.34
20384,39.65
20396,31.96
20408,24.69
20420,17.45
20432,9.9
20444,-3.52
20456,-26.4
20468,-58.29
20480,-90.61
20492,-122.15
20504,-153.14
20516,-185.91
20528,-220.91
20540,-225.54
20551,-184.38
20562,-107.94
20574,-53.57
20586,-26.38
20598,-25.27
20610,-33.71
20622,-46.98
20634,-62.01
20646,-76.75
20658,-95.06
20670,-119.52
20682,-148.85
20694,-174.07
20706,-193.97
20718,-209.63
20730,-224.5
20741,-239.51
20752,-253.7
20764,-268.7
20776,-284.39
20788,-298.08
20800,-302.43
20812,-297.37
20824,-285.58
20836,-272.01
20848,-259.77
20860,-250.4
20872,-246.41
20884,-248.0
20896,-252.12
20908,-251.16
20920,-241.18
20931,-220.52
20942,-190.65
20954,-154.12
20966,-114.36
20978,-76.04
20990,-42.71
