seconds,BVP
6,-3.56
18,-5.1
30,-6.84
42,-8.7
54,-10.54
66,-12.2
78,-13.62
89,-14.95
100,-16.48
112,-18.51
124,-21.13
136,-24.1
148,-26.82
160,-28.56
172,-28.63
184,-26.68
196,-22.75
208,-17.29
220,-10.94
232,-4.41
244,1.68
256,6.91
268,11.05
279,14.03
290,15.92
302,16.85
314,16.97
326,16.45
338,15.46
350,14.17
362,12.81
374,11.63
386,10.82
398,10.54
410,10.81
422,11.51
434,12.43
446,13.35
458,14.08
469,14.55
480,14.74
492,14.65
504,14.22
516,13.4
528,12.14
540,10.49
552,8.57
564,6.58
576,4.65
588,2.87
600,1.23
612,-0.33
624,-1.9
636,-3.57
648,-5.41
659,-7.49
670,-9.83
682,-12.41
694,-15.12
706,-17.72
718,-19.87
730,-21.21
742,-21.37
754,-20.12
766,-17.39
778,-13.31
790,-8.25
802,-2.67
814,2.89
826,7.99
838,12.33
849,15.82
860,18.43
872,20.22
884,21.19
896,21.35
908,20.71
920,19.38
932,17.52
944,15.35
956,13.11
968,11.0
980,9.21
992,7.84
1004,6.92
1016,6.38
1028,6.06
1039,5.78
1050,5.41
1062,4.88
1074,4.22
1086,3.46
1098,2.59
1110,1.53
1122,0.19
1134,-1.43
1146,-3.24
1158,-5.04
1170,-6.7
1182,-8.19
1194,-9.63
1206,-11.28
1218,-13.32
1229,-15.82
1240,-18.61
1252,-21.4
1264,-23.74
1276,-25.24
1288,-25.54
1300,-24.43
1312,-21.9
1324,-18.12
1336,-13.4
1348,-8.17
1360,-2.87
1372,2.11
1384,6.47
1396,9.97
1408,12.47
1419,13.87
1430,14.18
1442,13.54
1454,12.18
1466,10.43
1478,8.6
1490,6.99
1502,5.82
1514,5.18
1526,5.03
1538,5.25
1550,5.62
1562,5.93
1574,6.02
1586,5.82
1598,5.34
1609,4.58
1620,3.55
1632,2.25
1644,0.66
1656,-1.16
1668,-3.13
1680,-5.13
1692,-7.09
1704,-8.97
1716,-10.79
1728,-12.55
1740,-14.31
1752,-16.14
1764,-18.17
1776,-20.55
1788,-23.3
1799,-26.22
1810,-28.84
1822,-30.51
1834,-30.62
1846,-28.8
1858,-25.08
1870,-19.81
1882,-13.57
1894,-6.98
1906,-0.6
1918,5.13
1930,9.87
1942,13.41
1954,15.68
1966,16.75
1978,16.84
1989,16.22
2000,15.19
2012,13.96
2024,12.71
2036,11.58
2048,10.68
2060,10.14
2072,10.03
2084,10.36
2096,11.04
2108,11.91
2120,12.74
2132,13.36
2144,13.66
2156,13.56
2168,13.02
2179,11.98
2190,10.4
2202,8.26
2214,5.66
2226,2.78
2238,-0.15
2250,-2.92
2262,-5.43
2274,-7.74
2286,-9.97
2298,-12.27
2310,-14.74
2322,-17.41
2334,-20.27
2346,-23.28
2358,-26.3
2369,-29.09
2380,-31.24
2392,-32.25
2404,-31.68
2416,-29.26
2428,-25.05
2440,-19.43
2452,-13.02
2464,-6.48
2476,-0.34
2488,5.02
2500,9.43
2512,12.8
2524,15.12
2536,16.37
2548,16.64
2559,16.08
2570,15.03
2582,13.84
2594,12.86
2606,12.26
2618,12.1
2630,12.26
2642,12.64
2654,13.12
2666,13.63
2678,14.14
2690,14.58
2702,14.88
2714,14.94
2726,14.69
2738,14.07
2749,13.06
2760,11.69
2772,10.0
2784,8.04
2796,5.88
2808,3.57
2820,1.15
2832,-1.31
2844,-3.74
2856,-6.02
2868,-8.0
2880,-9.6
2892,-10.84
2904,-11.88
2916,-13.0
2928,-14.48
2939,-16.53
2950,-19.15
2962,-22.1
2974,-24.94
2986,-27.09
2998,-28.03
3010,-27.33
3022,-24.83
3034,-20.64
3046,-15.09
3058,-8.73
3070,-2.15
3082,4.05
3094,9.4
3106,13.59
3118,16.51
3129,18.22
3140,18.91
3152,18.8
3164,18.11
3176,17.04
3188,15.75
3200,14.41
3212,13.24
3224,12.42
3236,12.1
3248,12.32
3260,13.0
3272,13.99
3284,15.1
3296,16.13
3308,16.91
3319,17.31
3330,17.29
3342,16.83
3354,16.01
3366,14.91
3378,13.6
3390,12.13
3402,10.47
3414,8.56
3426,6.36
3438,3.9
3450,1.29
3462,-1.33
3474,-3.76
3486,-5.86
3498,-7.57
3509,-8.92
3520,-10.08
3532,-11.24
3544,-12.63
3556,-14.41
3568,-16.62
3580,-19.18
3592,-21.86
3604,-24.3
3616,-26.05
3628,-26.59
3640,-25.54
3652,-22.75
3664,-18.42
3676,-13.03
3688,-7.22
3699,-1.58
3710,3.5
3722,7.83
3734,11.37
3746,14.11
3758,15.99
3770,16.95
3782,16.98
3794,16.17
3806,14.75
3818,13.06
3830,11.44
3842,10.2
3854,9.56
3866,9.59
3878,10.23
3889,11.28
3900,12.44
3912,13.41
3924,13.97
3936,14.02
3948,13.57
3960,12.73
3972,11.57
3984,10.19
3996,8.64
4008,6.96
4020,5.18
4032,3.35
4044,1.49
4056,-0.38
4068,-2.24
4079,-4.11
4090,-5.99
4102,-7.9
4114,-9.85
4126,-11.85
4138,-13.98
4150,-16.3
4162,-18.87
4174,-21.63
4186,-24.32
4198,-26.48
4210,-27.57
4222,-27.1
4234,-24.86
4246,-20.96
4258,-15.86
4269,-10.15
4280,-4.45
4292,0.78
4304,5.25
4316,8.78
4328,11.3
4340,12.82
4352,13.38
4364,13.13
4376,12.28
4388,11.14
4400,10.01
4412,9.13
4424,8.67
4436,8.63
4448,8.93
4459,9.39
4470,9.84
4482,10.17
4494,10.37
4506,10.46
4518,10.47
4530,10.37
4542,10.07
4554,9.46
4566,8.47
4578,7.1
4590,5.4
4602,3.47
4614,1.4
4626,-0.76
4638,-3.01
4649,-5.32
4660,-7.65
4672,-9.96
4684,-12.18
4696,-14.3
4708,-16.35
4720,-18.4
4732,-20.54
4744,-22.85
4756,-25.37
4768,-28.05
4780,-30.68
4792,-32.91
4804,-34.23
4816,-34.11
4828,-32.12
4839,-28.1
4850,-22.28
4862,-15.24
4874,-7.79
4886,-0.79
4898,5.11
4910,9.51
4922,12.36
4934,13.88
4946,14.4
4958,14.25
4970,13.7
4982,12.89
4994,11.94
5006,10.95
5018,10.06
5029,9.47
5040,9.33
5052,9.68
5064,10.42
5076,11.3
5088,12.06
5100,12.53
5112,12.65
5124,12.51
5136,12.14
5148,11.56
5160,10.7
5172,9.49
5184,7.9
5196,6.02
5208,3.99
5219,1.95
5230,-0.01
5242,-1.94
5254,-3.92
5266,-6.06
5278,-8.34
5290,-10.69
5302,-12.97
5314,-15.04
5326,-16.88
5338,-18.61
5350,-20.41
5362,-22.46
5374,-24.83
5386,-27.32
5398,-29.46
5409,-30.6
5420,-30.1
5432,-27.58
5444,-23.05
5456,-16.95
5468,-10.04
5480,-3.15
5492,3.04
5504,8.11
5516,11.91
5528,14.47
5540,15.93
5552,16.42
5564,16.12
5576,15.26
5588,14.12
5599,12.97
5610,12.01
5622,11.34
5634,11.03
5646,11.07
5658,11.47
5670,12.19
5682,13.15
5694,14.21
5706,15.14
5718,15.72
5730,15.79
5742,15.28
5754,14.22
5766,12.73
5778,10.98
5789,9.14
5800,7.33
5812,5.62
5824,3.95
5836,2.24
5848,0.37
5860,-1.74
5872,-4.07
5884,-6.54
5896,-8.98
5908,-11.26
5920,-13.35
5932,-15.33
5944,-17.36
5956,-19.61
5968,-22.09
5979,-24.54
5990,-26.52
6002,-27.44
6014,-26.84
6026,-24.51
6038,-20.58
6050,-15.45
6062,-9.66
6074,-3.72
6086,1.91
6098,6.9
6110,10.93
6122,13.77
6134,15.25
6146,15.36
6158,14.3
6169,12.5
6180,10.45
6192,8.67
6204,7.49
6216,7.07
6228,7.32
6240,7.98
6252,8.79
6264,9.49
6276,9.97
6288,10.23
6300,10.36
6312,10.42
6324,10.44
6336,10.32
6348,9.93
6359,9.15
6370,7.9
6382,6.25
6394,4.33
6406,2.31
6418,0.32
6430,-1.61
6442,-3.52
6454,-5.54
6466,-7.77
6478,-10.3
6490,-13.11
6502,-16.12
6514,-19.11
6526,-21.85
6538,-24.02
6549,-25.28
6560,-25.32
6572,-23.89
6584,-20.95
6596,-16.62
6608,-11.25
6620,-5.38
6632,0.45
6644,5.74
6656,10.14
6668,13.42
6680,15.44
6692,16.19
6704,15.74
6716,14.3
6728,12.22
6739,9.98
6750,8.05
6762,6.74
6774,6.19
6786,6.26
6798,6.68
6810,7.16
6822,7.5
6834,7.62
6846,7.56
6858,7.37
6870,7.08
6882,6.64
6894,5.97
6906,4.99
6918,3.66
6929,1.95
6940,-0.11
6952,-2.44
6964,-4.95
6976,-7.48
6988,-9.86
7000,-12.01
7012,-13.93
7024,-15.78
7036,-17.81
7048,-20.27
7060,-23.23
7072,-26.49
7084,-29.58
7096,-31.83
7108,-32.58
7119,-31.39
7130,-28.14
7142,-23.08
7154,-16.74
7166,-9.77
7178,-2.85
7190,3.42
7202,8.63
7214,12.58
7226,15.2
7238,16.59
7250,16.9
7262,16.35
7274,15.19
7286,13.72
7298,12.34
7309,11.39
7320,11.14
7332,11.63
7344,12.68
7356,13.91
7368,14.96
7380,15.59
7392,15.75
7404,15.56
7416,15.18
7428,14.67
7440,14.04
7452,13.21
7464,12.12
7476,10.74
7488,9.09
7499,7.19
7510,5.08
7522,2.83
7534,0.52
7546,-1.79
7558,-4.05
7570,-6.28
7582,-8.56
7594,-11.01
7606,-13.69
7618,-16.56
7630,-19.46
7642,-22.05
7654,-23.94
7666,-24.7
7678,-24.02
7689,-21.77
7700,-18.02
7712,-13.09
7724,-7.41
7736,-1.55
7748,3.99
7760,8.75
7772,12.46
7784,15.03
7796,16.54
7808,17.16
7820,17.13
7832,16.69
7844,15.99
7856,15.21
7868,14.47
7879,13.95
7890,13.75
7902,13.92
7914,14.38
7926,14.99
7938,15.53
7950,15.88
7962,15.95
7974,15.81
7986,15.52
7998,15.12
8010,14.57
8022,13.78
8034,12.59
8046,10.94
8058,8.85
8069,6.46
8080,3.94
8092,1.49
8104,-0.8
8116,-2.94
8128,-5.02
8140,-7.12
8152,-9.3
8164,-11.57
8176,-13.88
8188,-16.17
8200,-18.4
8212,-20.47
8224,-22.24
8236,-23.44
8248,-23.73
8259,-22.71
8270,-20.15
8282,-16.04
8294,-10.71
8306,-4.69
8318,1.34
8330,6.8
8342,11.34
8354,14.83
8366,17.32
8378,18.87
8390,19.53
8402,19.29
8414,18.22
8426,16.51
8438,14.48
8449,12.56
8460,11.08
8472,10.26
8484,10.1
8496,10.42
8508,10.95
8520,11.44
8532,11.67
8544,11.5
8556,10.9
8568,9.91
8580,8.58
8592,7.0
8604,5.25
8616,3.36
8628,1.36
8639,-0.77
8650,-3.01
8662,-5.31
8674,-7.59
8686,-9.77
8698,-11.8
8710,-13.74
8722,-15.69
8734,-17.78
8746,-20.05
8758,-22.44
8770,-24.67
8782,-26.36
8794,-27.13
8806,-26.65
8818,-24.8
8829,-21.6
8840,-17.28
8852,-12.16
8864,-6.64
8876,-1.13
8888,3.97
8900,8.33
8912,11.7
8924,13.97
8936,15.15
8948,15.39
8960,14.95
8972,14.17
8984,13.34
8996,12.72
9008,12.42
9019,12.44
9030,12.71
9042,13.13
9054,13.62
9066,14.11
9078,14.48
9090,14.62
9102,14.43
9114,13.85
9126,12.91
9138,11.75
9150,10.47
9162,9.07
9174,7.43
9186,5.37
9198,2.77
9209,-0.32
9220,-3.63
9232,-6.79
9244,-9.45
9256,-11.46
9268,-12.91
9280,-14.1
9292,-15.41
9304,-17.17
9316,-19.54
9328,-22.44
9340,-25.5
9352,-28.18
9364,-29.81
9376,-29.86
9388,-28.05
9399,-24.43
9410,-19.38
9422,-13.51
9434,-7.43
9446,-1.71
9458,3.24
9470,7.2
9482,10.04
9494,11.74
9506,12.36
9518,12.08
9530,11.12
9542,9.8
9554,8.42
9566,7.23
9578,6.39
9589,5.96
9600,5.92
9612,6.17
9624,6.66
9636,7.27
9648,7.91
9660,8.42
9672,8.6
9684,8.31
9696,7.52
9708,6.32
9720,4.85
9732,3.23
9744,1.45
9756,-0.61
9768,-3.04
9779,-5.84
9790,-8.82
9802,-11.69
9814,-14.17
9826,-16.14
9838,-17.67
9850,-18.93
9862,-20.14
9874,-21.45
9886,-22.99
9898,-24.78
9910,-26.76
9922,-28.71
9934,-30.16
9946,-30.57
9958,-29.42
9969,-26.49
9980,-21.9
9992,-16.13
10004,-9.81
10016,-3.55
10028,2.22
10040,7.24
10052,11.35
10064,14.46
10076,16.55
10088,17.68
10100,17.98
10112,17.69
10124,17.05
10136,16.25
10148,15.4
10159,14.6
10170,13.93
10182,13.51
10194,13.47
10206,13.8
10218,14.44
10230,15.17
10242,15.74
10254,15.99
10266,15.84
10278,15.32
10290,14.5
10302,13.41
10314,12.07
10326,10.51
10338,8.82
10349,7.15
10360,5.6
10372,4.16
10384,2.69
10396,0.98
10408,-1.11
10420,-3.52
10432,-6.05
10444,-8.39
10456,-10.35
10468,-11.9
10480,-13.23
10492,-14.6
10504,-16.25
10516,-18.3
10528,-20.7
10539,-23.26
10550,-25.6
10562,-27.24
10574,-27.62
10586,-26.29
10598,-23.04
10610,-17.97
10622,-11.59
10634,-4.6
10646,2.23
10658,8.28
10670,13.14
10682,16.59
10694,18.63
10706,19.33
10718,18.9
10729,17.64
10740,15.94
10752,14.24
10764,12.93
10776,12.25
10788,12.25
10800,12.8
10812,13.69
10824,14.68
10836,15.6
10848,16.36
10860,16.97
10872,17.43
10884,17.74
10896,17.84
10908,17.6
10919,16.93
10930,15.77
10942,14.18
10954,12.31
10966,10.4
10978,8.61
10990,6.99
11002,5.46
11014,3.83
11026,1.97
11038,-0.13
11050,-2.35
11062,-4.5
11074,-6.43
11086,-8.09
11098,-9.54
11109,-10.91
11120,-12.29
11132,-13.8
11144,-15.57
11156,-17.68
11168,-20.15
11180,-22.83
11192,-25.31
11204,-27.01
11216,-27.35
11228,-25.88
11240,-22.56
11252,-17.68
11264,-11.85
11276,-5.76
11288,0.01
11299,5.06
11310,9.2
11322,12.38
11334,14.61
11346,15.87
11358,16.16
11370,15.54
11382,14.15
11394,12.33
11406,10.47
11418,9.0
11430,8.21
11442,8.19
11454,8.84
11466,9.9
11478,11.11
11489,12.24
11500,13.16
11512,13.77
11524,14.04
11536,13.88
11548,13.27
11560,12.21
11572,10.78
11584,9.1
11596,7.26
11608,5.35
11620,3.34
11632,1.22
11644,-1.02
11656,-3.32
11668,-5.56
11679,-7.61
11690,-9.41
11702,-11.02
11714,-12.59
11726,-14.31
11738,-16.3
11750,-18.54
11762,-20.82
11774,-22.79
11786,-23.99
11798,-24.0
11810,-22.55
11822,-19.57
11834,-15.27
11846,-10.07
11858,-4.53
11869,0.77
11880,5.38
11892,9.0
11904,11.53
11916,12.99
11928,13.48
11940,13.14
11952,12.15
11964,10.74
11976,9.19
11988,7.79
12000,6.76
12012,6.24
12024,6.23
12036,6.62
12048,7.26
12059,7.97
12070,8.61
12082,9.09
12094,9.3
12106,9.16
12118,8.58
12130,7.52
12142,6.01
12154,4.15
12166,2.08
12178,-0.11
12190,-2.34
12202,-4.56
12214,-6.76
12226,-8.87
12238,-10.84
12249,-12.66
12260,-14.39
12272,-16.16
12284,-18.16
12296,-20.49
12308,-23.17
12320,-26.05
12332,-28.84
12344,-31.14
12356,-32.51
12368,-32.52
12380,-30.86
12392,-27.44
12404,-22.43
12416,-16.27
12428,-9.62
12439,-3.15
12450,2.59
12462,7.27
12474,10.76
12486,13.11
12498,14.39
12510,14.72
12522,14.24
12534,13.16
12546,11.75
12558,10.33
12570,9.17
12582,8.5
12594,8.35
12606,8.68
12618,9.35
12629,10.17
12640,10.98
12652,11.63
12664,12.03
12676,12.13
12688,11.93
12700,11.4
12712,10.56
12724,9.38
12736,7.82
12748,5.88
12760,3.64
12772,1.22
12784,-1.21
12796,-3.5
12808,-5.58
12819,-7.49
12830,-9.31
12842,-11.2
12854,-13.25
12866,-15.51
12878,-17.97
12890,-20.61
12902,-23.33
12914,-25.98
12926,-28.3
12938,-29.86
12950,-30.18
12962,-28.83
12974,-25.61
12986,-20.64
12998,-14.41
13009,-7.62
13020,-1.03
13032,4.78
13044,9.44
13056,12.86
13068,15.08
13080,16.21
13092,16.39
13104,15.8
13116,14.67
13128,13.28
13140,11.92
13152,10.82
13164,10.17
13176,10.02
13188,10.37
13199,11.14
13210,12.16
13222,13.24
13234,14.11
13246,14.6
13258,14.59
13270,14.13
13282,13.37
13294,12.44
13306,11.46
13318,10.38
13330,9.09
13342,7.49
13354,5.5
13366,3.19
13378,0.71
13389,-1.78
13400,-4.11
13412,-6.19
13424,-8.02
13436,-9.64
13448,-11.19
13460,-12.87
13472,-14.88
13484,-17.36
13496,-20.28
13508,-23.41
13520,-26.26
13532,-28.22
13544,-28.7
13556,-27.33
13568,-24.05
13579,-19.13
13590,-13.09
13602,-6.54
13614,-0.07
13626,5.84
13638,10.8
13650,14.58
13662,17.05
13674,18.23
13686,18.29
13698,17.52
13710,16.31
13722,15.02
13734,13.91
13746,13.12
13758,12.7
13769,12.63
13780,12.85
13792,13.3
13804,13.87
13816,14.44
13828,14.85
13840,15.04
13852,15.01
13864,14.79
13876,14.43
13888,13.88
13900,13.04
13912,11.76
13924,10.0
13936,7.81
13948,5.4
13959,2.96
13970,0.65
13982,-1.52
13994,-3.6
14006,-5.68
14018,-7.8
14030,-9.96
14042,-12.11
14054,-14.28
14066,-16.53
14078,-18.93
14090,-21.48
14102,-23.94
14114,-25.87
14126,-26.7
14138,-25.92
14149,-23.29
14160,-18.93
14172,-13.33
14184,-7.1
14196,-0.84
14208,4.99
14220,10.11
14232,14.32
14244,17.41
14256,19.19
14268,19.51
14280,18.47
14292,16.39
14304,13.81
14316,11.29
14328,9.26
14339,7.92
14350,7.25
14362,7.13
14374,7.43
14386,8.02
14398,8.8
14410,9.62
14422,10.31
14434,10.67
14446,10.57
14458,9.98
14470,8.96
14482,7.66
14494,6.21
14506,4.68
14518,3.07
14529,1.32
14540,-0.64
14552,-2.79
14564,-5.08
14576,-7.38
14588,-9.57
14600,-11.58
14612,-13.41
14624,-15.14
14636,-16.91
14648,-18.92
14660,-21.29
14672,-24.05
14684,-26.99
14696,-29.68
14708,-31.48
14719,-31.75
14730,-30.01
14742,-26.18
14754,-20.57
14766,-13.86
14778,-6.85
14790,-0.27
14802,5.39
14814,9.86
14826,13.09
14838,15.09
14850,15.96
14862,15.83
14874,14.91
14886,13.5
14898,11.96
14909,10.55
14920,9.49
14932,8.86
14944,8.67
14956,8.91
14968,9.52
14980,10.43
14992,11.51
15004,12.61
15016,13.53
15028,14.14
15040,14.31
15052,13.97
15064,13.11
15076,11.74
15088,9.93
15099,7.81
15110,5.53
15122,3.24
15134,0.99
15146,-1.21
15158,-3.42
15170,-5.66
15182,-7.9
15194,-10.05
15206,-12.06
15218,-13.94
15230,-15.82
15242,-17.81
15254,-20.0
15266,-22.34
15278,-24.69
15289,-26.87
15300,-28.7
15312,-29.99
15324,-30.55
15336,-30.09
15348,-28.36
15360,-25.13
15372,-20.38
15384,-14.3
15396,-7.34
15408,-0.08
15420,6.89
15432,13.07
15444,18.15
15456,21.96
15468,24.5
15479,25.82
15490,26.05
15502,25.32
15514,23.79
15526,21.7
15538,19.31
15550,16.98
15562,15.07
15574,13.87
15586,13.5
15598,13.92
15610,14.92
15622,16.19
15634,17.46
15646,18.48
15658,19.16
15669,19.46
15680,19.35
15692,18.8
15704,17.78
15716,16.27
15728,14.36
15740,12.25
15752,10.12
15764,8.14
15776,6.34
15788,4.6
15800,2.76
15812,0.71
15824,-1.57
15836,-3.97
15848,-6.31
15859,-8.41
15870,-10.19
15882,-11.66
15894,-12.96
15906,-14.29
15918,-15.87
15930,-17.89
15942,-20.46
15954,-23.54
15966,-26.9
15978,-30.18
15990,-32.92
16002,-34.67
16014,-35.04
16026,-33.81
16038,-30.89
16049,-26.43
16060,-20.72
16072,-14.21
16084,-7.39
16096,-0.67
16108,5.64
16120,11.31
16132,16.09
16144,19.6
16156,21.43
16168,21.25
16180,19.13
16192,15.69
16204,11.97
16216,9.16
16228,8.15
16239,9.26
16250,12.16
16262,16.12
16274,20.34
16286,24.18
16298,27.31
16310,29.61
16322,30.99
16334,31.37
16346,30.63
16358,28.8
16370,26.05
16382,22.76
16394,19.36
16406,16.21
16418,13.47
16429,11.13
16440,9.02
16452,6.93
16464,4.74
16476,2.38
16488,-0.1
16500,-2.65
16512,-5.21
16524,-7.66
16536,-9.93
16548,-11.91
16560,-13.55
16572,-14.93
16584,-16.19
16596,-17.57
16608,-19.32
16619,-21.61
16630,-24.47
16642,-27.74
16654,-31.06
16666,-33.88
16678,-35.6
16690,-35.66
16702,-33.69
16714,-29.61
16726,-23.7
16738,-16.58
16750,-9.03
16762,-1.9
16774,4.17
16786,8.77
16798,11.79
16809,13.33
16820,13.65
16832,13.06
16844,11.89
16856,10.46
16868,9.09
16880,8.09
16892,7.7
16904,8.02
16916,9.03
16928,10.47
16940,12.05
16952,13.43
16964,14.4
16976,14.91
16988,15.04
16999,14.96
17010,14.79
17022,14.54
17034,14.1
17046,13.34
17058,12.17
17070,10.64
17082,8.87
17094,7.05
17106,5.27
17118,3.56
17130,1.8
17142,-0.11
17154,-2.22
17166,-4.47
17178,-6.67
17189,-8.64
17200,-10.23
17212,-11.47
17224,-12.53
17236,-13.7
17248,-15.25
17260,-17.33
17272,-19.96
17284,-22.91
17296,-25.83
17308,-28.22
17320,-29.56
17332,-29.4
17344,-27.45
17356,-23.71
17368,-18.47
17379,-12.29
17390,-5.86
17402,0.2
17414,5.39
17426,9.49
17438,12.44
17450,14.29
17462,15.18
17474,15.23
17486,14.57
17498,13.38
17510,11.87
17522,10.27
17534,8.81
17546,7.73
17558,7.2
17569,7.31
17580,8.05
17592,9.26
17604,10.7
17616,12.07
17628,13.14
17640,13.72
17652,13.76
17664,13.26
17676,12.26
17688,10.85
17700,9.16
17712,7.34
17724,5.58
17736,3.96
17748,2.47
17759,0.95
17770,-0.83
17782,-3.06
17794,-5.8
17806,-8.89
17818,-12.03
17830,-14.89
17842,-17.23
17854,-18.99
17866,-20.31
17878,-21.47
17890,-22.76
17902,-24.41
17914,-26.49
17926,-28.83
17938,-31.09
17949,-32.7
17960,-33.08
17972,-31.7
17984,-28.31
17996,-23.03
18008,-16.37
18020,-9.08
18032,-2.0
18044,4.18
18056,9.07
18068,12.52
18080,14.63
18092,15.57
18104,15.56
18116,14.82
18128,13.57
18139,12.09
18150,10.64
18162,9.5
18174,8.81
18186,8.65
18198,8.95
18210,9.6
18222,10.47
18234,11.46
18246,12.49
18258,13.47
18270,14.29
18282,14.84
18294,15.02
18306,14.81
18318,14.23
18329,13.33
18340,12.11
18352,10.53
18364,8.52
18376,6.03
18388,3.14
18400,0.0
18412,-3.12
18424,-5.99
18436,-8.45
18448,-10.49
18460,-12.21
18472,-13.76
18484,-15.34
18496,-17.09
18508,-19.18
18519,-21.7
18530,-24.65
18542,-27.85
18554,-30.91
18566,-33.2
18578,-34.05
18590,-32.94
18602,-29.66
18614,-24.44
18626,-17.82
18638,-10.51
18650,-3.19
18662,3.55
18674,9.33
18686,13.84
18698,16.92
18709,18.54
18720,18.83
18732,18.09
18744,16.7
18756,15.04
18768,13.4
18780,12.01
18792,11.06
18804,10.67
18816,10.94
18828,11.84
18840,13.23
18852,14.84
18864,16.36
18876,17.5
18888,18.08
18899,18.06
18910,17.49
18922,16.47
18934,15.13
18946,13.52
18958,11.75
18970,9.89
18982,8.02
18994,6.27
19006,4.68
19018,3.23
19030,1.82
19042,0.28
19054,-1.49
19066,-3.5
19078,-5.65
19089,-7.76
19100,-9.7
19112,-11.47
19124,-13.2
19136,-15.08
19148,-17.32
19160,-19.91
19172,-22.67
19184,-25.17
19196,-26.8
19208,-26.97
19220,-25.24
19232,-21.49
19244,-15.99
19256,-9.33
19268,-2.28
19279,4.42
19290,10.21
19302,14.77
19314,17.98
19326,19.85
19338,20.42
19350,19.8
19362,18.21
19374,15.94
19386,13.42
19398,11.11
19410,9.39
19422,8.47
19434,8.43
19446,9.15
19458,10.47
19469,12.14
19480,13.92
19492,15.58
19504,16.86
19516,17.56
19528,17.51
19540,16.71
19552,15.32
19564,13.6
19576,11.84
19588,10.2
19600,8.68
19612,7.12
19624,5.27
19636,2.97
19648,0.22
19659,-2.81
19670,-5.86
19682,-8.63
19694,-10.92
19706,-12.69
19718,-14.07
19730,-15.35
19742,-16.84
19754,-18.78
19766,-21.2
19778,-23.83
19790,-26.13
19802,-27.45
19814,-27.26
19826,-25.27
19838,-21.53
19849,-16.39
19860,-10.37
19872,-4.0
19884,2.22
19896,7.85
19908,12.54
19920,16.03
19932,18.21
19944,19.1
19956,18.89
19968,17.88
19980,16.4
19992,14.76
20004,13.19
20016,11.83
20028,10.78
20039,10.16
20050,10.05
20062,10.5
20074,11.45
20086,12.72
20098,14.04
20110,15.09
20122,15.62
20134,15.49
20146,14.69
20158,13.28
20170,11.37
20182,9.07
20194,6.48
20206,3.73
20218,0.9
20229,-1.86
20240,-4.48
20252,-6.92
20264,-9.17
20276,-11.28
20288,-13.28
20300,-15.21
20312,-17.04
20324,-18.79
20336,-20.52
20348,-22.41
20360,-24.64
20372,-27.32
20384,-30.3
20396,-33.15
20408,-35.18
20419,-35.67
20430,-34.13
20442,-30.45
20454,-24.96
20466,-18.28
20478,-11.13
20490,-4.13
20502,2.27
20514,7.75
20526,12.1
20538,15.19
20550,16.99
20562,17.61
20574,17.31
20586,16.44
20598,15.36
20609,14.34
20620,13.54
20632,13.03
20644,12.85
20656,13.02
20668,13.58
20680,14.49
20692,15.65
20704,16.8
20716,17.68
20728,18.07
20740,17.85
20752,17.1
20764,15.95
20776,14.52
20788,12.88
20799,10.99
20810,8.84
20822,6.48
20834,4.04
20846,1.68
20858,-0.55
20870,-2.72
20882,-4.94
20894,-7.34
20906,-9.85
20918,-12.28
20930,-14.39
20942,-16.06
20954,-17.42
20966,-18.8
20978,-20.58
20989,-23.04
