seconds,BVP
11,-4.82
23,-6.21
35,-7.13
47,-7.73
59,-8.22
71,-8.73
83,-9.31
95,-9.92
106,-10.55
117,-11.23
129,-11.96
141,-12.76
153,-13.57
165,-14.36
177,-15.21
189,-16.26
201,-17.67
213,-19.47
225,-21.44
237,-23.12
249,-23.88
261,-23.19
273,-20.83
285,-16.98
296,-12.15
307,-7.04
319,-2.22
331,2.0
343,5.65
355,8.9
367,11.93
379,14.74
391,17.06
403,18.56
415,19.05
427,18.67
439,17.96
451,17.63
463,18.27
475,20.11
486,22.82
497,25.72
509,28.04
521,29.31
533,29.59
545,29.45
557,29.71
569,31.03
581,33.6
593,36.99
605,40.28
617,42.51
629,43.1
641,42.15
653,40.57
665,39.63
676,40.56
687,44.13
699,50.41
711,58.91
723,68.59
735,77.82
747,84.33
759,85.25
771,77.49
783,58.37
795,26.35
807,-18.51
819,-74.65
831,-139.7
843,-211.18
855,-286.72
866,-363.5
877,-437.33
889,-502.23
901,-551.22
913,-578.17
925,-579.93
937,-557.66
949,-516.44
961,-463.36
973,-405.12
985,-346.22
997,-288.67
1009,-232.91
1021,-179.21
1033,-128.51
1045,-82.21
1056,-41.35
1067,-5.64
1079,26.74
1091,58.75
1103,93.43
1115,132.69
1127,176.33
1139,221.74
1151,264.44
1163,299.42
1175,322.64
1187,332.32
1199,329.48
1211,317.51
1223,301.03
1235,284.64
1246,271.84
1257,264.64
1269,263.42
1281,267.2
1293,273.97
1305,281.18
1317,286.34
1329,287.68
1341,284.51
1353,277.28
1365,267.21
1377,255.82
1389,244.42
1401,233.97
1413,224.88
1425,216.99
1436,209.56
1447,201.62
1459,192.38
1471,181.58
1483,169.86
1495,158.3
1507,147.96
1519,139.2
1531,131.37
1543,123.04
1555,112.51
1567,98.37
1579,79.78
1591,56.53
1603,28.79
1615,-2.46
1626,-35.11
1637,-65.87
1649,-90.73
1661,-106.02
1673,-109.54
1685,-101.36
1697,-83.65
1709,-60.05
1721,-33.94
1733,-7.87
1745,16.24
1757,36.21
1769,48.75
1781,50.03
1793,37.11
1805,9.73
1816,-29.26
1827,-73.83
1839,-116.81
1851,-152.03
1863,-176.04
1875,-188.58
1887,-191.7
1899,-188.54
1911,-179.6
1923,-166.09
1935,-150.47
1947,-136.06
1959,-124.7
1971,-115.79
1983,-107.06
1995,-95.79
2006,-79.82
2017,-58.32
2029,-33.65
2041,-6.91
2053,19.93
2065,44.33
2077,63.78
2089,76.43
2101,81.67
2113,80.19
2125,73.63
2137,63.65
2149,52.01
2161,40.53
2173,30.51
2185,22.26
2196,15.0
2207,7.37
2219,-1.87
2231,-13.02
2243,-25.43
2255,-37.25
2267,-46.5
2279,-51.79
2291,-52.89
2303,-50.78
2315,-47.22
2327,-44.02
2339,-42.45
2351,-42.97
2363,-45.03
2375,-47.53
2386,-49.14
2397,-48.61
2409,-45.06
2421,-38.15
2433,-28.22
2445,-16.34
2457,-4.21
2469,6.29
2481,13.48
2493,16.41
2505,15.14
2517,10.71
2529,4.65
2541,-1.48
2553,-6.63
2565,-10.33
2576,-12.57
2587,-13.49
2599,-13.29
2611,-12.19
2623,-10.48
2635,-8.59
2647,-6.92
2659,-5.5
2671,-3.85
2683,-0.94
2695,4.28
2707,12.36
2719,23.02
2731,35.39
2743,48.61
2755,62.48
2766,77.57
2777,94.6
2789,113.57
2801,133.02
2813,150.25
2825,162.25
2837,166.82
2849,163.24
2861,151.9
2873,133.3
2885,107.2
2897,72.56
2909,28.26
2921,-25.73
2933,-87.86
2945,-155.29
2956,-224.8
2967,-293.61
2979,-359.47
2991,-420.05
3003,-472.32
3015,-512.31
3027,-535.98
3039,-540.43
3051,-525.32
3063,-493.34
3075,-449.59
3087,-400.22
3099,-350.84
3111,-305.47
3123,-266.3
3135,-234.06
3146,-208.57
3157,-189.22
3169,-174.98
3181,-164.23
3193,-154.77
3205,-144.07
3217,-129.92
3229,-111.13
3241,-87.88
3253,-61.57
3265,-34.21
3277,-7.65
3289,16.9
3301,39.05
3313,58.96
3325,77.06
3336,93.72
3347,109.13
3359,123.18
3371,135.51
3383,145.55
3395,152.66
3407,156.35
3419,156.47
3431,153.37
3443,147.81
3455,140.88
3467,133.7
3479,127.2
3491,121.97
3503,118.09
3515,115.19
3526,112.52
3537,109.16
3549,104.21
3561,97.18
3573,88.13
3585,77.78
3597,67.37
3609,58.36
3621,52.13
3633,49.57
3645,50.94
3657,55.8
3669,63.14
3681,71.53
3693,79.53
3705,85.92
3716,89.93
3727,91.27
3739,90.0
3751,86.27
3763,80.31
3775,72.34
3787,62.7
3799,51.93
3811,40.84
3823,30.29
3835,21.02
3847,13.41
3859,7.34
3871,2.31
3883,-2.35
3895,-6.99
3906,-11.38
3917,-14.65
3929,-15.72
3941,-13.86
3953,-9.12
3965,-2.4
3977,5.11
3989,12.52
4001,19.51
4013,26.05
4025,31.92
4037,36.33
4049,38.21
4061,36.85
4073,32.64
4085,27.05
4096,21.92
4107,18.42
4119,16.46
4131,14.87
4143,12.3
4155,8.08
4167,2.58
4179,-3.3
4191,-8.87
4203,-14.07
4215,-19.35
4227,-25.01
4239,-30.69
4251,-35.28
4263,-37.44
4275,-36.18
4286,-31.4
4297,-23.83
4309,-14.72
4321,-5.26
4333,3.79
4345,12.11
4357,19.74
4369,26.86
4381,33.73
4393,40.53
4405,47.47
4417,54.7
4429,62.29
4441,70.17
4453,78.02
4465,85.31
4476,91.33
4487,95.43
4499,97.13
4511,96.23
4523,92.83
4535,87.3
4547,80.11
4559,71.8
4571,62.87
4583,53.79
4595,44.94
4607,36.56
4619,28.81
4631,21.75
4643,15.48
4655,10.08
4666,5.63
4677,2.1
4689,-0.68
4701,-3.07
4713,-5.45
4725,-8.1
4737,-11.05
4749,-14.07
4761,-16.85
4773,-19.16
4785,-20.92
4797,-22.25
4809,-23.31
4821,-24.14
4833,-24.56
4845,-24.18
4856,-22.48
4867,-19.05
4879,-13.61
4891,-6.16
4903,3.1
4915,13.78
4927,25.37
4939,37.21
4951,48.54
4963,58.57
4975,66.65
4987,72.42
4999,75.84
5011,77.15
5023,76.69
5035,74.85
5046,71.88
5057,67.88
5069,62.89
5081,56.8
5093,49.56
5105,41.15
5117,31.77
5129,21.9
5141,12.34
5153,4.01
5165,-2.32
5177,-6.29
5189,-8.12
5201,-8.52
5213,-8.41
5225,-8.6
5236,-9.56
5247,-11.34
5259,-13.69
5271,-16.21
5283,-18.57
5295,-20.56
5307,-22.14
5319,-23.5
5331,-24.96
5343,-26.93
5355,-29.64
5367,-32.94
5379,-36.14
5391,-38.22
5403,-38.17
5415,-35.34
5426,-29.75
5437,-22.06
5449,-13.3
5461,-4.53
5473,3.41
5485,9.95
5497,14.76
5509,17.71
5521,18.81
5533,18.26
5545,16.4
5557,13.62
5569,10.23
5581,6.46
5593,2.46
5605,-1.58
5616,-5.42
5627,-8.83
5639,-11.71
5651,-14.09
5663,-16.09
5675,-17.76
5687,-18.92
5699,-19.21
5711,-18.3
5723,-16.09
5735,-12.83
5747,-9.08
5759,-5.42
5771,-2.19
5783,0.64
5795,3.45
5806,6.71
5817,10.77
5829,15.66
5841,21.07
5853,26.44
5865,31.17
5877,34.85
5889,37.42
5901,39.16
5913,40.56
5925,42.04
5937,43.72
5949,45.32
5961,46.34
5973,46.37
5985,45.26
5996,43.28
6007,40.82
6019,38.23
6031,35.58
6043,32.7
6055,29.37
6067,25.52
6079,21.3
6091,17.01
6103,12.94
6115,9.24
6127,5.87
6139,2.63
6151,-0.67
6163,-4.06
6175,-7.42
6186,-10.5
6197,-13.05
6209,-14.94
6221,-16.17
6233,-16.88
6245,-17.16
6257,-17.0
6269,-16.25
6281,-14.74
6293,-12.43
6305,-9.52
6317,-6.41
6329,-3.59
6341,-1.43
6353,-0.07
6365,0.58
6376,0.76
6387,0.71
6399,0.59
6411,0.47
6423,0.39
6435,0.39
6447,0.52
6459,0.78
6471,1.15
6483,1.52
6495,1.8
6507,1.89
6519,1.83
6531,1.71
6543,1.65
6555,1.72
6566,1.89
6577,2.01
6589,1.89
6601,1.3
6613,0.11
6625,-1.69
6637,-3.88
6649,-6.04
6661,-7.62
6673,-8.17
6685,-7.57
6697,-6.06
6709,-4.19
6721,-2.47
6733,-1.18
6745,-0.21
6756,0.81
6767,2.15
6779,3.84
6791,5.56
6803,6.9
6815,7.56
6827,7.58
6839,7.2
6851,6.68
6863,6.07
6875,5.16
6887,3.59
6899,1.08
6911,-2.4
6923,-6.63
6935,-11.18
6946,-15.6
6957,-19.53
6969,-22.77
6981,-25.3
6993,-27.19
7005,-28.56
7017,-29.53
7029,-30.2
7041,-30.62
7053,-30.8
7065,-30.74
7077,-30.37
7089,-29.56
7101,-28.21
7113,-26.24
7125,-23.78
7136,-21.06
7147,-18.46
7159,-16.34
7171,-14.93
7183,-14.23
7195,-14.0
7207,-13.83
7219,-13.27
7231,-12.03
7243,-10.07
7255,-7.68
7267,-5.32
7279,-3.44
7291,-2.31
7303,-1.88
7315,-1.88
7326,-1.96
7337,-1.88
7349,-1.63
7361,-1.32
7373,-1.12
7385,-1.14
7397,-1.35
7409,-1.65
7421,-1.96
7433,-2.2
7445,-2.39
7457,-2.56
7469,-2.76
7481,-3.02
7493,-3.37
7505,-3.82
7516,-4.36
7527,-4.95
7539,-5.61
7551,-6.35
7563,-7.17
7575,-7.99
7587,-8.66
7599,-8.96
7611,-8.71
7623,-7.85
7635,-6.51
7647,-4.96
7659,-3.47
7671,-2.22
7683,-1.27
7695,-0.53
7706,0.12
7717,0.76
7729,1.4
7741,2.02
7753,2.61
7765,3.19
7777,3.79
7789,4.39
7801,4.9
7813,5.16
7825,5.07
7837,4.6
7849,3.84
7861,3.01
7873,2.33
7885,1.94
7896,1.89
7907,2.1
7919,2.44
7931,2.83
7943,3.19
7955,3.48
7967,3.62
7979,3.56
7991,3.21
8003,2.54
8015,1.63
8027,0.66
8039,-0.16
8051,-0.61
8063,-0.6
8075,-0.21
8086,0.36
8097,0.83
8109,0.99
8121,0.75
8133,0.17
8145,-0.52
8157,-1.01
8169,-1.06
8181,-0.55
8193,0.45
8205,1.75
8217,3.11
8229,4.32
8241,5.23
8253,5.82
8265,6.14
8276,6.26
8287,6.23
8299,6.08
8311,5.78
8323,5.34
8335,4.79
8347,4.19
8359,3.66
8371,3.31
8383,3.19
8395,3.26
8407,3.36
8419,3.27
8431,2.73
8443,1.62
8455,-0.06
8466,-2.14
8477,-4.35
8489,-6.35
8501,-7.89
8513,-8.78
8525,-9.01
8537,-8.72
8549,-8.23
8561,-7.92
8573,-8.16
8585,-9.23
8597,-11.13
8609,-13.59
8621,-16.1
8633,-18.03
8645,-18.93
8656,-18.71
8667,-17.65
8679,-16.28
8691,-15.09
8703,-14.32
8715,-13.83
8727,-13.31
8739,-12.47
8751,-11.19
8763,-9.55
8775,-7.65
8787,-5.42
8799,-2.6
8811,1.0
8823,5.28
8835,9.63
8846,13.15
8857,15.07
8869,15.25
8881,14.2
8893,12.89
8905,12.13
8917,12.13
8929,12.47
8941,12.42
8953,11.56
8965,10.05
8977,8.65
8989,8.16
9001,8.98
9013,10.72
9025,12.48
9036,13.25
9047,12.47
9059,10.24
9071,7.17
9083,4.07
9095,1.49
9107,-0.45
9119,-2.02
9131,-3.61
9143,-5.45
9155,-7.5
9167,-9.43
9179,-10.77
9191,-11.12
9203,-10.31
9215,-8.42
9226,-5.79
9237,-2.84
9249,-0.05
9261,2.21
9273,3.69
9285,4.24
9297,3.89
9309,2.76
9321,1.08
9333,-0.86
9345,-2.71
9357,-4.23
9369,-5.24
9381,-5.71
9393,-5.67
9405,-5.24
9416,-4.5
9427,-3.54
9439,-2.45
9451,-1.32
9463,-0.21
9475,0.85
9487,1.86
9499,2.85
9511,3.88
9523,4.96
9535,6.06
9547,7.11
9559,8.07
9571,8.88
9583,9.57
9595,10.18
9606,10.76
9617,11.37
9629,12.04
9641,12.75
9653,13.42
9665,13.99
9677,14.38
9689,14.63
9701,14.88
9713,15.34
9725,16.2
9737,17.53
9749,19.17
9761,20.83
9773,22.12
9785,22.73
9796,22.59
9807,21.87
9819,20.91
9831,20.04
9843,19.44
9855,19.07
9867,18.72
9879,18.02
9891,16.5
9903,13.55
9915,8.47
9927,0.59
9939,-10.39
9951,-24.12
9963,-39.49
9975,-54.8
9986,-68.24
9997,-78.35
10009,-84.41
10021,-86.53
10033,-85.37
10045,-81.84
10057,-76.79
10069,-70.93
10081,-64.81
10093,-58.96
10105,-53.89
10117,-49.98
10129,-47.33
10141,-45.61
10153,-44.09
10165,-41.84
10176,-38.15
10187,-32.72
10199,-25.87
10211,-18.27
10223,-10.54
10235,-3.02
10247,4.39
10259,11.99
10271,19.97
10283,28.18
10295,36.06
10307,42.91
10319,48.19
10331,51.68
10343,53.55
10355,54.14
10366,53.78
10377,52.6
10389,50.5
10401,47.34
10413,43.01
10425,37.66
10437,31.73
10449,25.89
10461,20.78
10473,16.81
10485,13.95
10497,11.76
10509,9.62
10521,7.1
10533,4.11
10545,0.96
10556,-1.85
10567,-3.95
10579,-5.26
10591,-6.02
10603,-6.59
10615,-7.28
10627,-8.15
10639,-9.11
10651,-9.98
10663,-10.66
10675,-11.17
10687,-11.58
10699,-11.98
10711,-12.42
10723,-12.87
10735,-13.34
10746,-13.84
10757,-14.37
10769,-14.93
10781,-15.48
10793,-15.92
10805,-16.18
10817,-16.23
10829,-16.07
10841,-15.75
10853,-15.33
10865,-14.8
10877,-14.15
10889,-13.38
10901,-12.48
10913,-11.46
10925,-10.23
10936,-8.64
10947,-6.47
10959,-3.54
10971,0.17
10983,4.49
10995,9.14
11007,13.83
11019,18.34
11031,22.58
11043,26.42
11055,29.62
11067,31.84
11079,32.83
11091,32.61
11103,31.59
11115,30.51
11126,30.05
11137,30.52
11149,31.73
11161,33.04
11173,33.72
11185,33.26
11197,31.65
11209,29.2
11221,26.43
11233,23.69
11245,21.03
11257,18.25
11269,15.09
11281,11.44
11293,7.38
11305,3.26
11316,-0.55
11327,-3.79
11339,-6.35
11351,-8.3
11363,-9.72
11375,-10.68
11387,-11.18
11399,-11.24
11411,-10.91
11423,-10.32
11435,-9.64
11447,-9.04
11459,-8.6
11471,-8.33
11483,-8.18
11495,-8.11
11506,-8.11
11517,-8.12
11529,-8.03
11541,-7.72
11553,-7.11
11565,-6.19
11577,-5.14
11589,-4.23
11601,-3.63
11613,-3.44
11625,-3.53
11637,-3.71
11649,-3.83
11661,-3.89
11673,-4.05
11685,-4.47
11696,-5.16
11707,-5.92
11719,-6.42
11731,-6.36
11743,-5.61
11755,-4.3
11767,-2.73
11779,-1.24
11791,-0.07
11803,0.71
11815,1.21
11827,1.64
11839,2.2
11851,2.94
11863,3.81
11875,4.62
11886,5.22
11897,5.56
11909,5.73
11921,5.92
11933,6.36
11945,7.13
11957,8.15
11969,9.18
11981,9.9
11993,10.01
12005,9.36
12017,7.94
12029,5.91
12041,3.5
12053,1.01
12065,-1.29
12076,-3.23
12087,-4.74
12099,-5.83
12111,-6.55
12123,-6.92
12135,-6.94
12147,-6.65
12159,-6.13
12171,-5.58
12183,-5.19
12195,-5.04
12207,-5.04
12219,-4.98
12231,-4.64
12243,-4.05
12255,-3.49
12266,-3.44
12277,-4.26
12289,-5.98
12301,-8.23
12313,-10.41
12325,-11.97
12337,-12.68
12349,-12.66
12361,-12.24
12373,-11.7
12385,-11.15
12397,-10.52
12409,-9.74
12421,-8.85
12433,-8.05
12445,-7.54
12456,-7.43
12467,-7.63
12479,-7.93
12491,-8.12
12503,-8.07
12515,-7.77
12527,-7.27
12539,-6.66
12551,-6.11
12563,-5.9
12575,-6.35
12587,-7.72
12599,-10.02
12611,-12.86
12623,-15.55
12635,-17.34
12646,-17.78
12657,-16.95
12669,-15.33
12681,-13.59
12693,-12.21
12705,-11.32
12717,-10.75
12729,-10.25
12741,-9.67
12753,-9.08
12765,-8.62
12777,-8.33
12789,-8.14
12801,-7.84
12813,-7.32
12825,-6.61
12836,-5.94
12847,-5.56
12859,-5.62
12871,-6.06
12883,-6.63
12895,-7.02
12907,-6.95
12919,-6.27
12931,-4.91
12943,-2.95
12955,-0.53
12967,2.16
12979,4.91
12991,7.49
13003,9.7
13015,11.38
13026,12.46
13037,12.94
13049,12.94
13061,12.65
13073,12.33
13085,12.26
13097,12.64
13109,13.58
13121,15.02
13133,16.72
13145,18.4
13157,19.75
13169,20.55
13181,20.7
13193,20.18
13205,19.11
13216,17.6
13227,15.8
13239,13.8
13251,11.69
13263,9.61
13275,7.7
13287,6.14
13299,4.98
13311,4.16
13323,3.44
13335,2.52
13347,1.22
13359,-0.39
13371,-1.95
13383,-2.94
13395,-2.92
13406,-1.75
13417,0.22
13429,2.32
13441,3.77
13453,3.93
13465,2.56
13477,-0.2
13489,-3.9
13501,-7.92
13513,-11.65
13525,-14.55
13537,-16.31
13549,-16.81
13561,-16.26
13573,-15.05
13585,-13.65
13596,-12.27
13607,-10.78
13619,-8.59
13631,-5.11
13643,-0.05
13655,6.26
13667,12.8
13679,18.25
13691,21.45
13703,21.83
13715,19.55
13727,15.24
13739,9.74
13751,3.83
13763,-1.78
13775,-6.4
13786,-9.35
13797,-10.12
13809,-8.68
13821,-5.62
13833,-2.12
13845,0.42
13857,0.86
13869,-1.28
13881,-5.76
13893,-11.76
13905,-18.26
13917,-24.32
13929,-29.32
13941,-32.89
13953,-34.94
13965,-35.54
13976,-34.86
13987,-33.16
13999,-30.59
14011,-27.22
14023,-23.04
14035,-18.06
14047,-12.46
14059,-6.59
14071,-0.9
14083,4.15
14095,8.21
14107,11.07
14119,12.65
14131,12.91
14143,11.96
14155,10.13
14166,7.97
14177,6.16
14189,5.23
14201,5.39
14213,6.37
14225,7.58
14237,8.42
14249,8.57
14261,8.15
14273,7.63
14285,7.61
14297,8.53
14309,10.5
14321,13.3
14333,16.49
14345,19.62
14356,22.39
14367,24.73
14379,26.72
14391,28.53
14403,30.26
14415,31.86
14427,33.17
14439,34.05
14451,34.44
14463,34.35
14475,33.75
14487,32.47
14499,30.3
14511,27.05
14523,22.8
14535,17.95
14546,13.15
14557,9.02
14569,5.95
14581,4.01
14593,2.97
14605,2.45
14617,2.13
14629,1.65
14641,0.64
14653,-1.42
14665,-5.01
14677,-10.51
14689,-17.91
14701,-26.82
14713,-36.58
14725,-46.44
14736,-55.73
14747,-63.99
14759,-70.98
14771,-76.57
14783,-80.71
14795,-83.38
14807,-84.46
14819,-83.87
14831,-81.56
14843,-77.55
14855,-72.01
14867,-65.23
14879,-57.5
14891,-49.01
14903,-39.84
14915,-29.91
14926,-19.29
14937,-8.25
14949,2.57
14961,12.44
14973,20.75
14985,27.22
14997,32.0
15009,35.46
15021,38.04
15033,40.01
15045,41.53
15057,42.6
15069,43.22
15081,43.36
15093,42.87
15105,41.57
15116,39.34
15127,36.33
15139,33.07
15151,30.49
15163,29.61
15175,31.05
15187,34.68
15199,39.56
15211,44.21
15223,47.2
15235,47.75
15247,45.91
15259,42.53
15271,38.78
15283,35.66
15295,33.58
15306,32.23
15317,30.7
15329,27.75
15341,22.12
15353,12.98
15365,0.16
15377,-15.7
15389,-33.17
15401,-50.3
15413,-65.04
15425,-75.67
15437,-81.19
15449,-81.48
15461,-77.27
15473,-69.99
15485,-61.51
15496,-53.7
15507,-48.05
15519,-45.32
15531,-45.41
15543,-47.47
15555,-50.22
15567,-52.36
15579,-52.84
15591,-51.2
15603,-47.46
15615,-42.13
15627,-36.02
15639,-30.02
15651,-24.8
15663,-20.52
15675,-16.57
15686,-11.69
15697,-4.42
15709,6.11
15721,19.49
15733,33.91
15745,46.82
15757,55.99
15769,60.34
15781,60.32
15793,57.35
15805,52.8
15817,47.2
15829,40.02
15841,30.28
15853,17.41
15865,2.01
15876,-14.16
15887,-28.69
15899,-39.45
15911,-45.37
15923,-46.7
15935,-44.76
15947,-41.22
15959,-37.22
15971,-32.98
15983,-27.6
15995,-19.83
16007,-8.99
16019,4.32
16031,18.07
16043,29.66
16055,37.01
16066,39.62
16077,38.75
16089,36.69
16101,35.59
16113,36.31
16125,38.31
16137,40.23
16149,40.9
16161,40.21
16173,39.07
16185,38.85
16197,40.46
16209,43.8
16221,47.85
16233,51.27
16245,53.12
16256,53.29
16267,52.43
16279,51.38
16291,50.66
16303,50.2
16315,49.43
16327,47.68
16339,44.5
16351,39.84
16363,33.9
16375,26.93
16387,19.16
16399,10.82
16411,2.29
16423,-5.87
16435,-13.0
16446,-18.58
16457,-22.46
16469,-24.87
16481,-26.39
16493,-27.6
16505,-28.84
16517,-30.21
16529,-31.54
16541,-32.61
16553,-33.34
16565,-33.76
16577,-34.04
16589,-34.28
16601,-34.42
16613,-34.21
16625,-33.4
16636,-31.84
16647,-29.71
16659,-27.44
16671,-25.48
16683,-24.15
16695,-23.38
16707,-22.82
16719,-22.0
16731,-20.66
16743,-18.75
16755,-16.5
16767,-14.14
16779,-11.73
16791,-9.19
16803,-6.34
16815,-3.14
16826,0.27
16837,3.52
16849,6.2
16861,7.89
16873,8.25
16885,7.1
16897,4.42
16909,0.41
16921,-4.5
16933,-9.61
16945,-14.19
16957,-17.62
16969,-19.66
16981,-20.51
16993,-20.71
17005,-20.79
17016,-21.04
17027,-21.34
17039,-21.27
17051,-20.42
17063,-18.66
17075,-16.29
17087,-13.9
17099,-12.07
17111,-11.16
17123,-11.09
17135,-11.51
17147,-11.95
17159,-12.05
17171,-11.63
17183,-10.66
17195,-9.12
17206,-6.94
17217,-4.07
17229,-0.58
17241,3.29
17253,7.11
17265,10.38
17277,12.73
17289,14.08
17301,14.63
17313,14.74
17325,14.71
17337,14.72
17349,14.77
17361,14.85
17373,14.99
17385,15.34
17396,16.06
17407,17.25
17419,18.83
17431,20.58
17443,22.2
17455,23.45
17467,24.23
17479,24.55
17491,24.53
17503,24.26
17515,23.81
17527,23.2
17539,22.4
17551,21.43
17563,20.31
17575,19.06
17586,17.66
17597,16.09
17609,14.31
17621,12.33
17633,10.27
17645,8.3
17657,6.63
17669,5.23
17681,3.89
17693,2.17
17705,-0.34
17717,-3.85
17729,-8.24
17741,-13.1
17753,-17.9
17765,-22.15
17776,-25.57
17787,-28.07
17799,-29.63
17811,-30.29
17823,-30.06
17835,-28.95
17847,-27.05
17859,-24.54
17871,-21.65
17883,-18.65
17895,-15.82
17907,-13.33
17919,-11.34
17931,-9.85
17943,-8.81
17955,-8.06
17966,-7.4
17977,-6.62
17989,-5.59
18001,-4.26
18013,-2.74
18025,-1.23
18037,0.05
18049,0.93
18061,1.38
18073,1.51
18085,1.52
18097,1.64
18109,2.05
18121,2.8
18133,3.83
18145,4.98
18156,6.03
18167,6.78
18179,7.11
18191,7.0
18203,6.57
18215,6.01
18227,5.53
18239,5.27
18251,5.26
18263,5.42
18275,5.63
18287,5.73
18299,5.65
18311,5.34
18323,4.85
18335,4.24
18346,3.62
18357,3.07
18369,2.6
18381,2.15
18393,1.66
18405,1.09
18417,0.45
18429,-0.13
18441,-0.53
18453,-0.61
18465,-0.33
18477,0.28
18489,1.15
18501,2.2
18513,3.35
18525,4.55
18536,5.73
18547,6.8
18559,7.61
18571,8.06
18583,8.1
18595,7.82
18607,7.38
18619,6.99
18631,6.81
18643,6.82
18655,6.92
18667,7.01
18679,7.01
18691,6.97
18703,7.02
18715,7.22
18726,7.52
18737,7.83
18749,7.99
18761,7.94
18773,7.71
18785,7.4
18797,7.11
18809,6.83
18821,6.49
18833,6.0
18845,5.35
18857,4.61
18869,3.95
18881,3.5
18893,3.32
18905,3.28
18916,3.22
18927,2.96
18939,2.41
18951,1.65
18963,0.82
18975,0.1
18987,-0.38
18999,-0.65
19011,-0.8
19023,-0.93
19035,-1.13
19047,-1.43
19059,-1.78
19071,-2.16
19083,-2.55
19095,-2.9
19106,-3.15
19117,-3.16
19129,-2.79
19141,-1.94
19153,-0.66
19165,0.87
19177,2.35
19189,3.5
19201,4.17
19213,4.36
19225,4.23
19237,3.94
19249,3.59
19261,3.16
19273,2.66
19285,2.08
19296,1.52
19307,1.1
19319,0.92
19331,0.97
19343,1.18
19355,1.44
19367,1.65
19379,1.79
19391,1.85
19403,1.84
19415,1.78
19427,1.65
19439,1.48
19451,1.31
19463,1.18
19475,1.13
19486,1.12
19497,1.11
19509,1.06
19521,0.94
19533,0.72
19545,0.39
19557,-0.09
19569,-0.69
19581,-1.35
19593,-1.95
19605,-2.39
19617,-2.63
19629,-2.73
19641,-2.79
19653,-2.9
19665,-3.09
19676,-3.33
19687,-3.56
19699,-3.74
19711,-3.85
19723,-3.89
19735,-3.8
19747,-3.51
19759,-2.94
19771,-2.08
19783,-1.03
19795,0.04
19807,0.98
19819,1.69
19831,2.17
19843,2.47
19855,2.65
19866,2.73
19877,2.69
19889,2.51
19901,2.21
19913,1.86
19925,1.58
19937,1.46
19949,1.53
19961,1.7
19973,1.87
19985,1.91
19997,1.81
20009,1.6
20021,1.41
20033,1.35
20045,1.44
20056,1.69
20067,2.01
20079,2.34
20091,2.59
20103,2.74
20115,2.76
20127,2.6
20139,2.27
20151,1.74
20163,1.09
20175,0.38
20187,-0.28
20199,-0.8
20211,-1.12
20223,-1.25
20235,-1.29
20246,-1.35
20257,-1.57
20269,-2.0
20281,-2.63
20293,-3.34
20305,-3.98
20317,-4.39
20329,-4.46
20341,-4.14
20353,-3.52
20365,-2.76
20377,-2.1
20389,-1.74
20401,-1.79
20413,-2.18
20425,-2.72
20436,-3.12
20447,-3.16
20459,-2.79
20471,-2.2
20483,-1.73
20495,-1.79
20507,-2.71
20519,-4.66
20531,-7.62
20543,-11.39
20555,-15.57
20567,-19.71
20579,-23.33
20591,-26.12
20603,-27.93
20615,-28.74
20626,-28.48
20637,-26.85
20649,-23.29
20661,-17.2
20673,-8.21
20685,3.43
20697,16.89
20709,30.9
20721,44.08
20733,55.26
20745,63.64
20757,68.69
20769,70.11
20781,67.85
20793,62.18
20805,53.82
20816,43.83
20827,33.39
20839,23.56
20851,15.03
20863,8.07
20875,2.58
20887,-1.67
20899,-4.95
20911,-7.4
20923,-9.03
20935,-9.78
20947,-9.58
20959,-8.46
20971,-6.57
20983,-4.17
20995,-1.56
