seconds,BVP
5,-37.56
17,-30.98
29,-22.81
41,-13.78
52,-4.63
63,3.97
75,11.56
87,17.84
99,22.65
111,25.91
123,27.63
135,27.91
147,26.99
159,25.23
171,23.13
183,21.19
195,19.84
207,19.25
219,19.38
231,19.97
242,20.7
253,21.27
265,21.54
277,21.49
289,21.15
301,20.52
313,19.54
325,18.08
337,16.01
349,13.32
361,10.07
373,6.41
385,2.53
397,-1.42
409,-5.29
421,-8.97
432,-12.44
443,-15.78
455,-19.2
467,-22.96
479,-27.22
491,-31.9
503,-36.58
515,-40.54
527,-42.96
539,-43.13
551,-40.69
563,-35.67
575,-28.48
587,-19.74
599,-10.2
611,-0.62
622,8.3
633,15.96
645,21.93
657,26.02
669,28.29
681,28.99
693,28.48
705,27.15
717,25.37
729,23.51
741,21.9
753,20.81
765,20.33
777,20.38
789,20.73
801,21.09
812,21.26
823,21.18
835,20.94
847,20.58
859,20.08
871,19.28
883,17.94
895,15.89
907,13.08
919,9.63
931,5.77
943,1.71
955,-2.31
967,-6.2
979,-9.85
991,-13.26
1002,-16.51
1013,-19.8
1025,-23.42
1037,-27.62
1049,-32.41
1061,-37.46
1073,-42.07
1085,-45.34
1097,-46.37
1109,-44.62
1121,-39.98
1133,-32.88
1145,-24.05
1157,-14.41
1169,-4.83
1181,3.98
1192,11.54
1203,17.49
1215,21.7
1227,24.13
1239,24.86
1251,24.14
1263,22.36
1275,20.01
1287,17.63
1299,15.65
1311,14.29
1323,13.57
1335,13.4
1347,13.58
1359,13.97
1371,14.49
1382,15.01
1393,15.39
1405,15.42
1417,14.92
1429,13.78
1441,12.04
1453,9.78
1465,7.11
1477,4.13
1489,0.91
1501,-2.48
1513,-5.96
1525,-9.49
1537,-13.15
1549,-17.14
1561,-21.68
1572,-26.83
1583,-32.36
1595,-37.71
1607,-42.1
1619,-44.75
1631,-45.08
1643,-42.84
1655,-38.13
1667,-31.3
1679,-22.9
1691,-13.56
1703,-4.01
1715,5.04
1727,12.89
1739,19.04
1751,23.19
1762,25.27
1773,25.48
1785,24.18
1797,21.85
1809,19.08
1821,16.39
1833,14.22
1845,12.83
1857,12.24
1869,12.3
1881,12.74
1893,13.29
1905,13.73
1917,13.94
1929,13.88
1941,13.47
1952,12.65
1963,11.3
1975,9.33
1987,6.73
1999,3.54
2011,-0.09
2023,-3.99
2035,-8.01
2047,-12.07
2059,-16.18
2071,-20.48
2083,-25.09
2095,-30.05
2107,-35.21
2119,-40.12
2131,-44.09
2142,-46.3
2153,-46.01
2165,-42.73
2177,-36.4
2189,-27.4
2201,-16.53
2213,-4.84
2225,6.56
2237,16.7
2249,24.94
2261,31.03
2273,35.06
2285,37.28
2297,37.99
2309,37.43
2321,35.83
2332,33.5
2343,30.85
2355,28.32
2367,26.28
2379,24.93
2391,24.22
2403,23.93
2415,23.78
2427,23.51
2439,22.93
2451,21.9
2463,20.28
2475,18.0
2487,15.02
2499,11.41
2511,7.35
2522,3.08
2533,-1.18
2545,-5.3
2557,-9.31
2569,-13.39
2581,-17.8
2593,-22.83
2605,-28.6
2617,-34.91
2629,-41.21
2641,-46.6
2653,-50.02
2665,-50.5
2677,-47.47
2689,-40.94
2701,-31.49
2712,-20.15
2723,-8.14
2735,3.47
2747,13.82
2759,22.41
2771,28.97
2783,33.46
2795,35.98
2807,36.78
2819,36.26
2831,34.89
2843,33.17
2855,31.52
2867,30.17
2879,29.17
2891,28.42
2902,27.77
2913,27.06
2925,26.17
2937,25.07
2949,23.76
2961,22.26
2973,20.53
2985,18.48
2997,15.98
3009,12.92
3021,9.26
3033,5.09
3045,0.63
3057,-3.92
3069,-8.39
3081,-12.76
3092,-17.18
3103,-21.9
3115,-27.13
3127,-32.97
3139,-39.23
3151,-45.5
3163,-51.09
3175,-55.12
3187,-56.67
3199,-54.97
3211,-49.67
3223,-40.96
3235,-29.61
3247,-16.85
3259,-4.02
3271,7.76
3282,17.76
3293,25.69
3305,31.55
3317,35.49
3329,37.63
3341,38.17
3353,37.37
3365,35.71
3377,33.78
3389,32.15
3401,31.15
3413,30.83
3425,30.98
3437,31.28
3449,31.44
3461,31.29
3472,30.79
3483,29.96
3495,28.76
3507,27.15
3519,25.03
3531,22.34
3543,19.07
3555,15.29
3567,11.17
3579,6.89
3591,2.61
3603,-1.61
3615,-5.79
3627,-10.03
3639,-14.43
3651,-19.06
3662,-23.98
3673,-29.21
3685,-34.76
3697,-40.59
3709,-46.49
3721,-52.05
3733,-56.67
3745,-59.57
3757,-59.99
3769,-57.34
3781,-51.38
3793,-42.33
3805,-30.88
3817,-18.11
3829,-5.24
3841,6.59
3852,16.59
3863,24.38
3875,29.99
3887,33.66
3899,35.75
3911,36.55
3923,36.35
3935,35.44
3947,34.18
3959,32.93
3971,32.02
3983,31.63
3995,31.73
4007,32.13
4019,32.58
4031,32.84
4042,32.83
4053,32.55
4065,32.06
4077,31.34
4089,30.25
4101,28.61
4113,26.24
4125,23.16
4137,19.56
4149,15.73
4161,11.93
4173,8.29
4185,4.8
4197,1.42
4209,-1.92
4221,-5.21
4232,-8.45
4243,-11.64
4255,-14.8
4267,-17.94
4279,-21.06
4291,-24.14
4303,-27.22
4315,-30.52
4327,-34.29
4339,-38.76
4351,-43.87
4363,-49.16
4375,-53.79
4387,-56.78
4399,-57.21
4411,-54.55
4422,-48.75
4433,-40.24
4445,-29.82
4457,-18.46
4469,-7.15
4481,3.33
4493,12.38
4505,19.66
4517,25.06
4529,28.62
4541,30.53
4553,31.1
4565,30.76
4577,30.0
4589,29.31
4601,29.08
4612,29.51
4623,30.53
4635,31.85
4647,33.11
4659,33.97
4671,34.27
4683,34.03
4695,33.37
4707,32.41
4719,31.12
4731,29.41
4743,27.17
4755,24.42
4767,21.35
4779,18.26
4791,15.37
4802,12.77
4813,10.32
4825,7.83
4837,5.11
4849,2.1
4861,-1.13
4873,-4.49
4885,-7.88
4897,-11.25
4909,-14.53
4921,-17.63
4933,-20.46
4945,-23.04
4957,-25.51
4969,-28.17
4981,-31.36
4992,-35.27
5003,-39.81
5015,-44.55
5027,-48.76
5039,-51.58
5051,-52.26
5063,-50.36
5075,-45.8
5087,-38.92
5099,-30.35
5111,-20.87
5123,-11.25
5135,-2.15
5147,5.95
5159,12.69
5171,17.87
5182,21.39
5193,23.3
5205,23.82
5217,23.29
5229,22.21
5241,21.05
5253,20.22
5265,19.9
5277,20.11
5289,20.72
5301,21.52
5313,22.37
5325,23.17
5337,23.84
5349,24.34
5361,24.6
5372,24.55
5383,24.06
5395,23.08
5407,21.52
5419,19.43
5431,16.92
5443,14.18
5455,11.42
5467,8.8
5479,6.31
5491,3.81
5503,1.12
5515,-1.85
5527,-5.03
5539,-8.19
5551,-11.09
5562,-13.6
5573,-15.79
5585,-17.85
5597,-19.99
5609,-22.39
5621,-25.14
5633,-28.29
5645,-31.84
5657,-35.72
5669,-39.63
5681,-43.05
5693,-45.26
5705,-45.52
5717,-43.37
5729,-38.78
5741,-32.15
5752,-24.19
5763,-15.71
5775,-7.4
5787,0.22
5799,6.82
5811,12.17
5823,16.16
5835,18.73
5847,19.94
5859,19.97
5871,19.1
5883,17.68
5895,16.12
5907,14.77
5919,13.89
5931,13.61
5942,13.87
5953,14.55
5965,15.44
5977,16.37
5989,17.2
6001,17.82
6013,18.15
6025,18.12
6037,17.61
6049,16.59
6061,15.05
6073,13.12
6085,10.95
6097,8.69
6109,6.38
6121,3.98
6132,1.4
6143,-1.39
6155,-4.29
6167,-7.09
6179,-9.58
6191,-11.65
6203,-13.43
6215,-15.17
6227,-17.21
6239,-19.83
6251,-23.11
6263,-26.93
6275,-30.95
6287,-34.74
6299,-37.73
6311,-39.34
6322,-39.08
6333,-36.63
6345,-32.04
6357,-25.67
6369,-18.18
6381,-10.33
6393,-2.8
6405,3.88
6417,9.44
6429,13.71
6441,16.66
6453,18.3
6465,18.67
6477,17.88
6489,16.14
6501,13.81
6512,11.37
6523,9.33
6535,8.11
6547,7.89
6559,8.59
6571,9.9
6583,11.39
6595,12.71
6607,13.65
6619,14.14
6631,14.2
6643,13.83
6655,13.0
6667,11.72
6679,10.04
6691,8.09
6702,5.98
6713,3.77
6725,1.45
6737,-0.99
6749,-3.52
6761,-6.01
6773,-8.31
6785,-10.33
6797,-12.16
6809,-14.04
6821,-16.31
6833,-19.22
6845,-22.83
6857,-26.9
6869,-30.97
6881,-34.41
6892,-36.56
6903,-36.88
6915,-35.04
6927,-31.06
6939,-25.29
6951,-18.36
6963,-11.0
6975,-3.89
6987,2.45
6999,7.67
7011,11.62
7023,14.21
7035,15.42
7047,15.32
7059,14.11
7071,12.12
7082,9.77
7093,7.5
7105,5.63
7117,4.33
7129,3.65
7141,3.5
7153,3.79
7165,4.43
7177,5.31
7189,6.31
7201,7.29
7213,8.07
7225,8.44
7237,8.21
7249,7.25
7261,5.56
7272,3.24
7283,0.49
7295,-2.45
7307,-5.34
7319,-8.1
7331,-10.73
7343,-13.36
7355,-16.16
7367,-19.27
7379,-22.69
7391,-26.36
7403,-30.04
7415,-33.34
7427,-35.82
7439,-36.94
7451,-36.29
7462,-33.6
7473,-28.95
7485,-22.65
7497,-15.26
7509,-7.4
7521,0.3
7533,7.32
7545,13.24
7557,17.69
7569,20.43
7581,21.39
7593,20.71
7605,18.79
7617,16.23
7629,13.65
7641,11.54
7652,10.16
7663,9.5
7675,9.36
7687,9.54
7699,9.85
7711,10.22
7723,10.6
7735,10.89
7747,10.97
7759,10.69
7771,9.94
7783,8.71
7795,7.02
7807,4.96
7819,2.59
7831,-0.07
7842,-2.94
7853,-5.93
7865,-8.97
7877,-12.07
7889,-15.38
7901,-19.13
7913,-23.45
7925,-28.2
7937,-32.85
7949,-36.61
7961,-38.59
7973,-38.14
7985,-35.03
7997,-29.49
8009,-22.11
8021,-13.63
8032,-4.81
8043,3.7
8055,11.35
8067,17.71
8079,22.5
8091,25.59
8103,27.07
8115,27.19
8127,26.31
8139,24.86
8151,23.22
8163,21.72
8175,20.57
8187,19.87
8199,19.54
8211,19.41
8222,19.25
8233,18.88
8245,18.25
8257,17.39
8269,16.4
8281,15.32
8293,14.11
8305,12.61
8317,10.65
8329,8.15
8341,5.12
8353,1.73
8365,-1.83
8377,-5.37
8389,-8.81
8401,-12.23
8412,-15.8
8423,-19.76
8435,-24.27
8447,-29.29
8459,-34.49
8471,-39.28
8483,-42.88
8495,-44.55
8507,-43.77
8519,-40.37
8531,-34.57
8543,-26.91
8555,-18.12
8567,-8.99
8579,-0.26
8591,7.49
8602,13.92
8613,18.88
8625,22.39
8637,24.57
8649,25.59
8661,25.67
8673,25.09
8685,24.18
8697,23.27
8709,22.6
8721,22.23
8733,22.05
8745,21.84
8757,21.41
8769,20.72
8781,19.84
8792,18.92
8803,18.05
8815,17.21
8827,16.24
8839,14.93
8851,13.11
8863,10.73
8875,7.82
8887,4.54
8899,1.0
8911,-2.66
8923,-6.36
8935,-10.08
8947,-13.85
8959,-17.73
8971,-21.87
8982,-26.39
8993,-31.33
9005,-36.56
9017,-41.67
9029,-46.05
9041,-48.92
9053,-49.52
9065,-47.35
9077,-42.28
9089,-34.64
9101,-25.16
9113,-14.84
9125,-4.66
9137,4.56
9149,12.37
9161,18.61
9172,23.4
9183,26.88
9195,29.18
9207,30.4
9219,30.61
9231,30.0
9243,28.9
9255,27.7
9267,26.76
9279,26.3
9291,26.3
9303,26.61
9315,26.99
9327,27.25
9339,27.28
9351,26.99
9362,26.3
9373,25.13
9385,23.39
9397,21.1
9409,18.38
9421,15.43
9433,12.43
9445,9.47
9457,6.51
9469,3.44
9481,0.18
9493,-3.23
9505,-6.74
9517,-10.23
9529,-13.65
9541,-17.01
9552,-20.44
9563,-24.06
9575,-28.06
9587,-32.51
9599,-37.31
9611,-42.1
9623,-46.24
9635,-48.94
9647,-49.46
9659,-47.34
9671,-42.54
9683,-35.42
9695,-26.69
9707,-17.13
9719,-7.51
9731,1.56
9742,9.61
9753,16.32
9765,21.5
9777,25.13
9789,27.32
9801,28.32
9813,28.49
9825,28.22
9837,27.82
9849,27.53
9861,27.41
9873,27.46
9885,27.61
9897,27.83
9909,28.1
9921,28.42
9932,28.72
9943,28.89
9955,28.81
9967,28.34
9979,27.41
9991,25.97
10003,24.05
10015,21.74
10027,19.13
10039,16.42
10051,13.72
10063,11.11
10075,8.58
10087,6.0
10099,3.25
10111,0.24
10122,-2.98
10133,-6.33
10145,-9.69
10157,-12.96
10169,-16.04
10181,-18.86
10193,-21.42
10205,-23.83
10217,-26.38
10229,-29.46
10241,-33.38
10253,-38.14
10265,-43.29
10277,-47.91
10289,-50.9
10301,-51.3
10312,-48.62
10323,-42.99
10335,-35.03
10347,-25.64
10359,-15.75
10371,-6.15
10383,2.58
10395,10.04
10407,16.02
10419,20.41
10431,23.23
10443,24.64
10455,24.86
10467,24.26
10479,23.22
10491,22.16
10502,21.41
10513,21.14
10525,21.38
10537,21.96
10549,22.7
10561,23.42
10573,24.06
10585,24.62
10597,25.11
10609,25.47
10621,25.52
10633,25.06
10645,23.91
10657,22.09
10669,19.72
10681,17.03
10692,14.27
10703,11.6
10715,9.1
10727,6.76
10739,4.49
10751,2.16
10763,-0.37
10775,-3.15
10787,-6.16
10799,-9.25
10811,-12.23
10823,-14.97
10835,-17.52
10847,-20.08
10859,-22.99
10871,-26.5
10882,-30.66
10893,-35.16
10905,-39.45
10917,-42.8
10929,-44.6
10941,-44.37
10953,-41.94
10965,-37.4
10977,-31.1
10989,-23.56
11001,-15.48
11013,-7.52
11025,-0.27
11037,5.88
11049,10.77
11061,14.41
11072,16.9
11083,18.4
11095,19.06
11107,19.05
11119,18.61
11131,17.99
11143,17.42
11155,17.04
11167,16.9
11179,16.98
11191,17.29
11203,17.81
11215,18.53
11227,19.35
11239,20.04
11251,20.36
11262,20.11
11273,19.25
11285,17.91
11297,16.33
11309,14.7
11321,13.09
11333,11.4
11345,9.47
11357,7.18
11369,4.52
11381,1.65
11393,-1.23
11405,-3.98
11417,-6.53
11429,-8.97
11441,-11.43
11452,-14.07
11463,-17.01
11475,-20.28
11487,-23.82
11499,-27.44
11511,-30.81
11523,-33.53
11535,-35.16
11547,-35.29
11559,-33.63
11571,-30.13
11583,-24.96
11595,-18.56
11607,-11.52
11619,-4.52
11631,1.86
11642,7.17
11653,11.23
11665,14.02
11677,15.69
11689,16.42
11701,16.43
11713,15.9
11725,15.02
11737,13.97
11749,12.92
11761,12.03
11773,11.42
11785,11.15
11797,11.22
11809,11.6
11821,12.2
11832,12.9
11843,13.6
11855,14.19
11867,14.58
11879,14.66
11891,14.3
11903,13.38
11915,11.83
11927,9.68
11939,7.08
11951,4.22
11963,1.34
11975,-1.41
11987,-3.98
11999,-6.39
12011,-8.73
12022,-11.07
12033,-13.54
12045,-16.26
12057,-19.34
12069,-22.87
12081,-26.75
12093,-30.66
12105,-34.02
12117,-36.1
12129,-36.25
12141,-34.08
12153,-29.67
12165,-23.51
12177,-16.37
12189,-9.07
12201,-2.25
12212,3.7
12223,8.63
12235,12.52
12247,15.4
12259,17.29
12271,18.23
12283,18.29
12295,17.64
12307,16.56
12319,15.31
12331,14.15
12343,13.26
12355,12.71
12367,12.5
12379,12.6
12391,12.95
12402,13.46
12413,14.07
12425,14.64
12437,15.09
12449,15.29
12461,15.14
12473,14.57
12485,13.54
12497,12.1
12509,10.37
12521,8.53
12533,6.8
12545,5.35
12557,4.24
12569,3.36
12581,2.41
12592,1.02
12603,-1.23
12615,-4.53
12627,-8.79
12639,-13.47
12651,-17.72
12663,-20.47
12675,-20.85
12687,-18.43
12699,-13.4
12711,-6.42
12723,1.59
12735,9.78
12747,17.53
12759,24.46
12771,30.28
12782,34.74
12793,37.61
12805,38.76
12817,38.29
12829,36.52
12841,33.86
12853,30.7
12865,27.29
12877,23.71
12889,19.92
12901,15.88
12913,11.63
12925,7.33
12937,3.21
12949,-0.49
12961,-3.6
12972,-6.11
12983,-8.23
12995,-10.31
13007,-12.69
13019,-15.63
13031,-19.11
13043,-22.9
13055,-26.63
13067,-30.03
13079,-32.93
13091,-35.42
13103,-37.68
13115,-39.92
13127,-42.25
13139,-44.7
13151,-47.14
13162,-49.34
13173,-50.98
13185,-51.65
13197,-50.91
13209,-48.37
13221,-43.86
13233,-37.51
13245,-29.79
13257,-21.39
13269,-13.03
13281,-5.32
13293,1.35
13305,6.84
13317,11.09
13329,14.11
13341,15.87
13352,16.37
13363,15.72
13375,14.23
13387,12.37
13399,10.66
13411,9.47
13423,8.93
13435,8.87
13447,8.95
13459,8.85
13471,8.41
13483,7.7
13495,6.86
13507,6.01
13519,5.15
13531,4.11
13542,2.73
13553,0.9
13565,-1.33
13577,-3.81
13589,-6.46
13601,-9.26
13613,-12.36
13625,-15.94
13637,-20.05
13649,-24.54
13661,-29.0
13673,-32.84
13685,-35.45
13697,-36.28
13709,-35.03
13721,-31.66
13732,-26.44
13743,-19.91
13755,-12.74
13767,-5.65
13779,0.78
13791,6.15
13803,10.28
13815,13.16
13827,14.89
13839,15.63
13851,15.51
13863,14.74
13875,13.53
13887,12.1
13899,10.67
13911,9.39
13922,8.37
13933,7.64
13945,7.18
13957,6.93
13969,6.81
13981,6.73
13993,6.59
14005,6.29
14017,5.73
14029,4.75
14041,3.28
14053,1.26
14065,-1.25
14077,-4.1
14089,-7.16
14101,-10.37
14112,-13.85
14123,-17.76
14135,-22.24
14147,-27.12
14159,-31.88
14171,-35.71
14183,-37.71
14195,-37.29
14207,-34.28
14219,-29.07
14231,-22.32
14243,-14.86
14255,-7.4
14267,-0.45
14279,5.63
14291,10.61
14302,14.34
14313,16.72
14325,17.79
14337,17.71
14349,16.8
14361,15.42
14373,13.96
14385,12.73
14397,11.91
14409,11.54
14421,11.54
14433,11.76
14445,12.03
14457,12.19
14469,12.1
14481,11.66
14492,10.77
14503,9.37
14515,7.49
14527,5.27
14539,2.93
14551,0.62
14563,-1.61
14575,-3.94
14587,-6.64
14599,-10.01
14611,-14.16
14623,-19.0
14635,-24.15
14647,-29.04
14659,-32.99
14671,-35.29
14682,-35.37
14693,-32.95
14705,-28.08
14717,-21.24
14729,-13.21
14741,-4.89
14753,2.9
14765,9.55
14777,14.8
14789,18.58
14801,21.02
14813,22.31
14825,22.68
14837,22.36
14849,21.55
14861,20.41
14872,19.03
14883,17.48
14895,15.83
14907,14.23
14919,12.81
14931,11.68
14943,10.86
14955,10.29
14967,9.82
14979,9.33
14991,8.73
15003,7.95
15015,6.96
15027,5.71
15039,4.11
15051,2.05
15062,-0.56
15073,-3.74
15085,-7.51
15097,-11.81
15109,-16.56
15121,-21.6
15133,-26.58
15145,-30.95
15157,-34.01
15169,-35.05
15181,-33.57
15193,-29.44
15205,-22.99
15217,-14.94
15229,-6.2
15241,2.31
15252,9.87
15263,15.99
15275,20.45
15287,23.18
15299,24.25
15311,23.86
15323,22.28
15335,19.87
15347,17.04
15359,14.19
15371,11.62
15383,9.55
15395,8.05
15407,7.06
15419,6.42
15431,5.99
15442,5.61
15453,5.2
15465,4.67
15477,3.95
15489,2.9
15501,1.37
15513,-0.74
15525,-3.46
15537,-6.67
15549,-10.17
15561,-13.76
15573,-17.35
15585,-21.01
15597,-24.95
15609,-29.4
15621,-34.48
15632,-40.1
15643,-45.92
15655,-51.27
15667,-55.3
15679,-57.06
15691,-55.76
15703,-50.92
15715,-42.61
15727,-31.45
15739,-18.5
15751,-4.95
15763,8.13
15775,20.0
15787,30.25
15799,38.74
15811,45.45
15822,50.42
15833,53.8
15845,55.89
15857,57.13
15869,58.02
15881,58.95
15893,60.12
15905,61.45
15917,62.73
15929,63.74
15941,64.35
15953,64.57
15965,64.45
15977,64.02
15989,63.23
16001,61.97
16012,60.16
16023,57.74
16035,54.77
16047,51.34
16059,47.54
16071,43.38
16083,38.73
16095,33.37
16107,26.99
16119,19.35
16131,10.32
16143,0.03
16155,-11.09
16167,-22.27
16179,-32.53
16191,-40.77
16202,-46.03
16213,-47.64
16225,-45.41
16237,-39.62
16249,-30.99
16261,-20.48
16273,-9.11
16285,2.23
16297,12.83
16309,22.26
16321,30.26
16333,36.74
16345,41.74
16357,45.33
16369,47.68
16381,49.02
16392,49.6
16403,49.74
16415,49.7
16427,49.72
16439,49.93
16451,50.3
16463,50.73
16475,51.03
16487,51.03
16499,50.65
16511,49.86
16523,48.72
16535,47.31
16547,45.75
16559,44.16
16571,42.7
16582,41.51
16593,40.7
16605,40.29
16617,40.19
16629,40.28
16641,40.46
16653,40.67
16665,40.83
16677,40.76
16689,40.11
16701,38.53
16713,35.86
16725,32.28
16737,28.43
16749,25.15
16761,23.21
16772,22.93
16783,24.05
16795,25.78
16807,27.14
16819,27.32
16831,25.94
16843,23.2
16855,19.72
16867,16.19
16879,13.06
16891,10.19
16903,6.92
16915,2.17
16927,-5.12
16939,-15.88
16951,-30.71
16962,-49.81
16973,-72.68
16985,-97.9
16997,-123.0
17009,-144.9
17021,-160.83
17033,-169.37
17045,-171.24
17057,-169.2
17069,-167.19
17081,-168.93
17093,-176.73
17105,-191.02
17117,-210.69
17129,-233.87
17141,-258.51
17152,-282.5
17163,-303.21
17175,-317.2
17187,-320.52
17199,-309.94
17211,-284.38
17223,-245.96
17235,-199.71
17247,-151.94
17259,-107.98
17271,-70.29
17283,-38.15
17295,-8.83
17307,20.29
17319,50.02
17331,78.91
17342,104.14
17353,123.07
17365,134.52
17377,139.06
17389,138.37
17401,134.09
17413,126.83
17425,115.94
17437,100.02
17449,77.86
17461,49.52
17473,16.94
17485,-16.22
17497,-45.61
17509,-67.48
17521,-79.92
17532,-83.32
17543,-79.98
17555,-72.93
17567,-64.89
17579,-57.5
17591,-51.35
17603,-46.38
17615,-42.34
17627,-39.02
17639,-36.15
17651,-33.26
17663,-29.72
17675,-25.03
17687,-19.22
17699,-13.07
17711,-7.91
17722,-5.21
17733,-6.0
17745,-10.5
17757,-18.02
17769,-27.18
17781,-36.3
17793,-43.71
17805,-47.97
17817,-47.83
17829,-42.28
17841,-30.81
17853,-13.75
17865,7.32
17877,29.56
17889,49.55
17901,64.36
17912,72.61
17923,74.9
17935,73.33
17947,70.35
17959,67.58
17971,65.42
17983,63.3
17995,60.63
18007,57.5
18019,54.77
18031,53.51
18043,54.2
18055,56.33
18067,58.53
18079,59.23
18091,57.37
18102,52.83
18113,46.29
18125,38.75
18137,30.98
18149,23.14
18161,14.78
18173,5.14
18185,-6.47
18197,-20.4
18209,-36.5
18221,-54.17
18233,-72.3
18245,-89.3
18257,-103.12
18269,-111.5
18281,-112.37
18292,-104.51
18303,-87.96
18315,-64.19
18327,-35.76
18339,-5.71
18351,23.16
18363,48.77
18375,69.94
18387,86.27
18399,97.86
18411,105.12
18423,108.7
18435,109.38
18447,108.11
18459,105.84
18471,103.35
18482,101.18
18493,99.52
18505,98.3
18517,97.27
18529,96.15
18541,94.68
18553,92.61
18565,89.74
18577,85.88
18589,80.94
18601,74.95
18613,68.13
18625,60.81
18637,53.34
18649,45.96
18661,38.7
18672,31.35
18683,23.43
18695,14.38
18707,3.74
18719,-8.42
18731,-21.33
18743,-33.3
18755,-42.05
18767,-45.23
18779,-41.24
18791,-29.8
18803,-12.13
18815,9.34
18827,31.67
18839,52.25
18851,69.27
18862,81.95
18873,90.37
18885,95.0
18897,96.43
18909,95.11
18921,91.37
18933,85.52
18945,77.99
18957,69.35
18969,60.34
18981,51.68
18993,43.95
19005,37.51
19017,32.43
19029,28.57
19041,25.69
19052,23.52
19063,21.77
19075,20.1
19087,18.11
19099,15.4
19111,11.69
19123,6.88
19135,1.08
19147,-5.44
19159,-12.48
19171,-20.01
19183,-28.2
19195,-37.36
19207,-47.6
19219,-58.49
19231,-68.79
19242,-76.59
19253,-79.63
19265,-76.1
19277,-65.26
19289,-47.88
19301,-26.1
19313,-2.86
19325,18.96
19337,37.22
19349,50.89
19361,59.92
19373,64.83
19385,66.29
19397,64.86
19409,60.94
19421,54.99
19432,47.62
19443,39.66
19455,32.04
19467,25.53
19479,20.59
19491,17.25
19503,15.21
19515,13.97
19527,13.07
19539,12.15
19551,10.95
19563,9.32
19575,7.11
19587,4.2
19599,0.52
19611,-3.88
19622,-8.93
19633,-14.51
19645,-20.66
19657,-27.54
19669,-35.39
19681,-44.31
19693,-53.97
19705,-63.33
19717,-70.69
19729,-74.04
19741,-71.61
19753,-62.55
19765,-47.33
19777,-27.69
19789,-6.16
19801,14.65
19812,32.67
19823,46.76
19835,56.64
19847,62.6
19859,65.15
19871,64.81
19883,61.99
19895,57.1
19907,50.64
19919,43.28
19931,35.8
19943,29.01
19955,23.56
19967,19.83
19979,17.79
19991,17.03
20002,16.91
20013,16.75
20025,15.97
20037,14.32
20049,11.79
20061,8.59
20073,4.98
20085,1.2
20097,-2.69
20109,-6.83
20121,-11.5
20133,-17.13
20145,-24.04
20157,-32.35
20169,-41.6
20181,-50.71
20192,-58.01
20203,-61.6
20215,-59.88
20227,-52.23
20239,-39.28
20251,-22.88
20263,-5.58
20275,10.15
20287,22.52
20299,30.82
20311,35.23
20323,36.4
20335,34.96
20347,31.22
20359,25.17
20371,16.79
20382,6.29
20393,-5.64
20405,-18.03
20417,-29.8
20429,-40.16
20441,-48.69
20453,-55.54
20465,-61.32
20477,-66.94
20489,-73.42
20501,-81.5
20513,-91.3
20525,-102.15
20537,-112.67
20549,-121.17
20561,-126.27
20572,-127.4
20583,-125.01
20595,-120.33
20607,-114.82
20619,-109.46
20631,-104.25
20643,-98.03
20655,-88.67
20667,-73.77
20679,-51.54
20691,-21.59
20703,14.62
20715,54.02
20727,92.69
20739,126.97
20751,154.33
20762,173.73
20773,185.47
20785,190.61
20797,190.46
20809,186.22
20821,178.97
20833,169.72
20845,159.4
20857,148.71
20869,138.01
20881,127.2
20893,115.94
20905,103.83
20917,90.74
20929,76.95
20941,63.04
20952,49.74
20963,37.65
20975,27.12
20987,18.13
20999,10.36
