seconds,BVP
0,-86.52
12,-76.69
24,-63.84
36,-49.43
48,-35.05
60,-21.99
72,-10.99
84,-2.16
96,4.9
108,10.78
120,16.05
131,21.01
142,25.71
154,29.97
166,33.59
178,36.42
190,38.45
202,39.81
214,40.71
226,41.31
238,41.77
250,42.2
262,42.66
274,43.19
286,43.74
298,44.1
310,43.94
321,42.9
332,40.71
344,37.35
356,33.1
368,28.5
380,24.07
392,20.15
404,16.66
416,13.18
428,9.14
440,4.08
452,-2.08
464,-9.02
476,-16.2
488,-23.14
500,-29.63
511,-35.77
522,-41.98
534,-48.66
546,-56.07
558,-64.19
570,-72.58
582,-80.47
594,-86.81
606,-90.44
618,-90.38
630,-85.98
642,-77.21
654,-64.63
666,-49.27
678,-32.38
690,-15.11
701,1.63
712,17.36
724,31.88
736,45.24
748,57.53
760,68.78
772,78.83
784,87.45
796,94.33
808,99.3
820,102.37
832,103.76
844,103.87
856,103.19
868,102.16
880,101.03
891,99.87
902,98.55
914,96.79
926,94.33
938,90.97
950,86.65
962,81.47
974,75.63
986,69.4
998,63.05
1010,56.8
1022,50.76
1034,44.93
1046,39.25
1058,33.65
1070,28.12
1081,22.74
1092,17.64
1104,12.9
1116,8.47
1128,4.12
1140,-0.51
1152,-5.86
1164,-12.23
1176,-19.65
1188,-27.71
1200,-35.45
1212,-41.56
1224,-44.65
1236,-43.67
1248,-38.35
1260,-29.27
1271,-17.7
1282,-5.18
1294,6.97
1306,17.92
1318,27.35
1330,35.27
1342,41.76
1354,46.84
1366,50.4
1378,52.42
1390,52.99
1402,52.41
1414,51.15
1426,49.66
1438,48.25
1450,47.07
1461,46.09
1472,45.21
1484,44.36
1496,43.5
1508,42.62
1520,41.56
1532,40.05
1544,37.78
1556,34.51
1568,30.27
1580,25.35
1592,20.22
1604,15.31
1616,10.84
1628,6.73
1640,2.68
1651,-1.67
1662,-6.56
1674,-11.99
1686,-17.75
1698,-23.49
1710,-28.91
1722,-33.85
1734,-38.41
1746,-42.95
1758,-48.04
1770,-54.26
1782,-61.94
1794,-71.05
1806,-80.9
1818,-90.23
1830,-97.43
1841,-100.96
1852,-99.81
1864,-93.86
1876,-83.93
1888,-71.48
1900,-58.09
1912,-45.01
1924,-32.86
1936,-21.61
1948,-10.93
1960,-0.51
1972,9.71
1984,19.42
1996,28.16
2008,35.53
2020,41.37
2031,45.86
2042,49.34
2054,52.22
2066,54.8
2078,57.18
2090,59.39
2102,61.41
2114,63.29
2126,65.1
2138,66.85
2150,68.37
2162,69.35
2174,69.36
2186,68.07
2198,65.32
2210,61.25
2221,56.24
2232,50.81
2244,45.5
2256,40.67
2268,36.41
2280,32.52
2292,28.6
2304,24.18
2316,18.99
2328,12.99
2340,6.48
2352,-0.07
2364,-6.21
2376,-11.66
2388,-16.45
2400,-20.9
2411,-25.52
2422,-30.9
2434,-37.54
2446,-45.64
2458,-54.97
2470,-64.71
2482,-73.55
2494,-79.95
2506,-82.51
2518,-80.39
2530,-73.63
2542,-63.06
2554,-50.11
2566,-36.34
2578,-23.01
2590,-10.81
2601,0.11
2612,9.95
2624,18.99
2636,27.36
2648,35.02
2660,41.77
2672,47.42
2684,51.91
2696,55.26
2708,57.64
2720,59.21
2732,60.14
2744,60.57
2756,60.63
2768,60.48
2780,60.24
2791,60.01
2802,59.78
2814,59.43
2826,58.79
2838,57.65
2850,55.89
2862,53.5
2874,50.56
2886,47.18
2898,43.49
2910,39.57
2922,35.48
2934,31.29
2946,27.04
2958,22.85
2970,18.8
2981,14.93
2992,11.18
3004,7.41
3016,3.42
3028,-0.92
3040,-5.63
3052,-10.6
3064,-15.58
3076,-20.35
3088,-24.75
3100,-28.8
3112,-32.74
3124,-36.94
3136,-41.84
3148,-47.75
3160,-54.8
3171,-62.66
3182,-70.6
3194,-77.42
3206,-81.75
3218,-82.35
3230,-78.58
3242,-70.6
3254,-59.39
3266,-46.47
3278,-33.38
3290,-21.21
3302,-10.43
3314,-0.95
3326,7.56
3338,15.3
3350,22.24
3361,28.16
3372,32.82
3384,36.16
3396,38.33
3408,39.64
3420,40.41
3432,40.88
3444,41.19
3456,41.42
3468,41.61
3480,41.77
3492,41.91
3504,42.03
3516,42.08
3528,41.97
3540,41.6
3551,40.85
3562,39.56
3574,37.62
3586,34.98
3598,31.72
3610,28.07
3622,24.33
3634,20.73
3646,17.37
3658,14.14
3670,10.75
3682,6.92
3694,2.46
3706,-2.56
3718,-7.88
3730,-13.08
3741,-17.86
3752,-22.11
3764,-25.99
3776,-29.89
3788,-34.25
3800,-39.45
3812,-45.73
3824,-53.06
3836,-61.03
3848,-68.84
3860,-75.29
3872,-79.07
3884,-79.07
3896,-74.8
3908,-66.58
3920,-55.53
3931,-43.15
3942,-30.87
3954,-19.68
3966,-9.93
3978,-1.52
3990,5.85
4002,12.43
4014,18.27
4026,23.25
4038,27.24
4050,30.16
4062,32.07
4074,33.14
4086,33.6
4098,33.7
4110,33.64
4121,33.54
4132,33.5
4144,33.56
4156,33.71
4168,33.88
4180,33.97
4192,33.81
4204,33.28
4216,32.26
4228,30.72
4240,28.69
4252,26.23
4264,23.41
4276,20.34
4288,17.11
4300,13.83
4311,10.63
4322,7.57
4334,4.65
4346,1.79
4358,-1.15
4370,-4.28
4382,-7.64
4394,-11.19
4406,-14.78
4418,-18.27
4430,-21.61
4442,-24.8
4454,-27.93
4466,-31.15
4478,-34.64
4490,-38.59
4501,-43.21
4512,-48.7
4524,-55.14
4536,-62.27
4548,-69.43
4560,-75.44
4572,-78.91
4584,-78.63
4596,-73.99
4608,-65.31
4620,-53.73
4632,-40.87
4644,-28.27
4656,-17.01
4668,-7.43
4680,0.66
4691,7.71
4702,14.11
4714,19.98
4726,25.21
4738,29.64
4750,33.15
4762,35.8
4774,37.8
4786,39.41
4798,40.82
4810,42.12
4822,43.28
4834,44.28
4846,45.12
4858,45.89
4870,46.7
4881,47.61
4892,48.55
4904,49.36
4916,49.84
4928,49.82
4940,49.19
4952,47.86
4964,45.83
4976,43.13
4988,39.84
5000,36.12
5012,32.17
5024,28.16
5036,24.24
5048,20.46
5060,16.79
5071,13.11
5082,9.25
5094,5.09
5106,0.59
5118,-4.14
5130,-8.89
5142,-13.45
5154,-17.66
5166,-21.56
5178,-25.36
5190,-29.4
5202,-34.02
5214,-39.48
5226,-45.87
5238,-52.96
5250,-60.12
5261,-66.33
5272,-70.34
5284,-70.99
5296,-67.65
5308,-60.49
5320,-50.52
5332,-39.23
5344,-28.14
5356,-18.4
5368,-10.48
5380,-4.28
5392,0.65
5404,4.78
5416,8.43
5428,11.65
5440,14.36
5451,16.41
5462,17.73
5474,18.37
5486,18.45
5498,18.12
5510,17.56
5522,16.86
5534,16.15
5546,15.56
5558,15.21
5570,15.11
5582,15.13
5594,14.93
5606,14.04
5618,11.97
5630,8.46
5641,3.55
5652,-2.44
5664,-8.94
5676,-15.34
5688,-21.12
5700,-25.91
5712,-29.55
5724,-32.08
5736,-33.62
5748,-34.37
5760,-34.52
5772,-34.22
5784,-33.6
5796,-32.77
5808,-31.93
5820,-31.36
5831,-31.48
5842,-32.68
5854,-35.25
5866,-39.12
5878,-43.77
5890,-48.24
5902,-51.34
5914,-51.98
5926,-49.5
5938,-43.91
5950,-35.84
5962,-26.36
5974,-16.61
5986,-7.47
5998,0.63
6010,7.62
6021,13.64
6032,18.82
6044,23.17
6056,26.59
6068,28.98
6080,30.33
6092,30.79
6104,30.64
6116,30.19
6128,29.7
6140,29.28
6152,28.92
6164,28.55
6176,28.12
6188,27.65
6200,27.23
6211,26.94
6222,26.74
6234,26.45
6246,25.76
6258,24.34
6270,22.05
6282,18.92
6294,15.24
6306,11.43
6318,7.84
6330,4.63
6342,1.67
6354,-1.34
6366,-4.74
6378,-8.73
6390,-13.28
6401,-18.11
6412,-22.86
6424,-27.17
6436,-30.95
6448,-34.28
6460,-37.54
6472,-41.18
6484,-45.61
6496,-51.07
6508,-57.47
6520,-64.3
6532,-70.68
6544,-75.46
6556,-77.48
6568,-75.96
6580,-70.69
6591,-62.19
6602,-51.57
6614,-40.16
6626,-29.15
6638,-19.28
6650,-10.75
6662,-3.42
6674,2.97
6686,8.57
6698,13.37
6710,17.22
6722,20.06
6734,21.93
6746,23.01
6758,23.52
6770,23.57
6781,23.2
6792,22.36
6804,21.11
6816,19.6
6828,18.14
6840,17.02
6852,16.36
6864,16.0
6876,15.52
6888,14.43
6900,12.38
6912,9.31
6924,5.45
6936,1.22
6948,-2.96
6960,-6.86
6971,-10.52
6982,-14.14
6994,-18.01
7006,-22.39
7018,-27.35
7030,-32.75
7042,-38.26
7054,-43.52
7066,-48.15
7078,-52.0
7090,-55.13
7102,-57.89
7114,-60.76
7126,-64.22
7138,-68.49
7150,-73.41
7161,-78.33
7172,-82.19
7184,-83.81
7196,-82.17
7208,-76.73
7220,-67.58
7232,-55.41
7244,-41.3
7256,-26.42
7268,-11.77
7280,1.94
7292,14.36
7304,25.38
7316,35.09
7328,43.61
7340,51.06
7351,57.44
7362,62.71
7374,66.75
7386,69.52
7398,71.09
7410,71.64
7422,71.45
7434,70.78
7446,69.79
7458,68.59
7470,67.24
7482,65.8
7494,64.34
7506,62.88
7518,61.28
7530,59.33
7541,56.73
7552,53.28
7564,49.0
7576,44.15
7588,39.17
7600,34.45
7612,30.14
7624,26.08
7636,21.93
7648,17.31
7660,12.05
7672,6.28
7684,0.31
7696,-5.5
7708,-10.92
7720,-15.98
7731,-20.93
7742,-26.13
7754,-31.94
7766,-38.61
7778,-46.14
7790,-54.26
7802,-62.27
7814,-69.18
7826,-73.79
7838,-75.09
7850,-72.53
7862,-66.25
7874,-57.08
7886,-46.2
7898,-34.86
7910,-23.96
7921,-13.99
7932,-5.02
7944,3.09
7956,10.48
7968,17.19
7980,23.1
7992,28.03
8004,31.86
8016,34.59
8028,36.35
8040,37.39
8052,38.01
8064,38.48
8076,38.95
8088,39.55
8100,40.31
8111,41.19
8122,42.13
8134,42.95
8146,43.42
8158,43.27
8170,42.29
8182,40.43
8194,37.84
8206,34.82
8218,31.68
8230,28.65
8242,25.76
8254,22.85
8266,19.67
8278,16.02
8290,11.8
8301,7.07
8312,2.05
8324,-3.01
8336,-7.86
8348,-12.38
8360,-16.67
8372,-21.06
8384,-26.02
8396,-31.96
8408,-38.94
8420,-46.51
8432,-53.62
8444,-58.92
8456,-61.13
8468,-59.51
8480,-54.03
8491,-45.45
8502,-34.98
8514,-23.89
8526,-13.2
8538,-3.47
8550,5.19
8562,12.89
8574,19.79
8586,25.94
8598,31.27
8610,35.63
8622,38.88
8634,41.01
8646,42.14
8658,42.53
8670,42.52
8681,42.39
8692,42.34
8704,42.4
8716,42.47
8728,42.38
8740,42.0
8752,41.27
8764,40.21
8776,38.88
8788,37.3
8800,35.43
8812,33.17
8824,30.42
8836,27.15
8848,23.44
8860,19.47
8871,15.4
8882,11.4
8894,7.53
8906,3.79
8918,0.09
8930,-3.67
8942,-7.67
8954,-12.1
8966,-17.2
8978,-23.17
8990,-30.0
9002,-37.37
9014,-44.52
9026,-50.35
9038,-53.68
9050,-53.62
9061,-49.9
9072,-42.96
9084,-33.82
9096,-23.75
9108,-13.83
9120,-4.7
9132,3.44
9144,10.72
9156,17.26
9168,23.02
9180,27.79
9192,31.31
9204,33.45
9216,34.32
9228,34.25
9240,33.69
9251,33.0
9262,32.4
9274,31.97
9286,31.67
9298,31.42
9310,31.17
9322,30.89
9334,30.54
9346,30.05
9358,29.27
9370,28.08
9382,26.35
9394,24.05
9406,21.23
9418,18.05
9430,14.67
9441,11.2
9452,7.67
9464,4.05
9476,0.28
9488,-3.61
9500,-7.54
9512,-11.4
9524,-15.12
9536,-18.78
9548,-22.62
9560,-26.99
9572,-32.18
9584,-38.28
9596,-45.02
9608,-51.67
9620,-57.17
9631,-60.38
9642,-60.37
9654,-56.74
9666,-49.83
9678,-40.49
9690,-29.94
9702,-19.27
9714,-9.25
9726,-0.2
9738,7.88
9750,15.12
9762,21.55
9774,27.07
9786,31.47
9798,34.57
9810,36.36
9821,37.01
9832,36.86
9844,36.27
9856,35.53
9868,34.75
9880,33.97
9892,33.16
9904,32.35
9916,31.59
9928,30.95
9940,30.37
9952,29.69
9964,28.64
9976,26.97
9988,24.57
10000,21.52
10011,18.06
10022,14.43
10034,10.83
10046,7.34
10058,3.95
10070,0.61
10082,-2.7
10094,-6.02
10106,-9.39
10118,-12.89
10130,-16.66
10142,-20.85
10154,-25.59
10166,-30.9
10178,-36.62
10190,-42.35
10201,-47.4
10212,-50.94
10224,-52.12
10236,-50.38
10248,-45.64
10260,-38.34
10272,-29.33
10284,-19.61
10296,-10.11
10308,-1.45
10320,6.06
10332,12.35
10344,17.46
10356,21.43
10368,24.33
10380,26.17
10391,27.06
10402,27.16
10414,26.74
10426,26.13
10438,25.68
10450,25.62
10462,25.99
10474,26.65
10486,27.29
10498,27.58
10510,27.25
10522,26.26
10534,24.74
10546,22.86
10558,20.76
10570,18.44
10581,15.76
10592,12.53
10604,8.72
10616,4.47
10628,0.09
10640,-4.04
10652,-7.69
10664,-10.82
10676,-13.63
10688,-16.38
10700,-19.35
10712,-22.77
10724,-26.78
10736,-31.5
10748,-36.97
10760,-43.08
10771,-49.36
10782,-55.0
10794,-58.94
10806,-60.14
10818,-57.99
10830,-52.5
10842,-44.35
10854,-34.63
10866,-24.52
10878,-14.95
10890,-6.43
10902,0.9
10914,7.14
10926,12.43
10938,16.85
10950,20.41
10961,23.12
10972,25.01
10984,26.19
10996,26.88
11008,27.29
11020,27.63
11032,27.99
11044,28.39
11056,28.76
11068,29.04
11080,29.22
11092,29.31
11104,29.34
11116,29.21
11128,28.72
11140,27.64
11151,25.79
11162,23.18
11174,20.06
11186,16.81
11198,13.78
11210,11.12
11222,8.74
11234,6.33
11246,3.58
11258,0.27
11270,-3.55
11282,-7.64
11294,-11.71
11306,-15.49
11318,-18.94
11330,-22.19
11341,-25.57
11352,-29.49
11364,-34.27
11376,-40.06
11388,-46.61
11400,-53.22
11412,-58.82
11424,-62.17
11436,-62.26
11448,-58.63
11460,-51.6
11472,-42.11
11484,-31.48
11496,-20.98
11508,-11.46
11520,-3.27
11531,3.66
11542,9.62
11554,14.87
11566,19.54
11578,23.6
11590,26.99
11602,29.66
11614,31.62
11626,32.97
11638,33.83
11650,34.28
11662,34.41
11674,34.26
11686,33.93
11698,33.54
11710,33.27
11721,33.25
11732,33.51
11744,33.95
11756,34.32
11768,34.31
11780,33.62
11792,32.1
11804,29.76
11816,26.78
11828,23.45
11840,20.08
11852,16.87
11864,13.89
11876,11.07
11888,8.24
11900,5.21
11911,1.83
11922,-1.93
11934,-6.01
11946,-10.21
11958,-14.36
11970,-18.31
11982,-22.05
11994,-25.68
12006,-29.45
12018,-33.64
12030,-38.48
12042,-44.0
12054,-49.92
12066,-55.57
12078,-60.01
12090,-62.16
12101,-61.18
12112,-56.75
12124,-49.21
12136,-39.5
12148,-28.9
12160,-18.57
12172,-9.31
12184,-1.44
12196,5.13
12208,10.69
12220,15.49
12232,19.66
12244,23.15
12256,25.9
12268,27.87
12280,29.16
12291,29.95
12302,30.45
12314,30.79
12326,30.99
12338,30.99
12350,30.72
12362,30.19
12374,29.52
12386,28.91
12398,28.53
12410,28.39
12422,28.32
12434,28.02
12446,27.14
12458,25.48
12470,23.04
12481,20.03
12492,16.78
12504,13.63
12516,10.84
12528,8.48
12540,6.43
12552,4.44
12564,2.21
12576,-0.48
12588,-3.68
12600,-7.27
12612,-10.95
12624,-14.42
12636,-17.46
12648,-20.06
12660,-22.4
12671,-24.8
12682,-27.64
12694,-31.22
12706,-35.74
12718,-41.12
12730,-46.96
12742,-52.48
12754,-56.63
12766,-58.31
12778,-56.74
12790,-51.77
12802,-43.92
12814,-34.3
12826,-24.2
12838,-14.75
12850,-6.59
12861,0.07
12872,5.42
12884,9.74
12896,13.27
12908,16.13
12920,18.32
12932,19.85
12944,20.73
12956,21.07
12968,21.01
12980,20.73
12992,20.37
13004,20.02
13016,19.73
13028,19.51
13040,19.4
13051,19.41
13062,19.5
13074,19.53
13086,19.3
13098,18.58
13110,17.19
13122,15.1
13134,12.45
13146,9.5
13158,6.53
13170,3.72
13182,1.1
13194,-1.41
13206,-3.97
13218,-6.66
13230,-9.47
13241,-12.31
13252,-15.04
13264,-17.58
13276,-19.97
13288,-22.36
13300,-25.02
13312,-28.18
13324,-32.03
13336,-36.58
13348,-41.62
13360,-46.61
13372,-50.72
13384,-52.97
13396,-52.45
13408,-48.71
13420,-41.97
13431,-33.06
13442,-23.28
13454,-13.87
13466,-5.69
13478,0.95
13490,6.2
13502,10.36
13514,13.64
13526,16.1
13538,17.71
13550,18.55
13562,18.8
13574,18.8
13586,18.85
13598,19.07
13610,19.47
13621,19.88
13632,20.19
13644,20.37
13656,20.46
13668,20.57
13680,20.77
13692,21.01
13704,21.15
13716,20.97
13728,20.25
13740,18.81
13752,16.6
13764,13.79
13776,10.66
13788,7.55
13800,4.75
13811,2.31
13822,0.11
13834,-2.16
13846,-4.84
13858,-8.09
13870,-11.85
13882,-15.84
13894,-19.67
13906,-23.01
13918,-25.76
13930,-28.09
13942,-30.36
13954,-33.09
13966,-36.7
13978,-41.43
13990,-47.16
14001,-53.36
14012,-59.07
14024,-63.13
14036,-64.46
14048,-62.36
14060,-56.82
14072,-48.52
14084,-38.59
14096,-28.29
14108,-18.62
14120,-10.12
14132,-2.9
14144,3.22
14156,8.45
14168,12.9
14180,16.56
14191,19.38
14202,21.37
14214,22.64
14226,23.38
14238,23.79
14250,24.0
14262,24.04
14274,23.92
14286,23.64
14298,23.29
14310,23.04
14322,23.05
14334,23.33
14346,23.77
14358,24.09
14370,23.99
14381,23.22
14392,21.69
14404,19.47
14416,16.79
14428,13.95
14440,11.24
14452,8.81
14464,6.65
14476,4.56
14488,2.22
14500,-0.62
14512,-4.03
14524,-7.86
14536,-11.78
14548,-15.4
14560,-18.5
14571,-21.09
14582,-23.48
14594,-26.15
14606,-29.54
14618,-33.96
14630,-39.45
14642,-45.7
14654,-52.14
14666,-57.9
14678,-61.97
14690,-63.42
14702,-61.61
14714,-56.47
14726,-48.53
14738,-38.83
14750,-28.57
14761,-18.76
14772,-9.96
14784,-2.27
14796,4.45
14808,10.38
14820,15.54
14832,19.83
14844,23.13
14856,25.45
14868,26.97
14880,27.97
14892,28.69
14904,29.27
14916,29.71
14928,29.95
14940,29.92
14951,29.63
14962,29.2
14974,28.8
14986,28.58
14998,28.57
15010,28.64
15022,28.5
15034,27.81
15046,26.36
15058,24.12
15070,21.3
15082,18.22
15094,15.23
15106,12.5
15118,10.01
15130,7.58
15141,4.97
15152,1.97
15164,-1.48
15176,-5.27
15188,-9.16
15200,-12.85
15212,-16.11
15224,-18.89
15236,-21.38
15248,-23.95
15260,-27.09
15272,-31.24
15284,-36.61
15296,-43.06
15308,-50.06
15320,-56.73
15331,-61.95
15342,-64.66
15354,-64.1
15366,-60.04
15378,-52.85
15390,-43.46
15402,-33.04
15414,-22.69
15426,-13.2
15438,-4.91
15450,2.19
15462,8.27
15474,13.47
15486,17.81
15498,21.22
15510,23.62
15521,25.04
15532,25.68
15544,25.82
15556,25.76
15568,25.74
15580,25.89
15592,26.25
15604,26.8
15616,27.47
15628,28.11
15640,28.52
15652,28.44
15664,27.66
15676,26.13
15688,23.96
15700,21.42
15711,18.76
15722,16.16
15734,13.58
15746,10.86
15758,7.84
15770,4.42
15782,0.7
15794,-3.12
15806,-6.8
15818,-10.24
15830,-13.5
15842,-16.8
15854,-20.4
15866,-24.55
15878,-29.41
15890,-35.02
15901,-41.19
15912,-47.49
15924,-53.13
15936,-57.08
15948,-58.29
15960,-56.08
15972,-50.36
15984,-41.81
15996,-31.56
16008,-20.92
16020,-10.87
16032,-1.92
16044,5.84
16056,12.53
16068,18.24
16080,22.9
16091,26.4
16102,28.72
16114,30.0
16126,30.62
16138,30.93
16150,31.24
16162,31.61
16174,31.97
16186,32.18
16198,32.18
16210,32.0
16222,31.73
16234,31.45
16246,31.15
16258,30.67
16270,29.79
16281,28.26
16292,25.94
16304,22.83
16316,19.12
16328,15.12
16340,11.17
16352,7.48
16364,4.06
16376,0.68
16388,-3.01
16400,-7.31
16412,-12.31
16424,-17.85
16436,-23.59
16448,-29.13
16460,-34.21
16471,-38.82
16482,-43.19
16494,-47.75
16506,-52.9
16518,-58.91
16530,-65.77
16542,-73.05
16554,-79.9
16566,-85.15
16578,-87.57
16590,-86.12
16602,-80.36
16614,-70.56
16626,-57.65
16638,-43.01
16650,-27.92
16661,-13.32
16672,0.41
16684,13.34
16696,25.72
16708,37.67
16720,49.02
16732,59.33
16744,68.15
16756,75.19
16768,80.48
16780,84.34
16792,87.13
16804,89.09
16816,90.23
16828,90.4
16840,89.47
16851,87.5
16862,84.72
16874,81.5
16886,78.12
16898,74.67
16910,71.07
16922,67.1
16934,62.57
16946,57.41
16958,51.69
16970,45.58
16982,39.31
16994,33.14
17006,27.25
17018,21.7
17030,16.42
17041,11.21
17052,5.84
17064,0.18
17076,-5.71
17088,-11.56
17100,-17.02
17112,-21.82
17124,-25.84
17136,-29.2
17148,-32.18
17160,-35.15
17172,-38.48
17184,-42.46
17196,-47.36
17208,-53.22
17220,-59.81
17231,-66.48
17242,-72.2
17254,-75.74
17266,-76.03
17278,-72.54
17290,-65.46
17302,-55.65
17314,-44.34
17326,-32.78
17338,-21.85
17350,-11.94
17362,-3.01
17374,5.14
17386,12.64
17398,19.5
17410,25.52
17421,30.5
17432,34.36
17444,37.13
17456,39.05
17468,40.34
17480,41.22
17492,41.8
17504,42.11
17516,42.21
17528,42.21
17540,42.3
17552,42.69
17564,43.5
17576,44.66
17588,45.91
17600,46.86
17611,47.13
17622,46.56
17634,45.28
17646,43.76
17658,42.55
17670,42.12
17682,42.54
17694,43.43
17706,44.1
17718,43.74
17730,41.78
17742,38.07
17754,32.82
17766,26.5
17778,19.62
17790,12.61
17801,5.69
17812,-1.03
17824,-7.51
17836,-13.78
17848,-19.89
17860,-26.0
17872,-32.38
17884,-39.29
17896,-46.9
17908,-55.04
17920,-63.1
17932,-70.06
17944,-74.75
17956,-76.16
17968,-73.88
17980,-68.2
17991,-60.0
18002,-50.41
18014,-40.43
18026,-30.72
18038,-21.52
18050,-12.86
18062,-4.75
18074,2.67
18086,9.12
18098,14.33
18110,18.08
18122,20.42
18134,21.6
18146,22.04
18158,22.22
18170,22.49
18181,23.04
18192,23.87
18204,24.88
18216,25.96
18228,27.01
18240,27.96
18252,28.69
18264,29.04
18276,28.81
18288,27.89
18300,26.34
18312,24.37
18324,22.27
18336,20.32
18348,18.59
18360,16.98
18371,15.21
18382,12.94
18394,9.96
18406,6.19
18418,1.82
18430,-2.87
18442,-7.5
18454,-11.77
18466,-15.55
18478,-18.87
18490,-21.97
18502,-25.27
18514,-29.22
18526,-34.16
18538,-40.09
18550,-46.47
18561,-52.31
18572,-56.32
18584,-57.38
18596,-54.89
18608,-49.05
18620,-40.73
18632,-31.11
18644,-21.37
18656,-12.31
18668,-4.29
18680,2.67
18692,8.69
18704,13.89
18716,18.29
18728,21.84
18740,24.49
18751,26.26
18762,27.26
18774,27.74
18786,27.98
18798,28.2
18810,28.52
18822,28.89
18834,29.17
18846,29.23
18858,29.05
18870,28.72
18882,28.39
18894,28.15
18906,27.99
18918,27.73
18930,27.15
18941,26.03
18952,24.23
18964,21.74
18976,18.68
18988,15.28
19000,11.78
19012,8.44
19024,5.35
19036,2.47
19048,-0.36
19060,-3.39
19072,-6.82
19084,-10.7
19096,-14.94
19108,-19.3
19120,-23.54
19131,-27.46
19142,-31.01
19154,-34.32
19166,-37.66
19178,-41.43
19190,-46.02
19202,-51.63
19214,-58.07
19226,-64.63
19238,-70.15
19250,-73.32
19262,-73.07
19274,-68.95
19286,-61.34
19298,-51.25
19310,-40.05
19321,-29.0
19332,-18.89
19344,-10.04
19356,-2.3
19368,4.63
19380,11.03
19392,16.96
19404,22.3
19416,26.82
19428,30.3
19440,32.65
19452,34.03
19464,34.77
19476,35.32
19488,36.05
19500,37.21
19511,38.77
19522,40.53
19534,42.21
19546,43.59
19558,44.65
19570,45.63
19582,46.95
19594,49.03
19606,52.06
19618,55.86
19630,59.99
19642,63.93
19654,67.38
19666,70.37
19678,73.33
19690,76.95
19701,82.07
19712,89.6
19724,100.25
19736,114.06
19748,129.93
19760,145.37
19772,156.98
19784,161.67
19796,158.08
19808,147.32
19820,132.74
19832,118.56
19844,108.22
19856,103.3
19868,103.21
19880,105.99
19891,109.21
19902,110.71
19914,108.81
19926,102.34
19938,90.65
19950,73.75
19962,52.54
19974,28.82
19986,4.74
19998,-17.75
20010,-37.5
20022,-54.3
20034,-68.58
20046,-80.92
20058,-91.57
20070,-100.32
20081,-106.55
20092,-109.66
20104,-109.45
20116,-106.26
20128,-100.91
20140,-94.38
20152,-87.48
20164,-80.71
20176,-74.25
20188,-68.12
20200,-62.31
20212,-56.81
20224,-51.54
20236,-46.35
20248,-41.06
20260,-35.58
20271,-30.13
20282,-25.27
20294,-21.85
20306,-20.84
20318,-23.05
20330,-28.76
20342,-37.65
20354,-48.78
20366,-60.82
20378,-72.5
20390,-82.85
20402,-91.43
20414,-98.25
20426,-103.6
20438,-107.82
20450,-111.12
20461,-113.64
20472,-115.43
20484,-116.6
20496,-117.27
20508,-117.6
20520,-117.63
20532,-117.33
20544,-116.6
20556,-115.38
20568,-113.71
20580,-111.81
20592,-109.92
20604,-108.18
20616,-106.43
20628,-104.09
20640,-100.26
20651,-93.97
20662,-84.63
20674,-72.3
20686,-57.78
20698,-42.4
20710,-27.51
20722,-14.14
20734,-2.71
20746,6.82
20758,14.7
20770,21.11
20782,26.08
20794,29.55
20806,31.57
20818,32.41
20830,32.54
20841,32.46
20852,32.51
20864,32.81
20876,33.21
20888,33.49
20900,33.46
20912,33.08
20924,32.42
20936,31.61
20948,30.7
20960,29.66
20972,28.28
20984,26.34
20996,23.71
