seconds,BVP
11,29.33
23,29.84
35,29.98
47,29.6
58,28.75
69,27.62
81,26.43
93,25.32
105,24.31
117,23.34
129,22.31
141,21.13
153,19.81
165,18.31
177,16.65
189,14.76
201,12.58
213,10.01
225,7.08
237,3.89
248,0.67
259,-2.27
271,-4.74
283,-6.69
295,-8.32
307,-9.97
319,-11.97
331,-14.51
343,-17.48
355,-20.6
367,-23.45
379,-25.79
391,-27.61
403,-29.17
415,-30.9
427,-33.25
438,-36.49
449,-40.63
461,-45.4
473,-50.14
485,-54.03
497,-56.21
509,-55.96
521,-52.92
533,-47.14
545,-39.08
557,-29.49
569,-19.3
581,-9.34
593,-0.28
605,7.5
617,13.94
628,19.14
639,23.3
651,26.57
663,29.02
675,30.64
687,31.42
699,31.43
711,30.89
723,30.11
735,29.43
747,29.09
759,29.12
771,29.45
783,29.88
795,30.17
807,30.18
818,29.83
829,29.2
841,28.37
853,27.41
865,26.31
877,24.99
889,23.35
901,21.35
913,19.06
925,16.66
937,14.35
949,12.28
961,10.42
973,8.62
985,6.64
997,4.33
1008,1.67
1019,-1.24
1031,-4.19
1043,-7.02
1055,-9.63
1067,-12.07
1079,-14.46
1091,-16.97
1103,-19.66
1115,-22.55
1127,-25.5
1139,-28.36
1151,-30.94
1163,-33.12
1175,-34.93
1187,-36.5
1198,-38.13
1209,-40.11
1221,-42.69
1233,-45.92
1245,-49.61
1257,-53.22
1269,-56.0
1281,-57.11
1293,-55.83
1305,-51.79
1317,-45.14
1329,-36.48
1341,-26.72
1353,-16.85
1365,-7.63
1377,0.53
1388,7.48
1399,13.31
1411,18.09
1423,21.84
1435,24.54
1447,26.22
1459,27.02
1471,27.18
1483,27.01
1495,26.82
1507,26.8
1519,27.01
1531,27.41
1543,27.88
1555,28.33
1567,28.71
1578,28.99
1589,29.25
1601,29.51
1613,29.73
1625,29.8
1637,29.59
1649,28.97
1661,27.9
1673,26.42
1685,24.68
1697,22.77
1709,20.78
1721,18.7
1733,16.51
1745,14.17
1757,11.72
1768,9.24
1779,6.86
1791,4.67
1803,2.68
1815,0.82
1827,-1.07
1839,-3.19
1851,-5.68
1863,-8.56
1875,-11.73
1887,-14.99
1899,-18.14
1911,-21.02
1923,-23.57
1935,-25.86
1947,-28.08
1958,-30.55
1969,-33.64
1981,-37.53
1993,-42.11
2005,-46.8
2017,-50.63
2029,-52.5
2041,-51.58
2053,-47.58
2065,-40.88
2077,-32.36
2089,-23.03
2101,-13.73
2113,-4.97
2125,3.01
2137,10.08
2148,16.06
2159,20.76
2171,24.03
2183,25.87
2195,26.51
2207,26.32
2219,25.66
2231,24.84
2243,24.05
2255,23.37
2267,22.86
2279,22.59
2291,22.58
2303,22.83
2315,23.24
2327,23.67
2338,24.0
2349,24.14
2361,24.06
2373,23.73
2385,23.16
2397,22.32
2409,21.24
2421,19.96
2433,18.56
2445,17.17
2457,15.8
2469,14.39
2481,12.79
2493,10.83
2505,8.44
2517,5.71
2528,2.88
2539,0.2
2551,-2.14
2563,-4.18
2575,-6.16
2587,-8.36
2599,-11.06
2611,-14.33
2623,-18.04
2635,-21.89
2647,-25.52
2659,-28.65
2671,-31.21
2683,-33.31
2695,-35.28
2707,-37.54
2718,-40.47
2729,-44.25
2741,-48.71
2753,-53.34
2765,-57.29
2777,-59.61
2789,-59.44
2801,-56.31
2813,-50.28
2825,-41.86
2837,-31.93
2849,-21.46
2861,-11.29
2873,-2.0
2885,6.08
2897,12.85
2908,18.27
2919,22.35
2931,25.14
2943,26.77
2955,27.43
2967,27.46
2979,27.19
2991,26.89
3003,26.71
3015,26.68
3027,26.73
3039,26.8
3051,26.84
3063,26.87
3075,26.97
3087,27.22
3098,27.6
3109,28.05
3121,28.38
3133,28.4
3145,27.91
3157,26.86
3169,25.34
3181,23.59
3193,21.81
3205,20.14
3217,18.56
3229,16.93
3241,15.06
3253,12.9
3265,10.51
3277,8.07
3288,5.73
3299,3.53
3311,1.35
3323,-0.97
3335,-3.58
3347,-6.52
3359,-9.7
3371,-13.06
3383,-16.51
3395,-20.04
3407,-23.64
3419,-27.22
3431,-30.67
3443,-33.9
3455,-36.93
3467,-39.97
3478,-43.31
3489,-47.2
3501,-51.64
3513,-56.2
3525,-60.08
3537,-62.24
3549,-61.74
3561,-58.0
3573,-51.07
3585,-41.56
3597,-30.49
3609,-19.04
3621,-8.19
3633,1.46
3645,9.74
3657,16.79
3668,22.77
3679,27.75
3691,31.61
3703,34.17
3715,35.38
3727,35.44
3739,34.79
3751,33.97
3763,33.37
3775,33.1
3787,33.0
3799,32.86
3811,32.55
3823,32.15
3835,31.8
3847,31.59
3858,31.43
3869,31.1
3881,30.38
3893,29.16
3905,27.48
3917,25.48
3929,23.36
3941,21.22
3953,19.11
3965,16.98
3977,14.77
3989,12.38
4001,9.73
4013,6.74
4025,3.45
4037,-0.0
4048,-3.41
4059,-6.59
4071,-9.46
4083,-12.05
4095,-14.48
4107,-16.88
4119,-19.33
4131,-21.85
4143,-24.43
4155,-27.09
4167,-29.81
4179,-32.59
4191,-35.38
4203,-38.19
4215,-41.12
4227,-44.4
4238,-48.28
4249,-52.8
4261,-57.58
4273,-61.76
4285,-64.17
4297,-63.67
4309,-59.57
4321,-51.93
4333,-41.5
4345,-29.44
4357,-17.03
4369,-5.27
4381,5.22
4393,14.13
4405,21.43
4417,27.2
4428,31.56
4439,34.62
4451,36.48
4463,37.31
4475,37.32
4487,36.82
4499,36.14
4511,35.59
4523,35.34
4535,35.41
4547,35.69
4559,35.99
4571,36.13
4583,36.04
4595,35.74
4607,35.33
4618,34.91
4629,34.48
4641,33.93
4653,33.11
4665,31.85
4677,30.11
4689,28.01
4701,25.76
4713,23.53
4725,21.38
4737,19.1
4749,16.47
4761,13.33
4773,9.76
4785,6.03
4797,2.47
4808,-0.75
4819,-3.71
4831,-6.67
4843,-9.86
4855,-13.33
4867,-16.87
4879,-20.21
4891,-23.19
4903,-25.9
4915,-28.67
4927,-31.94
4939,-36.02
4951,-40.95
4963,-46.42
4975,-51.83
4987,-56.32
4998,-58.92
5009,-58.8
5021,-55.44
5033,-48.85
5045,-39.59
5057,-28.62
5069,-17.03
5081,-5.77
5093,4.55
5105,13.67
5117,21.53
5129,28.06
5141,33.16
5153,36.68
5165,38.55
5177,38.87
5188,37.97
5199,36.31
5211,34.39
5223,32.63
5235,31.28
5247,30.37
5259,29.81
5271,29.42
5283,29.06
5295,28.68
5307,28.29
5319,27.85
5331,27.31
5343,26.53
5355,25.34
5367,23.69
5378,21.63
5389,19.36
5401,17.13
5413,15.09
5425,13.25
5437,11.46
5449,9.53
5461,7.32
5473,4.8
5485,2.06
5497,-0.76
5509,-3.58
5521,-6.39
5533,-9.29
5545,-12.42
5557,-15.84
5568,-19.57
5579,-23.49
5591,-27.43
5603,-31.22
5615,-34.72
5627,-37.95
5639,-41.07
5651,-44.34
5663,-48.11
5675,-52.63
5687,-57.82
5699,-63.15
5711,-67.68
5723,-70.15
5735,-69.43
5747,-64.82
5758,-56.39
5769,-44.91
5781,-31.67
5793,-18.05
5805,-5.18
5817,6.22
5829,15.93
5841,23.95
5853,30.52
5865,35.8
5877,39.94
5889,43.0
5901,45.03
5913,46.07
5925,46.16
5937,45.4
5948,43.96
5959,42.07
5971,39.97
5983,37.93
5995,36.18
6007,34.9
6019,34.14
6031,33.87
6043,33.92
6055,34.03
6067,33.93
6079,33.39
6091,32.3
6103,30.67
6115,28.64
6127,26.35
6138,24.02
6149,21.73
6161,19.48
6173,17.16
6185,14.61
6197,11.71
6209,8.51
6221,5.11
6233,1.74
6245,-1.43
6257,-4.4
6269,-7.32
6281,-10.5
6293,-14.19
6305,-18.52
6317,-23.33
6328,-28.26
6339,-32.91
6351,-36.98
6363,-40.44
6375,-43.58
6387,-46.88
6399,-50.82
6411,-55.66
6423,-61.13
6435,-66.47
6447,-70.5
6459,-71.94
6471,-69.86
6483,-63.93
6495,-54.5
6507,-42.56
6518,-29.36
6529,-16.15
6541,-3.9
6553,6.82
6565,15.78
6577,22.99
6589,28.6
6601,32.75
6613,35.57
6625,37.13
6637,37.58
6649,37.17
6661,36.24
6673,35.17
6685,34.24
6697,33.54
6708,33.0
6719,32.43
6731,31.69
6743,30.79
6755,29.86
6767,29.08
6779,28.55
6791,28.18
6803,27.73
6815,26.93
6827,25.61
6839,23.8
6851,21.69
6863,19.5
6875,17.37
6887,15.27
6898,13.02
6909,10.41
6921,7.35
6933,3.92
6945,0.38
6957,-2.94
6969,-5.81
6981,-8.2
6993,-10.2
7005,-12.04
7017,-13.9
7029,-15.84
7041,-17.86
7053,-19.91
7065,-21.97
7077,-24.11
7088,-26.52
7099,-29.38
7111,-32.91
7123,-37.24
7135,-42.32
7147,-47.89
7159,-53.38
7171,-57.97
7183,-60.63
7195,-60.43
7207,-56.71
7219,-49.46
7231,-39.29
7243,-27.31
7255,-14.78
7267,-2.82
7278,7.9
7289,17.12
7301,24.89
7313,31.3
7325,36.37
7337,39.96
7349,41.96
7361,42.41
7373,41.56
7385,39.92
7397,38.07
7409,36.49
7421,35.46
7433,34.99
7445,34.88
7457,34.91
7468,34.88
7479,34.71
7491,34.31
7503,33.58
7515,32.34
7527,30.52
7539,28.14
7551,25.43
7563,22.73
7575,20.32
7587,18.33
7599,16.6
7611,14.83
7623,12.65
7635,9.92
7647,6.7
7658,3.25
7669,-0.09
7681,-3.09
7693,-5.69
7705,-8.04
7717,-10.39
7729,-13.0
7741,-15.95
7753,-19.17
7765,-22.45
7777,-25.55
7789,-28.33
7801,-30.79
7813,-33.13
7825,-35.66
7837,-38.75
7848,-42.74
7859,-47.77
7871,-53.69
7883,-59.91
7895,-65.46
7907,-69.12
7919,-69.75
7931,-66.63
7943,-59.62
7955,-49.29
7967,-36.64
7979,-22.93
7991,-9.35
8003,3.12
8015,13.83
8027,22.53
8038,29.18
8049,34.0
8061,37.24
8073,39.12
8085,39.83
8097,39.55
8109,38.56
8121,37.24
8133,36.05
8145,35.34
8157,35.25
8169,35.7
8181,36.43
8193,37.18
8205,37.79
8217,38.2
8228,38.39
8239,38.3
8251,37.8
8263,36.76
8275,35.1
8287,32.87
8299,30.28
8311,27.58
8323,25.03
8335,22.72
8347,20.64
8359,18.57
8371,16.25
8383,13.47
8395,10.17
8407,6.51
8418,2.76
8429,-0.79
8441,-4.07
8453,-7.19
8465,-10.41
8477,-13.93
8489,-17.75
8501,-21.74
8513,-25.59
8525,-29.09
8537,-32.12
8549,-34.72
8561,-37.04
8573,-39.29
8585,-41.81
8597,-44.98
8608,-49.17
8619,-54.44
8631,-60.37
8643,-65.88
8655,-69.56
8667,-70.03
8679,-66.46
8691,-58.82
8703,-47.89
8715,-34.96
8727,-21.38
8739,-8.3
8751,3.53
8763,13.76
8775,22.3
8787,29.23
8798,34.63
8809,38.61
8821,41.27
8833,42.73
8845,43.2
8857,42.94
8869,42.3
8881,41.56
8893,40.95
8905,40.47
8917,40.06
8929,39.55
8941,38.85
8953,37.94
8965,36.89
8977,35.76
8988,34.61
8999,33.38
9011,31.93
9023,30.11
9035,27.8
9047,25.01
9059,21.95
9071,18.87
9083,16.08
9095,13.71
9107,11.69
9119,9.71
9131,7.42
9143,4.58
9155,1.17
9167,-2.46
9178,-5.86
9189,-8.62
9201,-10.61
9213,-12.02
9225,-13.33
9237,-15.04
9249,-17.52
9261,-20.85
9273,-24.79
9285,-28.94
9297,-32.87
9309,-36.31
9321,-39.24
9333,-41.83
9345,-44.4
9357,-47.32
9368,-50.9
9379,-55.26
9391,-60.27
9403,-65.38
9415,-69.72
9427,-72.17
9439,-71.7
9451,-67.69
9463,-60.16
9475,-49.78
9487,-37.65
9499,-24.96
9511,-12.71
9523,-1.58
9535,8.11
9547,16.2
9558,22.68
9569,27.56
9581,30.9
9593,32.81
9605,33.53
9617,33.38
9629,32.74
9641,31.97
9653,31.35
9665,31.03
9677,31.01
9689,31.11
9701,31.18
9713,31.08
9725,30.81
9737,30.48
9748,30.24
9759,30.21
9771,30.34
9783,30.47
9795,30.31
9807,29.65
9819,28.42
9831,26.75
9843,24.9
9855,23.18
9867,21.74
9879,20.53
9891,19.33
9903,17.82
9915,15.81
9927,13.27
9938,10.36
9949,7.34
9961,4.43
9973,1.71
9985,-0.87
9997,-3.46
10009,-6.2
10021,-9.19
10033,-12.44
10045,-15.91
10057,-19.42
10069,-22.79
10081,-25.85
10093,-28.5
10105,-30.85
10117,-33.22
10128,-36.02
10139,-39.62
10151,-44.1
10163,-49.07
10175,-53.7
10187,-56.92
10199,-57.69
10211,-55.33
10223,-49.72
10235,-41.34
10247,-31.11
10259,-20.09
10271,-9.26
10283,0.71
10295,9.48
10307,16.9
10318,22.94
10329,27.54
10341,30.71
10353,32.44
10365,32.9
10377,32.38
10389,31.27
10401,29.97
10413,28.85
10425,28.09
10437,27.82
10449,28.0
10461,28.54
10473,29.25
10485,29.93
10497,30.34
10508,30.36
10519,29.94
10531,29.07
10543,27.82
10555,26.24
10567,24.37
10579,22.22
10591,19.9
10603,17.55
10615,15.37
10627,13.52
10639,12.04
10651,10.8
10663,9.51
10675,7.96
10687,6.0
10698,3.74
10709,1.38
10721,-0.83
10733,-2.73
10745,-4.36
10757,-5.92
10769,-7.75
10781,-10.11
10793,-13.09
10805,-16.58
10817,-20.27
10829,-23.82
10841,-26.95
10853,-29.65
10865,-32.05
10877,-34.5
10888,-37.37
10899,-40.92
10911,-45.29
10923,-50.41
10935,-55.91
10947,-61.12
10959,-65.08
10971,-66.71
10983,-65.11
10995,-59.91
11007,-51.46
11019,-40.72
11031,-29.01
11043,-17.58
11055,-7.24
11067,1.71
11078,9.4
11089,16.08
11101,21.89
11113,26.77
11125,30.54
11137,33.02
11149,34.27
11161,34.51
11173,34.08
11185,33.38
11197,32.71
11209,32.27
11221,32.18
11233,32.46
11245,33.04
11257,33.78
11268,34.49
11279,35.0
11291,35.22
11303,35.09
11315,34.6
11327,33.69
11339,32.29
11351,30.33
11363,27.88
11375,25.15
11387,22.4
11399,19.91
11411,17.74
11423,15.78
11435,13.85
11447,11.76
11458,9.46
11469,7.0
11481,4.45
11493,1.86
11505,-0.79
11517,-3.51
11529,-6.19
11541,-8.68
11553,-10.9
11565,-12.87
11577,-14.76
11589,-16.85
11601,-19.36
11613,-22.3
11625,-25.4
11637,-28.33
11648,-30.78
11659,-32.71
11671,-34.31
11683,-36.04
11695,-38.39
11707,-41.76
11719,-46.25
11731,-51.52
11743,-56.81
11755,-61.0
11767,-62.89
11779,-61.54
11791,-56.52
11803,-48.15
11815,-37.36
11827,-25.42
11838,-13.6
11849,-2.88
11861,6.26
11873,13.72
11885,19.68
11897,24.4
11909,28.08
11921,30.85
11933,32.77
11945,33.9
11957,34.35
11969,34.3
11981,33.96
11993,33.51
12005,33.01
12017,32.46
12028,31.79
12039,31.02
12051,30.22
12063,29.56
12075,29.16
12087,29.06
12099,29.14
12111,29.13
12123,28.79
12135,27.92
12147,26.49
12159,24.59
12171,22.43
12183,20.22
12195,18.13
12207,16.27
12218,14.61
12229,13.04
12241,11.35
12253,9.35
12265,6.94
12277,4.16
12289,1.15
12301,-1.83
12313,-4.61
12325,-7.11
12337,-9.34
12349,-11.45
12361,-13.56
12373,-15.73
12385,-17.98
12397,-20.34
12408,-22.79
12419,-25.34
12431,-27.94
12443,-30.47
12455,-32.82
12467,-34.93
12479,-36.85
12491,-38.8
12503,-41.11
12515,-44.08
12527,-47.81
12539,-52.03
12551,-56.03
12563,-58.76
12575,-59.19
12587,-56.57
12598,-50.76
12609,-42.25
12621,-31.97
12633,-21.02
12645,-10.31
12657,-0.4
12669,8.41
12681,15.98
12693,22.2
12705,26.96
12717,30.19
12729,31.94
12741,32.47
12753,32.15
12765,31.4
12777,30.58
12788,29.9
12799,29.39
12811,29.06
12823,28.86
12835,28.77
12847,28.79
12859,28.93
12871,29.14
12883,29.3
12895,29.26
12907,28.85
12919,28.03
12931,26.83
12943,25.41
12955,23.92
12967,22.52
12978,21.27
12989,20.19
13001,19.23
13013,18.22
13025,16.93
13037,15.09
13049,12.5
13061,9.14
13073,5.24
13085,1.21
13097,-2.48
13109,-5.52
13121,-7.9
13133,-9.88
13145,-11.86
13157,-14.18
13168,-17.01
13179,-20.29
13191,-23.81
13203,-27.29
13215,-30.49
13227,-33.29
13239,-35.69
13251,-37.86
13263,-40.11
13275,-42.89
13287,-46.57
13299,-51.31
13311,-56.78
13323,-62.16
13335,-66.29
13347,-67.97
13358,-66.28
13369,-60.93
13381,-52.28
13393,-41.24
13405,-29.03
13417,-16.83
13429,-5.54
13441,4.29
13453,12.51
13465,19.23
13477,24.65
13489,28.95
13501,32.22
13513,34.44
13525,35.62
13537,35.8
13548,35.18
13559,34.08
13571,32.86
13583,31.83
13595,31.2
13607,31.04
13619,31.31
13631,31.86
13643,32.49
13655,33.06
13667,33.45
13679,33.57
13691,33.38
13703,32.8
13715,31.8
13727,30.33
13738,28.47
13749,26.4
13761,24.34
13773,22.49
13785,20.89
13797,19.37
13809,17.65
13821,15.48
13833,12.78
13845,9.69
13857,6.54
13869,3.63
13881,1.21
13893,-0.68
13905,-2.14
13917,-3.37
13928,-4.68
13939,-6.38
13951,-8.78
13963,-12.02
13975,-16.05
13987,-20.55
13999,-25.04
14011,-29.06
14023,-32.37
14035,-35.07
14047,-37.6
14059,-40.59
14071,-44.6
14083,-49.88
14095,-56.18
14107,-62.67
14118,-68.1
14129,-71.11
14141,-70.53
14153,-65.83
14165,-57.24
14177,-45.67
14189,-32.51
14201,-19.14
14213,-6.73
14225,4.02
14237,12.87
14249,19.88
14261,25.36
14273,29.58
14285,32.78
14297,35.09
14308,36.57
14319,37.26
14331,37.26
14343,36.75
14355,35.95
14367,35.08
14379,34.27
14391,33.58
14403,32.98
14415,32.45
14427,32.06
14439,31.83
14451,31.82
14463,31.94
14475,31.99
14487,31.68
14498,30.78
14509,29.18
14521,26.99
14533,24.49
14545,22.01
14557,19.74
14569,17.7
14581,15.74
14593,13.59
14605,11.03
14617,8.0
14629,4.62
14641,1.08
14653,-2.38
14665,-5.64
14677,-8.64
14688,-11.41
14699,-13.99
14711,-16.45
14723,-18.92
14735,-21.52
14747,-24.37
14759,-27.49
14771,-30.72
14783,-33.81
14795,-36.48
14807,-38.63
14819,-40.39
14831,-42.19
14843,-44.58
14855,-47.95
14867,-52.39
14878,-57.55
14889,-62.69
14901,-66.79
14913,-68.83
14925,-67.98
14937,-63.83
14949,-56.49
14961,-46.58
14973,-35.03
14985,-22.9
14997,-11.1
15009,-0.26
15021,9.28
15033,17.37
15045,23.94
15057,28.95
15068,32.33
15079,34.16
15091,34.67
15103,34.21
15115,33.24
15127,32.16
15139,31.25
15151,30.61
15163,30.21
15175,30.04
15187,30.1
15199,30.44
15211,31.12
15223,32.1
15235,33.23
15247,34.2
15258,34.7
15269,34.47
15281,33.46
15293,31.79
15305,29.72
15317,27.51
15329,25.29
15341,23.02
15353,20.6
15365,17.91
15377,14.89
15389,11.65
15401,8.34
15413,5.19
15425,2.31
15437,-0.23
15448,-2.53
15459,-4.77
15471,-7.13
15483,-9.71
15495,-12.54
15507,-15.47
15519,-18.31
15531,-20.89
15543,-23.19
15555,-25.38
15567,-27.77
15579,-30.72
15591,-34.49
15603,-39.17
15615,-44.54
15627,-50.05
15638,-54.82
15649,-57.83
15661,-58.13
15673,-55.11
15685,-48.72
15697,-39.49
15709,-28.33
15721,-16.31
15733,-4.33
15745,6.93
15757,17.02
15769,25.6
15781,32.36
15793,37.1
15805,39.77
15817,40.58
15828,39.99
15839,38.59
15851,36.93
15863,35.4
15875,34.2
15887,33.32
15899,32.72
15911,32.34
15923,32.17
15935,32.2
15947,32.39
15959,32.65
15971,32.77
15983,32.55
15995,31.82
16007,30.54
16018,28.79
16029,26.74
16041,24.6
16053,22.48
16065,20.43
16077,18.36
16089,16.15
16101,13.64
16113,10.76
16125,7.53
16137,4.06
16149,0.6
16161,-2.66
16173,-5.61
16185,-8.26
16197,-10.85
16208,-13.66
16219,-16.95
16231,-20.78
16243,-25.0
16255,-29.29
16267,-33.32
16279,-36.87
16291,-39.9
16303,-42.62
16315,-45.34
16327,-48.44
16339,-52.24
16351,-56.93
16363,-62.38
16375,-68.04
16387,-72.94
16398,-75.83
16409,-75.58
16421,-71.47
16433,-63.54
16445,-52.56
16457,-39.78
16469,-26.57
16481,-14.05
16493,-2.87
16505,6.77
16517,14.96
16529,21.88
16541,27.61
16553,32.12
16565,35.38
16577,37.37
16588,38.26
16599,38.38
16611,38.18
16623,38.07
16635,38.24
16647,38.69
16659,39.25
16671,39.73
16683,39.99
16695,40.04
16707,40.0
16719,39.94
16731,39.82
16743,39.47
16755,38.62
16767,37.12
16778,35.03
16789,32.59
16801,30.21
16813,28.18
16825,26.6
16837,25.23
16849,23.67
16861,21.47
16873,18.46
16885,14.77
16897,10.8
16909,7.05
16921,3.84
16933,1.2
16945,-1.12
16957,-3.51
16968,-6.33
16979,-9.73
16991,-13.6
17003,-17.69
17015,-21.71
17027,-25.44
17039,-28.75
17051,-31.7
17063,-34.46
17075,-37.36
17087,-40.81
17099,-45.11
17111,-50.33
17123,-56.13
17135,-61.75
17147,-66.08
17158,-67.99
17169,-66.62
17181,-61.6
17193,-53.24
17205,-42.37
17217,-30.12
17229,-17.63
17241,-5.87
17253,4.58
17265,13.49
17277,20.87
17289,26.88
17301,31.65
17313,35.22
17325,37.59
17337,38.75
17348,38.81
17359,38.0
17371,36.72
17383,35.37
17395,34.3
17407,33.7
17419,33.55
17431,33.74
17443,34.04
17455,34.3
17467,34.35
17479,34.13
17491,33.57
17503,32.62
17515,31.22
17527,29.34
17538,27.01
17549,24.35
17561,21.64
17573,19.11
17585,16.96
17597,15.18
17609,13.57
17621,11.79
17633,9.54
17645,6.7
17657,3.38
17669,-0.05
17681,-3.22
17693,-5.89
17705,-8.06
17717,-9.93
17728,-11.78
17739,-13.87
17751,-16.29
17763,-19.04
17775,-21.95
17787,-24.86
17799,-27.63
17811,-30.15
17823,-32.41
17835,-34.48
17847,-36.62
17859,-39.17
17871,-42.46
17883,-46.6
17895,-51.26
17907,-55.63
17918,-58.6
17929,-59.02
17941,-56.14
17953,-49.79
17965,-40.43
17977,-29.03
17989,-16.76
18001,-4.73
18013,6.2
18025,15.52
18037,23.06
18049,28.83
18061,32.98
18073,35.65
18085,36.97
18097,37.13
18108,36.38
18119,35.18
18131,33.98
18143,33.13
18155,32.72
18167,32.61
18179,32.57
18191,32.4
18203,32.13
18215,31.86
18227,31.77
18239,31.87
18251,31.98
18263,31.84
18275,31.19
18287,29.97
18298,28.23
18309,26.13
18321,23.81
18333,21.42
18345,19.02
18357,16.63
18369,14.2
18381,11.6
18393,8.67
18405,5.32
18417,1.62
18429,-2.12
18441,-5.5
18453,-8.22
18465,-10.28
18477,-12.02
18488,-13.94
18499,-16.46
18511,-19.67
18523,-23.33
18535,-26.98
18547,-30.23
18559,-32.9
18571,-35.11
18583,-37.16
18595,-39.36
18607,-42.02
18619,-45.34
18631,-49.47
18643,-54.37
18655,-59.72
18667,-64.72
18678,-68.24
18689,-69.01
18701,-66.13
18713,-59.32
18725,-49.14
18737,-36.73
18749,-23.5
18761,-10.68
18773,0.95
18785,11.04
18797,19.59
18809,26.69
18821,32.39
18833,36.7
18845,39.61
18857,41.15
18868,41.5
18879,40.94
18891,39.84
18903,38.56
18915,37.39
18927,36.51
18939,35.95
18951,35.7
18963,35.65
18975,35.69
18987,35.7
18999,35.55
19011,35.15
19023,34.43
19035,33.36
19047,31.95
19058,30.24
19069,28.29
19081,26.21
19093,24.1
19105,22.07
19117,20.17
19129,18.37
19141,16.55
19153,14.57
19165,12.25
19177,9.48
19189,6.33
19201,2.97
19213,-0.33
19225,-3.29
19237,-5.76
19248,-7.78
19259,-9.62
19271,-11.61
19283,-14.09
19295,-17.2
19307,-20.94
19319,-25.08
19331,-29.38
19343,-33.57
19355,-37.51
19367,-41.15
19379,-44.6
19391,-48.08
19403,-51.91
19415,-56.37
19427,-61.49
19438,-66.89
19449,-71.72
19461,-74.86
19473,-75.11
19485,-71.72
19497,-64.52
19509,-54.07
19521,-41.5
19533,-28.08
19545,-15.01
19557,-3.09
19569,7.25
19581,15.96
19593,23.1
19605,28.81
19617,33.21
19628,36.39
19639,38.52
19651,39.81
19663,40.53
19675,40.89
19687,41.01
19699,40.93
19711,40.62
19723,40.11
19735,39.53
19747,39.03
19759,38.76
19771,38.68
19783,38.64
19795,38.38
19807,37.7
19818,36.52
19829,34.96
19841,33.17
19853,31.3
19865,29.34
19877,27.22
19889,24.9
19901,22.37
19913,19.76
19925,17.16
19937,14.66
19949,12.14
19961,9.48
19973,6.54
19985,3.32
19997,-0.0
20008,-3.19
20019,-6.02
20031,-8.43
20043,-10.53
20055,-12.59
20067,-14.91
20079,-17.69
20091,-20.93
20103,-24.47
20115,-28.01
20127,-31.26
20139,-34.03
20151,-36.3
20163,-38.29
20175,-40.3
20187,-42.75
20198,-46.0
20209,-50.28
20221,-55.59
20233,-61.52
20245,-67.27
20257,-71.69
20269,-73.54
20281,-71.82
20293,-66.13
20305,-56.82
20317,-44.9
20329,-31.75
20341,-18.61
20353,-6.43
20365,4.34
20377,13.56
20388,21.26
20399,27.48
20411,32.23
20423,35.55
20435,37.53
20447,38.36
20459,38.27
20471,37.56
20483,36.56
20495,35.61
20507,34.98
20519,34.8
20531,35.05
20543,35.52
20555,35.97
20567,36.2
20578,36.13
20589,35.8
20601,35.25
20613,34.55
20625,33.64
20637,32.48
20649,31.08
20661,29.49
20673,27.8
20685,26.09
20697,24.39
20709,22.62
20721,20.7
20733,18.5
20745,15.99
20757,13.21
20768,10.24
20779,7.22
20791,4.3
20803,1.6
20815,-0.85
20827,-3.12
20839,-5.36
20851,-7.71
20863,-10.24
20875,-12.92
20887,-15.65
20899,-18.32
20911,-20.86
20923,-23.27
20935,-25.52
20947,-27.63
20958,-29.62
20969,-31.59
20981,-33.8
20993,-36.6
