seconds,BVP
6,6.58
17,6.13
29,5.48
41,4.67
53,3.72
65,2.64
77,1.54
89,0.55
101,-0.16
113,-0.51
125,-0.5
137,-0.28
149,-0.04
161,0.03
173,-0.14
185,-0.52
196,-0.96
207,-1.28
219,-1.41
231,-1.35
243,-1.24
255,-1.24
267,-1.42
279,-1.75
291,-2.04
303,-2.13
315,-1.87
327,-1.28
339,-0.52
351,0.19
363,0.67
375,0.87
386,0.88
397,0.88
409,1.04
421,1.43
433,2.01
445,2.62
457,3.15
469,3.5
481,3.69
493,3.8
505,3.9
517,4.04
529,4.22
541,4.41
553,4.59
565,4.77
576,5.0
587,5.3
599,5.62
611,5.85
623,5.82
635,5.43
647,4.66
659,3.63
671,2.54
683,1.61
695,0.94
707,0.57
719,0.48
731,0.63
743,1.02
755,1.63
766,2.41
777,3.24
789,3.98
801,4.53
813,4.85
825,4.93
837,4.77
849,4.33
861,3.54
873,2.4
885,0.99
897,-0.54
909,-2.03
921,-3.4
933,-4.68
945,-5.87
956,-6.97
967,-7.91
979,-8.6
991,-9.01
1003,-9.22
1015,-9.4
1027,-9.68
1039,-10.1
1051,-10.57
1063,-10.95
1075,-11.12
1087,-11.06
1099,-10.87
1111,-10.7
1123,-10.64
1135,-10.71
1146,-10.77
1157,-10.64
1169,-10.15
1181,-9.21
1193,-7.87
1205,-6.27
1217,-4.59
1229,-2.99
1241,-1.62
1253,-0.53
1265,0.23
1277,0.64
1289,0.69
1301,0.4
1313,-0.22
1325,-1.07
1336,-2.02
1347,-2.9
1359,-3.55
1371,-3.84
1383,-3.75
1395,-3.34
1407,-2.73
1419,-2.03
1431,-1.33
1443,-0.65
1455,0.07
1467,0.85
1479,1.71
1491,2.65
1503,3.64
1515,4.64
1526,5.68
1537,6.75
1549,7.84
1561,8.9
1573,9.93
1585,10.9
1597,11.87
1609,12.84
1621,13.75
1633,14.46
1645,14.76
1657,14.43
1669,13.37
1681,11.66
1693,9.54
1705,7.32
1716,5.25
1727,3.5
1739,2.08
1751,0.91
1763,-0.06
1775,-0.91
1787,-1.63
1799,-2.25
1811,-2.75
1823,-3.12
1835,-3.36
1847,-3.45
1859,-3.33
1871,-3.03
1883,-2.57
1895,-2.03
1906,-1.51
1917,-1.09
1929,-0.81
1941,-0.72
1953,-0.81
1965,-1.08
1977,-1.45
1989,-1.77
2001,-1.89
2013,-1.7
2025,-1.21
2037,-0.56
2049,0.06
2061,0.48
2073,0.67
2085,0.75
2096,0.86
2107,1.09
2119,1.36
2131,1.48
2143,1.22
2155,0.47
2167,-0.7
2179,-2.08
2191,-3.47
2203,-4.72
2215,-5.86
2227,-7.02
2239,-8.29
2251,-9.66
2263,-10.99
2275,-12.06
2286,-12.69
2297,-12.87
2309,-12.67
2321,-12.27
2333,-11.77
2345,-11.22
2357,-10.57
2369,-9.75
2381,-8.75
2393,-7.59
2405,-6.35
2417,-5.08
2429,-3.78
2441,-2.46
2453,-1.12
2465,0.18
2476,1.32
2487,2.18
2499,2.7
2511,2.88
2523,2.81
2535,2.58
2547,2.27
2559,1.94
2571,1.64
2583,1.37
2595,1.13
2607,0.89
2619,0.65
2631,0.43
2643,0.3
2655,0.32
2666,0.56
2677,1.0
2689,1.59
2701,2.2
2713,2.73
2725,3.08
2737,3.17
2749,3.0
2761,2.52
2773,1.77
2785,0.79
2797,-0.26
2809,-1.19
2821,-1.82
2833,-2.02
2845,-1.78
2856,-1.19
2867,-0.44
2879,0.27
2891,0.81
2903,1.14
2915,1.33
2927,1.5
2939,1.73
2951,2.07
2963,2.46
2975,2.85
2987,3.13
2999,3.26
3011,3.2
3023,2.96
3035,2.55
3046,2.08
3057,1.67
3069,1.44
3081,1.45
3093,1.68
3105,2.04
3117,2.41
3129,2.71
3141,2.91
3153,3.06
3165,3.19
3177,3.34
3189,3.48
3201,3.51
3213,3.39
3225,3.09
3236,2.7
3247,2.31
3259,2.02
3271,1.89
3283,1.91
3295,2.03
3307,2.19
3319,2.39
3331,2.62
3343,2.86
3355,3.04
3367,3.07
3379,2.8
3391,2.16
3403,1.16
3415,-0.07
3426,-1.34
3437,-2.49
3449,-3.43
3461,-4.17
3473,-4.77
3485,-5.34
3497,-5.93
3509,-6.53
3521,-7.05
3533,-7.39
3545,-7.5
3557,-7.4
3569,-7.15
3581,-6.85
3593,-6.57
3605,-6.34
3616,-6.14
3627,-6.0
3639,-5.97
3651,-6.11
3663,-6.48
3675,-7.03
3687,-7.66
3699,-8.25
3711,-8.73
3723,-9.08
3735,-9.42
3747,-9.88
3759,-10.56
3771,-11.48
3783,-12.56
3795,-13.63
3806,-14.54
3817,-15.13
3829,-15.3
3841,-14.96
3853,-14.07
3865,-12.59
3877,-10.56
3889,-8.06
3901,-5.21
3913,-2.12
3925,1.08
3937,4.35
3949,7.64
3961,10.92
3973,14.15
3985,17.31
3996,20.34
4007,23.21
4019,25.87
4031,28.25
4043,30.25
4055,31.76
4067,32.69
4079,32.99
4091,32.64
4103,31.65
4115,30.1
4127,28.06
4139,25.69
4151,23.16
4163,20.68
4175,18.42
4186,16.55
4197,15.13
4209,14.16
4221,13.56
4233,13.24
4245,13.06
4257,12.93
4269,12.73
4281,12.36
4293,11.75
4305,10.89
4317,9.82
4329,8.65
4341,7.52
4353,6.55
4365,5.83
4376,5.38
4387,5.17
4399,5.13
4411,5.23
4423,5.49
4435,5.99
4447,6.84
4459,8.09
4471,9.7
4483,11.51
4495,13.29
4507,14.85
4519,16.06
4531,16.96
4543,17.67
4555,18.29
4566,18.87
4577,19.32
4589,19.45
4601,19.06
4613,17.97
4625,16.1
4637,13.4
4649,9.92
4661,5.78
4673,1.19
4685,-3.58
4697,-8.26
4709,-12.59
4721,-16.45
4733,-19.83
4745,-22.75
4756,-25.28
4767,-27.42
4779,-29.19
4791,-30.57
4803,-31.6
4815,-32.34
4827,-32.86
4839,-33.21
4851,-33.44
4863,-33.62
4875,-33.78
4887,-33.99
4899,-34.31
4911,-34.76
4923,-35.35
4935,-36.09
4946,-36.95
4957,-37.88
4969,-38.75
4981,-39.36
4993,-39.47
5005,-38.91
5017,-37.58
5029,-35.49
5041,-32.7
5053,-29.21
5065,-24.97
5077,-19.89
5089,-13.9
5101,-7.09
5113,0.36
5125,8.13
5136,15.93
5147,23.47
5159,30.55
5171,37.01
5183,42.73
5195,47.56
5207,51.38
5219,54.04
5231,55.39
5243,55.24
5255,53.41
5267,49.72
5279,44.1
5291,36.75
5303,28.13
5315,18.94
5326,10.09
5337,2.36
5349,-3.64
5361,-7.65
5373,-9.73
5385,-10.14
5397,-9.18
5409,-7.12
5421,-4.07
5433,-0.06
5445,4.9
5457,10.68
5469,17.03
5481,23.6
5493,30.02
5505,35.94
5516,41.08
5527,45.16
5539,47.92
5551,49.06
5563,48.38
5575,45.88
5587,41.8
5599,36.64
5611,30.98
5623,25.3
5635,19.87
5647,14.72
5659,9.74
5671,4.85
5683,0.08
5695,-4.43
5706,-8.48
5717,-11.94
5729,-14.82
5741,-17.32
5753,-19.66
5765,-22.08
5777,-24.68
5789,-27.36
5801,-29.96
5813,-32.25
5825,-34.06
5837,-35.28
5849,-35.92
5861,-36.01
5873,-35.67
5885,-35.06
5896,-34.4
5907,-33.9
5919,-33.76
5931,-34.06
5943,-34.73
5955,-35.55
5967,-36.27
5979,-36.62
5991,-36.37
6003,-35.37
6015,-33.51
6027,-30.8
6039,-27.35
6051,-23.44
6063,-19.49
6075,-15.89
6086,-12.89
6097,-10.5
6109,-8.48
6121,-6.49
6133,-4.25
6145,-1.68
6157,1.12
6169,3.92
6181,6.52
6193,8.83
6205,10.85
6217,12.66
6229,14.29
6241,15.76
6253,17.04
6265,18.13
6276,19.08
6287,20.0
6299,20.94
6311,21.95
6323,22.97
6335,23.89
6347,24.58
6359,24.93
6371,24.87
6383,24.36
6395,23.34
6407,21.81
6419,19.78
6431,17.38
6443,14.83
6455,12.43
6466,10.5
6477,9.23
6489,8.65
6501,8.64
6513,8.95
6525,9.37
6537,9.71
6549,9.87
6561,9.78
6573,9.37
6585,8.55
6597,7.18
6609,5.12
6621,2.28
6633,-1.3
6645,-5.4
6656,-9.66
6667,-13.68
6679,-17.12
6691,-19.86
6703,-22.01
6715,-23.82
6727,-25.59
6739,-27.53
6751,-29.71
6763,-32.13
6775,-34.69
6787,-37.3
6799,-39.81
6811,-42.07
6823,-43.94
6835,-45.34
6846,-46.26
6857,-46.74
6869,-46.83
6881,-46.51
6893,-45.74
6905,-44.4
6917,-42.38
6929,-39.64
6941,-36.18
6953,-32.07
6965,-27.42
6977,-22.36
6989,-17.11
7001,-11.86
7013,-6.86
7025,-2.29
7036,1.72
7047,5.12
7059,7.94
7071,10.26
7083,12.2
7095,13.85
7107,15.29
7119,16.51
7131,17.46
7143,18.02
7155,18.12
7167,17.68
7179,16.79
7191,15.6
7203,14.34
7215,13.22
7226,12.33
7237,11.7
7249,11.22
7261,10.81
7273,10.42
7285,10.06
7297,9.76
7309,9.45
7321,9.08
7333,8.55
7345,7.9
7357,7.23
7369,6.68
7381,6.34
7393,6.17
7405,6.04
7416,5.81
7427,5.48
7439,5.16
7451,5.04
7463,5.21
7475,5.62
7487,6.04
7499,6.26
7511,6.16
7523,5.8
7535,5.44
7547,5.34
7559,5.67
7571,6.4
7583,7.38
7595,8.42
7606,9.36
7617,10.19
7629,10.96
7641,11.73
7653,12.47
7665,13.12
7677,13.62
7689,13.94
7701,14.12
7713,14.17
7725,14.11
7737,13.85
7749,13.28
7761,12.32
7773,10.94
7785,9.22
7796,7.24
7807,5.11
7819,2.87
7831,0.6
7843,-1.61
7855,-3.71
7867,-5.64
7879,-7.44
7891,-9.14
7903,-10.82
7915,-12.48
7927,-14.04
7939,-15.39
7951,-16.41
7963,-17.12
7975,-17.6
7986,-17.98
7997,-18.37
8009,-18.74
8021,-18.95
8033,-18.8
8045,-18.1
8057,-16.79
8069,-14.88
8081,-12.46
8093,-9.66
8105,-6.61
8117,-3.44
8129,-0.35
8141,2.45
8153,4.77
8165,6.48
8176,7.56
8187,8.12
8199,8.35
8211,8.42
8223,8.47
8235,8.55
8247,8.61
8259,8.58
8271,8.37
8283,7.96
8295,7.38
8307,6.73
8319,6.1
8331,5.6
8343,5.26
8355,5.07
8366,4.97
8377,4.92
8389,4.86
8401,4.7
8413,4.38
8425,3.82
8437,2.91
8449,1.51
8461,-0.51
8473,-3.22
8485,-6.59
8497,-10.48
8509,-14.64
8521,-18.75
8533,-22.46
8545,-25.49
8556,-27.61
8567,-28.72
8579,-28.79
8591,-27.86
8603,-26.03
8615,-23.53
8627,-20.59
8639,-17.52
8651,-14.55
8663,-11.86
8675,-9.52
8687,-7.49
8699,-5.74
8711,-4.22
8723,-2.92
8735,-1.84
8746,-0.92
8757,-0.05
8769,0.95
8781,2.22
8793,3.76
8805,5.4
8817,6.85
8829,7.8
8841,8.06
8853,7.69
8865,6.95
8877,6.18
8889,5.65
8901,5.48
8913,5.55
8925,5.63
8936,5.51
8947,5.04
8959,4.25
8971,3.22
8983,2.07
8995,0.83
9007,-0.51
9019,-1.98
9031,-3.57
9043,-5.14
9055,-6.46
9067,-7.3
9079,-7.56
9091,-7.25
9103,-6.56
9115,-5.68
9126,-4.68
9137,-3.48
9149,-1.85
9161,0.42
9173,3.44
9185,7.11
9197,11.16
9209,15.27
9221,19.11
9233,22.5
9245,25.34
9257,27.63
9269,29.35
9281,30.52
9293,31.1
9305,31.06
9316,30.37
9327,29.05
9339,27.14
9351,24.68
9363,21.73
9375,18.3
9387,14.37
9399,9.93
9411,5.02
9423,-0.17
9435,-5.29
9447,-9.88
9459,-13.48
9471,-15.75
9483,-16.62
9495,-16.35
9506,-15.4
9517,-14.37
9529,-13.72
9541,-13.7
9553,-14.25
9565,-15.06
9577,-15.77
9589,-16.06
9601,-15.81
9613,-15.14
9625,-14.34
9637,-13.72
9649,-13.53
9661,-13.84
9673,-14.48
9685,-15.18
9696,-15.58
9707,-15.38
9719,-14.42
9731,-12.72
9743,-10.47
9755,-7.94
9767,-5.45
9779,-3.24
9791,-1.47
9803,-0.16
9815,0.75
9827,1.38
9839,1.87
9851,2.3
9863,2.72
9875,3.11
9886,3.46
9897,3.7
9909,3.8
9921,3.75
9933,3.58
9945,3.36
9957,3.15
9969,3.01
9981,2.96
9993,2.98
10005,3.02
10017,3.07
10029,3.17
10041,3.4
10053,3.81
10065,4.31
10076,4.75
10087,4.95
10099,4.84
10111,4.5
10123,4.15
10135,3.95
10147,3.91
10159,3.87
10171,3.57
10183,2.94
10195,2.11
10207,1.43
10219,1.26
10231,1.74
10243,2.75
10255,3.94
10266,4.92
10277,5.47
10289,5.57
10301,5.36
10313,5.02
10325,4.65
10337,4.27
10349,3.91
10361,3.56
10373,3.3
10385,3.15
10397,3.14
10409,3.21
10421,3.33
10433,3.47
10445,3.64
10456,3.88
10467,4.2
10479,4.56
10491,4.86
10503,4.99
10515,4.83
10527,4.31
10539,3.47
10551,2.41
10563,1.32
10575,0.44
10587,-0.1
10599,-0.23
10611,-0.02
10623,0.42
10635,0.99
10646,1.6
10657,2.22
10669,2.84
10681,3.38
10693,3.77
10705,3.91
10717,3.77
10729,3.42
10741,3.04
10753,2.81
10765,2.87
10777,3.25
10789,3.84
10801,4.49
10813,5.05
10825,5.44
10836,5.71
10847,5.98
10859,6.35
10871,6.87
10883,7.47
10895,8.03
10907,8.42
10919,8.59
10931,8.54
10943,8.33
10955,7.99
10967,7.51
10979,6.86
10991,6.06
11003,5.2
11015,4.46
11026,3.98
11037,3.83
11049,3.97
11061,4.2
11073,4.31
11085,4.11
11097,3.5
11109,2.5
11121,1.21
11133,-0.22
11145,-1.65
11157,-2.94
11169,-4.0
11181,-4.81
11193,-5.39
11205,-5.86
11216,-6.37
11227,-7.09
11239,-8.1
11251,-9.3
11263,-10.44
11275,-11.09
11287,-10.85
11299,-9.47
11311,-7.0
11323,-3.82
11335,-0.44
11347,2.62
11359,5.03
11371,6.71
11383,7.78
11395,8.44
11406,8.86
11417,9.1
11429,9.18
11441,9.09
11453,8.84
11465,8.47
11477,7.95
11489,7.25
11501,6.27
11513,4.92
11525,3.18
11537,1.14
11549,-1.02
11561,-3.07
11573,-4.83
11585,-6.24
11596,-7.39
11607,-8.52
11619,-9.93
11631,-11.76
11643,-13.94
11655,-16.09
11667,-17.69
11679,-18.2
11691,-17.36
11703,-15.26
11715,-12.29
11727,-8.94
11739,-5.68
11751,-2.81
11763,-0.46
11775,1.34
11786,2.57
11797,3.3
11809,3.68
11821,3.93
11833,4.26
11845,4.78
11857,5.43
11869,5.99
11881,6.24
11893,6.04
11905,5.42
11917,4.52
11929,3.53
11941,2.58
11953,1.72
11965,0.94
11976,0.23
11987,-0.41
11999,-0.99
12011,-1.5
12023,-1.98
12035,-2.43
12047,-2.81
12059,-3.03
12071,-3.05
12083,-2.89
12095,-2.62
12107,-2.39
12119,-2.3
12131,-2.34
12143,-2.46
12155,-2.51
12166,-2.42
12177,-2.12
12189,-1.6
12201,-0.91
12213,-0.08
12225,0.84
12237,1.74
12249,2.5
12261,2.99
12273,3.14
12285,2.97
12297,2.57
12309,2.07
12321,1.57
12333,1.18
12345,0.98
12356,1.09
12367,1.52
12379,2.2
12391,2.97
12403,3.59
12415,3.87
12427,3.81
12439,3.58
12451,3.43
12463,3.58
12475,4.08
12487,4.76
12499,5.37
12511,5.68
12523,5.66
12535,5.46
12546,5.33
12557,5.49
12569,6.05
12581,6.93
12593,7.93
12605,8.81
12617,9.4
12629,9.6
12641,9.39
12653,8.82
12665,7.91
12677,6.68
12689,5.15
12701,3.4
12713,1.61
12725,-0.0
12736,-1.25
12747,-2.09
12759,-2.64
12771,-3.11
12783,-3.69
12795,-4.46
12807,-5.35
12819,-6.23
12831,-6.99
12843,-7.64
12855,-8.26
12867,-8.93
12879,-9.68
12891,-10.44
12903,-11.14
12915,-11.69
12926,-12.04
12937,-12.16
12949,-12.02
12961,-11.63
12973,-11.04
12985,-10.38
12997,-9.78
13009,-9.32
13021,-8.95
13033,-8.5
13045,-7.85
13057,-6.94
13069,-5.89
13081,-4.89
13093,-4.06
13105,-3.34
13116,-2.55
13127,-1.51
13139,-0.22
13151,1.09
13163,2.11
13175,2.57
13187,2.45
13199,1.98
13211,1.56
13223,1.48
13235,1.82
13247,2.38
13259,2.86
13271,2.95
13283,2.54
13295,1.67
13306,0.54
13317,-0.64
13329,-1.74
13341,-2.76
13353,-3.8
13365,-5.0
13377,-6.46
13389,-8.19
13401,-10.17
13413,-12.29
13425,-14.41
13437,-16.3
13449,-17.66
13461,-18.11
13473,-17.33
13485,-15.18
13496,-11.75
13507,-7.46
13519,-2.93
13531,1.2
13543,4.38
13555,6.35
13567,7.13
13579,6.99
13591,6.3
13603,5.44
13615,4.7
13627,4.21
13639,4.0
13651,4.0
13663,4.09
13675,4.19
13686,4.23
13697,4.14
13709,3.88
13721,3.44
13733,2.87
13745,2.27
13757,1.83
13769,1.73
13781,2.08
13793,2.86
13805,3.9
13817,4.97
13829,5.87
13841,6.5
13853,6.84
13865,7.0
13876,7.05
13887,7.06
13899,7.01
13911,6.85
13923,6.53
13935,6.05
13947,5.46
13959,4.88
13971,4.43
13983,4.18
13995,4.14
14007,4.21
14019,4.24
14031,4.05
14043,3.56
14055,2.75
14066,1.69
14077,0.47
14089,-0.75
14101,-1.82
14113,-2.61
14125,-2.99
14137,-2.92
14149,-2.42
14161,-1.6
14173,-0.6
14185,0.43
14197,1.37
14209,2.13
14221,2.66
14233,2.94
14245,3.02
14256,3.02
14267,3.06
14279,3.21
14291,3.4
14303,3.51
14315,3.37
14327,2.93
14339,2.23
14351,1.4
14363,0.58
14375,-0.14
14387,-0.71
14399,-1.13
14411,-1.37
14423,-1.44
14435,-1.39
14446,-1.29
14457,-1.29
14469,-1.46
14481,-1.78
14493,-2.11
14505,-2.28
14517,-2.17
14529,-1.79
14541,-1.29
14553,-0.88
14565,-0.71
14577,-0.87
14589,-1.31
14601,-1.87
14613,-2.35
14625,-2.57
14636,-2.49
14647,-2.13
14659,-1.61
14671,-1.09
14683,-0.66
14695,-0.37
14707,-0.18
14719,-0.02
14731,0.21
14743,0.53
14755,0.96
14767,1.47
14779,1.98
14791,2.42
14803,2.72
14815,2.82
14826,2.69
14837,2.36
14849,1.96
14861,1.63
14873,1.45
14885,1.43
14897,1.44
14909,1.34
14921,1.02
14933,0.47
14945,-0.19
14957,-0.85
14969,-1.49
14981,-2.22
14993,-3.22
15005,-4.6
15016,-6.33
15027,-8.14
15039,-9.7
15051,-10.7
15063,-11.07
15075,-10.94
15087,-10.54
15099,-10.16
15111,-9.97
15123,-10.04
15135,-10.36
15147,-10.9
15159,-11.63
15171,-12.47
15183,-13.26
15195,-13.75
15206,-13.67
15217,-12.83
15229,-11.18
15241,-8.8
15253,-5.86
15265,-2.53
15277,1.06
15289,4.8
15301,8.5
15313,11.88
15325,14.6
15337,16.4
15349,17.2
15361,17.14
15373,16.55
15385,15.83
15396,15.28
15407,15.08
15419,15.19
15431,15.42
15443,15.43
15455,14.82
15467,13.31
15479,10.86
15491,7.76
15503,4.56
15515,1.88
15527,0.17
15539,-0.47
15551,-0.35
15563,-0.01
15575,0.02
15586,-0.55
15597,-1.67
15609,-2.99
15621,-4.03
15633,-4.4
15645,-3.93
15657,-2.75
15669,-1.08
15681,0.78
15693,2.63
15705,4.4
15717,6.09
15729,7.71
15741,9.18
15753,10.42
15765,11.32
15776,11.84
15787,11.98
15799,11.74
15811,11.06
15823,9.86
15835,8.1
15847,5.82
15859,3.22
15871,0.59
15883,-1.8
15895,-3.72
15907,-5.1
15919,-5.97
15931,-6.49
15943,-6.81
15955,-7.07
15966,-7.34
15977,-7.63
15989,-7.87
16001,-8.0
16013,-7.94
16025,-7.67
16037,-7.18
16049,-6.47
16061,-5.57
16073,-4.49
16085,-3.27
16097,-1.99
16109,-0.71
16121,0.48
16133,1.57
16145,2.53
16156,3.39
16167,4.15
16179,4.8
16191,5.3
16203,5.63
16215,5.82
16227,5.9
16239,5.92
16251,5.91
16263,5.94
16275,6.02
16287,6.17
16299,6.42
16311,6.73
16323,7.06
16335,7.35
16346,7.54
16357,7.55
16369,7.38
16381,7.04
16393,6.6
16405,6.09
16417,5.5
16429,4.76
16441,3.76
16453,2.4
16465,0.64
16477,-1.46
16489,-3.71
16501,-5.83
16513,-7.54
16525,-8.63
16536,-9.03
16547,-8.8
16559,-8.15
16571,-7.32
16583,-6.58
16595,-6.11
16607,-5.99
16619,-6.15
16631,-6.46
16643,-6.79
16655,-7.05
16667,-7.29
16679,-7.58
16691,-8.0
16703,-8.58
16715,-9.2
16726,-9.74
16737,-10.08
16749,-10.15
16761,-9.94
16773,-9.46
16785,-8.68
16797,-7.57
16809,-6.2
16821,-4.68
16833,-3.22
16845,-2.03
16857,-1.2
16869,-0.71
16881,-0.42
16893,-0.19
16905,0.09
16916,0.45
16927,0.81
16939,1.11
16951,1.29
16963,1.33
16975,1.33
16987,1.41
16999,1.7
17011,2.26
17023,3.03
17035,3.82
17047,4.39
17059,4.51
17071,4.06
17083,3.03
17095,1.54
17106,-0.2
17117,-1.9
17129,-3.25
17141,-3.96
17153,-3.88
17165,-3.04
17177,-1.67
17189,-0.11
17201,1.34
17213,2.54
17225,3.55
17237,4.48
17249,5.39
17261,6.19
17273,6.68
17285,6.64
17296,5.99
17307,4.89
17319,3.63
17331,2.6
17343,2.07
17355,2.07
17367,2.46
17379,2.93
17391,3.26
17403,3.33
17415,3.22
17427,3.04
17439,2.86
17451,2.61
17463,2.18
17475,1.51
17486,0.71
17497,0.01
17509,-0.26
17521,0.07
17533,0.96
17545,2.17
17557,3.38
17569,4.31
17581,4.8
17593,4.83
17605,4.48
17617,3.86
17629,3.08
17641,2.27
17653,1.55
17665,0.97
17676,0.53
17687,0.2
17699,-0.11
17711,-0.47
17723,-0.89
17735,-1.33
17747,-1.74
17759,-2.08
17771,-2.32
17783,-2.47
17795,-2.6
17807,-2.8
17819,-3.15
17831,-3.69
17843,-4.31
17855,-4.82
17866,-4.96
17877,-4.52
17889,-3.42
17901,-1.74
17913,0.27
17925,2.27
17937,3.93
17949,5.02
17961,5.49
17973,5.42
17985,5.05
17997,4.66
18009,4.52
18021,4.82
18033,5.6
18045,6.8
18056,8.29
18067,9.84
18079,11.31
18091,12.52
18103,13.35
18115,13.73
18127,13.68
18139,13.24
18151,12.56
18163,11.79
18175,11.06
18187,10.46
18199,10.02
18211,9.7
18223,9.37
18235,8.92
18246,8.26
18257,7.37
18269,6.35
18281,5.37
18293,4.56
18305,4.02
18317,3.75
18329,3.65
18341,3.61
18353,3.51
18365,3.32
18377,2.99
18389,2.54
18401,1.96
18413,1.28
18425,0.57
18436,-0.05
18447,-0.47
18459,-0.65
18471,-0.62
18483,-0.54
18495,-0.57
18507,-0.77
18519,-1.14
18531,-1.57
18543,-1.98
18555,-2.43
18567,-3.07
18579,-4.11
18591,-5.69
18603,-7.66
18615,-9.69
18626,-11.28
18637,-12.05
18649,-11.86
18661,-10.85
18673,-9.43
18685,-8.03
18697,-6.96
18709,-6.34
18721,-6.11
18733,-6.14
18745,-6.3
18757,-6.56
18769,-6.89
18781,-7.29
18793,-7.69
18805,-8.0
18816,-8.16
18827,-8.2
18839,-8.17
18851,-8.17
18863,-8.24
18875,-8.38
18887,-8.59
18899,-8.8
18911,-8.93
18923,-8.85
18935,-8.45
18947,-7.68
18959,-6.61
18971,-5.39
18983,-4.22
18995,-3.24
19006,-2.48
19017,-1.87
19029,-1.34
19041,-0.86
19053,-0.48
19065,-0.3
19077,-0.41
19089,-0.8
19101,-1.42
19113,-2.17
19125,-2.94
19137,-3.64
19149,-4.21
19161,-4.61
19173,-4.91
19185,-5.18
19196,-5.55
19207,-6.07
19219,-6.69
19231,-7.29
19243,-7.75
19255,-7.98
19267,-7.97
19279,-7.75
19291,-7.33
19303,-6.67
19315,-5.68
19327,-4.34
19339,-2.73
19351,-1.07
19363,0.34
19375,1.28
19386,1.68
19397,1.66
19409,1.48
19421,1.37
19433,1.47
19445,1.74
19457,2.1
19469,2.43
19481,2.7
19493,2.97
19505,3.31
19517,3.74
19529,4.23
19541,4.66
19553,4.94
19565,5.06
19576,5.04
19587,5.0
19599,5.03
19611,5.18
19623,5.46
19635,5.81
19647,6.2
19659,6.59
19671,7.0
19683,7.47
19695,8.01
19707,8.59
19719,9.16
19731,9.64
19743,9.98
19755,10.15
19766,10.16
19777,10.05
19789,9.84
19801,9.52
19813,9.05
19825,8.36
19837,7.44
19849,6.26
19861,4.89
19873,3.43
19885,1.97
19897,0.59
19909,-0.69
19921,-1.89
19933,-3.05
19945,-4.17
19956,-5.19
19967,-6.03
19979,-6.6
19991,-6.84
20003,-6.71
20015,-6.24
20027,-5.47
20039,-4.5
20051,-3.45
20063,-2.5
20075,-1.78
20087,-1.36
20099,-1.16
20111,-1.05
20123,-0.86
20135,-0.5
20146,0.04
20157,0.66
20169,1.26
20181,1.75
20193,2.11
20205,2.4
20217,2.65
20229,2.85
20241,2.95
20253,2.89
20265,2.61
20277,2.04
20289,1.18
20301,0.07
20313,-1.16
20325,-2.38
20336,-3.45
20347,-4.23
20359,-4.72
20371,-4.97
20383,-5.14
20395,-5.35
20407,-5.67
20419,-6.02
20431,-6.25
20443,-6.16
20455,-5.69
20467,-4.88
20479,-3.93
20491,-3.05
20503,-2.38
20515,-1.96
20526,-1.73
20537,-1.56
20549,-1.36
20561,-1.11
20573,-0.87
20585,-0.73
20597,-0.73
20609,-0.89
20621,-1.12
20633,-1.32
20645,-1.4
20657,-1.31
20669,-1.07
20681,-0.79
20693,-0.57
20705,-0.51
20716,-0.6
20727,-0.74
20739,-0.78
20751,-0.58
20763,-0.12
20775,0.46
20787,0.97
20799,1.21
20811,1.14
20823,0.84
20835,0.5
20847,0.29
20859,0.28
20871,0.41
20883,0.53
20895,0.55
20906,0.44
20917,0.23
20929,-0.01
20941,-0.24
20953,-0.53
20965,-0.9
20977,-1.38
20989,-1.92
