seconds,BVP
9,-61.36
21,-68.32
33,-71.97
45,-72.2
57,-69.28
69,-63.85
81,-56.86
93,-49.4
105,-42.53
117,-37.04
129,-33.18
141,-30.62
153,-28.47
165,-25.72
176,-21.43
187,-15.11
199,-6.69
211,3.47
223,14.76
235,26.52
247,38.09
259,48.87
271,58.27
283,65.73
295,70.71
307,72.83
319,71.97
331,68.39
343,62.76
355,55.98
366,49.01
377,42.55
389,36.93
401,32.09
413,27.81
425,23.86
437,20.16
449,16.82
461,14.01
473,11.9
485,10.64
497,10.33
509,11.04
521,12.72
533,15.1
545,17.81
556,20.41
567,22.59
579,24.35
591,25.87
603,27.39
615,28.93
627,30.1
639,30.11
651,27.88
663,22.24
675,12.2
687,-2.74
699,-22.39
711,-45.6
723,-70.28
735,-93.65
746,-112.78
757,-125.29
769,-130.0
781,-127.17
793,-118.37
805,-105.92
817,-92.31
829,-79.65
841,-69.36
853,-62.01
865,-57.31
877,-54.26
889,-51.45
901,-47.46
913,-41.36
925,-32.98
936,-22.96
947,-12.62
959,-3.45
971,3.42
983,7.43
995,8.95
1007,8.93
1019,8.63
1031,9.3
1043,11.76
1055,16.24
1067,22.41
1079,29.53
1091,36.65
1103,42.89
1115,47.6
1126,50.37
1137,51.13
1149,49.98
1161,47.12
1173,42.91
1185,37.74
1197,32.1
1209,26.46
1221,21.23
1233,16.61
1245,12.58
1257,9.01
1269,5.78
1281,3.0
1293,0.95
1305,-0.03
1316,0.17
1327,1.32
1339,2.74
1351,3.65
1363,3.49
1375,2.16
1387,0.1
1399,-1.99
1411,-3.53
1423,-4.23
1435,-4.33
1447,-4.31
1459,-4.6
1471,-5.3
1483,-6.15
1495,-6.74
1506,-6.76
1517,-6.22
1529,-5.37
1541,-4.55
1553,-3.94
1565,-3.44
1577,-2.75
1589,-1.64
1601,-0.14
1613,1.46
1625,2.73
1637,3.31
1649,3.15
1661,2.49
1673,1.83
1685,1.6
1696,2.05
1707,3.11
1719,4.46
1731,5.68
1743,6.5
1755,6.8
1767,6.73
1779,6.54
1791,6.44
1803,6.53
1815,6.85
1827,7.36
1839,8.11
1851,9.18
1863,10.66
1875,12.51
1886,14.6
1897,16.69
1909,18.6
1921,20.24
1933,21.7
1945,23.14
1957,24.63
1969,26.02
1981,26.81
1993,26.22
2005,23.38
2017,17.7
2029,9.27
2041,-1.02
2053,-11.63
2065,-20.85
2076,-27.34
2087,-30.49
2099,-30.47
2111,-28.02
2123,-24.05
2135,-19.33
2147,-14.46
2159,-9.87
2171,-6.01
2183,-3.29
2195,-2.01
2207,-2.22
2219,-3.67
2231,-5.87
2243,-8.27
2255,-10.39
2266,-11.98
2277,-12.99
2289,-13.58
2301,-13.98
2313,-14.4
2325,-14.86
2337,-15.26
2349,-15.37
2361,-15.04
2373,-14.3
2385,-13.44
2397,-12.95
2409,-13.3
2421,-14.83
2433,-17.55
2445,-21.24
2456,-25.55
2467,-30.06
2479,-34.37
2491,-38.06
2503,-40.76
2515,-42.14
2527,-41.95
2539,-40.06
2551,-36.54
2563,-31.61
2575,-25.6
2587,-19.0
2599,-12.31
2611,-6.08
2623,-0.82
2635,3.1
2646,5.52
2657,6.57
2669,6.61
2681,6.16
2693,5.6
2705,5.09
2717,4.49
2729,3.42
2741,1.47
2753,-1.65
2765,-5.92
2777,-10.94
2789,-15.96
2801,-20.13
2813,-22.56
2825,-22.64
2836,-20.14
2847,-15.23
2859,-8.5
2871,-0.74
2883,7.24
2895,14.72
2907,21.11
2919,26.05
2931,29.44
2943,31.54
2955,32.99
2967,34.67
2979,37.5
2991,42.11
3003,48.61
3015,56.58
3026,65.12
3037,73.13
3049,79.52
3061,83.46
3073,84.47
3085,82.44
3097,77.55
3109,70.28
3121,61.31
3133,51.51
3145,41.84
3157,33.23
3169,26.44
3181,21.88
3193,19.45
3205,18.57
3216,18.37
3227,18.05
3239,17.17
3251,15.73
3263,14.12
3275,12.7
3287,11.67
3299,10.99
3311,10.43
3323,9.92
3335,9.55
3347,9.54
3359,9.99
3371,10.76
3383,11.45
3395,11.78
3406,11.77
3417,11.92
3429,13.08
3441,15.91
3453,20.54
3465,26.36
3477,32.08
3489,36.27
3501,37.76
3513,35.95
3525,30.84
3537,22.83
3549,12.44
3561,0.06
3573,-13.9
3585,-29.08
3596,-44.87
3607,-60.5
3619,-75.1
3631,-87.93
3643,-98.5
3655,-106.66
3667,-112.39
3679,-115.69
3691,-116.5
3703,-114.73
3715,-110.51
3727,-104.42
3739,-97.45
3751,-90.71
3763,-84.88
3775,-79.91
3786,-75.02
3797,-69.23
3809,-61.89
3821,-53.16
3833,-44.0
3845,-35.65
3857,-29.02
3869,-24.25
3881,-20.76
3893,-17.71
3905,-14.62
3917,-11.44
3929,-8.52
3941,-6.13
3953,-4.08
3965,-1.8
3976,1.39
3987,5.86
3999,11.37
4011,17.25
4023,22.73
4035,27.37
4047,31.15
4059,34.39
4071,37.5
4083,40.68
4095,43.95
4107,47.18
4119,50.15
4131,52.61
4143,54.21
4155,54.61
4166,53.57
4177,51.16
4189,47.76
4201,43.97
4213,40.35
4225,37.16
4237,34.35
4249,31.58
4261,28.55
4273,25.14
4285,21.49
4297,17.92
4309,14.81
4321,12.44
4333,10.87
4345,9.91
4356,9.12
4367,7.92
4379,5.85
4391,2.71
4403,-1.27
4415,-5.49
4427,-9.26
4439,-12.12
4451,-13.93
4463,-14.9
4475,-15.28
4487,-15.19
4499,-14.64
4511,-13.62
4523,-12.32
4535,-11.18
4546,-10.71
4557,-11.17
4569,-12.35
4581,-13.65
4593,-14.31
4605,-13.8
4617,-12.04
4629,-9.4
4641,-6.48
4653,-3.92
4665,-2.12
4677,-1.2
4689,-0.92
4701,-0.73
4713,0.04
4725,1.99
4736,5.28
4747,9.46
4759,13.64
4771,16.82
4783,18.52
4795,19.02
4807,19.26
4819,20.25
4831,22.6
4843,26.26
4855,30.61
4867,34.98
4879,38.87
4891,42.11
4903,44.6
4915,46.27
4926,47.06
4937,47.25
4949,47.69
4961,49.56
4973,53.91
4985,60.9
4997,69.47
5009,77.52
5021,82.71
5033,83.25
5045,78.54
5057,69.22
5069,56.67
5081,42.46
5093,27.8
5105,13.61
5116,0.6
5127,-10.41
5139,-18.67
5151,-23.82
5163,-26.26
5175,-27.25
5187,-28.46
5199,-31.3
5211,-36.23
5223,-42.54
5235,-48.65
5247,-52.97
5259,-54.54
5271,-53.31
5283,-50.06
5295,-45.85
5306,-41.56
5317,-37.76
5329,-34.71
5341,-32.53
5353,-31.28
5365,-30.9
5377,-31.14
5389,-31.55
5401,-31.68
5413,-31.24
5425,-30.37
5437,-29.54
5449,-29.34
5461,-30.18
5473,-32.07
5485,-34.6
5496,-37.2
5507,-39.34
5519,-40.68
5531,-41.11
5543,-40.79
5555,-40.12
5567,-39.85
5579,-41.04
5591,-44.81
5603,-51.84
5615,-61.87
5627,-73.46
5639,-84.34
5651,-92.16
5663,-95.25
5675,-93.09
5686,-86.27
5697,-76.01
5709,-63.63
5721,-50.22
5733,-36.61
5745,-23.53
5757,-11.78
5769,-2.25
5781,4.31
5793,7.45
5805,7.33
5817,4.64
5829,0.52
5841,-3.75
5853,-7.15
5865,-9.08
5876,-9.55
5887,-9.02
5899,-8.18
5911,-7.58
5923,-7.32
5935,-6.97
5947,-5.77
5959,-3.0
5971,1.64
5983,7.74
5995,14.32
6007,20.13
6019,24.19
6031,26.17
6043,26.48
6055,26.19
6066,26.57
6077,28.73
6089,33.32
6101,40.43
6113,49.69
6125,60.31
6137,71.25
6149,81.31
6161,89.31
6173,94.22
6185,95.37
6197,92.55
6209,86.21
6221,77.36
6233,67.37
6245,57.65
6256,49.26
6267,42.68
6279,37.8
6291,34.13
6303,31.12
6315,28.36
6327,25.68
6339,23.09
6351,20.64
6363,18.37
6375,16.25
6387,14.27
6399,12.4
6411,10.56
6423,8.65
6435,6.6
6446,4.45
6457,2.43
6469,0.96
6481,0.53
6493,1.47
6505,3.81
6517,7.12
6529,10.76
6541,14.08
6553,16.71
6565,18.69
6577,20.3
6589,21.82
6601,23.35
6613,24.68
6625,25.35
6636,24.91
6647,23.03
6659,19.65
6671,14.86
6683,8.88
6695,1.83
6707,-6.28
6719,-15.48
6731,-25.7
6743,-36.69
6755,-47.87
6767,-58.42
6779,-67.47
6791,-74.31
6803,-78.62
6815,-80.53
6826,-80.51
6837,-79.15
6849,-76.89
6861,-73.95
6873,-70.31
6885,-65.9
6897,-60.81
6909,-55.37
6921,-50.09
6933,-45.41
6945,-41.5
6957,-38.19
6969,-35.09
6981,-31.73
6993,-27.85
7005,-23.43
7016,-18.63
7027,-13.72
7039,-8.99
7051,-4.76
7063,-1.33
7075,1.03
7087,2.22
7099,2.43
7111,2.27
7123,2.61
7135,4.47
7147,8.76
7159,15.98
7171,26.1
7183,38.45
7195,51.75
7206,64.28
7217,74.36
7229,80.73
7241,82.94
7253,81.42
7265,77.21
7277,71.53
7289,65.31
7301,59.07
7313,52.96
7325,47.01
7337,41.28
7349,35.85
7361,30.73
7373,25.8
7385,20.84
7396,15.69
7407,10.34
7419,4.96
7431,-0.25
7443,-5.12
7455,-9.59
7467,-13.6
7479,-17.08
7491,-19.88
7503,-21.89
7515,-23.02
7527,-23.28
7539,-22.74
7551,-21.45
7563,-19.48
7575,-16.97
7586,-14.22
7597,-11.61
7609,-9.51
7621,-8.09
7633,-7.26
7645,-6.79
7657,-6.33
7669,-5.74
7681,-5.02
7693,-4.36
7705,-3.94
7717,-3.85
7729,-4.05
7741,-4.35
7753,-4.55
7765,-4.41
7776,-3.82
7787,-2.73
7799,-1.14
7811,0.81
7823,3.02
7835,5.35
7847,7.63
7859,9.72
7871,11.56
7883,13.21
7895,14.78
7907,16.46
7919,18.19
7931,19.62
7943,20.06
7955,18.6
7966,14.49
7977,7.52
7989,-1.82
8001,-12.44
8013,-22.95
8025,-32.2
8037,-39.43
8049,-44.48
8061,-47.49
8073,-48.71
8085,-48.36
8097,-46.6
8109,-43.73
8121,-40.17
8133,-36.5
8145,-33.19
8156,-30.56
8167,-28.64
8179,-27.19
8191,-25.92
8203,-24.58
8215,-23.07
8227,-21.43
8239,-19.8
8251,-18.29
8263,-16.97
8275,-15.75
8287,-14.43
8299,-12.72
8311,-10.39
8323,-7.28
8335,-3.33
8346,1.47
8357,7.16
8369,13.69
8381,20.98
8393,28.76
8405,36.53
8417,43.74
8429,49.89
8441,54.7
8453,58.16
8465,60.51
8477,62.0
8489,62.75
8501,62.65
8513,61.41
8525,58.83
8536,54.87
8547,49.83
8559,44.11
8571,38.12
8583,32.08
8595,26.08
8607,20.14
8619,14.34
8631,8.94
8643,4.25
8655,0.47
8667,-2.46
8679,-4.86
8691,-7.07
8703,-9.18
8715,-10.92
8726,-11.72
8737,-10.94
8749,-8.36
8761,-4.13
8773,1.08
8785,6.44
8797,11.26
8809,15.19
8821,18.27
8833,20.68
8845,22.64
8857,24.1
8869,24.87
8881,24.59
8893,22.84
8905,19.26
8916,13.47
8927,5.17
8939,-5.8
8951,-19.29
8963,-34.74
8975,-51.11
8987,-67.03
8999,-81.07
9011,-92.05
9023,-99.27
9035,-102.63
9047,-102.54
9059,-99.73
9071,-94.97
9083,-88.97
9095,-82.22
9106,-75.09
9117,-67.79
9129,-60.58
9141,-53.74
9153,-47.49
9165,-41.97
9177,-37.17
9189,-32.99
9201,-29.33
9213,-26.21
9225,-23.68
9237,-21.78
9249,-20.24
9261,-18.41
9273,-15.26
9285,-9.72
9296,-1.06
9307,10.76
9319,24.92
9331,40.02
9343,54.38
9355,66.56
9367,75.69
9379,81.58
9391,84.55
9403,85.23
9415,84.21
9427,81.94
9439,78.7
9451,74.7
9463,70.16
9475,65.41
9486,60.73
9497,56.23
9509,51.81
9521,47.23
9533,42.39
9545,37.51
9557,33.22
9569,30.23
9581,28.95
9593,29.17
9605,30.03
9617,30.34
9629,29.26
9641,26.62
9653,23.06
9665,19.71
9676,17.61
9687,17.22
9699,18.28
9711,19.99
9723,21.47
9735,22.15
9747,22.01
9759,21.43
9771,20.96
9783,21.03
9795,21.67
9807,22.48
9819,22.74
9831,21.58
9843,18.11
9855,11.58
9866,1.48
9877,-12.3
9889,-29.32
9901,-48.42
9913,-67.82
9925,-85.4
9937,-99.15
9949,-107.71
9961,-110.75
9973,-108.87
9985,-103.33
9997,-95.62
10009,-87.01
10021,-78.37
10033,-70.17
10045,-62.57
10056,-55.59
10067,-49.23
10079,-43.57
10091,-38.76
10103,-35.11
10115,-32.86
10127,-32.08
10139,-32.56
10151,-33.81
10163,-35.18
10175,-36.16
10187,-36.56
10199,-36.48
10211,-36.18
10223,-35.83
10235,-35.43
10246,-34.79
10257,-33.67
10269,-31.88
10281,-29.31
10293,-25.87
10305,-21.46
10317,-16.06
10329,-9.79
10341,-3.12
10353,3.24
10365,8.45
10377,11.92
10389,13.65
10401,14.28
10413,14.85
10425,16.38
10436,19.4
10447,23.67
10459,28.3
10471,32.06
10483,33.81
10495,32.99
10507,29.82
10519,25.32
10531,21.08
10543,18.9
10555,20.29
10567,26.1
10579,36.16
10591,49.32
10603,63.68
10615,77.02
10626,87.44
10637,93.74
10649,95.58
10661,93.33
10673,87.78
10685,79.84
10697,70.4
10709,60.28
10721,50.29
10733,41.18
10745,33.52
10757,27.51
10769,22.84
10781,18.73
10793,14.31
10805,8.95
10816,2.74
10827,-3.69
10839,-9.32
10851,-13.37
10863,-15.54
10875,-16.14
10887,-15.74
10899,-14.93
10911,-14.06
10923,-13.27
10935,-12.72
10947,-12.65
10959,-13.42
10971,-15.24
10983,-18.01
10995,-21.3
11006,-24.47
11017,-26.91
11029,-28.18
11041,-28.12
11053,-26.65
11065,-23.8
11077,-19.65
11089,-14.44
11101,-8.67
11113,-3.02
11125,1.79
11137,5.24
11149,7.22
11161,8.0
11173,8.15
11185,8.26
11196,8.76
11207,9.74
11219,11.03
11231,12.25
11243,13.04
11255,13.15
11267,12.57
11279,11.43
11291,9.97
11303,8.42
11315,6.92
11327,5.6
11339,4.56
11351,3.86
11363,3.53
11375,3.49
11386,3.59
11397,3.66
11409,3.61
11421,3.39
11433,3.08
11445,2.75
11457,2.42
11469,2.02
11481,1.39
11493,0.5
11505,-0.62
11517,-1.82
11529,-3.0
11541,-4.06
11553,-4.98
11565,-5.79
11576,-6.45
11587,-6.93
11599,-7.16
11611,-7.13
11623,-6.89
11635,-6.59
11647,-6.36
11659,-6.33
11671,-6.6
11683,-7.19
11695,-8.24
11707,-9.8
11719,-11.87
11731,-14.25
11743,-16.49
11755,-18.03
11766,-18.35
11777,-17.24
11789,-14.92
11801,-12.05
11813,-9.4
11825,-7.59
11837,-6.79
11849,-6.63
11861,-6.57
11873,-6.2
11885,-5.57
11897,-5.18
11909,-5.68
11921,-7.43
11933,-10.2
11945,-13.24
11956,-15.58
11967,-16.5
11979,-15.82
11991,-13.85
12003,-11.13
12015,-8.1
12027,-5.03
12039,-1.99
12051,0.89
12063,3.32
12075,4.91
12087,5.44
12099,5.09
12111,4.33
12123,3.73
12135,3.58
12146,3.82
12157,4.02
12169,3.79
12181,2.93
12193,1.61
12205,0.22
12217,-0.83
12229,-1.38
12241,-1.44
12253,-1.28
12265,-1.23
12277,-1.62
12289,-2.73
12301,-4.73
12313,-7.55
12325,-10.91
12336,-14.33
12347,-17.15
12359,-18.8
12371,-18.94
12383,-17.55
12395,-14.94
12407,-11.69
12419,-8.34
12431,-5.22
12443,-2.35
12455,0.59
12467,3.98
12479,8.07
12491,12.75
12503,17.56
12515,21.78
12526,24.73
12537,25.95
12549,25.27
12561,22.87
12573,19.15
12585,14.71
12597,10.29
12609,6.46
12621,3.49
12633,1.2
12645,-1.03
12657,-3.94
12669,-8.03
12681,-13.28
12693,-19.06
12705,-24.31
12716,-27.92
12727,-28.97
12739,-26.93
12751,-21.7
12763,-13.54
12775,-3.0
12787,9.01
12799,21.44
12811,33.27
12823,43.69
12835,52.17
12847,58.45
12859,62.47
12871,64.25
12883,63.93
12895,61.74
12906,58.07
12917,53.33
12929,47.8
12941,41.5
12953,34.32
12965,26.23
12977,17.47
12989,8.71
13001,0.75
13013,-5.66
13025,-10.22
13037,-13.01
13049,-14.45
13061,-15.0
13073,-15.04
13085,-14.77
13096,-14.38
13107,-14.04
13119,-13.94
13131,-14.19
13143,-14.7
13155,-15.16
13167,-15.22
13179,-14.68
13191,-13.59
13203,-12.32
13215,-11.28
13227,-10.73
13239,-10.57
13251,-10.49
13263,-10.08
13275,-9.16
13286,-7.88
13297,-6.62
13309,-5.73
13321,-5.35
13333,-5.31
13345,-5.28
13357,-5.01
13369,-4.46
13381,-3.79
13393,-3.22
13405,-2.88
13417,-2.65
13429,-2.3
13441,-1.69
13453,-0.85
13465,-0.02
13476,0.51
13487,0.57
13499,0.28
13511,-0.08
13523,-0.14
13535,0.31
13547,1.23
13559,2.42
13571,3.66
13583,4.82
13595,5.93
13607,7.12
13619,8.44
13631,9.87
13643,11.3
13655,12.63
13666,13.88
13677,15.18
13689,16.66
13701,18.33
13713,19.96
13725,21.07
13737,21.03
13749,19.34
13761,15.71
13773,10.17
13785,2.91
13797,-5.69
13809,-15.17
13821,-24.9
13833,-34.13
13845,-42.0
13856,-47.76
13867,-50.93
13879,-51.37
13891,-49.29
13903,-45.18
13915,-39.7
13927,-33.65
13939,-27.93
13951,-23.42
13963,-20.74
13975,-20.09
13987,-21.12
13999,-23.11
14011,-25.27
14023,-27.02
14035,-28.11
14046,-28.46
14057,-28.03
14069,-26.68
14081,-24.28
14093,-20.84
14105,-16.66
14117,-12.25
14129,-8.15
14141,-4.7
14153,-1.88
14165,0.64
14177,3.28
14189,6.46
14201,10.42
14213,15.13
14225,20.31
14236,25.57
14247,30.46
14259,34.72
14271,38.32
14283,41.31
14295,43.78
14307,45.61
14319,46.51
14331,46.13
14343,44.36
14355,41.38
14367,37.66
14379,33.74
14391,29.97
14403,26.48
14415,23.25
14426,20.33
14437,17.94
14449,16.33
14461,15.54
14473,15.24
14485,14.81
14497,13.64
14509,11.59
14521,9.04
14533,6.7
14545,5.19
14557,4.66
14569,4.67
14581,4.58
14593,3.85
14605,2.37
14616,0.55
14627,-1.1
14639,-2.27
14651,-3.03
14663,-3.75
14675,-4.83
14687,-6.33
14699,-7.98
14711,-9.32
14723,-9.96
14735,-9.87
14747,-9.39
14759,-8.98
14771,-8.97
14783,-9.41
14795,-9.93
14806,-10.08
14817,-9.56
14829,-8.38
14841,-6.83
14853,-5.37
14865,-4.36
14877,-4.0
14889,-4.28
14901,-5.01
14913,-5.88
14925,-6.51
14937,-6.47
14949,-5.36
14961,-3.04
14973,0.31
14985,4.14
14996,7.65
15007,10.09
15019,11.06
15031,10.63
15043,9.31
15055,7.8
15067,6.63
15079,6.01
15091,5.83
15103,5.63
15115,4.82
15127,2.83
15139,-0.9
15151,-6.73
15163,-14.78
15175,-24.87
15186,-36.5
15197,-48.87
15209,-61.07
15221,-72.23
15233,-81.63
15245,-88.64
15257,-92.66
15269,-93.15
15281,-89.7
15293,-82.32
15305,-71.51
15317,-58.27
15329,-43.81
15341,-29.21
15353,-15.18
15365,-1.98
15376,10.42
15387,21.89
15399,32.07
15411,40.34
15423,46.05
15435,49.0
15447,49.5
15459,48.21
15471,45.81
15483,42.71
15495,38.89
15507,34.14
15519,28.42
15531,22.01
15543,15.61
15555,10.03
15566,5.86
15577,3.28
15589,2.22
15601,2.43
15613,3.74
15625,5.96
15637,8.82
15649,11.92
15661,14.8
15673,17.16
15685,19.05
15697,20.8
15709,22.76
15721,25.03
15733,27.33
15745,29.09
15756,29.68
15767,28.75
15779,26.26
15791,22.51
15803,17.95
15815,13.08
15827,8.41
15839,4.37
15851,1.26
15863,-0.9
15875,-2.38
15887,-3.69
15899,-5.3
15911,-7.42
15923,-9.88
15935,-12.29
15946,-14.28
15957,-15.72
15969,-16.76
15981,-17.69
15993,-18.71
16005,-19.76
16017,-20.67
16029,-21.19
16041,-21.29
16053,-21.15
16065,-21.05
16077,-21.29
16089,-22.03
16101,-23.27
16113,-24.9
16125,-26.72
16136,-28.44
16147,-29.72
16159,-30.08
16171,-28.97
16183,-25.88
16195,-20.46
16207,-12.79
16219,-3.42
16231,6.64
16243,16.27
16255,24.56
16267,31.23
16279,36.66
16291,41.68
16303,47.08
16315,53.2
16326,59.82
16337,66.35
16349,72.24
16361,77.38
16373,82.09
16385,86.92
16397,92.17
16409,97.6
16421,102.33
16433,105.11
16445,104.76
16457,100.45
16469,91.9
16481,79.3
16493,63.27
16505,44.75
16516,25.0
16527,5.51
16539,-12.24
16551,-27.07
16563,-38.42
16575,-46.39
16587,-51.56
16599,-54.6
16611,-56.09
16623,-56.41
16635,-55.95
16647,-55.25
16659,-55.08
16671,-56.38
16683,-60.11
16695,-67.15
16706,-77.99
16717,-92.44
16729,-109.31
16741,-126.33
16753,-140.58
16765,-149.39
16777,-151.26
16789,-146.44
16801,-136.75
16813,-124.66
16825,-112.24
16837,-100.55
16849,-89.75
16861,-79.64
16873,-70.33
16885,-62.21
16896,-55.6
16907,-50.26
16919,-45.13
16931,-38.76
16943,-30.07
16955,-19.0
16967,-6.63
16979,5.29
16991,15.24
17003,22.63
17015,28.13
17027,33.33
17039,39.98
17051,49.3
17063,61.52
17075,75.9
17086,91.04
17097,105.48
17109,118.01
17121,127.92
17133,134.87
17145,138.79
17157,139.7
17169,137.66
17181,132.84
17193,125.51
17205,116.12
17217,105.28
17229,93.73
17241,82.21
17253,71.39
17265,61.65
17276,53.07
17287,45.41
17299,38.19
17311,31.02
17323,23.7
17335,16.39
17347,9.47
17359,3.33
17371,-1.85
17383,-6.19
17395,-9.98
17407,-13.52
17419,-16.96
17431,-20.34
17443,-23.56
17455,-26.58
17466,-29.36
17477,-31.83
17489,-33.95
17501,-35.62
17513,-36.84
17525,-37.63
17537,-38.1
17549,-38.23
17561,-37.93
17573,-36.97
17585,-35.22
17597,-32.77
17609,-30.04
17621,-27.65
17633,-26.18
17645,-25.91
17656,-26.7
17667,-28.12
17679,-29.61
17691,-30.78
17703,-31.55
17715,-32.05
17727,-32.43
17739,-32.61
17751,-32.24
17763,-30.83
17775,-28.03
17787,-23.95
17799,-19.14
17811,-14.48
17823,-10.81
17835,-8.56
17846,-7.66
17857,-7.63
17869,-7.87
17881,-7.88
17893,-7.45
17905,-6.6
17917,-5.42
17929,-3.94
17941,-2.07
17953,0.29
17965,3.22
17977,6.62
17989,10.24
18001,13.74
18013,16.79
18025,19.13
18036,20.72
18047,21.68
18059,22.25
18071,22.63
18083,22.9
18095,22.91
18107,22.41
18119,21.14
18131,19.04
18143,16.21
18155,13.01
18167,9.79
18179,6.8
18191,4.21
18203,2.06
18215,0.4
18226,-0.6
18237,-0.76
18249,0.02
18261,1.59
18273,3.53
18285,5.19
18297,5.86
18309,5.1
18321,2.82
18333,-0.62
18345,-4.56
18357,-8.29
18369,-11.25
18381,-13.15
18393,-14.04
18405,-14.15
18416,-13.83
18427,-13.42
18439,-13.26
18451,-13.63
18463,-14.69
18475,-16.4
18487,-18.5
18499,-20.56
18511,-22.04
18523,-22.53
18535,-21.83
18547,-19.95
18559,-17.14
18571,-13.77
18583,-10.28
18595,-7.11
18606,-4.71
18617,-3.36
18629,-3.11
18641,-3.76
18653,-4.87
18665,-5.97
18677,-6.71
18689,-7.04
18701,-7.12
18713,-7.27
18725,-7.78
18737,-8.78
18749,-10.28
18761,-12.15
18773,-14.15
18785,-15.94
18796,-17.1
18807,-17.21
18819,-15.99
18831,-13.42
18843,-9.8
18855,-5.65
18867,-1.51
18879,2.18
18891,5.24
18903,7.67
18915,9.61
18927,11.17
18939,12.46
18951,13.49
18963,14.36
18975,15.26
18986,16.53
18997,18.51
19009,21.43
19021,25.25
19033,29.62
19045,34.02
19057,37.85
19069,40.76
19081,42.67
19093,43.72
19105,44.05
19117,43.65
19129,42.39
19141,40.06
19153,36.66
19165,32.39
19176,27.74
19187,23.23
19199,19.27
19211,16.09
19223,13.74
19235,12.11
19247,11.01
19259,10.14
19271,9.15
19283,7.72
19295,5.76
19307,3.4
19319,1.03
19331,-0.9
19343,-2.17
19355,-2.79
19366,-3.01
19377,-3.15
19389,-3.32
19401,-3.45
19413,-3.34
19425,-2.75
19437,-1.68
19449,-0.27
19461,1.19
19473,2.39
19485,3.08
19497,3.1
19509,2.43
19521,1.13
19533,-0.62
19545,-2.6
19556,-4.62
19567,-6.58
19579,-8.51
19591,-10.6
19603,-13.11
19615,-16.26
19627,-20.16
19639,-24.66
19651,-29.51
19663,-34.33
19675,-38.76
19687,-42.55
19699,-45.55
19711,-47.68
19723,-48.85
19735,-48.94
19746,-47.81
19757,-45.39
19769,-41.66
19781,-36.68
19793,-30.56
19805,-23.45
19817,-15.62
19829,-7.46
19841,0.51
19853,7.74
19865,13.82
19877,18.59
19889,22.12
19901,24.61
19913,26.23
19925,27.04
19936,27.01
19947,26.15
19959,24.51
19971,22.23
19983,19.52
19995,16.5
20007,13.22
20019,9.75
20031,6.23
20043,2.87
20055,-0.01
20067,-2.18
20079,-3.67
20091,-4.85
20103,-6.31
20115,-8.62
20126,-11.99
20137,-16.07
20149,-20.06
20161,-22.98
20173,-24.15
20185,-23.39
20197,-21.19
20209,-18.34
20221,-15.63
20233,-13.53
20245,-12.17
20257,-11.41
20269,-11.03
20281,-10.89
20293,-10.86
20305,-10.78
20316,-10.39
20327,-9.32
20339,-7.08
20351,-3.3
20363,2.17
20375,9.16
20387,17.07
20399,25.04
20411,32.18
20423,37.89
20435,42.02
20447,44.84
20459,46.84
20471,48.41
20483,49.66
20495,50.39
20506,50.31
20517,49.33
20529,47.64
20541,45.59
20553,43.48
20565,41.34
20577,38.95
20589,36.1
20601,32.76
20613,29.24
20625,26.01
20637,23.37
20649,21.2
20661,18.93
20673,15.8
20685,11.37
20696,5.84
20707,0.0
20719,-5.17
20731,-8.97
20743,-11.31
20755,-12.68
20767,-13.76
20779,-15.01
20791,-16.41
20803,-17.63
20815,-18.29
20827,-18.31
20839,-17.86
20851,-17.28
20863,-16.74
20875,-16.23
20886,-15.66
20897,-15.09
20909,-14.83
20921,-15.25
20933,-16.5
20945,-18.22
20957,-19.64
20969,-19.9
20981,-18.55
20993,-15.8
