seconds,BVP
2,-6.5
14,-8.44
26,-10.31
38,-12.01
50,-13.39
62,-14.47
74,-15.23
86,-15.7
98,-15.98
110,-16.11
122,-16.15
134,-16.03
145,-15.63
156,-14.65
168,-12.82
180,-9.96
192,-6.12
204,-1.7
216,2.78
228,6.72
240,9.77
252,11.83
264,13.07
276,13.8
288,14.27
300,14.63
312,14.9
324,15.06
335,15.04
346,14.85
358,14.49
370,14.0
382,13.45
394,12.88
406,12.33
418,11.79
430,11.17
442,10.37
454,9.33
466,8.05
478,6.59
490,5.0
502,3.34
514,1.61
525,-0.19
536,-1.98
548,-3.66
560,-5.07
572,-6.11
584,-6.81
596,-7.37
608,-7.95
620,-8.75
632,-9.81
644,-11.07
656,-12.4
668,-13.75
680,-15.1
692,-16.55
704,-18.16
715,-19.91
726,-21.62
738,-22.96
750,-23.57
762,-23.12
774,-21.49
786,-18.77
798,-15.21
810,-11.11
822,-6.8
834,-2.6
846,1.29
858,4.63
870,7.33
882,9.38
894,10.92
905,12.11
916,13.17
928,14.2
940,15.23
952,16.16
964,16.89
976,17.33
988,17.51
1000,17.46
1012,17.21
1024,16.74
1036,16.03
1048,15.06
1060,13.84
1072,12.4
1084,10.82
1095,9.17
1106,7.57
1118,6.09
1130,4.73
1142,3.44
1154,2.1
1166,0.59
1178,-1.19
1190,-3.21
1202,-5.35
1214,-7.53
1226,-9.55
1238,-11.32
1250,-12.76
1262,-13.8
1274,-14.48
1285,-14.89
1296,-15.23
1308,-15.67
1320,-16.33
1332,-17.09
1344,-17.66
1356,-17.66
1368,-16.73
1380,-14.71
1392,-11.72
1404,-8.12
1416,-4.3
1428,-0.7
1440,2.4
1452,4.87
1464,6.66
1475,7.81
1486,8.38
1498,8.45
1510,8.08
1522,7.39
1534,6.55
1546,5.79
1558,5.3
1570,5.17
1582,5.44
1594,6.01
1606,6.69
1618,7.3
1630,7.65
1642,7.62
1654,7.17
1665,6.26
1676,4.89
1688,3.14
1700,1.17
1712,-0.82
1724,-2.61
1736,-4.12
1748,-5.34
1760,-6.32
1772,-7.13
1784,-7.84
1796,-8.4
1808,-8.77
1820,-8.94
1832,-8.95
1844,-8.95
1855,-9.12
1866,-9.57
1878,-10.38
1890,-11.56
1902,-13.03
1914,-14.62
1926,-16.05
1938,-16.97
1950,-17.04
1962,-15.98
1974,-13.69
1986,-10.36
1998,-6.35
2010,-2.08
2022,2.01
2034,5.64
2045,8.61
2056,10.89
2068,12.49
2080,13.5
2092,14.04
2104,14.27
2116,14.32
2128,14.28
2140,14.22
2152,14.19
2164,14.24
2176,14.33
2188,14.42
2200,14.36
2212,14.03
2224,13.32
2235,12.26
2246,11.02
2258,9.79
2270,8.74
2282,7.87
2294,7.07
2306,6.18
2318,5.11
2330,3.91
2342,2.74
2354,1.75
2366,0.93
2378,0.16
2390,-0.85
2402,-2.3
2414,-4.2
2425,-6.41
2436,-8.64
2448,-10.63
2460,-12.29
2472,-13.69
2484,-14.99
2496,-16.29
2508,-17.61
2520,-18.77
2532,-19.58
2544,-19.8
2556,-19.26
2568,-17.87
2580,-15.64
2592,-12.66
2604,-9.15
2615,-5.37
2626,-1.65
2638,1.72
2650,4.58
2662,6.87
2674,8.66
2686,10.04
2698,11.13
2710,11.98
2722,12.63
2734,13.13
2746,13.52
2758,13.83
2770,14.08
2782,14.2
2794,14.11
2805,13.8
2816,13.2
2828,12.41
2840,11.51
2852,10.59
2864,9.71
2876,8.85
2888,7.99
2900,7.07
2912,6.13
2924,5.16
2936,4.2
2948,3.29
2960,2.39
2972,1.47
2984,0.43
2995,-0.77
3006,-2.21
3018,-3.85
3030,-5.68
3042,-7.58
3054,-9.38
3066,-10.96
3078,-12.17
3090,-13.03
3102,-13.61
3114,-14.11
3126,-14.77
3138,-15.8
3150,-17.2
3162,-18.76
3174,-20.07
3185,-20.58
3196,-19.87
3208,-17.72
3220,-14.27
3232,-9.9
3244,-5.14
3256,-0.51
3268,3.61
3280,6.97
3292,9.49
3304,11.17
3316,12.11
3328,12.5
3340,12.57
3352,12.55
3364,12.62
3375,12.81
3386,13.11
3398,13.45
3410,13.75
3422,14.02
3434,14.26
3446,14.46
3458,14.49
3470,14.21
3482,13.52
3494,12.35
3506,10.8
3518,9.03
3530,7.24
3542,5.55
3554,4.01
3565,2.59
3576,1.28
3588,0.1
3600,-0.86
3612,-1.53
3624,-1.88
3636,-1.99
3648,-2.07
3660,-2.36
3672,-3.01
3684,-4.07
3696,-5.43
3708,-6.93
3720,-8.34
3732,-9.53
3744,-10.41
3755,-11.0
3766,-11.39
3778,-11.76
3790,-12.29
3802,-13.11
3814,-14.2
3826,-15.32
3838,-16.12
3850,-16.2
3862,-15.29
3874,-13.3
3886,-10.47
3898,-7.1
3910,-3.56
3922,-0.08
3934,3.16
3945,6.08
3956,8.58
3968,10.53
3980,11.88
3992,12.6
4004,12.83
4016,12.79
4028,12.71
4040,12.76
4052,12.99
4064,13.33
4076,13.58
4088,13.58
4100,13.18
4112,12.35
4124,11.15
4135,9.71
4146,8.19
4158,6.67
4170,5.23
4182,3.86
4194,2.58
4206,1.41
4218,0.37
4230,-0.53
4242,-1.34
4254,-2.16
4266,-3.12
4278,-4.25
4290,-5.54
4302,-6.88
4314,-8.18
4325,-9.44
4336,-10.7
4348,-12.04
4360,-13.47
4372,-14.86
4384,-16.06
4396,-16.93
4408,-17.47
4420,-17.86
4432,-18.36
4444,-19.19
4456,-20.33
4468,-21.54
4480,-22.43
4492,-22.56
4504,-21.73
4515,-19.97
4526,-17.54
4538,-14.77
4550,-11.98
4562,-9.28
4574,-6.73
4586,-4.28
4598,-1.92
4610,0.25
4622,2.17
4634,3.89
4646,5.66
4658,7.79
4670,10.49
4682,13.73
4694,17.11
4705,20.09
4716,22.1
4728,22.86
4740,22.42
4752,21.3
4764,20.28
4776,20.36
4788,22.5
4800,27.47
4812,35.65
4824,47.07
4836,61.38
4848,78.1
4860,96.73
4872,116.79
4884,137.72
4895,158.64
4906,178.2
4918,194.73
4930,206.41
4942,211.63
4954,209.15
4966,198.37
4978,179.61
4990,154.41
5002,125.66
5014,97.23
5026,72.92
5038,55.3
5050,44.85
5062,39.92
5074,37.67
5085,35.41
5096,31.72
5108,26.67
5120,21.21
5132,16.34
5144,12.38
5156,9.02
5168,5.72
5180,2.12
5192,-1.8
5204,-5.96
5216,-10.37
5228,-15.21
5240,-20.71
5252,-26.88
5264,-33.19
5275,-38.72
5286,-42.26
5298,-42.86
5310,-40.08
5322,-34.25
5334,-26.37
5346,-17.98
5358,-10.69
5370,-5.89
5382,-4.48
5394,-6.65
5406,-11.94
5418,-19.31
5430,-27.46
5442,-35.23
5454,-41.98
5465,-47.65
5476,-52.85
5488,-58.44
5500,-65.2
5512,-73.51
5524,-83.28
5536,-93.87
5548,-104.44
5560,-114.03
5572,-121.75
5584,-126.93
5596,-129.33
5608,-129.3
5620,-127.78
5632,-126.14
5644,-125.67
5655,-127.21
5666,-130.66
5678,-135.08
5690,-138.91
5702,-140.55
5714,-138.95
5726,-133.83
5738,-125.67
5750,-115.39
5762,-104.0
5774,-92.31
5786,-80.82
5798,-69.84
5810,-59.5
5822,-49.95
5834,-41.31
5845,-33.57
5856,-26.67
5868,-20.41
5880,-14.58
5892,-9.02
5904,-3.86
5916,0.61
5928,3.93
5940,5.69
5952,5.68
5964,4.03
5976,1.22
5988,-2.13
6000,-5.4
6012,-8.26
6024,-10.62
6035,-12.58
6046,-14.27
6058,-15.67
6070,-16.66
6082,-16.96
6094,-16.33
6106,-14.62
6118,-11.84
6130,-8.25
6142,-4.3
6154,-0.57
6166,2.34
6178,4.0
6190,4.33
6202,3.52
6214,2.0
6225,0.24
6236,-1.55
6248,-3.35
6260,-5.31
6272,-7.58
6284,-10.19
6296,-12.93
6308,-15.5
6320,-17.51
6332,-18.63
6344,-18.61
6356,-17.32
6368,-14.77
6380,-11.13
6392,-6.7
6404,-1.87
6415,2.98
6426,7.48
6438,11.44
6450,14.76
6462,17.45
6474,19.51
6486,20.95
6498,21.82
6510,22.28
6522,22.57
6534,23.0
6546,23.82
6558,25.11
6570,26.77
6582,28.53
6594,30.05
6605,31.19
6616,31.93
6628,32.37
6640,32.54
6652,32.38
6664,31.73
6676,30.53
6688,28.87
6700,27.05
6712,25.39
6724,23.97
6736,22.62
6748,21.02
6760,18.94
6772,16.47
6784,14.08
6795,12.34
6806,11.64
6818,11.99
6830,13.01
6842,14.29
6854,15.66
6866,17.35
6878,19.83
6890,23.53
6902,28.54
6914,34.53
6926,40.95
6938,47.28
6950,53.19
6962,58.58
6974,63.43
6985,67.57
6996,70.68
7008,72.4
7020,72.56
7032,71.39
7044,69.47
7056,67.56
7068,66.28
7080,65.99
7092,66.63
7104,67.78
7116,68.8
7128,68.92
7140,67.41
7152,63.64
7164,57.18
7175,47.83
7186,35.76
7198,21.48
7210,5.74
7222,-10.69
7234,-27.2
7246,-43.41
7258,-59.22
7270,-74.53
7282,-89.14
7294,-102.55
7306,-114.06
7318,-122.91
7330,-128.57
7342,-130.98
7354,-130.72
7365,-128.96
7376,-127.25
7388,-127.17
7400,-129.81
7412,-135.37
7424,-142.98
7436,-150.97
7448,-157.46
7460,-160.97
7472,-160.74
7484,-156.84
7496,-149.81
7508,-140.37
7520,-129.09
7532,-116.39
7544,-102.54
7555,-87.8
7566,-72.47
7578,-56.81
7590,-41.03
7602,-25.28
7614,-9.78
7626,5.06
7638,18.68
7650,30.44
7662,39.82
7674,46.49
7686,50.49
7698,52.3
7710,52.68
7722,52.49
7734,52.44
7745,52.93
7756,54.03
7768,55.68
7780,57.81
7792,60.48
7804,63.88
7816,68.18
7828,73.34
7840,78.97
7852,84.5
7864,89.23
7876,92.55
7888,94.02
7900,93.36
7912,90.4
7924,85.08
7935,77.56
7946,68.29
7958,58.12
7970,48.08
7982,39.11
7994,31.76
8006,25.89
8018,20.76
8030,15.26
8042,8.54
8054,0.34
8066,-8.71
8078,-17.31
8090,-23.99
8102,-27.65
8114,-28.11
8125,-26.2
8136,-23.51
8148,-21.62
8160,-21.54
8172,-23.21
8184,-25.7
8196,-27.69
8208,-28.19
8220,-26.99
8232,-24.63
8244,-22.03
8256,-19.88
8268,-18.38
8280,-17.24
8292,-16.01
8304,-14.4
8315,-12.32
8326,-9.79
8338,-6.69
8350,-2.75
8362,2.26
8374,8.3
8386,14.86
8398,21.12
8410,26.17
8422,29.35
8434,30.35
8446,29.2
8458,26.11
8470,21.36
8482,15.28
8494,8.38
8505,1.35
8516,-4.98
8528,-9.82
8540,-12.71
8552,-13.63
8564,-13.01
8576,-11.51
8588,-9.74
8600,-8.03
8612,-6.48
8624,-4.91
8636,-3.15
8648,-1.03
8660,1.49
8672,4.44
8684,7.87
8695,11.81
8706,16.23
8718,20.96
8730,25.64
8742,29.85
8754,33.22
8766,35.54
8778,36.78
8790,37.09
8802,36.61
8814,35.49
8826,33.82
8838,31.61
8850,28.87
8862,25.62
8874,21.9
8885,17.78
8896,13.4
8908,8.92
8920,4.58
8932,0.63
8944,-2.8
8956,-5.67
8968,-8.1
8980,-10.27
8992,-12.35
9004,-14.37
9016,-16.26
9028,-17.79
9040,-18.68
9052,-18.66
9064,-17.52
9075,-15.2
9086,-11.75
9098,-7.34
9110,-2.33
9122,2.87
9134,7.8
9146,12.07
9158,15.47
9170,17.92
9182,19.52
9194,20.43
9206,20.82
9218,20.81
9230,20.5
9242,20.0
9254,19.42
9265,18.9
9276,18.45
9288,18.02
9300,17.48
9312,16.72
9324,15.72
9336,14.58
9348,13.47
9360,12.51
9372,11.72
9384,11.04
9396,10.3
9408,9.41
9420,8.39
9432,7.32
9444,6.31
9455,5.34
9466,4.29
9478,3.01
9490,1.36
9502,-0.66
9514,-2.89
9526,-5.09
9538,-6.96
9550,-8.31
9562,-9.12
9574,-9.54
9586,-9.85
9598,-10.35
9610,-11.23
9622,-12.52
9634,-14.06
9645,-15.51
9656,-16.44
9668,-16.4
9680,-15.14
9692,-12.62
9704,-9.06
9716,-4.87
9728,-0.51
9740,3.61
9752,7.22
9764,10.19
9776,12.55
9788,14.4
9800,15.85
9812,16.93
9824,17.66
9835,18.07
9846,18.19
9858,18.13
9870,17.98
9882,17.79
9894,17.53
9906,17.16
9918,16.61
9930,15.93
9942,15.23
9954,14.62
9966,14.19
9978,13.84
9990,13.44
10002,12.86
10014,12.08
10025,11.15
10036,10.21
10048,9.26
10060,8.22
10072,6.93
10084,5.22
10096,3.1
10108,0.66
10120,-1.88
10132,-4.28
10144,-6.41
10156,-8.21
10168,-9.75
10180,-11.13
10192,-12.48
10204,-13.86
10215,-15.28
10226,-16.71
10238,-17.99
10250,-18.98
10262,-19.45
10274,-19.15
10286,-17.9
10298,-15.6
10310,-12.32
10322,-8.29
10334,-3.92
10346,0.37
10358,4.21
10370,7.42
10382,9.99
10394,12.02
10405,13.63
10416,14.86
10428,15.72
10440,16.19
10452,16.31
10464,16.16
10476,15.88
10488,15.6
10500,15.36
10512,15.15
10524,14.96
10536,14.81
10548,14.71
10560,14.64
10572,14.51
10584,14.16
10595,13.43
10606,12.2
10618,10.54
10630,8.64
10642,6.78
10654,5.2
10666,4.0
10678,3.14
10690,2.48
10702,1.84
10714,1.06
10726,0.09
10738,-1.08
10750,-2.4
10762,-3.81
10774,-5.23
10785,-6.62
10796,-7.95
10808,-9.18
10820,-10.37
10832,-11.61
10844,-12.91
10856,-14.31
10868,-15.79
10880,-17.25
10892,-18.6
10904,-19.75
10916,-20.54
10928,-20.78
10940,-20.26
10952,-18.76
10964,-16.22
10975,-12.72
10986,-8.57
10998,-4.19
11010,-0.08
11022,3.41
11034,6.11
11046,8.09
11058,9.56
11070,10.74
11082,11.73
11094,12.48
11106,12.87
11118,12.8
11130,12.32
11142,11.59
11154,10.88
11165,10.42
11176,10.27
11188,10.36
11200,10.53
11212,10.66
11224,10.72
11236,10.76
11248,10.81
11260,10.82
11272,10.62
11284,10.02
11296,8.95
11308,7.45
11320,5.76
11332,4.13
11344,2.73
11355,1.61
11366,0.6
11378,-0.43
11390,-1.64
11402,-2.97
11414,-4.4
11426,-5.82
11438,-7.25
11450,-8.71
11462,-10.24
11474,-11.86
11486,-13.44
11498,-14.87
11510,-16.02
11522,-16.92
11534,-17.63
11545,-18.25
11556,-18.71
11568,-18.81
11580,-18.21
11592,-16.57
11604,-13.79
11616,-10.06
11628,-5.86
11640,-1.69
11652,1.95
11664,4.86
11676,7.06
11688,8.72
11700,10.01
11712,10.97
11724,11.57
11735,11.75
11746,11.48
11758,10.85
11770,10.05
11782,9.3
11794,8.76
11806,8.5
11818,8.48
11830,8.6
11842,8.75
11854,8.89
11866,8.96
11878,8.92
11890,8.73
11902,8.3
11914,7.6
11925,6.65
11936,5.54
11948,4.42
11960,3.35
11972,2.34
11984,1.32
11996,0.23
12008,-1.0
12020,-2.34
12032,-3.78
12044,-5.25
12056,-6.74
12068,-8.15
12080,-9.45
12092,-10.54
12104,-11.39
12115,-12.1
12126,-12.78
12138,-13.63
12150,-14.74
12162,-16.0
12174,-17.16
12186,-17.85
12198,-17.67
12210,-16.4
12222,-14.03
12234,-10.77
12246,-6.98
12258,-3.19
12270,0.21
12282,2.84
12294,4.58
12305,5.54
12316,5.98
12328,6.22
12340,6.53
12352,7.01
12364,7.55
12376,8.07
12388,8.46
12400,8.75
12412,9.01
12424,9.3
12436,9.59
12448,9.75
12460,9.64
12472,9.18
12484,8.43
12495,7.52
12506,6.59
12518,5.75
12530,5.01
12542,4.28
12554,3.49
12566,2.54
12578,1.41
12590,0.09
12602,-1.44
12614,-3.17
12626,-5.06
12638,-7.08
12650,-9.11
12662,-11.05
12674,-12.74
12685,-14.11
12696,-15.11
12708,-15.82
12720,-16.36
12732,-16.79
12744,-17.13
12756,-17.21
12768,-16.77
12780,-15.55
12792,-13.4
12804,-10.37
12816,-6.73
12828,-2.91
12840,0.62
12852,3.45
12864,5.42
12875,6.61
12886,7.2
12898,7.5
12910,7.67
12922,7.8
12934,7.86
12946,7.83
12958,7.73
12970,7.68
12982,7.79
12994,8.08
13006,8.49
13018,8.81
13030,8.89
13042,8.64
13054,8.15
13065,7.51
13076,6.82
13088,6.07
13100,5.18
13112,4.09
13124,2.78
13136,1.34
13148,-0.08
13160,-1.34
13172,-2.36
13184,-3.2
13196,-4.0
13208,-4.93
13220,-6.06
13232,-7.34
13244,-8.59
13255,-9.63
13266,-10.37
13278,-10.87
13290,-11.34
13302,-11.99
13314,-12.97
13326,-14.2
13338,-15.46
13350,-16.43
13362,-16.84
13374,-16.48
13386,-15.19
13398,-12.93
13410,-9.74
13422,-5.86
13434,-1.7
13445,2.15
13456,5.22
13468,7.15
13480,8.01
13492,8.15
13504,8.02
13516,8.0
13528,8.18
13540,8.51
13552,8.76
13564,8.85
13576,8.75
13588,8.56
13600,8.39
13612,8.23
13624,8.04
13635,7.79
13646,7.54
13658,7.39
13670,7.43
13682,7.6
13694,7.71
13706,7.51
13718,6.77
13730,5.46
13742,3.73
13754,1.83
13766,-0.01
13778,-1.64
13790,-3.09
13802,-4.48
13814,-5.88
13825,-7.33
13836,-8.76
13848,-10.14
13860,-11.45
13872,-12.78
13884,-14.19
13896,-15.64
13908,-17.04
13920,-18.16
13932,-18.74
13944,-18.53
13956,-17.31
13968,-15.07
13980,-11.91
13992,-8.15
14004,-4.2
14015,-0.45
14026,2.82
14038,5.51
14050,7.7
14062,9.55
14074,11.1
14086,12.26
14098,12.91
14110,12.94
14122,12.38
14134,11.44
14146,10.35
14158,9.33
14170,8.54
14182,8.01
14194,7.74
14205,7.68
14216,7.72
14228,7.77
14240,7.77
14252,7.63
14264,7.29
14276,6.69
14288,5.82
14300,4.66
14312,3.3
14324,1.83
14336,0.39
14348,-0.98
14360,-2.28
14372,-3.61
14384,-5.03
14395,-6.51
14406,-7.91
14418,-9.07
14430,-9.86
14442,-10.33
14454,-10.63
14466,-11.0
14478,-11.62
14490,-12.6
14502,-13.9
14514,-15.37
14526,-16.75
14538,-17.7
14550,-17.89
14562,-17.05
14574,-15.1
14585,-12.14
14596,-8.5
14608,-4.64
14620,-1.0
14632,2.12
14644,4.65
14656,6.66
14668,8.32
14680,9.79
14692,11.12
14704,12.26
14716,13.07
14728,13.41
14740,13.18
14752,12.42
14764,11.28
14775,9.94
14786,8.65
14798,7.55
14810,6.78
14822,6.38
14834,6.3
14846,6.44
14858,6.65
14870,6.73
14882,6.45
14894,5.7
14906,4.46
14918,2.85
14930,1.04
14942,-0.77
14954,-2.5
14965,-4.14
14976,-5.7
14988,-7.24
15000,-8.75
15012,-10.2
15024,-11.51
15036,-12.66
15048,-13.59
15060,-14.33
15072,-14.94
15084,-15.44
15096,-15.78
15108,-15.76
15120,-15.12
15132,-13.69
15144,-11.43
15155,-8.51
15166,-5.28
15178,-2.13
15190,0.67
15202,3.04
15214,5.02
15226,6.76
15238,8.31
15250,9.6
15262,10.5
15274,10.9
15286,10.78
15298,10.3
15310,9.67
15322,9.14
15334,8.85
15345,8.85
15356,9.01
15368,9.15
15380,9.17
15392,8.97
15404,8.58
15416,8.02
15428,7.29
15440,6.35
15452,5.23
15464,3.97
15476,2.66
15488,1.43
15500,0.37
15512,-0.54
15524,-1.41
15535,-2.32
15546,-3.3
15558,-4.3
15570,-5.21
15582,-5.95
15594,-6.55
15606,-7.08
15618,-7.66
15630,-8.34
15642,-9.16
15654,-10.12
15666,-11.21
15678,-12.42
15690,-13.7
15702,-14.87
15714,-15.63
15725,-15.61
15736,-14.48
15748,-12.14
15760,-8.75
15772,-4.7
15784,-0.53
15796,3.28
15808,6.42
15820,8.78
15832,10.36
15844,11.31
15856,11.76
15868,11.83
15880,11.62
15892,11.16
15904,10.53
15915,9.76
15926,8.91
15938,8.0
15950,7.09
15962,6.27
15974,5.57
15986,5.05
15998,4.71
16010,4.54
16022,4.47
16034,4.52
16046,4.63
16058,4.76
16070,4.83
16082,4.7
16094,4.24
16105,3.36
16116,2.06
16128,0.39
16140,-1.45
16152,-3.32
16164,-5.04
16176,-6.54
16188,-7.85
16200,-9.02
16212,-10.14
16224,-11.26
16236,-12.36
16248,-13.35
16260,-14.11
16272,-14.5
16284,-14.42
16295,-13.8
16306,-12.57
16318,-10.68
16330,-8.14
16342,-5.08
16354,-1.77
16366,1.48
16378,4.34
16390,6.64
16402,8.29
16414,9.45
16426,10.25
16438,10.76
16450,10.94
16462,10.75
16474,10.18
16485,9.38
16496,8.65
16508,8.22
16520,8.19
16532,8.45
16544,8.69
16556,8.67
16568,8.34
16580,7.81
16592,7.36
16604,7.16
16616,7.2
16628,7.24
16640,7.03
16652,6.34
16664,5.16
16675,3.65
16686,1.99
16698,0.29
16710,-1.4
16722,-3.15
16734,-4.93
16746,-6.66
16758,-8.24
16770,-9.59
16782,-10.74
16794,-11.78
16806,-12.81
16818,-13.85
16830,-14.83
16842,-15.49
16854,-15.55
16865,-14.8
16876,-13.09
16888,-10.48
16900,-7.16
16912,-3.42
16924,0.4
16936,3.96
16948,7.02
16960,9.4
16972,11.01
16984,11.84
16996,11.97
17008,11.51
17020,10.68
17032,9.7
17044,8.81
17055,8.12
17066,7.7
17078,7.5
17090,7.5
17102,7.59
17114,7.74
17126,7.84
17138,7.84
17150,7.66
17162,7.26
17174,6.66
17186,5.87
17198,4.93
17210,3.84
17222,2.6
17234,1.21
17245,-0.32
17256,-1.91
17268,-3.51
17280,-5.09
17292,-6.65
17304,-8.24
17316,-9.83
17328,-11.35
17340,-12.61
17352,-13.53
17364,-14.1
17376,-14.44
17388,-14.75
17400,-15.18
17412,-15.74
17424,-16.17
17435,-16.11
17446,-15.16
17458,-13.14
17470,-10.13
17482,-6.54
17494,-2.95
17506,0.12
17518,2.38
17530,3.93
17542,5.06
17554,6.16
17566,7.47
17578,8.94
17590,10.31
17602,11.26
17614,11.64
17625,11.47
17636,11.06
17648,10.67
17660,10.48
17672,10.51
17684,10.63
17696,10.66
17708,10.43
17720,9.94
17732,9.21
17744,8.32
17756,7.29
17768,6.18
17780,4.92
17792,3.49
17804,1.9
17815,0.19
17826,-1.53
17838,-3.15
17850,-4.59
17862,-5.83
17874,-6.89
17886,-7.85
17898,-8.76
17910,-9.61
17922,-10.37
17934,-10.99
17946,-11.48
17958,-11.89
17970,-12.32
17982,-12.79
17994,-13.19
18005,-13.35
18016,-12.98
18028,-11.89
18040,-9.98
18052,-7.34
18064,-4.2
18076,-0.86
18088,2.33
18100,5.08
18112,7.21
18124,8.73
18136,9.77
18148,10.59
18160,11.38
18172,12.17
18184,12.9
18195,13.34
18206,13.31
18218,12.71
18230,11.6
18242,10.14
18254,8.55
18266,7.03
18278,5.71
18290,4.66
18302,3.89
18314,3.38
18326,3.07
18338,2.82
18350,2.48
18362,1.9
18374,0.97
18385,-0.36
18396,-2.06
18408,-4.06
18420,-6.19
18432,-8.2
18444,-9.92
18456,-11.22
18468,-12.07
18480,-12.61
18492,-13.01
18504,-13.44
18516,-14.05
18528,-14.84
18540,-15.69
18552,-16.47
18564,-17.02
18575,-17.17
18586,-16.83
18598,-15.85
18610,-14.17
18622,-11.84
18634,-9.02
18646,-5.9
18658,-2.78
18670,0.1
18682,2.57
18694,4.56
18706,6.1
18718,7.25
18730,8.13
18742,8.77
18754,9.19
18765,9.41
18776,9.42
18788,9.3
18800,9.07
18812,8.84
18824,8.6
18836,8.37
18848,8.05
18860,7.54
18872,6.82
18884,5.95
18896,5.09
18908,4.35
18920,3.75
18932,3.2
18944,2.5
18955,1.51
18966,0.16
18978,-1.42
18990,-3.05
19002,-4.48
19014,-5.55
19026,-6.3
19038,-6.84
19050,-7.37
19062,-8.03
19074,-8.87
19086,-9.8
19098,-10.68
19110,-11.31
19122,-11.48
19134,-11.11
19145,-10.12
19156,-8.52
19168,-6.25
19180,-3.39
19192,-0.15
19204,3.14
19216,6.1
19228,8.38
19240,9.84
19252,10.56
19264,10.75
19276,10.62
19288,10.31
19300,9.85
19312,9.2
19324,8.39
19335,7.55
19346,6.84
19358,6.43
19370,6.36
19382,6.58
19394,6.94
19406,7.3
19418,7.52
19430,7.54
19442,7.38
19454,7.03
19466,6.54
19478,5.84
19490,4.83
19502,3.4
19514,1.56
19525,-0.58
19536,-2.8
19548,-4.78
19560,-6.33
19572,-7.42
19584,-8.18
19596,-8.86
19608,-9.64
19620,-10.62
19632,-11.73
19644,-12.87
19656,-13.8
19668,-14.27
19680,-14.06
19692,-12.98
19704,-10.96
19715,-8.15
19726,-4.84
19738,-1.46
19750,1.59
19762,4.09
19774,6.03
19786,7.58
19798,8.9
19810,10.08
19822,11.04
19834,11.56
19846,11.5
19858,10.82
19870,9.76
19882,8.64
19894,7.77
19905,7.31
19916,7.19
19928,7.29
19940,7.41
19952,7.45
19964,7.38
19976,7.17
19988,6.79
20000,6.16
20012,5.2
20024,3.84
20036,2.09
20048,0.02
20060,-2.23
20072,-4.46
20084,-6.46
20095,-8.03
20106,-9.12
20118,-9.82
20130,-10.33
20142,-10.94
20154,-11.84
20166,-12.99
20178,-14.18
20190,-15.01
20202,-15.12
20214,-14.28
20226,-12.47
20238,-9.9
20250,-6.9
20262,-3.85
20274,-1.04
20285,1.38
20296,3.38
20308,5.0
20320,6.25
20332,7.13
20344,7.69
20356,7.92
20368,7.91
20380,7.75
20392,7.52
20404,7.27
20416,7.05
20428,6.93
20440,6.99
20452,7.37
20464,8.07
20475,9.0
20486,9.97
20498,10.68
20510,10.86
20522,10.44
20534,9.43
20546,7.99
20558,6.37
20570,4.77
20582,3.39
20594,2.29
20606,1.36
20618,0.43
20630,-0.67
20642,-2.01
20654,-3.51
20665,-5.0
20676,-6.35
20688,-7.54
20700,-8.65
20712,-9.85
20724,-11.19
20736,-12.61
20748,-13.97
20760,-15.11
20772,-15.94
20784,-16.49
20796,-16.75
20808,-16.61
20820,-15.89
20832,-14.38
20844,-11.96
20855,-8.79
20866,-5.21
20878,-1.65
20890,1.51
20902,4.07
20914,6.06
20926,7.62
20938,8.91
20950,10.04
20962,11.0
20974,11.77
20986,12.27
20998,12.48
