seconds,BVP
7,13.39
19,13.94
31,14.15
43,14.14
55,14.17
66,14.5
77,15.29
89,16.47
101,17.78
113,18.87
125,19.48
137,19.53
149,19.16
161,18.55
173,17.88
185,17.21
197,16.52
209,15.69
221,14.64
233,13.31
245,11.71
256,9.89
267,7.96
279,6.07
291,4.38
303,2.93
315,1.67
327,0.37
339,-1.18
351,-3.12
363,-5.41
375,-7.86
387,-10.23
399,-12.36
411,-14.31
423,-16.31
435,-18.68
446,-21.74
457,-25.55
469,-29.99
481,-34.64
493,-38.94
505,-42.28
517,-44.08
529,-43.89
541,-41.52
553,-37.08
565,-30.97
577,-23.81
589,-16.34
601,-9.23
613,-3.01
625,2.09
636,6.08
647,9.15
659,11.58
671,13.59
683,15.26
695,16.62
707,17.69
719,18.58
731,19.5
743,20.63
755,22.08
767,23.78
779,25.54
791,27.07
803,28.17
815,28.84
826,29.16
837,29.32
849,29.38
861,29.27
873,28.81
885,27.81
897,26.28
909,24.41
921,22.5
933,20.82
945,19.46
957,18.24
969,16.92
981,15.26
993,13.23
1005,10.97
1016,8.79
1027,6.94
1039,5.5
1051,4.37
1063,3.28
1075,1.92
1087,0.04
1099,-2.46
1111,-5.49
1123,-8.82
1135,-12.14
1147,-15.2
1159,-17.91
1171,-20.46
1183,-23.24
1195,-26.7
1206,-31.06
1217,-36.15
1229,-41.32
1241,-45.65
1253,-48.16
1265,-48.17
1277,-45.47
1289,-40.31
1301,-33.28
1313,-25.1
1325,-16.45
1337,-7.94
1349,-0.1
1361,6.66
1373,12.08
1385,16.07
1396,18.75
1407,20.34
1419,21.17
1431,21.51
1443,21.61
1455,21.69
1467,21.98
1479,22.63
1491,23.71
1503,25.14
1515,26.69
1527,28.13
1539,29.28
1551,30.07
1563,30.53
1575,30.76
1586,30.77
1597,30.49
1609,29.81
1621,28.64
1633,27.03
1645,25.13
1657,23.2
1669,21.51
1681,20.2
1693,19.24
1705,18.49
1717,17.69
1729,16.62
1741,15.18
1753,13.4
1765,11.44
1776,9.47
1787,7.54
1799,5.66
1811,3.76
1823,1.77
1835,-0.34
1847,-2.55
1859,-4.84
1871,-7.18
1883,-9.54
1895,-11.95
1907,-14.42
1919,-16.99
1931,-19.72
1943,-22.72
1955,-26.11
1966,-30.03
1977,-34.48
1989,-39.14
2001,-43.42
2013,-46.41
2025,-47.18
2037,-45.05
2049,-39.89
2061,-32.17
2073,-22.88
2085,-13.2
2097,-4.16
2109,3.55
2121,9.62
2133,14.07
2145,17.08
2156,18.87
2167,19.7
2179,19.81
2191,19.47
2203,18.97
2215,18.52
2227,18.29
2239,18.35
2251,18.71
2263,19.35
2275,20.21
2287,21.26
2299,22.44
2311,23.64
2323,24.66
2335,25.27
2346,25.24
2357,24.45
2369,22.95
2381,20.89
2393,18.5
2405,15.96
2417,13.38
2429,10.79
2441,8.16
2453,5.49
2465,2.82
2477,0.17
2489,-2.41
2501,-4.93
2513,-7.39
2525,-9.8
2536,-12.1
2547,-14.21
2559,-16.12
2571,-17.9
2583,-19.76
2595,-22.03
2607,-25.02
2619,-28.81
2631,-33.21
2643,-37.66
2655,-41.35
2667,-43.39
2679,-43.06
2691,-40.0
2703,-34.31
2715,-26.55
2726,-17.54
2737,-8.22
2749,0.58
2761,8.26
2773,14.46
2785,19.1
2797,22.24
2809,24.08
2821,24.9
2833,25.0
2845,24.73
2857,24.43
2869,24.39
2881,24.77
2893,25.6
2905,26.76
2916,28.05
2927,29.34
2939,30.54
2951,31.6
2963,32.5
2975,33.11
2987,33.23
2999,32.63
3011,31.13
3023,28.74
3035,25.68
3047,22.29
3059,18.94
3071,15.92
3083,13.34
3095,11.11
3106,9.05
3117,6.94
3129,4.54
3141,1.78
3153,-1.33
3165,-4.62
3177,-7.89
3189,-10.97
3201,-13.8
3213,-16.47
3225,-19.16
3237,-22.16
3249,-25.73
3261,-29.95
3273,-34.58
3285,-38.94
3296,-42.14
3307,-43.21
3319,-41.49
3331,-36.9
3343,-29.96
3355,-21.63
3367,-13.04
3379,-5.09
3391,1.7
3403,7.21
3415,11.56
3427,14.92
3439,17.38
3451,18.95
3463,19.66
3475,19.6
3486,19.01
3497,18.22
3509,17.58
3521,17.37
3533,17.69
3545,18.45
3557,19.44
3569,20.44
3581,21.26
3593,21.81
3605,22.12
3617,22.19
3629,22.07
3641,21.72
3653,21.06
3665,20.01
3676,18.47
3687,16.44
3699,13.96
3711,11.17
3723,8.29
3735,5.54
3747,3.11
3759,1.1
3771,-0.67
3783,-2.55
3795,-5.03
3807,-8.53
3819,-13.12
3831,-18.42
3843,-23.64
3855,-27.82
3866,-30.07
3877,-29.98
3889,-27.6
3901,-23.42
3913,-18.13
3925,-12.33
3937,-6.29
3949,0.03
3961,6.85
3973,14.27
3985,21.97
3997,29.19
4009,34.92
4021,38.34
4033,39.15
4045,37.87
4056,35.69
4067,34.29
4079,35.43
4091,40.6
4103,50.66
4115,65.34
4127,82.9
4139,99.94
4151,112.01
4163,114.92
4175,106.34
4187,87.01
4199,60.62
4211,32.57
4223,7.93
4235,-10.12
4246,-20.75
4257,-24.72
4269,-23.11
4281,-16.35
4293,-4.18
4305,13.62
4317,36.32
4329,61.89
4341,87.43
4353,110.16
4365,128.42
4377,142.09
4389,152.21
4401,160.18
4413,166.83
4425,171.94
4436,174.36
4447,172.59
4459,165.72
4471,154.0
4483,138.93
4495,122.7
4507,107.37
4519,94.16
4531,83.25
4543,74.04
4555,65.74
4567,57.79
4579,49.99
4591,42.3
4603,34.53
4615,26.29
4626,17.09
4637,6.73
4649,-4.41
4661,-15.25
4673,-24.3
4685,-30.03
4697,-31.37
4709,-28.07
4721,-20.74
4733,-10.74
4745,0.3
4757,10.91
4769,20.19
4781,27.94
4793,34.43
4805,40.14
4816,45.24
4827,49.38
4839,51.59
4851,50.44
4863,44.46
4875,32.6
4887,14.57
4899,-8.94
4911,-36.26
4923,-65.06
4935,-92.85
4947,-117.48
4959,-137.62
4971,-152.86
4983,-163.68
4995,-171.03
5006,-176.04
5017,-179.63
5029,-182.42
5041,-184.82
5053,-187.13
5065,-189.77
5077,-193.12
5089,-197.39
5101,-202.23
5113,-206.62
5125,-209.12
5137,-208.38
5149,-203.88
5161,-196.21
5173,-186.94
5185,-177.93
5196,-170.63
5207,-165.58
5219,-162.48
5231,-160.7
5243,-159.71
5255,-159.33
5267,-159.53
5279,-160.08
5291,-160.28
5303,-159.15
5315,-155.73
5327,-149.57
5339,-141.02
5351,-131.07
5363,-120.97
5375,-111.69
5386,-103.58
5397,-96.28
5409,-88.88
5421,-80.38
5433,-70.03
5445,-57.62
5457,-43.43
5469,-28.13
5481,-12.5
5493,2.6
5505,16.32
5517,27.84
5529,36.5
5541,41.91
5553,44.2
5565,44.02
5576,42.39
5587,40.4
5599,38.91
5611,38.26
5623,38.35
5635,38.73
5647,38.9
5659,38.43
5671,37.18
5683,35.21
5695,32.67
5707,29.69
5719,26.33
5731,22.58
5743,18.47
5755,14.14
5766,9.86
5777,5.9
5789,2.43
5801,-0.52
5813,-3.07
5825,-5.38
5837,-7.54
5849,-9.59
5861,-11.55
5873,-13.53
5885,-15.7
5897,-18.27
5909,-21.35
5921,-24.79
5933,-28.13
5945,-30.65
5956,-31.54
5967,-30.13
5979,-26.19
5991,-19.95
6003,-12.17
6015,-3.88
6027,3.95
6039,10.69
6051,16.13
6063,20.47
6075,24.06
6087,27.21
6099,30.03
6111,32.48
6123,34.46
6135,35.96
6146,37.06
6157,37.91
6169,38.63
6181,39.33
6193,39.99
6205,40.61
6217,41.12
6229,41.46
6241,41.53
6253,41.23
6265,40.49
6277,39.3
6289,37.73
6301,35.93
6313,34.0
6325,31.97
6336,29.79
6347,27.37
6359,24.61
6371,21.47
6383,17.96
6395,14.16
6407,10.3
6419,6.81
6431,4.34
6443,3.6
6455,5.1
6467,8.99
6479,14.94
6491,22.24
6503,30.09
6515,37.75
6526,44.7
6537,50.62
6549,55.29
6561,58.58
6573,60.48
6585,61.05
6597,60.52
6609,59.19
6621,57.38
6633,55.31
6645,53.19
6657,51.1
6669,49.1
6681,47.16
6693,45.16
6705,43.04
6716,40.72
6727,38.25
6739,35.73
6751,33.24
6763,30.79
6775,28.32
6787,25.77
6799,23.13
6811,20.51
6823,17.99
6835,15.54
6847,12.98
6859,10.01
6871,6.31
6883,1.7
6895,-3.81
6906,-9.97
6917,-16.37
6929,-22.45
6941,-27.6
6953,-31.17
6965,-32.67
6977,-31.87
6989,-29.01
7001,-24.71
7013,-19.83
7025,-15.21
7037,-11.34
7049,-8.35
7061,-6.05
7073,-4.14
7085,-2.43
7096,-0.92
7107,0.28
7119,1.1
7131,1.62
7143,2.1
7155,2.78
7167,3.86
7179,5.29
7191,6.89
7203,8.36
7215,9.44
7227,10.04
7239,10.16
7251,9.88
7263,9.29
7275,8.48
7286,7.47
7297,6.31
7309,5.06
7321,3.77
7333,2.51
7345,1.31
7357,0.18
7369,-0.95
7381,-2.19
7393,-3.76
7405,-5.76
7417,-8.19
7429,-10.77
7441,-12.99
7453,-14.18
7465,-13.77
7476,-11.56
7487,-7.76
7499,-2.97
7511,2.11
7523,6.94
7535,11.24
7547,14.99
7559,18.21
7571,20.81
7583,22.6
7595,23.38
7607,23.12
7619,22.13
7631,20.86
7643,19.81
7655,19.26
7666,19.23
7677,19.54
7689,20.0
7701,20.48
7713,20.94
7725,21.36
7737,21.61
7749,21.53
7761,20.96
7773,19.81
7785,18.11
7797,15.98
7809,13.53
7821,10.85
7833,8.03
7845,5.17
7856,2.37
7867,-0.28
7879,-2.86
7891,-5.57
7903,-8.7
7915,-12.41
7927,-16.52
7939,-20.49
7951,-23.5
7963,-24.7
7975,-23.6
7987,-20.19
7999,-15.01
8011,-8.88
8023,-2.64
8035,3.13
8046,8.17
8057,12.51
8069,16.24
8081,19.36
8093,21.69
8105,23.04
8117,23.34
8129,22.73
8141,21.65
8153,20.59
8165,19.93
8177,19.76
8189,19.89
8201,19.98
8213,19.78
8225,19.23
8236,18.48
8247,17.74
8259,17.13
8271,16.6
8283,15.91
8295,14.85
8307,13.31
8319,11.37
8331,9.24
8343,7.15
8355,5.28
8367,3.63
8379,2.15
8391,0.71
8403,-0.86
8415,-2.65
8426,-4.78
8437,-7.3
8449,-10.24
8461,-13.57
8473,-17.08
8485,-20.45
8497,-23.15
8509,-24.62
8521,-24.36
8533,-22.18
8545,-18.2
8557,-12.93
8569,-7.04
8581,-1.18
8593,4.19
8605,8.89
8616,12.92
8627,16.32
8639,19.09
8651,21.14
8663,22.4
8675,22.93
8687,22.93
8699,22.69
8711,22.48
8723,22.44
8735,22.55
8747,22.66
8759,22.65
8771,22.47
8783,22.15
8795,21.76
8806,21.32
8817,20.81
8829,20.18
8841,19.39
8853,18.49
8865,17.59
8877,16.75
8889,15.91
8901,14.95
8913,13.74
8925,12.25
8937,10.6
8949,8.98
8961,7.56
8973,6.31
8985,5.04
8996,3.46
9007,1.3
9019,-1.52
9031,-4.96
9043,-8.89
9055,-13.22
9067,-17.91
9079,-22.94
9091,-28.1
9103,-32.98
9115,-36.93
9127,-39.33
9139,-39.76
9151,-38.18
9163,-34.97
9175,-30.71
9186,-26.06
9197,-21.5
9209,-17.34
9221,-13.66
9233,-10.48
9245,-7.82
9257,-5.67
9269,-4.03
9281,-2.87
9293,-2.11
9305,-1.68
9317,-1.48
9329,-1.38
9341,-1.24
9353,-0.91
9365,-0.28
9376,0.63
9387,1.75
9399,2.91
9411,3.91
9423,4.67
9435,5.16
9447,5.44
9459,5.59
9471,5.68
9483,5.66
9495,5.45
9507,4.95
9519,4.14
9531,3.09
9543,1.91
9555,0.69
9566,-0.53
9577,-1.73
9589,-2.94
9601,-4.09
9613,-5.12
9625,-5.97
9637,-6.63
9649,-7.21
9661,-7.92
9673,-8.97
9685,-10.53
9697,-12.67
9709,-15.29
9721,-18.17
9733,-20.93
9745,-23.12
9756,-24.28
9767,-24.1
9779,-22.48
9791,-19.57
9803,-15.74
9815,-11.48
9827,-7.24
9839,-3.39
9851,-0.12
9863,2.49
9875,4.43
9887,5.8
9899,6.72
9911,7.35
9923,7.81
9935,8.19
9946,8.52
9957,8.75
9969,8.88
9981,8.91
9993,8.91
10005,8.92
10017,8.95
10029,9.03
10041,9.13
10053,9.25
10065,9.35
10077,9.39
10089,9.27
10101,8.86
10113,8.11
10125,7.02
10136,5.72
10147,4.37
10159,3.06
10171,1.83
10183,0.62
10195,-0.64
10207,-1.99
10219,-3.45
10231,-4.99
10243,-6.56
10255,-8.16
10267,-9.7
10279,-11.14
10291,-12.45
10303,-13.66
10315,-14.88
10326,-16.28
10337,-18.01
10349,-20.13
10361,-22.55
10373,-24.99
10385,-27.04
10397,-28.23
10409,-28.15
10421,-26.63
10433,-23.77
10445,-19.92
10457,-15.65
10469,-11.48
10481,-7.82
10493,-4.81
10505,-2.42
10516,-0.5
10527,1.06
10539,2.36
10551,3.43
10563,4.31
10575,5.05
10587,5.74
10599,6.42
10611,7.12
10623,7.83
10635,8.53
10647,9.17
10659,9.74
10671,10.19
10683,10.55
10695,10.83
10706,11.07
10717,11.26
10729,11.34
10741,11.23
10753,10.85
10765,10.21
10777,9.39
10789,8.53
10801,7.7
10813,6.86
10825,5.89
10837,4.68
10849,3.19
10861,1.53
10873,-0.14
10885,-1.69
10896,-3.11
10907,-4.46
10919,-5.87
10931,-7.46
10943,-9.3
10955,-11.4
10967,-13.72
10979,-16.13
10991,-18.38
11003,-20.13
11015,-21.03
11027,-20.83
11039,-19.48
11051,-17.13
11063,-14.1
11075,-10.77
11086,-7.47
11097,-4.45
11109,-1.85
11121,0.3
11133,2.03
11145,3.37
11157,4.36
11169,4.96
11181,5.13
11193,4.89
11205,4.31
11217,3.5
11229,2.64
11241,1.85
11253,1.27
11265,1.01
11276,1.13
11287,1.59
11299,2.26
11311,2.87
11323,3.17
11335,2.97
11347,2.26
11359,1.22
11371,0.1
11383,-0.83
11395,-1.47
11407,-1.85
11419,-2.08
11431,-2.34
11443,-2.72
11455,-3.28
11466,-3.96
11477,-4.74
11489,-5.59
11501,-6.5
11513,-7.52
11525,-8.68
11537,-10.02
11549,-11.47
11561,-12.92
11573,-14.15
11585,-14.95
11597,-15.16
11609,-14.67
11621,-13.48
11633,-11.68
11645,-9.42
11656,-6.91
11667,-4.34
11679,-1.87
11691,0.37
11703,2.28
11715,3.78
11727,4.79
11739,5.25
11751,5.2
11763,4.77
11775,4.2
11787,3.72
11799,3.52
11811,3.7
11823,4.2
11835,4.88
11846,5.55
11857,6.03
11869,6.24
11881,6.13
11893,5.79
11905,5.33
11917,4.87
11929,4.47
11941,4.08
11953,3.57
11965,2.8
11977,1.72
11989,0.37
12001,-1.08
12013,-2.47
12025,-3.73
12036,-4.87
12047,-6.04
12059,-7.39
12071,-9.08
12083,-11.19
12095,-13.66
12107,-16.3
12119,-18.72
12131,-20.52
12143,-21.31
12155,-20.93
12167,-19.48
12179,-17.25
12191,-14.64
12203,-11.94
12215,-9.3
12226,-6.81
12237,-4.53
12249,-2.57
12261,-1.07
12273,-0.07
12285,0.49
12297,0.83
12309,1.14
12321,1.61
12333,2.24
12345,2.94
12357,3.56
12369,3.98
12381,4.17
12393,4.2
12405,4.19
12416,4.26
12427,4.46
12439,4.7
12451,4.82
12463,4.57
12475,3.81
12487,2.54
12499,0.96
12511,-0.64
12523,-1.98
12535,-2.95
12547,-3.71
12559,-4.54
12571,-5.75
12583,-7.51
12595,-9.78
12606,-12.34
12617,-14.97
12629,-17.53
12641,-19.98
12653,-22.34
12665,-24.5
12677,-26.18
12689,-26.98
12701,-26.53
12713,-24.69
12725,-21.62
12737,-17.76
12749,-13.62
12761,-9.67
12773,-6.13
12785,-3.11
12796,-0.56
12807,1.54
12819,3.17
12831,4.31
12843,4.95
12855,5.19
12867,5.2
12879,5.17
12891,5.27
12903,5.52
12915,5.88
12927,6.22
12939,6.45
12951,6.54
12963,6.53
12975,6.5
12986,6.52
12997,6.56
13009,6.52
13021,6.22
13033,5.53
13045,4.39
13057,2.84
13069,1.02
13081,-0.96
13093,-2.98
13105,-5.01
13117,-7.07
13129,-9.19
13141,-11.38
13153,-13.63
13165,-15.95
13176,-18.39
13187,-21.01
13199,-23.75
13211,-26.43
13223,-28.64
13235,-29.9
13247,-29.76
13259,-27.98
13271,-24.63
13283,-20.11
13295,-14.98
13307,-9.8
13319,-4.98
13331,-0.72
13343,2.92
13355,5.96
13366,8.43
13377,10.36
13389,11.81
13401,12.86
13413,13.64
13425,14.31
13437,14.93
13449,15.55
13461,16.13
13473,16.67
13485,17.18
13497,17.67
13509,18.14
13521,18.49
13533,18.62
13545,18.43
13556,17.93
13567,17.15
13579,16.16
13591,14.98
13603,13.54
13615,11.76
13627,9.62
13639,7.23
13651,4.81
13663,2.6
13675,0.73
13687,-0.84
13699,-2.33
13711,-4.01
13723,-6.14
13735,-8.8
13746,-11.95
13757,-15.45
13769,-19.14
13781,-22.9
13793,-26.57
13805,-29.92
13817,-32.56
13829,-33.98
13841,-33.74
13853,-31.58
13865,-27.59
13877,-22.21
13889,-16.07
13901,-9.82
13913,-3.93
13925,1.38
13936,6.06
13947,10.13
13959,13.59
13971,16.39
13983,18.46
13995,19.81
14007,20.55
14019,20.92
14031,21.16
14043,21.45
14055,21.86
14067,22.37
14079,22.88
14091,23.31
14103,23.64
14115,23.94
14126,24.31
14137,24.77
14149,25.22
14161,25.47
14173,25.25
14185,24.39
14197,22.86
14209,20.82
14221,18.57
14233,16.39
14245,14.43
14257,12.65
14269,10.82
14281,8.67
14293,6.05
14305,3.0
14316,-0.28
14327,-3.52
14339,-6.48
14351,-9.05
14363,-11.25
14375,-13.18
14387,-15.03
14399,-17.02
14411,-19.41
14423,-22.41
14435,-26.06
14447,-30.03
14459,-33.66
14471,-36.12
14483,-36.62
14495,-34.76
14506,-30.66
14517,-24.92
14529,-18.31
14541,-11.56
14553,-5.17
14565,0.61
14577,5.72
14589,10.15
14601,13.88
14613,16.91
14625,19.3
14637,21.1
14649,22.37
14661,23.13
14673,23.47
14685,23.53
14696,23.52
14707,23.62
14719,23.98
14731,24.56
14743,25.29
14755,26.03
14767,26.76
14779,27.48
14791,28.19
14803,28.77
14815,29.01
14827,28.64
14839,27.49
14851,25.62
14863,23.3
14875,20.91
14886,18.79
14897,17.08
14909,15.68
14921,14.29
14933,12.57
14945,10.3
14957,7.45
14969,4.25
14981,1.04
14993,-1.84
15005,-4.18
15017,-6.04
15029,-7.69
15041,-9.49
15053,-11.78
15065,-14.71
15076,-18.22
15087,-22.14
15099,-26.18
15111,-30.06
15123,-33.51
15135,-36.22
15147,-37.84
15159,-37.98
15171,-36.34
15183,-32.82
15195,-27.67
15207,-21.41
15219,-14.75
15231,-8.37
15243,-2.68
15255,2.21
15266,6.36
15277,9.91
15289,12.9
15301,15.22
15313,16.78
15325,17.54
15337,17.75
15349,17.77
15361,18.06
15373,18.91
15385,20.34
15397,22.05
15409,23.6
15421,24.58
15433,24.83
15445,24.48
15456,23.9
15467,23.44
15479,23.3
15491,23.41
15503,23.49
15515,23.22
15527,22.36
15539,20.93
15551,19.1
15563,17.14
15575,15.29
15587,13.63
15599,12.16
15611,10.75
15623,9.27
15635,7.64
15646,5.76
15657,3.63
15669,1.26
15681,-1.31
15693,-4.02
15705,-6.73
15717,-9.3
15729,-11.62
15741,-13.64
15753,-15.47
15765,-17.35
15777,-19.6
15789,-22.42
15801,-25.82
15813,-29.53
15825,-33.05
15836,-35.79
15847,-37.2
15859,-36.92
15871,-34.83
15883,-31.04
15895,-25.87
15907,-19.77
15919,-13.3
15931,-6.99
15943,-1.28
15955,3.51
15967,7.27
15979,10.02
15991,11.88
16003,13.04
16015,13.71
16026,14.1
16037,14.38
16049,14.72
16061,15.21
16073,15.88
16085,16.71
16097,17.64
16109,18.57
16121,19.37
16133,20.0
16145,20.41
16157,20.66
16169,20.74
16181,20.62
16193,20.15
16205,19.16
16216,17.61
16227,15.64
16239,13.59
16251,11.81
16263,10.47
16275,9.46
16287,8.41
16299,6.92
16311,4.76
16323,2.05
16335,-0.86
16347,-3.58
16359,-5.87
16371,-7.75
16383,-9.42
16395,-11.14
16406,-13.06
16417,-15.19
16429,-17.51
16441,-19.97
16453,-22.59
16465,-25.42
16477,-28.37
16489,-31.12
16501,-33.12
16513,-33.75
16525,-32.52
16537,-29.32
16549,-24.49
16561,-18.73
16573,-12.83
16585,-7.41
16596,-2.7
16607,1.31
16619,4.8
16631,7.89
16643,10.52
16655,12.52
16667,13.77
16679,14.24
16691,14.13
16703,13.73
16715,13.4
16727,13.38
16739,13.75
16751,14.45
16763,15.26
16775,15.94
16786,16.29
16797,16.24
16809,15.87
16821,15.24
16833,14.45
16845,13.48
16857,12.31
16869,10.97
16881,9.57
16893,8.29
16905,7.31
16917,6.63
16929,6.02
16941,5.17
16953,3.76
16965,1.7
16976,-0.81
16987,-3.42
16999,-5.75
17011,-7.62
17023,-9.07
17035,-10.38
17047,-11.83
17059,-13.67
17071,-15.97
17083,-18.67
17095,-21.61
17107,-24.48
17119,-26.94
17131,-28.52
17143,-28.79
17155,-27.48
17166,-24.55
17177,-20.31
17189,-15.25
17201,-9.98
17213,-4.99
17225,-0.57
17237,3.19
17249,6.3
17261,8.78
17273,10.6
17285,11.71
17297,12.12
17309,11.95
17321,11.44
17333,10.92
17345,10.67
17356,10.83
17367,11.35
17379,12.04
17391,12.66
17403,13.04
17415,13.11
17427,12.92
17439,12.52
17451,11.94
17463,11.16
17475,10.19
17487,9.09
17499,7.95
17511,6.88
17523,5.87
17535,4.8
17546,3.5
17557,1.9
17569,0.04
17581,-1.92
17593,-3.85
17605,-5.7
17617,-7.59
17629,-9.61
17641,-11.88
17653,-14.36
17665,-17.0
17677,-19.75
17689,-22.64
17701,-25.68
17713,-28.73
17725,-31.48
17736,-33.44
17747,-34.11
17759,-33.17
17771,-30.61
17783,-26.76
17795,-22.18
17807,-17.43
17819,-12.98
17831,-9.02
17843,-5.54
17855,-2.41
17867,0.48
17879,3.1
17891,5.28
17903,6.84
17915,7.7
17926,8.02
17937,8.15
17949,8.48
17961,9.23
17973,10.41
17985,11.82
17997,13.23
18009,14.48
18021,15.54
18033,16.46
18045,17.24
18057,17.77
18069,17.9
18081,17.5
18093,16.6
18105,15.43
18116,14.29
18127,13.49
18139,13.12
18151,13.06
18163,12.96
18175,12.49
18187,11.47
18199,9.94
18211,8.16
18223,6.43
18235,4.91
18247,3.51
18259,1.93
18271,-0.2
18283,-3.09
18295,-6.69
18306,-10.64
18317,-14.42
18329,-17.48
18341,-19.36
18353,-19.79
18365,-18.7
18377,-16.19
18389,-12.47
18401,-7.93
18413,-3.07
18425,1.57
18437,5.48
18449,8.34
18461,10.09
18473,10.88
18485,11.04
18496,10.86
18507,10.54
18519,10.18
18531,9.77
18543,9.36
18555,9.01
18567,8.84
18579,8.95
18591,9.34
18603,9.93
18615,10.58
18627,11.14
18639,11.51
18651,11.66
18663,11.57
18675,11.23
18686,10.62
18697,9.72
18709,8.5
18721,6.96
18733,5.15
18745,3.1
18757,0.91
18769,-1.34
18781,-3.57
18793,-5.75
18805,-7.88
18817,-9.99
18829,-12.09
18841,-14.2
18853,-16.34
18865,-18.54
18876,-20.85
18887,-23.3
18899,-25.82
18911,-28.23
18923,-30.15
18935,-31.15
18947,-30.86
18959,-29.13
18971,-26.05
18983,-21.97
18995,-17.32
19007,-12.53
19019,-7.92
19031,-3.69
19043,0.0
19055,3.03
19066,5.27
19077,6.7
19089,7.36
19101,7.43
19113,7.13
19125,6.66
19137,6.2
19149,5.84
19161,5.69
19173,5.8
19185,6.21
19197,6.9
19209,7.77
19221,8.69
19233,9.5
19245,10.08
19256,10.34
19267,10.2
19279,9.59
19291,8.46
19303,6.83
19315,4.79
19327,2.52
19339,0.28
19351,-1.72
19363,-3.4
19375,-4.87
19387,-6.39
19399,-8.24
19411,-10.68
19423,-13.69
19435,-17.04
19446,-20.25
19457,-22.74
19469,-23.99
19481,-23.7
19493,-21.82
19505,-18.61
19517,-14.5
19529,-10.01
19541,-5.64
19553,-1.77
19565,1.37
19577,3.81
19589,5.6
19601,6.9
19613,7.78
19625,8.23
19636,8.24
19647,7.86
19659,7.26
19671,6.72
19683,6.49
19695,6.73
19707,7.37
19719,8.17
19731,8.85
19743,9.19
19755,9.12
19767,8.69
19779,8.0
19791,7.13
19803,6.05
19815,4.69
19826,3.05
19837,1.21
19849,-0.67
19861,-2.43
19873,-3.98
19885,-5.41
19897,-6.95
19909,-8.86
19921,-11.37
19933,-14.47
19945,-17.91
19957,-21.28
19969,-24.1
19981,-25.95
19993,-26.54
20005,-25.78
20016,-23.71
20027,-20.51
20039,-16.5
20051,-12.07
20063,-7.64
20075,-3.58
20087,-0.14
20099,2.61
20111,4.72
20123,6.31
20135,7.5
20147,8.29
20159,8.64
20171,8.57
20183,8.17
20195,7.62
20206,7.14
20217,6.84
20229,6.75
20241,6.73
20253,6.69
20265,6.58
20277,6.47
20289,6.47
20301,6.6
20313,6.75
20325,6.68
20337,6.11
20349,4.9
20361,3.08
20373,0.88
20385,-1.4
20396,-3.54
20407,-5.43
20419,-7.17
20431,-8.95
20443,-11.0
20455,-13.49
20467,-16.45
20479,-19.72
20491,-22.99
20503,-25.8
20515,-27.62
20527,-28.01
20539,-26.68
20551,-23.63
20563,-19.23
20575,-13.99
20586,-8.55
20597,-3.39
20609,1.2
20621,5.13
20633,8.44
20645,11.14
20657,13.25
20669,14.79
20681,15.85
20693,16.59
20705,17.22
20717,17.87
20729,18.58
20741,19.31
20753,19.99
20765,20.59
20776,21.11
20787,21.58
20799,21.98
20811,22.28
20823,22.4
20835,22.28
20847,21.89
20859,21.23
20871,20.32
20883,19.13
20895,17.65
20907,15.88
20919,13.8
20931,11.51
20943,9.11
20955,6.7
20966,4.37
20977,2.16
20989,0.05
