seconds,BVP
2,25.23
14,24.43
26,22.88
38,21.17
50,19.73
61,18.81
72,18.4
84,18.34
96,18.45
108,18.59
120,18.72
132,18.87
144,19.09
156,19.41
168,19.8
180,20.12
192,20.21
204,19.9
216,19.09
228,17.79
240,16.13
251,14.31
262,12.44
274,10.56
286,8.55
298,6.29
310,3.72
322,0.9
334,-1.99
346,-4.77
358,-7.31
370,-9.63
382,-11.82
394,-13.94
406,-16.03
418,-18.03
430,-19.95
441,-21.9
452,-24.14
464,-26.98
476,-30.56
488,-34.71
500,-38.81
512,-41.93
524,-43.1
536,-41.63
548,-37.38
560,-30.8
572,-22.75
584,-14.27
596,-6.17
608,1.01
620,7.04
631,11.88
642,15.53
654,17.98
666,19.27
678,19.51
690,18.99
702,18.09
714,17.21
726,16.6
738,16.32
750,16.26
762,16.18
774,15.92
786,15.47
798,14.99
810,14.69
821,14.69
832,14.94
844,15.17
856,15.05
868,14.32
880,12.94
892,11.08
904,8.98
916,6.87
928,4.82
940,2.74
952,0.49
964,-2.07
976,-5.0
988,-8.27
1000,-11.73
1011,-15.17
1022,-18.28
1034,-20.78
1046,-22.48
1058,-23.39
1070,-23.75
1082,-24.01
1094,-24.7
1106,-26.21
1118,-28.69
1130,-31.85
1142,-35.02
1154,-37.25
1166,-37.6
1178,-35.44
1190,-30.61
1201,-23.54
1212,-15.1
1224,-6.35
1236,1.76
1248,8.57
1260,13.83
1272,17.61
1284,20.19
1296,21.98
1308,23.36
1320,24.64
1332,26.02
1344,27.58
1356,29.32
1368,31.21
1380,33.22
1391,35.32
1402,37.45
1414,39.52
1426,41.34
1438,42.74
1450,43.53
1462,43.6
1474,42.86
1486,41.29
1498,38.92
1510,35.88
1522,32.32
1534,28.42
1546,24.29
1558,19.9
1570,15.2
1581,10.14
1592,4.83
1604,-0.45
1616,-5.34
1628,-9.52
1640,-12.87
1652,-15.54
1664,-17.91
1676,-20.47
1688,-23.62
1700,-27.52
1712,-31.99
1724,-36.51
1736,-40.3
1748,-42.51
1760,-42.48
1771,-39.9
1782,-34.91
1794,-28.05
1806,-20.1
1818,-11.87
1830,-4.04
1842,2.88
1854,8.56
1866,12.85
1878,15.69
1890,17.17
1902,17.51
1914,17.03
1926,16.07
1938,14.92
1950,13.77
1961,12.71
1972,11.75
1984,10.92
1996,10.26
2008,9.87
2020,9.81
2032,10.09
2044,10.55
2056,10.99
2068,11.18
2080,10.94
2092,10.22
2104,9.06
2116,7.59
2128,5.98
2140,4.33
2151,2.72
2162,1.18
2174,-0.33
2186,-1.88
2198,-3.55
2210,-5.4
2222,-7.47
2234,-9.74
2246,-12.15
2258,-14.56
2270,-16.86
2282,-19.01
2294,-21.1
2306,-23.36
2318,-25.98
2330,-28.97
2341,-32.03
2352,-34.48
2364,-35.56
2376,-34.62
2388,-31.43
2400,-26.23
2412,-19.57
2424,-12.16
2436,-4.61
2448,2.6
2460,9.12
2472,14.71
2484,19.16
2496,22.36
2508,24.3
2520,25.09
2531,24.92
2542,24.02
2554,22.67
2566,21.16
2578,19.82
2590,18.89
2602,18.46
2614,18.48
2626,18.75
2638,19.08
2650,19.33
2662,19.49
2674,19.56
2686,19.5
2698,19.19
2710,18.48
2721,17.33
2732,15.85
2744,14.33
2756,13.03
2768,12.12
2780,11.55
2792,11.05
2804,10.33
2816,9.16
2828,7.52
2840,5.55
2852,3.49
2864,1.57
2876,-0.16
2888,-1.75
2900,-3.36
2911,-5.09
2922,-6.97
2934,-8.93
2946,-10.87
2958,-12.72
2970,-14.5
2982,-16.26
2994,-18.09
3006,-20.04
3018,-22.21
3030,-24.65
3042,-27.36
3054,-30.17
3066,-32.64
3078,-34.12
3090,-33.89
3101,-31.5
3112,-26.92
3124,-20.66
3136,-13.57
3148,-6.48
3160,-0.02
3172,5.52
3184,10.05
3196,13.52
3208,15.79
3220,16.7
3232,16.24
3244,14.65
3256,12.46
3268,10.29
3280,8.68
3291,7.86
3302,7.76
3314,8.11
3326,8.63
3338,9.18
3350,9.73
3362,10.36
3374,11.1
3386,11.88
3398,12.52
3410,12.8
3422,12.61
3434,11.96
3446,10.98
3458,9.85
3470,8.67
3481,7.41
3492,5.98
3504,4.3
3516,2.38
3528,0.33
3540,-1.67
3552,-3.49
3564,-5.1
3576,-6.56
3588,-7.96
3600,-9.36
3612,-10.73
3624,-12.04
3636,-13.24
3648,-14.33
3660,-15.37
3671,-16.47
3682,-17.8
3694,-19.56
3706,-21.88
3718,-24.71
3730,-27.72
3742,-30.25
3754,-31.5
3766,-30.79
3778,-27.8
3790,-22.71
3802,-16.17
3814,-9.0
3826,-1.96
3838,4.37
3850,9.7
3861,13.89
3872,16.87
3884,18.56
3896,18.96
3908,18.17
3920,16.46
3932,14.22
3944,11.93
3956,10.05
3968,8.89
3980,8.57
3992,8.97
4004,9.8
4016,10.69
4028,11.38
4040,11.77
4051,11.92
4062,11.97
4074,12.02
4086,11.99
4098,11.69
4110,10.91
4122,9.55
4134,7.71
4146,5.65
4158,3.64
4170,1.84
4182,0.26
4194,-1.24
4206,-2.77
4218,-4.36
4230,-5.95
4241,-7.41
4252,-8.67
4264,-9.78
4276,-10.85
4288,-12.06
4300,-13.51
4312,-15.19
4324,-17.06
4336,-19.07
4348,-21.29
4360,-23.84
4372,-26.73
4384,-29.74
4396,-32.35
4408,-33.81
4420,-33.44
4431,-30.79
4442,-25.92
4454,-19.28
4466,-11.64
4478,-3.8
4490,3.6
4502,10.13
4514,15.53
4526,19.68
4538,22.57
4550,24.3
4562,25.09
4574,25.25
4586,25.08
4598,24.87
4610,24.77
4621,24.83
4632,24.98
4644,25.07
4656,24.91
4668,24.36
4680,23.34
4692,21.89
4704,20.19
4716,18.44
4728,16.81
4740,15.38
4752,14.08
4764,12.76
4776,11.29
4788,9.62
4800,7.8
4811,5.95
4822,4.18
4834,2.57
4846,1.13
4858,-0.17
4870,-1.39
4882,-2.63
4894,-3.97
4906,-5.49
4918,-7.23
4930,-9.14
4942,-11.17
4954,-13.22
4966,-15.24
4978,-17.15
4990,-18.89
5001,-20.33
5012,-21.36
5024,-21.99
5036,-22.38
5048,-22.95
5060,-24.16
5072,-26.35
5084,-29.48
5096,-33.0
5108,-35.97
5120,-37.34
5132,-36.28
5144,-32.5
5156,-26.3
5168,-18.52
5180,-10.18
5191,-2.23
5202,4.72
5214,10.41
5226,14.81
5238,17.99
5250,20.01
5262,20.85
5274,20.56
5286,19.35
5298,17.58
5310,15.7
5322,14.12
5334,13.06
5346,12.57
5358,12.53
5370,12.79
5381,13.24
5392,13.82
5404,14.47
5416,15.12
5428,15.61
5440,15.78
5452,15.48
5464,14.72
5476,13.6
5488,12.35
5500,11.19
5512,10.21
5524,9.38
5536,8.52
5548,7.44
5560,6.02
5571,4.23
5582,2.14
5594,-0.11
5606,-2.41
5618,-4.6
5630,-6.57
5642,-8.27
5654,-9.72
5666,-11.1
5678,-12.62
5690,-14.43
5702,-16.54
5714,-18.77
5726,-20.89
5738,-22.78
5750,-24.49
5761,-26.29
5772,-28.54
5784,-31.49
5796,-35.17
5808,-39.24
5820,-43.06
5832,-45.8
5844,-46.65
5856,-45.1
5868,-41.03
5880,-34.81
5892,-27.22
5904,-19.17
5916,-11.55
5928,-4.94
5940,0.45
5951,4.72
5962,8.22
5974,11.27
5986,14.14
5998,16.88
6010,19.4
6022,21.54
6034,23.24
6046,24.52
6058,25.53
6070,26.43
6082,27.25
6094,27.93
6106,28.33
6118,28.34
6130,28.01
6141,27.47
6152,26.88
6164,26.31
6176,25.72
6188,24.94
6200,23.83
6212,22.31
6224,20.44
6236,18.38
6248,16.28
6260,14.25
6272,12.33
6284,10.5
6296,8.67
6308,6.8
6320,4.89
6331,3.0
6342,1.23
6354,-0.36
6366,-1.78
6378,-3.1
6390,-4.46
6402,-6.03
6414,-7.86
6426,-9.92
6438,-12.09
6450,-14.19
6462,-16.1
6474,-17.8
6486,-19.38
6498,-21.02
6510,-22.97
6521,-25.39
6532,-28.33
6544,-31.55
6556,-34.51
6568,-36.51
6580,-36.85
6592,-35.05
6604,-31.07
6616,-25.23
6628,-18.19
6640,-10.69
6652,-3.39
6664,3.23
6676,8.81
6688,13.18
6700,16.22
6711,17.94
6722,18.44
6734,17.94
6746,16.68
6758,14.96
6770,13.09
6782,11.37
6794,10.1
6806,9.48
6818,9.6
6830,10.35
6842,11.48
6854,12.68
6866,13.71
6878,14.45
6890,14.91
6901,15.13
6912,15.17
6924,15.0
6936,14.6
6948,13.94
6960,13.02
6972,11.93
6984,10.74
6996,9.52
7008,8.26
7020,6.9
7032,5.34
7044,3.56
7056,1.58
7068,-0.53
7080,-2.65
7091,-4.69
7102,-6.63
7114,-8.46
7126,-10.21
7138,-11.92
7150,-13.6
7162,-15.24
7174,-16.87
7186,-18.58
7198,-20.53
7210,-22.91
7222,-25.81
7234,-29.04
7246,-32.07
7258,-34.14
7270,-34.39
7281,-32.21
7292,-27.48
7304,-20.6
7316,-12.39
7328,-3.8
7340,4.35
7352,11.48
7364,17.31
7376,21.72
7388,24.7
7400,26.24
7412,26.41
7424,25.41
7436,23.56
7448,21.3
7460,19.06
7471,17.18
7482,15.84
7494,15.02
7506,14.64
7518,14.61
7530,14.83
7542,15.2
7554,15.62
7566,15.96
7578,16.09
7590,15.96
7602,15.63
7614,15.21
7626,14.85
7638,14.59
7650,14.35
7661,13.94
7672,13.16
7684,11.84
7696,9.95
7708,7.61
7720,5.04
7732,2.47
7744,0.1
7756,-2.02
7768,-3.94
7780,-5.78
7792,-7.73
7804,-9.9
7816,-12.28
7828,-14.8
7840,-17.3
7851,-19.63
7862,-21.71
7874,-23.61
7886,-25.48
7898,-27.62
7910,-30.32
7922,-33.74
7934,-37.7
7946,-41.65
7958,-44.74
7970,-45.99
7982,-44.67
7994,-40.54
8006,-33.91
8018,-25.57
8030,-16.51
8041,-7.65
8052,0.38
8064,7.24
8076,12.77
8088,16.9
8100,19.62
8112,20.98
8124,21.13
8136,20.36
8148,19.04
8160,17.51
8172,16.03
8184,14.78
8196,13.85
8208,13.31
8220,13.18
8231,13.47
8242,14.11
8254,15.01
8266,16.01
8278,16.94
8290,17.67
8302,18.09
8314,18.13
8326,17.82
8338,17.18
8350,16.32
8362,15.31
8374,14.21
8386,13.04
8398,11.74
8410,10.22
8421,8.45
8432,6.46
8444,4.38
8456,2.38
8468,0.55
8480,-1.12
8492,-2.8
8504,-4.68
8516,-6.89
8528,-9.4
8540,-12.0
8552,-14.43
8564,-16.47
8576,-18.1
8588,-19.46
8600,-20.84
8611,-22.56
8622,-24.89
8634,-27.89
8646,-31.38
8658,-34.84
8670,-37.56
8682,-38.73
8694,-37.71
8706,-34.21
8718,-28.42
8730,-20.89
8742,-12.41
8754,-3.79
8766,4.25
8778,11.17
8790,16.61
8801,20.4
8812,22.56
8824,23.3
8836,22.91
8848,21.75
8860,20.13
8872,18.33
8884,16.63
8896,15.25
8908,14.41
8920,14.17
8932,14.47
8944,15.1
8956,15.85
8968,16.56
8980,17.18
8991,17.7
9002,18.1
9014,18.3
9026,18.17
9038,17.66
9050,16.78
9062,15.67
9074,14.45
9086,13.15
9098,11.71
9110,10.0
9122,8.0
9134,5.86
9146,3.82
9158,2.13
9170,0.85
9181,-0.18
9192,-1.3
9204,-2.81
9216,-4.82
9228,-7.2
9240,-9.65
9252,-11.89
9264,-13.8
9276,-15.41
9288,-16.86
9300,-18.27
9312,-19.76
9324,-21.42
9336,-23.39
9348,-25.76
9360,-28.46
9371,-31.12
9382,-33.06
9394,-33.45
9406,-31.68
9418,-27.55
9430,-21.43
9442,-14.11
9454,-6.51
9466,0.61
9478,6.77
9490,11.77
9502,15.58
9514,18.19
9526,19.55
9538,19.66
9550,18.65
9561,16.78
9572,14.49
9584,12.29
9596,10.59
9608,9.68
9620,9.6
9632,10.18
9644,11.13
9656,12.13
9668,12.99
9680,13.64
9692,14.16
9704,14.63
9716,15.06
9728,15.35
9740,15.28
9751,14.65
9762,13.39
9774,11.57
9786,9.39
9798,7.12
9810,4.98
9822,3.11
9834,1.57
9846,0.29
9858,-0.88
9870,-2.16
9882,-3.74
9894,-5.69
9906,-7.91
9918,-10.16
9930,-12.15
9941,-13.72
9952,-14.88
9964,-15.83
9976,-16.86
9988,-18.22
10000,-20.08
10012,-22.5
10024,-25.35
10036,-28.32
10048,-30.89
10060,-32.39
10072,-32.14
10084,-29.68
10096,-24.98
10108,-18.45
10120,-10.85
10131,-3.09
10142,4.1
10154,10.18
10166,14.88
10178,18.12
10190,19.87
10202,20.18
10214,19.22
10226,17.29
10238,14.85
10250,12.4
10262,10.37
10274,9.04
10286,8.4
10298,8.26
10310,8.33
10321,8.39
10332,8.38
10344,8.43
10356,8.76
10368,9.55
10380,10.82
10392,12.35
10404,13.79
10416,14.78
10428,15.13
10440,14.82
10452,14.01
10464,12.9
10476,11.63
10488,10.29
10500,8.84
10511,7.18
10522,5.2
10534,2.81
10546,0.03
10558,-2.99
10570,-5.99
10582,-8.68
10594,-10.85
10606,-12.5
10618,-13.83
10630,-15.18
10642,-16.92
10654,-19.33
10666,-22.52
10678,-26.38
10690,-30.57
10701,-34.47
10712,-37.28
10724,-38.22
10736,-36.7
10748,-32.56
10760,-26.09
10772,-17.98
10784,-9.1
10796,-0.3
10808,7.74
10820,14.55
10832,19.83
10844,23.44
10856,25.38
10868,25.8
10880,24.99
10891,23.35
10902,21.31
10914,19.27
10926,17.53
10938,16.32
10950,15.68
10962,15.59
10974,15.92
10986,16.48
10998,17.1
11010,17.63
11022,17.98
11034,18.13
11046,18.09
11058,17.9
11070,17.51
11081,16.89
11092,15.99
11104,14.81
11116,13.35
11128,11.65
11140,9.76
11152,7.7
11164,5.46
11176,3.03
11188,0.45
11200,-2.21
11212,-4.83
11224,-7.29
11236,-9.49
11248,-11.43
11260,-13.17
11271,-14.87
11282,-16.66
11294,-18.64
11306,-20.81
11318,-23.09
11330,-25.47
11342,-27.97
11354,-30.76
11366,-33.98
11378,-37.65
11390,-41.43
11402,-44.62
11414,-46.29
11426,-45.56
11438,-41.92
11450,-35.52
11461,-27.07
11472,-17.65
11484,-8.35
11496,0.04
11508,7.08
11520,12.69
11532,16.94
11544,19.94
11556,21.79
11568,22.6
11580,22.56
11592,21.92
11604,21.0
11616,20.06
11628,19.28
11640,18.67
11651,18.16
11662,17.67
11674,17.21
11686,16.89
11698,16.86
11710,17.25
11722,18.03
11734,18.99
11746,19.85
11758,20.39
11770,20.58
11782,20.52
11794,20.43
11806,20.47
11818,20.64
11830,20.78
11841,20.68
11852,20.14
11864,19.11
11876,17.65
11888,15.91
11900,14.05
11912,12.2
11924,10.37
11936,8.46
11948,6.34
11960,3.82
11972,0.83
11984,-2.61
11996,-6.3
12008,-9.97
12020,-13.31
12031,-16.13
12042,-18.42
12054,-20.35
12066,-22.27
12078,-24.61
12090,-27.66
12102,-31.44
12114,-35.62
12126,-39.46
12138,-42.06
12150,-42.57
12162,-40.47
12174,-35.76
12186,-28.89
12198,-20.68
12210,-12.02
12221,-3.73
12232,3.63
12244,9.73
12256,14.44
12268,17.7
12280,19.54
12292,20.06
12304,19.49
12316,18.14
12328,16.47
12340,14.88
12352,13.67
12364,13.0
12376,12.81
12388,12.97
12400,13.33
12411,13.82
12422,14.43
12434,15.2
12446,16.09
12458,16.96
12470,17.6
12482,17.81
12494,17.51
12506,16.73
12518,15.63
12530,14.35
12542,12.93
12554,11.32
12566,9.43
12578,7.24
12590,4.84
12601,2.47
12612,0.39
12624,-1.29
12636,-2.59
12648,-3.72
12660,-4.89
12672,-6.26
12684,-7.81
12696,-9.45
12708,-11.06
12720,-12.59
12732,-14.14
12744,-15.83
12756,-17.8
12768,-20.04
12780,-22.5
12791,-25.1
12802,-27.82
12814,-30.62
12826,-33.36
12838,-35.71
12850,-37.07
12862,-36.77
12874,-34.27
12886,-29.38
12898,-22.4
12910,-14.02
12922,-5.16
12934,3.35
12946,10.85
12958,16.96
12970,21.47
12981,24.31
12992,25.45
13004,24.99
13016,23.16
13028,20.36
13040,17.12
13052,14.01
13064,11.48
13076,9.77
13088,8.88
13100,8.6
13112,8.71
13124,8.98
13136,9.3
13148,9.64
13160,9.99
13171,10.31
13182,10.52
13194,10.51
13206,10.19
13218,9.51
13230,8.46
13242,7.05
13254,5.34
13266,3.41
13278,1.35
13290,-0.75
13302,-2.78
13314,-4.62
13326,-6.12
13338,-7.17
13350,-7.74
13361,-7.92
13372,-8.0
13384,-8.32
13396,-9.19
13408,-10.72
13420,-12.78
13432,-15.04
13444,-17.11
13456,-18.83
13468,-20.29
13480,-21.84
13492,-23.94
13504,-26.86
13516,-30.59
13528,-34.65
13540,-38.23
13551,-40.43
13562,-40.48
13574,-38.01
13586,-33.09
13598,-26.23
13610,-18.13
13622,-9.56
13634,-1.15
13646,6.59
13658,13.26
13670,18.6
13682,22.44
13694,24.78
13706,25.81
13718,25.89
13730,25.42
13741,24.74
13752,24.03
13764,23.39
13776,22.78
13788,22.22
13800,21.74
13812,21.4
13824,21.29
13836,21.43
13848,21.79
13860,22.28
13872,22.73
13884,22.99
13896,22.92
13908,22.45
13920,21.59
13931,20.45
13942,19.11
13954,17.64
13966,16.03
13978,14.22
13990,12.17
14002,9.91
14014,7.53
14026,5.2
14038,3.05
14050,1.14
14062,-0.56
14074,-2.18
14086,-3.89
14098,-5.83
14110,-8.07
14121,-10.55
14132,-13.13
14144,-15.63
14156,-17.93
14168,-20.01
14180,-21.99
14192,-24.06
14204,-26.48
14216,-29.49
14228,-33.26
14240,-37.73
14252,-42.47
14264,-46.61
14276,-48.99
14288,-48.46
14300,-44.32
14311,-36.65
14322,-26.33
14334,-14.78
14346,-3.5
14358,6.37
14370,14.26
14382,20.1
14394,24.12
14406,26.58
14418,27.72
14430,27.79
14442,27.09
14454,26.0
14466,24.88
14478,23.99
14490,23.4
14501,23.01
14512,22.6
14524,22.03
14536,21.25
14548,20.37
14560,19.59
14572,19.11
14584,19.03
14596,19.32
14608,19.86
14620,20.45
14632,20.88
14644,21.01
14656,20.7
14668,19.98
14680,18.92
14691,17.64
14702,16.28
14714,14.9
14726,13.48
14738,11.94
14750,10.19
14762,8.19
14774,5.94
14786,3.52
14798,0.97
14810,-1.68
14822,-4.41
14834,-7.21
14846,-10.0
14858,-12.69
14870,-15.15
14881,-17.37
14892,-19.41
14904,-21.44
14916,-23.71
14928,-26.43
14940,-29.68
14952,-33.32
14964,-36.9
14976,-39.73
14988,-41.05
15000,-40.21
15012,-36.95
15024,-31.47
15036,-24.38
15048,-16.54
15060,-8.72
15071,-1.53
15082,4.71
15094,9.87
15106,13.89
15118,16.68
15130,18.2
15142,18.48
15154,17.72
15166,16.29
15178,14.64
15190,13.17
15202,12.11
15214,11.48
15226,11.18
15238,11.06
15250,11.02
15261,11.06
15272,11.21
15284,11.49
15296,11.84
15308,12.16
15320,12.3
15332,12.12
15344,11.56
15356,10.59
15368,9.23
15380,7.57
15392,5.76
15404,4.0
15416,2.49
15428,1.32
15440,0.44
15451,-0.38
15462,-1.45
15474,-2.97
15486,-4.98
15498,-7.29
15510,-9.6
15522,-11.6
15534,-13.15
15546,-14.32
15558,-15.36
15570,-16.59
15582,-18.28
15594,-20.56
15606,-23.4
15618,-26.58
15630,-29.74
15641,-32.33
15652,-33.75
15664,-33.41
15676,-30.99
15688,-26.49
15700,-20.34
15712,-13.23
15724,-5.94
15736,0.87
15748,6.78
15760,11.6
15772,15.26
15784,17.74
15796,19.01
15808,19.11
15820,18.22
15831,16.64
15842,14.78
15854,13.02
15866,11.64
15878,10.73
15890,10.25
15902,10.06
15914,10.0
15926,9.94
15938,9.75
15950,9.3
15962,8.54
15974,7.51
15986,6.4
15998,5.48
16010,5.03
16021,5.19
16032,5.84
16044,6.64
16056,7.16
16068,7.02
16080,6.05
16092,4.3
16104,2.01
16116,-0.59
16128,-3.29
16140,-5.97
16152,-8.56
16164,-10.97
16176,-13.12
16188,-14.93
16200,-16.46
16211,-17.87
16222,-19.49
16234,-21.66
16246,-24.59
16258,-28.2
16270,-31.99
16282,-35.13
16294,-36.67
16306,-35.9
16318,-32.55
16330,-26.92
16342,-19.72
16354,-11.87
16366,-4.13
16378,2.98
16390,9.19
16401,14.41
16412,18.56
16424,21.53
16436,23.25
16448,23.75
16460,23.22
16472,22.0
16484,20.47
16496,19.02
16508,17.91
16520,17.29
16532,17.13
16544,17.33
16556,17.71
16568,18.1
16580,18.4
16591,18.62
16602,18.82
16614,19.04
16626,19.23
16638,19.21
16650,18.76
16662,17.72
16674,16.06
16686,13.94
16698,11.61
16710,9.35
16722,7.27
16734,5.37
16746,3.52
16758,1.59
16770,-0.49
16781,-2.67
16792,-4.86
16804,-7.03
16816,-9.18
16828,-11.35
16840,-13.56
16852,-15.78
16864,-17.95
16876,-20.07
16888,-22.25
16900,-24.73
16912,-27.73
16924,-31.29
16936,-35.13
16948,-38.57
16960,-40.72
16971,-40.76
16982,-38.18
16994,-33.01
17006,-25.8
17018,-17.41
17030,-8.77
17042,-0.62
17054,6.52
17066,12.45
17078,17.11
17090,20.54
17102,22.82
17114,24.04
17126,24.36
17138,24.02
17150,23.28
17161,22.45
17172,21.73
17184,21.25
17196,21.04
17208,21.05
17220,21.25
17232,21.63
17244,22.23
17256,23.08
17268,24.09
17280,25.08
17292,25.71
17304,25.69
17316,24.84
17328,23.16
17340,20.88
17351,18.29
17362,15.69
17374,13.29
17386,11.11
17398,9.14
17410,7.3
17422,5.51
17434,3.76
17446,2.03
17458,0.35
17470,-1.29
17482,-2.9
17494,-4.49
17506,-6.08
17518,-7.71
17530,-9.41
17541,-11.21
17552,-13.14
17564,-15.2
17576,-17.35
17588,-19.51
17600,-21.6
17612,-23.64
17624,-25.81
17636,-28.36
17648,-31.52
17660,-35.26
17672,-39.12
17684,-42.25
17696,-43.65
17708,-42.55
17720,-38.71
17731,-32.52
17742,-24.79
17754,-16.48
17766,-8.34
17778,-0.81
17790,5.92
17802,11.74
17814,16.48
17826,19.92
17838,21.88
17850,22.43
17862,21.84
17874,20.59
17886,19.22
17898,18.14
17910,17.56
17921,17.47
17932,17.74
17944,18.15
17956,18.55
17968,18.91
17980,19.27
17992,19.72
18004,20.3
18016,20.94
18028,21.44
18040,21.56
18052,21.17
18064,20.24
18076,18.92
18088,17.43
18100,15.95
18111,14.57
18122,13.28
18134,12.01
18146,10.68
18158,9.22
18170,7.58
18182,5.72
18194,3.69
18206,1.6
18218,-0.37
18230,-2.06
18242,-3.44
18254,-4.63
18266,-5.89
18278,-7.46
18290,-9.49
18301,-11.91
18312,-14.55
18324,-17.19
18336,-19.71
18348,-22.05
18360,-24.22
18372,-26.26
18384,-28.25
18396,-30.35
18408,-32.75
18420,-35.56
18432,-38.61
18444,-41.36
18456,-42.99
18468,-42.63
18480,-39.72
18491,-34.3
18502,-26.96
18514,-18.67
18526,-10.41
18538,-2.94
18550,3.35
18562,8.38
18574,12.17
18586,14.77
18598,16.2
18610,16.47
18622,15.71
18634,14.25
18646,12.51
18658,10.99
18670,10.04
18681,9.82
18692,10.19
18704,10.88
18716,11.67
18728,12.46
18740,13.38
18752,14.57
18764,16.02
18776,17.48
18788,18.52
18800,18.77
18812,18.13
18824,16.79
18836,15.15
18848,13.59
18860,12.27
18871,11.11
18882,9.93
18894,8.61
18906,7.15
18918,5.71
18930,4.44
18942,3.42
18954,2.6
18966,1.79
18978,0.81
18990,-0.49
19002,-2.17
19014,-4.15
19026,-6.3
19038,-8.44
19050,-10.48
19061,-12.36
19072,-14.1
19084,-15.73
19096,-17.31
19108,-18.98
19120,-20.93
19132,-23.35
19144,-26.27
19156,-29.37
19168,-31.97
19180,-33.19
19192,-32.23
19204,-28.75
19216,-23.0
19228,-15.72
19240,-7.86
19251,-0.29
19262,6.41
19274,11.93
19286,16.17
19298,19.12
19310,20.81
19322,21.35
19334,20.93
19346,19.82
19358,18.37
19370,16.92
19382,15.69
19394,14.83
19406,14.36
19418,14.2
19430,14.25
19441,14.4
19452,14.63
19464,14.93
19476,15.34
19488,15.86
19500,16.41
19512,16.87
19524,17.08
19536,16.92
19548,16.34
19560,15.37
19572,14.04
19584,12.44
19596,10.66
19608,8.77
19620,6.82
19631,4.87
19642,2.96
19654,1.13
19666,-0.6
19678,-2.23
19690,-3.78
19702,-5.31
19714,-6.9
19726,-8.61
19738,-10.43
19750,-12.3
19762,-14.08
19774,-15.66
19786,-16.96
19798,-17.98
19810,-18.85
19821,-19.8
19832,-21.11
19844,-23.02
19856,-25.59
19868,-28.6
19880,-31.46
19892,-33.36
19904,-33.52
19916,-31.42
19928,-27.01
19940,-20.75
19952,-13.41
19964,-5.82
19976,1.29
19988,7.46
20000,12.45
20011,16.15
20022,18.52
20034,19.62
20046,19.57
20058,18.63
20070,17.17
20082,15.59
20094,14.25
20106,13.43
20118,13.21
20130,13.55
20142,14.28
20154,15.19
20166,16.12
20178,16.95
20190,17.69
20201,18.36
20212,19.01
20224,19.63
20236,20.14
20248,20.43
20260,20.4
20272,20.0
20284,19.24
20296,18.21
20308,16.97
20320,15.57
20332,13.99
20344,12.22
20356,10.24
20368,8.16
20380,6.1
20391,4.15
20402,2.33
20414,0.56
20426,-1.35
20438,-3.58
20450,-6.19
20462,-9.14
20474,-12.23
20486,-15.25
20498,-18.0
20510,-20.39
20522,-22.47
20534,-24.42
20546,-26.45
20558,-28.78
20570,-31.62
20581,-35.03
20592,-38.9
20604,-42.78
20616,-45.97
20628,-47.58
20640,-46.84
20652,-43.39
20664,-37.4
20676,-29.58
20688,-20.89
20700,-12.27
20712,-4.41
20724,2.35
20736,7.85
20748,12.06
20760,14.96
20771,16.6
20782,17.19
20794,17.06
20806,16.62
20818,16.18
20830,15.88
20842,15.68
20854,15.46
20866,15.17
20878,14.85
20890,14.69
20902,14.82
20914,15.3
20926,16.03
20938,16.8
20950,17.38
20961,17.59
20972,17.37
20984,16.73
20996,15.77
