seconds,BVP
8,-18.62
20,-17.94
32,-15.83
44,-12.91
56,-9.93
68,-7.46
80,-5.76
92,-4.65
104,-3.76
116,-2.59
128,-0.52
140,3.24
151,9.5
162,18.59
174,29.77
186,40.94
198,49.11
210,51.4
222,46.39
234,34.78
246,19.22
258,3.19
270,-10.39
282,-19.96
294,-25.43
306,-27.44
318,-26.52
330,-22.62
341,-15.34
352,-4.52
364,9.23
376,24.46
388,39.28
400,52.06
412,61.95
424,68.98
436,73.78
448,76.96
460,78.61
472,78.15
484,74.71
496,67.76
508,57.66
520,45.74
531,33.83
542,23.43
554,15.03
566,7.95
578,0.71
590,-8.16
602,-19.37
614,-32.57
626,-46.5
638,-59.55
650,-70.46
662,-78.65
674,-84.27
686,-87.86
698,-89.93
710,-90.66
721,-89.89
732,-87.35
744,-82.87
756,-76.56
768,-68.81
780,-60.1
792,-50.88
804,-41.5
816,-32.39
828,-24.1
840,-17.2
852,-11.96
864,-8.03
876,-4.39
888,0.27
900,6.92
911,15.52
922,24.93
934,33.15
946,37.93
958,37.39
970,30.39
982,16.71
994,-2.85
1006,-26.42
1018,-51.14
1030,-73.56
1042,-90.45
1054,-99.63
1066,-100.68
1078,-94.92
1090,-84.8
1101,-72.95
1112,-61.44
1124,-51.35
1136,-42.98
1148,-36.17
1160,-30.67
1172,-26.23
1184,-22.71
1196,-19.95
1208,-17.8
1220,-16.05
1232,-14.41
1244,-12.51
1256,-9.97
1268,-6.48
1280,-2.01
1291,3.09
1302,8.22
1314,12.7
1326,16.02
1338,17.97
1350,18.62
1362,18.14
1374,16.64
1386,14.05
1398,10.23
1410,5.08
1422,-1.3
1434,-8.53
1446,-15.92
1458,-22.56
1470,-27.47
1481,-29.79
1492,-28.94
1504,-24.78
1516,-17.64
1528,-8.28
1540,2.25
1552,12.75
1564,22.03
1576,29.12
1588,33.44
1600,34.91
1612,33.94
1624,31.39
1636,28.28
1648,25.61
1660,24.14
1671,24.27
1682,26.05
1694,29.26
1706,33.5
1718,38.34
1730,43.39
1742,48.39
1754,53.09
1766,57.23
1778,60.43
1790,62.23
1802,62.14
1814,59.84
1826,55.27
1838,48.66
1850,40.51
1861,31.43
1872,22.02
1884,12.81
1896,4.22
1908,-3.49
1920,-10.19
1932,-15.85
1944,-20.55
1956,-24.4
1968,-27.63
1980,-30.53
1992,-33.42
2004,-36.54
2016,-39.85
2028,-42.94
2040,-45.08
2051,-45.44
2062,-43.45
2074,-39.02
2086,-32.64
2098,-25.12
2110,-17.38
2122,-10.09
2134,-3.62
2146,1.92
2158,6.51
2170,10.06
2182,12.41
2194,13.46
2206,13.25
2218,12.09
2230,10.49
2241,9.06
2252,8.25
2264,8.28
2276,9.05
2288,10.22
2300,11.45
2312,12.49
2324,13.29
2336,13.97
2348,14.61
2360,15.21
2372,15.54
2384,15.29
2396,14.2
2408,12.23
2420,9.55
2431,6.54
2442,3.57
2454,0.88
2466,-1.56
2478,-3.96
2490,-6.57
2502,-9.64
2514,-13.32
2526,-17.68
2538,-22.64
2550,-27.95
2562,-33.07
2574,-37.19
2586,-39.38
2598,-38.82
2610,-35.16
2621,-28.64
2632,-20.1
2644,-10.7
2656,-1.6
2668,6.3
2680,12.54
2692,16.99
2704,19.77
2716,21.05
2728,21.0
2740,19.83
2752,17.77
2764,15.18
2776,12.46
2788,10.04
2800,8.22
2811,7.11
2822,6.6
2834,6.44
2846,6.39
2858,6.35
2870,6.35
2882,6.51
2894,6.83
2906,7.17
2918,7.16
2930,6.41
2942,4.67
2954,1.96
2966,-1.35
2978,-4.77
2990,-7.8
3001,-10.19
3012,-11.97
3024,-13.45
3036,-15.08
3048,-17.3
3060,-20.41
3072,-24.46
3084,-29.18
3096,-33.96
3108,-37.97
3120,-40.3
3132,-40.16
3144,-37.15
3156,-31.38
3168,-23.48
3180,-14.41
3191,-5.3
3202,2.9
3214,9.58
3226,14.48
3238,17.66
3250,19.31
3262,19.65
3274,18.86
3286,17.18
3298,14.89
3310,12.41
3322,10.18
3334,8.56
3346,7.65
3358,7.36
3370,7.43
3381,7.64
3392,7.92
3404,8.34
3416,9.0
3428,9.95
3440,11.03
3452,11.92
3464,12.21
3476,11.55
3488,9.81
3500,7.17
3512,4.03
3524,0.88
3536,-1.88
3548,-4.12
3560,-5.99
3571,-7.9
3582,-10.33
3594,-13.55
3606,-17.52
3618,-21.8
3630,-25.59
3642,-28.01
3654,-28.32
3666,-26.12
3678,-21.53
3690,-15.09
3702,-7.62
3714,0.01
3726,7.1
3738,13.18
3750,18.03
3761,21.56
3772,23.69
3784,24.38
3796,23.63
3808,21.62
3820,18.72
3832,15.48
3844,12.5
3856,10.19
3868,8.73
3880,8.03
3892,7.87
3904,8.01
3916,8.34
3928,8.83
3940,9.49
3951,10.18
3962,10.7
3974,10.75
3986,10.13
3998,8.77
4010,6.81
4022,4.56
4034,2.31
4046,0.28
4058,-1.48
4070,-3.12
4082,-4.95
4094,-7.29
4106,-10.34
4118,-14.02
4130,-17.93
4141,-21.37
4152,-23.53
4164,-23.72
4176,-21.56
4188,-17.14
4200,-10.91
4212,-3.62
4224,3.9
4236,10.88
4248,16.75
4260,21.18
4272,24.05
4284,25.38
4296,25.3
4308,24.03
4320,21.86
4331,19.14
4342,16.3
4354,13.72
4366,11.7
4378,10.37
4390,9.68
4402,9.5
4414,9.67
4426,10.08
4438,10.67
4450,11.35
4462,12.02
4474,12.47
4486,12.49
4498,11.95
4510,10.8
4521,9.15
4532,7.15
4544,5.01
4556,2.88
4568,0.82
4580,-1.2
4592,-3.28
4604,-5.58
4616,-8.25
4628,-11.33
4640,-14.65
4652,-17.79
4664,-20.12
4676,-20.91
4688,-19.6
4700,-16.0
4711,-10.42
4722,-3.59
4734,3.55
4746,10.12
4758,15.5
4770,19.47
4782,22.07
4794,23.5
4806,23.94
4818,23.5
4830,22.27
4842,20.45
4854,18.3
4866,16.18
4878,14.38
4890,13.06
4901,12.24
4912,11.82
4924,11.67
4936,11.74
4948,12.04
4960,12.58
4972,13.28
4984,13.99
4996,14.46
5008,14.49
5020,13.95
5032,12.83
5044,11.23
5056,9.33
5068,7.29
5080,5.23
5091,3.2
5102,1.17
5114,-0.96
5126,-3.32
5138,-5.99
5150,-9.02
5162,-12.34
5174,-15.78
5186,-19.03
5198,-21.67
5210,-23.21
5222,-23.22
5234,-21.42
5246,-17.83
5258,-12.79
5270,-6.87
5281,-0.7
5292,5.15
5304,10.3
5316,14.46
5328,17.46
5340,19.11
5352,19.3
5364,18.06
5376,15.58
5388,12.27
5400,8.6
5412,5.08
5424,2.13
5436,0.08
5448,-0.91
5460,-0.84
5471,0.11
5482,1.6
5494,3.22
5506,4.62
5518,5.6
5530,6.12
5542,6.24
5554,6.06
5566,5.61
5578,4.88
5590,3.84
5602,2.5
5614,0.94
5626,-0.71
5638,-2.33
5650,-3.85
5661,-5.27
5672,-6.68
5684,-8.16
5696,-9.79
5708,-11.6
5720,-13.59
5732,-15.71
5744,-17.84
5756,-19.75
5768,-21.04
5780,-21.23
5792,-19.88
5804,-16.81
5816,-12.17
5828,-6.49
5840,-0.51
5851,5.07
5862,9.78
5874,13.39
5886,15.93
5898,17.45
5910,18.0
5922,17.61
5934,16.34
5946,14.45
5958,12.3
5970,10.32
5982,8.85
5994,8.03
6006,7.78
6018,7.92
6030,8.25
6041,8.69
6052,9.2
6064,9.79
6076,10.39
6088,10.9
6100,11.17
6112,11.11
6124,10.69
6136,9.92
6148,8.8
6160,7.28
6172,5.36
6184,3.1
6196,0.68
6208,-1.69
6220,-3.81
6231,-5.66
6242,-7.35
6254,-9.09
6266,-11.05
6278,-13.33
6290,-15.88
6302,-18.59
6314,-21.23
6326,-23.53
6338,-25.09
6350,-25.48
6362,-24.34
6374,-21.48
6386,-17.03
6398,-11.38
6410,-5.13
6421,1.19
6432,7.14
6444,12.43
6456,16.86
6468,20.27
6480,22.52
6492,23.61
6504,23.73
6516,23.28
6528,22.75
6540,22.58
6552,22.98
6564,23.92
6576,25.18
6588,26.5
6600,27.67
6611,28.62
6622,29.36
6634,29.92
6646,30.28
6658,30.34
6670,30.0
6682,29.11
6694,27.58
6706,25.4
6718,22.65
6730,19.47
6742,16.01
6754,12.35
6766,8.52
6778,4.48
6790,0.25
6801,-4.05
6812,-8.21
6824,-11.99
6836,-15.24
6848,-17.95
6860,-20.26
6872,-22.44
6884,-24.77
6896,-27.46
6908,-30.64
6920,-34.27
6932,-38.17
6944,-41.96
6956,-45.11
6968,-47.05
6980,-47.29
6991,-45.6
7002,-42.09
7014,-37.17
7026,-31.47
7038,-25.63
7050,-20.16
7062,-15.41
7074,-11.49
7086,-8.34
7098,-5.85
7110,-3.87
7122,-2.33
7134,-1.2
7146,-0.44
7158,-0.02
7170,0.14
7181,0.13
7192,0.03
7204,-0.15
7216,-0.44
7228,-0.82
7240,-1.22
7252,-1.46
7264,-1.37
7276,-0.79
7288,0.26
7300,1.64
7312,3.07
7324,4.28
7336,5.07
7348,5.34
7360,5.16
7371,4.72
7382,4.28
7394,4.1
7406,4.33
7418,5.0
7430,5.98
7442,7.03
7454,7.82
7466,8.07
7478,7.6
7490,6.41
7502,4.69
7514,2.77
7526,0.98
7538,-0.45
7550,-1.49
7561,-2.27
7572,-3.05
7584,-4.14
7596,-5.78
7608,-8.06
7620,-10.88
7632,-13.89
7644,-16.52
7656,-18.13
7668,-18.18
7680,-16.38
7692,-12.88
7704,-8.2
7716,-3.13
7728,1.56
7740,5.29
7751,7.79
7762,9.08
7774,9.37
7786,8.94
7798,8.07
7810,6.95
7822,5.76
7834,4.64
7846,3.7
7858,3.03
7870,2.64
7882,2.52
7894,2.61
7906,2.86
7918,3.25
7930,3.79
7941,4.46
7952,5.23
7964,6.0
7976,6.67
7988,7.18
8000,7.54
8012,7.8
8024,7.97
8036,8.04
8048,7.95
8060,7.67
8072,7.22
8084,6.71
8096,6.27
8108,5.97
8120,5.78
8131,5.6
8142,5.25
8154,4.67
8166,3.85
8178,2.91
8190,1.99
8202,1.2
8214,0.59
8226,0.15
8238,-0.18
8250,-0.45
8262,-0.75
8274,-1.16
8286,-1.82
8298,-2.88
8310,-4.43
8321,-6.4
8332,-8.5
8344,-10.23
8356,-10.99
8368,-10.34
8380,-8.11
8392,-4.53
8404,-0.11
8416,4.52
8428,8.84
8440,12.55
8452,15.62
8464,18.08
8476,20.0
8488,21.32
8500,21.92
8511,21.69
8522,20.66
8534,18.93
8546,16.75
8558,14.38
8570,12.09
8582,10.06
8594,8.43
8606,7.22
8618,6.35
8630,5.65
8642,4.94
8654,4.12
8666,3.21
8678,2.35
8690,1.75
8701,1.56
8712,1.81
8724,2.35
8736,2.97
8748,3.43
8760,3.56
8772,3.3
8784,2.67
8796,1.75
8808,0.63
8820,-0.56
8832,-1.68
8844,-2.62
8856,-3.28
8868,-3.58
8880,-3.55
8891,-3.27
8902,-2.88
8914,-2.48
8926,-2.12
8938,-1.71
8950,-1.08
8962,-0.11
8974,1.13
8986,2.39
8998,3.22
9010,3.22
9022,2.2
9034,0.39
9046,-1.68
9058,-3.27
9070,-3.78
9081,-2.96
9092,-0.99
9104,1.63
9116,4.24
9128,6.29
9140,7.49
9152,7.87
9164,7.68
9176,7.2
9188,6.68
9200,6.2
9212,5.74
9224,5.25
9236,4.66
9248,3.97
9260,3.24
9271,2.51
9282,1.82
9294,1.22
9306,0.74
9318,0.44
9330,0.42
9342,0.72
9354,1.36
9366,2.2
9378,3.06
9390,3.73
9402,4.06
9414,4.03
9426,3.69
9438,3.12
9450,2.35
9461,1.38
9472,0.16
9484,-1.35
9496,-3.11
9508,-5.01
9520,-6.93
9532,-8.7
9544,-10.21
9556,-11.31
9568,-11.95
9580,-12.14
9592,-12.0
9604,-11.78
9616,-11.76
9628,-12.22
9640,-13.32
9651,-15.11
9662,-17.44
9674,-20.04
9686,-22.45
9698,-24.16
9710,-24.66
9722,-23.61
9734,-20.95
9746,-16.98
9758,-12.25
9770,-7.42
9782,-3.04
9794,0.63
9806,3.56
9818,5.89
9830,7.77
9841,9.22
9852,10.18
9864,10.59
9876,10.48
9888,10.04
9900,9.53
9912,9.17
9924,9.09
9936,9.23
9948,9.46
9960,9.65
9972,9.71
9984,9.72
9996,9.78
10008,9.98
10020,10.29
10031,10.55
10042,10.53
10054,9.99
10066,8.84
10078,7.17
10090,5.2
10102,3.23
10114,1.47
10126,-0.02
10138,-1.32
10150,-2.57
10162,-3.85
10174,-5.12
10186,-6.29
10198,-7.23
10210,-7.92
10221,-8.4
10232,-8.79
10244,-9.21
10256,-9.77
10268,-10.56
10280,-11.65
10292,-13.04
10304,-14.61
10316,-16.1
10328,-17.12
10340,-17.25
10352,-16.21
10364,-13.97
10376,-10.75
10388,-6.95
10400,-2.98
10411,0.83
10422,4.25
10434,7.2
10446,9.58
10458,11.34
10470,12.37
10482,12.65
10494,12.23
10506,11.26
10518,9.99
10530,8.72
10542,7.68
10554,7.01
10566,6.74
10578,6.79
10590,7.07
10601,7.49
10612,8.02
10624,8.65
10636,9.39
10648,10.2
10660,10.98
10672,11.58
10684,11.85
10696,11.65
10708,10.92
10720,9.72
10732,8.19
10744,6.53
10756,4.89
10768,3.33
10780,1.8
10791,0.19
10802,-1.58
10814,-3.44
10826,-5.22
10838,-6.65
10850,-7.56
10862,-7.93
10874,-7.94
10886,-7.88
10898,-8.08
10910,-8.81
10922,-10.21
10934,-12.22
10946,-14.61
10958,-16.95
10970,-18.72
10981,-19.45
10992,-18.85
11004,-16.88
11016,-13.75
11028,-9.84
11040,-5.57
11052,-1.32
11064,2.58
11076,5.9
11088,8.45
11100,10.1
11112,10.85
11124,10.78
11136,10.07
11148,8.93
11160,7.58
11171,6.22
11182,4.98
11194,3.98
11206,3.26
11218,2.82
11230,2.65
11242,2.68
11254,2.82
11266,2.96
11278,3.01
11290,2.85
11302,2.45
11314,1.86
11326,1.14
11338,0.36
11350,-0.43
11361,-1.24
11372,-2.11
11384,-3.1
11396,-4.24
11408,-5.52
11420,-6.9
11432,-8.29
11444,-9.58
11456,-10.7
11468,-11.6
11480,-12.34
11492,-13.05
11504,-13.92
11516,-15.1
11528,-16.64
11540,-18.44
11551,-20.22
11562,-21.62
11574,-22.27
11586,-21.9
11598,-20.41
11610,-17.85
11622,-14.42
11634,-10.42
11646,-6.22
11658,-2.14
11670,1.5
11682,4.48
11694,6.64
11706,7.92
11718,8.34
11730,8.01
11741,7.12
11752,5.9
11764,4.63
11776,3.58
11788,2.99
11800,3.01
11812,3.64
11824,4.77
11836,6.14
11848,7.46
11860,8.47
11872,9.03
11884,9.14
11896,8.88
11908,8.32
11920,7.46
11931,6.2
11942,4.41
11954,2.06
11966,-0.72
11978,-3.62
11990,-6.29
12002,-8.46
12014,-10.12
12026,-11.45
12038,-12.77
12050,-14.31
12062,-16.17
12074,-18.23
12086,-20.28
12098,-22.03
12110,-23.25
12121,-23.71
12132,-23.21
12144,-21.57
12156,-18.69
12168,-14.65
12180,-9.68
12192,-4.24
12204,1.19
12216,6.17
12228,10.43
12240,13.88
12252,16.53
12264,18.4
12276,19.48
12288,19.7
12300,19.07
12311,17.73
12322,15.98
12334,14.23
12346,12.82
12358,11.88
12370,11.34
12382,10.98
12394,10.57
12406,10.0
12418,9.35
12430,8.72
12442,8.15
12454,7.53
12466,6.67
12478,5.42
12490,3.82
12501,2.12
12512,0.67
12524,-0.26
12536,-0.63
12548,-0.71
12560,-0.93
12572,-1.73
12584,-3.39
12596,-5.99
12608,-9.41
12620,-13.39
12632,-17.59
12644,-21.59
12656,-24.87
12668,-26.84
12680,-27.05
12691,-25.25
12702,-21.59
12714,-16.57
12726,-10.9
12738,-5.32
12750,-0.41
12762,3.46
12774,6.19
12786,7.82
12798,8.52
12810,8.5
12822,8.02
12834,7.38
12846,6.89
12858,6.85
12870,7.41
12881,8.59
12892,10.18
12904,11.87
12916,13.36
12928,14.41
12940,15.01
12952,15.29
12964,15.39
12976,15.37
12988,15.11
13000,14.34
13012,12.8
13024,10.34
13036,7.01
13048,3.04
13060,-1.27
13071,-5.68
13082,-10.08
13094,-14.51
13106,-19.08
13118,-23.86
13130,-28.83
13142,-33.71
13154,-38.03
13166,-41.12
13178,-42.31
13190,-41.1
13202,-37.39
13214,-31.5
13226,-24.15
13238,-16.21
13250,-8.48
13261,-1.52
13272,4.42
13284,9.3
13296,13.2
13308,16.18
13320,18.29
13332,19.61
13344,20.28
13356,20.49
13368,20.42
13380,20.19
13392,19.87
13404,19.46
13416,18.95
13428,18.39
13440,17.83
13451,17.35
13462,17.0
13474,16.73
13486,16.44
13498,15.97
13510,15.22
13522,14.12
13534,12.79
13546,11.38
13558,10.14
13570,9.22
13582,8.66
13594,8.36
13606,8.11
13618,7.69
13630,6.92
13641,5.7
13652,4.02
13664,1.98
13676,-0.19
13688,-2.15
13700,-3.45
13712,-3.68
13724,-2.55
13736,-0.06
13748,3.44
13760,7.36
13772,11.04
13784,13.98
13796,15.95
13808,17.03
13820,17.45
13831,17.45
13842,17.11
13854,16.33
13866,14.97
13878,13.0
13890,10.54
13902,7.9
13914,5.41
13926,3.25
13938,1.41
13950,-0.25
13962,-1.9
13974,-3.55
13986,-5.07
13998,-6.26
14010,-7.05
14021,-7.61
14032,-8.34
14044,-9.71
14056,-12.0
14068,-15.17
14080,-18.84
14092,-22.5
14104,-25.7
14116,-28.33
14128,-30.51
14140,-32.55
14152,-34.67
14164,-36.93
14176,-39.18
14188,-41.21
14200,-42.82
14211,-43.86
14222,-44.13
14234,-43.31
14246,-40.99
14258,-36.86
14270,-30.93
14282,-23.63
14294,-15.81
14306,-8.41
14318,-2.19
14330,2.55
14342,5.95
14354,8.34
14366,10.01
14378,11.07
14390,11.48
14401,11.22
14412,10.44
14424,9.5
14436,8.82
14448,8.67
14460,9.03
14472,9.64
14484,10.15
14496,10.33
14508,10.22
14520,10.04
14532,10.04
14544,10.25
14556,10.5
14568,10.4
14580,9.61
14591,7.95
14602,5.52
14614,2.58
14626,-0.55
14638,-3.6
14650,-6.47
14662,-9.14
14674,-11.61
14686,-13.88
14698,-15.95
14710,-17.88
14722,-19.77
14734,-21.71
14746,-23.66
14758,-25.39
14770,-26.46
14781,-26.35
14792,-24.66
14804,-21.26
14816,-16.43
14828,-10.72
14840,-4.87
14852,0.46
14864,4.83
14876,8.06
14888,10.21
14900,11.42
14912,11.79
14924,11.38
14936,10.21
14948,8.46
14960,6.4
14971,4.48
14982,3.08
14994,2.44
15006,2.52
15018,3.06
15030,3.69
15042,4.12
15054,4.22
15066,4.09
15078,3.93
15090,3.92
15102,4.11
15114,4.41
15126,4.61
15138,4.51
15150,4.01
15161,3.15
15172,2.06
15184,0.88
15196,-0.28
15208,-1.41
15220,-2.54
15232,-3.7
15244,-4.91
15256,-6.18
15268,-7.55
15280,-9.04
15292,-10.57
15304,-11.91
15316,-12.61
15328,-12.16
15340,-10.16
15351,-6.54
15362,-1.66
15374,3.8
15386,9.05
15398,13.45
15410,16.7
15422,18.79
15434,19.91
15446,20.26
15458,19.93
15470,18.97
15482,17.46
15494,15.65
15506,13.88
15518,12.49
15530,11.64
15541,11.2
15552,10.87
15564,10.26
15576,9.16
15588,7.57
15600,5.72
15612,3.93
15624,2.38
15636,1.1
15648,-0.02
15660,-1.18
15672,-2.51
15684,-3.98
15696,-5.5
15708,-6.92
15720,-8.2
15731,-9.35
15742,-10.48
15754,-11.67
15766,-12.96
15778,-14.35
15790,-15.84
15802,-17.43
15814,-19.1
15826,-20.71
15838,-21.93
15850,-22.32
15862,-21.44
15874,-19.0
15886,-15.08
15898,-10.05
15910,-4.48
15921,1.0
15932,5.89
15944,9.83
15956,12.67
15968,14.36
15980,14.97
15992,14.66
16004,13.68
16016,12.31
16028,10.82
16040,9.42
16052,8.3
16064,7.65
16076,7.64
16088,8.39
16100,9.84
16111,11.77
16122,13.81
16134,15.62
16146,16.97
16158,17.91
16170,18.68
16182,19.56
16194,20.72
16206,22.15
16218,23.67
16230,25.05
16242,26.12
16254,26.78
16266,26.95
16278,26.51
16290,25.29
16301,23.12
16312,19.94
16324,15.91
16336,11.4
16348,6.85
16360,2.6
16372,-1.17
16384,-4.47
16396,-7.32
16408,-9.6
16420,-10.92
16432,-10.77
16444,-8.75
16456,-4.8
16468,0.68
16480,6.9
16491,12.94
16502,18.03
16514,21.73
16526,23.94
16538,24.83
16550,24.61
16562,23.57
16574,21.9
16586,19.84
16598,17.62
16610,15.45
16622,13.47
16634,11.72
16646,10.16
16658,8.72
16670,7.33
16681,6.05
16692,4.96
16704,4.13
16716,3.54
16728,3.05
16740,2.39
16752,1.34
16764,-0.18
16776,-2.08
16788,-4.13
16800,-6.12
16812,-8.02
16824,-9.96
16836,-12.26
16848,-15.16
16860,-18.69
16871,-22.65
16882,-26.66
16894,-30.31
16906,-33.33
16918,-35.59
16930,-37.12
16942,-37.98
16954,-38.24
16966,-38.03
16978,-37.5
16990,-36.81
17002,-36.04
17014,-35.1
17026,-33.67
17038,-31.31
17050,-27.68
17061,-22.67
17072,-16.59
17084,-9.97
17096,-3.41
17108,2.62
17120,7.92
17132,12.45
17144,16.21
17156,19.14
17168,21.13
17180,22.07
17192,22.02
17204,21.22
17216,20.02
17228,18.72
17240,17.47
17251,16.23
17262,14.83
17274,13.07
17286,10.83
17298,8.14
17310,5.14
17322,2.03
17334,-1.01
17346,-3.85
17358,-6.44
17370,-8.83
17382,-11.08
17394,-13.25
17406,-15.32
17418,-17.21
17430,-18.76
17441,-19.88
17452,-20.58
17464,-20.96
17476,-21.2
17488,-21.48
17500,-21.87
17512,-22.38
17524,-22.94
17536,-23.44
17548,-23.79
17560,-23.95
17572,-23.91
17584,-23.77
17596,-23.63
17608,-23.65
17620,-23.95
17631,-24.6
17642,-25.53
17654,-26.49
17666,-27.07
17678,-26.77
17690,-25.14
17702,-21.98
17714,-17.36
17726,-11.7
17738,-5.58
17750,0.38
17762,5.69
17774,10.06
17786,13.33
17798,15.45
17810,16.4
17821,16.23
17832,15.1
17844,13.36
17856,11.42
17868,9.7
17880,8.49
17892,7.92
17904,7.94
17916,8.43
17928,9.23
17940,10.19
17952,11.19
17964,12.09
17976,12.77
17988,13.15
18000,13.18
18011,12.88
18022,12.32
18034,11.58
18046,10.72
18058,9.81
18070,8.9
18082,8.01
18094,7.14
18106,6.22
18118,5.13
18130,3.77
18142,2.12
18154,0.29
18166,-1.52
18178,-3.12
18190,-4.42
18201,-5.53
18212,-6.69
18224,-8.2
18236,-10.18
18248,-12.54
18260,-14.94
18272,-16.85
18284,-17.72
18296,-17.15
18308,-15.02
18320,-11.5
18332,-6.98
18344,-1.99
18356,2.99
18368,7.59
18380,11.56
18391,14.74
18402,16.99
18414,18.21
18426,18.33
18438,17.47
18450,15.87
18462,13.91
18474,11.95
18486,10.25
18498,8.9
18510,7.89
18522,7.14
18534,6.62
18546,6.33
18558,6.35
18570,6.71
18581,7.36
18592,8.16
18604,8.86
18616,9.22
18628,9.1
18640,8.51
18652,7.57
18664,6.46
18676,5.31
18688,4.13
18700,2.87
18712,1.44
18724,-0.13
18736,-1.75
18748,-3.27
18760,-4.53
18771,-5.5
18782,-6.26
18794,-6.99
18806,-7.9
18818,-9.14
18830,-10.8
18842,-12.85
18854,-15.11
18866,-17.28
18878,-18.89
18890,-19.47
18902,-18.63
18914,-16.21
18926,-12.42
18938,-7.73
18950,-2.75
18961,1.94
18972,6.0
18984,9.32
18996,11.92
19008,13.84
19020,15.05
19032,15.45
19044,14.97
19056,13.69
19068,11.84
19080,9.79
19092,7.93
19104,6.55
19116,5.74
19128,5.44
19140,5.45
19151,5.57
19162,5.68
19174,5.73
19186,5.78
19198,5.9
19210,6.09
19222,6.25
19234,6.26
19246,5.94
19258,5.25
19270,4.2
19282,2.93
19294,1.57
19306,0.2
19318,-1.15
19330,-2.51
19341,-3.91
19352,-5.32
19364,-6.73
19376,-8.08
19388,-9.36
19400,-10.61
19412,-11.89
19424,-13.27
19436,-14.78
19448,-16.42
19460,-18.15
19472,-19.84
19484,-21.28
19496,-22.15
19508,-22.08
19520,-20.76
19531,-18.06
19542,-14.11
19554,-9.27
19566,-4.07
19578,0.97
19590,5.43
19602,9.05
19614,11.74
19626,13.43
19638,14.15
19650,13.95
19662,12.99
19674,11.49
19686,9.75
19698,8.03
19710,6.52
19721,5.29
19732,4.34
19744,3.69
19756,3.38
19768,3.49
19780,4.02
19792,4.9
19804,5.91
19816,6.79
19828,7.31
19840,7.37
19852,6.97
19864,6.23
19876,5.25
19888,4.14
19900,2.93
19911,1.62
19922,0.22
19934,-1.26
19946,-2.78
19958,-4.32
19970,-5.89
19982,-7.55
19994,-9.31
20006,-11.19
20018,-13.12
20030,-14.99
20042,-16.72
20054,-18.27
20066,-19.62
20078,-20.69
20090,-21.31
20101,-21.18
20112,-19.96
20124,-17.46
20136,-13.73
20148,-9.18
20160,-4.35
20172,0.22
20184,4.19
20196,7.43
20208,9.97
20220,11.82
20232,12.91
20244,13.11
20256,12.34
20268,10.67
20280,8.38
20291,5.87
20302,3.58
20314,1.9
20326,1.08
20338,1.27
20350,2.42
20362,4.37
20374,6.8
20386,9.29
20398,11.44
20410,12.97
20422,13.8
20434,14.02
20446,13.77
20458,13.13
20470,12.01
20481,10.28
20492,7.84
20504,4.77
20516,1.34
20528,-2.07
20540,-5.14
20552,-7.74
20564,-9.96
20576,-12.01
20588,-14.14
20600,-16.51
20612,-19.17
20624,-22.02
20636,-24.77
20648,-26.94
20660,-27.83
20671,-26.7
20682,-23.01
20694,-16.58
20706,-7.76
20718,2.68
20730,13.73
20742,24.4
20754,33.95
20766,41.94
20778,48.26
20790,53.03
20802,56.45
20814,58.73
20826,60.01
20838,60.37
20850,59.83
20861,58.46
20872,56.37
20884,53.75
20896,50.76
20908,47.52
20920,44.1
20932,40.56
20944,36.97
20956,33.41
20968,29.87
20980,26.16
20992,21.95
