seconds,BVP
3,-71.71
15,-73.71
27,-71.76
38,-65.22
49,-54.3
61,-40.04
73,-24.03
85,-7.95
97,6.84
109,19.48
121,29.58
133,37.12
145,42.23
157,45.21
169,46.4
181,46.24
193,45.17
205,43.56
217,41.7
228,39.77
239,37.9
251,36.19
263,34.74
275,33.6
287,32.82
299,32.4
311,32.3
323,32.48
335,32.87
347,33.3
359,33.61
371,33.54
383,32.91
395,31.64
407,29.76
418,27.45
429,24.95
441,22.45
453,20.03
465,17.66
477,15.19
489,12.49
501,9.53
513,6.4
525,3.32
537,0.5
549,-1.93
561,-4.04
573,-6.02
585,-8.16
597,-10.7
608,-13.73
619,-17.17
631,-20.8
643,-24.32
655,-27.51
667,-30.29
679,-32.73
691,-35.09
703,-37.74
715,-41.11
727,-45.53
739,-51.11
751,-57.48
763,-63.73
775,-68.48
787,-70.2
798,-67.7
809,-60.55
821,-49.22
833,-35.05
845,-19.76
857,-5.06
869,7.77
881,18.03
893,25.59
905,30.72
917,33.92
929,35.73
941,36.67
953,37.1
965,37.28
977,37.31
988,37.23
999,37.09
1011,36.94
1023,36.85
1035,36.86
1047,37.01
1059,37.3
1071,37.72
1083,38.21
1095,38.68
1107,38.94
1119,38.75
1131,37.89
1143,36.19
1155,33.58
1167,30.18
1178,26.2
1189,21.96
1201,17.76
1213,13.8
1225,10.09
1237,6.54
1249,2.98
1261,-0.69
1273,-4.43
1285,-8.04
1297,-11.31
1309,-14.05
1321,-16.24
1333,-18.05
1345,-19.71
1357,-21.44
1368,-23.37
1379,-25.42
1391,-27.42
1403,-29.15
1415,-30.51
1427,-31.51
1439,-32.31
1451,-33.22
1463,-34.51
1475,-36.48
1487,-39.34
1499,-43.04
1511,-47.21
1523,-51.04
1535,-53.33
1547,-52.85
1558,-48.67
1569,-40.57
1581,-29.12
1593,-15.55
1605,-1.42
1617,11.87
1629,23.28
1641,32.3
1653,38.88
1665,43.32
1677,46.0
1689,47.35
1701,47.71
1713,47.33
1725,46.41
1737,45.2
1748,43.96
1759,43.0
1771,42.57
1783,42.77
1795,43.52
1807,44.59
1819,45.71
1831,46.66
1843,47.28
1855,47.47
1867,47.11
1879,46.08
1891,44.33
1903,41.87
1915,38.86
1927,35.53
1938,32.15
1949,28.95
1961,25.99
1973,23.21
1985,20.44
1997,17.51
2009,14.38
2021,11.09
2033,7.78
2045,4.53
2057,1.3
2069,-2.12
2081,-6.01
2093,-10.58
2105,-15.79
2117,-21.4
2128,-26.96
2139,-32.12
2151,-36.75
2163,-41.1
2175,-45.71
2187,-51.2
2199,-58.02
2211,-66.24
2223,-75.5
2235,-84.99
2247,-93.51
2259,-99.74
2271,-102.38
2283,-100.51
2295,-93.8
2307,-82.74
2318,-68.45
2329,-52.51
2341,-36.51
2353,-21.71
2365,-8.86
2377,1.81
2389,10.45
2401,17.37
2413,22.9
2425,27.3
2437,30.84
2449,33.76
2461,36.28
2473,38.58
2485,40.81
2497,43.01
2508,45.26
2519,47.62
2531,50.24
2543,53.2
2555,56.52
2567,60.06
2579,63.47
2591,66.34
2603,68.3
2615,69.13
2627,68.83
2639,67.59
2651,65.64
2663,63.18
2675,60.23
2687,56.72
2698,52.46
2709,47.3
2721,41.18
2733,34.15
2745,26.38
2757,18.07
2769,9.42
2781,0.56
2793,-8.42
2805,-17.49
2817,-26.62
2829,-35.73
2841,-44.76
2853,-53.66
2865,-62.38
2877,-70.85
2888,-78.81
2899,-85.8
2911,-91.18
2923,-94.39
2935,-95.15
2947,-93.63
2959,-90.48
2971,-86.59
2983,-82.81
2995,-79.82
3007,-78.01
3019,-77.47
3031,-77.95
3043,-78.75
3055,-78.65
3067,-76.09
3078,-69.63
3089,-58.46
3101,-42.79
3113,-23.92
3125,-3.85
3137,15.38
3149,32.15
3161,45.63
3173,55.67
3185,62.64
3197,67.15
3209,69.85
3221,71.29
3233,71.91
3245,71.99
3257,71.74
3268,71.33
3279,70.89
3291,70.52
3303,70.22
3315,69.89
3327,69.35
3339,68.51
3351,67.37
3363,66.04
3375,64.62
3387,63.14
3399,61.44
3411,59.19
3423,56.03
3435,51.75
3447,46.39
3458,40.26
3469,33.83
3481,27.57
3493,21.81
3505,16.72
3517,12.28
3529,8.35
3541,4.71
3553,1.14
3565,-2.54
3577,-6.5
3589,-10.76
3601,-15.22
3613,-19.68
3625,-23.86
3637,-27.55
3648,-30.68
3659,-33.35
3671,-35.78
3683,-38.15
3695,-40.49
3707,-42.67
3719,-44.42
3731,-45.62
3743,-46.29
3755,-46.76
3767,-47.51
3779,-49.04
3791,-51.72
3803,-55.57
3815,-60.22
3827,-64.87
3838,-68.37
3849,-69.47
3861,-67.09
3873,-60.74
3885,-50.63
3897,-37.73
3909,-23.48
3921,-9.39
3933,3.31
3945,13.96
3957,22.37
3969,28.72
3981,33.26
3993,36.24
4005,37.81
4017,38.12
4028,37.42
4039,36.09
4051,34.58
4063,33.37
4075,32.77
4087,32.95
4099,33.85
4111,35.36
4123,37.32
4135,39.59
4147,42.11
4159,44.79
4171,47.43
4183,49.73
4195,51.27
4207,51.64
4218,50.63
4229,48.27
4241,44.93
4253,41.18
4265,37.6
4277,34.57
4289,32.1
4301,29.9
4313,27.56
4325,24.75
4337,21.45
4349,17.89
4361,14.5
4373,11.63
4385,9.41
4397,7.7
4408,6.21
4419,4.65
4431,2.87
4443,0.92
4455,-1.05
4467,-2.92
4479,-4.73
4491,-6.71
4503,-9.22
4515,-12.73
4527,-17.7
4539,-24.59
4551,-33.67
4563,-44.91
4575,-57.75
4587,-70.97
4598,-82.91
4609,-91.77
4621,-96.17
4633,-95.62
4645,-90.6
4657,-82.41
4669,-72.7
4681,-62.98
4693,-54.27
4705,-47.09
4717,-41.51
4729,-37.4
4741,-34.48
4753,-32.46
4765,-30.94
4777,-29.59
4788,-28.09
4799,-26.29
4811,-24.17
4823,-21.83
4835,-19.38
4847,-16.91
4859,-14.41
4871,-11.78
4883,-8.92
4895,-5.73
4907,-2.21
4919,1.56
4931,5.38
4943,8.92
4955,11.83
4967,13.79
4978,14.57
4989,14.17
5001,12.78
5013,10.74
5025,8.44
5037,6.2
5049,4.29
5061,2.85
5073,1.96
5085,1.58
5097,1.56
5109,1.62
5121,1.5
5133,0.99
5145,0.11
5157,-0.95
5168,-1.89
5179,-2.5
5191,-2.76
5203,-2.87
5215,-3.18
5227,-4.01
5239,-5.52
5251,-7.62
5263,-10.13
5275,-12.78
5287,-15.41
5299,-18.02
5311,-20.76
5323,-23.91
5335,-27.85
5347,-32.95
5358,-39.37
5369,-46.99
5381,-55.16
5393,-62.7
5405,-68.07
5417,-69.78
5429,-66.82
5441,-59.02
5453,-47.18
5465,-32.79
5477,-17.68
5489,-3.47
5501,8.72
5513,18.34
5525,25.37
5537,30.13
5548,32.98
5559,34.29
5571,34.39
5583,33.51
5595,31.92
5607,29.91
5619,27.81
5631,25.93
5643,24.5
5655,23.68
5667,23.45
5679,23.75
5691,24.46
5703,25.53
5715,26.84
5727,28.28
5738,29.67
5749,30.79
5761,31.42
5773,31.41
5785,30.73
5797,29.46
5809,27.73
5821,25.66
5833,23.33
5845,20.81
5857,18.15
5869,15.42
5881,12.75
5893,10.19
5905,7.79
5917,5.5
5928,3.17
5939,0.64
5951,-2.26
5963,-5.61
5975,-9.33
5987,-13.19
5999,-16.92
6011,-20.26
6023,-23.17
6035,-25.88
6047,-28.87
6059,-32.74
6071,-37.92
6083,-44.41
6095,-51.58
6107,-58.21
6118,-62.74
6129,-63.69
6141,-60.12
6153,-52.0
6165,-40.21
6177,-26.28
6189,-11.92
6201,1.42
6213,12.85
6225,21.97
6237,28.74
6249,33.32
6261,35.87
6273,36.66
6285,36.03
6297,34.49
6308,32.59
6319,30.8
6331,29.41
6343,28.51
6355,28.03
6367,27.9
6379,28.12
6391,28.75
6403,29.83
6415,31.35
6427,33.13
6439,34.83
6451,36.07
6463,36.48
6475,35.84
6487,34.13
6498,31.52
6509,28.28
6521,24.71
6533,21.04
6545,17.38
6557,13.75
6569,10.09
6581,6.36
6593,2.58
6605,-1.15
6617,-4.76
6629,-8.2
6641,-11.53
6653,-14.87
6665,-18.34
6677,-21.97
6688,-25.68
6699,-29.3
6711,-32.68
6723,-35.75
6735,-38.63
6747,-41.58
6759,-44.97
6771,-49.14
6783,-54.31
6795,-60.37
6807,-66.8
6819,-72.55
6831,-76.2
6843,-76.25
6855,-71.62
6867,-62.07
6878,-48.37
6889,-32.07
6901,-15.15
6913,0.62
6925,14.02
6937,24.54
6949,32.24
6961,37.47
6973,40.63
6985,42.12
6997,42.32
7009,41.62
7021,40.42
7033,39.1
7045,37.91
7057,36.99
7068,36.33
7079,35.9
7091,35.65
7103,35.62
7115,35.89
7127,36.56
7139,37.63
7151,38.99
7163,40.32
7175,41.2
7187,41.23
7199,40.17
7211,38.05
7223,35.14
7235,31.86
7247,28.57
7258,25.46
7269,22.5
7281,19.55
7293,16.5
7305,13.35
7317,10.18
7329,7.12
7341,4.22
7353,1.45
7365,-1.2
7377,-3.74
7389,-6.08
7401,-8.19
7413,-10.11
7425,-12.02
7437,-14.2
7448,-16.84
7459,-20.05
7471,-23.72
7483,-27.61
7495,-31.42
7507,-34.96
7519,-38.14
7531,-41.08
7543,-44.05
7555,-47.39
7567,-51.46
7579,-56.6
7591,-62.82
7603,-69.74
7615,-76.42
7627,-81.42
7638,-83.12
7649,-80.22
7661,-72.26
7673,-59.79
7685,-44.3
7697,-27.74
7709,-11.92
7721,1.87
7733,13.04
7745,21.52
7757,27.57
7769,31.54
7781,33.8
7793,34.79
7805,34.95
7817,34.68
7828,34.25
7839,33.79
7851,33.36
7863,32.99
7875,32.75
7887,32.76
7899,33.13
7911,33.9
7923,35.04
7935,36.43
7947,37.91
7959,39.22
7971,40.12
7983,40.41
7995,39.94
8007,38.7
8018,36.81
8029,34.44
8041,31.78
8053,29.03
8065,26.3
8077,23.73
8089,21.39
8101,19.28
8113,17.31
8125,15.3
8137,13.03
8149,10.38
8161,7.42
8173,4.37
8185,1.59
8197,-0.68
8208,-2.39
8219,-3.79
8231,-5.23
8243,-7.07
8255,-9.44
8267,-12.2
8279,-15.09
8291,-17.87
8303,-20.46
8315,-22.97
8327,-25.65
8339,-28.77
8351,-32.55
8363,-37.15
8375,-42.63
8387,-48.9
8398,-55.5
8409,-61.55
8421,-65.75
8433,-66.7
8445,-63.35
8457,-55.43
8469,-43.62
8481,-29.34
8493,-14.34
8505,-0.21
8517,11.96
8529,21.64
8541,28.78
8553,33.59
8565,36.45
8577,37.73
8588,37.81
8599,37.03
8611,35.69
8623,34.07
8635,32.38
8647,30.87
8659,29.77
8671,29.2
8683,29.18
8695,29.63
8707,30.38
8719,31.32
8731,32.39
8743,33.53
8755,34.64
8767,35.5
8778,35.75
8789,35.07
8801,33.32
8813,30.56
8825,27.09
8837,23.32
8849,19.66
8861,16.43
8873,13.82
8885,11.81
8897,10.27
8909,8.9
8921,7.37
8933,5.4
8945,2.95
8957,0.2
8968,-2.53
8979,-4.94
8991,-6.92
9003,-8.66
9015,-10.52
9027,-12.86
9039,-15.85
9051,-19.36
9063,-23.1
9075,-26.69
9087,-29.98
9099,-32.98
9111,-35.87
9123,-38.89
9135,-42.23
9147,-46.03
9158,-50.46
9169,-55.6
9181,-61.35
9193,-67.17
9205,-71.99
9217,-74.4
9229,-73.02
9241,-67.05
9253,-56.63
9265,-42.85
9277,-27.4
9289,-12.01
9301,1.94
9313,13.68
9325,22.95
9337,29.8
9348,34.43
9359,37.11
9371,38.14
9383,37.93
9395,36.93
9407,35.54
9419,34.09
9431,32.72
9443,31.44
9455,30.27
9467,29.27
9479,28.55
9491,28.29
9503,28.6
9515,29.43
9527,30.64
9538,31.94
9549,33.01
9561,33.62
9573,33.63
9585,33.0
9597,31.8
9609,30.15
9621,28.21
9633,26.12
9645,23.93
9657,21.65
9669,19.28
9681,16.83
9693,14.36
9705,11.97
9717,9.71
9728,7.56
9739,5.41
9751,3.17
9763,0.79
9775,-1.68
9787,-4.14
9799,-6.51
9811,-8.83
9823,-11.22
9835,-13.88
9847,-16.93
9859,-20.41
9871,-24.23
9883,-28.18
9895,-32.07
9907,-35.7
9918,-39.02
9929,-42.07
9941,-45.08
9953,-48.33
9965,-52.19
9977,-56.9
9989,-62.4
10001,-68.23
10013,-73.42
10025,-76.65
10037,-76.48
10049,-71.87
10061,-62.53
10073,-49.1
10085,-33.09
10097,-16.42
10108,-0.91
10119,12.15
10131,22.19
10143,29.3
10155,33.94
10167,36.67
10179,37.97
10191,38.16
10203,37.47
10215,36.11
10227,34.3
10239,32.27
10251,30.22
10263,28.34
10275,26.74
10287,25.56
10298,24.89
10309,24.84
10321,25.43
10333,26.61
10345,28.16
10357,29.72
10369,30.93
10381,31.42
10393,31.02
10405,29.75
10417,27.81
10429,25.48
10441,23.04
10453,20.63
10465,18.25
10477,15.81
10488,13.16
10499,10.24
10511,7.09
10523,3.9
10535,0.89
10547,-1.75
10559,-3.94
10571,-5.81
10583,-7.61
10595,-9.6
10607,-11.96
10619,-14.71
10631,-17.66
10643,-20.56
10655,-23.2
10667,-25.53
10678,-27.69
10689,-29.93
10701,-32.61
10713,-36.05
10725,-40.41
10737,-45.58
10749,-50.96
10761,-55.56
10773,-58.07
10785,-57.25
10797,-52.29
10809,-43.17
10821,-30.75
10833,-16.55
10845,-2.34
10857,10.34
10868,20.5
10879,27.8
10891,32.47
10903,35.04
10915,36.06
10927,35.96
10939,35.0
10951,33.32
10963,31.09
10975,28.56
10987,26.04
10999,23.92
11011,22.47
11023,21.83
11035,21.97
11047,22.76
11058,23.97
11069,25.34
11081,26.62
11093,27.54
11105,27.88
11117,27.5
11129,26.39
11141,24.61
11153,22.33
11165,19.73
11177,17.03
11189,14.36
11201,11.8
11213,9.37
11225,6.95
11237,4.46
11248,1.8
11259,-1.03
11271,-3.98
11283,-6.99
11295,-10.04
11307,-13.17
11319,-16.41
11331,-19.79
11343,-23.26
11355,-26.73
11367,-30.13
11379,-33.46
11391,-36.8
11403,-40.33
11415,-44.26
11427,-48.82
11438,-54.11
11449,-59.99
11461,-65.9
11473,-70.85
11485,-73.51
11497,-72.64
11509,-67.47
11521,-58.05
11533,-45.29
11545,-30.69
11557,-15.95
11569,-2.43
11581,8.99
11593,17.98
11605,24.58
11617,29.11
11628,31.94
11639,33.49
11651,34.14
11663,34.22
11675,33.93
11687,33.38
11699,32.63
11711,31.75
11723,30.86
11735,30.12
11747,29.68
11759,29.65
11771,30.07
11783,30.87
11795,31.92
11807,33.07
11818,34.13
11829,34.85
11841,35.01
11853,34.4
11865,32.91
11877,30.56
11889,27.56
11901,24.21
11913,20.83
11925,17.66
11937,14.73
11949,11.93
11961,9.06
11973,5.97
11985,2.66
11997,-0.72
12008,-3.94
12019,-6.85
12031,-9.43
12043,-11.89
12055,-14.5
12067,-17.5
12079,-20.98
12091,-24.81
12103,-28.73
12115,-32.44
12127,-35.74
12139,-38.57
12151,-41.11
12163,-43.67
12175,-46.66
12187,-50.49
12198,-55.48
12209,-61.63
12221,-68.49
12233,-75.04
12245,-79.82
12257,-81.26
12269,-78.13
12281,-70.06
12293,-57.69
12305,-42.5
12317,-26.4
12329,-11.15
12341,2.03
12353,12.6
12365,20.64
12377,26.5
12388,30.63
12399,33.34
12411,34.87
12423,35.42
12435,35.2
12447,34.46
12459,33.45
12471,32.41
12483,31.49
12495,30.78
12507,30.34
12519,30.28
12531,30.71
12543,31.75
12555,33.4
12567,35.49
12578,37.69
12589,39.55
12601,40.63
12613,40.65
12625,39.52
12637,37.43
12649,34.75
12661,31.92
12673,29.26
12685,26.92
12697,24.82
12709,22.71
12721,20.32
12733,17.48
12745,14.2
12757,10.66
12768,7.16
12779,3.95
12791,1.14
12803,-1.36
12815,-3.78
12827,-6.41
12839,-9.45
12851,-12.95
12863,-16.75
12875,-20.61
12887,-24.28
12899,-27.67
12911,-30.82
12923,-33.94
12935,-37.29
12947,-41.19
12958,-45.89
12969,-51.46
12981,-57.65
12993,-63.75
13005,-68.59
13017,-70.73
13029,-68.88
13041,-62.34
13053,-51.35
13065,-37.08
13077,-21.3
13089,-5.82
13101,7.93
13113,19.24
13125,28.02
13137,34.51
13148,39.05
13159,41.9
13171,43.26
13183,43.32
13195,42.4
13207,40.9
13219,39.22
13231,37.65
13243,36.33
13255,35.34
13267,34.78
13279,34.73
13291,35.34
13303,36.64
13315,38.51
13327,40.63
13338,42.62
13349,44.03
13361,44.59
13373,44.19
13385,42.91
13397,40.96
13409,38.6
13421,36.06
13433,33.49
13445,30.93
13457,28.35
13469,25.7
13481,22.96
13493,20.18
13505,17.47
13517,14.93
13528,12.63
13539,10.55
13551,8.59
13563,6.59
13575,4.39
13587,1.93
13599,-0.78
13611,-3.66
13623,-6.5
13635,-9.16
13647,-11.56
13659,-13.71
13671,-15.84
13683,-18.24
13695,-21.17
13707,-24.77
13718,-28.92
13729,-33.3
13741,-37.47
13753,-41.15
13765,-44.33
13777,-47.29
13789,-50.57
13801,-54.69
13813,-59.95
13825,-66.18
13837,-72.7
13849,-78.27
13861,-81.43
13873,-80.83
13885,-75.66
13897,-65.93
13908,-52.55
13919,-37.02
13931,-21.09
13943,-6.28
13955,6.36
13967,16.37
13979,23.72
13991,28.67
14003,31.63
14015,33.03
14027,33.3
14039,32.78
14051,31.76
14063,30.42
14075,28.94
14087,27.48
14098,26.22
14109,25.34
14121,25.01
14133,25.32
14145,26.31
14157,27.89
14169,29.88
14181,31.96
14193,33.8
14205,35.03
14217,35.42
14229,34.88
14241,33.54
14253,31.67
14265,29.57
14277,27.46
14288,25.44
14299,23.49
14311,21.56
14323,19.64
14335,17.76
14347,16.02
14359,14.48
14371,13.09
14383,11.7
14395,10.11
14407,8.19
14419,5.95
14431,3.53
14443,1.1
14455,-1.26
14467,-3.59
14478,-6.01
14489,-8.7
14501,-11.78
14513,-15.2
14525,-18.87
14537,-22.58
14549,-26.15
14561,-29.5
14573,-32.59
14585,-35.44
14597,-38.19
14609,-41.07
14621,-44.33
14633,-48.23
14645,-52.74
14657,-57.48
14668,-61.58
14679,-63.82
14691,-63.01
14703,-58.3
14715,-49.58
14727,-37.53
14739,-23.45
14751,-8.89
14763,4.75
14775,16.47
14787,25.72
14799,32.36
14811,36.51
14823,38.47
14835,38.64
14847,37.45
14858,35.37
14869,32.82
14881,30.17
14893,27.72
14905,25.7
14917,24.29
14929,23.58
14941,23.58
14953,24.23
14965,25.44
14977,27.09
14989,29.05
15001,31.12
15013,33.01
15025,34.33
15037,34.71
15048,33.88
15059,31.85
15071,28.91
15083,25.53
15095,22.2
15107,19.2
15119,16.56
15131,14.1
15143,11.55
15155,8.75
15167,5.69
15179,2.55
15191,-0.47
15203,-3.21
15215,-5.64
15227,-7.87
15238,-10.1
15249,-12.53
15261,-15.3
15273,-18.42
15285,-21.82
15297,-25.34
15309,-28.79
15321,-32.01
15333,-34.95
15345,-37.72
15357,-40.57
15369,-43.93
15381,-48.14
15393,-53.31
15405,-59.14
15417,-64.76
15428,-68.87
15439,-70.1
15451,-67.32
15463,-60.1
15475,-48.89
15487,-34.88
15499,-19.67
15511,-4.9
15523,8.13
15535,18.63
15547,26.36
15559,31.41
15571,34.14
15583,34.94
15595,34.27
15607,32.53
15618,30.14
15629,27.48
15641,24.86
15653,22.48
15665,20.42
15677,18.67
15689,17.16
15701,15.94
15713,15.11
15725,14.82
15737,15.2
15749,16.19
15761,17.52
15773,18.83
15785,19.74
15797,20.03
15808,19.68
15819,18.78
15831,17.48
15843,15.94
15855,14.23
15867,12.48
15879,10.86
15891,9.59
15903,8.84
15915,8.65
15927,8.85
15939,9.18
15951,9.36
15963,9.25
15975,8.85
15987,8.27
15998,7.67
16009,7.06
16021,6.35
16033,5.32
16045,3.76
16057,1.52
16069,-1.42
16081,-4.97
16093,-9.03
16105,-13.48
16117,-18.32
16129,-23.55
16141,-29.25
16153,-35.47
16165,-42.28
16177,-49.77
16188,-58.1
16199,-67.38
16211,-77.41
16223,-87.55
16235,-96.68
16247,-103.37
16259,-106.34
16271,-104.85
16283,-99.02
16295,-89.73
16307,-78.34
16319,-66.21
16331,-54.45
16343,-43.8
16355,-34.65
16367,-27.23
16378,-21.59
16389,-17.6
16401,-14.9
16413,-13.01
16425,-11.41
16437,-9.81
16449,-8.16
16461,-6.71
16473,-5.72
16485,-5.29
16497,-5.21
16509,-4.99
16521,-4.02
16533,-1.81
16545,1.87
16557,6.92
16568,12.98
16579,19.6
16591,26.27
16603,32.57
16615,38.14
16627,42.67
16639,46.01
16651,48.11
16663,49.15
16675,49.49
16687,49.54
16699,49.68
16711,50.13
16723,50.84
16735,51.57
16747,51.96
16758,51.72
16769,50.76
16781,49.19
16793,47.24
16805,45.18
16817,43.13
16829,41.03
16841,38.69
16853,35.91
16865,32.58
16877,28.8
16889,24.81
16901,20.93
16913,17.37
16925,14.17
16937,11.16
16948,7.99
16959,4.24
16971,-0.5
16983,-6.51
16995,-13.84
17007,-22.25
17019,-31.1
17031,-39.41
17043,-45.96
17055,-49.5
17067,-49.1
17079,-44.38
17091,-35.68
17103,-24.03
17115,-10.94
17127,1.98
17138,13.4
17149,22.51
17161,29.11
17173,33.51
17185,36.21
17197,37.66
17209,38.12
17221,37.68
17233,36.38
17245,34.38
17257,32.0
17269,29.64
17281,27.69
17293,26.39
17305,25.87
17317,26.08
17328,26.98
17339,28.44
17351,30.24
17363,32.07
17375,33.46
17387,33.99
17399,33.33
17411,31.37
17423,28.3
17435,24.5
17447,20.45
17459,16.58
17471,13.13
17483,10.1
17495,7.33
17507,4.59
17518,1.72
17529,-1.3
17541,-4.28
17553,-6.97
17565,-9.2
17577,-10.98
17589,-12.53
17601,-14.22
17613,-16.37
17625,-19.06
17637,-22.16
17649,-25.34
17661,-28.3
17673,-30.92
17685,-33.28
17697,-35.72
17708,-38.64
17719,-42.42
17731,-47.25
17743,-53.02
17755,-59.15
17767,-64.62
17779,-68.08
17791,-68.19
17803,-64.06
17815,-55.56
17827,-43.42
17839,-29.0
17851,-13.9
17863,0.49
17875,13.22
17887,23.81
17898,32.12
17909,38.16
17921,42.06
17933,44.05
17945,44.41
17957,43.58
17969,42.04
17981,40.26
17993,38.6
18005,37.24
18017,36.14
18029,35.14
18041,34.1
18053,32.98
18065,31.96
18077,31.32
18088,31.29
18099,31.93
18111,32.98
18123,33.95
18135,34.28
18147,33.57
18159,31.74
18171,29.03
18183,25.9
18195,22.8
18207,19.99
18219,17.49
18231,15.1
18243,12.46
18255,9.34
18267,5.69
18278,1.75
18289,-2.12
18301,-5.49
18313,-8.13
18325,-10.09
18337,-11.71
18349,-13.46
18361,-15.76
18373,-18.85
18385,-22.64
18397,-26.81
18409,-30.92
18421,-34.6
18433,-37.65
18445,-40.14
18457,-42.35
18468,-44.73
18479,-47.77
18491,-51.86
18503,-57.05
18515,-62.91
18527,-68.43
18539,-72.18
18551,-72.72
18563,-68.99
18575,-60.73
18587,-48.6
18599,-33.9
18611,-18.24
18623,-3.1
18635,10.42
18647,21.67
18658,30.36
18669,36.48
18681,40.19
18693,41.79
18705,41.69
18717,40.38
18729,38.32
18741,35.91
18753,33.42
18765,31.01
18777,28.69
18789,26.46
18801,24.39
18813,22.65
18825,21.55
18837,21.41
18848,22.35
18859,24.16
18871,26.33
18883,28.18
18895,29.12
18907,28.92
18919,27.64
18931,25.61
18943,23.14
18955,20.47
18967,17.68
18979,14.77
18991,11.78
19003,8.77
19015,5.85
19027,3.05
19038,0.31
19049,-2.51
19061,-5.58
19073,-9.02
19085,-12.82
19097,-16.85
19109,-20.88
19121,-24.65
19133,-28.0
19145,-30.96
19157,-33.75
19169,-36.78
19181,-40.5
19193,-45.3
19205,-51.37
19217,-58.61
19228,-66.59
19239,-74.52
19251,-81.32
19263,-85.84
19275,-87.11
19287,-84.55
19299,-78.24
19311,-68.85
19323,-57.38
19335,-44.92
19347,-32.41
19359,-20.5
19371,-9.69
19383,-0.31
19395,7.35
19407,13.15
19418,17.16
19429,19.66
19441,21.06
19453,21.8
19465,22.29
19477,22.84
19489,23.71
19501,25.05
19513,26.95
19525,29.32
19537,31.96
19549,34.59
19561,37.0
19573,39.11
19585,40.93
19597,42.52
19608,43.88
19619,44.89
19631,45.36
19643,45.12
19655,44.12
19667,42.46
19679,40.41
19691,38.2
19703,36.04
19715,33.97
19727,31.89
19739,29.57
19751,26.84
19763,23.6
19775,19.97
19787,16.18
19798,12.46
19809,9.01
19821,5.91
19833,3.07
19845,0.33
19857,-2.51
19869,-5.61
19881,-9.07
19893,-12.84
19905,-16.81
19917,-20.82
19929,-24.67
19941,-28.26
19953,-31.59
19965,-34.84
19977,-38.34
19988,-42.52
19999,-47.7
20011,-53.97
20023,-60.94
20035,-67.69
20047,-72.83
20059,-74.89
20071,-72.77
20083,-66.14
20095,-55.58
20107,-42.39
20119,-28.17
20131,-14.4
20143,-2.12
20155,8.08
20167,16.05
20178,21.86
20189,25.75
20201,28.07
20213,29.28
20225,29.78
20237,29.93
20249,29.93
20261,29.83
20273,29.66
20285,29.48
20297,29.39
20309,29.52
20321,29.94
20333,30.69
20345,31.76
20357,33.11
20368,34.64
20379,36.15
20391,37.36
20403,37.94
20415,37.59
20427,36.23
20439,34.0
20451,31.25
20463,28.39
20475,25.8
20487,23.66
20499,21.92
20511,20.38
20523,18.81
20535,16.97
20547,14.79
20558,12.3
20569,9.66
20581,7.07
20593,4.67
20605,2.47
20617,0.37
20629,-1.85
20641,-4.46
20653,-7.59
20665,-11.23
20677,-15.19
20689,-19.18
20701,-22.96
20713,-26.38
20725,-29.51
20737,-32.54
20748,-35.78
20759,-39.56
20771,-44.18
20783,-49.74
20795,-56.06
20807,-62.43
20819,-67.72
20831,-70.53
20843,-69.56
20855,-64.12
20867,-54.36
20879,-41.36
20891,-26.74
20903,-12.19
20915,1.0
20927,12.14
20938,21.04
20949,27.82
20961,32.67
20973,35.7
20985,37.01
20997,36.78
